##NAMES=Fluorapophyllite-(K)
##RRUFFID=R060554
##IDEAL CHEMISTRY=KCa_4_Si_8_O_20_F&#183;8H_2_O
##LOCALITY=unknown
##OWNER=RRUFF
##SOURCE=Gemological Institute of America
##DESCRIPTION=Colorless polished fragment
##STATUS=The identification of this mineral has been confirmed by X-ray diffraction and chemical analysis
##URL=rruff.info/R060554
##MEASURED CHEMISTRY=(K_0.88_Na_0.12_)Ca_4.00_Si_8.00_O_20_F_1.00_Â·8H2O
107.4698, 0.0000000E+00
107.9519, 21.26312
108.4340, 37.49103
108.9161, 46.74103
109.3982, 49.26282
109.8804, 50.13635
110.3625, 46.77069
110.8446, 37.73364
111.3267, 31.61163
111.8088, 31.21094
112.2909, 29.83875
112.7731, 25.10468
113.2552, 21.42651
113.7373, 17.93652
114.2194, 13.34460
114.7015, 7.503418
115.1836, 2.750916
115.6658, 0.7166140
116.1479, 2.534973
116.6300, 2.518188
117.1121, 0.5841670
117.5942, 2.524475
118.0763, 4.728394
118.5584, 5.123779
119.0406, 6.145508
119.5227, 8.230469
120.0048, 11.39279
120.4869, 15.86340
120.9690, 22.17700
121.4511, 29.74994
121.9333, 37.20175
122.4154, 44.54074
122.8975, 52.65393
123.3796, 63.20294
123.8617, 76.63351
124.3438, 88.17212
124.8260, 95.17056
125.3081, 99.57346
125.7902, 102.3709
126.2723, 103.5076
126.7544, 104.4929
127.2365, 107.0635
127.7187, 110.1321
128.2008, 115.0246
128.6829, 122.5380
129.1650, 131.3625
129.6471, 139.7946
130.1292, 148.3360
130.6114, 156.9645
131.0935, 163.2142
131.5756, 167.2620
132.0577, 168.6459
132.5398, 167.3668
133.0219, 163.5069
133.5041, 156.7684
133.9862, 146.6203
134.4683, 132.4947
134.9504, 117.7915
135.4325, 101.1143
135.9146, 85.02286
136.3968, 70.79974
136.8789, 58.69391
137.3610, 48.67114
137.8431, 41.00568
138.3252, 35.89926
138.8073, 31.86887
139.2895, 28.83875
139.7716, 26.67239
140.2537, 25.58005
140.7358, 25.80951
141.2179, 26.04947
141.7000, 24.69772
142.1821, 21.95374
142.6643, 18.65356
143.1464, 14.72064
143.6285, 10.36823
144.1106, 6.485779
144.5927, 3.205322
145.0748, 0.6218260
145.5570, 1.345093
146.0391, 2.690002
146.5212, 3.523529
147.0033, 3.807709
147.4854, 3.490631
147.9675, 3.160828
148.4497, 2.995941
148.9318, 2.812592
149.4139, 2.741089
149.8960, 2.751404
150.3781, 2.322083
150.8602, 0.5447690
151.3424, 3.292450
151.8245, 7.004791
152.3066, 10.11334
152.7887, 13.17584
153.2708, 16.54883
153.7529, 20.36935
154.2351, 24.69159
154.7172, 29.64627
155.1993, 35.13004
155.6814, 41.51947
156.1635, 49.03937
156.6456, 57.39148
157.1278, 66.21262
157.6099, 75.33356
158.0920, 84.77457
158.5741, 94.67136
159.0562, 104.6228
159.5383, 115.3804
160.0205, 128.1978
160.5026, 142.0403
160.9847, 155.0624
161.4668, 166.9088
161.9489, 176.3315
162.4310, 179.3839
162.9131, 174.4643
163.3953, 165.5102
163.8774, 153.8667
164.3595, 139.6637
164.8416, 124.2589
165.3237, 109.6147
165.8058, 94.42636
166.2880, 80.42416
166.7701, 67.59421
167.2522, 56.07999
167.7343, 46.21445
168.2164, 38.14395
168.6985, 31.19452
169.1807, 25.01968
169.6628, 19.69586
170.1449, 15.57019
170.6270, 13.06888
171.1091, 11.76431
171.5912, 10.66422
172.0734, 9.693726
172.5555, 9.136444
173.0376, 8.737488
173.5197, 8.706512
174.0018, 9.444092
174.4839, 11.34805
174.9661, 14.43411
175.4482, 18.08020
175.9303, 22.53571
176.4124, 27.16357
176.8945, 31.38565
177.3766, 35.69049
177.8588, 40.87238
178.3409, 47.55981
178.8230, 55.79260
179.3051, 64.50235
179.7872, 73.08054
180.2693, 82.69785
180.7515, 93.80072
181.2336, 106.3100
181.7157, 119.8506
182.1978, 134.1407
182.6799, 149.2628
183.1620, 164.2613
183.6441, 180.2958
184.1263, 195.2514
184.6084, 208.9089
185.0905, 220.7942
185.5726, 229.6081
186.0547, 234.1872
186.5368, 233.9663
187.0190, 229.8889
187.5011, 220.8670
187.9832, 209.0681
188.4653, 195.0278
188.9474, 179.0589
189.4296, 163.2535
189.9117, 149.4817
190.3938, 137.8653
190.8759, 127.7452
191.3580, 119.2675
191.8401, 112.1903
192.3223, 106.3622
192.8044, 101.8421
193.2865, 98.22107
193.7686, 95.12537
194.2507, 92.51291
194.7328, 90.88663
195.2150, 90.48790
195.6971, 91.05641
196.1792, 92.31403
196.6613, 94.51003
197.1434, 96.91537
197.6255, 98.62503
198.1077, 100.0246
198.5898, 102.1786
199.0719, 105.9771
199.5540, 111.0685
200.0361, 115.8491
200.5182, 119.8012
201.0004, 124.1726
201.4825, 129.4347
201.9646, 135.5136
202.4467, 142.1596
202.9288, 149.1748
203.4109, 156.5432
203.8930, 164.4512
204.3752, 172.6640
204.8573, 181.8860
205.3394, 192.6278
205.8215, 204.5654
206.3036, 217.0362
206.7857, 229.4950
207.2679, 241.9262
207.7500, 254.5025
208.2321, 268.6020
208.7142, 281.7193
209.1963, 293.7614
209.6784, 304.0983
210.1606, 311.7766
210.6427, 315.9292
211.1248, 316.4334
211.6069, 314.1551
212.0890, 308.6248
212.5711, 301.1004
213.0533, 291.2437
213.5354, 279.6253
214.0175, 267.3804
214.4996, 255.4649
214.9817, 243.8118
215.4638, 233.0663
215.9460, 223.0172
216.4281, 213.7246
216.9102, 204.9544
217.3923, 196.8606
217.8744, 189.9301
218.3565, 184.8326
218.8387, 181.8695
219.3208, 178.3132
219.8029, 173.4656
220.2850, 168.6422
220.7671, 164.5062
221.2492, 161.1201
221.7314, 158.3423
222.2135, 156.0602
222.6956, 154.3622
223.1777, 153.2645
223.6598, 153.1653
224.1419, 153.3549
224.6240, 153.3234
225.1062, 153.0070
225.5883, 152.6163
226.0704, 152.4323
226.5525, 152.3751
227.0346, 151.8142
227.5167, 150.6230
227.9989, 148.9737
228.4810, 147.2628
228.9631, 145.5513
229.4452, 142.9535
229.9273, 138.6225
230.4094, 132.8639
230.8916, 126.5074
231.3737, 119.2663
231.8558, 111.7423
232.3379, 104.6408
232.8200, 98.02319
233.3021, 91.46895
233.7843, 84.58853
234.2664, 77.59459
234.7485, 70.79181
235.2306, 64.18123
235.7127, 57.86493
236.1948, 51.86607
236.6770, 46.08105
237.1591, 40.94472
237.6412, 37.07631
238.1233, 33.79230
238.6054, 30.30573
239.0875, 26.19347
239.5697, 22.03743
240.0518, 18.90739
240.5339, 17.09906
241.0160, 15.32991
241.4981, 12.85777
241.9802, 10.27731
242.4624, 8.207809
242.9445, 6.925125
243.4266, 6.054611
243.9087, 4.936966
244.3908, 3.435303
244.8729, 2.068695
245.3550, 0.9528200
245.8372, 3.4423999E-02
246.3193, 0.6902770
246.8014, 1.218704
247.2835, 1.625687
247.7656, 2.086761
248.2477, 2.722534
248.7299, 3.098969
249.2120, 2.891891
249.6941, 2.574982
250.1762, 2.499649
250.6583, 2.774796
251.1404, 3.278137
251.6226, 3.918365
252.1047, 5.054123
252.5868, 5.444168
253.0689, 4.521530
253.5510, 3.245148
254.0331, 2.255493
254.5153, 1.724060
254.9974, 1.433731
255.4795, 1.078720
255.9616, 0.6940920
256.4437, 0.1481780
256.9258, 0.5643010
257.4080, 1.398941
257.8901, 2.345978
258.3722, 3.394867
258.8543, 4.522720
259.3364, 5.690094
259.8185, 6.852402
260.3007, 8.188614
260.7828, 9.815125
261.2649, 11.49651
261.7470, 13.09517
262.2291, 14.59694
262.7112, 16.03857
263.1934, 17.44000
263.6755, 18.70074
264.1576, 20.32527
264.6397, 22.65640
265.1218, 24.98618
265.6039, 26.86383
266.0861, 28.31395
266.5682, 29.73091
267.0503, 31.59164
267.5324, 34.12569
268.0145, 35.45787
268.4966, 35.43242
268.9788, 34.63612
269.4609, 33.13397
269.9430, 31.06575
270.4251, 28.72441
270.9072, 26.33313
271.3893, 23.91170
271.8715, 21.31810
272.3536, 18.22975
272.8357, 15.32623
273.3178, 12.71790
273.7999, 10.51285
274.2820, 9.026718
274.7642, 8.583786
275.2463, 9.058853
275.7284, 8.905106
276.2105, 7.688583
276.6926, 6.474197
277.1747, 5.349915
277.6568, 4.485275
278.1389, 4.335434
278.6211, 5.264618
279.1032, 6.923630
279.5853, 7.780411
280.0674, 7.099503
280.5495, 6.653534
281.0316, 6.748322
281.5138, 7.389191
281.9959, 8.770187
282.4780, 11.09218
282.9601, 13.82352
283.4422, 15.45616
283.9243, 15.28424
284.4065, 15.53889
284.8886, 16.90247
285.3707, 18.90279
285.8528, 20.86349
286.3349, 22.56516
286.8170, 24.17126
287.2992, 25.93840
287.7813, 27.79506
288.2634, 29.99422
288.7455, 32.79240
289.2276, 35.86147
289.7097, 38.77599
290.1919, 41.43613
290.6740, 44.02446
291.1561, 46.74196
291.6382, 49.56248
292.1203, 52.71437
292.6024, 56.38953
293.0846, 60.31641
293.5667, 64.33189
294.0488, 68.41939
294.5309, 72.33582
295.0130, 75.84187
295.4951, 78.91293
295.9773, 81.87886
296.4594, 84.99814
296.9415, 87.80934
297.4236, 90.06100
297.9057, 91.71423
298.3878, 92.65996
298.8700, 92.79149
299.3521, 92.04456
299.8342, 90.69824
300.3163, 88.73843
300.7984, 86.23376
301.2805, 83.13867
301.7627, 79.49452
302.2448, 75.40239
302.7269, 70.77544
303.2090, 65.80359
303.6911, 60.99832
304.1732, 56.05826
304.6554, 51.64108
305.1375, 48.34508
305.6196, 45.81432
306.1017, 43.10983
306.5838, 39.85954
307.0659, 36.38626
307.5481, 33.25540
308.0302, 30.41121
308.5123, 27.85892
308.9944, 25.64037
309.4765, 23.69748
309.9586, 21.98740
310.4408, 20.57828
310.9229, 19.36638
311.4050, 18.15123
311.8871, 16.90092
312.3692, 15.80661
312.8513, 14.86133
313.3335, 14.10280
313.8156, 13.60951
314.2977, 13.40373
314.7798, 13.29938
315.2619, 13.09129
315.7440, 12.80511
316.2262, 12.76091
316.7083, 13.27628
317.1904, 13.83713
317.6725, 14.00128
318.1546, 13.77159
318.6367, 13.39575
319.1188, 12.90189
319.6010, 12.42398
320.0831, 12.44849
320.5652, 13.38100
321.0473, 14.39889
321.5294, 14.87744
322.0115, 15.01794
322.4937, 15.65793
322.9758, 17.40103
323.4579, 19.59857
323.9400, 20.45753
324.4221, 19.28118
324.9042, 18.53137
325.3864, 19.43724
325.8685, 21.33128
326.3506, 22.92841
326.8327, 23.78811
327.3148, 24.31311
327.7969, 25.14073
328.2791, 26.29780
328.7612, 27.40423
329.2433, 28.48203
329.7254, 29.56340
330.2075, 30.47556
330.6896, 31.10647
331.1718, 31.83159
331.6539, 33.16936
332.1360, 35.19965
332.6181, 36.92807
333.1002, 38.10768
333.5823, 39.15100
334.0645, 40.39038
334.5466, 41.82448
335.0287, 43.23270
335.5108, 44.44711
335.9929, 45.44347
336.4750, 46.27724
336.9572, 47.28632
337.4393, 47.87020
337.9214, 47.56377
338.4035, 46.59044
338.8856, 45.51059
339.3677, 44.57515
339.8499, 43.73740
340.3320, 42.89191
340.8141, 42.28555
341.2962, 41.24216
341.7783, 39.43478
342.2604, 37.18339
342.7426, 34.87423
343.2247, 32.62506
343.7068, 30.37209
344.1889, 28.00610
344.6710, 25.40668
345.1531, 23.08902
345.6353, 21.28415
346.1174, 19.63107
346.5995, 17.79443
347.0816, 15.79116
347.5637, 13.90176
348.0458, 12.41863
348.5280, 11.36126
349.0101, 10.29417
349.4922, 9.131271
349.9743, 8.046577
350.4564, 7.154335
350.9385, 6.411919
351.4207, 5.700508
351.9028, 4.952019
352.3849, 4.192406
352.8670, 3.528481
353.3491, 2.975441
353.8312, 2.500572
354.3134, 2.112991
354.7955, 1.798180
355.2776, 1.536385
355.7597, 1.321846
356.2418, 1.161598
356.7239, 1.060753
357.2061, 1.000252
357.6882, 1.057335
358.1703, 1.381935
358.6524, 1.700592
359.1345, 1.835709
359.6166, 1.769516
360.0987, 1.564445
360.5808, 1.245293
361.0630, 0.7717670
361.5451, 0.5819170
362.0272, 0.8137210
362.5093, 1.164085
362.9914, 1.642982
363.4735, 2.159798
363.9557, 2.531273
364.4378, 2.624695
364.9199, 2.555504
365.4020, 2.824158
365.8841, 3.691818
366.3662, 4.564293
366.8484, 5.310074
367.3305, 6.055740
367.8126, 6.977997
368.2947, 8.116112
368.7768, 9.288773
369.2589, 10.22635
369.7411, 10.90163
370.2232, 11.39431
370.7053, 11.41295
371.1874, 11.50707
371.6695, 12.06201
372.1516, 13.01038
372.6338, 13.97921
373.1159, 14.70821
373.5980, 15.19182
374.0801, 15.22751
374.5622, 14.53319
375.0443, 13.69713
375.5265, 12.89248
376.0086, 12.08903
376.4907, 11.24174
376.9728, 10.32507
377.4549, 9.342995
377.9370, 8.267891
378.4192, 7.027908
378.9013, 5.902985
379.3834, 5.066605
379.8655, 4.314346
380.3476, 3.467354
380.8297, 2.491730
381.3119, 1.548103
381.7940, 0.8166430
382.2761, 0.2922210
382.7582, 0.2103580
383.2403, 0.7947310
383.7224, 1.252228
384.2046, 1.449867
384.6867, 1.419739
385.1688, 1.290329
385.6509, 0.8788380
386.1330, 0.4565660
386.6151, 0.8383480
387.0973, 2.321266
387.5794, 3.532898
388.0615, 3.438576
388.5436, 2.641937
389.0257, 1.934036
389.5078, 1.443245
389.9900, 1.105026
390.4721, 0.8653640
390.9542, 0.7273250
391.4363, 0.7537540
391.9184, 1.088341
392.4005, 1.441200
392.8827, 1.366684
393.3648, 0.8371730
393.8469, 0.3516460
394.3290, 0.2616200
394.8111, 0.2852940
395.2932, 0.1297680
395.7754, 1.109779
396.2575, 2.037209
396.7396, 2.273392
397.2217, 1.891228
397.7038, 1.851799
398.1859, 2.496330
398.6681, 3.231003
399.1501, 3.683922
399.6323, 3.896767
400.1144, 4.027145
400.5965, 4.117317
401.0786, 4.233757
401.5607, 4.607452
402.0428, 5.520470
402.5250, 6.158958
403.0071, 6.107582
403.4892, 5.833664
403.9713, 5.905540
404.4534, 6.441643
404.9355, 7.131493
405.4177, 7.622490
405.8998, 7.878204
406.3819, 8.077499
406.8640, 8.251076
407.3461, 8.348221
407.8282, 8.245895
408.3104, 8.038795
408.7925, 7.950768
409.2746, 8.122101
409.7567, 8.518082
410.2388, 8.975830
410.7209, 9.427986
411.2031, 10.04740
411.6852, 10.92656
412.1673, 11.93263
412.6494, 13.00753
413.1315, 14.10888
413.6136, 15.10547
414.0958, 15.65854
414.5779, 15.41802
415.0600, 16.16679
415.5421, 19.19094
416.0242, 22.02679
416.5063, 23.54722
416.9885, 24.09365
417.4706, 24.58053
417.9527, 25.53351
418.4348, 26.91617
418.9169, 28.71490
419.3990, 31.22646
419.8812, 33.47623
420.3633, 34.65798
420.8454, 35.71606
421.3275, 37.56094
421.8096, 40.41548
422.2917, 43.70943
422.7739, 46.82079
423.2560, 49.77348
423.7381, 53.17789
424.2202, 57.21755
424.7023, 61.61732
425.1844, 66.03130
425.6666, 70.56099
426.1487, 75.64810
426.6308, 81.36957
427.1129, 87.80721
427.5950, 95.09105
428.0771, 103.2784
428.5593, 112.0406
429.0414, 121.1856
429.5235, 130.8341
430.0056, 141.1468
430.4877, 152.5863
430.9698, 163.6602
431.4520, 174.5695
431.9341, 184.4104
432.4162, 191.5988
432.8983, 195.7696
433.3804, 196.8253
433.8625, 194.4103
434.3447, 188.1567
434.8268, 179.7041
435.3089, 168.1806
435.7910, 155.2541
436.2731, 141.2010
436.7552, 126.6039
437.2374, 112.8659
437.7195, 100.7121
438.2016, 89.99266
438.6837, 80.60125
439.1658, 73.40049
439.6479, 66.54230
440.1301, 59.61801
440.6122, 53.01759
441.0943, 47.24532
441.5764, 42.44608
442.0585, 38.45409
442.5406, 35.14274
443.0227, 32.56760
443.5049, 30.33399
443.9870, 28.68789
444.4691, 26.98561
444.9512, 24.71376
445.4333, 22.27641
445.9154, 20.46719
446.3976, 19.77541
446.8797, 19.67650
447.3618, 18.90228
447.8439, 17.07952
448.3260, 15.71360
448.8081, 15.43642
449.2903, 15.40319
449.7724, 15.07461
450.2545, 14.40834
450.7366, 13.71155
451.2187, 13.31307
451.7008, 13.13653
452.1830, 12.67034
452.6651, 11.61100
453.1472, 11.01018
453.6293, 12.01299
454.1114, 13.72484
454.5935, 14.88797
455.0757, 15.08655
455.5578, 14.97015
456.0399, 15.04552
456.5220, 15.26096
457.0041, 15.33490
457.4862, 15.08075
457.9684, 14.88657
458.4505, 15.36759
458.9326, 16.50853
459.4147, 17.58407
459.8968, 18.48786
460.3789, 19.25899
460.8611, 19.88814
461.3432, 20.39809
461.8253, 20.89272
462.3074, 21.44615
462.7895, 22.02934
463.2716, 22.52805
463.7538, 23.19153
464.2359, 23.45393
464.7180, 23.17692
465.2001, 22.50932
465.6822, 21.48801
466.1643, 20.17415
466.6465, 18.81976
467.1286, 17.69934
467.6107, 16.82172
468.0928, 16.01145
468.5749, 15.27337
469.0570, 14.59848
469.5392, 14.14989
470.0213, 13.71921
470.5034, 12.97787
470.9855, 11.77215
471.4676, 10.33621
471.9497, 9.026962
472.4319, 7.809517
472.9140, 6.882912
473.3961, 6.507141
473.8782, 6.252907
474.3603, 5.868004
474.8424, 5.382835
475.3246, 4.970306
475.8067, 4.757614
476.2888, 4.681015
476.7709, 4.580467
477.2530, 4.435883
477.7351, 4.400757
478.2173, 4.592552
478.6994, 4.919357
479.1815, 5.224953
479.6636, 5.491188
480.1457, 5.778748
480.6278, 5.992775
481.1100, 6.280029
481.5920, 6.985100
482.0742, 8.182915
482.5563, 9.484871
483.0384, 10.62966
483.5205, 11.58702
484.0026, 12.12974
484.4847, 11.98962
484.9669, 11.75326
485.4490, 11.61155
485.9311, 11.54541
486.4132, 11.59055
486.8953, 11.75616
487.3774, 11.79205
487.8596, 11.25603
488.3417, 9.870056
488.8238, 8.650002
489.3059, 7.642761
489.7880, 6.729073
490.2701, 5.836098
490.7523, 4.993774
491.2344, 4.293137
491.7165, 3.803520
492.1986, 3.458519
492.6807, 3.113380
493.1628, 2.852386
493.6450, 2.360733
494.1271, 1.035973
494.6092, 0.1478270
495.0913, 0.3164220
495.5734, 0.4656910
496.0555, 1.149513
496.5377, 0.7169190
497.0198, 0.3423610
497.5019, 0.5250930
497.9840, 0.4242400
498.4661, 1.175186
498.9482, 0.9187010
499.4304, 1.0262000E-02
499.9125, 0.8884740
500.3946, 1.873024
500.8767, 2.539703
501.3588, 2.568787
501.8409, 2.181694
502.3231, 1.705742
502.8052, 1.204697
503.2873, 0.7851790
503.7694, 0.5472340
504.2515, 0.4969410
504.7336, 0.5632170
505.2158, 0.8880160
505.6979, 1.157715
506.1800, 1.324112
506.6621, 1.345482
507.1442, 1.107697
507.6263, 0.5825420
508.1085, 3.1440999E-02
508.5906, 0.4271090
509.0727, 0.5606380
509.5548, 0.6335070
510.0369, 0.6230470
510.5190, 0.5730510
511.0012, 0.4337160
511.4833, 0.2751620
511.9654, 0.2272490
512.4475, 0.3650820
512.9296, 0.6107860
513.4117, 0.8363720
513.8939, 1.043259
514.3760, 1.232742
514.8581, 1.455124
515.3402, 1.604759
515.8223, 1.565605
516.3044, 1.364731
516.7866, 1.182953
517.2687, 1.084862
517.7508, 1.053146
518.2329, 1.061440
518.7150, 1.111229
519.1971, 1.261101
519.6793, 1.617233
520.1614, 1.996971
520.6435, 1.895927
521.1256, 1.071838
521.6077, 0.5705260
522.0898, 0.7530820
522.5720, 1.198410
523.0541, 1.597435
523.5362, 1.903801
524.0183, 2.153366
524.5004, 2.364250
524.9825, 2.545639
525.4647, 2.752457
525.9468, 3.004166
526.4289, 3.252563
526.9110, 3.461594
527.3931, 3.689011
527.8752, 3.985191
528.3574, 4.352638
528.8395, 4.754189
529.3216, 5.151253
529.8037, 5.552269
530.2858, 6.018990
530.7679, 6.564568
531.2501, 7.142761
531.7322, 7.749680
532.2143, 8.370743
532.6964, 9.005753
533.1785, 9.658112
533.6606, 10.29474
534.1428, 10.88092
534.6249, 11.44038
535.1070, 12.10172
535.5891, 12.90334
536.0712, 13.48254
536.5533, 13.43555
537.0355, 12.91685
537.5176, 12.89057
537.9997, 13.83781
538.4818, 14.64266
538.9639, 14.91005
539.4460, 14.90138
539.9282, 14.94666
540.4103, 15.11096
540.8924, 15.24804
541.3745, 15.20947
541.8566, 14.99387
542.3387, 14.65364
542.8209, 14.02299
543.3029, 13.46563
543.7850, 12.90715
544.2672, 12.53086
544.7493, 12.69729
545.2314, 13.46213
545.7135, 14.18056
546.1956, 14.02242
546.6777, 13.07410
547.1599, 12.33562
547.6420, 11.81075
548.1241, 11.60124
548.6062, 12.13038
549.0883, 12.94417
549.5704, 13.24981
550.0526, 12.66901
550.5347, 12.09549
551.0168, 12.08524
551.4989, 12.48586
551.9810, 13.09698
552.4631, 13.85445
552.9453, 14.35764
553.4274, 14.12106
553.9095, 13.11710
554.3916, 12.83092
554.8737, 13.75743
555.3558, 14.64215
555.8380, 15.25104
556.3201, 15.62688
556.8022, 15.78528
557.2843, 15.73881
557.7664, 15.61832
558.2485, 15.56709
558.7307, 15.60247
559.2128, 15.83432
559.6949, 16.59224
560.1770, 17.12737
560.6591, 17.03539
561.1412, 16.67654
561.6234, 16.38645
562.1055, 16.21224
562.5876, 16.42362
563.0697, 17.51633
563.5518, 19.19495
564.0339, 20.39091
564.5161, 20.90706
564.9982, 21.41441
565.4803, 22.40788
565.9624, 23.80857
566.4445, 25.14965
566.9266, 26.19424
567.4088, 27.47810
567.8909, 29.39024
568.3730, 31.54326
568.8551, 33.41506
569.3372, 34.93250
569.8193, 36.49332
570.3015, 38.49252
570.7836, 40.89374
571.2657, 42.84344
571.7478, 43.65317
572.2299, 44.95290
572.7120, 47.15764
573.1942, 49.84171
573.6763, 52.67548
574.1584, 55.58468
574.6405, 58.54680
575.1226, 61.54166
575.6047, 64.57559
576.0869, 67.79089
576.5690, 71.33042
577.0511, 74.39818
577.5332, 76.12617
578.0153, 77.41128
578.4974, 79.75335
578.9796, 83.41204
579.4617, 87.05717
579.9438, 90.25887
580.4259, 93.14181
580.9080, 95.83929
581.3901, 98.36540
581.8723, 100.8073
582.3544, 103.2732
582.8365, 105.5900
583.3186, 107.1884
583.8007, 107.9926
584.2828, 108.1253
584.7650, 107.4890
585.2471, 106.3174
585.7292, 104.5566
586.2113, 102.3830
586.6934, 100.2449
587.1755, 98.50495
587.6577, 96.82331
588.1398, 94.46313
588.6219, 91.39045
589.1040, 87.78708
589.5861, 83.36266
590.0682, 78.75137
590.5504, 74.59264
591.0325, 70.82094
591.5146, 67.05806
591.9967, 63.22137
592.4788, 59.33470
592.9609, 55.28647
593.4431, 51.23438
593.9252, 47.66695
594.4073, 44.79552
594.8894, 42.22873
595.3715, 39.33510
595.8536, 35.83653
596.3358, 33.29623
596.8179, 33.00141
597.3000, 32.09529
597.7821, 28.71062
598.2642, 24.39117
598.7463, 21.57588
599.2285, 21.04780
599.7106, 21.10607
600.1927, 19.45045
600.6748, 16.16364
601.1569, 13.82470
601.6390, 12.87674
602.1212, 12.17895
602.6033, 11.09582
603.0854, 9.850952
603.5675, 8.824020
604.0496, 8.131233
604.5317, 7.428314
605.0139, 6.539131
605.4960, 5.527794
605.9781, 4.337616
606.4602, 3.029991
606.9423, 2.118172
607.4244, 2.037285
607.9066, 2.586891
608.3887, 2.862427
608.8708, 2.817711
609.3529, 2.535629
609.8350, 1.725616
610.3171, 0.9279100
610.7993, 0.5818250
611.2814, 0.6133040
611.7635, 0.6257020
612.2456, 0.3304520
612.7277, 7.3211998E-02
613.2098, 0.1231230
613.6920, 0.2159650
614.1741, 0.4836200
614.6562, 0.5683980
615.1383, 0.5447920
615.6204, 0.4668200
616.1025, 0.3411870
616.5847, 0.2012790
617.0668, 3.0746000E-02
617.5489, 0.1919400
618.0310, 0.1853870
618.5131, 3.0533001E-02
618.9952, 0.2973020
619.4774, 0.7933500
619.9595, 1.218262
620.4416, 1.229218
620.9237, 0.7679370
621.4058, 0.7967530
621.8879, 2.015579
622.3701, 2.865982
622.8522, 2.915352
623.3343, 2.510696
623.8164, 1.754631
624.2985, 0.7643890
624.7806, 0.2658000
625.2628, 1.202057
625.7448, 3.031837
626.2269, 4.342102
626.7090, 5.090622
627.1912, 5.463181
627.6733, 5.444504
628.1554, 5.196945
628.6375, 4.989525
629.1196, 4.795265
629.6017, 4.739761
630.0839, 4.796455
630.5660, 5.035751
631.0481, 5.651772
631.5302, 6.479027
632.0123, 7.169548
632.4944, 7.561516
632.9766, 7.712555
633.4587, 7.636986
633.9408, 7.225601
634.4229, 7.151855
634.9050, 7.559387
635.3871, 8.145493
635.8693, 8.781059
636.3514, 9.488213
636.8335, 10.36652
637.3156, 11.51189
637.7977, 12.48219
638.2798, 12.91261
638.7620, 12.96255
639.2441, 12.81129
639.7262, 12.50155
640.2083, 12.38231
640.6904, 12.66148
641.1725, 13.31753
641.6547, 14.29148
642.1368, 15.98456
642.6189, 17.41729
643.1010, 18.40105
643.5831, 19.30558
644.0652, 20.31731
644.5474, 21.41357
645.0295, 22.51464
645.5116, 23.57354
645.9937, 24.70235
646.4758, 26.15436
646.9579, 27.93312
647.4401, 29.52413
647.9222, 30.82108
648.4043, 31.88380
648.8864, 32.44396
649.3685, 32.79826
649.8506, 33.94568
650.3328, 36.63477
650.8149, 39.16788
651.2970, 40.69405
651.7791, 41.80042
652.2612, 43.11200
652.7433, 44.68347
653.2255, 46.28332
653.7076, 47.72725
654.1897, 49.10852
654.6718, 50.84715
655.1539, 53.23653
655.6360, 55.30736
656.1182, 56.39963
656.6003, 57.57544
657.0824, 59.66451
657.5645, 62.38889
658.0466, 64.72059
658.5287, 66.08462
659.0109, 67.12056
659.4930, 68.48686
659.9751, 70.00082
660.4572, 71.12401
660.9393, 71.76386
661.4214, 72.31981
661.9036, 73.02602
662.3857, 73.80803
662.8678, 74.34841
663.3499, 74.85631
663.8320, 74.91418
664.3141, 74.16845
664.7963, 73.21756
665.2784, 72.57703
665.7605, 72.19415
666.2426, 71.64853
666.7247, 70.64461
667.2068, 69.36766
667.6890, 68.20354
668.1711, 67.14826
668.6532, 65.66487
669.1353, 63.53084
669.6174, 61.15462
670.0995, 58.96964
670.5817, 56.91680
671.0638, 54.56402
671.5459, 51.37149
672.0280, 48.58458
672.5101, 46.90829
672.9922, 45.60539
673.4744, 43.85107
673.9565, 41.59113
674.4386, 39.29266
674.9207, 37.25948
675.4028, 35.50475
675.8849, 34.15051
676.3671, 33.35980
676.8492, 32.25568
677.3313, 30.44574
677.8134, 28.48757
678.2955, 26.79145
678.7776, 25.32713
679.2598, 23.98985
679.7419, 22.90228
680.2240, 21.84109
680.7061, 20.66563
681.1882, 19.41492
681.6703, 18.05823
682.1525, 16.63707
682.6346, 15.40317
683.1167, 14.58660
683.5988, 14.10138
684.0809, 13.50523
684.5630, 12.70189
685.0452, 12.01071
685.5273, 11.53959
686.0094, 11.14048
686.4915, 10.79404
686.9736, 10.45322
687.4557, 9.988770
687.9379, 9.299232
688.4200, 8.567253
688.9021, 7.964348
689.3842, 7.443413
689.8663, 6.850327
690.3484, 6.159950
690.8306, 5.623260
691.3127, 5.456848
691.7948, 5.586418
692.2769, 5.642258
692.7590, 5.767944
693.2411, 5.573891
693.7233, 4.697121
694.2054, 3.837440
694.6875, 3.448471
695.1696, 3.425369
695.6517, 3.456970
696.1339, 3.458290
696.6160, 3.307495
697.0981, 2.757088
697.5802, 1.933083
698.0623, 1.267311
698.5444, 0.8315120
699.0266, 0.5135420
699.5087, 0.2560880
699.9908, 4.3083001E-02
700.4729, 0.1820070
700.9550, 0.5420910
701.4371, 0.7198260
701.9193, 0.5257950
702.4014, 0.3208470
702.8835, 0.3031690
703.3656, 0.4526670
703.8477, 0.7267610
704.3298, 1.125198
704.8120, 1.459030
705.2941, 1.466484
705.7762, 1.195465
706.2583, 0.8139420
706.7404, 0.2948380
707.2225, 2.8000001E-02
707.7046, 8.0398999E-02
708.1867, 0.4857860
708.6688, 0.8820720
709.1509, 1.381119
709.6331, 1.591476
710.1152, 1.314575
710.5973, 0.9124530
711.0794, 0.4948270
711.5615, 0.1349180
712.0436, 5.3307001E-02
712.5258, 3.2478001E-02
713.0079, 5.9624001E-02
713.4900, 3.4042001E-02
713.9721, 6.9031000E-02
714.4542, 8.3099000E-02
714.9363, 0.5971680
715.4185, 0.6955490
715.9006, 0.2082140
716.3827, 1.487732
716.8648, 2.127609
717.3469, 2.116035
717.8290, 1.657051
718.3112, 2.5336999E-02
718.7933, 1.259468
719.2754, 1.227333
719.7575, 0.4618610
720.2396, 0.2681430
720.7217, 0.7150270
721.2039, 0.8994750
721.6860, 0.7614900
722.1681, 0.3941800
722.6502, 0.1385500
723.1323, 1.4565000E-02
723.6144, 3.6132999E-02
724.0966, 0.4509890
724.5787, 0.8901140
725.0608, 0.8648910
725.5429, 0.3893660
726.0250, 0.2141270
726.5071, 0.6318970
726.9893, 1.052307
727.4714, 1.426521
727.9535, 1.596207
728.4356, 1.226936
728.9177, 0.4073790
729.3998, 0.3032230
729.8820, 0.4950490
730.3641, 0.3143390
730.8462, 1.2657000E-02
731.3283, 0.4198910
731.8104, 0.6472550
732.2925, 0.5613940
732.7747, 0.3538510
733.2568, 0.1345600
733.7389, 8.0673002E-02
734.2210, 0.2162090
734.7031, 0.1742020
735.1852, 0.2039870
735.6674, 0.7403340
736.1495, 1.060318
736.6316, 0.2384340
737.1137, 1.325378
737.5958, 2.428352
738.0779, 2.465553
738.5601, 1.959267
739.0422, 1.616417
739.5243, 1.423058
740.0064, 1.188942
740.4885, 0.8379290
740.9706, 0.7638550
741.4528, 1.358612
741.9349, 2.248520
742.4170, 2.568962
742.8991, 2.159943
743.3812, 1.800972
743.8633, 1.488029
744.3455, 1.308777
744.8276, 1.418175
745.3097, 1.650444
745.7918, 1.693092
746.2739, 1.486343
746.7560, 1.376251
747.2382, 1.761894
747.7203, 2.493561
748.2024, 3.210419
748.6845, 3.921616
749.1666, 4.185005
749.6487, 3.708839
750.1309, 3.081116
750.6130, 2.985435
751.0951, 3.452850
751.5772, 3.955208
752.0593, 4.605278
752.5414, 5.138664
753.0236, 5.523705
753.5057, 5.749168
753.9878, 5.649193
754.4699, 5.353455
754.9520, 5.344635
755.4341, 5.996010
755.9163, 6.850220
756.3984, 7.176117
756.8805, 7.127464
757.3626, 7.459229
757.8447, 8.316544
758.3268, 9.012939
758.8090, 8.958786
759.2911, 8.480789
759.7732, 8.676842
760.2553, 10.11115
760.7374, 11.19329
761.2195, 11.89011
761.7017, 12.26762
762.1838, 11.97942
762.6659, 11.52621
763.1480, 11.84314
763.6301, 13.23517
764.1122, 14.50181
764.5944, 14.51086
765.0765, 13.95551
765.5586, 13.95294
766.0407, 14.42593
766.5228, 14.79095
767.0049, 14.82140
767.4871, 14.62191
767.9692, 14.30258
768.4513, 13.85710
768.9334, 13.63717
769.4155, 13.99044
769.8976, 13.97063
770.3798, 12.90542
770.8619, 11.74723
771.3440, 11.45210
771.8261, 11.83966
772.3082, 11.75346
772.7903, 10.42336
773.2725, 8.979561
773.7546, 8.136322
774.2367, 7.759590
774.7188, 7.804787
775.2009, 8.179146
775.6830, 8.524864
776.1652, 8.576546
776.6473, 8.358101
777.1294, 8.122200
777.6115, 7.925926
778.0936, 7.656212
778.5757, 7.146935
779.0579, 6.763245
779.5400, 6.797287
780.0221, 7.036713
780.5042, 7.133781
780.9863, 7.054108
781.4684, 6.986115
781.9506, 6.908745
782.4327, 6.939751
782.9148, 7.114044
783.3969, 7.449783
783.8790, 8.055756
784.3611, 8.940361
784.8433, 9.830582
785.3254, 10.46092
785.8075, 10.91678
786.2896, 11.48827
786.7717, 12.16778
787.2538, 12.56930
787.7360, 12.52696
788.2181, 12.54779
788.7002, 13.13078
789.1823, 14.19987
789.6644, 15.07016
790.1465, 15.69650
790.6286, 16.18611
791.1107, 16.57738
791.5928, 16.79520
792.0750, 16.77319
792.5571, 16.56384
793.0392, 16.22640
793.5213, 15.73895
794.0034, 15.22744
794.4855, 14.95810
794.9677, 14.75108
795.4498, 14.23937
795.9319, 13.42820
796.4140, 12.48512
796.8961, 11.46415
797.3782, 10.46520
797.8604, 9.641281
798.3425, 8.997475
798.8246, 8.268608
799.3067, 7.349709
799.7888, 6.536705
800.2709, 5.866531
800.7531, 5.362160
801.2352, 5.094681
801.7173, 5.030426
802.1994, 5.024361
802.6815, 5.163239
803.1636, 5.171059
803.6458, 4.817818
804.1279, 4.309784
804.6100, 3.783516
805.0921, 3.333549
805.5742, 3.165916
806.0563, 3.404671
806.5385, 3.845894
807.0206, 4.195122
807.5027, 4.455414
807.9848, 4.678192
808.4669, 4.895515
808.9490, 4.909477
809.4312, 4.568756
809.9133, 4.060600
810.3954, 3.578316
810.8775, 3.051399
811.3596, 3.099678
811.8417, 4.609184
812.3239, 5.559525
812.8060, 4.851410
813.2881, 3.734062
813.7702, 3.423561
814.2523, 3.890640
814.7344, 4.352173
815.2166, 4.437576
815.6987, 4.327835
816.1808, 4.110809
816.6629, 3.864342
817.1450, 3.730171
817.6271, 3.736732
818.1093, 3.974205
818.5914, 4.519753
819.0735, 5.171234
819.5556, 5.524925
820.0377, 5.531227
820.5198, 5.533356
821.0020, 5.453583
821.4841, 5.520622
821.9662, 6.039047
822.4483, 6.589386
822.9304, 6.644958
823.4125, 6.221397
823.8947, 5.905594
824.3768, 5.765114
824.8589, 5.814720
825.3410, 6.187424
825.8231, 6.671738
826.3052, 7.093842
826.7874, 7.399162
827.2695, 7.493279
827.7516, 7.272194
828.2337, 7.065865
828.7158, 7.505844
829.1979, 8.380814
829.6801, 8.747330
830.1622, 8.519547
830.6443, 8.226807
831.1264, 8.105103
831.6085, 8.130905
832.0906, 8.276749
832.5728, 8.556129
833.0549, 8.853035
833.5370, 9.267036
834.0191, 9.546906
834.5012, 9.566521
834.9833, 9.493958
835.4655, 9.423141
835.9476, 9.377449
836.4297, 9.415398
836.9118, 9.578110
837.3939, 9.791061
837.8760, 10.04995
838.3582, 10.31482
838.8403, 10.58282
839.3224, 10.81462
839.8045, 10.87607
840.2866, 10.70248
840.7687, 10.49619
841.2509, 10.55058
841.7330, 10.82346
842.2151, 11.08299
842.6972, 11.32488
843.1793, 11.56020
843.6614, 11.81934
844.1436, 11.98592
844.6257, 11.88763
845.1078, 11.53311
845.5899, 11.32903
846.0720, 11.25629
846.5541, 11.37055
847.0363, 11.96232
847.5184, 12.46532
848.0005, 12.46457
848.4826, 12.11260
848.9647, 11.77103
849.4468, 11.51617
849.9290, 11.34560
850.4111, 11.23579
850.8932, 11.22713
851.3753, 11.52544
851.8574, 11.92879
852.3395, 11.91820
852.8217, 11.37268
853.3038, 10.71566
853.7859, 10.31269
854.2680, 10.17660
854.7501, 10.46606
855.2322, 11.16888
855.7144, 11.41054
856.1965, 10.93198
856.6786, 10.33708
857.1607, 10.08918
857.6428, 10.05817
858.1249, 9.811043
858.6071, 9.172058
859.0892, 8.737991
859.5713, 8.426590
860.0534, 8.348595
860.5355, 8.775696
861.0176, 9.347649
861.4998, 9.654907
861.9819, 9.653938
862.4640, 9.491661
862.9461, 9.032623
863.4282, 8.646942
863.9103, 8.743591
864.3925, 8.972633
864.8746, 8.754486
865.3567, 8.129959
865.8388, 7.606796
866.3209, 7.534386
866.8030, 7.708168
867.2852, 7.772057
867.7673, 7.693390
868.2494, 7.367744
868.7315, 6.798615
869.2136, 6.435333
869.6957, 6.469551
870.1779, 6.734184
870.6600, 7.057343
871.1421, 7.440056
871.6242, 7.474030
872.1063, 6.780869
872.5884, 6.398712
873.0705, 6.850189
873.5526, 7.330376
874.0347, 7.381233
874.5168, 7.105904
874.9990, 6.720108
875.4811, 6.168785
875.9632, 5.770699
876.4453, 5.791748
876.9274, 5.860741
877.4095, 5.625595
877.8917, 5.280891
878.3738, 5.192024
878.8559, 5.417397
879.3380, 5.680805
879.8201, 5.741718
880.3022, 5.780399
880.7844, 6.232437
881.2665, 6.870476
881.7486, 6.733185
882.2307, 5.747623
882.7128, 4.689587
883.1949, 4.051662
883.6771, 3.785503
884.1592, 3.759964
884.6413, 4.021549
885.1234, 4.186829
885.6055, 4.151108
886.0876, 4.252190
886.5698, 4.864880
887.0519, 5.413521
887.5340, 5.108440
888.0161, 4.016418
888.4982, 3.283691
888.9803, 3.030666
889.4625, 3.038464
889.9446, 3.561752
890.4267, 4.053959
890.9088, 4.111713
891.3909, 3.872997
891.8730, 3.600628
892.3552, 3.362335
892.8373, 3.201313
893.3194, 3.124886
893.8015, 3.096420
894.2836, 3.191330
894.7657, 3.353535
895.2479, 3.506283
895.7300, 3.611023
896.2121, 3.564579
896.6942, 3.255459
897.1763, 2.848774
897.6584, 2.685734
898.1406, 2.744511
898.6227, 2.860035
899.1048, 3.040668
899.5869, 2.921989
900.0690, 2.225922
900.5511, 1.442917
901.0333, 1.335316
901.5154, 1.940239
901.9975, 2.403168
902.4796, 2.850174
902.9617, 2.915169
903.4438, 2.114105
903.9260, 1.317070
904.4081, 1.255680
904.8902, 1.637234
905.3723, 1.675766
905.8544, 1.118572
906.3365, 0.7084390
906.8187, 0.6916770
907.3008, 0.8031620
907.7829, 1.003819
908.2650, 1.173393
908.7471, 1.118656
909.2292, 0.8475840
909.7114, 0.6228330
910.1935, 0.6764830
910.6756, 0.7187920
911.1577, 0.2769200
911.6398, 0.3154450
912.1219, 0.3387870
912.6041, 0.1529080
913.0862, 0.5388490
913.5683, 0.5253640
914.0504, 0.3457950
914.5325, 0.3348080
915.0146, 0.4367260
915.4968, 0.2532540
915.9789, 0.2321280
916.4610, 0.4845350
916.9431, 0.3357200
917.4252, 8.4793001E-02
917.9073, 4.0339999E-02
918.3895, 5.5565000E-02
918.8716, 1.7490000E-02
919.3537, 8.4262997E-02
919.8358, 0.2220690
920.3179, 0.4756010
920.8000, 0.6519550
921.2822, 0.7083360
921.7643, 0.6278040
922.2464, 0.2004740
922.7285, 0.5304600
923.2106, 0.6496510
923.6927, 0.8231470
924.1749, 1.765518
924.6570, 1.084530
925.1391, 9.5821001E-02
925.6212, 0.2082290
926.1033, 1.2997000E-02
926.5854, 0.2791330
927.0676, 0.4538460
927.5497, 0.5415990
928.0318, 0.4965130
928.5139, 0.4079400
928.9960, 0.3909420
929.4781, 0.3896980
929.9603, 0.2412800
930.4424, 3.6651999E-02
930.9245, 0.2012370
931.4066, 8.7334000E-02
931.8887, 0.1550940
932.3708, 0.3115010
932.8530, 0.3931690
933.3351, 0.4211270
933.8172, 0.4032750
934.2993, 0.4639780
934.7814, 0.6591950
935.2635, 0.8505060
935.7457, 0.9081230
936.2278, 0.8164220
936.7099, 0.4114190
937.1920, 0.4533350
937.6741, 0.9916730
938.1563, 1.088333
938.6384, 0.8753890
939.1205, 0.1249050
939.6026, 0.6435390
940.0847, 0.3340800
940.5668, 1.398823
941.0490, 2.162457
941.5311, 1.169918
942.0132, 0.3273120
942.4953, 4.2500002E-03
942.9774, 6.1337002E-02
943.4595, 8.7364003E-02
943.9417, 0.3144340
944.4238, 0.2695050
944.9059, 0.2364620
945.3880, 0.5460700
945.8701, 0.2072220
946.3522, 0.1692920
946.8344, 8.6379997E-02
947.3165, 0.1575930
947.7986, 7.9719998E-02
948.2807, 0.3161130
948.7628, 0.6028210
949.2449, 0.5274310
949.7271, 0.3295210
950.2092, 7.2019999E-03
950.6913, 0.1782380
951.1734, 0.6757700
951.6555, 2.136505
952.1376, 2.640434
952.6198, 1.724674
953.1019, 0.5723230
953.5840, 0.3097080
954.0661, 0.6215400
954.5482, 0.7736550
955.0303, 0.7932210
955.5124, 0.8649790
955.9945, 1.015148
956.4766, 1.179348
956.9587, 1.333908
957.4409, 1.420361
957.9230, 1.302597
958.4051, 0.9879460
958.8872, 1.008179
959.3693, 1.499462
959.8514, 1.719917
960.3336, 1.425415
960.8157, 1.009144
961.2978, 0.6941570
961.7799, 0.5207410
962.2620, 0.6414450
962.7441, 1.265648
963.2263, 1.532375
963.7084, 1.102558
964.1905, 0.7738460
964.6726, 0.7725300
965.1547, 0.9431500
965.6368, 1.229527
966.1190, 1.584377
966.6011, 1.818344
967.0832, 1.884392
967.5653, 1.879181
968.0474, 1.561394
968.5295, 1.460648
969.0117, 2.081104
969.4938, 2.979908
969.9759, 3.636860
970.4580, 3.981701
970.9401, 4.108143
971.4222, 4.000145
971.9044, 3.783379
972.3865, 3.444370
972.8686, 3.109222
973.3507, 3.010010
973.8328, 2.997833
974.3149, 2.674644
974.7971, 1.983307
975.2792, 1.366474
975.7613, 1.226959
976.2434, 1.264721
976.7255, 1.076218
977.2076, 0.7587360
977.6898, 0.4924320
978.1719, 0.3074490
978.6540, 0.2766080
979.1361, 0.4381030
979.6182, 0.5879170
980.1003, 0.4293400
980.5825, 7.8114003E-02
981.0646, 5.3107999E-02
981.5467, 4.4838000E-02
982.0288, 6.8722002E-02
982.5109, 5.6731999E-02
982.9930, 1.8909000E-02
983.4752, 3.4926999E-02
983.9573, 4.6551000E-02
984.4394, 0.1394120
984.9215, 0.5316050
985.4036, 0.6407320
985.8857, 0.4078100
986.3679, 0.3209110
986.8500, 0.5467800
987.3321, 0.7956960
987.8142, 0.8257870
988.2963, 0.7327160
988.7784, 0.8027610
989.2606, 1.125809
989.7427, 1.203617
990.2248, 0.8602680
990.7069, 0.6309200
991.1890, 0.7130550
991.6711, 0.9535030
992.1533, 1.328312
992.6354, 1.748909
993.1175, 1.706718
993.5996, 0.5745930
994.0817, 0.1435510
994.5638, 0.8992500
995.0460, 1.868183
995.5281, 2.844761
996.0102, 3.651447
996.4923, 4.041561
996.9744, 4.050728
997.4565, 4.013397
997.9387, 3.898380
998.4208, 4.106537
998.9029, 4.987064
999.3850, 5.873974
999.8671, 6.425030
1000.349, 6.655006
1000.831, 6.505135
1001.313, 6.062309
1001.796, 5.887054
1002.278, 6.241859
1002.760, 6.814342
1003.242, 7.624428
1003.724, 8.484291
1004.206, 9.332130
1004.688, 9.990311
1005.170, 10.08146
1005.653, 9.613640
1006.135, 9.332520
1006.617, 9.727646
1007.099, 10.41930
1007.581, 11.34255
1008.063, 12.14174
1008.545, 12.22615
1009.027, 11.78470
1009.509, 11.37434
1009.992, 11.18965
1010.474, 10.89073
1010.956, 10.13279
1011.438, 9.141991
1011.920, 8.152569
1012.402, 7.236198
1012.884, 6.639732
1013.366, 6.311447
1013.849, 5.846359
1014.331, 5.072826
1014.813, 4.380322
1015.295, 4.320953
1015.777, 4.573421
1016.259, 4.291454
1016.741, 3.580219
1017.223, 2.825405
1017.705, 2.127541
1018.188, 1.905094
1018.670, 2.401608
1019.152, 2.976055
1019.634, 2.630100
1020.116, 1.630814
1020.598, 1.356956
1021.080, 1.778744
1021.562, 2.070202
1022.044, 2.084633
1022.527, 2.035408
1023.009, 2.038059
1023.491, 2.085270
1023.973, 2.192993
1024.455, 2.346928
1024.937, 2.235767
1025.419, 1.792793
1025.901, 1.686565
1026.384, 2.096363
1026.866, 2.616558
1027.348, 3.026024
1027.830, 3.319065
1028.312, 3.434105
1028.794, 3.350624
1029.276, 3.712204
1029.758, 4.765453
1030.240, 5.352524
1030.723, 5.054749
1031.205, 4.743443
1031.687, 5.045250
1032.169, 5.636379
1032.651, 5.815544
1033.133, 5.485462
1033.615, 5.573872
1034.097, 6.288425
1034.579, 6.971222
1035.062, 7.492260
1035.544, 7.962406
1036.026, 8.418880
1036.508, 8.888157
1036.990, 9.415573
1037.472, 9.986801
1037.954, 10.70522
1038.436, 11.95200
1038.919, 12.71428
1039.401, 12.16306
1039.883, 11.79615
1040.365, 12.79195
1040.847, 14.58253
1041.329, 15.97904
1041.811, 16.92421
1042.293, 17.81277
1042.776, 18.53778
1043.258, 19.38787
1043.740, 20.22506
1044.222, 21.36027
1044.704, 23.21503
1045.186, 25.42521
1045.668, 27.19189
1046.150, 28.33792
1046.632, 29.91569
1047.115, 32.38006
1047.597, 34.81168
1048.079, 36.71993
1048.561, 38.77526
1049.043, 41.57172
1049.525, 44.80142
1050.007, 47.78247
1050.489, 50.34527
1050.971, 53.62900
1051.454, 58.26958
1051.936, 63.06527
1052.418, 67.66075
1052.900, 72.29305
1053.382, 77.05854
1053.864, 82.02687
1054.346, 87.20458
1054.828, 92.60281
1055.311, 98.64277
1055.793, 105.7792
1056.275, 113.1118
1056.757, 120.4940
1057.239, 127.8060
1057.721, 135.0643
1058.203, 142.1036
1058.685, 148.9224
1059.167, 155.4859
1059.650, 160.8523
1060.132, 165.5643
1060.614, 167.8818
1061.096, 166.4135
1061.578, 163.0390
1062.060, 159.1443
1062.542, 154.3607
1063.024, 147.6744
1063.506, 139.0416
1063.989, 130.0393
1064.471, 120.8260
1064.953, 111.8675
1065.435, 103.3015
1065.917, 95.10686
1066.399, 87.24543
1066.881, 79.74867
1067.363, 72.63310
1067.846, 65.96891
1068.328, 60.01770
1068.810, 55.06600
1069.292, 50.52309
1069.774, 46.13495
1070.256, 42.04807
1070.738, 38.34542
1071.220, 35.01492
1071.703, 32.03841
1072.185, 29.38574
1072.667, 26.85049
1073.149, 24.33246
1073.631, 21.98851
1074.113, 19.91822
1074.595, 18.02138
1075.077, 16.16222
1075.559, 14.47230
1076.042, 13.24174
1076.524, 12.38350
1077.006, 11.55387
1077.488, 10.69965
1077.970, 9.760391
1078.452, 8.448067
1078.934, 7.295322
1079.416, 6.771965
1079.898, 6.542866
1080.380, 6.202187
1080.863, 5.721264
1081.345, 5.245094
1081.827, 4.803612
1082.309, 4.434620
1082.791, 4.331253
1083.273, 4.142788
1083.755, 3.411758
1084.237, 2.670322
1084.720, 2.602489
1085.202, 3.011719
1085.684, 3.230774
1086.166, 3.072758
1086.648, 2.911747
1087.130, 3.036568
1087.612, 2.968700
1088.094, 2.266521
1088.577, 1.434723
1089.059, 0.8894620
1089.541, 0.6138380
1090.023, 0.5016060
1090.505, 0.5322150
1090.987, 0.6812670
1091.469, 0.9728320
1091.951, 1.236115
1092.433, 1.568386
1092.916, 1.676235
1093.398, 1.161655
1093.880, 0.3826680
1094.362, 0.1133840
1094.844, 0.2463990
1095.326, 9.7861998E-02
1095.808, 0.6626090
1096.290, 1.181767
1096.772, 0.9294360
1097.255, 0.6262780
1097.737, 0.8076710
1098.219, 1.141937
1098.701, 1.254574
1099.183, 1.107948
1099.665, 0.7447280
1100.147, 0.2066420
1100.629, 0.5737500
1101.112, 0.6159930
1101.594, 1.705357
1102.076, 1.530888
1102.558, 0.9721370
1103.040, 1.232918
1103.522, 2.104740
1104.004, 2.475273
1104.486, 1.936012
1104.969, 1.683857
1105.451, 1.970417
1105.933, 2.525188
1106.415, 3.517952
1106.897, 4.502155
1107.379, 5.106339
1107.861, 5.435528
1108.343, 5.803528
1108.825, 6.285362
1109.307, 6.474892
1109.790, 5.824497
1110.272, 5.612984
1110.754, 6.346569
1111.236, 7.331326
1111.718, 8.340691
1112.200, 9.234516
1112.682, 9.749992
1113.164, 9.865822
1113.647, 10.05336
1114.129, 10.37814
1114.611, 10.66198
1115.093, 10.93763
1115.575, 11.11749
1116.057, 11.24949
1116.539, 11.18234
1117.021, 10.65768
1117.504, 9.752560
1117.986, 9.056389
1118.468, 8.838684
1118.950, 8.161411
1119.432, 6.662598
1119.914, 5.419998
1120.396, 4.806820
1120.878, 4.506798
1121.360, 4.313385
1121.843, 4.167202
1122.325, 3.883717
1122.807, 3.415146
1123.289, 3.142723
1123.771, 3.203823
1124.253, 2.940174
1124.735, 2.066479
1125.217, 1.295383
1125.699, 1.102856
1126.182, 1.234554
1126.664, 1.295322
1127.146, 1.277008
1127.628, 0.9403190
1128.110, 0.2000890
1128.592, 3.9618999E-02
1129.074, 0.6831280
1129.556, 1.116901
1130.039, 0.8395310
1130.521, 0.4308820
1131.003, 0.5870320
1131.485, 1.089619
1131.967, 1.205894
1132.449, 0.9409710
1132.931, 0.1613010
1133.413, 1.108452
1133.896, 1.552410
1134.378, 0.7744260
1134.860, 0.1204030
1135.342, 0.2768710
1135.824, 3.1010000E-02
1136.306, 9.5700001E-04
1136.788, 8.4105998E-02
1137.270, 0.1965480
1137.752, 0.7282560
1138.234, 0.9154360
1138.717, 0.6770630
1139.199, 0.2868120
1139.681, 0.1175990
1140.163, 0.4622840
1140.645, 0.6684040
1141.127, 0.7631530
1141.609, 0.7741090
1142.091, 0.7169720
1142.574, 0.6484950
1143.056, 0.5485530
1143.538, 0.2509350
1144.020, 0.2483330
1144.502, 0.5551530
1144.984, 0.3431170
1145.466, 5.9826002E-02
1145.948, 0.4160650
1146.431, 0.6804430
1146.913, 0.8633000
1147.395, 0.8775330
1147.877, 0.3966180
1148.359, 0.4403310
1148.841, 0.9072530
1149.323, 0.6728130
1149.805, 0.2100560
1150.287, 0.4567260
1150.770, 0.9368060
1151.252, 0.7109410
1151.734, 0.3445240
1152.216, 0.5519070
1152.698, 1.103828
1153.180, 1.352020
1153.662, 1.160553
1154.144, 0.8666110
1154.626, 0.3081470
1155.109, 5.5813000E-02
1155.591, 0.6061820
1156.073, 1.181561
1156.555, 1.303471
1157.037, 1.161106
1157.519, 1.026485
1158.001, 0.8957600
1158.483, 0.5814170
1158.966, 0.2988590
1159.448, 0.5320820
1159.930, 0.7317470
1160.412, 1.586323
1160.894, 1.230770
1161.376, 0.6324690
1161.858, 0.4385030
1162.340, 0.5412330
1162.822, 0.7257350
1163.305, 1.002968
1163.787, 1.245041
1164.269, 1.528912
1164.751, 1.510315
1165.233, 0.9991870
1165.715, 0.6115650
1166.197, 0.6502530
1166.679, 0.9287150
1167.161, 1.295475
1167.644, 1.647026
1168.126, 1.480652
1168.608, 0.7693860
1169.090, 0.7304310
1169.572, 1.438679
1170.054, 1.822491
1170.536, 1.581680
1171.018, 1.375221
1171.500, 1.677696
1171.983, 2.119797
1172.465, 2.051273
1172.947, 1.659904
1173.429, 1.587067
1173.911, 1.752045
1174.393, 1.834072
1174.875, 1.835098
1175.357, 1.946671
1175.840, 2.243332
1176.322, 2.510399
1176.804, 2.616047
1177.286, 2.509003
1177.768, 1.919479
1178.250, 1.228310
1178.732, 0.9477310
1179.214, 1.024189
1179.697, 1.355202
1180.179, 1.853882
1180.661, 2.380112
1181.143, 2.919998
1181.625, 3.118439
1182.107, 2.467125
1182.589, 1.755154
1183.071, 1.408997
1183.553, 1.329338
1184.036, 1.600025
1184.518, 1.972904
1185.000, 1.952290
1185.482, 1.498688
1185.964, 1.245697
1186.446, 1.488396
1186.928, 1.698841
1187.410, 1.733543
1187.892, 1.783997
1188.375, 2.033096
1188.857, 2.243073
1189.339, 2.179974
1189.821, 1.908417
1190.303, 1.577156
1190.785, 1.114498
1191.267, 0.9623760
1191.749, 1.328362
1192.232, 1.671272
1192.714, 1.898479
1193.196, 2.056328
1193.678, 2.194038
1194.160, 2.258175
1194.642, 2.166809
1195.124, 1.955452
1195.606, 1.790257
1196.089, 1.692909
1196.571, 1.837097
1197.053, 2.210064
1197.535, 2.160175
1198.017, 1.538567
1198.499, 1.102825
1198.981, 1.340862
1199.463, 1.759117
1199.945, 1.625336
1200.427, 1.271114
1200.910, 1.476833
1201.392, 1.933681
1201.874, 1.803917
1202.356, 1.279305
1202.838, 1.280121
1203.320, 1.966045
1203.802, 2.461761
1204.284, 2.147800
1204.767, 1.804798
1205.249, 2.167198
1205.731, 2.587894
1206.213, 2.529549
1206.695, 2.156563
1207.177, 1.473682
1207.659, 0.7910690
1208.141, 0.9406130
1208.624, 2.137077
1209.106, 2.727707
1209.588, 1.614517
1210.070, 0.8770100
1210.552, 1.218365
1211.034, 1.703037
1211.516, 2.028191
1211.998, 2.122372
1212.480, 1.772884
1212.963, 1.149426
1213.445, 0.9806710
1213.927, 1.391510
1214.409, 1.521954
1214.891, 1.302044
1215.373, 1.029533
1215.855, 0.6975980
1216.337, 0.6550640
1216.819, 1.093460
1217.302, 1.679302
1217.784, 2.089840
1218.266, 2.245331
1218.748, 1.949852
1219.230, 1.307358
1219.712, 0.7795490
1220.194, 0.4256820
1220.676, 0.4250950
1221.159, 0.7296490
1221.641, 0.9652020
1222.123, 0.9241940
1222.605, 0.7828220
1223.087, 0.7344060
1223.569, 0.6588440
1224.051, 0.3072320
1224.533, 5.9310999E-02
1225.016, 3.7384000E-02
1225.498, 0.2183530
1225.980, 0.3349340
1226.462, 0.2762490
1226.944, 0.3030130
1227.426, 0.4889110
1227.908, 0.8344610
1228.390, 1.558155
1228.872, 2.119999
1229.354, 2.110825
1229.837, 2.020416
1230.319, 2.507278
1230.801, 3.027416
1231.283, 2.428062
1231.765, 0.7579690
1232.247, 8.8779002E-02
1232.729, 0.1441730
1233.211, 0.5128780
1233.694, 1.063660
1234.176, 1.418442
1234.658, 1.448437
1235.140, 1.341953
1235.622, 1.200317
1236.104, 1.084877
1236.586, 1.120861
1237.068, 1.244854
1237.551, 1.121811
1238.033, 0.8270260
1238.515, 0.7336040
1238.997, 0.8632970
1239.479, 1.125481
1239.961, 1.449070
1240.443, 1.561493
1240.925, 1.259514
1241.407, 0.8535580
1241.890, 0.5502240
1242.372, 0.3796200
1242.854, 0.3767660
1243.336, 0.5064430
1243.818, 0.8717730
1244.300, 1.275261
1244.782, 1.259830
1245.264, 0.7903400
1245.746, 0.4613910
1246.229, 0.4833830
1246.711, 0.5485310
1247.193, 0.7299310
1247.675, 0.7924460
1248.157, 0.5127070
1248.639, 0.2822570
1249.121, 0.4310460
1249.603, 0.7514080
1250.085, 0.8766290
1250.568, 0.8072430
1251.050, 0.7043880
1251.532, 0.5732150
1252.014, 0.3334850
1252.496, 4.0817000E-02
1252.978, 6.5352999E-02
1253.460, 0.8515510
1253.942, 1.612057
1254.425, 1.865795
1254.907, 1.774338
1255.389, 1.499081
1255.871, 1.201878
1256.353, 1.219173
1256.835, 1.356525
1257.317, 1.186928
1257.799, 0.8029900
1258.281, 0.4606630
1258.764, 0.2202530
1259.246, 0.2809720
1259.728, 0.8310930
1260.210, 1.174793
1260.692, 0.6999240
1261.174, 0.3351140
1261.656, 0.8002050
1262.138, 1.256821
1262.620, 0.9086840
1263.103, 0.2124290
1263.585, 9.2727996E-02
1264.067, 3.9767999E-02
1264.549, 0.1414260
1265.031, 0.5820160
1265.513, 0.6182520
1265.995, 8.9171998E-02
1266.477, 9.6504003E-02
1266.960, 0.2754440
1267.442, 0.8680530
1267.924, 1.527023
1268.406, 1.919521
1268.888, 1.555058
1269.370, 0.8243220
1269.852, 0.4482310
1270.334, 0.3568120
1270.817, 0.4827230
1271.299, 0.7436290
1271.781, 0.9923780
1272.263, 1.168571
1272.745, 1.204216
1273.227, 1.040691
1273.709, 0.9322620
1274.191, 0.9889910
1274.673, 1.075783
1275.156, 1.475487
1275.638, 1.783875
1276.120, 1.784355
1276.602, 1.607662
1277.084, 0.9740100
1277.566, 0.1290700
1278.048, 0.1182290
1278.530, 0.3298260
1279.012, 0.6512830
1279.495, 0.7835040
1279.977, 1.024586
1280.459, 1.448563
1280.941, 1.796112
1281.423, 1.939713
1281.905, 1.644588
1282.387, 1.285507
1282.869, 0.7957380
1283.352, 0.3738750
1283.834, 0.1080020
1284.316, 1.4340000E-03
1284.798, 0.0000000E+00
##END=



