##NAMES=Fluorapophyllite-(K)
##RRUFFID=R040095
##IDEAL CHEMISTRY=KCa_4_Si_8_O_20_F&#183;8H_2_O
##LOCALITY=unknown
##OWNER=RRUFF
##SOURCE=University of Arizona Mineral Museum
##DESCRIPTION=Colorless crystals
##STATUS=The identification of this mineral has been confirmed by X-ray diffraction and chemical analysis
##URL=rruff.info/R040095
##MEASURED CHEMISTRY=(K_0.90_Na_0.04_)Ca_3.96_Si_8.00_O_20_(F_0.82_(OH)_0.18_)·8H_2_O
123.4933, 0.0000000E+00
123.9754, 3.885498
124.4575, 28.82910
124.9396, 103.3232
125.4217, 207.4019
125.9038, 321.5010
126.3860, 405.1289
126.8681, 433.9036
127.3502, 442.3047
127.8323, 461.9536
128.3144, 491.9448
128.7965, 532.1797
129.2787, 582.0273
129.7608, 638.7261
130.2429, 697.9641
130.7250, 760.2002
131.2071, 831.8494
131.6892, 930.2354
132.1714, 1046.399
132.6535, 1121.867
133.1356, 1144.485
133.6177, 1137.097
134.0998, 1143.505
134.5819, 1162.700
135.0640, 1193.261
135.5462, 1231.616
136.0283, 1276.574
136.5104, 1342.670
136.9925, 1445.598
137.4746, 1574.992
137.9567, 1659.184
138.4389, 1702.640
138.9210, 1697.438
139.4031, 1631.896
139.8852, 1497.453
140.3673, 1337.376
140.8494, 1150.107
141.3316, 924.7751
141.8137, 752.5051
142.2958, 639.9126
142.7779, 569.3000
143.2600, 512.1982
143.7421, 478.7776
144.2243, 443.0957
144.7064, 395.1255
145.1885, 324.3301
145.6706, 261.3301
146.1527, 204.6353
146.6348, 155.3032
147.1170, 117.3989
147.5991, 99.07690
148.0812, 84.64917
148.5633, 65.46118
149.0454, 23.48535
149.5275, 0.9936520
150.0097, 10.63892
150.4918, 59.14087
150.9739, 90.03979
151.4560, 90.25830
151.9381, 81.22241
152.4202, 76.51099
152.9024, 67.70337
153.3845, 66.58276
153.8666, 84.23877
154.3487, 137.7620
154.8308, 175.8271
155.3129, 174.3662
155.7950, 156.3901
156.2772, 150.3108
156.7593, 161.0723
157.2414, 185.1145
157.7235, 224.3916
158.2056, 289.4043
158.6877, 345.8704
159.1699, 377.7712
159.6520, 394.0037
160.1341, 415.3477
160.6162, 452.5317
161.0983, 494.8074
161.5804, 535.6238
162.0626, 572.0520
162.5447, 608.1868
163.0268, 646.9541
163.5089, 687.5261
163.9910, 725.2551
164.4731, 771.9321
164.9553, 809.4622
165.4374, 820.3428
165.9195, 787.3367
166.4016, 734.6814
166.8837, 670.3652
167.3658, 594.4675
167.8480, 520.7681
168.3301, 458.7754
168.8122, 404.1316
169.2943, 350.3254
169.7764, 282.8608
170.2585, 221.1897
170.7407, 188.4175
171.2228, 190.5627
171.7049, 193.6135
172.1870, 164.8198
172.6691, 114.7629
173.1512, 70.53442
173.6334, 49.53979
174.1155, 41.12598
174.5976, 32.31836
175.0797, 21.54736
175.5618, 9.468018
176.0439, 4.134766
176.5260, 18.85132
177.0082, 32.44189
177.4903, 41.29883
177.9724, 48.28271
178.4545, 59.62402
178.9366, 80.40161
179.4187, 102.0676
179.9009, 110.9839
180.3830, 107.7241
180.8651, 100.5640
181.3472, 98.68506
181.8293, 98.00952
182.3114, 89.89185
182.7936, 67.24976
183.2757, 37.16284
183.7578, 13.29761
184.2399, 3.886719
184.7220, 15.85229
185.2041, 17.32471
185.6863, 11.44531
186.1684, 16.54443
186.6505, 44.04102
187.1326, 89.04028
187.6147, 135.1982
188.0968, 183.2822
188.5790, 230.0205
189.0611, 269.3359
189.5432, 301.0884
190.0253, 335.2493
190.5074, 378.4502
190.9895, 429.2090
191.4717, 478.5063
191.9538, 527.0139
192.4359, 573.8433
192.9180, 613.0942
193.4001, 644.2913
193.8822, 685.3433
194.3644, 755.8784
194.8465, 854.4504
195.3286, 932.8855
195.8107, 980.2642
196.2928, 1009.429
196.7749, 1053.498
197.2570, 1113.462
197.7392, 1183.192
198.2213, 1258.141
198.7034, 1338.731
199.1855, 1425.498
199.6676, 1522.913
200.1497, 1626.148
200.6319, 1712.214
201.1140, 1777.097
201.5961, 1836.485
202.0782, 1903.422
202.5603, 1978.761
203.0424, 2057.681
203.5246, 2143.906
204.0067, 2235.361
204.4888, 2299.904
204.9709, 2331.505
205.4530, 2348.217
205.9352, 2370.026
206.4173, 2398.487
206.8994, 2426.677
207.3815, 2456.289
207.8636, 2488.502
208.3457, 2500.037
208.8279, 2493.420
209.3100, 2462.983
209.7921, 2396.161
210.2742, 2283.827
210.7563, 2160.782
211.2384, 2041.714
211.7206, 1927.381
212.2027, 1803.672
212.6848, 1663.697
213.1669, 1519.367
213.6490, 1397.532
214.1311, 1304.324
214.6133, 1217.390
215.0954, 1123.146
215.5775, 1013.699
216.0596, 930.8823
216.5417, 881.7520
217.0238, 856.6797
217.5059, 830.0347
217.9881, 800.8464
218.4702, 771.8206
218.9523, 742.7852
219.4344, 710.6765
219.9165, 687.8416
220.3986, 675.2478
220.8808, 672.3196
221.3629, 677.2798
221.8450, 693.7070
222.3271, 712.7959
222.8092, 729.8357
223.2913, 744.7908
223.7735, 757.1951
224.2556, 765.6399
224.7377, 771.0212
225.2198, 779.3325
225.7019, 791.7959
226.1840, 805.4238
226.6662, 818.0669
227.1483, 828.5068
227.6304, 840.7681
228.1125, 860.7937
228.5946, 886.7622
229.0767, 888.4028
229.5589, 852.7393
230.0410, 806.9143
230.5231, 775.6091
231.0052, 773.4634
231.4873, 758.0420
231.9694, 717.7212
232.4516, 651.8682
232.9337, 595.8762
233.4158, 555.7957
233.8979, 518.9624
234.3800, 471.6362
234.8621, 402.7476
235.3443, 344.0139
235.8264, 304.5193
236.3085, 286.1655
236.7906, 263.1572
237.2727, 232.1377
237.7548, 200.0039
238.2369, 175.6162
238.7191, 167.4685
239.2012, 152.7356
239.6833, 121.2769
240.1654, 67.20361
240.6475, 36.70361
241.1296, 42.12744
241.6118, 62.69727
242.0939, 69.27295
242.5760, 53.73047
243.0581, 35.88818
243.5402, 21.13403
244.0223, 11.17017
244.5045, 0.6101070
244.9866, 17.42773
245.4687, 34.62305
245.9508, 44.83569
246.4329, 47.37427
246.9150, 43.88940
247.3972, 33.11377
247.8793, 11.33618
248.3614, 4.299561
248.8435, 13.20996
249.3256, 16.32129
249.8077, 14.51709
250.2899, 4.392090
250.7720, 5.006348
251.2541, 10.40674
251.7362, 10.90796
252.2183, 10.50928
252.7004, 10.82080
253.1826, 9.589844
253.6647, 1.940186
254.1468, 13.30225
254.6289, 32.96191
255.1110, 57.51904
255.5931, 92.27686
256.0753, 117.0269
256.5574, 128.4319
257.0395, 131.7126
257.5216, 140.9587
258.0037, 164.1665
258.4858, 178.7917
258.9680, 169.5176
259.4501, 118.8538
259.9322, 97.15625
260.4143, 115.8774
260.8964, 159.6582
261.3785, 187.5095
261.8607, 193.8647
262.3428, 196.2825
262.8249, 203.0806
263.3070, 215.1716
263.7891, 229.3020
264.2712, 247.3142
264.7534, 266.3386
265.2355, 277.0112
265.7176, 276.9912
266.1997, 274.3391
266.6818, 272.7417
267.1639, 271.9944
267.6461, 272.9604
268.1282, 275.2500
268.6103, 279.3806
269.0924, 289.2483
269.5745, 308.9941
270.0566, 323.0396
270.5387, 321.2930
271.0208, 300.8455
271.5030, 277.6895
271.9851, 249.7400
272.4672, 221.5706
272.9493, 207.5967
273.4314, 211.0547
273.9135, 217.6997
274.3957, 219.0044
274.8778, 214.2585
275.3599, 210.5503
275.8420, 209.4243
276.3241, 209.0242
276.8062, 203.0679
277.2884, 190.0886
277.7705, 178.3884
278.2526, 174.0049
278.7347, 177.3901
279.2168, 179.1868
279.6989, 176.6167
280.1811, 173.8533
280.6632, 184.6399
281.1453, 211.4116
281.6274, 235.0024
282.1095, 236.7576
282.5916, 217.1819
283.0738, 215.9722
283.5559, 240.9534
284.0380, 281.5266
284.5201, 313.1672
285.0022, 335.3508
285.4843, 358.1514
285.9665, 387.2490
286.4486, 422.4907
286.9307, 464.1895
287.4128, 515.0469
287.8949, 567.6055
288.3770, 604.6045
288.8592, 626.4568
289.3413, 645.7400
289.8234, 672.7280
290.3055, 705.1318
290.7876, 727.0078
291.2697, 731.6724
291.7519, 735.4985
292.2340, 771.9524
292.7161, 838.7007
293.1982, 904.5537
293.6803, 946.9587
294.1624, 973.2405
294.6446, 1008.406
295.1267, 1059.923
295.6088, 1110.265
296.0909, 1130.628
296.5730, 1124.300
297.0551, 1114.085
297.5373, 1120.103
298.0194, 1130.854
298.5015, 1118.774
298.9836, 1075.750
299.4657, 1026.503
299.9478, 1003.662
300.4300, 1001.201
300.9121, 998.5891
301.3942, 982.9932
301.8763, 960.1228
302.3584, 937.9463
302.8405, 916.4006
303.3227, 896.7749
303.8048, 879.9619
304.2869, 866.8933
304.7690, 858.4802
305.2511, 853.3860
305.7332, 855.2986
306.2154, 870.4087
306.6975, 901.3511
307.1796, 931.9836
307.6617, 947.9485
308.1438, 953.7559
308.6259, 957.8428
309.1081, 961.5684
309.5901, 967.4021
310.0723, 978.8313
310.5544, 997.2061
311.0365, 1014.051
311.5186, 1024.557
312.0007, 1030.637
312.4828, 1034.979
312.9650, 1036.678
313.4471, 1038.513
313.9292, 1041.845
314.4113, 1046.711
314.8934, 1053.405
315.3755, 1062.460
315.8577, 1073.456
316.3398, 1085.477
316.8219, 1093.375
317.3040, 1106.432
317.7861, 1135.198
318.2682, 1182.624
318.7504, 1214.771
319.2325, 1204.674
319.7146, 1179.873
320.1967, 1170.638
320.6788, 1204.948
321.1609, 1235.104
321.6431, 1245.823
322.1252, 1232.232
322.6073, 1216.042
323.0894, 1201.200
323.5715, 1189.569
324.0536, 1176.287
324.5358, 1162.257
325.0179, 1148.865
325.5000, 1135.429
325.9821, 1126.069
326.4642, 1110.647
326.9464, 1086.308
327.4285, 1059.554
327.9106, 1035.513
328.3927, 1010.373
328.8748, 992.6670
329.3569, 988.2065
329.8391, 995.0356
330.3212, 994.4609
330.8033, 980.8811
331.2854, 964.8147
331.7675, 952.4890
332.2496, 942.0288
332.7318, 939.7434
333.2139, 951.3218
333.6960, 971.8857
334.1781, 979.9785
334.6602, 969.8145
335.1423, 956.3242
335.6245, 947.2295
336.1066, 943.3904
336.5887, 941.5906
337.0708, 942.8887
337.5529, 945.3010
338.0350, 945.1106
338.5172, 944.2671
338.9993, 934.6899
339.4814, 908.7339
339.9635, 863.9155
340.4456, 826.5454
340.9277, 800.5496
341.4099, 777.1289
341.8920, 736.6968
342.3741, 677.5342
342.8562, 620.5505
343.3383, 576.1555
343.8204, 543.6794
344.3026, 515.5410
344.7847, 493.6755
345.2668, 471.0686
345.7489, 435.4360
346.2310, 387.9810
346.7131, 345.2461
347.1953, 315.4250
347.6774, 295.4722
348.1595, 278.9570
348.6416, 266.6550
349.1237, 252.5378
349.6058, 225.0247
350.0880, 189.9465
350.5700, 164.9094
351.0522, 165.0906
351.5343, 174.7556
352.0164, 168.3340
352.4985, 146.4597
352.9806, 124.1179
353.4627, 117.2893
353.9449, 117.1917
354.4270, 108.7122
354.9091, 78.09766
355.3912, 46.91431
355.8733, 38.31274
356.3554, 48.61011
356.8376, 57.50000
357.3197, 48.77612
357.8018, 34.43726
358.2839, 26.81763
358.7660, 33.73340
359.2481, 39.84863
359.7303, 32.05469
360.2124, 16.26953
360.6945, 9.043945
361.1766, 32.58936
361.6587, 56.86377
362.1408, 61.41943
362.6230, 34.26367
363.1051, 8.692871
363.5872, 10.97412
364.0693, 22.12964
364.5514, 19.90967
365.0335, 7.730957
365.5157, 39.31104
365.9978, 69.40576
366.4799, 100.8494
366.9620, 119.6494
367.4441, 112.8093
367.9262, 95.95654
368.4084, 88.45679
368.8905, 89.68945
369.3726, 101.1399
369.8547, 129.9717
370.3368, 180.2261
370.8189, 204.8792
371.3011, 187.9148
371.7832, 158.8850
372.2653, 145.3677
372.7474, 159.8728
373.2295, 163.4956
373.7116, 146.9868
374.1938, 113.6111
374.6759, 87.68042
375.1580, 72.17993
375.6401, 58.88696
376.1222, 41.21533
376.6043, 18.34131
377.0865, 1.135986
377.5686, 16.10645
378.0507, 27.00024
378.5328, 31.98413
379.0149, 55.11743
379.4970, 23.65503
379.9792, 5.040039
380.4613, 1.426514
380.9434, 40.61133
381.4255, 20.04785
381.9076, 24.59961
382.3897, 30.19897
382.8719, 0.8769530
383.3540, 35.94946
383.8361, 7.213379
384.3182, 3.968262
384.8003, 10.93018
385.2824, 0.5720210
385.7646, 1.990479
386.2467, 2.905762
386.7288, 2.997559
387.2109, 7.191162
387.6930, 6.599609
388.1751, 1.312744
388.6573, 9.509277
389.1394, 25.69849
389.6215, 44.14966
390.1036, 67.38770
390.5857, 90.00513
391.0678, 106.2629
391.5499, 108.3103
392.0320, 110.5925
392.5142, 122.2480
392.9963, 140.9038
393.4784, 158.7244
393.9605, 174.3584
394.4426, 186.3616
394.9247, 196.9919
395.4069, 206.4253
395.8890, 217.9773
396.3711, 230.9971
396.8532, 244.4417
397.3353, 253.7170
397.8174, 246.5498
398.2996, 245.7566
398.7817, 258.6079
399.2638, 296.9939
399.7459, 308.7510
400.2280, 268.3716
400.7101, 218.2361
401.1923, 203.6196
401.6744, 252.9060
402.1565, 291.5571
402.6386, 302.2417
403.1207, 289.6418
403.6028, 276.7065
404.0850, 262.0466
404.5671, 250.1997
405.0492, 245.7688
405.5313, 250.3962
406.0134, 252.9407
406.4955, 250.6289
406.9777, 246.9177
407.4598, 251.8801
407.9419, 267.5349
408.4240, 280.0020
408.9061, 276.1201
409.3882, 258.1545
409.8704, 245.6194
410.3525, 239.1570
410.8346, 239.8599
411.3167, 251.1665
411.7988, 271.8398
412.2809, 294.9106
412.7631, 316.5156
413.2452, 339.3142
413.7273, 368.9077
414.2094, 405.4670
414.6915, 441.6616
415.1736, 466.8281
415.6558, 488.6533
416.1379, 517.9502
416.6200, 561.9556
417.1021, 611.0850
417.5842, 653.6108
418.0663, 694.0315
418.5485, 750.7495
419.0306, 848.2795
419.5127, 956.1299
419.9948, 1053.541
420.4769, 1129.021
420.9590, 1205.267
421.4412, 1287.770
421.9233, 1374.804
422.4054, 1466.467
422.8875, 1562.410
423.3696, 1662.976
423.8517, 1769.956
424.3339, 1884.531
424.8160, 1994.735
425.2981, 2093.996
425.7802, 2191.614
426.2623, 2298.733
426.7444, 2424.837
427.2266, 2542.564
427.7087, 2647.819
428.1908, 2740.823
428.6729, 2835.057
429.1550, 2934.977
429.6371, 3026.536
430.1193, 3109.134
430.6014, 3189.017
431.0835, 3207.941
431.5656, 3155.017
432.0477, 3047.740
432.5298, 2916.313
433.0119, 2760.561
433.4940, 2581.154
433.9762, 2360.367
434.4583, 2113.686
434.9404, 1899.664
435.4225, 1720.161
435.9046, 1558.140
436.3867, 1399.901
436.8689, 1245.547
437.3510, 1102.983
437.8331, 969.0269
438.3152, 849.4705
438.7973, 753.0112
439.2794, 680.8813
439.7616, 615.0034
440.2437, 543.5176
440.7258, 477.0381
441.2079, 421.2556
441.6900, 388.1482
442.1721, 355.2737
442.6543, 306.9387
443.1364, 252.0801
443.6185, 209.3245
444.1006, 198.7478
444.5827, 189.6187
445.0648, 168.8474
445.5470, 133.2019
446.0291, 101.1907
446.5112, 74.55615
446.9933, 52.42456
447.4754, 33.56738
447.9576, 16.00610
448.4397, 5.037598
448.9218, 3.922363
449.4039, 10.63501
449.8860, 13.50342
450.3681, 12.04370
450.8503, 7.372070
451.3324, 27.43164
451.8145, 0.5566410
452.2966, 15.71069
452.7787, 18.72485
453.2608, 26.75977
453.7430, 9.634766
454.2251, 17.61646
454.7072, 26.57349
455.1893, 3.1740000E-03
455.6714, 37.63086
456.1535, 12.24805
456.6357, 12.41895
457.1178, 0.9365230
457.5999, 14.71313
458.0820, 20.69922
458.5641, 1.437500
459.0462, 3.834473
459.5284, 12.87720
460.0105, 0.6960450
460.4926, 40.15503
460.9747, 33.10791
461.4568, 31.46631
461.9389, 25.54395
462.4211, 18.95508
462.9032, 12.11182
463.3853, 5.078125
463.8674, 6.473145
464.3495, 16.63379
464.8316, 18.20117
465.3138, 6.874512
465.7959, 23.76172
466.2780, 18.33105
466.7601, 8.666504
467.2422, 25.43018
467.7243, 23.82715
468.2065, 18.90479
468.6886, 18.33936
469.1707, 21.66650
469.6528, 30.02344
470.1349, 40.50586
470.6170, 58.11865
471.0992, 97.70068
471.5813, 167.5938
472.0634, 228.4990
472.5455, 260.7837
473.0276, 268.7134
473.5097, 294.8467
473.9918, 340.7002
474.4739, 397.7539
474.9561, 464.6011
475.4382, 537.9614
475.9203, 598.4165
476.4024, 636.8667
476.8845, 668.7983
477.3666, 718.4736
477.8488, 782.0947
478.3309, 843.4751
478.8130, 884.0864
479.2951, 922.2593
479.7772, 980.1519
480.2593, 1062.610
480.7415, 1146.168
481.2236, 1221.677
481.7057, 1288.944
482.1878, 1347.737
482.6699, 1398.852
483.1520, 1440.608
483.6342, 1479.372
484.1163, 1512.008
484.5984, 1514.993
485.0805, 1466.311
485.5626, 1401.500
486.0447, 1337.593
486.5269, 1280.436
487.0090, 1211.416
487.4911, 1125.640
487.9732, 1032.087
488.4553, 941.5254
488.9374, 852.4619
489.4196, 773.6367
489.9017, 709.0493
490.3838, 657.6816
490.8659, 609.1670
491.3480, 564.6636
491.8301, 518.3989
492.3123, 460.7983
492.7944, 395.5747
493.2765, 340.3613
493.7586, 298.1733
494.2407, 266.6289
494.7228, 247.2788
495.2050, 237.3008
495.6871, 227.4653
496.1692, 207.3423
496.6513, 188.6636
497.1334, 186.4937
497.6155, 200.9102
498.0977, 213.9243
498.5798, 210.9604
499.0619, 203.3838
499.5440, 202.6821
500.0261, 225.7544
500.5082, 236.6938
500.9904, 211.6812
501.4725, 166.8359
501.9546, 141.4102
502.4367, 162.8140
502.9188, 183.4766
503.4009, 187.7627
503.8831, 172.1050
504.3652, 162.0894
504.8473, 162.3862
505.3294, 162.5879
505.8115, 151.8428
506.2936, 126.4956
506.7758, 103.5557
507.2579, 85.44531
507.7400, 71.36133
508.2221, 59.88135
508.7042, 50.98096
509.1863, 42.51807
509.6685, 40.17969
510.1506, 40.77783
510.6327, 37.61426
511.1148, 28.63086
511.5969, 17.34375
512.0790, 6.498535
512.5612, 32.40039
513.0433, 37.77490
513.5254, 6.340332
514.0075, 30.14062
514.4896, 42.65234
514.9717, 37.44043
515.4539, 30.66846
515.9360, 25.08301
516.4181, 25.52100
516.9002, 34.91650
517.3823, 55.01465
517.8644, 71.56689
518.3466, 75.50781
518.8287, 76.08398
519.3108, 79.11963
519.7929, 84.17871
520.2750, 93.24512
520.7571, 108.3125
521.2393, 127.3398
521.7214, 142.9048
522.2035, 152.4326
522.6856, 164.0376
523.1677, 182.1060
523.6498, 206.1357
524.1320, 228.3926
524.6141, 249.4375
525.0962, 270.2222
525.5783, 293.6079
526.0604, 319.0771
526.5425, 345.3594
527.0247, 373.8862
527.5068, 399.5161
527.9889, 408.3652
528.4710, 406.5059
528.9531, 416.0229
529.4352, 463.5225
529.9174, 517.8105
530.3995, 551.7666
530.8816, 559.7563
531.3637, 570.0669
531.8458, 594.2559
532.3279, 625.7588
532.8101, 658.1250
533.2922, 698.0557
533.7743, 729.9248
534.2564, 749.8110
534.7385, 760.1890
535.2206, 768.8247
535.7027, 775.0220
536.1848, 780.1587
536.6669, 783.5049
537.1490, 784.4995
537.6312, 794.1128
538.1133, 816.3018
538.5954, 836.0474
539.0775, 833.0938
539.5596, 809.9424
540.0417, 799.7993
540.5239, 814.4546
541.0060, 833.8130
541.4881, 820.5430
541.9702, 782.3350
542.4523, 750.0752
542.9344, 748.3447
543.4166, 755.8853
543.8987, 749.9438
544.3808, 729.8711
544.8629, 709.7036
545.3450, 701.6143
545.8271, 694.5605
546.3093, 678.3374
546.7914, 641.2773
547.2735, 610.1177
547.7556, 591.0405
548.2377, 581.5347
548.7198, 576.7065
549.2020, 581.8599
549.6841, 583.9082
550.1662, 577.1577
550.6483, 562.2729
551.1304, 557.5288
551.6125, 565.0581
552.0947, 577.1543
552.5768, 589.8569
553.0589, 603.0244
553.5410, 612.0137
554.0231, 615.8008
554.5052, 616.8916
554.9874, 615.4927
555.4695, 613.5103
555.9516, 618.7461
556.4337, 641.4214
556.9158, 666.9937
557.3979, 675.8672
557.8801, 671.8262
558.3622, 672.8101
558.8443, 690.0757
559.3264, 714.3687
559.8085, 740.2559
560.2906, 768.8149
560.7728, 792.6250
561.2549, 800.1831
561.7370, 806.4780
562.2191, 828.7202
562.7012, 880.3994
563.1833, 929.6343
563.6655, 970.8467
564.1476, 1006.651
564.6297, 1045.707
565.1118, 1088.706
565.5939, 1132.146
566.0760, 1172.241
566.5582, 1209.435
567.0403, 1259.690
567.5224, 1323.437
568.0045, 1395.053
568.4866, 1468.816
568.9688, 1545.111
569.4509, 1624.996
569.9330, 1706.636
570.4151, 1793.384
570.8972, 1891.875
571.3793, 1998.838
571.8615, 2098.205
572.3436, 2174.784
572.8257, 2252.455
573.3078, 2344.120
573.7899, 2450.734
574.2720, 2560.323
574.7542, 2672.368
575.2363, 2786.855
575.7184, 2905.896
576.2005, 3043.649
576.6826, 3154.469
577.1647, 3225.362
577.6469, 3281.669
578.1290, 3357.015
578.6111, 3456.882
579.0932, 3547.644
579.5753, 3621.999
580.0574, 3681.698
580.5396, 3730.718
581.0217, 3769.536
581.5038, 3797.562
581.9859, 3816.408
582.4680, 3823.485
582.9501, 3814.143
583.4323, 3788.004
583.9144, 3746.735
584.3965, 3695.184
584.8786, 3627.414
585.3607, 3535.212
585.8428, 3406.784
586.3250, 3272.232
586.8071, 3145.219
587.2892, 3018.266
587.7713, 2877.558
588.2534, 2703.543
588.7355, 2536.110
589.2177, 2382.029
589.6998, 2242.021
590.1819, 2110.349
590.6640, 1989.204
591.1461, 1871.273
591.6282, 1747.979
592.1104, 1619.438
592.5925, 1514.672
593.0746, 1437.853
593.5567, 1368.364
594.0388, 1280.861
