##NAMES=Fluorapophyllite-(K)
##RRUFFID=R050084
##IDEAL CHEMISTRY=KCa_4_Si_8_O_20_F&#183;8H_2_O
##LOCALITY=near Ahmednagar, Maharashtra, India
##OWNER=RRUFF
##SOURCE=Rock Currier
##DESCRIPTION=Greenish-white prismatic single crystal associated with scolecite
##STATUS=The identification of this mineral has been confirmed by X-ray diffraction and chemical analysis
##URL=rruff.info/R050084
##MEASURED CHEMISTRY=(K_0.98_Na_0.02_)Ca_4.00_Si_8.00_O_20_F_1.00_·8H_2_O
126.0381, 0.0000000E+00
126.5202, 0.6963500
127.0023, 15.90717
127.4844, 55.85486
127.9666, 114.0074
128.4487, 188.3247
128.9308, 274.7555
129.4129, 385.2936
129.8950, 512.0519
130.3772, 617.0539
130.8593, 691.7823
131.3414, 737.5055
131.8235, 757.9811
132.3056, 768.6085
132.7877, 755.2812
133.2699, 695.0126
133.7520, 591.0803
134.2341, 481.1223
134.7162, 373.3030
135.1983, 269.7728
135.6804, 187.5376
136.1626, 130.2314
136.6447, 90.11108
137.1268, 52.92310
137.6089, 17.51587
138.0910, 10.38330
138.5731, 26.55566
139.0553, 29.34277
139.5374, 28.38867
140.0195, 23.05933
140.5016, 14.59265
140.9837, 10.10217
141.4658, 15.45728
141.9480, 15.37183
142.4301, 0.8803710
142.9122, 37.89905
143.3943, 81.17273
143.8764, 129.7947
144.3585, 183.2302
144.8407, 242.1705
145.3228, 305.3577
145.8049, 374.5582
146.2870, 451.3839
146.7691, 541.3442
147.2512, 630.1206
147.7334, 711.1481
148.2155, 780.4319
148.6976, 863.8765
149.1797, 964.8723
149.6618, 1079.408
150.1439, 1201.001
150.6261, 1317.889
151.1082, 1450.905
151.5903, 1605.719
152.0724, 1788.111
152.5545, 1978.586
153.0366, 2162.536
153.5188, 2353.285
154.0009, 2576.025
154.4830, 2849.319
154.9651, 3146.510
155.4472, 3457.715
155.9293, 3772.698
156.4115, 4113.250
156.8936, 4493.093
157.3757, 4905.347
157.8578, 5331.152
158.3399, 5793.951
158.8221, 6251.232
159.3042, 6680.467
159.7863, 7146.999
160.2684, 7514.810
160.7505, 7766.504
161.2326, 7897.394
161.7148, 7850.160
162.1969, 7555.463
162.6790, 7087.058
163.1611, 6521.372
163.6432, 5771.428
164.1253, 5015.223
164.6075, 4330.858
165.0896, 3720.575
165.5717, 3186.141
166.0538, 2737.969
166.5359, 2364.922
167.0180, 2048.955
167.5002, 1792.397
167.9823, 1580.676
168.4644, 1402.880
168.9465, 1257.740
169.4286, 1149.826
169.9107, 1091.356
170.3929, 1073.351
170.8750, 1075.549
171.3571, 1088.274
171.8392, 1115.739
172.3213, 1162.566
172.8034, 1228.935
173.2856, 1314.305
173.7677, 1419.909
174.2498, 1545.114
174.7319, 1685.385
175.2140, 1827.998
175.6961, 1986.081
176.1783, 2179.801
176.6604, 2411.739
177.1425, 2678.042
177.6246, 2975.557
178.1067, 3301.679
178.5888, 3660.457
179.0710, 4043.396
179.5531, 4455.597
180.0352, 4904.345
180.5173, 5388.722
180.9994, 5908.787
181.4815, 6469.341
181.9637, 7073.727
182.4458, 7670.271
182.9279, 8264.731
183.4100, 8831.538
183.8921, 9288.567
184.3742, 9649.503
184.8564, 9876.091
185.3385, 9853.535
185.8206, 9574.897
186.3027, 9128.866
186.7848, 8546.427
187.2669, 7845.900
187.7491, 7144.418
188.2312, 6455.963
188.7133, 5799.711
189.1954, 5231.643
189.6775, 4756.582
190.1596, 4363.820
190.6418, 4043.761
191.1239, 3797.401
191.6060, 3601.476
192.0881, 3452.201
192.5702, 3347.766
193.0524, 3276.755
193.5345, 3242.967
194.0166, 3233.561
194.4987, 3226.906
194.9808, 3221.080
195.4629, 3237.284
195.9451, 3290.107
196.4272, 3380.832
196.9093, 3473.552
197.3914, 3565.297
197.8735, 3662.466
198.3556, 3778.110
198.8378, 3912.950
199.3199, 4056.908
199.8020, 4195.146
200.2841, 4323.314
200.7662, 4498.448
201.2483, 4729.832
201.7305, 5004.411
202.2126, 5293.597
202.6947, 5598.937
203.1768, 5913.117
203.6589, 6228.031
204.1410, 6536.629
204.6232, 6877.347
205.1053, 7260.269
205.5874, 7674.443
206.0695, 8089.110
206.5516, 8510.812
207.0337, 8915.827
207.5159, 9303.694
207.9980, 9681.351
208.4801, 9977.372
208.9622, 10187.32
209.4443, 10308.56
209.9264, 10322.90
210.4086, 10217.63
210.8907, 10029.95
211.3728, 9779.273
211.8549, 9446.428
212.3370, 9106.801
212.8191, 8760.279
213.3013, 8413.289
213.7834, 8091.115
214.2655, 7787.425
214.7476, 7517.808
215.2297, 7302.048
215.7118, 7149.445
216.1940, 7019.858
216.6761, 6909.222
217.1582, 6816.645
217.6403, 6736.117
218.1224, 6675.672
218.6045, 6617.786
219.0867, 6542.948
219.5688, 6440.451
220.0509, 6347.245
220.5330, 6271.372
221.0151, 6211.855
221.4972, 6167.372
221.9794, 6134.426
222.4615, 6119.903
222.9436, 6136.106
223.4257, 6204.793
223.9078, 6260.368
224.3899, 6290.954
224.8721, 6297.499
225.3542, 6271.423
225.8363, 6204.668
226.3184, 6112.836
226.8005, 6016.146
227.2827, 5931.923
227.7648, 5810.442
228.2469, 5637.219
228.7290, 5409.832
229.2111, 5154.522
229.6932, 4864.013
230.1754, 4554.584
230.6575, 4240.923
231.1396, 3917.573
231.6217, 3603.209
232.1038, 3301.007
232.5859, 3009.307
233.0681, 2739.844
233.5502, 2499.428
234.0323, 2277.332
234.5144, 2053.014
234.9965, 1815.800
235.4786, 1597.127
235.9608, 1406.022
236.4429, 1247.107
236.9250, 1105.480
237.4071, 986.5083
237.8892, 882.5610
238.3713, 781.4822
238.8535, 680.5093
239.3356, 587.1340
239.8177, 505.3843
240.2998, 438.8898
240.7819, 368.5022
241.2640, 286.7277
241.7462, 204.2830
242.2283, 140.0939
242.7104, 103.2063
243.1925, 69.63245
243.6746, 30.07056
244.1567, 21.01782
244.6389, 58.87781
245.1210, 78.24011
245.6031, 87.53479
246.0852, 102.0959
246.5673, 127.5562
247.0494, 148.7198
247.5316, 160.0649
248.0137, 159.7981
248.4958, 155.5848
248.9779, 146.9248
249.4600, 134.5890
249.9421, 119.5841
250.4243, 99.32483
250.9064, 80.89294
251.3885, 68.62061
251.8706, 67.42773
252.3527, 55.19446
252.8348, 28.90698
253.3170, 6.454834
253.7991, 41.90015
254.2812, 77.29700
254.7633, 112.2473
255.2454, 144.5745
255.7275, 169.4565
256.2097, 209.3245
256.6918, 268.1718
257.1739, 338.7869
257.6560, 408.3883
258.1381, 474.8593
258.6202, 545.0442
259.1024, 622.9462
259.5845, 709.4656
260.0666, 796.3694
260.5487, 882.1863
261.0308, 969.3529
261.5129, 1067.975
261.9951, 1182.494
262.4772, 1295.900
262.9593, 1400.382
263.4414, 1495.728
263.9235, 1588.856
264.4056, 1685.882
264.8878, 1775.982
265.3699, 1844.394
265.8520, 1893.345
266.3341, 1915.898
266.8162, 1908.888
267.2983, 1871.395
267.7805, 1809.380
268.2626, 1719.411
268.7447, 1609.113
269.2268, 1488.985
269.7089, 1356.656
270.1910, 1223.452
270.6732, 1089.661
271.1553, 954.5732
271.6374, 832.7512
272.1195, 725.5619
272.6016, 629.4067
273.0837, 540.6946
273.5659, 457.6077
274.0480, 388.9772
274.5301, 341.9965
275.0122, 317.8501
275.4943, 285.4467
275.9764, 240.0192
276.4586, 195.3008
276.9407, 174.0675
277.4228, 178.8239
277.9049, 187.2855
278.3870, 189.5074
278.8691, 186.1323
279.3513, 193.0398
279.8334, 211.8783
280.3155, 236.7484
280.7976, 258.4741
281.2798, 276.4729
281.7619, 300.8691
282.2440, 336.5546
282.7261, 382.4437
283.2082, 430.7731
283.6903, 481.7610
284.1725, 534.3848
284.6546, 585.2423
285.1367, 634.2815
285.6188, 691.2792
286.1009, 760.5045
286.5830, 840.5168
287.0652, 926.7639
287.5473, 1019.062
288.0294, 1114.066
288.5115, 1205.273
288.9936, 1294.354
289.4757, 1391.421
289.9579, 1506.647
290.4400, 1631.045
290.9221, 1739.324
291.4042, 1830.121
291.8863, 1921.802
292.3684, 2041.385
292.8506, 2180.473
293.3327, 2304.307
293.8148, 2400.037
294.2969, 2477.009
294.7790, 2556.298
295.2611, 2637.559
295.7433, 2706.162
296.2254, 2755.995
296.7075, 2784.944
297.1896, 2785.912
297.6717, 2754.886
298.1538, 2696.919
298.6360, 2617.505
299.1181, 2516.480
299.6002, 2400.512
300.0823, 2269.318
300.5644, 2126.243
301.0465, 1975.079
301.5287, 1810.609
302.0108, 1644.797
302.4929, 1494.591
302.9750, 1358.623
303.4571, 1232.918
303.9392, 1114.822
304.4214, 1003.003
304.9035, 893.5117
305.3856, 785.8955
305.8677, 685.4565
306.3498, 599.3940
306.8319, 526.5256
307.3141, 460.3524
307.7962, 397.7013
308.2783, 340.9688
308.7604, 292.0370
309.2425, 253.9038
309.7246, 218.4668
310.2068, 180.3367
310.6889, 142.1639
311.1710, 108.9955
311.6531, 78.70374
312.1352, 54.36084
312.6173, 40.44556
313.0995, 41.28687
313.5816, 42.43433
314.0637, 34.70459
314.5458, 22.70081
315.0279, 15.00049
315.5100, 16.64270
315.9922, 22.12793
316.4743, 28.46106
316.9564, 34.86877
317.4385, 43.89148
317.9206, 59.35535
318.4027, 77.25867
318.8849, 92.01196
319.3670, 97.78247
319.8491, 103.9579
320.3312, 114.0039
320.8133, 128.5935
321.2954, 144.7457
321.7776, 158.7561
322.2597, 175.2948
322.7418, 199.3407
323.2239, 243.7618
323.7060, 283.6542
324.1881, 310.6595
324.6703, 323.1676
325.1524, 341.7528
325.6345, 370.1353
326.1166, 403.6516
326.5987, 438.8452
327.0808, 477.6154
327.5630, 516.5747
328.0451, 555.5717
328.5272, 594.2642
329.0093, 631.3154
329.4914, 659.5327
329.9735, 692.1897
330.4557, 739.0914
330.9378, 814.1263
331.4199, 878.3416
331.9020, 926.0441
332.3841, 959.6624
332.8662, 992.7341
333.3484, 1025.971
333.8305, 1059.315
334.3126, 1095.208
334.7947, 1139.136
335.2768, 1164.143
335.7589, 1163.740
336.2411, 1146.265
336.7232, 1132.702
337.2053, 1125.627
337.6874, 1115.334
338.1695, 1099.203
338.6516, 1078.495
339.1338, 1041.221
339.6159, 983.3671
340.0980, 915.8311
340.5801, 859.0909
341.0622, 813.6653
341.5443, 766.9167
342.0265, 712.5554
342.5086, 651.6952
342.9907, 587.4059
343.4728, 518.8361
343.9549, 452.2354
344.4370, 398.5728
344.9192, 356.7457
345.4013, 313.2596
345.8834, 260.3479
346.3655, 203.9231
346.8476, 162.9681
347.3297, 137.9447
347.8119, 118.9186
348.2940, 97.93079
348.7761, 75.84595
349.2582, 55.95715
349.7403, 39.71484
350.2225, 24.94702
350.7046, 5.616211
351.1867, 17.18469
351.6688, 33.46228
352.1509, 31.92529
352.6331, 20.38867
353.1152, 10.23743
353.5973, 3.685425
354.0794, 0.3105470
354.5615, 0.5073240
355.0436, 3.803589
355.5258, 2.473755
356.0079, 10.41040
356.4900, 27.95764
356.9721, 43.69238
357.4542, 55.39807
357.9363, 69.45654
358.4185, 90.79175
358.9006, 116.7634
359.3827, 142.7983
359.8648, 163.5946
360.3469, 186.8129
360.8290, 217.1403
361.3112, 255.8632
361.7933, 296.0046
362.2754, 335.7910
362.7575, 375.9677
363.2396, 417.5037
363.7217, 459.6069
364.2039, 503.5725
364.6860, 548.9968
365.1681, 596.0692
365.6502, 647.1943
366.1323, 707.8250
366.6144, 769.7955
367.0966, 827.6656
367.5787, 876.8273
368.0608, 926.6910
368.5429, 980.4558
369.0250, 1036.383
369.5071, 1084.101
369.9893, 1118.304
370.4714, 1150.302
370.9535, 1187.882
371.4356, 1243.638
371.9177, 1274.881
372.3998, 1275.843
372.8820, 1254.587
373.3641, 1230.784
373.8462, 1210.302
374.3283, 1172.332
374.8104, 1106.464
375.2925, 1010.027
375.7747, 907.3813
376.2568, 793.8693
376.7389, 681.6053
377.2210, 590.2104
377.7031, 520.9918
378.1852, 453.7253
378.6674, 378.1204
379.1495, 299.5767
379.6316, 240.1317
380.1137, 201.6003
380.5958, 170.4203
381.0779, 133.4473
381.5601, 92.56372
382.0422, 60.36292
382.5243, 40.57263
383.0064, 28.48608
383.4885, 17.68457
383.9706, 7.890625
384.4528, 1.994385
384.9349, 14.85535
385.4170, 27.88354
385.8991, 35.98071
386.3812, 37.23535
386.8633, 37.61841
387.3455, 44.27972
387.8276, 54.41522
388.3097, 61.74170
388.7918, 63.94183
389.2739, 61.38531
389.7560, 51.24542
390.2382, 32.23438
390.7203, 18.68884
391.2024, 24.98596
391.6845, 38.74835
392.1666, 45.80688
392.6487, 37.00836
393.1309, 24.72601
393.6130, 13.43994
394.0951, 3.037720
394.5772, 8.561035
395.0593, 22.34558
395.5414, 37.23450
396.0236, 52.44226
396.5057, 70.74243
396.9878, 86.00806
397.4699, 95.10376
397.9520, 100.3477
398.4341, 109.0540
398.9163, 126.9017
399.3984, 142.2972
399.8805, 150.2677
400.3626, 147.0807
400.8447, 147.4785
401.3268, 151.7843
401.8090, 159.4465
402.2911, 170.2360
402.7732, 185.1169
403.2553, 200.2159
403.7374, 213.6869
404.2195, 225.8527
404.7017, 244.2097
405.1838, 271.5756
405.6659, 297.7068
406.1480, 311.3230
406.6301, 312.2699
407.1122, 316.5020
407.5944, 328.5546
408.0765, 343.8226
408.5586, 347.6638
409.0407, 339.6647
409.5228, 336.1483
410.0049, 354.4075
410.4871, 387.3849
410.9692, 413.0713
411.4513, 427.9132
411.9334, 439.3246
412.4155, 454.5253
412.8976, 473.2417
413.3798, 494.2773
413.8619, 513.5677
414.3440, 537.4906
414.8261, 573.6566
415.3082, 622.3323
415.7903, 677.2340
416.2725, 735.3027
416.7546, 797.2788
417.2367, 865.3964
417.7188, 940.4742
418.2009, 1019.890
418.6830, 1099.932
419.1652, 1182.621
419.6473, 1272.236
420.1294, 1366.992
420.6115, 1472.137
421.0937, 1592.158
421.5758, 1726.162
422.0579, 1873.411
422.5400, 2044.672
423.0221, 2227.089
423.5042, 2402.732
423.9864, 2533.347
424.4685, 2697.637
424.9506, 2928.272
425.4327, 3229.390
425.9148, 3502.908
426.3969, 3731.945
426.8791, 3952.497
427.3612, 4191.583
427.8433, 4449.815
428.3254, 4724.065
428.8075, 5019.242
429.2896, 5327.459
429.7718, 5628.987
430.2539, 5934.128
430.7360, 6183.711
431.2181, 6360.094
431.7002, 6460.181
432.1823, 6416.375
432.6645, 6215.143
433.1466, 5898.809
433.6287, 5494.900
434.1108, 5018.135
434.5929, 4536.594
435.0750, 4063.667
435.5572, 3614.663
436.0393, 3214.177
436.5214, 2862.030
437.0035, 2554.286
437.4856, 2301.302
437.9677, 2089.569
438.4499, 1903.400
438.9320, 1741.965
439.4141, 1599.541
439.8962, 1475.913
440.3783, 1369.096
440.8604, 1270.430
441.3426, 1172.116
441.8247, 1084.734
442.3068, 1016.627
442.7889, 973.1538
443.2710, 930.6466
443.7531, 879.3311
444.2353, 828.1257
444.7174, 785.7870
445.1995, 759.8459
445.6816, 735.7196
446.1637, 709.4397
446.6458, 682.2621
447.1280, 663.6140
447.6101, 655.5118
448.0922, 655.3306
448.5743, 661.6691
449.0564, 675.8237
449.5385, 688.5657
450.0207, 700.3630
450.5028, 711.7490
450.9849, 719.0894
451.4670, 719.2473
451.9491, 730.1644
452.4312, 759.9330
452.9134, 806.8989
453.3955, 862.9438
453.8776, 929.1743
454.3597, 994.4314
454.8418, 1042.795
455.3239, 1079.075
455.8061, 1122.113
456.2882, 1179.125
456.7703, 1241.361
457.2524, 1296.946
457.7345, 1346.740
458.2166, 1395.821
458.6988, 1448.863
459.1809, 1501.568
459.6630, 1549.582
460.1451, 1593.449
460.6272, 1629.176
461.1093, 1659.055
461.5915, 1677.751
462.0736, 1677.828
462.5557, 1644.525
463.0378, 1604.357
463.5199, 1571.759
464.0020, 1543.966
464.4842, 1497.881
464.9663, 1413.576
465.4484, 1321.246
465.9305, 1236.743
466.4126, 1167.725
466.8947, 1092.121
467.3769, 1003.227
467.8590, 910.9995
468.3411, 831.1096
468.8232, 769.0127
469.3053, 709.2269
469.7874, 647.3622
470.2696, 583.6216
470.7517, 520.4602
471.2338, 456.4778
471.7159, 397.8153
472.1980, 351.7405
472.6801, 317.8875
473.1623, 286.4624
473.6444, 255.4188
474.1265, 227.0013
474.6086, 204.1371
475.0907, 186.9771
475.5728, 176.5056
476.0550, 179.8339
476.5371, 187.9009
477.0192, 184.3118
477.5013, 168.3979
477.9834, 151.7306
478.4655, 139.1765
478.9477, 132.4916
479.4298, 134.1863
479.9119, 147.5981
480.3940, 166.3003
480.8761, 192.3361
481.3582, 221.7124
481.8404, 242.5256
482.3225, 246.0287
482.8046, 244.0724
483.2867, 242.4852
483.7688, 243.3679
484.2509, 239.0225
484.7331, 225.5739
485.2152, 208.2566
485.6973, 191.7588
486.1794, 178.1025
486.6615, 161.8730
487.1436, 142.8479
487.6258, 120.6489
488.1079, 91.17139
488.5900, 50.13245
489.0721, 14.13123
489.5542, 6.579956
490.0363, 12.01746
490.5185, 13.88904
491.0006, 11.40344
491.4827, 9.025024
491.9648, 13.15491
492.4470, 22.87476
492.9291, 33.53271
493.4112, 45.46265
493.8933, 55.74731
494.3754, 58.06506
494.8575, 53.38818
495.3397, 48.26782
495.8218, 47.52563
496.3039, 48.62561
496.7860, 48.90674
497.2681, 48.19092
497.7502, 45.62671
498.2324, 41.95410
498.7145, 35.73462
499.1966, 24.94189
499.6787, 0.3085940
500.1608, 20.74597
500.6429, 26.41309
501.1251, 18.56934
501.6072, 18.77197
502.0893, 40.77856
502.5714, 60.32959
503.0535, 63.71033
503.5356, 35.09790
504.0178, 29.61877
504.4999, 57.21252
504.9820, 98.97913
505.4641, 127.9293
505.9462, 143.0795
506.4283, 149.3455
506.9105, 143.7343
507.3926, 131.1686
507.8747, 134.2720
508.3568, 153.9874
508.8389, 172.4857
509.3210, 174.5424
509.8032, 165.3926
510.2853, 158.2959
510.7674, 154.0193
511.2495, 155.6370
511.7316, 172.7910
512.2137, 197.9202
512.6959, 215.3586
513.1780, 215.6290
513.6601, 208.7444
514.1422, 198.5728
514.6243, 185.8842
515.1064, 175.1605
515.5886, 171.0139
516.0707, 167.3541
516.5528, 160.3531
517.0349, 147.8635
517.5170, 135.4404
517.9991, 119.5477
518.4813, 105.6412
518.9634, 101.7571
519.4455, 116.8340
519.9276, 126.3767
520.4097, 123.5980
520.8918, 110.7175
521.3740, 103.0011
521.8561, 102.0569
522.3382, 100.9565
522.8203, 91.74792
523.3024, 75.58142
523.7845, 73.36804
524.2667, 88.46716
524.7488, 109.3358
525.2309, 124.3904
525.7130, 134.1299
526.1951, 139.2303
526.6772, 132.6332
527.1594, 128.6775
527.6415, 151.8192
528.1236, 195.1813
528.6057, 229.1333
529.0878, 228.0457
529.5699, 216.4336
530.0521, 211.0013
530.5342, 213.6211
531.0163, 223.7322
531.4984, 249.5626
531.9805, 279.3116
532.4626, 300.5646
532.9448, 303.0074
533.4269, 307.1659
533.9090, 315.3088
534.3911, 326.8225
534.8732, 339.4943
535.3553, 355.9332
535.8375, 368.9539
536.3196, 374.7181
536.8017, 373.0327
537.2838, 371.4291
537.7659, 370.9005
538.2480, 367.1921
538.7302, 353.0569
539.2123, 330.2161
539.6944, 311.7296
540.1765, 301.8015
540.6586, 294.8992
541.1407, 283.5830
541.6229, 268.5461
542.1050, 252.2039
542.5871, 235.7053
543.0692, 218.5630
543.5513, 200.1207
544.0334, 180.4901
544.5156, 161.0581
544.9977, 139.7350
545.4798, 120.4570
545.9619, 106.7861
546.4440, 103.9430
546.9261, 98.93591
547.4083, 91.39600
547.8904, 81.04553
548.3725, 65.73425
548.8546, 40.21790
549.3367, 18.86572
549.8188, 4.812988
550.3010, 2.447144
550.7831, 5.870117
551.2652, 4.558228
551.7473, 3.370117
552.2294, 7.451782
552.7115, 15.19812
553.1937, 13.30444
553.6758, 1.088623
554.1579, 16.20813
554.6400, 15.42969
555.1221, 3.522583
555.6042, 6.262695
556.0864, 11.53418
556.5685, 10.07996
557.0506, 4.367432
557.5327, 29.36035
558.0148, 52.09351
558.4969, 61.24951
558.9791, 68.91309
559.4612, 82.35522
559.9433, 102.7668
560.4254, 126.6703
560.9075, 155.2061
561.3896, 185.9950
561.8718, 216.8541
562.3539, 242.9760
562.8360, 278.4747
563.3181, 330.4818
563.8002, 389.1837
564.2823, 427.3691
564.7645, 437.8593
565.2466, 458.7880
565.7287, 507.1287
566.2108, 578.1722
566.6929, 648.0754
567.1750, 715.9751
567.6572, 789.3229
568.1393, 876.8523
568.6214, 972.7367
569.1035, 1060.845
569.5856, 1137.223
570.0677, 1215.102
570.5499, 1310.823
571.0320, 1415.173
571.5141, 1514.183
571.9962, 1583.548
572.4783, 1665.685
572.9604, 1783.679
573.4426, 1930.678
573.9247, 2074.073
574.4068, 2203.824
574.8889, 2332.304
575.3710, 2465.793
575.8531, 2606.438
576.3353, 2730.084
576.8174, 2825.811
577.2995, 2918.964
577.7816, 3040.845
578.2637, 3195.255
578.7458, 3331.677
579.2280, 3442.277
579.7101, 3532.786
580.1922, 3610.590
580.6743, 3676.366
581.1564, 3733.945
581.6385, 3793.559
582.1207, 3841.594
582.6028, 3857.423
583.0849, 3842.713
583.5670, 3811.859
584.0491, 3781.092
584.5313, 3732.557
585.0134, 3648.511
585.4955, 3517.049
585.9776, 3381.602
586.4597, 3260.677
586.9418, 3138.507
587.4240, 2998.105
587.9061, 2825.986
588.3882, 2654.641
588.8703, 2484.663
589.3524, 2318.443
589.8345, 2163.813
590.3167, 2022.427
590.7988, 1885.383
591.2809, 1753.691
591.7630, 1624.974
592.2451, 1488.042
592.7272, 1342.146
593.2094, 1206.407
593.6915, 1103.545
594.1736, 1020.781
594.6557, 931.1824
595.1378, 829.1541
595.6199, 733.1631
596.1021, 658.4053
