##NAMES=Fluorapatite
##RRUFFID=R050529
##IDEAL CHEMISTRY=Ca_5_(PO_4_)_3_F
##LOCALITY=Limburg de an Lahn, Germany
##OWNER=RRUFF
##SOURCE=University of Arizona Mineral Museum
##DESCRIPTION=Botryoidal aggregate
##STATUS=The identification of this mineral has been confirmed by X-ray diffraction and chemical analysis
##URL=rruff.info/R050529
##MEASURED CHEMISTRY=(Ca_4.68_[box]_0.32_)_Σ=5_((PO_4_)_2.36_(CO_3_)_0.64_)_Σ=3_F_1.00_
149.7443, 0.0000000E+00
150.2264, 7.3850001E-03
150.7085, 1.7212000E-02
151.1907, 0.5285030
151.6728, 2.202209
152.1549, 3.440369
152.6370, 3.869690
153.1191, 3.713074
153.6012, 3.527039
154.0834, 3.175659
154.5655, 3.054932
155.0476, 3.435059
155.5297, 6.182861
156.0118, 7.641602
156.4939, 6.465637
156.9761, 3.407532
157.4582, 1.035339
157.9403, 0.1013180
158.4224, 0.1281130
158.9045, 7.6233000E-02
159.3866, 0.1719970
159.8688, 0.6905520
160.3509, 1.796387
160.8330, 3.345764
161.3151, 4.696533
161.7972, 5.416504
162.2793, 5.867065
162.7615, 6.321228
163.2436, 6.760559
163.7257, 7.318420
164.2078, 8.132141
164.6899, 9.161865
165.1720, 10.12775
165.6541, 10.73596
166.1363, 11.26569
166.6184, 11.99249
167.1005, 13.40381
167.5826, 14.71906
168.0647, 15.33734
168.5468, 15.30872
169.0290, 15.32104
169.5111, 15.85553
169.9932, 16.67181
170.4753, 18.36243
170.9574, 20.04999
171.4395, 21.21381
171.9217, 22.15881
172.4038, 23.21545
172.8859, 24.15088
173.3680, 24.97839
173.8501, 25.58228
174.3322, 26.09601
174.8144, 24.96399
175.2965, 23.46771
175.7786, 23.37286
176.2607, 24.72253
176.7428, 26.57806
177.2249, 28.54144
177.7071, 30.38947
178.1892, 31.63208
178.6713, 31.53223
179.1534, 30.82275
179.6355, 30.93799
180.1176, 32.02911
180.5998, 32.91388
181.0819, 32.04773
181.5640, 29.83459
182.0461, 27.70172
182.5282, 26.43085
183.0103, 25.71405
183.4925, 24.86224
183.9746, 23.83075
184.4567, 22.78979
184.9388, 22.29926
185.4209, 22.17694
185.9030, 21.31818
186.3852, 18.60510
186.8673, 14.66174
187.3494, 11.60321
187.8315, 9.622742
188.3136, 8.230347
188.7957, 6.941223
189.2779, 5.741394
189.7600, 4.207336
190.2421, 1.585876
190.7242, 1.755066
191.2063, 3.596558
191.6884, 3.594971
192.1706, 2.691528
192.6527, 2.196594
193.1348, 2.123901
193.6169, 2.329529
194.0990, 2.987183
194.5811, 4.041687
195.0633, 4.544556
195.5454, 4.420410
196.0275, 3.827881
196.5096, 2.813416
196.9917, 1.292603
197.4738, 0.2117310
197.9560, 0.4128420
198.4381, 1.893555
198.9202, 2.446777
199.4023, 1.822021
199.8844, 0.4208980
200.3665, 0.9794310
200.8487, 2.371704
201.3308, 3.917175
201.8129, 5.709534
202.2950, 7.763550
202.7771, 10.03113
203.2592, 12.68378
203.7414, 15.38983
204.2235, 17.36407
204.7056, 18.40930
205.1877, 19.38062
205.6698, 20.65912
206.1519, 22.24780
206.6341, 24.14423
207.1162, 26.53766
207.5983, 29.04041
208.0804, 30.67902
208.5625, 31.26642
209.0446, 31.50763
209.5268, 31.68713
210.0089, 31.78387
210.4910, 31.92462
210.9731, 32.09540
211.4552, 32.33673
211.9373, 32.83783
212.4195, 33.82666
212.9016, 34.52618
213.3837, 34.45520
213.8658, 33.32684
214.3479, 32.47327
214.8300, 31.88678
215.3121, 31.59875
215.7943, 31.81323
216.2764, 32.89014
216.7585, 33.68335
217.2406, 33.53595
217.7227, 31.97064
218.2048, 30.97900
218.6870, 30.82196
219.1691, 31.10406
219.6512, 30.81628
220.1333, 29.51587
220.6154, 28.44708
221.0975, 28.14893
221.5797, 28.82080
222.0618, 29.71631
222.5439, 30.92938
223.0260, 32.33545
223.5081, 33.69287
223.9902, 35.00854
224.4724, 36.28937
224.9545, 37.48187
225.4366, 38.50061
225.9187, 39.79803
226.4008, 41.54376
226.8829, 43.51392
227.3651, 45.26495
227.8472, 46.89380
228.3293, 48.16003
228.8114, 48.78375
229.2935, 48.20184
229.7757, 48.75061
230.2578, 50.95819
230.7399, 54.01154
231.2220, 56.34601
231.7041, 57.61511
232.1862, 58.66925
232.6684, 59.91949
233.1505, 61.73169
233.6326, 62.45251
234.1147, 61.54388
234.5968, 59.83087
235.0789, 58.87756
235.5611, 59.22742
236.0432, 59.45270
236.5253, 58.88861
237.0074, 57.00323
237.4895, 56.45837
237.9716, 58.20782
238.4538, 60.72314
238.9359, 61.48083
239.4180, 59.66345
239.9001, 57.42114
240.3822, 55.26892
240.8643, 53.14099
241.3465, 51.53107
241.8286, 50.63068
242.3107, 50.10938
242.7928, 49.52887
243.2749, 48.95575
243.7570, 48.18298
244.2392, 47.00165
244.7213, 45.22333
245.2034, 44.18768
245.6855, 44.13269
246.1676, 44.61420
246.6497, 45.12225
247.1319, 45.76898
247.6140, 46.25983
248.0961, 46.52112
248.5782, 46.43195
249.0603, 46.11194
249.5424, 45.47638
250.0246, 44.96619
250.5067, 44.97076
250.9888, 45.54852
251.4709, 46.46979
251.9530, 47.82416
252.4351, 49.63892
252.9173, 50.82062
253.3994, 51.00696
253.8815, 51.07422
254.3636, 51.92291
254.8457, 53.93219
255.3278, 55.84009
255.8100, 57.33093
256.2921, 58.36206
256.7742, 59.41357
257.2563, 60.49915
257.7384, 61.72992
258.2205, 63.17126
258.7026, 64.98553
259.1848, 66.58936
259.6669, 67.73047
260.1490, 68.53204
260.6311, 69.95898
261.1132, 72.22162
261.5953, 74.78790
262.0775, 77.25531
262.5596, 79.62427
263.0417, 81.95917
263.5238, 84.24792
264.0059, 86.50354
264.4880, 88.99438
264.9702, 91.93713
265.4523, 94.63281
265.9344, 96.50891
266.4165, 97.27405
266.8986, 98.27686
267.3807, 99.54999
267.8629, 101.1627
268.3450, 103.5581
268.8271, 107.2318
269.3092, 110.5475
269.7913, 112.5177
270.2734, 112.8131
270.7556, 113.3633
271.2377, 114.2350
271.7198, 115.4700
272.2019, 117.3265
272.6840, 120.0711
273.1661, 122.5858
273.6483, 124.2283
274.1304, 124.8653
274.6125, 125.6899
275.0946, 126.7151
275.5767, 127.9019
276.0588, 129.1605
276.5410, 130.4446
277.0231, 131.9183
277.5052, 133.7485
277.9873, 135.9377
278.4694, 137.6249
278.9515, 138.7088
279.4337, 139.4462
279.9158, 140.1669
280.3979, 140.8648
280.8800, 141.5439
281.3621, 142.4012
281.8442, 143.3456
282.3264, 143.2407
282.8085, 141.8973
283.2906, 140.2078
283.7727, 139.1840
284.2548, 138.8428
284.7369, 138.6693
285.2191, 138.6305
285.7012, 138.6991
286.1833, 138.6325
286.6654, 138.4795
287.1475, 137.8760
287.6296, 136.2120
288.1118, 133.6384
288.5939, 131.4082
289.0760, 129.8540
289.5581, 128.7119
290.0402, 127.2888
290.5223, 125.5657
291.0045, 123.9042
291.4866, 122.8073
291.9687, 122.0645
292.4508, 120.5759
292.9329, 117.8263
293.4150, 114.7372
293.8972, 113.0443
294.3793, 112.6178
294.8614, 111.8503
295.3435, 109.1011
295.8256, 105.1799
296.3077, 102.4955
296.7899, 101.6118
297.2720, 101.3635
297.7541, 100.1692
298.2362, 98.23138
298.7183, 96.42792
299.2004, 95.29504
299.6826, 94.62982
300.1647, 94.21094
300.6468, 94.10461
301.1289, 93.59393
301.6110, 91.23108
302.0931, 87.80017
302.5753, 85.30585
303.0574, 85.69739
303.5395, 87.12463
304.0216, 86.92767
304.5037, 85.01300
304.9858, 83.16797
305.4680, 83.36511
305.9501, 84.60626
306.4322, 85.17120
306.9143, 83.65509
307.3964, 81.78680
307.8785, 81.31628
308.3607, 82.11749
308.8428, 82.90533
309.3249, 82.90918
309.8070, 82.37946
310.2891, 81.56604
310.7712, 80.37958
311.2534, 79.18958
311.7355, 78.25531
312.2176, 77.51227
312.6997, 76.79419
313.1818, 75.97815
313.6639, 75.13599
314.1461, 74.34937
314.6282, 73.73212
315.1103, 72.99609
315.5924, 71.93726
316.0745, 70.66534
316.5566, 69.38635
317.0388, 68.41809
317.5209, 67.31024
318.0030, 65.74542
318.4851, 63.59503
318.9672, 61.39795
319.4493, 59.75421
319.9315, 58.08252
320.4136, 55.57849
320.8957, 50.43048
321.3778, 45.88013
321.8599, 43.40680
322.3420, 43.28363
322.8242, 42.80298
323.3063, 41.07489
323.7884, 38.90015
324.2705, 36.97760
324.7526, 35.97632
325.2347, 34.62427
325.7169, 32.44983
326.1990, 29.52655
326.6811, 27.03271
327.1632, 25.18378
327.6453, 23.69232
328.1274, 22.40051
328.6096, 21.20740
329.0917, 20.34027
329.5738, 20.28137
330.0559, 20.61218
330.5380, 19.92126
331.0201, 17.23248
331.5023, 14.58441
331.9844, 12.80164
332.4665, 12.25263
332.9486, 11.71167
333.4307, 11.20502
333.9128, 10.69232
334.3950, 10.12775
334.8771, 9.525452
335.3592, 8.818359
335.8413, 7.890747
336.3234, 6.664124
336.8055, 6.029053
337.2877, 6.335510
337.7698, 6.753723
338.2519, 6.257996
338.7340, 4.574158
339.2161, 3.044495
339.6982, 1.912170
340.1803, 1.169434
340.6624, 0.9879760
341.1446, 1.567627
341.6267, 2.044556
342.1088, 1.484314
342.5909, 0.1658940
343.0730, 0.9907230
343.5551, 0.4475710
344.0373, 0.7307740
344.5194, 0.7340700
345.0015, 0.4909670
345.4836, 1.803162
345.9657, 2.597595
346.4478, 2.917053
346.9300, 2.846863
347.4121, 2.270691
347.8942, 1.740845
348.3763, 2.250610
348.8584, 3.598511
349.3405, 4.631287
349.8227, 4.432007
350.3048, 3.632019
350.7869, 3.756531
351.2690, 4.821960
351.7511, 5.798218
352.2332, 5.498352
352.7154, 4.398804
353.1975, 3.537415
353.6796, 3.358582
354.1617, 3.445313
354.6438, 3.402588
355.1259, 3.243652
355.6081, 3.002441
356.0902, 2.625244
356.5723, 2.227051
357.0544, 1.989319
357.5365, 2.093079
358.0186, 2.057556
358.5008, 1.395874
358.9829, 0.3555910
359.4650, 0.5385740
359.9471, 1.129028
360.4292, 1.439453
360.9113, 1.398010
361.3935, 0.9487920
361.8756, 0.5736080
362.3577, 0.6020510
362.8398, 0.7798460
363.3219, 0.8167720
363.8040, 0.5003660
364.2862, 0.1824950
364.7683, 1.6357001E-02
365.2504, 9.3262002E-02
365.7325, 0.1438600
366.2146, 0.2684940
366.6967, 0.3151250
367.1789, 0.1893310
367.6610, 0.4683840
368.1431, 0.8861690
368.6252, 0.8438110
369.1073, 0.5018920
369.5894, 0.3620000
370.0716, 0.2634890
370.5537, 0.5311890
371.0358, 1.386108
371.5179, 3.177429
372.0000, 4.499817
372.4821, 5.342529
372.9643, 5.704590
373.4464, 5.450867
373.9285, 4.080200
374.4106, 3.146606
374.8927, 3.079041
375.3748, 3.844482
375.8570, 4.629944
376.3391, 5.456482
376.8212, 6.254089
377.3033, 7.000732
377.7854, 7.704163
378.2675, 8.217102
378.7497, 8.438538
379.2318, 8.542969
379.7139, 9.062866
380.1960, 10.03638
380.6781, 10.96612
381.1602, 11.55353
381.6424, 11.84155
382.1245, 12.00769
382.6066, 12.02081
383.0887, 12.12268
383.5708, 12.76007
384.0529, 13.81384
384.5351, 14.72272
385.0172, 15.14227
385.4993, 15.32037
385.9814, 15.65839
386.4635, 16.15076
386.9456, 16.80139
387.4278, 17.66406
387.9099, 18.66028
388.3920, 19.69427
388.8741, 20.77612
389.3562, 21.80145
389.8383, 22.75043
390.3205, 23.58990
390.8026, 24.20459
391.2847, 24.30463
391.7668, 24.29999
392.2489, 24.47711
392.7310, 24.86548
393.2132, 25.46741
393.6953, 26.43372
394.1774, 27.55792
394.6595, 28.59961
395.1416, 29.75879
395.6237, 30.55377
396.1059, 30.43738
396.5880, 29.50610
397.0701, 29.33405
397.5522, 30.92035
398.0343, 32.91876
398.5164, 34.54224
398.9986, 35.72491
399.4807, 36.53876
399.9628, 36.62323
400.4449, 36.34900
400.9270, 36.58099
401.4091, 37.50653
401.8913, 38.89465
402.3734, 40.64276
402.8555, 42.70776
403.3376, 44.98138
403.8197, 47.28796
404.3018, 50.10138
404.7840, 54.41144
405.2661, 61.26007
405.7482, 65.98877
406.2303, 67.04114
406.7124, 65.32849
407.1945, 64.89893
407.6767, 65.89685
408.1588, 67.91754
408.6409, 70.73492
409.1230, 74.25458
409.6051, 78.26050
410.0872, 82.94238
410.5694, 87.95721
411.0515, 92.38281
411.5336, 96.36957
412.0157, 100.9769
412.4978, 106.7328
412.9799, 113.4550
413.4621, 121.0026
413.9442, 129.4426
414.4263, 138.0292
414.9084, 146.0811
415.3905, 153.9352
415.8727, 162.2929
416.3548, 171.3309
416.8369, 181.1312
417.3190, 191.9670
417.8011, 203.5552
418.2832, 215.4540
418.7654, 226.4352
419.2475, 238.2147
419.7296, 252.0124
420.2117, 268.3239
420.6938, 285.1639
421.1759, 301.4888
421.6581, 317.9598
422.1402, 335.5003
422.6223, 354.6723
423.1044, 374.3860
423.5865, 393.7290
424.0686, 412.8770
424.5508, 434.0975
425.0329, 458.9587
425.5150, 484.7391
425.9971, 510.2854
426.4792, 535.9163
426.9613, 560.5656
427.4435, 584.3666
427.9256, 606.9766
428.4077, 628.0775
428.8898, 648.9277
429.3719, 666.0263
429.8540, 678.4001
430.3362, 686.1605
430.8183, 691.5923
431.3004, 695.0527
431.7825, 695.0006
432.2646, 689.8713
432.7467, 679.7098
433.2289, 666.4396
433.7110, 650.1706
434.1931, 631.5508
434.6752, 611.4376
435.1573, 589.9034
435.6394, 567.7943
436.1216, 544.6452
436.6036, 521.2897
437.0858, 499.8473
437.5679, 480.2548
438.0500, 462.4222
438.5321, 446.8486
439.0142, 432.8822
439.4963, 419.3526
439.9785, 405.4230
440.4606, 392.4674
440.9427, 381.6579
441.4248, 372.8043
441.9069, 365.4979
442.3890, 360.5836
442.8712, 356.4246
443.3533, 351.9845
443.8354, 347.0615
444.3175, 342.2774
444.7996, 337.6755
445.2817, 333.5020
445.7639, 329.9747
446.2460, 327.9406
446.7281, 325.4224
447.2102, 322.2510
447.6923, 318.3753
448.1744, 313.4417
448.6566, 306.8654
449.1387, 299.8658
449.6208, 292.9584
450.1029, 285.9430
450.5850, 279.1245
451.0671, 272.9548
451.5493, 266.6619
452.0314, 258.8766
452.5135, 249.2275
452.9956, 240.0105
453.4777, 232.1491
453.9598, 225.2480
454.4420, 217.0609
454.9241, 207.5092
455.4062, 198.0519
455.8883, 190.0942
456.3704, 183.2939
456.8525, 176.1256
457.3347, 168.4728
457.8168, 160.8146
458.2989, 153.8737
458.7810, 147.4623
459.2631, 141.2257
459.7452, 134.8567
460.2274, 128.5388
460.7095, 122.3348
461.1916, 116.2465
461.6737, 110.9340
462.1558, 107.6355
462.6379, 104.8367
463.1201, 100.9397
463.6022, 94.79974
464.0843, 89.26715
464.5664, 86.23785
465.0485, 84.42065
465.5306, 81.74792
466.0128, 76.53711
466.4949, 71.53204
466.9770, 67.65131
467.4591, 64.95251
467.9412, 62.52960
468.4233, 60.62262
468.9055, 58.67419
469.3876, 56.31763
469.8697, 53.26343
470.3518, 50.56122
470.8339, 48.33301
471.3160, 46.38910
471.7982, 44.33173
472.2803, 42.10156
472.7624, 40.03339
473.2445, 38.23450
473.7266, 36.58667
474.2087, 35.24268
474.6909, 34.25153
475.1730, 33.18781
475.6551, 31.45801
476.1372, 29.29004
476.6193, 27.69232
477.1014, 26.88342
477.5836, 26.46790
478.0657, 26.34888
478.5478, 26.28796
479.0299, 25.61926
479.5120, 23.33948
479.9941, 20.76215
480.4763, 19.28113
480.9584, 18.80273
481.4405, 18.26678
481.9226, 16.69476
482.4047, 15.06396
482.8868, 14.28131
483.3690, 15.16803
483.8511, 15.58948
484.3332, 14.58441
484.8153, 12.81366
485.2974, 11.33533
485.7795, 10.40643
486.2617, 9.693054
486.7438, 9.106384
487.2259, 8.649536
487.7080, 8.483032
488.1901, 8.831482
488.6722, 9.182495
489.1544, 9.177734
489.6365, 8.655334
490.1186, 8.511658
490.6007, 9.042175
491.0828, 9.567017
491.5649, 8.706421
492.0471, 6.380127
492.5292, 4.627625
493.0113, 4.340149
493.4934, 4.977356
493.9755, 5.102600
494.4576, 4.727417
494.9398, 4.287048
495.4219, 4.083374
495.9040, 4.030579
496.3861, 4.065796
496.8682, 4.240051
497.3503, 4.157227
497.8325, 3.235962
498.3146, 1.901550
498.7967, 0.7968140
499.2788, 0.1701660
499.7609, 0.1352540
500.2430, 0.1025390
500.7252, 0.7072750
501.2073, 0.8787840
501.6894, 0.1107180
502.1715, 0.9082030
502.6536, 1.987854
503.1357, 3.414124
503.6179, 3.955200
504.1000, 2.985535
504.5821, 1.525269
505.0642, 0.5340580
505.5463, 1.5381000E-02
506.0284, 6.6101000E-02
506.5106, 1.192688
506.9927, 2.857849
507.4748, 3.207092
507.9569, 1.988831
508.4390, 0.7237550
508.9211, 0.2440800
509.4033, 0.4443970
509.8854, 0.4516600
510.3675, 0.2709350
510.8496, 0.1223750
511.3317, 0.6453860
511.8138, 1.403870
512.2960, 2.932678
512.7781, 6.065796
513.2602, 8.552551
513.7423, 7.203491
514.2244, 3.324524
514.7065, 9.3993999E-02
515.1887, 0.5283200
515.6708, 0.3289180
516.1529, 0.3832400
516.6350, 0.7316280
517.1171, 0.9827270
517.5992, 0.9318850
518.0814, 0.7794800
518.5635, 0.6380000
519.0456, 0.3578490
519.5277, 0.3671260
520.0098, 0.9790650
520.4919, 1.765564
520.9741, 2.071838
521.4562, 1.670959
521.9383, 1.255432
522.4204, 1.015015
522.9025, 0.9000850
523.3846, 0.4618530
523.8668, 0.4263310
524.3489, 1.060364
524.8310, 0.7487790
525.3131, 0.3530880
525.7952, 0.8110960
526.2773, 0.5137330
526.7595, 0.1055910
527.2416, 0.7015990
527.7237, 1.231445
528.2058, 1.610474
528.6879, 1.893738
529.1700, 1.906372
529.6522, 1.072021
530.1343, 0.2252810
530.6164, 0.9046630
531.0985, 0.3063960
531.5806, 1.743225
532.0627, 2.356689
532.5449, 2.031250
533.0270, 1.598511
533.5091, 0.9962770
533.9912, 0.5435180
534.4733, 0.4725340
534.9554, 1.030029
535.4376, 1.647766
535.9197, 2.420105
536.4018, 3.189209
536.8839, 3.634155
537.3660, 3.639526
537.8481, 3.617981
538.3303, 3.683350
538.8124, 3.806091
539.2945, 3.775635
539.7766, 3.555725
540.2587, 3.498962
540.7408, 3.992371
541.2230, 4.874817
541.7051, 5.528198
542.1872, 5.909546
542.6693, 6.124939
543.1514, 6.337585
543.6335, 6.460510
544.1157, 6.307068
544.5978, 5.596069
545.0799, 4.921997
545.5620, 4.467957
546.0441, 4.364014
546.5262, 4.930481
547.0084, 6.572632
547.4905, 8.640930
547.9726, 11.45905
548.4547, 15.19086
548.9368, 16.93896
549.4189, 14.19360
549.9011, 11.23401
550.3832, 10.59784
550.8653, 13.60828
551.3474, 15.78247
551.8295, 16.69684
552.3116, 17.15356
552.7938, 18.55835
553.2759, 21.08856
553.7580, 22.76422
554.2401, 22.84064
554.7222, 21.91852
555.2043, 21.34424
555.6865, 21.12213
556.1686, 21.22552
556.6507, 21.64392
557.1328, 22.38672
557.6149, 23.48993
558.0970, 24.96838
558.5792, 26.75067
559.0613, 29.36847
559.5434, 31.98059
560.0255, 33.57080
560.5076, 33.00061
560.9897, 32.92078
561.4719, 34.38715
561.9540, 37.02484
562.4361, 40.04456
562.9182, 43.70288
563.4003, 47.22662
563.8824, 50.40790
564.3646, 53.23126
564.8467, 56.07886
565.3288, 58.88086
565.8109, 62.18176
566.2930, 66.43408
566.7751, 71.61005
567.2573, 76.14838
567.7394, 79.92371
568.2215, 83.83527
568.7036, 88.99072
569.1857, 95.10254
569.6678, 101.4163
570.1500, 107.7910
570.6321, 114.1283
571.1142, 119.6541
571.5963, 124.9894
572.0784, 131.5018
572.5605, 140.4695
573.0427, 150.2489
573.5248, 159.9840
574.0069, 169.6857
574.4890, 180.2315
574.9711, 191.5744
575.4532, 203.9111
575.9354, 217.3718
576.4175, 232.2290
576.8996, 247.1762
577.3817, 262.0115
577.8638, 276.8898
578.3459, 292.3446
578.8281, 308.4796
579.3102, 324.1680
579.7923, 339.4980
580.2744, 353.9405
580.7565, 366.9390
581.2386, 378.3765
581.7208, 385.8975
582.2029, 388.1127
582.6850, 386.1777
583.1671, 381.1432
583.6492, 373.4377
584.1313, 365.6191
584.6134, 358.5987
585.0955, 352.5560
585.5776, 347.1799
586.0598, 342.2595
586.5419, 340.1151
587.0240, 343.3461
587.5061, 348.8240
587.9882, 353.9711
588.4703, 357.9692
588.9525, 362.2122
589.4346, 367.6394
589.9167, 372.8963
590.3988, 375.9482
590.8809, 376.9154
591.3630, 375.3620
591.8452, 371.4133
592.3273, 364.7008
592.8094, 353.4355
593.2915, 337.5129
593.7736, 319.8120
594.2557, 301.3127
594.7379, 282.2508
595.2200, 262.5992
595.7021, 242.6009
596.1842, 223.4849
596.6663, 205.8228
597.1484, 189.7546
597.6306, 175.3154
598.1127, 162.6718
598.5948, 152.2145
599.0769, 145.3481
599.5590, 140.3592
600.0411, 135.1285
600.5233, 127.8540
601.0054, 122.0420
601.4875, 118.4817
601.9696, 116.7415
602.4517, 115.5986
602.9338, 115.1348
603.4160, 115.0739
603.8981, 115.2377
604.3802, 115.6849
604.8623, 117.0057
605.3444, 119.2437
605.8265, 122.0477
606.3087, 126.1880
606.7908, 130.6493
607.2729, 132.2189
607.7550, 130.3832
608.2371, 127.6954
608.7192, 127.2165
609.2014, 127.0577
609.6835, 124.3724
610.1656, 116.8400
610.6477, 109.3062
611.1298, 103.3306
611.6119, 98.88367
612.0941, 95.78442
612.5762, 95.28723
613.0583, 94.76172
613.5404, 93.60797
614.0225, 91.96832
614.5046, 90.63641
614.9868, 90.07159
615.4689, 88.77435
615.9510, 85.71826
616.4331, 81.02600
616.9152, 77.35992
617.3973, 74.88733
617.8795, 72.07251
618.3616, 67.37329
618.8437, 61.35876
619.3258, 55.36578
619.8079, 49.48547
620.2900, 43.90405
620.7722, 38.53558
621.2543, 33.60797
621.7364, 29.52667
622.2185, 27.13550
622.7006, 24.67780
623.1827, 20.91321
623.6649, 16.66895
624.1470, 13.90894
624.6291, 14.13959
625.1112, 14.25171
625.5933, 13.53021
626.0754, 12.09210
626.5576, 10.81622
627.0397, 9.698303
627.5218, 8.726318
628.0039, 7.914734
628.4860, 7.249451
628.9681, 6.644714
629.4503, 6.102539
629.9324, 5.576416
630.4145, 5.150757
630.8966, 4.683594
631.3787, 3.771729
631.8608, 2.169373
632.3430, 0.9456790
632.8251, 1.274963
633.3072, 2.249268
633.7893, 2.753662
634.2714, 1.674805
634.7535, 1.050537
635.2357, 1.661377
635.7178, 2.965332
636.1999, 3.703430
636.6820, 3.466919
637.1641, 3.389832
637.6462, 3.797302
638.1284, 4.583740
638.6105, 5.305359
639.0926, 5.996338
639.5747, 6.267944
640.0568, 5.683838
640.5389, 4.507446
641.0211, 3.462402
641.5032, 2.565063
641.9853, 1.831604
642.4674, 1.325134
642.9495, 0.9819340
643.4316, 0.7984620
643.9138, 0.8616940
644.3959, 0.7464600
644.8780, 3.2898001E-02
645.3601, 0.9202270
645.8422, 1.354553
646.3243, 0.7503050
646.8065, 0.3532710
647.2886, 0.2307130
647.7707, 0.3082890
648.2528, 0.5178830
648.7349, 0.9468990
649.2170, 1.082581
649.6992, 0.6026610
650.1813, 7.9406999E-02
650.6634, 0.4240110
651.1455, 1.961792
651.6276, 3.001831
652.1097, 2.140930
652.5919, 0.6187130
653.0740, 0.1477660
653.5561, 0.6325680
654.0382, 1.057495
654.5203, 0.7379150
655.0024, 0.2662960
655.4846, 7.2815001E-02
655.9667, 0.3027340
656.4488, 0.3609620
656.9309, 5.6334998E-02
657.4130, 0.4862060
657.8951, 0.5669560
658.3773, 3.0944999E-02
658.8594, 1.9592000E-02
659.3415, 0.6225590
659.8236, 1.438416
660.3057, 1.730652
660.7878, 1.531128
661.2700, 1.161377
661.7521, 0.5802000
662.2342, 0.1198730
662.7163, 0.4042970
663.1984, 1.174011
663.6805, 1.772461
664.1627, 1.410583
664.6448, 1.250427
665.1269, 2.624207
665.6090, 4.932739
666.0911, 5.855103
666.5732, 3.192505
667.0554, 0.7508540
667.5375, 0.2180180
668.0196, 0.2720340
668.5017, 1.063782
668.9838, 2.327026
669.4659, 3.486572
669.9481, 4.257324
670.4302, 4.624451
670.9123, 4.456665
671.3944, 3.704041
671.8765, 2.848694
672.3586, 2.211548
672.8408, 1.818909
673.3229, 1.830322
673.8050, 2.389526
674.2871, 2.778564
674.7692, 2.126587
675.2513, 1.225525
675.7335, 0.9552610
676.2156, 2.062073
676.6977, 3.165100
677.1798, 4.305725
677.6619, 5.285156
678.1440, 5.735535
678.6262, 5.390442
679.1083, 5.235718
679.5904, 5.447327
680.0725, 5.983643
680.5546, 6.963257
681.0367, 8.345886
681.5189, 9.336487
682.0010, 9.266052
682.4831, 8.778381
682.9652, 8.642822
683.4473, 8.900818
683.9294, 9.774414
684.4116, 11.99878
684.8937, 14.36481
685.3758, 16.20172
685.8579, 17.44330
686.3400, 18.31427
686.8221, 18.44940
687.3043, 18.57855
687.7864, 19.05426
688.2685, 19.95874
688.7506, 20.79962
689.2327, 21.62231
689.7148, 22.31750
690.1970, 22.89386
690.6791, 23.30859
691.1612, 23.16962
691.6433, 22.40491
692.1254, 21.26514
692.6075, 19.58618
693.0897, 17.80652
693.5718, 16.69049
694.0539, 16.92346
694.5360, 16.98315
695.0181, 15.92700
695.5002, 14.35791
695.9824, 13.17419
696.4645, 12.58807
696.9466, 12.28204
697.4287, 12.48895
697.9108, 12.86664
698.3929, 12.39496
698.8751, 10.87305
699.3572, 9.673096
699.8393, 9.211731
700.3214, 9.337158
700.8035, 10.12451
701.2856, 11.43097
701.7678, 12.39459
702.2499, 12.33124
702.7320, 11.80304
703.2141, 11.04474
703.6962, 10.17200
704.1783, 9.812561
704.6605, 10.76245
705.1426, 11.72186
705.6247, 11.80493
706.1068, 10.78802
706.5889, 10.82147
707.0710, 12.52216
707.5532, 14.28802
708.0353, 14.94598
708.5174, 14.42310
708.9995, 14.41162
709.4816, 15.06726
709.9637, 15.76672
710.4459, 15.63660
710.9280, 15.09607
711.4101, 14.96429
711.8922, 15.42554
712.3743, 16.24652
712.8564, 17.95648
713.3386, 19.61304
713.8207, 20.19952
714.3028, 18.16956
714.7849, 17.07684
715.2670, 17.67102
715.7491, 18.94110
716.2313, 19.66895
716.7134, 19.82214
717.1955, 19.43561
717.6776, 18.31079
718.1597, 16.90173
718.6418, 15.99939
719.1240, 15.55566
719.6061, 15.40778
720.0882, 15.79437
720.5703, 16.06415
721.0524, 15.24335
721.5345, 13.77759
722.0167, 12.74310
722.4988, 13.57043
722.9809, 13.88068
723.4630, 12.31543
723.9451, 9.354919
724.4272, 7.451111
724.9094, 7.111084
725.3915, 6.883789
725.8736, 6.332214
726.3557, 5.547607
726.8378, 4.911377
727.3199, 4.397827
727.8021, 4.314392
728.2842, 5.330933
728.7663, 6.758057
729.2484, 7.384705
729.7305, 7.239868
730.2126, 7.088928
730.6948, 7.160767
731.1769, 7.383667
731.6590, 7.919678
732.1411, 8.931885
732.6232, 9.167175
733.1053, 8.094727
733.5875, 6.765137
734.0696, 5.786072
734.5517, 5.188354
735.0338, 4.634766
735.5159, 4.105957
735.9980, 3.728638
736.4802, 3.584473
736.9623, 3.709473
737.4444, 4.345276
737.9265, 5.626770
738.4086, 6.646057
738.8907, 6.605591
739.3729, 5.988403
739.8550, 5.300964
740.3371, 4.654663
740.8192, 3.914429
741.3013, 2.590515
741.7834, 1.445251
742.2656, 1.414734
742.7477, 3.093201
743.2298, 3.661499
743.7119, 2.511475
744.1940, 0.8157350
744.6761, 0.2536010
745.1583, 0.6898800
745.6404, 1.640991
746.1225, 3.378418
746.6046, 4.652039
747.0867, 3.636414
747.5688, 1.437744
748.0510, 4.7424000E-02
748.5331, 0.4575200
749.0152, 1.022705
749.4973, 1.278625
749.9794, 1.234863
750.4615, 0.8309940
750.9437, 0.2173460
751.4258, 0.8719480
751.9079, 0.7955930
752.3900, 0.2933960
752.8721, 0.1588750
753.3542, 0.3505860
753.8364, 0.4067990
754.3185, 1.4465000E-02
754.8006, 0.4791260
755.2827, 0.6902470
755.7648, 0.6591800
756.2469, 0.4954830
756.7291, 0.2409670
757.2112, 0.6118160
757.6933, 0.1124270
758.1754, 1.651550
758.6575, 2.367432
759.1396, 1.803589
759.6218, 1.297974
760.1039, 1.296204
760.5860, 1.715759
761.0681, 2.406067
761.5502, 3.346252
762.0323, 3.824463
762.5145, 2.825806
762.9966, 1.485718
763.4787, 1.590454
763.9608, 2.907288
764.4429, 3.874084
764.9250, 3.444031
765.4072, 2.744629
765.8893, 2.143188
766.3714, 1.664124
766.8535, 2.148560
767.3356, 4.442261
767.8177, 6.161438
768.2999, 5.767395
768.7820, 3.540405
769.2641, 2.547729
769.7462, 2.814453
770.2283, 3.204468
770.7104, 2.520508
771.1926, 1.613464
771.6747, 1.904297
772.1568, 3.422546
772.6389, 4.705444
773.1210, 5.189209
773.6031, 5.113586
774.0853, 4.413757
774.5674, 2.903931
775.0495, 2.126038
775.5316, 2.478577
776.0137, 2.914429
776.4958, 2.681824
776.9780, 1.836487
777.4601, 1.243530
777.9422, 0.9228520
778.4243, 0.7871700
778.9064, 0.9506230
779.3885, 1.164612
779.8707, 1.013855
780.3528, 0.4124150
780.8349, 3.6621001E-02
781.3170, 0.1097410
781.7991, 9.5886000E-02
782.2812, 0.6544800
782.7633, 1.892029
783.2454, 2.163879
783.7275, 1.005249
784.2097, 0.2525020
784.6918, 0.4530640
785.1739, 0.3050540
785.6560, 1.254700
786.1381, 2.423645
786.6202, 2.996460
787.1024, 1.507935
787.5845, 0.6711430
788.0666, 1.757751
788.5487, 1.327759
789.0308, 0.5507200
789.5129, 0.5321660
789.9951, 1.627136
790.4772, 2.440063
790.9593, 2.821716
791.4414, 3.119995
791.9235, 3.218079
792.4056, 3.371582
792.8878, 3.891174
793.3699, 4.697693
793.8520, 5.495605
794.3341, 6.292542
794.8162, 6.945557
795.2983, 7.287415
795.7805, 7.455261
796.2626, 7.577026
796.7447, 7.609619
797.2268, 7.833740
797.7089, 8.890259
798.1910, 9.765442
798.6732, 9.566040
799.1553, 7.825134
799.6374, 6.796326
800.1195, 6.577759
800.6016, 6.963196
801.0837, 8.129333
801.5659, 9.720215
802.0480, 10.56891
802.5301, 10.44336
803.0122, 10.09814
803.4943, 9.745239
803.9764, 9.633057
804.4586, 10.08905
804.9407, 11.60229
805.4228, 12.56598
805.9049, 12.67828
806.3870, 12.38812
806.8691, 11.95068
807.3513, 11.31299
807.8334, 10.93726
808.3155, 10.85315
808.7976, 10.94330
809.2797, 11.28577
809.7618, 11.68842
810.2440, 11.74066
810.7261, 11.35706
811.2082, 10.56458
811.6903, 8.551025
812.1724, 6.677795
812.6545, 6.262268
813.1367, 8.331665
813.6188, 9.537659
814.1009, 9.805054
814.5830, 9.306396
815.0651, 7.731934
815.5472, 5.280029
816.0294, 4.337585
816.5115, 5.184814
816.9936, 6.246155
817.4757, 5.973083
817.9578, 5.203613
818.4399, 4.960449
818.9221, 5.525696
819.4042, 5.808228
819.8863, 4.740234
820.3684, 3.721069
820.8505, 3.859558
821.3326, 5.549561
821.8148, 6.987122
822.2969, 8.266846
822.7790, 9.145569
823.2611, 9.210510
823.7432, 8.667542
824.2253, 8.186157
824.7075, 7.831116
825.1896, 7.619141
825.6717, 7.317566
826.1538, 7.154480
826.6359, 7.603027
827.1180, 8.980469
827.6002, 9.507874
828.0823, 8.540405
828.5644, 7.357178
829.0465, 6.740234
829.5286, 6.725098
830.0107, 6.204712
830.4929, 5.137207
830.9750, 4.290466
831.4571, 4.675415
831.9392, 5.513123
832.4213, 5.390137
832.9034, 4.280090
833.3856, 3.599792
833.8677, 4.625488
834.3498, 5.756226
834.8319, 5.961670
835.3140, 5.183655
835.7961, 4.757080
836.2783, 4.709351
836.7604, 4.783569
837.2425, 4.904907
837.7246, 5.044617
838.2067, 5.165161
838.6888, 5.243286
839.1710, 5.106018
839.6531, 4.480347
840.1352, 3.719849
840.6173, 2.942688
841.0994, 2.194580
841.5815, 1.959167
842.0637, 2.773132
842.5458, 3.548767
843.0279, 4.019104
843.5100, 4.192932
843.9921, 4.260315
844.4742, 4.216125
844.9564, 4.063171
845.4385, 3.923950
845.9206, 3.522034
846.4027, 2.347046
846.8848, 0.6508180
847.3669, 0.8188480
847.8491, 2.034119
848.3312, 2.676392
848.8133, 2.265320
849.2954, 1.149414
849.7775, 0.5304570
850.2596, 0.6293330
850.7418, 0.4738770
851.2239, 0.2960820
851.7060, 1.346436
852.1881, 1.908203
852.6702, 2.085876
853.1523, 2.291748
853.6345, 2.721008
854.1166, 3.162598
854.5987, 3.332581
855.0808, 3.411133
855.5629, 3.782349
856.0450, 4.990662
856.5272, 5.753845
857.0093, 5.856323
857.4914, 5.547607
857.9735, 5.133118
858.4556, 4.645081
858.9377, 4.494446
859.4199, 4.894043
859.9020, 5.337708
860.3841, 5.039307
860.8662, 4.521973
861.3483, 4.611328
861.8304, 6.112976
862.3126, 7.166260
862.7947, 6.459900
863.2768, 5.681702
863.7589, 6.571838
864.2410, 9.643433
864.7231, 11.44635
865.2053, 11.58820
865.6874, 11.17822
866.1695, 11.44910
866.6516, 12.03455
867.1337, 12.27014
867.6158, 12.05841
868.0980, 11.38989
868.5801, 9.711609
869.0622, 7.966003
869.5443, 7.047241
870.0264, 7.302673
870.5085, 6.709473
870.9907, 4.985229
871.4728, 3.232117
871.9549, 2.205200
872.4370, 1.838318
872.9191, 2.161621
873.4012, 3.108521
873.8834, 3.497192
874.3655, 1.895386
874.8476, 8.7035999E-02
875.3297, 1.362610
875.8118, 1.867859
876.2939, 1.987061
876.7761, 1.826111
877.2582, 1.205566
877.7403, 0.2949220
878.2224, 2.257202
878.7045, 2.307556
879.1866, 0.5966800
879.6688, 0.9552610
880.1509, 1.256104
880.6330, 0.9670410
881.1151, 0.4765630
881.5972, 8.3740003E-02
882.0793, 0.3215940
882.5615, 0.4926150
883.0436, 0.8282470
883.5257, 3.3386000E-02
884.0078, 1.245911
884.4899, 1.412720
884.9720, 0.3992920
885.4542, 0.3555300
885.9363, 0.4984130
886.4184, 0.1867680
886.9005, 0.5109860
887.3826, 1.475037
887.8647, 2.492249
888.3469, 3.510193
888.8290, 4.548157
889.3111, 6.261597
889.7932, 7.567566
890.2753, 7.181152
890.7574, 4.561829
891.2396, 2.654053
891.7217, 1.698181
892.2038, 1.177917
892.6859, 0.4105220
893.1680, 0.2949220
893.6501, 0.1400150
894.1323, 1.076599
894.6144, 2.087280
895.0965, 2.076843
895.5786, 1.780640
896.0607, 1.616699
896.5428, 1.551208
897.0250, 2.236450
897.5071, 3.937744
897.9892, 5.528870
898.4713, 6.171631
898.9534, 6.182373
899.4355, 6.365417
899.9177, 6.768494
900.3998, 7.591492
900.8819, 9.857483
901.3640, 11.66949
901.8461, 11.39673
902.3282, 9.433472
902.8104, 8.721558
903.2925, 10.15204
903.7746, 10.60870
904.2567, 8.775757
904.7388, 5.817200
905.2209, 4.667480
905.7031, 4.886353
906.1852, 4.671753
906.6673, 3.099304
907.1494, 1.464722
907.6315, 0.4225460
908.1136, 0.1494140
908.5958, 0.3440550
909.0779, 0.1394650
909.5600, 0.5879520
910.0421, 2.172791
910.5242, 3.681519
911.0063, 3.807312
911.4885, 2.788208
911.9706, 1.687561
912.4527, 0.5899660
912.9348, 2.7404999E-02
913.4169, 0.7932130
913.8990, 2.038452
914.3812, 3.010010
914.8633, 3.534485
915.3454, 4.022949
915.8275, 4.358154
916.3096, 4.856262
916.7917, 5.803284
917.2739, 7.091675
917.7560, 8.101013
918.2381, 8.826111
918.7202, 9.309753
919.2023, 9.613647
919.6844, 9.648621
920.1666, 9.080322
920.6487, 8.099609
921.1308, 7.712402
921.6129, 8.385559
922.0950, 9.130371
922.5771, 9.770508
923.0593, 10.31091
923.5414, 10.74316
924.0235, 11.07446
924.5056, 11.31470
924.9877, 11.43427
925.4698, 11.55426
925.9520, 11.65350
926.4341, 11.87305
926.9162, 12.40100
927.3983, 13.20178
927.8804, 14.45227
928.3625, 16.09979
928.8447, 18.23425
929.3268, 21.25891
929.8089, 24.96570
930.2910, 28.07263
930.7731, 30.49921
931.2552, 32.05841
931.7374, 31.62939
932.2195, 31.02057
932.7016, 31.86951
933.1837, 34.40613
933.6658, 36.94629
934.1479, 39.25128
934.6301, 41.82135
935.1122, 44.96887
935.5943, 48.60864
936.0764, 51.83142
936.5585, 54.76251
937.0406, 58.29077
937.5228, 62.94507
938.0049, 68.41150
938.4870, 74.66406
938.9691, 81.47479
939.4512, 88.32367
939.9333, 94.89856
940.4155, 101.9454
940.8976, 109.3151
941.3797, 117.7789
941.8618, 128.2648
942.3439, 140.4888
942.8260, 153.5376
943.3082, 167.5026
943.7903, 182.4933
944.2724, 197.7455
944.7545, 214.5615
945.2366, 234.3837
945.7188, 257.9210
946.2009, 282.5631
946.6830, 307.9168
947.1651, 335.6162
947.6472, 366.3843
948.1293, 400.2062
948.6115, 437.6697
949.0936, 478.7280
949.5757, 524.1423
950.0578, 572.5832
950.5399, 626.5911
951.0220, 687.3366
951.5042, 755.1866
951.9863, 829.6306
952.4684, 910.2324
952.9505, 998.0681
953.4326, 1093.744
953.9147, 1196.515
954.3969, 1306.854
954.8790, 1424.691
955.3611, 1549.619
955.8432, 1678.508
956.3253, 1819.212
956.8074, 1976.702
957.2896, 2147.396
957.7717, 2328.997
958.2538, 2520.107
958.7359, 2725.302
959.2180, 2942.455
959.7001, 3174.635
960.1823, 3429.095
960.6644, 3700.000
961.1465, 3971.412
961.6286, 4243.464
962.1107, 4506.811
962.5928, 4774.228
963.0750, 5013.361
963.5571, 5221.217
964.0392, 5393.243
964.5213, 5509.906
965.0034, 5573.996
965.4855, 5559.109
965.9677, 5455.824
966.4498, 5273.804
966.9319, 5008.443
967.4140, 4679.647
967.8961, 4325.633
968.3782, 3936.062
968.8604, 3554.239
969.3425, 3171.292
969.8246, 2807.610
970.3067, 2474.202
970.7888, 2173.619
971.2709, 1900.897
971.7531, 1657.208
972.2352, 1439.931
972.7173, 1251.409
973.1994, 1084.779
973.6815, 936.9057
974.1636, 807.6935
974.6458, 693.9072
975.1279, 597.6033
975.6100, 514.0332
976.0921, 443.2274
976.5742, 383.5507
977.0563, 331.3400
977.5385, 286.0734
978.0206, 247.4541
978.5027, 216.3187
978.9848, 189.7325
979.4669, 166.2226
979.9490, 145.6198
980.4311, 127.9103
980.9132, 113.7070
981.3953, 100.8010
981.8774, 89.23444
982.3596, 78.93494
982.8417, 70.41919
983.3238, 63.14355
983.8059, 55.33997
984.2880, 47.02325
984.7701, 39.89709
985.2523, 35.30548
985.7344, 31.78821
986.2165, 28.90259
986.6986, 26.46082
987.1807, 23.90338
987.6628, 21.23877
988.1450, 18.50525
988.6271, 15.70886
989.1092, 12.87128
989.5913, 9.879028
990.0734, 6.912231
990.5555, 4.255127
991.0377, 1.850159
991.5198, 0.1586300
992.0019, 0.2617190
992.4840, 0.3203130
992.9661, 0.6821900
993.4482, 1.360596
993.9304, 1.729553
994.4125, 1.772644
994.8946, 1.971497
995.3767, 3.122498
995.8588, 4.251892
996.3409, 4.253723
996.8231, 3.306274
997.3052, 2.697876
997.7873, 2.537354
998.2694, 2.993347
998.7515, 4.589417
999.2336, 6.212769
999.7158, 4.892029
1000.198, 1.534058
1000.680, 0.4064330
1001.162, 0.2950440
1001.644, 1.530029
1002.126, 2.578735
1002.608, 3.126221
1003.091, 2.768188
1003.573, 1.350647
1004.055, 7.5745001E-02
1004.537, 1.627686
1005.019, 2.715942
1005.501, 2.542908
1005.983, 1.870117
1006.465, 2.190186
1006.948, 3.244507
1007.430, 4.015198
1007.912, 3.398804
1008.394, 3.334778
1008.876, 4.571350
1009.358, 6.433350
1009.840, 7.844971
1010.322, 8.806091
1010.804, 9.130615
1011.287, 8.651978
1011.769, 8.370178
1012.251, 9.446655
1012.733, 11.05811
1013.215, 12.39252
1013.697, 13.28662
1014.179, 14.24304
1014.661, 15.34027
1015.143, 16.35760
1015.626, 17.15173
1016.108, 17.79468
1016.590, 18.39386
1017.072, 19.01294
1017.554, 19.90564
1018.036, 20.97821
1018.518, 22.59320
1019.000, 25.27924
1019.483, 28.40912
1019.965, 30.97778
1020.447, 32.71167
1020.929, 35.56384
1021.411, 39.78076
1021.893, 44.42694
1022.375, 48.70740
1022.857, 52.82159
1023.339, 57.09534
1023.822, 61.53497
1024.304, 65.65900
1024.786, 68.59064
1025.268, 72.25238
1025.750, 77.28845
1026.232, 83.33539
1026.714, 89.12885
1027.196, 94.90161
1027.679, 102.0460
1028.161, 111.7387
1028.643, 121.0580
1029.125, 127.6374
1029.607, 133.1728
1030.089, 139.4854
1030.571, 146.7844
1031.053, 154.3508
1031.536, 162.2799
1032.018, 170.2608
1032.500, 178.2060
1032.982, 185.9745
1033.464, 193.1732
1033.946, 199.8712
1034.428, 206.6735
1034.910, 214.2588
1035.392, 221.4133
1035.875, 228.0320
1036.357, 234.0068
1036.839, 238.8439
1037.321, 242.6919
1037.803, 246.4413
1038.285, 250.2728
1038.767, 254.0874
1039.249, 257.8440
1039.731, 261.5188
1040.214, 265.2137
1040.696, 268.9217
1041.178, 272.0929
1041.660, 274.6992
1042.142, 276.8057
1042.624, 278.6791
1043.106, 279.8185
1043.588, 278.8091
1044.071, 276.4657
1044.553, 274.6215
1045.035, 273.5753
1045.517, 273.6721
1045.999, 275.8871
1046.481, 278.2739
1046.963, 278.2770
1047.445, 276.2140
1047.927, 277.5692
1048.410, 282.4762
1048.892, 288.5483
1049.374, 295.0631
1049.856, 301.2438
1050.338, 306.2833
1050.820, 310.4232
1051.302, 314.6554
1051.784, 318.9589
1052.266, 323.8595
1052.749, 330.0262
1053.231, 335.1620
1053.713, 336.3634
1054.195, 334.3557
1054.677, 329.9222
1055.159, 322.8346
1055.641, 315.4133
1056.123, 307.8815
1056.606, 300.5039
1057.088, 293.4244
1057.570, 286.7507
1058.052, 280.1040
1058.534, 273.6133
1059.016, 268.4981
1059.498, 265.4770
1059.980, 263.8073
1060.463, 263.0161
1060.945, 263.4355
1061.427, 265.5078
1061.909, 269.3931
1062.391, 273.9307
1062.873, 278.9542
1063.355, 285.1309
1063.837, 293.0826
1064.319, 302.5613
1064.802, 313.1382
1065.284, 324.6514
1065.766, 337.3348
1066.248, 350.4418
1066.730, 366.3821
1067.212, 386.0475
1067.694, 408.1682
1068.176, 430.6389
1068.658, 453.8050
1069.141, 478.3278
1069.623, 504.3547
1070.105, 529.8445
1070.587, 556.5803
1071.069, 579.7558
1071.551, 596.6213
1072.033, 607.3388
1072.515, 615.2513
1072.998, 620.3221
1073.480, 619.0156
1073.962, 608.2958
1074.444, 592.6929
1074.926, 576.9886
1075.408, 559.8457
1075.890, 539.1583
1076.372, 511.9099
1076.854, 485.7991
1077.337, 461.1313
1077.819, 437.1793
1078.301, 413.3451
1078.783, 389.9677
1079.265, 369.2849
1079.747, 350.6605
1080.229, 330.6963
1080.711, 305.6906
1081.193, 281.9271
1081.676, 261.1510
1082.158, 242.2863
1082.640, 223.8016
1083.122, 205.8139
1083.604, 189.6005
1084.086, 175.2556
1084.568, 161.9218
1085.050, 149.2054
1085.532, 137.2325
1086.015, 126.1809
1086.497, 116.0641
1086.979, 106.5180
1087.461, 97.36420
1087.943, 89.53333
1088.425, 83.60815
1088.907, 78.29700
1089.389, 71.84216
1089.872, 65.03839
1090.354, 59.02826
1090.836, 54.28009
1091.318, 49.70947
1091.800, 44.86591
1092.282, 40.82178
1092.764, 38.55695
1093.246, 37.47705
1093.729, 35.91034
1094.211, 33.93964
1094.693, 31.96637
1095.175, 30.29694
1095.657, 28.37585
1096.139, 25.56256
1096.621, 22.84235
1097.103, 21.67230
1097.585, 21.93341
1098.068, 20.31805
1098.550, 16.70691
1099.032, 14.00525
1099.514, 15.46594
1099.996, 17.47510
1100.478, 17.75562
1100.960, 16.51556
1101.442, 14.75031
1101.924, 12.18707
1102.407, 10.77838
1102.889, 11.07336
1103.371, 11.75067
1103.853, 11.10071
1104.335, 10.09357
1104.817, 9.953247
1105.299, 10.92480
1105.781, 11.74609
1106.264, 12.56586
1106.746, 12.54364
1107.228, 10.97809
1107.710, 8.867188
1108.192, 8.228271
1108.674, 8.643127
1109.156, 9.187378
1109.638, 9.669067
1110.120, 10.06805
1110.603, 10.65582
1111.085, 10.83588
1111.567, 10.04828
1112.049, 8.480042
1112.531, 7.331665
1113.013, 6.595764
1113.495, 6.100464
1113.977, 5.949402
1114.459, 5.800903
1114.942, 5.581665
1115.424, 5.227722
1115.906, 4.681030
1116.388, 3.949219
1116.870, 2.780029
1117.352, 1.128418
1117.834, 6.1767999E-02
1118.316, 0.3116460
1118.799, 1.151489
1119.281, 1.686401
1119.763, 1.889404
1120.245, 1.874146
1120.727, 1.689880
1121.209, 1.000488
1121.691, 0.4638060
1122.173, 1.689209
1122.656, 0.8652340
1123.138, 0.6120610
1123.620, 0.5409550
1124.102, 1.397583
1124.584, 2.120178
1125.066, 0.4514770
1125.548, 0.6162720
1126.030, 0.1474610
1126.512, 1.596375
1126.995, 1.139099
1127.477, 0.4061890
1127.959, 1.071594
1128.441, 0.1788940
1128.923, 0.7901000
1129.405, 1.638245
1129.887, 2.127136
1130.369, 2.026855
1130.851, 1.472046
1131.334, 1.033325
1131.816, 0.7384640
1132.298, 0.7114870
1132.780, 1.494629
1133.262, 1.802551
1133.744, 0.4318850
1134.226, 1.223389
1134.708, 1.719788
1135.191, 0.9350590
1135.673, 1.165771
1136.155, 2.372925
1136.637, 3.245483
1137.119, 2.486633
1137.601, 1.584839
1138.083, 1.988953
1138.565, 2.882507
1139.047, 2.494080
1139.530, 0.5408940
1140.012, 1.314758
1140.494, 2.999451
1140.976, 3.820801
1141.458, 2.542786
1141.940, 0.5113530
1142.422, 1.388489
1142.904, 2.855835
1143.386, 2.656189
1143.869, 3.7781000E-02
1144.351, 2.028748
1144.833, 2.818542
1145.315, 2.536499
1145.797, 0.5110470
1146.279, 2.125854
1146.761, 3.651611
1147.243, 3.901917
1147.726, 3.582520
1148.208, 2.134155
1148.690, 1.586426
1149.172, 2.928833
1149.654, 4.968079
1150.136, 5.402893
1150.618, 4.797180
1151.100, 4.190735
1151.583, 3.742432
1152.065, 3.651550
1152.547, 4.056519
1153.029, 4.713257
1153.511, 5.677734
1153.993, 6.701111
1154.475, 6.832031
1154.957, 6.375549
1155.439, 6.393555
1155.922, 7.691162
1156.404, 8.644714
1156.886, 8.374207
1157.368, 7.843994
1157.850, 7.677551
1158.332, 7.830078
1158.814, 7.692566
1159.296, 7.354309
1159.778, 7.379456
1160.261, 8.742798
1160.743, 9.739868
1161.225, 8.936218
1161.707, 7.754517
1162.189, 7.856323
1162.671, 9.279175
1163.153, 9.482483
1163.635, 8.454834
1164.118, 7.972961
1164.600, 10.37262
1165.082, 12.53772
1165.564, 12.14630
1166.046, 10.26630
1166.528, 8.831970
1167.010, 7.824158
1167.492, 7.688538
1167.974, 8.523254
1168.457, 9.349060
1168.939, 9.566528
1169.421, 9.270630
1169.903, 8.004028
1170.385, 6.251770
1170.867, 6.154602
1171.349, 8.170593
1171.831, 8.935913
1172.313, 7.722656
1172.796, 6.099426
1173.278, 5.489868
1173.760, 5.402771
1174.242, 5.448853
1174.724, 5.593079
1175.206, 5.760498
1175.688, 5.966125
1176.170, 6.154846
1176.653, 6.356140
1177.135, 6.376038
1177.617, 5.653625
1178.099, 4.781372
1178.581, 4.449341
1179.063, 4.787415
1179.545, 5.645996
1180.027, 7.166687
1180.510, 8.591675
1180.992, 9.700867
1181.474, 10.27576
1181.956, 9.539490
1182.438, 8.250671
1182.920, 7.658447
1183.402, 8.002686
1183.884, 8.716919
1184.366, 9.945618
1184.849, 10.91925
1185.331, 11.27942
1185.813, 11.11652
1186.295, 10.72302
1186.777, 9.975403
1187.259, 8.635498
1187.741, 6.003052
1188.223, 4.483093
1188.705, 4.488403
1189.188, 4.960754
1189.670, 5.394592
1190.152, 5.663025
1190.634, 5.257324
1191.116, 4.499756
1191.598, 4.209229
1192.080, 5.031677
1192.562, 5.581848
1193.045, 5.794128
1193.527, 5.663452
1194.009, 4.846191
1194.491, 3.796509
1194.973, 3.698914
1195.455, 4.348816
1195.937, 5.061035
1196.419, 6.356079
1196.901, 6.302124
1197.384, 3.924622
1197.866, 1.509521
1198.348, 1.740295
1198.830, 3.632324
1199.312, 4.856567
1199.794, 5.332581
1200.276, 5.286438
1200.758, 4.003906
1201.240, 3.444580
1201.723, 4.194641
1202.205, 4.823364
1202.687, 3.079041
1203.169, 0.1814580
1203.651, 0.6997070
1204.133, 0.4185790
1204.615, 1.360107
1205.097, 0.5348510
1205.580, 0.5851440
1206.062, 2.510620
1206.544, 4.685303
1207.026, 4.014893
1207.508, 1.719116
1207.990, 0.7418210
1208.472, 1.325562
1208.954, 2.138367
1209.437, 3.247009
1209.919, 3.632629
1210.401, 2.667419
1210.883, 1.489197
1211.365, 2.457764
1211.847, 4.614136
1212.329, 5.425537
1212.811, 4.497192
1213.293, 4.428223
1213.776, 7.405151
1214.258, 9.543274
1214.740, 9.596069
1215.222, 8.585327
1215.704, 8.131104
1216.186, 8.255981
1216.668, 9.276123
1217.150, 11.37390
1217.632, 12.74847
1218.115, 12.43256
1218.597, 12.03687
1219.079, 12.09399
1219.561, 12.33789
1220.043, 11.90009
1220.525, 11.30621
1221.007, 12.11353
1221.489, 15.13025
1221.972, 16.30865
1222.454, 13.45392
1222.936, 11.13916
1223.418, 11.38293
1223.900, 12.83569
1224.382, 12.64520
1224.864, 11.42230
1225.346, 10.38763
1225.828, 9.793213
1226.311, 9.590088
1226.793, 9.976501
1227.275, 10.26886
1227.757, 10.14630
1228.239, 9.761780
1228.721, 9.314636
1229.203, 8.878235
1229.685, 8.609680
1230.167, 8.606750
1230.650, 8.628418
1231.132, 8.729431
1231.614, 8.662598
1232.096, 8.227478
1232.578, 7.624634
1233.060, 7.034485
1233.542, 6.653198
1234.024, 6.862183
1234.507, 8.465515
1234.989, 8.662842
1235.471, 6.821167
1235.953, 5.220825
1236.435, 5.362671
1236.917, 6.318909
1237.399, 6.917847
1237.881, 7.069275
1238.364, 6.522827
1238.846, 4.661804
1239.328, 3.530945
1239.810, 3.238281
1240.292, 3.317993
1240.774, 3.548157
1241.256, 3.948303
1241.738, 4.818237
1242.220, 5.797852
1242.703, 6.222229
1243.185, 5.850342
1243.667, 5.272522
1244.149, 4.423706
1244.631, 3.708435
1245.113, 3.594788
1245.595, 3.542664
1246.077, 2.275574
1246.559, 0.8827510
1247.042, 1.560120
1247.524, 5.358521
1248.006, 7.408691
1248.488, 7.664185
1248.970, 6.844910
1249.452, 4.574585
1249.934, 2.315796
1250.416, 1.317017
1250.899, 1.180847
1251.381, 1.447510
1251.863, 2.333374
1252.345, 2.265747
1252.827, 1.246094
1253.309, 0.2973630
1253.791, 8.2703002E-02
1254.273, 3.8208000E-02
1254.755, 0.4585570
1255.238, 0.9667970
1255.720, 0.5645750
1256.202, 0.8605350
1256.684, 1.172791
1257.166, 0.4383540
1257.648, 0.1883540
1258.130, 0.4954220
1258.612, 0.8287350
1259.094, 0.8283690
1259.577, 2.732727
1260.059, 2.891785
1260.541, 1.468628
1261.023, 0.3247680
1261.505, 0.4511110
1261.987, 0.6837770
1262.469, 0.5236820
1262.951, 1.220520
1263.434, 0.1244510
1263.916, 1.001282
1264.398, 0.1381230
1264.880, 2.774109
1265.362, 3.213257
1265.844, 1.730164
1266.326, 0.4057620
1266.808, 0.2340090
1267.291, 0.2089230
1267.773, 7.9712003E-02
1268.255, 0.1274410
1268.737, 0.7336430
1269.219, 1.707520
1269.701, 2.872742
1270.183, 4.026367
1270.665, 4.444458
1271.147, 3.013123
1271.630, 2.309265
1272.112, 2.762207
1272.594, 3.283020
1273.076, 2.658752
1273.558, 1.571899
1274.040, 0.9219360
1274.522, 0.7282100
1275.004, 1.014343
1275.486, 2.175659
1275.969, 2.640320
1276.451, 2.198792
1276.933, 1.565613
1277.415, 1.278809
1277.897, 1.176636
1278.379, 0.9865720
1278.861, 0.8009640
1279.343, 1.020081
1279.825, 1.722473
1280.308, 2.323181
1280.790, 3.421021
1281.272, 3.868469
1281.754, 2.700012
1282.236, 1.639465
1282.718, 2.380676
1283.200, 3.904724
1283.682, 4.528442
1284.165, 3.876709
1284.647, 3.495483
1285.129, 3.202454
1285.611, 3.153564
1286.093, 4.167725
1286.575, 4.660522
1287.057, 3.245605
1287.539, 1.434326
1288.021, 0.9107670
1288.504, 1.446106
1288.986, 1.858765
1289.468, 2.056763
1289.950, 1.807983
1290.432, 0.1299440
1290.914, 0.7943120
1291.396, 0.9170530
1291.878, 2.967651
1292.360, 3.154663
1292.843, 2.289612
1293.325, 2.542480
1293.807, 3.578735
1294.289, 4.040771
1294.771, 2.798401
1295.253, 1.988770
1295.735, 1.668396
1296.217, 1.844238
1296.700, 2.890137
1297.182, 4.132446
1297.664, 4.566223
1298.146, 4.710083
1298.628, 4.039246
1299.110, 2.203491
1299.592, 1.567200
1300.074, 2.274170
1300.557, 3.100464
1301.039, 3.568542
1301.521, 3.481445
1302.003, 2.564453
1302.485, 1.161987
1302.967, 7.2327003E-02
1303.449, 0.0000000E+00
##END=



