##NAMES=Footemineite
##RRUFFID=R090005
##IDEAL CHEMISTRY=Ca_2_Mn^2+^_5_Be_4_(PO_4_)_6_(OH)_4_&#183;6H_2_O
##LOCALITY=Foote mine, North Carolina, USA
##OWNER=RRUFF
##SOURCE=Luiz Menezes
##DESCRIPTION=Pale yellow to light green prismatic or barrel-shaped crystals associated with colorless albite.
##STATUS=The identification of this mineral has been confirmed by single-crystal X-ray diffraction.
##URL=rruff.info/R090005
117.4069, 0.0000000E+00
117.8891, 1.647964
118.3712, 2.675125
118.8533, 2.680466
119.3354, 1.146667
119.8175, 0.1099850
120.2996, 0.2277680
120.7818, 0.2318420
121.2639, 0.2119140
121.7460, 0.1882780
122.2281, 8.5114002E-02
122.7102, 0.6690060
123.1923, 1.507874
123.6745, 2.706421
124.1566, 4.248169
124.6387, 5.827682
125.1208, 7.021774
125.6029, 7.707291
126.0850, 8.194489
126.5672, 8.530273
127.0493, 8.721512
127.5314, 8.710556
128.0135, 8.484314
128.4956, 8.151077
128.9777, 8.024368
129.4599, 8.412125
129.9420, 8.669861
130.4241, 8.609146
130.9062, 8.416229
131.3883, 8.366501
131.8704, 8.618362
132.3526, 9.127258
132.8347, 9.640884
133.3168, 9.731918
133.7989, 10.23242
134.2810, 11.61212
134.7632, 13.77556
135.2453, 16.22751
135.7274, 18.82793
136.2095, 21.45226
136.6916, 23.73091
137.1737, 25.66824
137.6559, 27.24580
138.1380, 28.33199
138.6201, 28.82076
139.1022, 29.32310
139.5843, 30.42511
140.0664, 31.78633
140.5486, 32.88472
141.0307, 33.32838
141.5128, 33.38496
141.9949, 33.84689
142.4770, 34.89703
142.9591, 36.14383
143.4413, 37.54959
143.9234, 38.98836
144.4055, 40.26630
144.8876, 41.27901
145.3697, 42.02669
145.8518, 42.38861
146.3340, 42.39166
146.8161, 41.93044
147.2982, 40.77800
147.7803, 39.06921
148.2624, 37.11069
148.7445, 35.08340
149.2267, 32.72543
149.7088, 31.59897
150.1909, 31.60226
150.6730, 32.57045
151.1551, 34.78406
151.6372, 38.11517
152.1194, 41.75951
152.6015, 44.69810
153.0836, 46.38113
153.5657, 48.88118
154.0478, 52.66994
154.5299, 57.04964
155.0121, 61.46169
155.4942, 65.78668
155.9763, 69.85019
156.4584, 73.03404
156.9405, 75.14481
157.4226, 78.09799
157.9048, 82.76410
158.3869, 88.61899
158.8690, 94.65094
159.3511, 100.8186
159.8332, 106.7617
160.3153, 111.9072
160.7975, 116.2183
161.2796, 120.7803
161.7617, 126.3482
162.2438, 132.8926
162.7259, 139.5460
163.2081, 146.0697
163.6902, 152.7437
164.1723, 159.6379
164.6544, 166.8239
165.1365, 174.3703
165.6186, 182.5361
166.1008, 191.4379
166.5829, 200.2962
167.0650, 209.6275
167.5471, 218.5206
168.0292, 226.8357
168.5113, 234.1526
168.9935, 239.9690
169.4756, 243.7088
169.9577, 245.0991
170.4398, 244.4937
170.9219, 242.6219
171.4040, 239.0147
171.8862, 232.6602
172.3683, 223.2779
172.8504, 212.0958
173.3325, 201.9254
173.8146, 193.9826
174.2967, 185.8169
174.7789, 177.2285
175.2610, 168.3166
175.7431, 159.3750
176.2252, 150.3911
176.7073, 141.5374
177.1894, 133.4844
177.6716, 126.6340
178.1537, 119.9280
178.6358, 111.7380
179.1179, 108.5434
179.6000, 105.1212
180.0821, 101.5041
180.5643, 96.00029
181.0464, 93.77232
181.5285, 90.74478
182.0106, 88.03534
182.4927, 87.31458
182.9748, 83.96884
183.4570, 83.95308
183.9391, 83.11940
184.4212, 83.19252
184.9033, 82.45782
185.3854, 82.45035
185.8675, 82.80254
186.3497, 82.20139
186.8318, 81.38428
187.3139, 82.02191
187.7960, 79.50099
188.2781, 79.77690
188.7602, 78.70128
189.2424, 77.99895
189.7245, 75.95584
190.2066, 74.10715
190.6887, 73.26366
191.1708, 71.60242
191.6530, 68.33804
192.1351, 64.96484
192.6172, 60.56619
193.0993, 54.64716
193.5814, 48.03700
194.0635, 42.91479
194.5457, 40.07681
195.0278, 37.21956
195.5099, 33.52922
195.9920, 29.70770
196.4741, 26.33678
196.9562, 23.65869
197.4384, 21.72455
197.9205, 20.73421
198.4026, 21.58250
198.8847, 22.22816
199.3668, 22.28218
199.8489, 22.04875
200.3311, 21.84064
200.8132, 21.81183
201.2953, 21.96400
201.7774, 22.30504
202.2595, 22.82811
202.7416, 23.57664
203.2238, 24.65767
203.7059, 25.94904
204.1880, 27.25768
204.6701, 28.46162
205.1522, 29.65755
205.6343, 31.29984
206.1165, 33.79224
206.5986, 36.23567
207.0807, 38.52185
207.5628, 40.62537
208.0449, 42.64572
208.5270, 44.75681
209.0092, 46.63687
209.4913, 46.88115
209.9734, 45.13954
210.4555, 42.62955
210.9376, 39.54080
211.4197, 35.98592
211.9019, 32.13806
212.3840, 27.91940
212.8661, 23.68359
213.3482, 20.38455
213.8303, 18.57307
214.3124, 16.76166
214.7946, 13.94534
215.2767, 10.32198
215.7588, 7.067734
216.2409, 4.834167
216.7230, 3.199280
217.2052, 1.172379
217.6873, 1.545639
218.1694, 4.004776
218.6515, 5.438751
219.1336, 5.878220
219.6157, 5.938889
220.0979, 5.663162
220.5800, 5.213715
221.0621, 4.805176
221.5442, 4.493256
222.0263, 4.080688
222.5084, 3.408707
222.9906, 2.477417
223.4727, 1.265945
223.9548, 9.7457998E-02
224.4369, 1.861862
224.9190, 4.442093
225.4011, 7.970215
225.8833, 11.59735
226.3654, 14.23926
226.8475, 15.64256
227.3296, 17.23325
227.8117, 19.38753
228.2938, 21.76904
228.7760, 24.35068
229.2581, 27.09579
229.7402, 29.59848
230.2223, 31.17148
230.7044, 31.40021
231.1865, 32.03735
231.6687, 33.88094
232.1508, 35.72806
232.6329, 36.73842
233.1150, 36.80255
233.5971, 36.50531
234.0792, 36.69031
234.5614, 37.64749
235.0435, 38.37627
235.5256, 38.72150
236.0077, 38.96750
236.4898, 39.13850
236.9719, 39.31281
237.4541, 39.73750
237.9362, 40.79579
238.4183, 42.79535
238.9004, 44.69972
239.3825, 46.45885
239.8646, 48.16818
240.3468, 50.01747
240.8289, 51.96576
241.3110, 53.65268
241.7931, 54.61026
242.2752, 54.51134
242.7573, 54.54898
243.2395, 54.70284
243.7216, 54.98148
244.2037, 55.74487
244.6858, 56.85498
245.1679, 57.46880
245.6501, 56.51932
246.1322, 53.40500
246.6143, 50.94231
247.0964, 49.67534
247.5785, 48.57806
248.0606, 46.90759
248.5428, 44.64099
249.0249, 42.24466
249.5070, 40.10152
249.9891, 38.20641
250.4712, 37.08525
250.9533, 37.52985
251.4355, 37.99451
251.9176, 37.31834
252.3997, 35.51434
252.8818, 33.46658
253.3639, 31.84732
253.8460, 30.72208
254.3282, 29.99626
254.8103, 30.07590
255.2924, 30.13948
255.7745, 29.39311
256.2566, 27.90483
256.7387, 26.57098
257.2209, 26.06424
257.7030, 26.31746
258.1851, 26.45357
258.6672, 26.66965
259.1493, 26.61218
259.6314, 25.78851
260.1136, 24.29643
260.5957, 23.07297
261.0778, 22.87889
261.5599, 23.29390
262.0420, 22.94788
262.5241, 21.18526
263.0063, 19.42279
263.4884, 18.91705
263.9705, 19.49852
264.4526, 19.67554
264.9347, 18.65974
265.4168, 16.83383
265.8990, 15.07384
266.3811, 13.39528
266.8632, 11.73795
267.3453, 9.900009
267.8274, 7.953186
268.3095, 6.468369
268.7917, 5.875214
269.2738, 5.684769
269.7559, 5.162109
270.2380, 4.214539
270.7201, 3.390823
271.2022, 3.148972
271.6844, 3.411804
272.1665, 3.633987
272.6486, 3.604996
273.1307, 3.581879
273.6128, 3.912003
274.0949, 4.590363
274.5771, 5.088959
275.0592, 4.861206
275.5413, 4.018280
276.0234, 3.472717
276.5055, 3.587219
276.9876, 3.887756
277.4698, 3.976196
277.9519, 3.902969
278.4340, 3.851593
278.9161, 4.020721
279.3982, 4.317596
279.8803, 4.316254
280.3625, 3.805099
280.8446, 3.319656
281.3267, 3.157425
281.8088, 3.260666
282.2909, 3.480392
282.7730, 3.857513
283.2552, 4.311279
283.7373, 4.543137
284.2194, 4.521408
284.7015, 4.400146
285.1836, 3.869690
285.6658, 3.334991
286.1479, 3.554657
286.6300, 5.269440
287.1121, 7.545013
287.5942, 7.982437
288.0764, 5.536865
288.5585, 3.680710
289.0406, 4.170517
289.5227, 5.683945
290.0048, 6.915573
290.4869, 7.403397
290.9691, 7.459106
291.4512, 7.600922
291.9333, 7.866486
292.4154, 8.103638
292.8975, 8.305450
293.3796, 8.448441
293.8618, 8.511978
294.3439, 8.491165
294.8260, 8.389404
295.3081, 8.176666
295.7902, 7.813660
296.2723, 7.529816
296.7545, 7.510269
297.2366, 7.474426
297.7187, 7.315521
298.2008, 7.000809
298.6829, 6.477722
299.1650, 5.546219
299.6472, 4.112122
300.1293, 3.129639
300.6114, 3.244644
301.0935, 3.310730
301.5756, 2.714294
302.0577, 1.588730
302.5399, 0.4792480
303.0220, 0.1528930
303.5041, 0.3285220
303.9862, 0.5449370
304.4683, 0.8501430
304.9504, 1.139435
305.4326, 1.304840
305.9147, 1.431091
306.3968, 1.709030
306.8789, 2.332199
307.3610, 3.148849
307.8431, 3.471146
308.3253, 3.050110
308.8074, 2.482834
309.2895, 1.710220
309.7716, 0.9839780
310.2537, 0.7417300
310.7358, 1.249329
311.2180, 1.973480
311.7001, 1.583908
312.1822, 2.328137
312.6643, 2.368393
313.1464, 2.842850
313.6285, 2.720825
314.1107, 2.293427
314.5928, 1.672852
315.0749, 1.193863
315.5570, 1.408661
316.0391, 2.520020
316.5212, 3.586899
317.0034, 4.856384
317.4855, 5.800201
317.9676, 6.037933
318.4497, 5.582886
318.9318, 4.775665
319.4139, 3.843262
319.8961, 2.748383
320.3782, 1.914413
320.8603, 1.354645
321.3424, 1.091095
321.8245, 1.299057
322.3066, 1.824432
322.7888, 2.316086
323.2709, 2.506760
323.7530, 2.439575
324.2351, 2.436890
324.7172, 2.595535
325.1993, 2.678894
325.6815, 2.295074
326.1636, 1.877777
326.6457, 2.090851
327.1278, 3.339859
327.6099, 5.189194
328.0920, 6.612030
328.5742, 7.520203
329.0563, 8.160904
329.5384, 8.553818
330.0205, 8.765762
330.5026, 8.799133
330.9847, 8.657074
331.4669, 8.474503
331.9490, 8.483322
332.4311, 8.768173
332.9132, 8.871262
333.3953, 8.732483
333.8774, 8.380310
334.3596, 7.749893
334.8417, 6.871765
335.3238, 5.917969
335.8059, 4.988754
336.2880, 4.079102
336.7701, 3.378647
337.2523, 2.828918
337.7344, 2.599930
338.2165, 3.093491
338.6986, 3.958130
339.1807, 4.392563
339.6628, 3.795944
340.1450, 2.420883
340.6271, 1.179214
341.1092, 4.1320998E-02
341.5913, 0.8847500
342.0735, 1.640182
342.5556, 2.168442
343.0377, 2.363327
343.5198, 2.151398
344.0019, 1.694199
344.4840, 1.268845
344.9662, 0.9207000
345.4483, 0.3948970
345.9304, 0.4145200
346.4125, 1.431183
346.8946, 2.697205
347.3767, 4.221069
347.8589, 5.735397
348.3410, 6.849014
348.8231, 7.584808
349.3052, 8.730545
349.7873, 10.61636
350.2694, 12.71913
350.7516, 14.50710
351.2337, 16.11928
351.7158, 18.12648
352.1979, 21.10042
352.6800, 24.75946
353.1621, 28.12675
353.6443, 31.05753
354.1264, 33.99266
354.6085, 37.53017
355.0906, 41.19707
355.5727, 44.07776
356.0548, 45.35170
356.5370, 46.34253
357.0191, 48.94922
357.5012, 53.28172
357.9833, 57.85699
358.4654, 62.33435
358.9475, 66.56958
359.4297, 70.33464
359.9118, 73.55936
360.3939, 76.57469
360.8760, 79.40659
361.3581, 82.18205
361.8402, 85.55093
362.3224, 89.84763
362.8045, 94.45517
363.2866, 98.92221
363.7687, 103.2281
364.2508, 106.9862
364.7329, 109.4671
365.2151, 111.4572
365.6972, 114.6412
366.1793, 119.4677
366.6614, 123.9959
367.1435, 126.4011
367.6256, 127.3207
368.1078, 128.7229
368.5899, 131.6484
369.0720, 134.4015
369.5541, 135.4038
370.0362, 135.0134
370.5183, 134.8235
371.0005, 135.8458
371.4826, 137.2959
371.9647, 137.5526
372.4468, 136.7663
372.9289, 134.6641
373.4110, 130.6758
373.8932, 125.3912
374.3753, 119.8756
374.8574, 114.3944
375.3395, 108.8259
375.8216, 103.0393
376.3037, 97.02023
376.7859, 90.94177
377.2680, 84.32660
377.7501, 77.98553
378.2322, 72.56140
378.7143, 68.08514
379.1964, 64.38275
379.6786, 61.46750
380.1607, 59.25925
380.6428, 56.64830
381.1249, 53.23657
381.6070, 49.94432
382.0891, 46.94170
382.5713, 44.29433
383.0534, 42.03178
383.5355, 40.13022
384.0176, 38.79700
384.4997, 38.51024
384.9818, 40.17400
385.4640, 41.46341
385.9461, 42.06978
386.4282, 42.44492
386.9103, 42.87932
387.3924, 43.45845
387.8745, 44.22516
388.3567, 45.28221
388.8388, 46.60167
389.3209, 48.44026
389.8030, 51.18091
390.2851, 53.93456
390.7672, 56.16588
391.2494, 58.20238
391.7315, 60.79489
392.2136, 64.42888
392.6957, 68.76562
393.1778, 72.37660
393.6599, 74.51254
394.1421, 76.86490
394.6242, 79.74771
395.1063, 82.78543
395.5884, 85.63222
396.0706, 88.19766
396.5527, 90.57790
397.0348, 93.12604
397.5169, 96.16687
397.9990, 98.04630
398.4811, 97.92470
398.9633, 97.31230
399.4454, 96.86340
399.9275, 96.40257
400.4096, 95.33438
400.8917, 93.20862
401.3738, 90.22980
401.8560, 87.11395
402.3381, 83.64616
402.8202, 80.46185
403.3023, 77.87651
403.7844, 75.58577
404.2665, 73.30478
404.7487, 70.96104
405.2308, 68.46198
405.7129, 65.43011
406.1950, 61.76456
406.6771, 59.12225
407.1592, 58.28906
407.6414, 58.13693
408.1235, 57.86743
408.6056, 57.50479
409.0877, 57.31003
409.5698, 57.42146
410.0519, 57.80711
410.5341, 58.32094
411.0162, 58.86496
411.4983, 59.90169
411.9804, 62.06198
412.4625, 64.83179
412.9446, 67.36644
413.4268, 69.49924
413.9089, 71.42691
414.3910, 73.35905
414.8731, 75.23573
415.3552, 76.80490
415.8373, 78.05954
416.3195, 78.84279
416.8016, 78.74039
417.2837, 77.73517
417.7658, 76.77820
418.2479, 76.04465
418.7300, 75.53081
419.2122, 75.19023
419.6943, 75.02580
420.1764, 75.15129
420.6585, 75.61287
421.1406, 76.45808
421.6227, 77.87759
422.1049, 80.36230
422.5870, 82.83453
423.0691, 84.89027
423.5512, 86.63535
424.0333, 88.32610
424.5154, 90.06281
424.9976, 91.67493
425.4797, 92.77428
425.9618, 92.67467
426.4439, 93.49496
426.9260, 96.01308
427.4081, 98.82054
427.8903, 101.1662
428.3724, 102.8856
428.8545, 104.0175
429.3366, 104.6609
429.8187, 104.7828
430.3008, 103.6391
430.7830, 100.2824
431.2651, 96.58675
431.7472, 92.89371
432.2293, 88.99142
432.7114, 84.51138
433.1935, 79.34119
433.6757, 73.96033
434.1578, 69.31657
434.6399, 65.79306
435.1220, 61.68210
435.6041, 56.41385
436.0862, 50.91789
436.5684, 45.19952
437.0505, 39.56992
437.5326, 34.77029
438.0147, 31.54097
438.4968, 29.49011
438.9789, 27.33211
439.4611, 25.19926
439.9432, 22.62320
440.4253, 18.82129
440.9074, 14.72543
441.3895, 11.26584
441.8716, 8.619522
442.3538, 6.629242
442.8359, 5.366257
443.3180, 4.720001
443.8001, 4.173218
444.2822, 3.807343
444.7643, 3.176743
445.2465, 3.247204
445.7286, 2.846456
446.2107, 2.954391
446.6928, 2.432953
447.1749, 1.231094
447.6570, 0.9129330
448.1392, 1.436996
448.6213, 1.936142
449.1034, 1.909744
449.5855, 1.583786
450.0677, 1.641006
450.5498, 2.362946
451.0319, 2.810120
451.5140, 2.630417
451.9961, 2.099518
452.4782, 1.564667
452.9604, 1.086563
453.4425, 0.4444270
453.9246, 0.6912080
454.4067, 2.424713
454.8888, 3.323029
455.3709, 2.651443
455.8531, 2.101913
456.3352, 2.322632
456.8173, 3.093628
457.2994, 3.940292
457.7815, 4.630875
458.2636, 5.349045
458.7458, 6.594284
459.2279, 8.981079
459.7100, 10.53044
460.1921, 10.79268
460.6742, 10.64821
461.1563, 10.40810
461.6385, 10.22704
462.1206, 10.38026
462.6027, 11.21703
463.0848, 12.53455
463.5669, 13.26631
464.0490, 13.24901
464.5312, 12.94713
465.0133, 12.15381
465.4954, 11.35574
465.9775, 11.19148
466.4596, 11.85500
466.9417, 12.47092
467.4239, 11.90381
467.9060, 10.40984
468.3881, 9.863800
468.8702, 10.99541
469.3523, 12.21297
469.8344, 11.88306
470.3166, 10.51901
470.7987, 9.586197
471.2808, 9.761124
471.7629, 10.27518
472.2450, 10.45210
472.7271, 10.35928
473.2093, 10.30739
473.6914, 10.37796
474.1735, 10.66286
474.6556, 11.39243
475.1377, 12.72115
475.6198, 13.81020
476.1020, 14.43689
476.5841, 14.85512
477.0662, 15.36360
477.5483, 15.93033
478.0304, 16.16997
478.5125, 15.71623
478.9947, 14.70055
479.4768, 14.31180
479.9589, 15.25935
480.4410, 15.96715
480.9231, 16.03094
481.4052, 15.86366
481.8874, 15.94189
482.3695, 16.35793
482.8516, 16.78236
483.3337, 16.70282
483.8158, 15.98425
484.2979, 15.93532
484.7801, 17.29088
485.2622, 18.50340
485.7443, 18.80554
486.2264, 18.66818
486.7085, 18.88980
487.1906, 19.84715
487.6728, 21.13107
488.1549, 22.12891
488.6370, 22.81285
489.1191, 23.68710
489.6012, 24.98425
490.0833, 26.37912
490.5655, 27.71660
491.0476, 28.95699
491.5297, 29.79828
492.0118, 30.14488
492.4939, 30.01639
492.9760, 29.27272
493.4582, 27.94577
493.9403, 26.68092
494.4224, 25.93742
494.9045, 25.34554
495.3866, 23.96913
495.8687, 21.76639
496.3509, 19.08754
496.8330, 15.28671
497.3151, 11.45494
497.7972, 8.894455
498.2793, 7.668015
498.7614, 6.850403
499.2436, 5.639816
499.7257, 4.090164
500.2078, 3.126343
500.6899, 3.435654
501.1720, 3.499100
501.6541, 2.852280
502.1363, 1.950806
502.6184, 1.260147
503.1005, 0.9133910
503.5826, 0.6955720
504.0647, 0.4534610
504.5468, 0.3237760
505.0290, 0.3722530
505.5111, 0.6593780
505.9932, 0.8767400
506.4753, 0.8965300
506.9575, 0.8262940
507.4396, 0.7954710
507.9217, 0.8112180
508.4038, 0.8424990
508.8859, 1.041245
509.3680, 1.417465
509.8502, 1.418137
510.3323, 0.7607880
510.8144, 5.9525002E-02
511.2965, 0.5516510
511.7786, 0.7588810
512.2607, 0.9501950
512.7429, 1.147781
513.2250, 1.391785
513.7071, 1.798767
514.1892, 2.307144
514.6713, 2.682831
515.1534, 2.832565
515.6356, 2.768295
516.1177, 2.508713
516.5998, 2.000992
517.0819, 1.383560
517.5640, 0.6936340
518.0461, 0.1355740
518.5283, 1.292450
519.0104, 2.652924
519.4925, 3.783310
519.9746, 4.351151
520.4567, 4.610748
520.9388, 5.623901
521.4210, 8.354019
521.9031, 9.997101
522.3852, 9.279755
522.8673, 8.226563
523.3494, 8.500946
523.8315, 10.00662
524.3137, 11.27026
524.7958, 10.97136
525.2779, 9.560287
525.7600, 8.623688
526.2421, 8.262787
526.7242, 8.012848
527.2064, 7.933212
527.6885, 7.701996
528.1706, 6.799774
528.6527, 5.052536
529.1348, 3.425446
529.6169, 2.519730
530.0991, 2.007660
530.5812, 1.274307
531.0633, 0.2524720
531.5454, 0.5622560
532.0275, 0.7793120
532.5096, 0.4740300
532.9918, 0.1600490
533.4739, 0.2814940
533.9560, 0.5796810
534.4381, 0.1693880
534.9202, 0.1419370
535.4023, 0.6274260
535.8845, 2.589355
536.3666, 5.052643
536.8487, 7.306656
537.3308, 9.356384
537.8129, 11.76854
538.2950, 14.56747
538.7772, 17.74808
539.2593, 21.61409
539.7414, 25.67421
540.2235, 29.38892
540.7056, 32.61548
541.1877, 35.68480
541.6699, 39.00917
542.1520, 42.50531
542.6341, 45.57693
543.1162, 48.00948
543.5983, 50.42491
544.0804, 53.22823
544.5626, 56.27863
545.0447, 59.36700
545.5268, 62.60451
546.0089, 65.59735
546.4910, 67.76421
546.9731, 69.62100
547.4553, 72.34862
547.9374, 76.23087
548.4195, 80.07394
548.9016, 82.61916
549.3837, 83.83113
549.8658, 85.87737
550.3480, 89.38786
550.8301, 92.83437
551.3122, 95.74263
551.7943, 98.37094
552.2764, 101.2518
552.7585, 104.4357
553.2407, 107.2116
553.7228, 108.6427
554.2049, 108.6681
554.6870, 108.4670
555.1691, 108.1953
555.6512, 107.4362
556.1334, 106.1924
556.6155, 104.3844
557.0976, 101.8727
557.5797, 98.59920
558.0618, 94.78174
558.5439, 90.32739
559.0261, 85.46204
559.5082, 81.01869
559.9903, 77.21460
560.4724, 73.43669
560.9545, 69.16255
561.4366, 64.52609
561.9188, 60.13417
562.4009, 55.81287
562.8830, 52.00458
563.3651, 48.97946
563.8472, 46.51448
564.3293, 44.31633
564.8115, 42.31461
565.2936, 40.53210
565.7757, 38.93712
566.2578, 37.52225
566.7399, 36.95552
567.2220, 38.30818
567.7042, 39.24074
568.1863, 39.16949
568.6684, 38.59369
569.1505, 37.79295
569.6326, 36.94124
570.1147, 36.51498
570.5969, 37.20108
571.0790, 38.80141
571.5611, 40.12947
572.0432, 41.22084
572.5253, 41.86948
573.0074, 41.75597
573.4896, 41.24240
573.9717, 40.93605
574.4538, 41.06013
574.9359, 40.81807
575.4180, 39.65852
575.9001, 37.98610
576.3823, 36.31848
576.8644, 34.71213
577.3465, 33.01617
577.8286, 31.14093
578.3107, 29.07272
578.7928, 26.74188
579.2750, 23.64711
579.7571, 20.94472
580.2392, 18.84091
580.7213, 17.05569
581.2034, 15.48099
581.6855, 14.03246
582.1677, 12.46475
582.6498, 10.48923
583.1319, 8.376602
583.6140, 7.242996
584.0961, 7.455887
584.5782, 7.353287
585.0604, 5.932693
585.5425, 4.455994
586.0246, 4.038849
586.5067, 4.651398
586.9889, 5.468597
587.4710, 6.296906
587.9531, 7.036697
588.4352, 7.717331
588.9174, 8.260361
589.3995, 8.050293
589.8816, 6.635437
590.3637, 4.974976
590.8458, 4.749908
591.3279, 6.646347
591.8101, 8.071808
592.2922, 8.648300
592.7743, 9.132065
593.2564, 9.822388
593.7385, 10.74062
594.2206, 11.90585
594.7028, 13.32451
595.1849, 14.83797
595.6670, 16.15964
596.1491, 17.27596
596.6312, 18.38480
597.1133, 19.22539
597.5955, 20.45673
598.0776, 22.64995
598.5597, 25.42511
599.0418, 28.06798
599.5239, 30.51672
600.0060, 32.51561
600.4882, 33.99519
600.9703, 34.86777
601.4524, 34.84938
601.9345, 33.90915
602.4166, 32.42125
602.8987, 30.67433
603.3809, 28.72720
603.8630, 26.85045
604.3451, 25.42426
604.8272, 23.56029
605.3093, 20.64259
605.7914, 17.49010
606.2736, 14.83437
606.7557, 12.79863
607.2378, 11.11469
607.7199, 9.566269
608.2020, 8.169357
608.6841, 6.956284
609.1663, 5.808380
609.6484, 5.229752
610.1305, 5.550232
610.6126, 6.404480
611.0947, 7.654724
611.5768, 9.257141
612.0590, 10.68344
612.5411, 11.29674
613.0232, 11.91628
613.5053, 13.70441
613.9874, 16.42149
614.4695, 18.74989
614.9517, 20.05894
615.4338, 21.16479
615.9159, 23.48521
616.3980, 27.49989
616.8801, 31.08636
617.3622, 34.13419
617.8444, 36.95825
618.3265, 39.59212
618.8086, 42.12997
619.2907, 44.76593
619.7728, 47.57242
620.2549, 50.14633
620.7371, 51.54880
621.2192, 51.87537
621.7013, 53.79144
622.1834, 58.01332
622.6655, 62.51321
623.1476, 66.19466
623.6298, 69.28465
624.1119, 72.22993
624.5940, 75.06438
625.0761, 77.94577
625.5582, 81.06258
626.0403, 84.15692
626.5225, 86.92894
627.0046, 89.41217
627.4867, 91.73288
627.9688, 93.93144
628.4509, 95.93321
628.9330, 97.87381
629.4152, 100.4334
629.8973, 101.6917
630.3794, 101.4268
630.8615, 100.2215
631.3436, 98.25365
631.8257, 95.64830
632.3079, 92.53995
632.7900, 88.91371
633.2721, 84.97055
633.7542, 80.94365
634.2363, 76.82593
634.7184, 72.66325
635.2006, 68.40973
635.6827, 64.26625
636.1648, 60.51399
636.6469, 57.12245
637.1290, 53.75293
637.6111, 50.28586
638.0933, 46.92867
638.5754, 43.85988
639.0575, 40.92345
639.5396, 37.89943
640.0217, 34.78244
640.5038, 31.72809
640.9860, 28.81459
641.4681, 26.07040
641.9502, 23.59053
642.4323, 21.43497
642.9144, 19.39516
643.3965, 17.39189
643.8787, 15.55508
644.3608, 13.82588
644.8429, 12.20883
645.3250, 11.03961
645.8071, 10.88286
646.2892, 10.81778
646.7714, 9.683121
647.2535, 7.838913
647.7356, 6.514725
648.2177, 6.097122
648.6998, 5.975952
649.1819, 5.459518
649.6641, 4.505569
650.1462, 3.811935
650.6283, 3.675980
651.1104, 3.414291
651.5925, 2.868149
652.0746, 2.147079
652.5568, 1.207626
653.0389, 0.9731448
653.5210, 0.5994110
654.0031, 0.4470210
654.4852, 0.2111970
654.9673, 0.1642150
655.4495, 0.6752470
655.9316, 1.219162
656.4137, 1.024780
656.8958, 0.4688870
657.3779, 0.1505130
657.8600, 0.8460540
658.3422, 0.9443820
658.8243, 0.4975890
659.3064, 1.674332
659.7885, 1.361740
660.2706, 0.1890720
660.7527, 0.8961940
661.2349, 1.568253
661.7170, 1.833221
662.1991, 1.594772
662.6812, 0.8899230
663.1633, 0.5961000
663.6454, 1.022690
664.1276, 1.243179
664.6097, 0.5922240
665.0918, 0.1576540
665.5739, 0.2653500
666.0560, 0.2852170
666.5381, 0.8699340
667.0203, 1.223694
667.5024, 1.457352
667.9845, 1.618744
668.4666, 1.763199
668.9487, 2.129883
669.4308, 2.828293
669.9130, 3.540970
670.3951, 3.850296
670.8772, 3.712692
671.3593, 3.538803
671.8414, 3.081757
672.3235, 2.890274
672.8057, 3.424850
673.2878, 4.086960
673.7699, 4.170456
674.2520, 3.613129
674.7341, 3.043030
675.2162, 3.214905
675.6984, 3.606781
676.1805, 2.940063
676.6626, 1.260681
677.1447, 0.6485900
677.6268, 2.144211
678.1089, 4.132767
678.5911, 4.369232
679.0732, 2.461441
679.5553, 0.9550630
680.0374, 0.3489840
680.5195, 1.041779
681.0016, 0.3430630
681.4838, 0.7497100
681.9659, 0.8198240
682.4480, 0.3418730
682.9301, 1.537247
683.4122, 1.531921
683.8943, 0.6649320
684.3765, 0.4254000
684.8586, 0.9801330
685.3407, 1.126114
685.8228, 0.1207890
686.3049, 1.096420
686.7870, 1.176376
687.2692, 0.1656490
687.7513, 0.5320430
688.2334, 0.4816590
688.7155, 0.3098140
689.1976, 0.3140870
689.6797, 0.4291990
690.1619, 0.5712280
690.6440, 0.7017520
691.1261, 0.7552410
691.6082, 0.6587370
692.0903, 0.4271770
692.5724, 0.1363370
693.0546, 0.2980120
693.5367, 0.5347820
694.0188, 0.2327420
694.5009, 8.8188000E-02
694.9830, 0.1631240
695.4651, 0.8963010
695.9473, 1.349648
696.4294, 1.048485
696.9116, 0.6508030
697.3937, 0.5899890
697.8758, 0.7572330
698.3579, 1.020432
698.8400, 1.318130
699.3221, 1.463318
699.8043, 1.252670
700.2864, 0.7379070
700.7685, 0.2714000
701.2506, 0.3494870
701.7327, 0.4923780
702.2148, 0.4624330
702.6970, 1.530510
703.1791, 2.137054
703.6612, 2.303886
704.1433, 2.268898
704.6254, 2.086815
705.1075, 1.771248
705.5897, 1.087021
706.0718, 0.3327940
706.5539, 0.2723850
707.0360, 1.004547
707.5181, 1.782661
708.0002, 1.981743
708.4824, 1.739738
708.9645, 1.776329
709.4466, 2.393219
709.9287, 2.710060
710.4108, 2.415390
710.8929, 1.009392
711.3751, 2.226334
711.8572, 2.897903
712.3393, 3.060089
712.8214, 1.140373
713.3035, 1.886673
713.7856, 1.529564
714.2678, 1.137245
714.7499, 2.269028
715.2320, 0.6509930
715.7141, 1.772736
716.1962, 1.800461
716.6783, 2.312164
717.1605, 1.680168
717.6426, 1.399391
718.1247, 2.256668
718.6068, 2.518639
719.0889, 1.836983
719.5710, 2.395615
720.0532, 0.7376170
720.5353, 1.024292
721.0174, 2.149948
721.4995, 1.521698
721.9816, 2.099037
722.4637, 2.216873
722.9459, 0.2416920
723.4280, 1.891426
723.9101, 1.981575
724.3922, 0.4596940
724.8743, 1.994530
725.3564, 0.6943360
725.8386, 0.4058300
726.3207, 0.8785250
726.8028, 0.5573650
727.2849, 1.487564
727.7670, 1.211823
728.2491, 0.8282780
728.7313, 0.9144900
729.2134, 0.5669630
729.6955, 0.8934860
730.1776, 0.4300840
730.6597, 0.8056410
731.1418, 1.371162
731.6240, 0.4800570
732.1061, 1.130600
732.5882, 0.6102830
733.0703, 0.3509670
733.5524, 0.3074950
734.0345, 1.014374
734.5167, 0.7164540
734.9988, 0.5143810
735.4809, 0.3016890
735.9630, 0.3493880
736.4451, 0.9087220
736.9272, 0.5619050
737.4094, 0.5579380
737.8915, 1.492706
738.3736, 1.683083
738.8557, 1.638725
739.3378, 1.879074
739.8199, 2.229958
740.3021, 2.122398
740.7842, 1.410286
741.2663, 0.7451930
741.7484, 0.6519390
742.2305, 0.9932630
742.7126, 1.253860
743.1948, 1.520210
743.6769, 1.686996
744.1590, 1.460251
744.6411, 1.317154
745.1232, 1.688980
745.6053, 2.263786
746.0875, 2.411659
746.5696, 1.777931
747.0517, 1.346146
747.5338, 2.250992
748.0159, 3.692383
748.4980, 4.147072
748.9802, 3.662094
749.4623, 3.450203
749.9444, 4.164185
750.4265, 5.322792
750.9086, 6.011292
751.3907, 6.052116
751.8729, 6.354980
752.3550, 7.196693
752.8371, 7.937172
753.3192, 8.306015
753.8013, 8.495461
754.2834, 8.709023
754.7656, 8.969666
755.2477, 9.236298
755.7298, 9.667587
756.2119, 9.951820
756.6940, 9.428482
757.1761, 8.561020
757.6583, 8.681900
758.1404, 10.08971
758.6225, 11.50755
759.1046, 11.55283
759.5867, 10.52907
760.0688, 10.50795
760.5510, 11.94949
761.0331, 12.98795
761.5152, 12.98038
761.9973, 12.77375
762.4794, 13.05618
762.9615, 13.64765
763.4437, 13.92000
763.9258, 13.52020
764.4079, 13.17120
764.8900, 13.21285
765.3721, 13.50983
765.8542, 14.01005
766.3364, 14.62282
766.8185, 15.16216
767.3006, 15.52996
767.7827, 15.69951
768.2648, 15.53008
768.7469, 15.00024
769.2291, 14.72122
769.7112, 14.68160
770.1933, 14.99709
770.6754, 16.03753
771.1575, 17.26291
771.6396, 17.65706
772.1218, 17.07635
772.6039, 16.78615
773.0860, 17.42810
773.5681, 17.93526
774.0502, 17.40606
774.5323, 16.54224
775.0145, 16.50641
775.4966, 17.42146
775.9787, 18.26965
776.4608, 18.15188
776.9429, 17.43503
777.4250, 16.94879
777.9072, 16.68958
778.3893, 16.53023
778.8714, 16.44854
779.3535, 16.42163
779.8356, 16.40706
780.3177, 16.42751
780.7999, 16.64120
781.2820, 17.44341
781.7641, 17.88748
782.2462, 17.81738
782.7283, 17.48632
783.2104, 16.75067
783.6926, 15.93578
784.1747, 15.77223
784.6568, 16.58916
785.1389, 17.27769
785.6210, 16.50756
786.1031, 15.04839
786.5853, 14.51156
787.0674, 14.85529
787.5495, 15.04656
788.0316, 14.62841
788.5137, 13.92459
788.9958, 13.36594
789.4780, 12.94530
789.9601, 12.69573
790.4422, 12.74333
790.9243, 12.71458
791.4064, 12.47599
791.8885, 12.15170
792.3707, 11.67076
792.8528, 11.14363
793.3349, 10.82547
793.8170, 11.03214
794.2991, 11.02550
794.7813, 10.21696
795.2634, 9.087830
795.7455, 8.237274
796.2276, 7.721382
796.7097, 7.314003
797.1918, 6.876595
797.6740, 6.459793
798.1561, 6.180855
798.6382, 6.046272
799.1203, 5.868477
799.6024, 5.634331
800.0845, 5.362175
800.5667, 5.034767
801.0488, 4.683632
801.5309, 4.373222
802.0130, 4.107712
802.4951, 3.851707
802.9772, 3.409065
803.4594, 3.201981
803.9415, 3.731232
804.4236, 4.411324
804.9057, 4.489059
805.3878, 3.915817
805.8699, 3.235847
806.3521, 2.779007
806.8342, 2.480019
807.3163, 2.299866
807.7985, 2.198181
808.2806, 1.938156
808.7627, 1.475571
809.2448, 1.228226
809.7269, 1.556572
810.2090, 2.215286
810.6912, 2.416328
811.1733, 1.831497
811.6554, 1.563942
812.1375, 2.001801
812.6196, 2.316528
813.1017, 2.008507
813.5839, 1.490166
814.0660, 1.388023
814.5481, 1.801643
815.0302, 2.019913
815.5123, 1.495255
815.9944, 0.8963090
816.4766, 0.7759250
816.9587, 0.9571080
817.4408, 1.172714
817.9229, 1.326836
818.4050, 1.309959
818.8871, 1.000214
819.3693, 0.5236280
819.8514, 0.1575160
820.3335, 0.1051710
820.8156, 0.1779790
821.2977, 1.321762
821.7798, 2.211586
822.2620, 1.976730
822.7441, 1.021553
823.2262, 0.5104290
823.7083, 0.5910190
824.1904, 0.7383800
824.6725, 1.157417
825.1547, 1.421432
825.6368, 1.197060
826.1189, 0.7602310
826.6010, 0.4757080
827.0831, 0.4242020
827.5652, 0.4646220
828.0474, 0.5292660
828.5295, 0.6164780
829.0116, 0.7249300
829.4937, 0.8409500
829.9758, 0.9644470
830.4579, 1.092194
830.9401, 1.134125
831.4222, 0.9960860
831.9043, 0.8012540
832.3864, 0.9574890
832.8685, 1.576668
833.3506, 1.985695
833.8328, 2.075760
834.3149, 2.092804
834.7970, 2.094391
835.2791, 2.047852
835.7612, 1.999786
836.2433, 1.970711
836.7255, 1.885040
837.2076, 1.477318
837.6897, 1.345749
838.1718, 2.098846
838.6539, 3.086693
839.1360, 3.584145
839.6182, 3.499947
840.1003, 3.070313
840.5824, 2.208366
841.0645, 1.256851
841.5466, 0.6717380
842.0287, 0.5385740
842.5109, 1.171448
842.9930, 2.489746
843.4751, 3.501633
843.9572, 3.651321
844.4393, 3.383575
844.9214, 3.456039
845.4036, 3.886894
845.8857, 4.266373
846.3678, 4.526779
846.8499, 4.913246
847.3320, 5.881058
847.8141, 6.790627
848.2963, 6.665947
848.7784, 5.534424
849.2605, 5.037254
849.7426, 6.290573
850.2247, 7.313545
850.7068, 6.856583
851.1890, 6.057671
851.6711, 6.169846
852.1532, 7.062172
852.6353, 7.844765
853.1174, 8.064827
853.5995, 8.046440
854.0817, 8.174469
854.5638, 8.394432
855.0459, 8.527008
855.5280, 8.581459
856.0101, 8.622223
856.4922, 8.648148
856.9744, 8.584564
857.4565, 8.313446
857.9386, 7.882339
858.4207, 8.165245
858.9028, 9.790329
859.3849, 10.48026
859.8671, 8.973648
860.3492, 7.386902
860.8313, 7.449051
861.3134, 8.497986
861.7955, 8.874580
862.2776, 8.009605
862.7598, 7.451233
863.2419, 7.983337
863.7240, 8.572060
864.2061, 8.317818
864.6882, 7.703094
865.1703, 7.700188
865.6525, 8.501167
866.1346, 9.276306
866.6167, 9.415718
867.0988, 9.109024
867.5809, 8.405930
868.0630, 7.506760
868.5452, 7.234016
869.0273, 7.711868
869.5094, 8.124428
869.9915, 7.857437
870.4736, 7.188660
870.9557, 6.830261
871.4379, 6.820183
871.9200, 6.919785
872.4021, 7.229843
872.8842, 7.397057
873.3663, 7.073044
873.8484, 6.664581
874.3306, 7.002457
874.8127, 8.152069
875.2948, 8.396454
875.7769, 6.677704
876.2590, 5.268661
876.7411, 5.038139
877.2233, 5.208038
877.7054, 5.056679
878.1875, 4.690979
878.6696, 4.712532
879.1517, 5.470970
879.6339, 6.138695
880.1160, 5.800491
880.5981, 5.124962
881.0802, 5.262848
881.5623, 5.945007
882.0444, 5.920807
882.5266, 4.816010
883.0087, 3.681915
883.4908, 3.693291
883.9729, 4.503159
884.4550, 4.724869
884.9371, 4.327347
885.4193, 3.853806
885.9014, 3.334175
886.3835, 3.006149
886.8656, 3.099289
887.3477, 3.454308
887.8298, 3.649597
888.3120, 3.707047
888.7941, 3.539909
889.2762, 2.993141
889.7583, 2.407799
890.2404, 1.860237
890.7225, 1.349091
891.2047, 0.7357710
891.6868, 8.4183000E-02
892.1689, 0.1107480
892.6510, 0.5424650
893.1331, 1.376511
893.6152, 2.443459
894.0974, 3.244118
894.5795, 3.008560
895.0616, 2.030548
895.5437, 1.272964
896.0258, 1.135651
896.5079, 1.117355
896.9901, 0.4861450
897.4722, 0.3608170
897.9543, 0.2519840
898.4364, 0.5971680
898.9185, 0.7643200
899.4006, 0.1502150
899.8828, 1.035851
900.3649, 0.8388820
900.8470, 4.2084001E-02
901.3291, 4.2419001E-02
901.8112, 1.107872
902.2933, 1.812096
902.7755, 1.771614
903.2576, 1.672264
903.7397, 1.791824
904.2218, 2.101448
904.7039, 2.639297
905.1860, 3.476608
905.6682, 3.952255
906.1503, 3.659714
906.6324, 3.530441
907.1145, 4.041237
907.5966, 4.574730
908.0787, 4.635727
908.5609, 4.297905
909.0430, 3.879051
909.5251, 3.480927
910.0072, 2.968185
910.4893, 2.067734
910.9714, 1.187759
911.4536, 0.7021410
911.9357, 0.5684360
912.4178, 0.7678220
912.8999, 1.223045
913.3820, 1.526314
913.8641, 1.263641
914.3463, 0.7816310
914.8284, 0.8646620
915.3105, 0.4952251
915.7926, 1.156487
916.2748, 0.2382510
916.7569, 0.2283250
917.2390, 0.5060270
917.7211, 7.7621609E-02
918.2032, 0.3940595
918.6854, 0.1991200
919.1675, 0.8162990
919.6496, 1.504456
920.1317, 1.996880
920.6138, 2.261620
921.0959, 2.448471
921.5781, 2.540550
922.0602, 2.642929
922.5423, 3.317757
923.0244, 5.080582
923.5065, 6.449409
923.9886, 6.953247
924.4708, 7.514862
924.9529, 8.479065
925.4350, 9.768356
925.9171, 11.33755
926.3992, 13.14238
926.8813, 14.91334
927.3635, 16.51485
927.8456, 18.08394
928.3277, 19.55840
928.8098, 21.14069
929.2919, 23.11363
929.7740, 25.40437
930.2562, 27.85942
930.7383, 30.39806
931.2204, 32.80438
931.7025, 34.46037
932.1846, 36.05949
932.6667, 39.29842
933.1489, 43.64828
933.6310, 46.99349
934.1131, 48.88278
934.5952, 50.25249
935.0773, 51.71840
935.5594, 53.43651
936.0416, 55.82698
936.5237, 58.90376
937.0058, 61.94710
937.4879, 64.90615
937.9700, 67.95629
938.4521, 71.29530
938.9343, 74.44354
939.4164, 76.73632
939.8985, 79.47238
940.3806, 81.97832
940.8627, 83.67015
941.3448, 86.28389
941.8270, 87.62650
942.3091, 88.66331
942.7912, 90.13959
943.2733, 91.52278
943.7554, 91.74699
944.2375, 90.56049
944.7197, 89.98231
945.2018, 91.24181
945.6839, 92.03515
946.1660, 91.31275
946.6481, 89.88649
947.1302, 88.12561
947.6124, 86.35881
948.0945, 85.26660
948.5766, 85.17632
949.0587, 85.22575
949.5408, 84.91284
950.0229, 84.46100
950.5051, 83.86601
950.9872, 83.42220
951.4693, 83.70587
951.9514, 84.75986
952.4335, 86.07057
952.9156, 87.26324
953.3978, 88.94739
953.8799, 90.43457
954.3620, 92.71330
954.8441, 95.03966
955.3262, 97.43872
955.8083, 100.5712
956.2905, 104.7203
956.7726, 109.2127
957.2547, 113.1670
957.7368, 116.9204
958.2189, 122.1591
958.7010, 128.9671
959.1832, 136.7578
959.6653, 145.5665
960.1474, 154.6403
960.6295, 163.4921
961.1116, 172.6707
961.5938, 183.0749
962.0759, 194.6536
962.5580, 208.0720
963.0401, 223.7554
963.5222, 240.3166
964.0043, 257.9042
964.4865, 275.8297
964.9686, 293.2993
965.4507, 310.6004
965.9328, 328.5947
966.4149, 346.9641
966.8970, 366.8945
967.3792, 389.8568
967.8613, 412.6236
968.3434, 433.5861
968.8255, 454.2453
969.3076, 476.2154
969.7897, 499.3658
970.2719, 522.3273
970.7540, 544.9641
971.2361, 567.0459
971.7182, 588.4520
972.2003, 609.5248
972.6824, 630.1486
973.1646, 650.6002
973.6467, 672.2081
974.1288, 694.7111
974.6109, 714.9975
975.0930, 731.0334
975.5751, 744.4168
976.0573, 758.0099
976.5394, 769.3613
977.0215, 775.1553
977.5036, 775.1397
977.9857, 769.4352
978.4678, 758.2421
978.9500, 743.5132
979.4321, 727.6427
979.9142, 709.0958
980.3963, 683.9053
980.8784, 653.4839
981.3605, 622.6699
981.8427, 592.2292
982.3248, 561.8395
982.8069, 531.2434
983.2890, 501.5063
983.7711, 473.8355
984.2532, 448.2182
984.7354, 424.0861
985.2175, 401.4817
985.6996, 378.5764
986.1817, 354.5946
986.6638, 332.2684
987.1459, 313.7699
987.6281, 297.8231
988.1102, 281.5798
988.5923, 264.6921
989.0744, 249.5265
989.5565, 236.2207
990.0386, 224.1652
990.5208, 213.5862
991.0029, 203.6000
991.4850, 193.3649
991.9671, 183.2466
992.4492, 174.6561
992.9313, 168.5173
993.4135, 161.7448
993.8956, 153.2826
994.3777, 145.7031
994.8598, 139.5471
995.3419, 134.7382
995.8240, 131.7096
996.3062, 130.1626
996.7883, 128.1667
997.2704, 125.3111
997.7525, 122.4233
998.2346, 119.1781
998.7167, 116.3890
999.1989, 114.4559
999.6810, 113.1839
1000.163, 112.7236
1000.645, 112.8424
1001.127, 112.0389
1001.609, 108.9621
1002.092, 106.4280
1002.574, 105.6320
1003.056, 105.5674
1003.538, 105.8894
1004.020, 106.2242
1004.502, 106.1517
1004.984, 105.6483
1005.466, 104.8612
1005.948, 103.5131
1006.431, 102.4198
1006.913, 102.5973
1007.395, 103.0526
1007.877, 102.5090
1008.359, 101.2453
1008.841, 100.2424
1009.323, 99.77284
1009.805, 99.25484
1010.288, 98.26831
1010.770, 96.97731
1011.252, 95.41252
1011.734, 93.77176
1012.216, 92.39621
1012.698, 91.31479
1013.180, 90.49428
1013.662, 89.90799
1014.144, 89.27017
1014.627, 88.30969
1015.109, 87.08395
1015.591, 85.48111
1016.073, 83.73512
1016.555, 82.66068
1017.037, 82.31252
1017.519, 82.19777
1018.001, 82.07266
1018.484, 82.05019
1018.966, 82.53284
1019.448, 81.57590
1019.930, 82.13150
1020.412, 79.74252
1020.894, 77.74977
1021.376, 76.46866
1021.858, 75.49724
1022.340, 74.58679
1022.823, 74.03021
1023.305, 74.58093
1023.787, 75.99191
1024.269, 75.36617
1024.751, 72.52072
1025.233, 71.53735
1025.715, 73.51961
1026.197, 75.22417
1026.680, 74.52831
1027.162, 72.52463
1027.644, 71.28650
1028.126, 70.84219
1028.608, 69.87589
1029.090, 68.28452
1029.572, 66.71733
1030.054, 65.37033
1030.536, 63.89145
1031.019, 61.98257
1031.501, 59.84402
1031.983, 57.86125
1032.465, 56.05269
1032.947, 54.28743
1033.429, 52.40981
1033.911, 50.96872
1034.393, 50.13091
1034.875, 49.67546
1035.358, 49.60223
1035.840, 49.68469
1036.322, 49.30148
1036.804, 48.19168
1037.286, 47.91565
1037.768, 49.32652
1038.250, 50.01830
1038.732, 49.10014
1039.215, 47.78030
1039.697, 47.09793
1040.179, 45.41827
1040.661, 43.64702
1041.143, 42.11856
1041.625, 40.01779
1042.107, 37.68909
1042.589, 35.69141
1043.072, 33.39615
1043.554, 30.87184
1044.036, 28.04248
1044.518, 25.06526
1045.000, 22.29059
1045.482, 19.71890
1045.964, 17.41452
1046.446, 15.61459
1046.928, 13.78197
1047.411, 11.67741
1047.893, 9.593842
1048.375, 7.730850
1048.857, 6.049042
1049.339, 4.438705
1049.821, 2.876190
1050.303, 1.426178
1050.785, 9.8082997E-02
1051.267, 1.252594
1051.750, 1.921494
1052.232, 2.139832
1052.714, 1.441788
1053.196, 0.4367220
1053.678, 0.5810240
1054.160, 2.299408
1054.642, 3.653793
1055.124, 4.017555
1055.607, 4.177147
1056.089, 4.337822
1056.571, 4.480606
1057.053, 4.567360
1057.535, 4.620476
1058.017, 4.641785
1058.499, 4.604248
1058.981, 4.837471
1059.464, 6.198891
1059.946, 6.862740
1060.428, 5.779320
1060.910, 3.967888
1061.392, 1.753922
1061.874, 0.3331530
1062.356, 1.253799
1062.838, 0.7676470
1063.320, 0.5960920
1063.802, 1.854500
1064.285, 2.861778
1064.767, 2.800934
1065.249, 2.259460
1065.731, 1.492043
1066.213, 0.7462080
1066.695, 0.3903960
1067.177, 0.4871670
1067.659, 0.6834720
1068.142, 0.9702610
1068.624, 1.149216
1069.106, 1.009857
1069.588, 0.8359070
1070.070, 0.7644650
1070.552, 0.8744960
1071.034, 1.326218
1071.516, 2.118576
1071.999, 2.866951
1072.481, 3.494690
1072.963, 4.102066
1073.445, 4.730415
1073.927, 5.396889
1074.409, 6.116203
1074.891, 6.802567
1075.373, 7.167610
1075.855, 7.251083
1076.338, 7.719818
1076.820, 9.010628
1077.302, 10.45192
1077.784, 11.77506
1078.266, 13.05802
1078.748, 14.74164
1079.230, 16.23947
1079.712, 16.13567
1080.194, 14.69769
1080.677, 14.65847
1081.159, 18.03076
1081.641, 20.84808
1082.123, 20.79475
1082.605, 19.93987
1083.087, 19.72134
1083.569, 19.65160
1084.052, 18.72398
1084.534, 17.09077
1085.016, 16.12097
1085.498, 16.63520
1085.980, 16.84153
1086.462, 15.94707
1086.944, 14.51816
1087.426, 12.34085
1087.908, 10.18331
1088.391, 9.202286
1088.873, 9.156639
1089.355, 8.798157
1089.837, 7.701576
1090.319, 6.635391
1090.801, 5.788536
1091.283, 5.152672
1091.765, 4.955734
1092.247, 4.764038
1092.730, 3.833824
1093.212, 2.618271
1093.694, 2.401749
1094.176, 3.583466
1094.658, 4.775337
1095.140, 5.538788
1095.622, 6.172569
1096.104, 6.831474
1096.587, 7.398010
1097.069, 7.535622
1097.551, 7.572205
1098.033, 8.195450
1098.515, 9.541008
1098.997, 11.06624
1099.479, 12.84920
1099.961, 14.41491
1100.443, 15.56709
1100.926, 16.53832
1101.408, 17.36678
1101.890, 18.18990
1102.372, 19.22273
1102.854, 20.45199
1103.336, 21.56032
1103.818, 22.56903
1104.300, 23.32286
1104.782, 23.45808
1105.265, 23.71577
1105.747, 24.57141
1106.229, 25.73309
1106.711, 27.00083
1107.193, 28.25739
1107.675, 28.94239
1108.157, 28.74162
1108.639, 28.45464
1109.122, 28.26926
1109.604, 27.85744
1110.086, 26.97289
1110.568, 25.95255
1111.050, 25.16379
1111.532, 24.44814
1112.014, 23.26528
1112.496, 21.48898
1112.979, 19.61631
1113.461, 17.37261
1113.943, 15.44186
1114.425, 14.16376
1114.907, 13.09398
1115.389, 12.04578
1115.871, 10.93671
1116.353, 9.508888
1116.835, 7.626610
1117.318, 6.113602
1117.800, 5.215652
1118.282, 4.420868
1118.764, 3.789200
1119.246, 3.084846
1119.728, 1.927055
1120.210, 0.7492750
1120.692, 0.3921970
1121.174, 0.8352280
1121.657, 0.9674760
1122.139, 0.7183460
1122.621, 1.013806
1123.103, 0.5035780
1123.585, 1.006470
1124.067, 0.8853530
1124.549, 0.5439680
1125.031, 0.4431760
1125.514, 0.4873960
1125.996, 0.1736220
1126.478, 0.6251450
1126.960, 1.088150
1127.442, 1.174332
1127.924, 0.8974530
1128.406, 0.1066970
1128.888, 0.3643040
1129.370, 0.2807460
1129.853, 0.2330550
1130.335, 0.1485820
1130.817, 0.1451983
1131.299, 0.1573410
1131.781, 0.1764926
1132.263, 0.2140850
1132.745, 0.2974320
1133.227, 0.2917710
1133.709, 0.2246170
1134.192, 0.1651460
1134.674, 0.3939510
1135.156, 0.5271680
1135.638, 0.9282460
1136.120, 1.527214
1136.602, 1.788193
1137.084, 1.655441
1137.566, 1.192551
1138.049, 0.4333190
1138.531, 0.2948680
1139.013, 0.6856460
1139.495, 0.8328090
1139.977, 0.9360350
1140.459, 0.9366910
1140.941, 0.6830900
1141.423, 1.051311
1141.906, 0.5844960
1142.388, 1.566200
1142.870, 2.286102
1143.352, 2.455826
1143.834, 2.205956
1144.316, 1.213692
1144.798, 0.2558820
1145.280, 0.9296950
1145.762, 2.374855
1146.245, 2.870964
1146.727, 2.334206
1147.209, 1.403854
1147.691, 0.3357160
1148.173, 0.3791350
1148.655, 0.3096620
1149.137, 0.1952360
1149.619, 1.221436
1150.101, 2.201530
1150.584, 2.258064
1151.066, 1.816727
1151.548, 1.910538
1152.030, 2.662971
1152.512, 3.192200
1152.994, 3.029594
1153.476, 2.732567
1153.958, 2.479996
1154.441, 2.294365
1154.923, 2.211586
1155.405, 2.185349
1155.887, 1.993111
1156.369, 1.804405
1156.851, 2.320724
1157.333, 3.983368
1157.815, 5.144653
1158.297, 5.385910
1158.780, 5.161842
1159.262, 3.948135
1159.744, 2.983086
1160.226, 3.264481
1160.708, 4.358521
1161.190, 5.621986
1161.672, 7.089142
1162.154, 7.726395
1162.636, 7.062233
1163.119, 6.421463
1163.601, 5.618622
1164.083, 5.381233
1164.565, 6.405739
1165.047, 7.543129
1165.529, 7.551865
1166.011, 6.682816
1166.493, 5.938965
1166.976, 5.325844
1167.458, 4.724258
1167.940, 4.011353
1168.422, 4.080292
1168.904, 5.334648
1169.386, 6.344185
1169.868, 6.085358
1170.350, 5.324211
1170.833, 5.357376
1171.315, 6.019173
1171.797, 6.289154
1172.279, 6.222565
1172.761, 6.488579
1173.243, 7.126442
1173.725, 7.608627
1174.207, 7.736969
1174.689, 7.596344
1175.172, 7.194283
1175.654, 6.788872
1176.136, 6.968124
1176.618, 7.424759
1177.100, 7.472092
1177.582, 7.166534
1178.064, 6.553581
1178.546, 5.826469
1179.028, 5.846710
1179.511, 7.070152
1179.993, 8.088501
1180.475, 7.281082
1180.957, 6.096565
1181.439, 6.064827
1181.921, 6.528992
1182.403, 6.653503
1182.885, 6.495842
1183.368, 6.341545
1183.850, 6.306084
1184.332, 6.624657
1184.814, 7.744171
1185.296, 8.500397
1185.778, 8.249306
1186.260, 7.643303
1186.742, 6.677711
1187.224, 5.970444
1187.707, 6.308830
1188.189, 7.362518
1188.671, 7.735748
1189.153, 7.050812
1189.635, 6.564743
1190.117, 6.544205
1190.599, 6.289360
1191.081, 5.176056
1191.564, 4.600204
1192.046, 5.651848
1192.528, 7.256943
1193.010, 8.001122
1193.492, 7.966293
1193.974, 7.704117
1194.456, 7.114273
1194.938, 6.734344
1195.421, 6.608139
1195.903, 6.567879
1196.385, 6.602676
1196.867, 6.260452
1197.349, 5.080780
1197.831, 3.892792
1198.313, 4.533638
1198.795, 6.451698
1199.277, 6.719009
1199.760, 5.716171
1200.242, 5.401367
1200.724, 5.902390
1201.206, 6.214081
1201.688, 5.976074
1202.170, 5.889381
1202.652, 6.700279
1203.134, 7.594215
1203.616, 7.350235
1204.099, 6.585236
1204.581, 5.985588
1205.063, 5.629395
1205.545, 5.704498
1206.027, 6.062843
1206.509, 6.212379
1206.991, 5.972610
1207.473, 5.721016
1207.956, 5.728577
1208.438, 5.628006
1208.920, 5.113548
1209.402, 4.538315
1209.884, 3.887650
1210.366, 3.533630
1210.848, 4.290993
1211.330, 6.027473
1211.813, 7.042023
1212.295, 7.012589
1212.777, 6.520004
1213.259, 4.791435
1213.741, 3.948166
1214.223, 5.113129
1214.705, 6.379723
1215.187, 6.384964
1215.669, 5.733589
1216.151, 5.579918
1216.634, 5.865448
1217.116, 5.575569
1217.598, 4.650558
1218.080, 3.922783
1218.562, 3.459938
1219.044, 3.329865
1219.526, 3.558990
1220.008, 3.949089
1220.491, 4.386780
1220.973, 4.609772
1221.455, 3.857834
1221.937, 2.669487
1222.419, 2.419189
1222.901, 2.891518
1223.383, 3.761345
1223.865, 4.695351
1224.348, 4.678833
1224.830, 3.462776
1225.312, 2.524689
1225.794, 3.036568
1226.276, 3.841316
1226.758, 4.146172
1227.240, 4.267479
1227.722, 4.619644
1228.204, 4.852272
1228.687, 4.315590
1229.169, 3.237816
1229.651, 2.430588
1230.133, 2.022377
1230.615, 2.088951
1231.097, 3.370850
1231.579, 4.022812
1232.061, 3.080940
1232.543, 2.232910
1233.026, 2.350334
1233.508, 2.786568
1233.990, 2.808807
1234.472, 2.508926
1234.954, 2.458389
1235.436, 2.740906
1235.918, 2.511147
1236.400, 1.691376
1236.883, 1.367325
1237.365, 1.771080
1237.847, 2.250755
1238.329, 2.452278
1238.811, 2.586739
1239.293, 3.015549
1239.775, 3.362206
1240.257, 2.492493
1240.740, 1.105377
1241.222, 0.9625630
1241.704, 1.787880
1242.186, 2.745827
1242.668, 3.507233
1243.150, 3.742851
1243.632, 3.251770
1244.114, 2.698311
1244.596, 2.516754
1245.078, 2.441658
1245.561, 2.112129
1246.043, 2.010117
1246.525, 2.926109
1247.007, 4.118675
1247.489, 4.481110
1247.971, 4.002342
1248.453, 3.292145
1248.935, 2.101418
1249.418, 1.463699
1249.900, 1.761139
1250.382, 1.809364
1250.864, 1.072952
1251.346, 0.7448650
1251.828, 1.659210
1252.310, 2.917763
1252.792, 3.323563
1253.275, 3.059898
1253.757, 2.998535
1254.239, 3.083046
1254.721, 2.309853
1255.203, 0.8396070
1255.685, 0.5617900
1256.167, 1.708687
1256.649, 2.722740
1257.131, 2.829460
1257.614, 2.350723
1258.096, 1.247566
1258.578, 0.1967770
1259.060, 7.5378001E-02
1259.542, 0.4378200
1260.024, 0.9190670
1260.506, 1.281433
1260.988, 0.8995670
1261.470, 4.6303000E-02
1261.953, 0.2097240
1262.435, 2.141716
1262.917, 3.396332
1263.399, 2.908676
1263.881, 2.276367
1264.363, 1.637497
1264.845, 1.297394
1265.327, 1.466309
1265.810, 1.833916
1266.292, 2.072960
1266.774, 2.211426
1267.256, 2.403770
1267.738, 2.689964
1268.220, 2.469551
1268.702, 1.707916
1269.184, 1.559052
1269.667, 2.207359
1270.149, 2.695969
1270.631, 2.565666
1271.113, 2.048264
1271.595, 1.199348
1272.077, 0.4757310
1272.559, 0.6529690
1273.041, 1.165512
1273.523, 1.316063
1274.005, 1.183487
1274.488, 0.6627810
1274.970, 7.0270002E-03
1275.452, 0.2497020
1275.934, 7.0014998E-02
1276.416, 0.3017120
1276.898, 2.1706000E-02
1277.380, 0.1257710
1277.862, 0.5745540
1278.345, 1.071487
1278.827, 0.5048980
1279.309, 7.3982000E-02
1279.791, 0.2943730
1280.273, 1.186218
1280.755, 1.649590
1281.237, 1.665955
1281.719, 1.539482
1282.202, 1.442230
1282.684, 1.113274
1283.166, 0.6400380
1283.648, 0.5850070
1284.130, 1.298080
1284.612, 1.665276
1285.094, 0.9289550
1285.576, 4.8520002E-03
1286.058, 0.1677090
1286.541, 0.4153290
1287.023, 0.0000000E+00
##END=



