##NAMES=Fornacite
##RRUFFID=R060932
##IDEAL CHEMISTRY=Cu^2+^Pb^2+^_2_(Cr^6+^O_4_)(As^5+^O_4_)(OH)
##LOCALITY=Tiger, Arizona, USA
##OWNER=RRUFF
##SOURCE=Bob Jenkins
##DESCRIPTION=Groups of tabular olive-green crystals
##STATUS=The identification of this mineral is confirmed by single-crystal X-ray diffraction and chemical analysis.
##URL=rruff.info/R060932
##MEASURED CHEMISTRY=Cu_1.00_(Pb_1.99_Fe_0.01_)_Σ=2_(Cr_1.00_O_4_)((As_0.97_P_0.03_)_Σ=1_O_4_)(OH)
145.1518, 0.0000000E+00
145.6339, 40.49658
146.1160, 69.63623
146.5981, 89.53760
147.0802, 110.5842
147.5623, 134.5176
148.0445, 156.0950
148.5266, 166.4475
149.0087, 164.9363
149.4908, 162.5583
149.9729, 165.0811
150.4550, 167.7805
150.9372, 162.3108
151.4193, 146.1550
151.9014, 122.3760
152.3835, 93.09692
152.8656, 56.74756
153.3477, 28.14771
153.8299, 16.37866
154.3120, 16.60352
154.7941, 17.85791
155.2762, 18.23901
155.7583, 17.09399
156.2404, 11.55127
156.7226, 0.2993160
157.2047, 5.430664
157.6868, 3.532715
158.1689, 23.47290
158.6510, 39.85620
159.1331, 45.39258
159.6153, 50.15112
160.0974, 66.65796
160.5795, 95.87500
161.0616, 127.5535
161.5437, 156.6572
162.0258, 183.2595
162.5080, 207.9617
162.9901, 231.5286
163.4722, 252.4126
163.9543, 269.5342
164.4364, 282.9028
164.9185, 293.0564
165.4007, 299.5503
165.8828, 302.5811
166.3649, 305.3105
166.8470, 308.1792
167.3291, 311.3635
167.8112, 316.7563
168.2934, 325.2710
168.7755, 330.0823
169.2576, 323.2131
169.7397, 304.7224
170.2218, 288.7754
170.7039, 283.1428
171.1861, 278.3242
171.6682, 264.5579
172.1503, 240.2512
172.6324, 216.3074
173.1145, 204.9053
173.5966, 206.7688
174.0788, 206.7966
174.5609, 203.6382
175.0430, 196.4421
175.5251, 178.6851
176.0072, 149.7869
176.4893, 123.1797
176.9715, 111.9197
177.4536, 117.9082
177.9357, 126.7249
178.4178, 137.7837
178.8999, 146.6741
179.3820, 153.2668
179.8642, 158.0452
180.3463, 158.9363
180.8284, 149.4409
181.3105, 127.6719
181.7926, 112.6470
182.2747, 112.2104
182.7569, 117.7878
183.2390, 127.5752
183.7211, 139.6746
184.2032, 151.0493
184.6853, 162.6289
185.1674, 176.2771
185.6496, 183.1018
186.1317, 171.6511
186.6138, 158.8604
187.0959, 153.4956
187.5780, 159.7773
188.0601, 171.2852
188.5423, 178.9250
189.0244, 185.7280
189.5065, 188.8201
189.9886, 183.9155
190.4707, 174.4771
190.9528, 165.9268
191.4350, 151.8391
191.9171, 140.4409
192.3992, 149.8818
192.8813, 183.3184
193.3634, 208.7881
193.8455, 224.9131
194.3277, 234.6624
194.8098, 233.7107
195.2919, 219.6990
195.7740, 202.4915
196.2561, 196.7329
196.7382, 207.0647
197.2204, 214.7236
197.7025, 222.5962
198.1846, 229.1333
198.6667, 230.0081
199.1488, 224.1421
199.6309, 216.7422
200.1131, 219.1882
200.5952, 237.2263
201.0773, 241.9509
201.5594, 216.4536
202.0415, 192.9910
202.5236, 191.3748
203.0058, 210.0178
203.4879, 226.0791
203.9700, 209.7842
204.4521, 154.6543
204.9342, 126.7549
205.4163, 165.3569
205.8985, 204.0408
206.3806, 207.4048
206.8627, 177.9446
207.3448, 144.5164
207.8269, 136.3796
208.3090, 155.7944
208.7912, 165.9834
209.2733, 159.7886
209.7554, 149.4160
210.2375, 135.2969
210.7196, 119.6855
211.2017, 109.7371
211.6839, 115.3047
212.1660, 136.7988
212.6481, 150.7532
213.1302, 154.8855
213.6123, 152.7300
214.0944, 143.0732
214.5766, 128.1174
215.0587, 113.8728
215.5408, 105.6936
216.0229, 103.0991
216.5050, 97.82690
216.9871, 84.31104
217.4693, 75.22314
217.9514, 77.96606
218.4335, 89.21533
218.9156, 101.2407
219.3977, 111.2380
219.8798, 118.2437
220.3620, 114.7588
220.8441, 90.70996
221.3262, 70.48950
221.8083, 66.68726
222.2904, 73.26465
222.7725, 78.80493
223.2547, 76.79907
223.7368, 68.91748
224.2189, 60.26196
224.7010, 48.50610
225.1831, 40.28662
225.6652, 40.24097
226.1474, 44.55933
226.6295, 47.53760
227.1116, 46.02490
227.5937, 41.92651
228.0758, 40.53906
228.5579, 44.31445
229.0400, 44.75903
229.5222, 32.74414
230.0043, 17.41846
230.4864, 10.56909
230.9685, 18.69238
231.4506, 33.77515
231.9327, 42.92017
232.4149, 45.36279
232.8970, 44.63818
233.3791, 37.79028
233.8612, 30.25635
234.3433, 29.13989
234.8254, 38.87915
235.3076, 48.34497
235.7897, 39.00220
236.2718, 7.168213
236.7539, 14.98242
237.2360, 6.301514
237.7181, 11.79321
238.2003, 19.63159
238.6824, 13.02417
239.1645, 1.892822
239.6466, 5.735352
240.1287, 9.878906
240.6108, 10.52710
241.0930, 3.830566
241.5751, 3.251709
242.0572, 3.984863
242.5393, 2.280762
243.0214, 11.42847
243.5035, 22.91333
243.9857, 35.73047
244.4678, 43.60132
244.9499, 43.79614
245.4320, 39.99951
245.9141, 34.78271
246.3962, 28.14380
246.8784, 24.59912
247.3605, 30.83545
247.8426, 42.17432
248.3247, 44.22168
248.8068, 31.36377
249.2889, 16.03467
249.7711, 10.78662
250.2532, 14.14429
250.7353, 19.32275
251.2174, 25.88379
251.6995, 32.30029
252.1816, 35.91016
252.6638, 36.27026
253.1459, 34.85742
253.6280, 30.36133
254.1101, 24.24292
254.5922, 24.30273
255.0743, 41.08691
255.5565, 59.42017
256.0386, 60.98438
256.5207, 44.94458
257.0028, 27.65308
257.4849, 19.76147
257.9670, 20.87402
258.4492, 24.18262
258.9313, 34.09570
259.4134, 42.30151
259.8955, 40.33423
260.3776, 30.23657
260.8597, 23.91089
261.3419, 29.64331
261.8240, 43.34058
262.3061, 48.62451
262.7882, 42.33618
263.2703, 32.04858
263.7524, 16.75391
264.2346, 6.8359999E-03
264.7167, 10.73853
265.1988, 12.09790
265.6809, 5.602783
266.1630, 6.143311
266.6451, 31.64795
267.1273, 48.04224
267.6094, 45.87646
268.0915, 34.13330
268.5736, 23.99878
269.0557, 18.97803
269.5378, 16.73999
270.0200, 13.75610
270.5021, 9.940186
270.9842, 5.821289
271.4663, 4.160400
271.9484, 0.5815430
272.4305, 9.992432
272.9127, 27.81372
273.3948, 47.47729
273.8769, 63.07861
274.3590, 73.50122
274.8411, 82.95874
275.3232, 92.55444
275.8054, 100.6848
276.2875, 104.2822
276.7696, 105.0022
277.2517, 108.4412
277.7338, 119.4124
278.2159, 137.9524
278.6981, 157.1421
279.1802, 181.3511
279.6623, 201.6665
280.1444, 210.6431
280.6265, 214.6279
281.1086, 226.0022
281.5908, 253.4502
282.0729, 291.2661
282.5550, 312.7280
283.0371, 296.3567
283.5192, 293.7693
284.0013, 324.9429
284.4835, 368.3696
284.9656, 398.8025
285.4477, 405.9897
285.9298, 403.8914
286.4119, 421.6572
286.8940, 472.2864
287.3762, 508.7292
287.8583, 511.3152
288.3404, 507.3386
288.8225, 517.9678
289.3046, 546.6443
289.7867, 578.2776
290.2688, 594.5654
290.7509, 593.5168
291.2331, 598.5737
291.7152, 610.6685
292.1973, 631.9834
292.6794, 671.7908
293.1615, 724.9504
293.6436, 769.0139
294.1258, 777.8977
294.6079, 761.6294
295.0900, 770.2607
295.5721, 818.4595
296.0542, 867.2974
296.5363, 890.0320
297.0185, 894.9709
297.5006, 898.6216
297.9827, 905.1802
298.4648, 915.3740
298.9469, 933.2900
299.4290, 960.1914
299.9112, 982.4917
300.3933, 990.1465
300.8754, 988.2651
301.3575, 987.0347
301.8396, 987.1812
302.3217, 988.5356
302.8039, 990.2302
303.2860, 993.2520
303.7681, 1002.395
304.2502, 1023.386
304.7323, 1046.242
305.2144, 1049.633
305.6966, 1026.430
306.1787, 1009.564
306.6608, 1018.429
307.1429, 1038.675
307.6250, 1044.924
308.1071, 1029.860
308.5893, 1011.369
309.0714, 1012.223
309.5535, 1038.878
310.0356, 1060.651
310.5177, 1072.773
310.9998, 1083.042
311.4820, 1094.983
311.9641, 1110.103
312.4462, 1131.565
312.9283, 1162.390
313.4104, 1202.581
313.8925, 1240.265
314.3747, 1265.107
314.8568, 1301.250
315.3389, 1359.996
315.8210, 1434.059
316.3031, 1509.791
316.7852, 1579.202
317.2674, 1647.860
317.7495, 1733.739
318.2316, 1850.880
318.7137, 1968.437
319.1958, 2081.848
319.6779, 2194.364
320.1601, 2305.341
320.6422, 2416.581
321.1243, 2540.162
321.6064, 2694.421
322.0885, 2886.838
322.5706, 3083.997
323.0528, 3292.163
323.5349, 3499.562
324.0170, 3695.899
324.4991, 3883.115
324.9812, 4075.116
325.4633, 4286.956
325.9455, 4514.694
326.4276, 4730.812
326.9097, 4933.043
327.3918, 5124.300
327.8739, 5311.857
328.3560, 5489.867
328.8382, 5648.567
329.3203, 5780.314
329.8024, 5894.234
330.2845, 6006.373
330.7666, 6118.292
331.2487, 6214.179
331.7309, 6291.406
332.2130, 6345.861
332.6951, 6372.634
333.1772, 6366.758
333.6593, 6348.701
334.1414, 6320.360
334.6236, 6288.790
335.1057, 6275.144
335.5878, 6286.713
336.0699, 6312.269
336.5520, 6338.032
337.0341, 6363.344
337.5163, 6396.423
337.9984, 6427.272
338.4805, 6473.741
338.9626, 6557.307
339.4447, 6677.493
339.9268, 6813.618
340.4090, 6946.936
340.8911, 7078.329
341.3732, 7235.364
341.8553, 7417.693
342.3374, 7620.993
342.8195, 7852.338
343.3017, 8101.604
343.7838, 8352.275
344.2659, 8597.879
344.7480, 8834.948
345.2301, 9054.470
345.7122, 9244.533
346.1944, 9431.602
346.6765, 9623.240
347.1586, 9807.313
347.6407, 9985.938
348.1228, 10153.06
348.6049, 10283.25
349.0871, 10343.42
349.5692, 10326.72
350.0513, 10289.10
350.5334, 10244.61
351.0155, 10161.69
351.4977, 10023.94
351.9798, 9839.157
352.4619, 9623.219
352.9440, 9385.884
353.4261, 9124.457
353.9082, 8824.527
354.3904, 8474.624
354.8725, 8126.929
355.3546, 7806.755
355.8367, 7497.975
356.3188, 7181.154
356.8009, 6852.693
357.2831, 6520.962
357.7652, 6183.611
358.2473, 5844.784
358.7294, 5542.073
359.2115, 5288.380
359.6936, 5067.819
360.1758, 4865.941
360.6579, 4681.393
361.1400, 4501.896
361.6221, 4312.175
362.1042, 4132.750
362.5863, 3987.186
363.0685, 3876.823
363.5506, 3786.930
364.0327, 3708.193
364.5148, 3640.918
364.9969, 3587.303
365.4790, 3541.415
365.9612, 3513.228
366.4433, 3511.865
366.9254, 3529.493
367.4075, 3552.511
367.8896, 3575.094
368.3717, 3602.778
368.8539, 3647.459
369.3360, 3715.415
369.8181, 3792.249
370.3002, 3876.351
370.7823, 3968.685
371.2644, 4072.863
371.7465, 4186.740
372.2286, 4301.990
372.7108, 4411.061
373.1929, 4514.151
373.6750, 4626.681
374.1571, 4777.769
374.6392, 4898.192
375.1213, 4948.119
375.6035, 4959.201
376.0856, 4982.330
376.5677, 5045.004
377.0498, 5108.693
377.5319, 5119.314
378.0140, 5075.815
378.4962, 5006.816
378.9783, 4919.162
379.4604, 4806.296
379.9425, 4664.000
380.4246, 4491.508
380.9067, 4305.014
381.3889, 4113.504
381.8710, 3915.144
382.3531, 3701.345
382.8352, 3469.140
383.3173, 3234.879
383.7994, 3010.015
384.2816, 2797.078
384.7637, 2607.917
385.2458, 2458.403
385.7279, 2316.983
386.2100, 2170.202
386.6921, 2020.092
387.1743, 1871.184
387.6564, 1725.548
388.1385, 1587.392
388.6206, 1466.387
389.1027, 1367.248
389.5848, 1278.955
390.0670, 1209.350
390.5491, 1144.051
391.0312, 1069.698
391.5133, 987.4814
391.9954, 911.8838
392.4775, 855.0659
392.9597, 816.9443
393.4418, 786.9468
393.9239, 773.7771
394.4060, 756.4800
394.8881, 724.9229
395.3702, 686.3364
395.8524, 650.1431
396.3345, 619.7610
396.8166, 593.5786
397.2987, 570.3752
397.7808, 550.0574
398.2629, 530.0874
398.7451, 509.6499
399.2272, 489.4609
399.7093, 469.7119
400.1914, 450.2065
400.6735, 433.5781
401.1556, 421.1057
401.6378, 411.9229
402.1199, 406.1570
402.6020, 403.6511
403.0841, 399.6169
403.5662, 389.8115
404.0483, 375.5479
404.5305, 367.1089
405.0126, 373.6833
405.4947, 374.5142
405.9768, 361.5715
406.4589, 340.0710
406.9410, 315.1819
407.4232, 289.0461
407.9053, 265.9248
408.3874, 252.9255
408.8695, 254.8376
409.3516, 252.8191
409.8337, 248.3525
410.3159, 238.9583
410.7980, 218.9714
411.2801, 192.7634
411.7622, 170.5320
412.2443, 158.3181
412.7264, 154.3003
413.2086, 155.6294
413.6907, 166.5881
414.1728, 169.9670
414.6549, 151.7217
415.1370, 128.4050
415.6191, 115.0522
416.1013, 113.5002
416.5834, 110.1499
417.0655, 92.25928
417.5476, 66.06885
418.0297, 48.78516
418.5118, 43.91431
418.9940, 41.62329
419.4761, 32.49438
419.9582, 17.60059
420.4403, 9.354492
420.9224, 16.10645
421.4045, 22.22314
421.8867, 19.32837
422.3688, 9.771729
422.8509, 2.406982
423.3330, 16.29321
423.8151, 29.92480
424.2972, 39.92773
424.7794, 44.80249
425.2615, 48.18579
425.7436, 47.44897
426.2257, 47.68164
426.7078, 53.48682
427.1899, 63.45947
427.6721, 72.33643
428.1542, 76.28687
428.6363, 75.66479
429.1184, 71.22998
429.6005, 60.70215
430.0826, 50.87158
430.5648, 41.22534
431.0469, 34.34351
431.5290, 34.76929
432.0111, 44.12891
432.4932, 54.89331
432.9753, 62.54004
433.4575, 66.88232
433.9396, 66.62671
434.4217, 60.20264
434.9038, 54.37134
435.3859, 57.27002
435.8680, 67.13818
436.3502, 69.53662
436.8323, 58.46436
437.3144, 45.38770
437.7965, 31.98682
438.2786, 21.53467
438.7607, 23.92065
439.2429, 43.89526
439.7250, 68.70483
440.2071, 73.79688
440.6892, 46.61646
441.1713, 25.62329
441.6534, 14.09863
442.1356, 5.226074
442.6177, 5.102051
443.0998, 16.20093
443.5819, 24.79004
444.0640, 28.67041
444.5461, 28.51978
445.0283, 25.37085
445.5104, 17.14404
445.9925, 12.32104
446.4746, 16.52832
446.9567, 23.90625
447.4388, 29.94824
447.9210, 34.23291
448.4031, 37.13794
448.8852, 36.42969
449.3673, 35.64697
449.8494, 43.68896
450.3315, 62.29395
450.8137, 80.17285
451.2958, 88.17188
451.7779, 87.75537
452.2600, 91.65039
452.7421, 103.9871
453.2242, 115.5593
453.7064, 126.7510
454.1884, 134.1970
454.6706, 130.5349
455.1527, 114.4990
455.6348, 96.20776
456.1169, 89.84644
456.5990, 98.30737
457.0811, 104.2788
457.5633, 102.7725
458.0454, 103.7109
458.5275, 110.6699
459.0096, 122.1953
459.4917, 136.5554
459.9738, 154.4229
460.4560, 170.5537
460.9381, 175.7820
461.4202, 169.7793
461.9023, 163.7920
462.3844, 159.8401
462.8665, 157.5730
463.3487, 158.5735
463.8308, 162.4883
464.3129, 160.8828
464.7950, 141.9043
465.2771, 123.4302
465.7592, 127.7693
466.2414, 149.8420
466.7235, 163.4521
467.2056, 153.9934
467.6877, 129.8247
468.1698, 112.4307
468.6519, 104.0134
469.1341, 100.0603
469.6162, 104.0044
470.0983, 109.6570
470.5804, 115.4414
471.0625, 119.2476
471.5446, 115.4954
472.0268, 96.62646
472.5089, 68.46655
472.9910, 58.29443
473.4731, 74.20166
473.9552, 88.03662
474.4373, 86.46606
474.9195, 80.30444
475.4016, 78.40576
475.8837, 81.87427
476.3658, 88.98413
476.8479, 104.0144
477.3300, 120.5217
477.8122, 125.1125
478.2943, 116.1721
478.7764, 102.3889
479.2585, 87.54736
479.7406, 73.31055
480.2227, 70.77075
480.7049, 90.35156
481.1870, 106.1938
481.6691, 111.1995
482.1512, 110.3181
482.6333, 108.3853
483.1154, 106.8379
483.5976, 106.0808
484.0797, 106.9680
484.5618, 109.3032
485.0439, 105.8914
485.5260, 87.77344
486.0081, 77.50488
486.4903, 92.28540
486.9724, 114.7847
487.4545, 120.2219
487.9366, 98.93555
488.4187, 76.47070
488.9008, 79.73169
489.3830, 100.4912
489.8651, 107.7607
490.3472, 93.82104
490.8293, 79.91089
491.3114, 88.72070
491.7935, 118.0195
492.2757, 125.3413
492.7578, 87.71606
493.2399, 53.82690
493.7220, 45.69751
494.2041, 52.12500
494.6862, 56.56934
495.1684, 53.65356
495.6505, 50.13843
496.1326, 56.84253
496.6147, 76.34155
497.0968, 80.88916
497.5789, 58.13696
498.0611, 34.86182
498.5432, 18.33276
499.0253, 8.690186
499.5074, 9.205322
499.9895, 23.84106
500.4716, 38.66870
500.9538, 34.89575
501.4359, 16.86597
501.9180, 8.564209
502.4001, 16.67944
502.8822, 27.85522
503.3643, 29.69897
503.8465, 22.20581
504.3286, 14.88867
504.8107, 4.168213
505.2928, 1.928711
505.7749, 2.825928
506.2570, 13.72583
506.7392, 23.67944
507.2213, 30.22021
507.7034, 34.96533
508.1855, 40.21851
508.6676, 46.35059
509.1497, 49.22437
509.6319, 47.35352
510.1140, 43.82739
510.5961, 36.73633
511.0782, 29.18945
511.5603, 26.95020
512.0424, 33.05615
512.5245, 41.81738
513.0067, 48.54175
513.4888, 52.44800
513.9709, 50.74365
514.4530, 42.04565
514.9351, 32.10010
515.4172, 25.58813
515.8994, 22.69897
516.3815, 21.83911
516.8636, 26.66382
517.3457, 29.37305
517.8278, 24.08447
518.3099, 16.08276
518.7921, 12.31909
519.2742, 14.81274
519.7563, 21.63696
520.2384, 32.16138
520.7205, 47.07690
521.2026, 54.60938
521.6848, 49.90405
522.1669, 44.66479
522.6490, 41.81592
523.1311, 41.53149
523.6132, 45.12524
524.0953, 53.98389
524.5775, 61.82129
525.0596, 62.67334
525.5417, 59.12671
526.0238, 57.92798
526.5059, 60.22437
526.9880, 61.33643
527.4702, 56.94287
527.9523, 47.90723
528.4344, 43.25439
528.9165, 46.41992
529.3986, 48.90234
529.8807, 50.03687
530.3629, 48.33325
530.8450, 41.49414
531.3271, 31.19873
531.8092, 23.09692
532.2913, 22.93359
532.7734, 29.06641
533.2556, 31.62476
533.7377, 30.01660
534.2198, 26.92725
534.7019, 18.54517
535.1840, 12.13574
535.6661, 18.78882
536.1483, 41.91748
536.6304, 58.97363
537.1125, 54.26489
537.5946, 40.88525
538.0767, 34.62183
538.5588, 36.99927
539.0410, 44.05493
539.5231, 54.24731
540.0052, 65.00195
540.4873, 67.87402
540.9694, 55.52734
541.4515, 47.05200
541.9337, 44.93384
542.4158, 45.10083
542.8979, 46.93091
543.3800, 48.65332
543.8621, 45.90210
544.3442, 33.22681
544.8264, 19.31128
545.3085, 23.39990
545.7906, 45.43872
546.2727, 60.13794
546.7548, 60.05273
547.2369, 51.42554
547.7191, 37.56812
548.2012, 17.58179
548.6833, 7.625977
549.1654, 20.15649
549.6475, 33.27588
550.1296, 34.32129
550.6118, 26.44751
551.0939, 14.46802
551.5760, 0.9692380
552.0581, 8.687012
552.5402, 5.129150
553.0223, 14.51245
553.5045, 29.86304
553.9866, 45.93677
554.4687, 50.60059
554.9508, 27.48950
555.4329, 6.140625
555.9150, 21.38428
556.3972, 6.827881
556.8793, 13.69995
557.3614, 23.82837
557.8435, 28.31934
558.3256, 38.96167
558.8077, 57.08618
559.2899, 66.77734
559.7720, 52.60425
560.2541, 19.63403
560.7362, 4.632813
561.2183, 28.11914
561.7004, 43.44873
562.1826, 43.88208
562.6647, 36.69409
563.1468, 24.16919
563.6289, 9.762207
564.1110, 1.300049
564.5931, 8.253906
565.0753, 22.66431
565.5574, 23.91675
566.0395, 11.07080
566.5216, 1.591553
567.0037, 10.47314
567.4858, 15.13232
567.9680, 12.00488
568.4501, 0.3618160
568.9322, 4.662598
569.4143, 10.77783
569.8964, 25.90649
570.3785, 28.09326
570.8607, 20.61328
571.3428, 10.63086
571.8249, 1.138428
572.3070, 7.662842
572.7891, 16.06470
573.2712, 24.49854
573.7534, 28.87354
574.2355, 27.44580
574.7176, 24.64575
575.1997, 19.36768
575.6818, 15.02173
576.1639, 18.96484
576.6461, 36.98535
577.1282, 51.26538
577.6103, 49.49390
578.0924, 38.42065
578.5745, 25.41089
579.0566, 12.49756
579.5388, 6.428955
580.0209, 13.19727
580.5030, 29.58130
580.9851, 40.40234
581.4672, 43.20874
581.9493, 44.25122
582.4315, 42.43970
582.9136, 40.57251
583.3957, 41.41260
583.8778, 44.10400
584.3599, 44.83081
584.8420, 40.02759
585.3242, 33.99121
585.8063, 32.27612
586.2884, 34.44336
586.7705, 39.71118
587.2526, 49.37915
587.7347, 54.94141
588.2169, 44.01392
588.6990, 13.46802
589.1811, 1.444580
589.6632, 8.592285
590.1453, 21.62158
590.6274, 35.53809
591.1096, 46.56812
591.5917, 49.04272
592.0738, 42.53174
592.5559, 35.23535
593.0380, 34.40332
593.5201, 39.45361
594.0023, 48.79565
594.4844, 63.41113
594.9665, 74.83008
595.4486, 80.01733
595.9307, 79.43262
596.4128, 71.36157
596.8950, 52.28931
597.3771, 42.03882
597.8592, 51.22998
598.3413, 62.97192
598.8234, 68.45264
599.3055, 67.29834
599.7877, 57.79102
600.2698, 39.01025
600.7519, 22.32983
601.2340, 30.47412
601.7161, 65.30322
602.1982, 81.84351
602.6804, 67.32812
603.1625, 54.15234
603.6446, 65.18652
604.1267, 89.58618
604.6088, 108.5894
605.0909, 121.5413
605.5731, 126.1274
606.0552, 113.5303
606.5373, 97.11035
607.0194, 93.62793
607.5015, 101.7483
607.9836, 106.7595
608.4658, 98.52319
608.9479, 83.27856
609.4300, 78.83276
609.9121, 89.09399
610.3942, 96.06104
610.8763, 93.53101
611.3585, 91.93506
611.8406, 103.1755
612.3227, 120.4646
612.8048, 123.8684
613.2869, 98.07153
613.7690, 72.28589
614.2512, 69.07300
614.7333, 78.11890
615.2154, 81.43359
615.6975, 76.34033
616.1796, 72.22388
616.6617, 77.12476
617.1439, 89.45459
617.6260, 100.1570
618.1081, 108.9414
618.5902, 116.2227
619.0723, 126.5464
619.5544, 131.9402
620.0366, 121.8965
620.5187, 100.3652
621.0008, 85.92480
621.4829, 90.77075
621.9650, 101.4150
622.4471, 104.3347
622.9293, 103.3201
623.4114, 110.5981
623.8935, 129.1072
624.3756, 145.4082
624.8577, 145.0225
625.3398, 128.4568
625.8220, 114.0847
626.3041, 98.10913
626.7862, 90.84326
627.2683, 99.41748
627.7504, 112.0681
628.2325, 120.4863
628.7147, 124.1633
629.1968, 125.3699
629.6789, 121.0100
630.1610, 117.7834
630.6431, 125.2859
631.1252, 141.0322
631.6074, 156.7908
632.0895, 170.1045
632.5716, 179.7402
633.0537, 184.4109
633.5358, 184.2424
634.0179, 177.0085
634.5001, 149.6167
634.9822, 132.5583
635.4643, 138.0864
635.9464, 152.4321
636.4285, 165.1765
636.9106, 174.0564
637.3928, 175.8684
637.8749, 161.6943
638.3570, 143.9707
638.8391, 140.0195
639.3212, 147.5819
639.8033, 155.8994
640.2855, 161.2581
640.7676, 165.2687
641.2497, 170.3336
641.7318, 176.9396
642.2139, 179.9048
642.6960, 174.0706
643.1782, 171.1854
643.6603, 174.5455
644.1424, 182.0186
644.6245, 192.9750
645.1066, 206.7151
645.5887, 216.9355
646.0709, 221.7987
646.5530, 219.7686
647.0351, 203.0107
647.5172, 176.4832
647.9993, 160.6736
648.4814, 163.5715
648.9636, 176.2698
649.4457, 187.6957
649.9278, 198.5055
650.4099, 202.7854
650.8920, 188.6702
651.3741, 183.5637
651.8563, 201.6372
652.3384, 227.0636
652.8205, 245.2225
653.3026, 253.7285
653.7847, 254.9287
654.2668, 241.9736
654.7490, 227.8312
655.2311, 232.4482
655.7132, 250.6731
656.1953, 261.1394
656.6774, 255.7876
657.1595, 244.8708
657.6417, 242.2026
658.1238, 249.0237
658.6059, 253.5922
659.0880, 254.2943
659.5701, 255.1267
660.0522, 259.8014
660.5343, 263.2218
661.0164, 257.6311
661.4985, 243.0856
661.9807, 235.1337
662.4628, 244.2954
662.9449, 259.9513
663.4270, 277.1394
663.9091, 292.3030
664.3912, 294.8159
664.8734, 281.7437
665.3555, 265.3457
665.8376, 259.9685
666.3197, 265.0942
666.8018, 271.1786
667.2839, 282.1328
667.7661, 288.4517
668.2482, 280.4712
668.7303, 270.1694
669.2124, 270.2122
669.6945, 280.5516
670.1766, 287.1980
670.6588, 281.1399
671.1409, 273.9124
671.6230, 275.8792
672.1051, 283.0219
672.5872, 286.2048
673.0693, 282.6539
673.5515, 277.0953
674.0336, 274.9377
674.5157, 276.9570
674.9978, 282.8706
675.4799, 292.9290
675.9620, 304.0273
676.4442, 314.4025
676.9263, 324.2401
677.4084, 338.6750
677.8905, 357.1154
678.3726, 364.0651
678.8547, 344.8979
679.3369, 328.4777
679.8190, 331.2758
680.3011, 341.1357
680.7832, 342.0088
681.2653, 331.4945
681.7474, 318.4456
682.2296, 310.3967
682.7117, 308.7731
683.1938, 312.2356
683.6759, 319.4784
684.1580, 326.4830
684.6401, 330.8291
685.1223, 337.0054
685.6044, 353.2633
686.0865, 378.2534
686.5686, 389.9404
687.0507, 377.7891
687.5328, 369.3994
688.0150, 368.2571
688.4971, 370.3003
688.9792, 373.5410
689.4613, 376.1235
689.9434, 376.3347
690.4255, 374.6439
690.9077, 373.3187
691.3898, 370.3026
691.8719, 365.7195
692.3540, 367.2607
692.8361, 377.1979
693.3182, 388.3813
693.8004, 395.8478
694.2825, 398.8848
694.7646, 396.8815
695.2467, 385.4231
695.7288, 380.2999
696.2109, 387.5876
696.6931, 392.6830
697.1752, 387.5364
697.6573, 376.4401
698.1394, 366.4221
698.6215, 358.7821
699.1036, 356.5304
699.5858, 369.7975
700.0679, 382.9147
700.5500, 370.0942
701.0321, 336.9609
701.5142, 312.3517
701.9963, 310.0723
702.4785, 319.5369
702.9606, 324.8247
703.4427, 326.1012
703.9248, 322.0007
704.4069, 309.7930
704.8890, 297.5537
705.3712, 286.9148
705.8533, 278.9861
706.3354, 276.6438
706.8175, 281.0132
707.2996, 281.3506
707.7817, 269.9207
708.2639, 258.9709
708.7460, 256.1790
709.2281, 258.8921
709.7102, 264.1858
710.1923, 270.4514
710.6744, 273.3201
711.1566, 267.2754
711.6387, 255.3640
712.1208, 248.1714
712.6029, 245.8545
713.0850, 237.7280
713.5671, 217.3174
714.0493, 199.8447
714.5314, 205.0359
715.0135, 232.5562
715.4956, 241.1895
715.9777, 211.6055
716.4598, 189.7222
716.9420, 187.9609
717.4241, 191.6736
717.9062, 190.0415
718.3883, 183.1133
718.8704, 175.8188
719.3525, 169.8662
719.8347, 165.2937
720.3168, 164.5671
720.7989, 164.7383
721.2810, 158.6855
721.7631, 145.9775
722.2452, 131.7051
722.7274, 118.7078
723.2095, 108.1462
723.6916, 105.3838
724.1737, 115.5112
724.6558, 111.2561
725.1379, 79.42358
725.6201, 50.55811
726.1022, 44.75586
726.5843, 51.27539
727.0664, 53.78149
727.5485, 50.00269
728.0306, 47.19458
728.5128, 53.81396
728.9949, 55.97852
729.4770, 36.60938
729.9591, 7.532227
730.4412, 6.659424
730.9233, 1.000977
731.4055, 12.30591
731.8876, 6.926758
732.3697, 9.577393
732.8518, 21.05542
733.3339, 27.47534
733.8160, 23.07056
734.2982, 2.813965
734.7803, 18.13892
735.2624, 21.85815
735.7445, 7.774170
736.2266, 4.304443
736.7087, 12.82861
737.1909, 21.55420
737.6730, 36.98511
738.1551, 47.72852
738.6372, 36.99976
739.1193, 12.36108
739.6014, 5.004883
740.0836, 36.89087
740.5657, 71.06250
741.0478, 83.43457
741.5299, 80.44482
742.0120, 64.77563
742.4941, 41.67554
742.9763, 27.64551
743.4584, 32.81738
743.9405, 51.52832
744.4226, 77.46069
744.9047, 111.2527
745.3868, 130.6938
745.8690, 133.1621
746.3511, 123.7996
746.8332, 97.36230
747.3153, 66.75293
747.7974, 59.37744
748.2795, 86.27930
748.7617, 98.10669
749.2438, 77.58496
749.7259, 59.97363
750.2080, 63.53223
750.6901, 75.26392
751.1722, 76.17847
751.6544, 64.47729
752.1365, 57.53809
752.6186, 73.95776
753.1007, 95.49072
753.5828, 98.01025
754.0649, 87.38672
754.5471, 78.63013
755.0292, 75.63184
755.5113, 77.99194
755.9934, 87.33862
756.4755, 98.87134
756.9576, 90.96753
757.4398, 56.99463
757.9219, 34.79541
758.4040, 35.54468
758.8861, 39.76196
759.3682, 33.66455
759.8503, 20.69434
760.3325, 11.94751
760.8146, 10.13501
761.2967, 7.156494
761.7788, 0.1943360
762.2609, 6.588867
762.7430, 8.891846
763.2252, 9.712158
763.7073, 14.42578
764.1894, 24.59351
764.6715, 37.46362
765.1536, 50.08008
765.6357, 63.77368
766.1179, 84.35938
766.6000, 108.9443
767.0821, 123.9485
767.5642, 125.3494
768.0463, 124.4412
768.5284, 132.8928
769.0106, 149.7280
769.4927, 169.5596
769.9748, 195.8677
770.4569, 212.8533
770.9390, 207.0552
771.4211, 204.8440
771.9033, 234.3550
772.3854, 286.1033
772.8675, 321.7795
773.3496, 325.7119
773.8317, 336.4480
774.3138, 374.2261
774.7960, 409.4810
775.2781, 416.2522
775.7602, 406.0110
776.2423, 403.2278
776.7244, 416.0334
777.2065, 435.6067
777.6887, 456.0581
778.1708, 477.7112
778.6529, 503.9905
779.1350, 532.3213
779.6171, 552.0510
780.0992, 559.6802
780.5814, 563.9414
781.0635, 572.5337
781.5456, 587.1143
782.0277, 620.9404
782.5098, 680.2961
782.9919, 729.1172
783.4741, 755.6570
783.9562, 778.2288
784.4383, 814.3872
784.9204, 859.8604
785.4025, 891.4097
785.8846, 893.9995
786.3668, 906.9771
786.8489, 939.4961
787.3310, 977.1187
787.8131, 1010.480
788.2952, 1043.025
788.7773, 1085.866
789.2595, 1142.750
789.7416, 1190.532
790.2237, 1196.681
790.7058, 1196.228
791.1879, 1236.906
791.6700, 1307.854
792.1522, 1376.525
792.6343, 1432.271
793.1164, 1475.375
793.5985, 1501.023
794.0806, 1518.197
794.5627, 1562.949
795.0449, 1637.169
795.5270, 1713.880
796.0091, 1788.397
796.4912, 1865.471
796.9733, 1947.632
797.4554, 2034.717
797.9376, 2126.815
798.4197, 2230.448
798.9018, 2327.153
799.3839, 2419.349
799.8660, 2505.487
800.3481, 2568.490
800.8303, 2632.389
801.3124, 2734.331
801.7945, 2880.930
802.2766, 3037.594
802.7587, 3201.570
803.2408, 3357.918
803.7230, 3489.389
804.2051, 3611.027
804.6872, 3741.727
805.1693, 3887.445
805.6514, 4051.042
806.1335, 4237.353
806.6157, 4435.124
807.0978, 4617.410
807.5799, 4793.270
808.0620, 5015.588
808.5441, 5291.892
809.0262, 5565.236
809.5084, 5802.382
809.9905, 6020.695
810.4726, 6254.641
810.9547, 6503.268
811.4368, 6776.697
811.9189, 7092.914
812.4011, 7400.167
812.8832, 7672.493
813.3653, 7932.385
813.8474, 8209.289
814.3295, 8504.907
814.8116, 8795.054
815.2938, 9059.354
815.7759, 9343.041
816.2580, 9665.958
816.7401, 10007.21
817.2222, 10357.47
817.7043, 10708.29
818.1865, 11041.10
818.6686, 11343.59
819.1507, 11643.21
819.6328, 11976.23
820.1149, 12306.26
820.5970, 12582.74
821.0792, 12809.22
821.5613, 13008.68
822.0434, 13190.77
822.5255, 13367.55
823.0076, 13556.46
823.4897, 13750.14
823.9718, 13914.03
824.4539, 14048.69
824.9360, 14177.10
825.4182, 14309.83
825.9003, 14413.51
826.3824, 14456.22
826.8645, 14447.79
827.3466, 14432.63
827.8287, 14407.94
828.3109, 14384.22
828.7930, 14381.76
829.2751, 14354.79
829.7572, 14268.05
830.2393, 14148.28
830.7214, 14033.00
831.2036, 13925.29
831.6857, 13817.33
832.1678, 13730.71
832.6499, 13617.72
833.1320, 13431.99
833.6141, 13225.28
834.0963, 13063.80
834.5784, 12944.49
835.0605, 12806.22
835.5426, 12616.40
836.0247, 12402.38
836.5068, 12175.09
836.9890, 11947.74
837.4711, 11748.69
837.9532, 11571.48
838.4353, 11385.47
838.9174, 11175.82
839.3995, 10944.58
839.8817, 10683.71
840.3638, 10402.58
840.8459, 10143.16
841.3280, 9904.107
841.8101, 9672.371
842.2922, 9444.188
842.7744, 9215.321
843.2565, 8980.892
843.7386, 8740.859
844.2207, 8491.740
844.7028, 8221.968
845.1849, 7979.289
845.6671, 7784.334
846.1492, 7590.511
846.6313, 7366.342
847.1134, 7128.620
847.5955, 6911.863
848.0776, 6722.840
848.5598, 6525.874
849.0419, 6301.350
849.5240, 6088.962
850.0061, 5908.036
850.4882, 5743.528
850.9703, 5572.158
851.4525, 5398.175
851.9346, 5251.743
852.4167, 5162.243
852.8988, 5073.525
853.3809, 4937.332
853.8630, 4791.442
854.3452, 4683.980
854.8273, 4606.777
855.3094, 4525.125
855.7915, 4425.539
856.2736, 4323.516
856.7557, 4234.668
857.2379, 4154.740
857.7200, 4069.550
858.2021, 3984.566
858.6842, 3930.342
859.1663, 3913.561
859.6484, 3895.969
860.1306, 3841.903
860.6127, 3775.391
861.0948, 3776.362
861.5769, 3852.726
862.0590, 3876.496
862.5411, 3825.029
863.0233, 3772.774
863.5054, 3751.993
863.9875, 3754.447
864.4696, 3769.785
864.9517, 3800.463
865.4338, 3834.109
865.9160, 3869.236
866.3981, 3904.740
866.8802, 3936.351
867.3623, 3974.076
867.8444, 4031.543
868.3265, 4100.668
868.8087, 4154.548
869.2908, 4181.771
869.7729, 4213.757
870.2550, 4253.819
870.7371, 4302.823
871.2192, 4371.729
871.7014, 4443.811
872.1835, 4494.685
872.6656, 4522.937
873.1477, 4551.032
873.6298, 4598.346
874.1119, 4641.897
874.5941, 4658.132
875.0762, 4659.415
875.5583, 4664.355
876.0404, 4674.124
876.5225, 4683.327
877.0046, 4691.076
877.4868, 4689.031
877.9689, 4659.885
878.4510, 4614.450
878.9331, 4579.267
879.4152, 4551.506
879.8973, 4515.239
880.3795, 4463.919
880.8616, 4401.197
881.3437, 4330.372
881.8258, 4258.388
882.3079, 4206.711
882.7900, 4173.271
883.2722, 4102.507
883.7543, 3980.765
884.2364, 3879.446
884.7185, 3844.664
885.2006, 3829.030
885.6827, 3747.826
886.1649, 3593.795
886.6470, 3465.368
887.1291, 3366.353
887.6112, 3285.906
888.0933, 3236.256
888.5754, 3187.453
889.0576, 3111.362
889.5397, 3014.875
890.0218, 2927.934
890.5039, 2852.637
890.9860, 2783.786
891.4681, 2730.460
891.9503, 2672.343
892.4324, 2607.494
892.9145, 2529.271
893.3966, 2421.641
893.8787, 2286.219
894.3608, 2168.169
894.8430, 2091.488
895.3251, 2017.952
895.8072, 1928.858
896.2893, 1838.512
896.7714, 1763.075
897.2535, 1697.418
897.7357, 1627.563
898.2178, 1547.920
898.6999, 1459.397
899.1820, 1351.229
899.6641, 1246.374
900.1462, 1166.886
900.6284, 1107.155
901.1105, 1063.411
901.5926, 1029.364
902.0747, 986.3401
902.5568, 921.5801
903.0389, 850.1116
903.5211, 791.3940
904.0032, 739.9253
904.4853, 678.4668
904.9674, 610.3533
905.4495, 559.1277
905.9316, 533.4197
906.4138, 515.6865
906.8959, 488.3079
907.3780, 452.8650
907.8601, 411.6506
908.3422, 365.5789
908.8243, 326.3535
909.3065, 295.4456
909.7886, 269.2886
910.2707, 246.4539
910.7528, 224.2358
911.2349, 197.0857
911.7170, 164.5056
912.1992, 142.3254
912.6813, 135.2261
913.1634, 116.7766
913.6455, 75.52881
914.1276, 33.22412
914.6097, 7.038330
915.0919, 5.076904
915.5740, 9.356934
916.0561, 2.6366999E-02
916.5382, 2.456055
917.0203, 4.109131
917.5024, 14.32227
917.9846, 29.89038
918.4667, 44.75513
918.9488, 50.43384
919.4309, 47.55078
919.9130, 49.55469
920.3951, 62.74512
920.8773, 71.37573
921.3594, 62.63159
921.8415, 60.52515
922.3236, 91.31616
922.8057, 132.0527
923.2878, 141.4702
923.7700, 112.6572
924.2521, 90.58667
924.7342, 90.58667
925.2163, 93.91675
925.6984, 92.73877
926.1805, 91.73389
926.6627, 97.90576
927.1448, 107.6785
927.6269, 111.4683
928.1090, 106.6296
928.5911, 95.28174
929.0732, 66.48120
929.5554, 43.54199
930.0375, 48.02783
930.5196, 67.95508
931.0017, 93.21191
931.4838, 116.6880
931.9659, 121.0725
932.4481, 92.14038
932.9302, 57.13599
933.4123, 31.25488
933.8944, 18.48291
934.3765, 31.96167
934.8586, 61.30518
935.3408, 83.86035
935.8229, 92.95752
936.3050, 91.65503
936.7871, 83.23242
937.2692, 64.26367
937.7513, 12.88037
938.2335, 47.01978
938.7156, 51.00317
939.1977, 5.759521
939.6798, 29.16602
940.1619, 28.66406
940.6440, 14.20312
941.1262, 6.862061
941.6083, 5.291748
942.0904, 8.315430
942.5725, 14.51050
943.0546, 16.17212
943.5367, 12.20776
944.0189, 6.578369
944.5010, 1.423096
944.9831, 2.558838
945.4652, 3.193848
945.9473, 1.375977
946.4294, 4.597168
946.9116, 12.62891
947.3937, 16.35840
947.8758, 13.15381
948.3579, 10.63208
948.8400, 14.76904
949.3221, 23.50073
949.8043, 31.80371
950.2864, 39.54565
950.7685, 48.56445
951.2506, 59.08691
951.7327, 70.09473
952.2148, 81.56250
952.6970, 92.66919
953.1791, 103.8403
953.6612, 113.0327
954.1433, 107.5820
954.6254, 79.68213
955.1075, 77.33911
955.5897, 114.7319
956.0718, 144.0730
956.5539, 142.0730
957.0360, 128.3726
957.5181, 126.1626
958.0002, 135.2805
958.4824, 152.0189
958.9645, 185.6381
959.4466, 201.4193
959.9287, 185.5679
960.4108, 170.0973
960.8929, 170.0912
961.3751, 181.2056
961.8572, 200.2439
962.3393, 228.9546
962.8214, 237.8879
963.3035, 208.7225
963.7856, 192.3555
964.2678, 202.4048
964.7499, 218.4595
965.2320, 231.2081
965.7141, 240.8024
966.1962, 246.8259
966.6783, 248.4821
967.1605, 250.5120
967.6426, 251.0795
968.1247, 254.2067
968.6068, 263.1816
969.0889, 272.8131
969.5710, 281.7987
970.0532, 288.1602
970.5353, 285.2756
971.0174, 266.7700
971.4995, 261.4453
971.9816, 287.2145
972.4637, 306.1110
972.9459, 299.2424
973.4280, 287.4468
973.9101, 290.7584
974.3922, 304.1195
974.8743, 308.3297
975.3564, 295.9865
975.8386, 288.7211
976.3207, 288.3269
976.8028, 296.1674
977.2849, 322.7899
977.7670, 350.2214
978.2491, 360.8765
978.7313, 355.9719
979.2134, 344.2545
979.6955, 318.4849
980.1776, 305.3193
980.6597, 324.3113
981.1418, 343.1890
981.6240, 343.1208
982.1061, 336.6815
982.5882, 341.5137
983.0703, 355.4689
983.5524, 357.9186
984.0345, 334.4598
984.5167, 317.0377
984.9988, 319.3276
985.4809, 327.3633
985.9630, 340.5823
986.4451, 350.3982
986.9272, 344.0944
987.4094, 322.4211
987.8915, 301.8639
988.3736, 282.5354
988.8557, 272.2158
989.3378, 280.5546
989.8199, 293.1927
990.3020, 307.1321
990.7841, 317.4277
991.2662, 313.9355
991.7484, 296.6167
992.2305, 280.8872
992.7126, 271.0062
993.1947, 265.0454
993.6768, 266.5688
994.1589, 269.5100
994.6411, 264.8094
995.1232, 260.7606
995.6053, 276.9100
996.0874, 312.9205
996.5695, 335.8801
997.0516, 320.9692
997.5338, 303.7998
998.0159, 307.2877
998.4980, 313.8997
998.9801, 303.4413
999.4622, 286.3344
999.9443, 284.5229
1000.426, 300.4088
1000.909, 312.2184
1001.391, 307.3099
1001.873, 301.2190
1002.355, 305.0239
1002.837, 307.2303
1003.319, 293.2078
1003.801, 271.9943
1004.283, 261.5592
1004.766, 265.1007
1005.248, 269.4750
1005.730, 269.5718
1006.212, 267.7979
1006.694, 262.5647
1007.176, 259.5291
1007.658, 265.6893
1008.140, 276.3638
1008.622, 284.5825
1009.105, 288.6191
1009.587, 284.9896
1010.069, 264.7902
1010.551, 246.2262
1011.033, 235.2585
1011.515, 231.7612
1011.997, 244.4045
1012.479, 259.3622
1012.961, 248.9786
1013.444, 211.4341
1013.926, 191.2972
1014.408, 226.0267
1014.890, 253.2001
1015.372, 236.4651
1015.854, 211.3123
1016.336, 203.4829
1016.818, 209.4934
1017.301, 222.4022
1017.783, 239.4156
1018.265, 244.7992
1018.747, 220.8929
1019.229, 202.0941
1019.711, 205.4574
1020.193, 215.2417
1020.675, 221.1530
1021.157, 223.2352
1021.640, 226.7662
1022.122, 232.4098
1022.604, 226.9152
1023.086, 194.2413
1023.568, 166.5153
1024.050, 149.3215
1024.532, 144.9370
1025.014, 167.5110
1025.497, 197.2999
1025.979, 202.0710
1026.461, 179.6094
1026.943, 162.6532
1027.425, 162.1632
1027.907, 163.2687
1028.389, 158.0747
1028.871, 157.5710
1029.354, 175.1083
1029.836, 198.5811
1030.318, 208.7283
1030.800, 204.6190
1031.282, 203.5063
1031.764, 213.7378
1032.246, 219.4011
1032.728, 219.2002
1033.210, 211.8063
1033.693, 187.9326
1034.175, 162.3965
1034.657, 156.5389
1035.139, 169.6014
1035.621, 176.2798
1036.103, 165.9395
1036.585, 162.0901
1037.067, 177.7673
1037.549, 186.1910
1038.032, 168.6432
1038.514, 144.8088
1038.996, 137.3064
1039.478, 143.6407
1039.960, 145.2319
1040.442, 135.0630
1040.924, 133.4749
1041.406, 146.3170
1041.889, 158.4814
1042.371, 166.0878
1042.853, 170.0635
1043.335, 171.3456
1043.817, 169.6168
1044.299, 163.0552
1044.781, 148.8752
1045.263, 136.0635
1045.745, 121.8801
1046.228, 115.6417
1046.710, 127.0881
1047.192, 135.6483
1047.674, 119.1210
1048.156, 88.44067
1048.638, 79.54041
1049.120, 97.04016
1049.602, 115.3704
1050.084, 139.7135
1050.567, 145.0223
1051.049, 118.5253
1051.531, 90.46948
1052.013, 83.35767
1052.495, 90.91028
1052.977, 100.6614
1053.459, 113.1796
1053.941, 116.5090
1054.424, 109.0177
1054.906, 105.1232
1055.388, 108.7024
1055.870, 110.1830
1056.352, 103.0525
1056.834, 91.85657
1057.316, 83.43921
1057.798, 78.16638
1058.281, 80.02441
1058.763, 88.55579
1059.245, 92.71045
1059.727, 90.81384
1060.209, 90.19128
1060.691, 94.82251
1061.173, 98.85962
1061.655, 93.71521
1062.137, 83.16333
1062.620, 80.34082
1063.102, 82.62415
1063.584, 76.79626
1064.066, 63.16162
1064.548, 53.29028
1065.030, 51.96558
1065.512, 58.13062
1065.994, 71.96521
1066.476, 85.83679
1066.959, 84.98877
1067.441, 75.76685
1067.923, 71.96643
1068.405, 73.22473
1068.887, 74.05176
1069.369, 73.02332
1069.851, 73.19238
1070.333, 77.57703
1070.815, 81.47986
1071.298, 80.33105
1071.780, 75.81006
1072.262, 67.21155
1072.744, 57.08997
1073.226, 49.52344
1073.708, 45.34241
1074.190, 44.51819
1074.672, 48.02380
1075.155, 52.38245
1075.637, 56.43860
1076.119, 57.32471
1076.601, 45.86206
1077.083, 34.88501
1077.565, 47.06274
1078.047, 74.81665
1078.529, 87.49316
1079.011, 73.78613
1079.494, 59.61743
1079.976, 53.97754
1080.458, 51.07251
1080.940, 49.78345
1081.422, 48.47546
1081.904, 42.77966
1082.386, 37.11462
1082.868, 44.65979
1083.350, 69.89624
1083.833, 76.75574
1084.315, 39.25586
1084.797, 14.10620
1085.279, 21.22815
1085.761, 31.96765
1086.243, 29.94373
1086.725, 23.10681
1087.207, 22.99475
1087.690, 29.19678
1088.172, 30.54541
1088.654, 23.12122
1089.136, 20.10156
1089.618, 22.54297
1090.100, 28.96924
1090.582, 40.74426
1091.064, 52.79834
1091.547, 61.35645
1092.029, 64.85034
1092.511, 54.44336
1092.993, 26.52332
1093.475, 21.86047
1093.957, 44.49854
1094.439, 57.73694
1094.921, 51.66199
1095.403, 37.31458
1095.885, 21.46777
1096.368, 7.503296
1096.850, 3.481079
1097.332, 7.533569
1097.814, 5.140747
1098.296, 1.471436
1098.778, 3.560425
1099.260, 20.86646
1099.742, 32.29700
1100.225, 29.29199
1100.707, 23.13818
1101.189, 27.31323
1101.671, 34.31140
1102.153, 28.68738
1102.635, 17.70154
1103.117, 16.49011
1103.599, 23.25574
1104.082, 30.28040
1104.564, 34.61365
1105.046, 33.09814
1105.528, 20.31921
1106.010, 8.709839
1106.492, 12.57483
1106.974, 18.61218
1107.456, 10.61414
1107.938, 2.369995
1108.421, 6.440674
1108.903, 0.9459230
1109.385, 8.362793
1109.867, 22.10486
1110.349, 30.74048
1110.831, 26.33813
1111.313, 21.92883
1111.795, 27.51440
1112.277, 32.02991
1112.760, 23.88574
1113.242, 9.657349
1113.724, 3.393921
1114.206, 7.213379
1114.688, 10.22327
1115.170, 9.163696
1115.652, 13.33069
1116.134, 29.65930
1116.617, 39.92395
1117.099, 32.45691
1117.581, 21.34973
1118.063, 26.05066
1118.545, 41.99976
1119.027, 38.54236
1119.509, 10.48450
1119.991, 2.017334
1120.474, 4.618530
1120.956, 13.45203
1121.438, 20.36841
1121.920, 17.49939
1122.402, 3.680664
1122.884, 27.15942
1123.366, 17.05579
1123.848, 17.58972
1124.330, 36.38220
1124.813, 40.78137
1125.295, 35.50024
1125.777, 23.74854
1126.259, 18.72437
1126.741, 26.05151
1127.223, 32.74011
1127.705, 25.81421
1128.187, 12.28662
1128.669, 5.987549
1129.152, 20.05225
1129.634, 10.78333
1130.116, 11.32434
1130.598, 23.88818
1131.080, 21.49341
1131.562, 11.22656
1132.044, 9.685669
1132.526, 22.52197
1133.009, 12.97986
1133.491, 1.831665
1133.973, 16.64355
1134.455, 27.12915
1134.937, 27.61194
1135.419, 20.80945
1135.901, 13.07422
1136.383, 2.750732
1136.865, 3.182861
1137.348, 32.76978
1137.830, 45.39392
1138.312, 21.30237
1138.794, 0.5852050
1139.276, 5.306519
1139.758, 21.33997
1140.240, 31.71375
1140.722, 36.63098
1141.204, 35.81934
1141.687, 28.08801
1142.169, 25.11450
1142.651, 28.09021
1143.133, 25.75049
1143.615, 14.25061
1144.097, 8.670044
1144.579, 21.56348
1145.061, 38.04651
1145.544, 28.39807
1146.026, 4.170898
1146.508, 2.533936
1146.990, 15.67590
1147.472, 17.33960
1147.954, 7.179077
1148.436, 3.702515
1148.918, 12.87012
1149.401, 19.23767
1149.883, 8.226196
1150.365, 4.406616
1150.847, 6.157349
1151.329, 2.738159
1151.811, 2.175781
1152.293, 7.308838
1152.775, 13.40662
1153.257, 18.89917
1153.740, 16.52527
1154.222, 0.3276370
1154.704, 9.188721
1155.186, 1.037964
1155.668, 5.761841
1156.150, 0.5354000
1156.632, 3.000732
1157.114, 3.979492
1157.596, 18.50317
1158.079, 38.69214
1158.561, 63.75867
1159.043, 71.98389
1159.525, 60.06335
1160.007, 44.24255
1160.489, 23.76355
1160.971, 11.11597
1161.453, 11.31812
1161.936, 14.67078
1162.418, 13.11353
1162.900, 9.967407
1163.382, 12.30432
1163.864, 18.29590
1164.346, 21.93872
1164.828, 23.46326
1165.310, 21.94739
1165.792, 18.95239
1166.275, 22.94678
1166.757, 36.60388
1167.239, 46.33020
1167.721, 42.34106
1168.203, 29.58496
1168.685, 0.1246340
1169.167, 24.39636
1169.649, 16.14038
1170.131, 7.080566
1170.614, 20.00415
1171.096, 20.76758
1171.578, 17.47095
1172.060, 10.74744
1172.542, 3.921753
1173.024, 10.23376
1173.506, 12.87830
1173.988, 9.568359
1174.471, 32.11890
1174.953, 42.34692
1175.435, 43.49487
1175.917, 38.73376
1176.399, 29.28503
1176.881, 24.06470
1177.363, 23.97424
1177.845, 27.13452
1178.328, 33.22363
1178.810, 34.77869
1179.292, 29.68030
1179.774, 22.82996
1180.256, 18.11060
1180.738, 15.31934
1181.220, 15.94910
1181.702, 20.16406
1182.184, 33.62122
1182.667, 47.31238
1183.149, 39.96582
1183.631, 18.20984
1184.113, 3.450073
1184.595, 1.389282
1185.077, 6.345581
1185.559, 19.65393
1186.041, 29.93848
1186.523, 33.21106
1187.006, 29.64124
1187.488, 7.689819
1187.970, 9.381348
1188.452, 10.53760
1188.934, 49.55103
1189.416, 60.41711
1189.898, 40.29834
1190.380, 24.59729
1190.863, 13.02271
1191.345, 11.40332
1191.827, 23.46326
1192.309, 30.40979
1192.791, 24.24597
1193.273, 16.38757
1193.755, 16.72937
1194.237, 22.51636
1194.719, 30.57361
1195.202, 38.87842
1195.684, 37.32654
1196.166, 30.16992
1196.648, 32.48145
1197.130, 43.46826
1197.612, 52.27942
1198.094, 54.82495
1198.576, 51.06946
1199.058, 36.70874
1199.541, 24.21851
1200.023, 23.75000
1200.505, 26.73120
1200.987, 27.77026
1201.469, 27.81189
1201.951, 29.45056
1202.433, 31.42041
1202.915, 29.34302
1203.398, 22.27942
1203.880, 13.56787
1204.362, 2.625732
1204.844, 5.634399
1205.326, 13.19470
1205.808, 26.79041
1206.290, 23.44604
1206.772, 12.91333
1207.255, 3.302368
1207.737, 3.412354
1208.219, 0.2790530
1208.701, 11.70459
1209.183, 20.53748
1209.665, 25.95581
1210.147, 22.48938
1210.629, 12.86438
1211.111, 12.46692
1211.594, 25.74683
1212.076, 35.65723
1212.558, 27.26562
1213.040, 18.26550
1213.522, 20.97266
1214.004, 26.80627
1214.486, 30.80237
1214.968, 33.52820
1215.450, 34.18408
1215.933, 33.99341
1216.415, 36.86694
1216.897, 43.78369
1217.379, 47.58276
1217.861, 48.16870
1218.343, 44.87830
1218.825, 34.84021
1219.307, 32.57520
1219.790, 45.75684
1220.272, 55.05676
1220.754, 41.39111
1221.236, 20.00867
1221.718, 17.74268
1222.200, 27.99036
1222.682, 33.54395
1223.164, 35.45923
1223.646, 36.85962
1224.129, 36.99731
1224.611, 32.65063
1225.093, 24.05066
1225.575, 20.12598
1226.057, 26.86182
1226.539, 35.55310
1227.021, 45.41284
1227.503, 51.32642
1227.985, 50.13672
1228.468, 44.11414
1228.950, 30.65918
1229.432, 16.43164
1229.914, 14.72888
1230.396, 24.02039
1230.878, 26.05737
1231.360, 18.44714
1231.842, 11.73596
1232.325, 6.007568
1232.807, 9.479858
1233.289, 24.42590
1233.771, 30.24866
1234.253, 13.31299
1234.735, 7.862549
1235.217, 9.684326
1235.699, 2.490356
1236.181, 3.279785
1236.664, 5.069702
1237.146, 5.869019
1237.628, 22.39038
1238.110, 29.64917
1238.592, 25.72070
1239.074, 20.99841
1239.556, 16.25671
1240.038, 11.21350
1240.521, 0.5924070
1241.003, 0.5222170
1241.485, 22.60095
1241.967, 40.55652
1242.449, 39.54016
1242.931, 35.11926
1243.413, 45.96558
1243.895, 62.77258
1244.377, 53.63440
1244.859, 23.80774
1245.342, 21.69153
1245.824, 41.46948
1246.306, 52.12036
1246.788, 50.82556
1247.270, 49.82410
1247.752, 53.04700
1248.234, 52.45044
1248.716, 40.00049
1249.199, 29.69873
1249.681, 34.77368
1250.163, 40.86353
1250.645, 36.10547
1251.127, 29.69495
1251.609, 32.14587
1252.091, 39.27380
1252.573, 41.49329
1253.056, 39.20410
1253.538, 33.31506
1254.020, 22.66272
1254.502, 20.27014
1254.984, 30.52026
1255.466, 36.06641
1255.948, 33.24341
1256.430, 27.85864
1256.912, 24.63867
1257.395, 21.50232
1257.877, 12.31042
1258.359, 3.257690
1258.841, 3.798462
1259.323, 8.974854
1259.805, 14.10950
1260.287, 18.11450
1260.769, 18.10950
1261.251, 16.29712
1261.734, 21.88660
1262.216, 38.62158
1262.698, 46.97119
1263.180, 43.23352
1263.662, 33.14502
1264.144, 9.812988
1264.626, 1.085327
1265.108, 12.69482
1265.591, 26.39233
1266.073, 22.79211
1266.555, 11.84265
1267.037, 11.06897
1267.519, 17.06641
1268.001, 23.32666
1268.483, 23.97791
1268.965, 14.68372
1269.448, 0.1296390
1269.930, 2.039795
1270.412, 20.85681
1270.894, 26.78186
1271.376, 10.00500
1271.858, 0.0000000E+00
##END=



