##NAMES=Forsterite
##RRUFFID=R100140
##IDEAL CHEMISTRY=Mg_2_SiO_4_
##LOCALITY=Pakistan
##OWNER=RRUFF
##SOURCE=William W. Pinch
##DESCRIPTION=Pale green cut gemstone
##STATUS=The identification of this mineral has been confirmed by single-crystal X-ray diffraction.
##URL=rruff.info/R100140
91.03516, 0.0000000E+00
91.51727, 1.775471
91.99939, 2.176388
92.48151, 0.8706700
92.96362, 8.9934997E-02
93.44574, 0.6116790
93.92786, 2.067326
94.40997, 2.628807
94.89210, 2.009636
95.37421, 0.9999160
95.85633, 0.8208500
96.33845, 1.430202
96.82056, 2.146046
97.30268, 2.457520
97.78480, 2.407139
98.26691, 2.520798
98.74903, 2.933075
99.23115, 3.475668
99.71326, 3.668060
100.1954, 3.272915
100.6775, 2.932989
101.1596, 3.432579
101.6417, 5.127651
102.1239, 6.417377
102.6060, 6.773226
103.0881, 6.188122
103.5702, 6.004684
104.0523, 6.468113
104.5344, 6.982712
105.0166, 7.162468
105.4987, 6.719183
105.9808, 6.219837
106.4629, 5.923944
106.9450, 5.756565
107.4271, 5.469320
107.9093, 4.756840
108.3914, 4.023678
108.8735, 4.262531
109.3556, 6.985249
109.8377, 9.082539
110.3198, 9.852661
110.8020, 8.717476
111.2841, 8.146063
111.7662, 7.633329
112.2483, 6.273592
112.7304, 5.765999
113.2125, 7.103706
113.6947, 8.495596
114.1768, 9.435835
114.6589, 10.79335
115.1410, 11.55539
115.6231, 10.88815
116.1052, 9.352535
116.5874, 8.175121
117.0695, 8.548904
117.5516, 9.261154
118.0337, 9.221960
118.5158, 7.138866
118.9980, 5.163294
119.4801, 4.370710
119.9622, 4.682753
120.4443, 5.108210
120.9264, 4.909500
121.4085, 4.552404
121.8907, 4.612280
122.3728, 6.174871
122.8549, 7.709862
123.3370, 7.662178
123.8191, 5.929392
124.3012, 4.145842
124.7834, 3.820877
125.2655, 4.431635
125.7476, 4.859703
126.2297, 4.164677
126.7118, 3.090559
127.1939, 2.883780
127.6761, 3.770208
128.1582, 4.773979
128.6403, 4.747662
129.1224, 3.829403
129.6045, 2.686729
130.0867, 1.572302
130.5688, 0.5057390
131.0509, 0.4933200
131.5330, 1.541122
132.0151, 2.300585
132.4972, 1.794416
132.9794, 1.9791000E-02
133.4615, 1.398596
133.9436, 0.9301170
134.4257, 1.250002
134.9078, 2.677155
135.3899, 2.923685
135.8721, 2.298637
136.3542, 1.555075
136.8363, 0.6383720
137.3184, 0.1555290
137.8005, 0.4865190
138.2826, 0.2748510
138.7648, 0.2493800
139.2469, 0.6360820
139.7290, 1.344044
140.2111, 1.550676
140.6932, 0.9695280
141.1753, 0.4225940
141.6575, 0.8814220
142.1396, 2.952301
142.6217, 4.342144
143.1038, 4.290388
143.5859, 2.684687
144.0681, 2.023712
144.5502, 2.470261
145.0323, 3.709993
145.5144, 5.606682
145.9965, 9.392517
146.4786, 11.87921
146.9608, 11.85350
147.4429, 8.459599
147.9250, 6.228283
148.4071, 5.252590
148.8892, 5.533323
149.3713, 6.774683
149.8535, 10.29017
150.3356, 13.49042
150.8177, 15.60385
151.2998, 16.05168
151.7819, 16.70664
152.2640, 18.01070
152.7462, 19.48135
153.2283, 20.22562
153.7104, 18.91759
154.1925, 17.91504
154.6746, 18.12574
155.1567, 20.38946
155.6389, 22.50855
156.1210, 24.38214
156.6031, 25.94659
157.0852, 27.07341
157.5673, 27.50418
158.0495, 27.65245
158.5316, 27.71442
159.0137, 27.66557
159.4958, 27.61151
159.9779, 27.54983
160.4600, 27.49750
160.9422, 27.51016
161.4243, 27.49014
161.9064, 27.60784
162.3885, 27.99316
162.8706, 28.97511
163.3527, 29.88779
163.8349, 30.54691
164.3170, 30.94286
164.7991, 31.03038
165.2812, 30.26785
165.7633, 29.40702
166.2454, 29.13770
166.7276, 30.05150
167.2097, 31.28213
167.6918, 32.31747
168.1739, 33.18482
168.6560, 34.19855
169.1381, 35.87769
169.6203, 37.68004
170.1024, 38.52494
170.5845, 37.95496
171.0666, 37.19762
171.5487, 37.06119
172.0309, 37.50841
172.5130, 38.11720
172.9951, 38.85977
173.4772, 39.52942
173.9593, 39.79234
174.4414, 39.31065
174.9236, 38.49195
175.4057, 37.69070
175.8878, 36.89739
176.3699, 36.23032
176.8520, 35.75476
177.3341, 35.47158
177.8163, 35.38921
178.2984, 35.74810
178.7805, 36.21301
179.2626, 36.25624
179.7447, 35.85202
180.2268, 35.27900
180.7090, 34.70415
181.1911, 34.14604
181.6732, 33.68483
182.1553, 33.59102
182.6374, 33.59588
183.1195, 32.90840
183.6017, 31.36484
184.0838, 29.90761
184.5659, 29.89038
185.0480, 31.04816
185.5301, 32.01647
186.0123, 31.99496
186.4944, 31.24422
186.9765, 30.62733
187.4586, 30.21747
187.9407, 29.73553
188.4228, 28.65257
188.9050, 27.00742
189.3871, 25.42047
189.8692, 24.26402
190.3513, 23.55361
190.8334, 23.00431
191.3155, 22.49018
191.7977, 22.13976
192.2798, 22.36356
192.7619, 23.18706
193.2440, 23.75879
193.7261, 23.59093
194.2082, 22.74835
194.6904, 21.89883
195.1725, 21.07030
195.6546, 20.19927
196.1367, 19.03670
196.6188, 17.52095
197.1009, 16.51750
197.5831, 16.67623
198.0652, 17.97973
198.5473, 19.20725
199.0294, 20.41844
199.5115, 21.36526
199.9937, 21.23876
200.4758, 19.81752
200.9579, 18.57607
201.4400, 18.44607
201.9221, 19.51556
202.4042, 20.48440
202.8864, 21.31652
203.3685, 21.97270
203.8506, 22.26023
204.3327, 22.05792
204.8148, 21.97552
205.2969, 22.36191
205.7791, 23.25287
206.2612, 24.20836
206.7433, 25.18694
207.2254, 26.22828
207.7075, 27.45358
208.1896, 28.90976
208.6718, 30.44055
209.1539, 32.01374
209.6360, 33.64650
210.1181, 35.18888
210.6002, 36.60992
211.0823, 37.99435
211.5645, 39.42818
212.0466, 40.73303
212.5287, 42.26255
213.0108, 44.43697
213.4929, 47.64144
213.9750, 50.19721
214.4572, 51.65733
214.9393, 52.55154
215.4214, 54.62952
215.9035, 58.36178
216.3856, 62.31001
216.8678, 65.58940
217.3499, 67.97381
217.8320, 70.60375
218.3141, 73.53954
218.7962, 76.70750
219.2783, 79.84479
219.7605, 82.73927
220.2426, 85.93412
220.7247, 89.83440
221.2068, 94.90675
221.6889, 99.31777
222.1710, 102.9106
222.6532, 105.8006
223.1353, 108.2366
223.6174, 110.3165
224.0995, 111.8330
224.5816, 112.7315
225.0637, 113.1534
225.5459, 112.6539
226.0280, 111.3190
226.5101, 109.0381
226.9922, 105.4044
227.4743, 99.78281
227.9564, 93.76876
228.4386, 87.92733
228.9207, 82.09392
229.4028, 77.07005
229.8849, 72.87401
230.3670, 69.47250
230.8492, 66.75089
231.3313, 65.14992
231.8134, 63.59920
232.2955, 61.50571
232.7776, 58.38567
233.2597, 55.95542
233.7419, 54.48290
234.2240, 53.63135
234.7061, 52.53239
235.1882, 50.94031
235.6703, 49.48252
236.1524, 48.47666
236.6346, 48.30001
237.1167, 47.69822
237.5988, 46.47754
238.0809, 44.90446
238.5630, 43.61400
239.0451, 42.89292
239.5273, 42.03354
240.0094, 40.75326
240.4915, 38.97453
240.9736, 36.92060
241.4557, 34.36759
241.9378, 31.62339
242.4200, 29.37806
242.9021, 27.93915
243.3842, 26.48030
243.8663, 24.64882
244.3484, 22.24005
244.8306, 20.04561
245.3127, 18.01911
245.7948, 16.24785
246.2769, 14.96406
246.7590, 14.47994
247.2411, 13.97704
247.7233, 13.17763
248.2054, 12.02268
248.6875, 10.72617
249.1696, 8.972946
249.6517, 7.298737
250.1338, 6.724419
250.6160, 8.027897
251.0981, 9.033379
251.5802, 8.996685
252.0623, 7.714169
252.5444, 6.434361
253.0265, 5.127113
253.5087, 3.855682
253.9908, 2.716419
254.4729, 1.655781
254.9550, 0.8185230
255.4371, 0.2513960
255.9192, 3.0884000E-02
256.4014, 0.1074600
256.8835, 0.1408350
257.3656, 0.4767950
257.8477, 0.5946430
258.3298, 0.3651160
258.8120, 0.2123600
259.2941, 0.2838750
259.7762, 0.6028980
260.2583, 0.7557030
260.7404, 0.7335700
261.2225, 0.5568730
261.7047, 0.1870380
262.1868, 0.5345920
262.6689, 1.032688
263.1510, 1.143055
263.6331, 0.8769490
264.1152, 0.6205830
264.5974, 0.3492580
265.0795, 0.1293680
265.5616, 2.0916000E-02
266.0437, 1.2291000E-02
266.5258, 0.1417880
267.0079, 0.4176220
267.4901, 0.8380580
267.9722, 1.492371
268.4543, 2.658455
268.9364, 3.514206
269.4185, 3.199078
269.9006, 1.354542
270.3828, 0.1095350
270.8649, 0.9244310
271.3470, 1.146591
271.8291, 0.9682040
272.3112, 0.2344780
272.7933, 0.5028310
273.2755, 0.8000680
273.7576, 0.5901950
274.2397, 0.4428900
274.7218, 0.4765630
275.2039, 0.5874630
275.6860, 0.4461100
276.1682, 1.5807999E-02
276.6503, 0.5364650
277.1324, 1.179703
277.6145, 1.930725
278.0966, 2.418339
278.5787, 2.481350
279.0609, 2.423779
279.5430, 3.064331
280.0251, 4.535694
280.5072, 5.875671
280.9893, 6.339996
281.4715, 5.932835
281.9536, 6.190811
282.4357, 7.244896
282.9178, 8.852089
283.3999, 10.66703
283.8820, 12.69411
284.3642, 14.83729
284.8463, 17.14410
285.3284, 19.59182
285.8105, 21.80145
286.2926, 23.76768
286.7747, 25.54312
287.2569, 26.96867
287.7390, 28.07556
288.2211, 29.64597
288.7032, 32.18211
289.1853, 35.46894
289.6674, 38.64756
290.1496, 41.74706
290.6317, 44.72023
291.1138, 47.15539
291.5959, 49.20674
292.0780, 51.95429
292.5602, 55.99451
293.0423, 61.05783
293.5244, 66.54820
294.0065, 72.44969
294.4886, 78.61843
294.9707, 84.77478
295.4529, 91.11705
295.9350, 98.17834
296.4171, 106.0814
296.8992, 114.9044
297.3813, 124.6448
297.8634, 135.2624
298.3456, 146.9393
298.8277, 160.2509
299.3098, 174.5969
299.7919, 188.6537
300.2740, 202.0946
300.7561, 215.0543
301.2383, 227.9310
301.7204, 240.5206
302.2025, 250.9898
302.6846, 259.7222
303.1667, 265.2758
303.6488, 265.3020
304.1310, 258.9255
304.6131, 248.5790
305.0952, 235.7699
305.5773, 220.8277
306.0594, 204.7154
306.5415, 186.3289
307.0237, 167.7281
307.5058, 150.5533
307.9879, 134.9933
308.4700, 121.4205
308.9521, 110.0916
309.4343, 100.8972
309.9164, 93.34335
310.3985, 87.48786
310.8806, 82.93881
311.3627, 79.48569
311.8448, 77.08807
312.3270, 75.53873
312.8091, 75.12229
313.2912, 75.34643
313.7733, 75.62878
314.2554, 75.64865
314.7375, 75.77789
315.2197, 76.63033
315.7018, 78.03434
316.1839, 78.49541
316.6660, 77.08300
317.1481, 74.57130
317.6302, 71.59335
318.1124, 68.02304
318.5945, 64.34728
319.0766, 60.58386
319.5587, 56.80069
320.0408, 53.15956
320.5229, 49.08963
321.0051, 45.62413
321.4872, 43.48265
321.9693, 43.71437
322.4514, 43.53837
322.9335, 41.56624
323.4156, 38.86846
323.8978, 37.51350
324.3799, 39.58971
324.8620, 41.54815
325.3441, 42.03234
325.8262, 40.45164
326.3083, 38.87662
326.7905, 37.71299
327.2726, 36.62612
327.7547, 35.21829
328.2368, 33.02910
328.7189, 30.85511
329.2010, 28.84853
329.6832, 26.99026
330.1653, 25.21694
330.6474, 23.88682
331.1295, 22.41984
331.6116, 20.28087
332.0938, 16.29644
332.5759, 13.33573
333.0580, 12.16257
333.5401, 12.57631
334.0222, 12.47054
334.5043, 11.32993
334.9865, 10.07476
335.4686, 9.445953
335.9507, 9.984997
336.4328, 9.993366
336.9149, 9.114040
337.3970, 7.689140
337.8792, 6.991535
338.3613, 7.317440
338.8434, 7.576157
339.3255, 7.167191
339.8076, 5.941395
340.2898, 5.230282
340.7719, 5.216553
341.2540, 5.393776
341.7361, 4.952087
342.2182, 3.840210
342.7003, 2.668571
343.1825, 1.522755
343.6646, 0.4630090
344.1467, 9.4775997E-02
344.6288, 0.5204850
345.1109, 1.100300
345.5930, 1.166103
346.0752, 0.7623440
346.5573, 0.3546680
347.0394, 5.4614998E-02
347.5215, 0.1847110
348.0036, 0.7191050
348.4857, 1.523388
348.9679, 1.745651
349.4500, 1.2962000E-02
349.9321, 2.854988
350.4142, 4.289627
350.8963, 3.552807
351.3784, 2.186478
351.8606, 2.263870
352.3427, 3.462112
352.8248, 4.595001
353.3069, 4.551449
353.7890, 4.209011
354.2711, 4.993221
354.7533, 7.136284
355.2354, 9.236946
355.7175, 10.01513
356.1996, 9.921364
356.6817, 9.741211
357.1638, 9.520405
357.6460, 9.544132
358.1281, 10.21983
358.6102, 11.48462
359.0923, 12.59014
359.5744, 12.89581
360.0565, 12.92243
360.5387, 13.17801
361.0208, 13.92041
361.5029, 14.77291
361.9850, 15.71719
362.4671, 16.66594
362.9492, 17.33470
363.4314, 17.06789
363.9135, 16.89941
364.3956, 17.44831
364.8777, 19.07809
365.3598, 20.76778
365.8419, 22.08524
366.3241, 23.37862
366.8062, 25.16452
367.2883, 27.82623
367.7704, 30.68640
368.2526, 33.63171
368.7347, 36.70623
369.2168, 39.62870
369.6989, 42.62236
370.1810, 45.33823
370.6631, 47.52609
371.1453, 49.17350
371.6274, 50.34844
372.1095, 51.43803
372.5916, 52.19772
373.0737, 50.90492
373.5558, 46.69944
374.0380, 41.70621
374.5201, 36.90418
375.0022, 32.23018
375.4843, 28.13488
375.9664, 24.72780
376.4485, 21.82648
376.9307, 18.95963
377.4128, 16.08682
377.8949, 13.52288
378.3770, 11.43023
378.8591, 9.805222
379.3412, 8.440269
379.8234, 7.349911
380.3055, 6.509796
380.7876, 5.982101
381.2697, 5.746727
381.7518, 5.562366
382.2339, 5.473900
382.7161, 5.315395
383.1982, 4.506332
383.6803, 3.079903
384.1624, 1.780449
384.6445, 1.363956
385.1266, 1.502495
385.6088, 1.307911
386.0909, 0.5347210
386.5730, 0.2388730
387.0551, 8.4778003E-02
387.5372, 0.6696660
388.0193, 1.085026
388.5015, 0.1962850
388.9836, 1.031269
389.4657, 1.406097
389.9478, 0.8366580
390.4299, 0.3998600
390.9120, 1.360348
391.3942, 2.717205
391.8763, 3.210850
392.3584, 1.365177
392.8405, 0.4500500
393.3226, 0.7563930
393.8047, 0.1099470
394.2869, 0.6128920
394.7690, 0.3219950
395.2511, 1.481232
395.7332, 2.058823
396.2154, 1.524738
396.6975, 1.254448
397.1796, 1.597118
397.6617, 2.375404
398.1438, 3.275627
398.6259, 4.234642
399.1081, 5.336525
399.5902, 6.713078
400.0723, 8.455929
400.5544, 9.820141
401.0365, 10.40337
401.5186, 10.90957
402.0008, 11.91248
402.4829, 13.62651
402.9650, 15.50850
403.4471, 17.56986
403.9292, 19.75165
404.4113, 21.53030
404.8935, 22.62566
405.3756, 24.02974
405.8577, 26.37586
406.3398, 29.80479
406.8219, 32.77966
407.3040, 35.44600
407.7862, 37.61131
408.2683, 39.06168
408.7504, 39.78586
409.2325, 40.14938
409.7146, 40.02739
410.1967, 39.70667
410.6789, 40.30506
411.1610, 41.85955
411.6431, 43.39827
412.1252, 43.55416
412.6073, 43.00356
413.0894, 43.72927
413.5716, 46.35044
414.0537, 49.74875
414.5358, 52.61007
415.0179, 55.08326
415.5000, 57.75394
415.9821, 61.17291
416.4643, 64.79115
416.9464, 68.16027
417.4285, 71.25243
417.9106, 73.77421
418.3927, 75.08482
418.8748, 75.89344
419.3570, 76.96386
419.8391, 79.29488
420.3212, 81.23650
420.8033, 81.99624
421.2854, 81.73660
421.7675, 81.25788
422.2497, 79.88881
422.7318, 79.07905
423.2139, 79.60359
423.6960, 81.95190
424.1781, 84.82379
424.6602, 88.03065
425.1424, 91.70273
425.6245, 95.99568
426.1066, 100.8432
426.5887, 106.3154
427.0709, 112.3392
427.5530, 118.9232
428.0351, 126.4279
428.5172, 135.7305
428.9993, 144.8685
429.4814, 152.4801
429.9636, 158.3861
430.4457, 163.4896
430.9278, 168.0195
431.4099, 171.6336
431.8920, 173.6817
432.3741, 174.2033
432.8563, 172.9615
433.3384, 169.5807
433.8205, 164.2218
434.3026, 157.8035
434.7847, 150.1621
435.2668, 142.5255
435.7490, 136.4334
436.2311, 131.4290
436.7132, 126.0691
437.1953, 119.8213
437.6774, 113.2410
438.1595, 106.9142
438.6417, 100.8102
439.1238, 94.79952
439.6059, 89.01436
440.0880, 83.17865
440.5701, 76.81287
441.0522, 69.71471
441.5344, 63.02752
442.0165, 57.66861
442.4986, 53.02547
442.9807, 48.35461
443.4628, 43.11026
443.9449, 38.25674
444.4271, 34.13068
444.9092, 30.73412
445.3913, 27.81373
445.8734, 25.75763
446.3555, 23.84203
446.8376, 21.61746
447.3198, 18.73323
447.8019, 16.43187
448.2840, 15.09561
448.7661, 14.11972
449.2482, 12.72416
449.7303, 10.54868
450.2125, 8.885754
450.6946, 8.077080
451.1767, 8.020309
451.6588, 7.944988
452.1409, 7.880188
452.6230, 7.594818
453.1052, 6.723576
453.5873, 5.235619
454.0694, 4.130966
454.5515, 3.456436
455.0337, 3.172871
455.5158, 3.590565
455.9979, 4.678627
456.4800, 5.342327
456.9621, 4.854851
457.4442, 3.667992
457.9264, 2.976910
458.4085, 2.766758
458.8906, 2.555252
459.3727, 1.617836
459.8548, 0.5174670
460.3369, 0.3494340
460.8191, 1.814102
461.3012, 3.202457
461.7833, 2.815067
462.2654, 1.320942
462.7475, 0.1265530
463.2296, 6.7841001E-02
463.7118, 0.2953070
464.1939, 0.3040310
464.6760, 4.9300998E-02
465.1581, 2.9891999E-02
465.6402, 0.2894360
466.1223, 0.8297580
466.6045, 1.483364
467.0866, 2.322529
467.5687, 2.918640
468.0508, 3.458603
468.5329, 3.796623
469.0150, 3.537426
469.4972, 2.049877
469.9793, 0.9328500
470.4614, 0.7982330
470.9435, 1.705444
471.4256, 2.408836
471.9077, 2.942989
472.3899, 3.207123
472.8720, 2.887836
473.3541, 1.877930
473.8362, 1.708412
474.3183, 2.923420
474.8004, 4.550251
475.2826, 4.339340
475.7647, 2.435028
476.2468, 0.8885460
476.7289, 1.047958
477.2110, 2.245419
477.6931, 3.178829
478.1753, 3.837578
478.6574, 3.990837
479.1395, 2.805248
479.6216, 1.171585
480.1037, 0.4757500
480.5858, 1.442535
481.0680, 2.729996
481.5501, 3.775970
482.0322, 4.459648
482.5143, 4.511299
482.9964, 2.922653
483.4786, 1.458565
483.9607, 1.152039
484.4428, 2.166302
484.9249, 2.838402
485.4070, 2.613579
485.8892, 2.081329
486.3713, 1.645210
486.8534, 1.242500
487.3355, 1.061100
487.8176, 1.254890
488.2997, 1.622532
488.7819, 1.716343
489.2640, 1.404480
489.7461, 1.116177
490.2282, 1.004028
490.7103, 1.054230
491.1924, 1.017746
491.6746, 0.8575520
492.1567, 0.7602160
492.6388, 0.9706500
493.1209, 1.442005
493.6030, 1.706688
494.0851, 1.657928
494.5673, 1.518723
495.0494, 1.709431
495.5315, 2.111938
496.0136, 2.293121
496.4957, 1.829613
496.9778, 1.173279
497.4600, 0.9004860
497.9421, 0.9654500
498.4242, 0.8845290
498.9063, 9.5310003E-02
499.3884, 1.086155
499.8705, 1.217522
500.3527, 9.6390001E-02
500.8348, 1.239388
501.3169, 1.609093
501.7990, 1.460953
502.2811, 1.151310
502.7632, 0.3950000
503.2454, 0.1432000
503.7275, 0.2344210
504.2096, 7.6149002E-02
504.6917, 0.2853240
505.1738, 0.2466350
505.6559, 0.3022730
506.1381, 0.7774770
506.6202, 1.999062
507.1023, 2.216953
507.5844, 1.163250
508.0665, 0.4071540
508.5486, 1.647606
509.0308, 2.567226
509.5129, 2.782333
509.9950, 1.907543
510.4771, 0.5637050
510.9592, 0.2202530
511.4413, 0.7786180
511.9235, 1.265041
512.4056, 0.8369410
512.8877, 3.5271000E-02
513.3698, 0.2469370
513.8519, 9.3539998E-02
514.3340, 0.3767550
514.8162, 0.1790890
515.2983, 0.9736210
515.7804, 1.265350
516.2625, 0.3555490
516.7446, 0.4842640
517.2267, 0.6222880
517.7089, 0.3323780
518.1910, 0.2162250
518.6731, 0.5962330
519.1552, 0.9406240
519.6373, 1.035023
520.1194, 0.8695110
520.6016, 0.7723390
521.0837, 0.7660680
521.5658, 0.7131310
522.0479, 0.4526860
522.5300, 0.1949500
523.0121, 0.2013930
523.4943, 0.8231430
523.9764, 2.032623
524.4585, 1.636761
524.9406, 0.3960570
525.4227, 2.087547
525.9048, 2.709911
526.3870, 2.509136
526.8691, 1.864910
527.3513, 0.8139380
527.8334, 1.7578000E-02
528.3155, 4.9408000E-02
528.7976, 0.5930140
529.2797, 0.9126130
529.7618, 0.8729520
530.2440, 0.8826790
530.7261, 1.391769
531.2082, 2.065876
531.6903, 2.475788
532.1724, 2.161823
532.6545, 1.917656
533.1367, 1.959515
533.6188, 2.268986
534.1009, 2.753990
534.5830, 3.965626
535.0651, 4.864986
535.5472, 4.916397
536.0294, 3.915237
536.5115, 3.564743
536.9936, 4.045429
537.4757, 4.911442
537.9578, 5.845970
538.4399, 6.927227
538.9221, 7.992496
539.4042, 9.082260
539.8863, 10.05853
540.3684, 10.58120
540.8505, 10.69174
541.3326, 10.87889
541.8148, 11.32480
542.2969, 11.99265
542.7790, 12.93065
543.2611, 14.08551
543.7432, 15.06789
544.2253, 15.99042
544.7075, 16.40333
545.1896, 15.52963
545.6717, 12.97081
546.1538, 10.85423
546.6359, 10.62778
547.1180, 11.20867
547.6002, 11.45118
548.0823, 10.74669
548.5644, 10.08321
549.0465, 9.676445
549.5286, 9.433815
550.0107, 9.090275
550.4929, 8.589176
550.9750, 8.078400
551.4571, 7.556122
551.9392, 7.018635
552.4213, 6.731365
552.9034, 6.704559
553.3856, 6.889828
553.8677, 7.378376
554.3498, 8.126461
554.8319, 8.510040
555.3140, 8.368210
555.7961, 8.225929
556.2783, 8.988903
556.7604, 10.29403
557.2425, 11.13903
557.7246, 10.83611
558.2067, 10.46686
558.6888, 10.99637
559.1710, 12.20494
559.6531, 13.41371
560.1352, 13.95925
560.6173, 14.65819
561.0994, 16.22320
561.5815, 18.92148
562.0637, 20.88316
562.5458, 20.96511
563.0279, 20.64891
563.5100, 21.03406
563.9921, 22.53878
564.4742, 24.02569
564.9564, 25.42136
565.4385, 26.81790
565.9206, 28.31524
566.4027, 29.84897
566.8848, 31.48817
567.3669, 33.19492
567.8491, 35.16681
568.3312, 37.89390
568.8133, 41.28038
569.2954, 44.78773
569.7775, 48.03782
570.2596, 51.25549
570.7418, 54.69219
571.2239, 58.35444
571.7060, 62.10197
572.1881, 65.48019
572.6702, 69.06731
573.1523, 73.64461
573.6345, 80.26756
574.1166, 86.25587
574.5987, 89.38788
575.0808, 91.41292
575.5629, 95.30585
576.0450, 103.1018
576.5272, 110.9458
577.0093, 118.1304
577.4914, 124.7138
577.9735, 131.2264
578.4556, 137.6084
578.9377, 143.9182
579.4199, 150.1468
579.9020, 156.2150
580.3841, 163.1046
580.8662, 170.9160
581.3483, 178.7906
581.8304, 186.0144
582.3126, 192.6161
582.7947, 198.3604
583.2768, 203.0419
583.7589, 207.0670
584.2410, 210.7782
584.7231, 214.1556
585.2053, 217.1603
585.6874, 220.2674
586.1696, 222.5318
586.6517, 223.2249
587.1338, 222.5600
587.6159, 221.5177
588.0980, 219.5823
588.5801, 217.9972
589.0623, 217.7455
589.5444, 219.3152
590.0265, 218.8507
590.5086, 215.3858
590.9907, 211.1279
591.4728, 207.8431
591.9550, 205.7964
592.4371, 203.1933
592.9192, 199.8510
593.4013, 196.1343
593.8834, 192.2528
594.3655, 188.3455
594.8477, 185.2603
595.3298, 183.3131
595.8119, 182.3173
596.2940, 181.8490
596.7761, 182.0921
597.2582, 183.6437
597.7404, 187.2955
598.2225, 191.9984
598.7046, 197.0326
599.1867, 202.3391
599.6688, 208.3961
600.1509, 215.0536
600.6331, 222.7875
601.1152, 232.0880
601.5973, 244.3712
602.0794, 254.9339
602.5615, 262.9483
603.0436, 269.9556
603.5258, 277.9609
604.0079, 287.5121
604.4900, 294.7423
604.9721, 298.6786
605.4542, 300.4221
605.9363, 302.4660
606.4185, 304.5606
606.9006, 304.5378
607.3827, 301.0111
607.8648, 295.0150
608.3469, 288.0173
608.8290, 279.9225
609.3112, 270.5591
609.7933, 259.2313
610.2754, 246.9214
610.7575, 233.8876
611.2396, 220.2683
611.7217, 207.0358
612.2039, 194.9607
612.6860, 183.2257
613.1681, 170.9938
613.6502, 157.2220
614.1323, 144.9287
614.6144, 134.5311
615.0966, 125.4445
615.5787, 116.5162
616.0608, 107.6944
616.5429, 99.58894
617.0250, 92.41400
617.5071, 85.94217
617.9893, 79.72511
618.4714, 73.79678
618.9535, 68.64268
619.4356, 65.02068
619.9177, 61.96476
620.3998, 57.99059
620.8820, 53.12545
621.3641, 48.57607
621.8462, 44.90567
622.3283, 41.89605
622.8104, 39.48772
623.2925, 37.77089
623.7747, 36.14516
624.2568, 34.61532
624.7389, 33.07514
625.2210, 31.42413
625.7031, 29.54859
626.1852, 27.82708
626.6674, 26.25215
627.1495, 24.84288
627.6316, 23.71059
628.1137, 22.87658
628.5958, 22.03822
629.0779, 21.18136
629.5601, 20.20060
630.0422, 18.49397
630.5243, 16.32854
631.0064, 14.90332
631.4885, 15.97334
631.9706, 17.35592
632.4528, 16.72579
632.9349, 14.20124
633.4170, 11.82656
633.8991, 10.40474
634.3812, 9.459068
634.8633, 8.704483
635.3455, 8.108162
635.8276, 7.819122
636.3097, 8.287727
636.7918, 8.643692
637.2739, 7.959606
637.7560, 5.764030
638.2382, 4.565086
638.7203, 4.757149
639.2024, 5.598980
639.6845, 6.124573
640.1666, 6.338642
640.6487, 6.228523
641.1309, 5.680401
641.6130, 4.950584
642.0951, 4.338131
642.5772, 3.842575
643.0594, 3.478771
643.5415, 3.250332
644.0236, 3.143185
644.5057, 3.106030
644.9879, 3.159142
645.4700, 3.465569
645.9521, 4.890980
646.4342, 5.802372
646.9163, 5.296177
647.3984, 3.035309
647.8806, 1.646862
648.3627, 1.366646
648.8448, 1.504753
649.3269, 1.562565
649.8090, 1.541355
650.2911, 1.496830
650.7733, 1.430111
651.2554, 1.342289
651.7375, 1.174450
652.2196, 0.9858060
652.7017, 0.8806880
653.1838, 0.7440640
653.6660, 0.9953960
654.1481, 2.578228
654.6302, 4.651497
655.1123, 5.752838
655.5944, 4.566189
656.0765, 3.212791
656.5587, 2.285213
657.0408, 1.742031
657.5229, 1.246181
658.0050, 0.7052380
658.4871, 0.3621900
658.9692, 0.4057350
659.4514, 0.7766080
659.9335, 0.6137050
660.4156, 0.1681370
660.8977, 0.7065620
661.3798, 1.9203000E-02
661.8619, 1.434772
662.3441, 1.899632
662.8262, 1.294212
663.3083, 0.4668310
663.7904, 0.1999090
664.2725, 0.5810970
664.7546, 0.4485630
665.2368, 0.5015340
665.7189, 1.243481
666.2010, 1.378445
666.6831, 1.159866
667.1652, 0.8597720
667.6473, 0.4189870
668.1295, 3.0215999E-02
668.6116, 0.3268510
669.0937, 0.6048740
669.5758, 0.7048870
670.0579, 0.6246570
670.5400, 0.4050600
671.0222, 5.0781000E-02
671.5043, 0.5273320
671.9864, 0.4704400
672.4685, 8.6519998E-03
672.9506, 0.4138530
673.4327, 0.5475200
673.9149, 0.4407810
674.3970, 5.5579999E-03
674.8791, 0.7380790
675.3612, 1.332771
675.8433, 1.881115
676.3254, 2.046791
676.8076, 1.394508
677.2897, 0.3512380
677.7718, 1.145237
678.2539, 0.5078580
678.7360, 0.4200550
679.2181, 0.8369330
679.7003, 0.6551780
680.1824, 0.8459550
680.6645, 1.543346
681.1466, 2.215332
681.6287, 2.222504
682.1108, 1.734001
682.5930, 1.137192
683.0751, 0.4355200
683.5572, 8.5925996E-02
684.0393, 0.3600850
684.5214, 0.2524340
685.0035, 0.4221230
685.4857, 2.822914
685.9678, 4.526604
686.4499, 4.532963
686.9320, 3.468678
687.4141, 2.729691
687.8962, 2.417931
688.3784, 2.327625
688.8605, 2.461552
689.3426, 2.679947
689.8247, 2.581043
690.3068, 2.157135
690.7889, 2.008057
691.2711, 2.692707
691.7532, 3.761887
692.2353, 4.252651
692.7174, 4.192001
693.1995, 3.992111
693.6816, 3.994221
694.1638, 3.941029
694.6459, 3.540577
695.1280, 2.779739
695.6101, 2.364380
696.0922, 2.678211
696.5743, 3.164165
697.0565, 3.504230
697.5386, 3.634338
698.0207, 3.918621
698.5028, 4.458252
698.9849, 4.940536
699.4670, 4.997845
699.9492, 4.701900
700.4313, 4.668087
700.9135, 4.982277
701.3956, 5.374073
701.8777, 5.551880
702.3598, 5.610092
702.8419, 5.692982
703.3240, 5.760643
703.8062, 5.959293
704.2883, 6.518417
704.7704, 7.233788
705.2525, 7.782257
705.7346, 8.079311
706.2167, 8.231682
706.6989, 8.151501
707.1810, 7.870167
707.6631, 7.617886
708.1452, 7.467751
708.6273, 7.402340
709.1094, 7.444412
709.5916, 7.472710
710.0737, 7.119720
710.5558, 6.523201
711.0379, 6.270103
711.5200, 6.653732
712.0021, 7.371460
712.4843, 8.543785
712.9664, 9.964092
713.4485, 10.64470
713.9306, 9.478561
714.4127, 8.220047
714.8948, 7.667225
715.3770, 7.817039
715.8591, 8.215496
716.3412, 9.111492
716.8233, 9.752254
717.3054, 9.641720
717.7875, 8.809315
718.2697, 7.930145
718.7518, 6.974022
719.2339, 6.237103
719.7160, 6.038635
720.1981, 6.159290
720.6802, 6.260555
721.1624, 6.291862
721.6445, 6.347282
722.1266, 6.396297
722.6087, 6.548031
723.0908, 6.934582
723.5729, 7.870930
724.0551, 8.358543
724.5372, 8.165089
725.0193, 7.684052
725.5014, 7.295387
725.9835, 7.018238
726.4656, 6.648911
726.9478, 6.091461
727.4299, 5.645187
727.9120, 6.008522
728.3941, 6.872955
728.8762, 7.142262
729.3583, 6.241962
729.8405, 5.201305
730.3226, 4.817898
730.8047, 4.874462
731.2868, 5.039253
731.7689, 5.586105
732.2510, 5.837307
732.7332, 5.410820
733.2153, 4.616325
733.6974, 4.060078
734.1795, 3.796722
734.6616, 3.617172
735.1437, 3.442101
735.6259, 3.262001
736.1080, 3.121880
736.5901, 3.046585
737.0722, 3.163391
737.5543, 3.853157
738.0364, 4.539719
738.5186, 4.356880
739.0007, 3.545135
739.4828, 2.968994
739.9649, 3.303108
740.4470, 3.659027
740.9291, 3.600021
741.4113, 3.119759
741.8934, 2.744881
742.3755, 2.566284
742.8576, 2.438248
743.3397, 2.338921
743.8218, 2.217331
744.3040, 1.777016
744.7861, 1.008636
745.2682, 0.1237180
745.7503, 1.095001
746.2324, 2.179962
746.7145, 2.127876
747.1967, 0.9899900
747.6788, 6.8359999E-03
748.1609, 0.2024540
748.6430, 2.9137000E-02
749.1251, 0.6566930
749.6072, 1.878548
750.0894, 2.298439
750.5715, 1.431137
751.0536, 0.3648990
751.5357, 0.2910770
752.0178, 0.5486600
752.4999, 0.2251130
752.9821, 0.7738490
753.4642, 1.778053
753.9463, 2.105736
754.4284, 1.970352
754.9105, 1.774269
755.3926, 1.557762
755.8748, 1.368370
756.3569, 1.078835
756.8390, 0.9137190
757.3211, 1.101906
757.8032, 1.917877
758.2853, 2.578186
758.7675, 2.981880
759.2496, 3.266243
759.7318, 3.577568
760.2139, 3.948158
760.6960, 4.084152
761.1781, 3.910843
761.6602, 3.688293
762.1423, 3.779900
762.6245, 4.059853
763.1066, 4.301147
763.5887, 4.568115
764.0708, 4.411797
764.5529, 2.882385
765.0350, 1.022934
765.5172, 6.7688003E-02
765.9993, 1.186134
766.4814, 2.007736
766.9635, 2.140282
767.4456, 2.108231
767.9277, 2.787773
768.4099, 4.418175
768.8920, 5.176239
769.3741, 4.650970
769.8562, 3.409119
770.3383, 1.807579
770.8204, 0.1514280
771.3026, 0.6494370
771.7847, 0.1027450
772.2668, 1.039970
772.7489, 1.360367
773.2310, 1.196510
773.7131, 0.7793200
774.1953, 0.3320850
774.6774, 1.063698
775.1595, 1.173515
775.6416, 0.9113390
776.1237, 0.7161410
776.6058, 0.5858380
777.0880, 0.4444810
777.5701, 0.1548460
778.0522, 9.3597002E-02
778.5343, 1.283180
779.0164, 3.246567
779.4985, 4.595642
779.9807, 4.306427
780.4628, 3.770477
780.9449, 3.595795
781.4270, 3.819992
781.9091, 4.508446
782.3912, 6.462395
782.8734, 7.843315
783.3555, 8.309433
783.8376, 8.092094
784.3197, 7.509140
784.8018, 6.467918
785.2839, 6.173454
785.7661, 7.150795
786.2482, 8.894974
786.7303, 10.87637
787.2124, 12.89533
787.6945, 14.49545
788.1766, 15.45786
788.6588, 15.99099
789.1409, 15.55121
789.6230, 14.76865
790.1051, 15.47423
790.5872, 18.75623
791.0693, 22.03105
791.5515, 24.88317
792.0336, 27.35121
792.5157, 29.25995
792.9978, 30.60759
793.4799, 32.19844
793.9620, 34.35286
794.4442, 36.91304
794.9263, 39.78058
795.4084, 42.92703
795.8905, 46.25432
796.3726, 49.78438
796.8547, 53.34875
797.3369, 56.63802
797.8190, 59.94516
798.3011, 64.20972
798.7832, 69.99986
799.2653, 75.63376
799.7474, 80.55748
800.2296, 85.18159
800.7117, 90.30751
801.1938, 96.01396
801.6759, 103.2190
802.1580, 112.8676
802.6401, 123.5518
803.1223, 133.0984
803.6044, 142.2814
804.0865, 152.9871
804.5686, 166.7570
805.0507, 181.5172
805.5328, 196.3318
806.0150, 211.6985
806.4971, 229.1880
806.9792, 248.7919
807.4613, 270.3990
807.9434, 294.0303
808.4255, 319.8043
808.9077, 348.6269
809.3898, 380.2446
809.8719, 413.5591
810.3540, 446.9620
810.8361, 482.9682
811.3182, 524.4384
811.8004, 569.9006
812.2825, 616.7474
812.7646, 662.8802
813.2467, 712.1115
813.7288, 764.5802
814.2109, 820.8779
814.6931, 881.2015
815.1752, 945.9357
815.6573, 1015.181
816.1394, 1088.374
816.6215, 1168.137
817.1037, 1259.815
817.5858, 1361.311
818.0679, 1469.367
818.5500, 1582.933
819.0322, 1703.178
819.5143, 1830.651
819.9964, 1963.496
820.4785, 2097.560
820.9606, 2239.660
821.4427, 2367.875
821.9249, 2481.173
822.4070, 2576.852
822.8891, 2652.411
823.3712, 2706.462
823.8533, 2724.012
824.3354, 2699.949
824.8176, 2640.302
825.2997, 2543.838
825.7818, 2418.429
826.2639, 2279.680
826.7460, 2119.038
827.2281, 1960.870
827.7103, 1803.825
828.1924, 1653.422
828.6745, 1514.437
829.1566, 1387.635
829.6387, 1273.442
830.1208, 1173.292
830.6030, 1084.671
831.0851, 1008.096
831.5672, 942.3304
832.0493, 883.8014
832.5314, 832.3212
833.0135, 787.5286
833.4957, 750.4413
833.9778, 720.0852
834.4599, 694.8115
834.9420, 676.3400
835.4241, 661.4286
835.9063, 650.7139
836.3884, 642.8199
836.8705, 636.1128
837.3526, 630.6428
837.8347, 628.0348
838.3168, 628.4630
838.7990, 631.8582
839.2811, 638.2775
839.7632, 647.6042
840.2453, 659.2597
840.7274, 672.5186
841.2095, 690.4150
841.6917, 715.2368
842.1738, 744.5933
842.6559, 776.2117
843.1380, 808.8340
843.6201, 847.7444
844.1022, 893.4556
844.5844, 943.8492
845.0665, 996.7272
845.5486, 1052.952
846.0307, 1113.225
846.5128, 1177.801
846.9949, 1248.512
847.4771, 1326.240
847.9592, 1410.783
848.4413, 1501.718
848.9234, 1598.897
849.4055, 1706.012
849.8876, 1823.555
850.3698, 1948.453
850.8519, 2077.418
851.3340, 2211.053
851.8161, 2354.676
852.2982, 2508.155
852.7803, 2656.243
853.2625, 2793.106
853.7446, 2914.805
854.2267, 3024.550
854.7088, 3120.942
855.1909, 3190.116
855.6730, 3233.108
856.1552, 3239.305
856.6373, 3204.782
857.1194, 3130.951
857.6015, 3026.493
858.0836, 2888.822
858.5657, 2733.494
859.0479, 2560.578
859.5300, 2377.546
860.0121, 2197.046
860.4942, 2019.999
860.9763, 1851.055
861.4584, 1694.036
861.9406, 1548.370
862.4227, 1415.621
862.9048, 1295.627
863.3869, 1189.198
863.8690, 1097.525
864.3511, 1014.669
864.8333, 938.6310
865.3154, 870.1729
865.7975, 808.6254
866.2796, 753.5563
866.7617, 702.0617
867.2438, 652.1083
867.7260, 606.2559
868.2081, 565.9918
868.6902, 530.8017
869.1723, 499.0273
869.6544, 471.1363
870.1365, 445.3178
870.6187, 421.5772
871.1008, 399.8044
871.5829, 379.9479
872.0650, 362.1137
872.5471, 348.1093
873.0292, 338.4496
873.5114, 331.1515
873.9935, 324.4462
874.4756, 318.7560
874.9577, 314.4315
875.4399, 311.0354
875.9220, 310.5067
876.4041, 314.3099
876.8862, 320.4585
877.3683, 328.1223
877.8505, 337.5718
878.3326, 346.2250
878.8147, 353.9085
879.2968, 361.8185
879.7789, 372.2356
880.2610, 382.9512
880.7432, 391.3765
881.2253, 397.2014
881.7074, 398.2391
882.1895, 393.1997
882.6716, 383.2636
883.1537, 368.7259
883.6359, 349.8775
884.1180, 326.5457
884.6001, 297.8329
885.0822, 267.8740
885.5643, 237.5497
886.0464, 207.9815
886.5286, 181.8685
887.0107, 158.9467
887.4928, 137.9707
887.9749, 118.3075
888.4570, 101.0131
888.9391, 87.43585
889.4213, 76.83307
889.9034, 66.49931
890.3855, 56.09885
890.8676, 46.75731
891.3497, 38.58687
891.8318, 31.74532
892.3140, 26.56052
892.7961, 22.74733
893.2782, 19.18454
893.7603, 15.59389
894.2424, 12.12244
894.7245, 8.763824
895.2067, 5.695877
895.6888, 3.105911
896.1709, 1.384872
896.6530, 0.4292450
897.1351, 2.514969
897.6172, 4.385956
898.0994, 5.176285
898.5815, 5.127762
899.0636, 6.317581
899.5457, 9.010559
900.0278, 11.23224
900.5099, 10.90965
900.9921, 9.676041
901.4742, 9.018112
901.9563, 9.186264
902.4384, 9.366531
902.9205, 9.747818
903.4026, 9.719254
903.8848, 9.049179
904.3669, 7.729996
904.8490, 5.477554
905.3311, 2.324844
905.8132, 0.9692840
906.2953, 3.580521
906.7775, 6.426056
907.2596, 10.83107
907.7417, 16.33115
908.2238, 21.36111
908.7059, 24.64890
909.1880, 28.41805
909.6702, 33.16724
910.1523, 38.63518
910.6344, 44.13850
911.1165, 49.68945
911.5986, 55.69466
912.0807, 61.92577
912.5629, 69.50807
913.0450, 80.12505
913.5271, 92.75877
914.0092, 106.1098
914.4913, 119.5614
914.9734, 133.7692
915.4556, 148.5320
915.9377, 164.3354
916.4198, 182.1964
916.9019, 202.3310
917.3840, 221.2565
917.8661, 239.0748
918.3483, 253.5027
918.8304, 264.3896
919.3125, 269.8705
919.7946, 267.3377
920.2767, 256.5243
920.7589, 240.1180
921.2410, 215.1546
921.7231, 188.3522
922.2052, 161.2372
922.6873, 134.1980
923.1694, 110.6774
923.6516, 90.89609
924.1337, 73.44057
924.6158, 57.42945
925.0979, 43.52622
925.5800, 33.26535
926.0621, 25.96550
926.5443, 19.79212
927.0264, 14.36095
927.5085, 9.769539
927.9906, 6.051544
928.4727, 3.024139
928.9548, 0.4120100
929.4370, 1.784050
929.9191, 3.317589
930.4012, 4.081825
930.8833, 4.366997
931.3654, 4.319313
931.8475, 4.061104
932.3297, 3.731773
932.8118, 3.304337
933.2939, 3.019638
933.7761, 3.253532
934.2582, 3.328278
934.7403, 2.811295
935.2224, 1.689583
935.7045, 0.4109650
936.1866, 1.041939
936.6688, 2.261848
937.1509, 2.489975
937.6330, 2.664505
938.1151, 4.015579
938.5972, 6.362030
939.0793, 8.586380
939.5615, 9.967430
940.0436, 11.72602
940.5257, 14.32685
941.0078, 17.43069
941.4899, 19.95377
941.9720, 21.91412
942.4542, 24.07928
942.9363, 26.65099
943.4184, 29.64618
943.9005, 33.03990
944.3826, 36.87053
944.8647, 41.27835
945.3469, 46.35941
945.8290, 51.81088
946.3111, 57.53444
946.7932, 63.68758
947.2753, 70.51920
947.7574, 78.07258
948.2396, 85.35459
948.7217, 92.33590
949.2038, 99.44034
949.6859, 106.8486
950.1680, 114.7908
950.6501, 123.1309
951.1323, 131.8729
951.6144, 142.1805
952.0965, 155.0114
952.5786, 167.5227
953.0607, 178.5476
953.5428, 189.0264
954.0250, 201.7730
954.5071, 216.5601
954.9892, 231.8786
955.4713, 246.9730
955.9534, 262.2217
956.4355, 277.8004
956.9177, 293.6967
957.3998, 310.2198
957.8819, 328.6881
958.3640, 345.3984
958.8461, 359.7154
959.3282, 373.7211
959.8104, 390.2273
960.2925, 407.9017
960.7746, 421.8742
961.2567, 431.8495
961.7388, 439.5459
962.2209, 446.9477
962.7031, 451.9735
963.1852, 452.9691
963.6673, 449.8749
964.1494, 444.1614
964.6315, 435.7619
965.1136, 425.1625
965.5958, 412.3880
966.0779, 397.6236
966.5600, 380.7256
967.0421, 362.0309
967.5242, 342.9211
968.0063, 323.2705
968.4885, 303.9341
968.9706, 284.8246
969.4527, 266.2835
969.9348, 248.3557
970.4169, 231.0727
970.8990, 214.8231
971.3812, 199.7313
971.8633, 185.3127
972.3454, 170.8881
972.8275, 157.2088
973.3096, 145.5317
973.7917, 136.0012
974.2739, 126.5870
974.7560, 115.9079
975.2381, 106.0220
975.7202, 97.82214
976.2023, 90.98571
976.6844, 83.42010
977.1666, 75.09302
977.6487, 68.25303
978.1308, 64.48150
978.6129, 61.66962
979.0950, 57.62596
979.5771, 52.95418
980.0593, 48.64655
980.5414, 45.26421
981.0235, 41.82719
981.5056, 38.11925
981.9877, 34.52389
982.4698, 31.24355
982.9520, 28.33735
983.4341, 26.25695
983.9162, 25.01250
984.3983, 23.99024
984.8804, 22.83930
985.3625, 21.67123
985.8447, 20.69061
986.3268, 19.84767
986.8089, 18.41094
987.2910, 16.13680
987.7731, 13.85153
988.2552, 11.77923
988.7374, 10.00570
989.2195, 8.773758
989.7016, 7.985085
990.1837, 7.383606
990.6658, 7.000832
991.1479, 6.557327
991.6301, 5.810165
992.1122, 5.001381
992.5944, 4.344345
993.0765, 3.843819
993.5586, 3.767357
994.0407, 4.139999
994.5228, 4.728882
995.0049, 5.855476
995.4871, 6.735130
995.9692, 5.899689
996.4513, 3.611084
996.9334, 2.069313
997.4155, 2.974464
997.8976, 3.444145
998.3798, 2.544762
998.8619, 0.9645840
999.3440, 0.4084470
999.8261, 0.7686230
1000.308, 1.062294
1000.790, 1.035507
1001.272, 0.8858410
1001.755, 0.5773090
1002.237, 0.3454130
1002.719, 0.5052260
1003.201, 1.325974
1003.683, 1.763367
1004.165, 1.764053
1004.647, 1.511772
1005.129, 0.9348910
1005.612, 0.2343370
1006.094, 0.2201770
1006.576, 0.6890640
1007.058, 0.6465450
1007.540, 1.176361
1008.022, 2.760410
1008.504, 3.336792
1008.986, 3.116718
1009.468, 2.212032
1009.951, 0.4573290
1010.433, 0.5709650
1010.915, 0.6155550
1011.397, 0.1291500
1011.879, 0.9015010
1012.361, 1.889107
1012.843, 2.045994
1013.325, 1.155949
1013.807, 0.2494850
1014.290, 0.7003780
1014.772, 1.347385
1015.254, 1.525436
1015.736, 1.272625
1016.218, 0.4816670
1016.700, 0.6939850
1017.182, 1.350334
1017.664, 0.7971000
1018.147, 2.0916000E-02
1018.629, 0.6896510
1019.111, 1.162571
1019.593, 1.337696
1020.075, 1.008610
1020.557, 1.097153
1021.039, 1.739811
1021.521, 2.416920
1022.003, 2.575485
1022.486, 2.449348
1022.968, 2.502708
1023.450, 2.731434
1023.932, 2.769550
1024.414, 2.229408
1024.896, 1.733959
1025.378, 1.380856
1025.860, 1.268398
1026.343, 1.891132
1026.825, 3.170029
1027.307, 3.834393
1027.789, 3.353592
1028.271, 2.778938
1028.753, 3.095169
1029.235, 3.799316
1029.717, 4.376186
1030.199, 4.808327
1030.682, 4.849964
1031.164, 4.382755
1031.646, 3.854733
1032.128, 3.432838
1032.610, 3.187752
1033.092, 3.488823
1033.574, 4.224339
1034.056, 4.897247
1034.539, 5.630848
1035.021, 5.824726
1035.503, 4.652905
1035.985, 3.248768
1036.467, 3.393673
1036.949, 5.147686
1037.431, 6.017467
1037.913, 5.662090
1038.396, 5.075684
1038.878, 5.282036
1039.360, 5.578548
1039.842, 5.071819
1040.324, 3.723480
1040.806, 3.256096
1041.288, 3.989613
1041.770, 5.082767
1042.252, 6.565804
1042.734, 7.875004
1043.217, 7.525917
1043.699, 6.076214
1044.181, 5.013706
1044.663, 4.945045
1045.145, 5.023003
1045.627, 5.086964
1046.109, 5.017334
1046.591, 4.620781
1047.074, 3.863377
1047.556, 3.830963
1048.038, 4.525215
1048.520, 5.052860
1049.002, 4.508976
1049.484, 3.815132
1049.966, 3.725719
1050.448, 4.133427
1050.931, 4.753708
1051.413, 5.935013
1051.895, 6.406773
1052.377, 5.849083
1052.859, 4.988537
1053.341, 4.679344
1053.823, 4.741096
1054.305, 4.804672
1054.787, 4.814934
1055.270, 4.794514
1055.752, 4.523731
1056.234, 4.439159
1056.716, 4.708443
1057.198, 5.284916
1057.680, 6.205555
1058.162, 7.401443
1058.644, 7.785412
1059.126, 6.783798
1059.609, 5.417439
1060.091, 4.397751
1060.573, 3.727859
1061.055, 3.490166
1061.537, 3.806625
1062.019, 3.984531
1062.501, 4.028362
1062.983, 3.885963
1063.466, 3.258801
1063.948, 2.579659
1064.430, 2.921215
1064.912, 3.883034
1065.394, 4.215755
1065.876, 2.838493
1066.358, 1.749058
1066.840, 1.551086
1067.323, 1.592861
1067.805, 0.7806020
1068.287, 0.6955300
1068.769, 0.8947720
1069.251, 0.3134420
1069.733, 1.554161
1070.215, 2.204205
1070.697, 2.346596
1071.179, 1.774452
1071.661, 0.7286070
1072.144, 0.1362880
1072.626, 3.0210000E-03
1073.108, 0.1308820
1073.590, 0.5461620
1074.072, 0.9401550
1074.554, 0.8457490
1075.036, 0.4990920
1075.518, 0.2259480
1076.001, 5.6061000E-02
1076.483, 0.1530910
1076.965, 0.7191620
1077.447, 1.099220
1077.929, 0.8425980
1078.411, 0.2198220
1078.893, 9.6819997E-03
1079.375, 6.4308003E-02
1079.858, 0.1557120
1080.340, 0.2145270
1080.822, 0.1715810
1081.304, 0.2078970
1081.786, 0.5423850
1082.268, 0.3588220
1082.750, 0.3606570
1083.232, 0.3853070
1083.714, 0.3006670
1084.197, 0.8526040
1084.679, 0.5769690
1085.161, 2.5528001E-02
1085.643, 0.5827900
1086.125, 1.106297
1086.607, 1.156803
1087.089, 0.5068890
1087.571, 0.2723200
1088.054, 0.7360120
1088.536, 1.185772
1089.018, 0.3689460
1089.500, 0.7960400
1089.982, 0.7565610
1090.464, 0.6732180
1090.946, 1.597759
1091.428, 1.478352
1091.911, 1.049511
1092.393, 0.3387370
1092.875, 0.3417850
1093.357, 4.2840000E-03
1093.839, 1.013962
1094.321, 1.573311
1094.803, 1.294556
1095.285, 0.8197940
1095.767, 0.1423870
1096.250, 0.3401600
1096.732, 0.2782670
1097.214, 0.2878270
1097.696, 0.4467660
1098.178, 0.2188570
1098.660, 0.1668360
1099.142, 0.9845960
1099.624, 1.627731
1100.106, 0.7736740
1100.589, 0.5728720
1101.071, 0.7047690
1101.553, 1.045818
1102.035, 1.832989
1102.517, 1.461063
1102.999, 0.9623410
1103.481, 1.381229
1103.963, 2.066402
1104.446, 1.917736
1104.928, 1.199043
1105.410, 1.154457
1105.892, 2.754631
1106.374, 3.864799
1106.856, 4.155682
1107.338, 3.947018
1107.820, 3.395927
1108.302, 2.761375
1108.785, 2.905090
1109.267, 3.918182
1109.749, 4.251110
1110.231, 2.007175
1110.713, 0.4266970
1111.195, 0.9106980
1111.677, 2.708603
1112.159, 3.963326
1112.641, 4.666924
1113.124, 4.656944
1113.606, 3.735741
1114.088, 2.782848
1114.570, 2.619072
1115.052, 2.471367
1115.534, 1.512417
1116.016, 0.1822700
1116.498, 0.7357440
1116.981, 0.1230160
1117.463, 0.7620160
1117.945, 1.649120
1118.427, 2.451050
1118.909, 3.258633
1119.391, 3.852489
1119.873, 3.861347
1120.355, 3.071114
1120.838, 2.171516
1121.320, 1.031521
1121.802, 0.3327140
1122.284, 1.015491
1122.766, 2.152748
1123.248, 2.212608
1123.730, 1.549576
1124.212, 1.156658
1124.694, 1.482433
1125.177, 1.932720
1125.659, 2.558151
1126.141, 3.062119
1126.623, 3.107502
1127.105, 2.905251
1127.587, 2.894779
1128.069, 3.049889
1128.551, 3.029247
1129.033, 2.568687
1129.516, 2.005692
1129.998, 1.235615
1130.480, 0.6289980
1130.962, 1.085102
1131.444, 2.336205
1131.926, 2.801033
1132.408, 2.218521
1132.890, 1.789322
1133.373, 2.670780
1133.855, 3.437271
1134.337, 3.230110
1134.819, 2.357159
1135.301, 1.647007
1135.783, 1.105736
1136.265, 0.8212850
1136.747, 0.8199230
1137.229, 1.086857
1137.712, 1.885174
1138.194, 2.730141
1138.676, 3.211903
1139.158, 3.322906
1139.640, 3.267799
1140.122, 3.067364
1140.604, 2.631355
1141.086, 1.656864
1141.569, 0.8622360
1142.051, 1.370060
1142.533, 2.423576
1143.015, 2.922218
1143.497, 2.434837
1143.979, 2.314770
1144.461, 2.683262
1144.943, 2.924561
1145.426, 2.537575
1145.908, 1.906868
1146.390, 1.556202
1146.872, 1.448902
1147.354, 1.492809
1147.836, 1.749722
1148.318, 2.187481
1148.800, 2.864510
1149.282, 3.486214
1149.765, 3.996151
1150.247, 4.289730
1150.729, 3.983902
1151.211, 3.226807
1151.693, 2.567154
1152.175, 2.093983
1152.657, 1.963539
1153.139, 2.406910
1153.621, 2.852085
1154.104, 2.371231
1154.586, 1.350861
1155.068, 1.144997
1155.550, 1.768703
1156.032, 2.444569
1156.514, 2.722996
1156.996, 3.108780
1157.478, 3.916405
1157.961, 4.761032
1158.443, 4.854084
1158.925, 4.340199
1159.407, 3.931202
1159.889, 3.695183
1160.371, 3.657040
1160.853, 4.092888
1161.335, 4.458767
1161.818, 4.507832
1162.300, 4.269882
1162.782, 3.662880
1163.264, 2.747353
1163.746, 2.310341
1164.228, 2.604382
1164.710, 2.874859
1165.192, 2.342487
1165.674, 1.779221
1166.156, 1.714607
1166.639, 2.119530
1167.121, 3.076809
1167.603, 4.575283
1168.085, 5.450150
1168.567, 5.213890
1169.049, 4.615631
1169.531, 4.076820
1170.013, 3.640667
1170.496, 3.396328
1170.978, 3.033607
1171.460, 3.089291
1171.942, 2.611366
1172.424, 2.270519
1172.906, 2.210350
1173.388, 2.385723
1173.870, 3.148540
1174.353, 3.899578
1174.835, 3.695320
1175.317, 2.150791
1175.799, 1.816502
1176.281, 2.884842
1176.763, 3.591007
1177.245, 2.581196
1177.727, 1.090466
1178.209, 0.3185500
1178.692, 0.1176110
1179.174, 0.2817960
1179.656, 0.9273300
1180.138, 1.569469
1180.620, 2.285793
1181.102, 2.622471
1181.584, 1.932346
1182.066, 0.9218980
1182.548, 0.3677900
1183.031, 0.2216190
1183.513, 0.3846630
1183.995, 1.058910
1184.477, 1.513897
1184.959, 1.703163
1185.441, 1.750996
1185.923, 1.777054
1186.405, 1.632629
1186.888, 1.475929
1187.370, 1.072807
1187.852, 0.6402740
1188.334, 0.1031000
1188.816, 0.2215230
1189.298, 0.2397420
1189.780, 0.2537730
1190.262, 0.9285550
1190.745, 1.595528
1191.227, 0.8868870
1191.709, 0.9177090
1192.191, 1.985664
1192.673, 1.586109
1193.155, 1.121822
1193.637, 0.7488170
1194.119, 0.4449350
1194.601, 4.8057999E-02
1195.084, 0.2349620
1195.566, 0.1276250
1196.048, 1.074093
1196.530, 1.530617
1197.012, 0.9089700
1197.494, 0.5917850
1197.976, 0.9004590
1198.458, 1.459579
1198.941, 1.854462
1199.423, 2.081570
1199.905, 2.066666
1200.387, 1.812332
1200.869, 1.634933
1201.351, 1.578907
1201.833, 1.665997
1202.315, 1.991726
1202.797, 2.278576
1203.280, 1.933151
1203.762, 1.292683
1204.244, 1.028004
1204.726, 1.270790
1205.208, 1.104946
1205.690, 0.1513790
1206.172, 0.7149620
1206.654, 0.1104010
1207.136, 1.599564
1207.619, 2.653645
1208.101, 3.392200
1208.583, 4.038509
1209.065, 4.644375
1209.547, 5.031044
1210.029, 5.099960
1210.511, 5.162235
1210.993, 5.411110
1211.476, 5.677853
1211.958, 5.058186
1212.440, 4.229443
1212.922, 4.709515
1213.404, 7.347656
1213.886, 8.015079
1214.368, 5.293411
1214.850, 3.119091
1215.333, 3.305840
1215.815, 4.699535
1216.297, 5.578701
1216.779, 5.995777
1217.261, 5.984776
1217.743, 5.400394
1218.225, 4.984928
1218.707, 4.768185
1219.189, 4.824677
1219.672, 5.363163
1220.154, 5.988327
1220.636, 5.624321
1221.118, 4.883629
1221.600, 4.954826
1222.082, 6.669231
1222.564, 7.277554
1223.046, 6.317463
1223.528, 5.289795
1224.011, 4.955769
1224.493, 5.033806
1224.975, 5.133213
1225.457, 5.268085
1225.939, 5.466782
1226.421, 5.755531
1226.903, 6.105995
1227.385, 6.601685
1227.868, 6.841690
1228.350, 6.398735
1228.832, 5.797771
1229.314, 5.975853
1229.796, 5.752773
1230.278, 5.771099
1230.760, 6.145966
1231.242, 6.163052
1231.724, 6.963959
1232.207, 7.600658
1232.689, 7.317684
1233.171, 6.819508
1233.653, 7.330299
1234.135, 6.573380
1234.617, 7.898605
1235.099, 5.866306
1235.581, 4.885635
1236.063, 5.066074
1236.546, 5.601082
1237.028, 6.290379
1237.510, 6.772442
1237.992, 6.515610
1238.474, 5.848835
1238.956, 5.272232
1239.438, 4.723988
1239.920, 4.766472
1240.403, 5.449440
1240.885, 6.022636
1241.367, 6.101906
1241.849, 5.759892
1242.331, 4.230923
1242.813, 2.739990
1243.295, 3.401222
1243.777, 7.008579
1244.260, 8.106995
1244.742, 6.711891
1245.224, 5.038128
1245.706, 4.222332
1246.188, 3.841415
1246.670, 3.909805
1247.152, 4.040485
1247.634, 3.853909
1248.116, 3.182232
1248.599, 3.022209
1249.081, 3.330551
1249.563, 3.594845
1250.045, 3.680454
1250.527, 3.388287
1251.009, 1.790680
1251.491, 0.3849950
1251.973, 1.053974
1252.455, 3.660912
1252.938, 4.789089
1253.420, 4.564777
1253.902, 4.303452
1254.384, 5.194664
1254.866, 5.514668
1255.348, 4.300205
1255.830, 2.698051
1256.313, 1.670776
1256.795, 1.169552
1257.277, 0.8190310
1257.759, 0.6816670
1258.241, 1.082458
1258.723, 3.287258
1259.205, 4.345573
1259.687, 2.997402
1260.169, 1.519363
1260.651, 2.456924
1261.134, 4.755486
1261.616, 4.698196
1262.098, 2.924316
1262.580, 1.782005
1263.062, 3.016865
1263.544, 3.544086
1264.026, 2.836361
1264.508, 2.008778
1264.991, 2.201061
1265.473, 2.805546
1265.955, 2.541634
1266.437, 1.712894
1266.919, 1.151623
1267.401, 1.520622
1267.883, 1.166653
1268.365, 0.2217410
1268.848, 1.219307
1269.330, 0.2174760
1269.812, 1.407284
1270.294, 1.943611
1270.776, 1.725494
1271.258, 1.438858
1271.740, 0.9539950
1272.222, 1.258949
1272.704, 2.488239
1273.187, 3.355118
1273.669, 2.567211
1274.151, 1.425838
1274.633, 0.9920080
1275.115, 1.009930
1275.597, 1.068565
1276.079, 1.195618
1276.561, 0.9157710
1277.043, 0.2523460
1277.526, 4.3549001E-02
1278.008, 0.9340820
1278.490, 1.904675
1278.972, 1.962910
1279.454, 2.522518
1279.936, 2.698666
1280.418, 2.600887
1280.900, 2.621281
1281.383, 2.099350
1281.865, 1.535782
1282.347, 0.9728970
1282.829, 0.7018740
1283.311, 1.039936
1283.793, 1.435341
1284.275, 1.384865
1284.757, 1.057728
1285.240, 1.268295
1285.722, 1.765518
1286.204, 1.723198
1286.686, 1.337265
1287.168, 1.120262
1287.650, 1.304546
1288.132, 1.357368
1288.614, 0.6691930
1289.096, 0.2184370
1289.578, 3.1240000E-03
1290.061, 0.8170780
1290.543, 1.162243
1291.025, 0.5719380
1291.507, 0.4861910
1291.989, 1.025719
1292.471, 1.492359
1292.953, 1.375946
1293.435, 1.119198
1293.918, 1.399643
1294.400, 1.090977
1294.882, 1.688560
1295.364, 0.8886180
1295.846, 0.5079730
1296.328, 0.1929510
1296.810, 0.4285390
1297.292, 0.8917540
1297.775, 1.329212
1298.257, 1.619873
1298.739, 1.729019
1299.221, 1.623711
1299.703, 1.340508
1300.185, 0.9985430
1300.667, 0.5996820
1301.149, 0.2775960
1301.631, 7.4848004E-02
1302.114, 5.8019999E-03
1302.596, 0.0000000E+00
##END=



