##NAMES=Frankamenite
##RRUFFID=R060100
##IDEAL CHEMISTRY=K_3_Na_3_Ca_5_Si_12_O_30_(F,OH)_4_&#183;H_2_O
##LOCALITY=Murun Massif, Sakka, Yakutia, Russia
##OWNER=RRUFF
##SOURCE=University of Arizona Mineral Museum
##DESCRIPTION=Gray thin laths associated with purple charoite
##STATUS=The identification of this mineral is confirmed by single-crystal X-ray diffraction and chemical analysis.
##URL=rruff.info/R060100
##MEASURED CHEMISTRY=(K_2.95_Na_0.05_)_Σ=3_Na_3.00_(Ca_4.90_Mn_0.10_)_Σ=5_Si_12.00_O_30_F_4.00_
129.6305, 0.0000000E+00
130.1126, 0.1760790
130.5947, 1.161995
131.0768, 3.207245
131.5589, 5.166695
132.0410, 6.779114
132.5232, 8.508247
133.0053, 10.29386
133.4874, 12.15871
133.9695, 14.14779
134.4516, 16.22437
134.9337, 18.20753
135.4159, 19.81511
135.8980, 20.75125
136.3801, 21.83374
136.8622, 23.26324
137.3443, 24.70700
137.8264, 25.87152
138.3086, 26.64647
138.7907, 27.15207
139.2728, 27.70792
139.7549, 28.05984
140.2370, 28.81158
140.7191, 30.06145
141.2013, 31.75456
141.6834, 33.82787
142.1655, 36.26378
142.6476, 38.98341
143.1297, 41.68810
143.6118, 44.14491
144.0939, 46.73814
144.5761, 49.68748
145.0582, 52.93925
145.5403, 56.25739
146.0224, 59.52985
146.5045, 62.78087
146.9866, 66.13123
147.4688, 69.55109
147.9509, 73.12521
148.4330, 76.96450
148.9151, 81.10661
149.3972, 85.30932
149.8793, 89.81213
150.3615, 94.34250
150.8436, 98.50591
151.3257, 102.2896
151.8078, 105.6001
152.2899, 108.3577
152.7720, 110.7355
153.2542, 112.0341
153.7363, 112.0595
154.2184, 110.9222
154.7005, 108.6696
155.1826, 104.9756
155.6647, 99.96000
156.1469, 94.22533
156.6290, 87.00714
157.1111, 79.58223
157.5932, 72.48311
158.0753, 65.68089
158.5574, 59.04477
159.0396, 52.43290
159.5217, 45.77975
160.0038, 39.88206
160.4859, 34.89623
160.9680, 30.42772
161.4501, 26.37667
161.9323, 22.73062
162.4144, 19.52954
162.8965, 16.85862
163.3786, 14.82721
163.8607, 12.84414
164.3428, 10.75248
164.8250, 8.801731
165.3071, 7.211533
165.7892, 6.008183
166.2713, 5.048244
166.7534, 4.192226
167.2355, 3.449902
167.7177, 2.811096
168.1998, 2.323353
168.6819, 1.911179
169.1640, 1.471432
169.6461, 0.9680330
170.1282, 0.4645420
170.6104, 0.1035350
171.0925, 0.1377720
171.5746, 0.4402010
172.0567, 0.9285850
172.5388, 1.524216
173.0209, 2.016521
173.5031, 2.383751
173.9852, 2.597073
174.4673, 2.620617
174.9494, 2.472340
175.4315, 2.326775
175.9136, 2.346020
176.3958, 2.520061
176.8779, 2.584469
177.3600, 2.364410
177.8421, 2.143421
178.3242, 2.126602
178.8063, 2.300831
179.2885, 2.458912
179.7706, 2.355900
180.2527, 1.914215
180.7348, 1.538418
181.2169, 1.340981
181.6990, 1.163235
182.1812, 0.9648900
182.6633, 0.7141110
183.1454, 0.3430710
183.6275, 0.2904660
184.1096, 1.444767
184.5917, 2.317448
185.0738, 2.684658
185.5560, 2.973202
186.0381, 3.476532
186.5202, 4.267715
187.0023, 5.217339
187.4844, 6.372143
187.9665, 7.473873
188.4487, 8.544800
188.9308, 9.609001
189.4129, 10.61561
189.8950, 11.55254
190.3771, 12.40998
190.8592, 13.12116
191.3414, 13.53675
191.8235, 13.57379
192.3056, 13.46484
192.7877, 13.21576
193.2698, 12.83841
193.7519, 12.33103
194.2341, 11.68250
194.7162, 10.93462
195.1983, 10.14154
195.6804, 9.273087
196.1625, 8.458862
196.6446, 7.752991
197.1268, 7.126890
197.6089, 6.489185
198.0910, 5.764576
198.5731, 5.095066
199.0552, 4.714891
199.5373, 4.651363
200.0195, 4.632673
200.5016, 4.504354
200.9837, 4.289135
201.4658, 4.108616
201.9479, 4.002338
202.4300, 3.944544
202.9122, 3.912909
203.3943, 3.909479
203.8764, 3.896128
204.3585, 3.815567
204.8406, 3.667717
205.3227, 3.591274
205.8048, 3.690752
206.2870, 3.824533
206.7691, 3.901934
207.2512, 3.912132
207.7333, 3.875292
208.2154, 3.780563
208.6975, 3.601030
209.1797, 3.519575
209.6618, 3.697344
210.1439, 3.895432
210.6260, 3.961363
211.1081, 3.877916
211.5902, 3.768560
212.0724, 3.806189
212.5545, 4.055183
213.0366, 4.260136
213.5187, 4.416443
214.0008, 4.520170
214.4829, 4.547066
214.9651, 4.502903
215.4472, 4.436438
215.9293, 4.421673
216.4114, 4.494040
216.8935, 4.547594
217.3756, 4.596079
217.8578, 4.620384
218.3399, 4.592291
218.8220, 4.512600
219.3041, 4.418665
219.7862, 4.366489
220.2683, 4.358980
220.7505, 4.398590
221.2326, 4.528080
221.7147, 4.663713
222.1968, 4.735785
222.6789, 4.732170
223.1610, 4.702560
223.6432, 4.716116
224.1253, 4.794586
224.6074, 4.889847
225.0895, 5.076944
225.5716, 5.239006
226.0537, 5.253601
226.5358, 5.095169
227.0180, 4.853222
227.5001, 4.641214
227.9822, 4.457228
228.4643, 4.307938
228.9464, 4.257763
229.4285, 4.216957
229.9107, 4.080942
230.3928, 3.821819
230.8749, 3.484688
231.3570, 3.087530
231.8391, 2.619556
232.3212, 2.313334
232.8034, 2.372723
233.2855, 2.563452
233.7676, 2.568090
234.2497, 2.307657
234.7318, 1.945185
235.2139, 1.636555
235.6961, 1.378824
236.1782, 1.192091
236.6603, 1.144096
237.1424, 1.140066
237.6245, 1.025639
238.1066, 0.7666680
238.5888, 0.5348590
239.0709, 0.5480800
239.5530, 0.7288800
240.0351, 0.8353560
240.5172, 0.7379420
240.9993, 0.5337390
241.4815, 0.4026390
241.9636, 0.3553640
242.4457, 0.3452000
242.9278, 0.3229050
243.4099, 0.3109440
243.8920, 0.3745040
244.3742, 0.5872960
244.8563, 0.8881300
245.3384, 1.143448
245.8205, 1.353031
246.3026, 1.511400
246.7847, 1.583012
247.2668, 1.610540
247.7490, 1.660326
248.2311, 1.758394
248.7132, 1.895576
249.1953, 2.061848
249.6774, 2.268213
250.1595, 2.482517
250.6417, 2.698042
251.1238, 2.909868
251.6059, 3.107786
252.0880, 3.281584
252.5701, 3.441723
253.0522, 3.618816
253.5344, 3.820362
254.0165, 4.022621
254.4986, 4.201578
254.9807, 4.382822
255.4628, 4.614933
255.9449, 4.930340
256.4271, 5.260130
256.9092, 5.428833
257.3913, 5.332119
257.8734, 5.274954
258.3555, 5.219248
258.8376, 5.266621
259.3198, 5.575909
259.8019, 6.212822
260.2840, 6.980957
260.7661, 7.450367
261.2482, 7.424458
261.7303, 7.463657
262.2125, 7.581699
262.6946, 7.807619
263.1767, 8.203743
263.6588, 8.783293
264.1409, 9.439217
264.6230, 9.994606
265.1052, 10.44423
265.5873, 10.78404
266.0694, 10.86951
266.5515, 10.95594
267.0336, 11.25946
267.5157, 11.81630
267.9979, 12.47639
268.4800, 13.03333
268.9621, 13.51898
269.4442, 13.79567
269.9263, 13.76493
270.4084, 13.64627
270.8906, 13.56666
271.3727, 13.54862
271.8548, 13.54756
272.3369, 13.51672
272.8190, 13.46984
273.3011, 13.33651
273.7833, 13.02706
274.2654, 12.72413
274.7475, 12.53783
275.2296, 12.46547
275.7117, 12.43195
276.1938, 12.36047
276.6760, 12.23602
277.1581, 12.16886
277.6402, 12.11285
278.1223, 12.14028
278.6044, 12.33165
279.0865, 12.64944
279.5686, 12.97110
280.0508, 13.19464
280.5329, 13.31618
281.0150, 13.48249
281.4971, 13.72260
281.9792, 13.96924
282.4613, 14.29162
282.9435, 14.60719
283.4256, 14.71264
283.9077, 14.45055
284.3898, 13.87405
284.8719, 13.47999
285.3540, 13.42185
285.8362, 13.34164
286.3183, 13.13285
286.8004, 12.83944
287.2825, 12.55086
287.7646, 12.31555
288.2467, 12.10686
288.7289, 11.82527
289.2110, 11.44382
289.6931, 11.03157
290.1752, 10.55800
290.6573, 10.07380
291.1394, 9.658409
291.6216, 9.343235
292.1037, 9.087673
292.5858, 8.803337
293.0679, 8.437941
293.5500, 8.148752
294.0321, 8.031605
294.5143, 7.964848
294.9964, 7.790268
295.4785, 7.464788
295.9606, 7.107611
296.4427, 6.898537
296.9248, 6.917757
297.4070, 6.846256
297.8891, 6.589806
298.3712, 6.286385
298.8533, 6.053806
299.3354, 5.911125
299.8175, 5.813942
300.2997, 5.724926
300.7818, 5.646511
301.2639, 5.551907
301.7460, 5.510229
302.2281, 5.415257
302.7102, 5.120680
303.1924, 4.671682
303.6745, 4.332542
304.1566, 4.322870
304.6387, 4.610332
305.1208, 4.755898
305.6029, 4.676628
306.0851, 4.584095
306.5672, 4.593004
307.0493, 4.669033
307.5314, 4.690397
308.0135, 4.564774
308.4956, 4.347355
308.9778, 4.295237
309.4599, 4.507284
309.9420, 4.742123
310.4241, 4.939680
310.9062, 5.082140
311.3883, 5.131523
311.8705, 5.059305
312.3526, 4.950146
312.8347, 5.000174
313.3168, 5.280376
313.7989, 5.524605
314.2810, 5.608599
314.7632, 5.652586
315.2453, 5.834713
315.7274, 6.207096
316.2095, 6.656784
316.6916, 7.049557
317.1737, 7.393387
317.6559, 7.632694
318.1380, 7.665495
318.6201, 7.649448
319.1022, 7.695175
319.5843, 7.825331
320.0664, 8.083298
320.5485, 8.545403
321.0306, 9.230740
321.5128, 9.798342
321.9949, 10.16748
322.4770, 10.49364
322.9591, 10.81372
323.4412, 11.15858
323.9233, 11.64720
324.4055, 12.37766
324.8876, 13.32065
325.3697, 14.20224
325.8518, 14.99897
326.3339, 15.77361
326.8160, 16.47470
327.2982, 17.17249
327.7803, 18.04396
328.2624, 19.19103
328.7445, 20.51501
329.2266, 21.76826
329.7087, 22.99119
330.1909, 24.08994
330.6730, 24.96153
331.1551, 25.72495
331.6372, 26.55901
332.1193, 27.51758
332.6014, 28.47041
333.0836, 29.23723
333.5657, 29.77310
334.0478, 30.21165
334.5299, 30.51908
335.0120, 30.75249
335.4941, 31.01257
335.9763, 31.28663
336.4584, 31.40094
336.9405, 31.17405
337.4226, 30.56899
337.9047, 29.96079
338.3868, 29.55179
338.8690, 28.94940
339.3511, 27.82003
339.8332, 26.29829
340.3153, 24.80517
340.7974, 23.60033
341.2795, 22.65012
341.7617, 21.76983
342.2438, 21.08686
342.7259, 20.31679
343.2080, 19.30295
343.6901, 18.18348
344.1722, 17.18882
344.6544, 16.42045
345.1365, 15.76453
345.6186, 14.98639
346.1007, 13.91926
346.5828, 12.98259
347.0649, 12.23711
347.5471, 11.59564
348.0292, 11.03991
348.5113, 10.54558
348.9934, 9.981441
349.4755, 9.162727
349.9576, 7.941143
350.4398, 7.095980
350.9219, 6.909222
351.4040, 6.779575
351.8861, 6.417391
352.3682, 5.836628
352.8503, 5.159487
353.3325, 4.457378
353.8146, 3.745689
354.2967, 3.262932
354.7788, 3.351290
355.2609, 3.278067
355.7430, 2.752819
356.2252, 2.008928
356.7073, 1.386169
357.1894, 1.048145
357.6715, 0.8861660
358.1536, 0.6167180
358.6357, 8.5882001E-02
359.1179, 0.3145660
359.5999, 0.4434340
360.0821, 0.5280020
360.5642, 0.8083020
361.0463, 1.303888
361.5284, 1.780399
362.0105, 1.915188
362.4926, 1.574383
362.9748, 1.410070
363.4569, 1.585533
363.9390, 1.772358
364.4211, 1.848812
364.9032, 1.816401
365.3853, 1.714794
365.8675, 1.562035
366.3496, 1.367861
366.8317, 1.233688
367.3138, 1.305040
367.7959, 1.243834
368.2780, 0.9114930
368.7602, 0.4361270
369.2423, 2.0767000E-02
369.7244, 0.3863540
370.2065, 0.7232280
370.6886, 1.156155
371.1707, 1.705423
371.6529, 2.303202
372.1350, 2.886742
372.6171, 3.549370
373.0992, 4.384680
373.5813, 5.390095
374.0634, 6.476208
374.5456, 7.532366
375.0277, 8.549767
375.5098, 9.676926
375.9919, 10.88441
376.4740, 12.26337
376.9561, 13.84353
377.4383, 15.61753
377.9204, 17.56425
378.4025, 19.76298
378.8846, 22.08687
379.3667, 24.10199
379.8488, 25.55846
380.3310, 27.36247
380.8131, 30.31160
381.2952, 33.59711
381.7773, 36.36694
382.2594, 38.34755
382.7415, 40.05896
383.2237, 42.20442
383.7058, 44.78242
384.1879, 46.77187
384.6700, 47.87361
385.1521, 48.29295
385.6342, 48.36084
386.1164, 48.06542
386.5985, 47.20561
387.0806, 45.40469
387.5627, 42.99036
388.0448, 40.72878
388.5269, 38.72101
389.0091, 36.75255
389.4912, 34.60524
389.9733, 32.37261
390.4554, 30.26467
390.9375, 28.35112
391.4196, 26.55227
391.9018, 24.82634
392.3839, 23.16087
392.8660, 21.48707
393.3481, 19.70924
393.8302, 17.97390
394.3123, 16.55620
394.7945, 15.50213
395.2766, 14.56262
395.7587, 13.64938
396.2408, 12.78741
396.7229, 12.04065
397.2050, 11.42066
397.6872, 10.87304
398.1693, 10.33120
398.6514, 9.794491
399.1335, 9.325886
399.6156, 8.930534
400.0977, 8.596964
400.5798, 8.354816
401.0620, 8.178272
401.5441, 7.957790
402.0262, 7.609596
402.5083, 7.176182
402.9904, 6.885878
403.4725, 6.785151
403.9547, 6.744780
404.4368, 6.719353
404.9189, 6.749226
405.4010, 6.940105
405.8831, 7.313366
406.3652, 7.695335
406.8474, 7.818073
407.3295, 7.558681
407.8116, 7.385498
408.2937, 7.371115
408.7758, 7.368618
409.2579, 7.244904
409.7401, 7.048861
410.2222, 6.969364
410.7043, 7.175703
411.1864, 7.607864
411.6685, 7.738712
412.1506, 7.243349
412.6328, 6.831627
413.1149, 6.672808
413.5970, 6.620235
414.0791, 6.533691
414.5612, 6.360180
415.0433, 6.088272
415.5255, 5.664825
416.0076, 5.008644
416.4897, 4.472546
416.9718, 4.128189
417.4539, 3.855730
417.9360, 3.635401
418.4182, 3.433838
418.9003, 3.193083
419.3824, 2.855406
419.8645, 2.468334
420.3466, 2.184599
420.8287, 2.003391
421.3109, 1.889805
421.7930, 1.882519
422.2751, 1.919275
422.7572, 1.929081
423.2393, 1.890455
423.7214, 1.847204
424.2036, 1.869701
424.6857, 1.949823
425.1678, 1.928167
425.6499, 1.680780
426.1320, 1.468218
426.6141, 1.535519
427.0963, 1.854469
427.5784, 2.219515
428.0605, 2.503460
428.5426, 2.787685
429.0247, 3.247223
429.5068, 3.915037
429.9890, 4.515718
430.4711, 4.769033
430.9532, 4.826635
431.4353, 5.215647
431.9174, 6.148294
432.3995, 7.118570
432.8817, 7.692968
433.3638, 8.137501
433.8459, 9.075718
434.3280, 10.72536
434.8101, 12.70498
435.2922, 14.48538
435.7744, 15.97260
436.2565, 17.65203
436.7386, 19.77851
437.2207, 21.91028
437.7028, 23.81400
438.1849, 25.43154
438.6671, 26.72756
439.1492, 27.67282
439.6313, 28.29821
440.1134, 28.69719
440.5955, 29.17632
441.0776, 28.98951
441.5598, 27.81019
442.0418, 26.05941
442.5240, 24.06667
443.0061, 21.97508
443.4882, 19.86992
443.9703, 17.84641
444.4524, 15.86409
444.9345, 14.03502
445.4167, 12.36343
445.8988, 10.88644
446.3809, 9.637114
446.8630, 8.581490
447.3451, 7.671215
447.8272, 6.910648
448.3094, 6.258022
448.7915, 5.585302
449.2736, 4.836897
449.7557, 4.255226
450.2378, 4.052778
450.7199, 3.916260
451.2021, 3.601631
451.6842, 3.093708
452.1663, 2.605101
452.6484, 2.328203
453.1305, 2.216927
453.6126, 2.054131
454.0948, 1.777103
454.5769, 1.588966
455.0590, 1.689146
455.5411, 1.953705
456.0232, 2.178026
456.5053, 2.301863
456.9875, 2.401075
457.4696, 2.452068
457.9517, 2.496037
458.4338, 2.780928
458.9159, 3.447447
459.3980, 4.288618
459.8802, 5.008532
460.3623, 5.606672
460.8444, 6.131493
461.3265, 6.422367
461.8086, 6.760143
462.2907, 7.501842
462.7729, 8.595291
463.2550, 9.620165
463.7371, 10.30350
464.2192, 10.67796
464.7013, 10.93944
465.1834, 11.14678
465.6656, 11.16944
466.1477, 11.00847
466.6298, 10.64725
467.1119, 10.01848
467.5940, 9.127472
468.0761, 8.124941
468.5583, 7.186752
469.0404, 6.313772
469.5225, 5.452461
470.0046, 4.432981
470.4867, 3.602156
470.9688, 3.190483
471.4510, 3.016987
471.9331, 2.784590
472.4152, 2.346043
472.8973, 1.824503
473.3794, 1.434166
473.8615, 1.172022
474.3437, 1.057779
474.8258, 1.253937
475.3079, 1.476387
475.7900, 1.538898
476.2721, 1.455282
476.7542, 1.361992
477.2364, 1.360195
477.7185, 1.403873
478.2006, 1.387356
478.6827, 1.305956
479.1648, 1.189726
479.6469, 1.029144
480.1291, 0.8540630
480.6112, 0.7087920
481.0933, 0.5812240
481.5754, 0.5242820
482.0575, 0.5995370
482.5396, 0.7560410
483.0217, 0.9301830
483.5038, 1.115417
483.9860, 1.221052
484.4681, 1.146379
484.9502, 0.8812120
485.4323, 0.6190320
485.9144, 0.3229450
486.3965, 7.1608000E-02
486.8787, 0.1440110
487.3608, 0.2873480
487.8429, 0.2563720
488.3250, 1.0983000E-02
488.8071, 0.3051070
489.2892, 0.4305190
489.7714, 0.2751290
490.2535, 0.1474820
490.7356, 4.6592999E-02
491.2177, 2.8696001E-02
491.6998, 6.9417998E-02
492.1819, 8.5858002E-02
492.6641, 0.1003290
493.1462, 0.1253000
493.6283, 0.1534500
494.1104, 0.1703850
494.5925, 0.1890520
495.0746, 0.1600190
495.5568, 4.0118001E-02
496.0389, 0.2133680
496.5210, 0.1710820
497.0031, 7.8945003E-02
497.4852, 0.3015750
497.9673, 0.2831140
498.4495, 0.1054440
498.9316, 2.1601999E-02
499.4137, 9.6923999E-02
499.8958, 0.1048460
500.3779, 4.0964998E-02
500.8600, 0.2436960
501.3422, 0.2828420
501.8243, 4.8914000E-02
502.3064, 0.1423850
502.7885, 6.7209996E-02
503.2706, 0.1362950
503.7527, 0.2108080
504.2349, 9.8407000E-02
504.7170, 8.1876002E-02
505.1991, 0.2303650
505.6812, 0.3468090
506.1633, 0.3653850
506.6454, 0.1752960
507.1276, 2.7731000E-02
507.6097, 4.9743999E-02
508.0918, 0.1625800
508.5739, 0.2469550
509.0560, 0.2628600
509.5381, 0.2424690
510.0203, 0.2297120
510.5024, 0.2123240
510.9845, 0.1761900
511.4666, 4.1870000E-03
511.9487, 4.1060001E-02
512.4308, 0.2925210
512.9130, 0.8098180
513.3951, 1.112827
513.8772, 0.9708190
514.3593, 0.6288130
514.8414, 0.5609180
515.3235, 0.8139830
515.8057, 0.9548780
516.2878, 0.7750330
516.7699, 0.5513140
517.2520, 0.5432790
517.7341, 0.7275050
518.2162, 0.8925980
518.6984, 0.9622160
519.1805, 0.9572460
519.6626, 0.8824080
520.1447, 0.7437940
520.6268, 0.5984540
521.1089, 0.4455570
521.5911, 0.3347190
522.0732, 0.4148160
522.5553, 0.7673870
523.0374, 1.035877
523.5195, 1.110978
524.0016, 1.112500
524.4838, 1.149617
524.9659, 1.220719
525.4480, 1.248179
525.9301, 1.167169
526.4122, 1.008914
526.8943, 0.9337000
527.3765, 0.9897370
527.8586, 1.067385
528.3407, 1.167047
528.8228, 1.276338
529.3049, 1.395332
529.7870, 1.517735
530.2692, 1.621028
530.7513, 1.680083
531.2334, 1.702311
531.7155, 1.737241
532.1976, 1.803246
532.6797, 1.838644
533.1619, 1.762226
533.6440, 1.669010
534.1261, 1.679420
534.6082, 1.828074
535.0903, 1.942187
535.5724, 1.878561
536.0546, 1.706806
536.5367, 1.548060
537.0188, 1.411044
537.5009, 1.378782
537.9830, 1.568727
538.4651, 1.916610
538.9473, 2.062949
539.4294, 1.918803
539.9115, 1.706385
540.3936, 1.371762
540.8757, 1.056012
541.3578, 0.9928330
541.8400, 1.197953
542.3221, 1.410222
542.8042, 1.345028
543.2863, 0.9957790
543.7684, 0.7786050
544.2505, 0.8167610
544.7326, 0.8310260
545.2147, 0.7411170
545.6968, 0.6305680
546.1790, 0.6108760
546.6611, 0.6937510
547.1432, 0.7786240
547.6253, 0.7415120
548.1074, 0.5956300
548.5895, 0.5040510
549.0717, 0.4687260
549.5538, 0.4940980
550.0359, 0.6724500
550.5180, 0.8919790
551.0001, 0.9704990
551.4822, 0.8365020
551.9644, 0.6618580
552.4465, 0.5375910
552.9286, 0.4545020
553.4107, 0.4201120
553.8928, 0.4286980
554.3749, 0.3844150
554.8571, 0.1667050
555.3392, 0.2185630
555.8213, 0.4262750
556.3034, 0.3118930
556.7855, 0.2062190
557.2676, 0.2424590
557.7498, 0.3189060
558.2319, 0.2928140
558.7140, 0.1466980
559.1961, 7.0999999E-04
559.6782, 6.9070002E-03
560.1603, 0.1310260
560.6425, 0.2054940
561.1246, 0.1835880
561.6067, 0.1586030
562.0888, 0.1501770
562.5709, 0.1409020
563.0530, 0.1133240
563.5352, 6.3461997E-02
564.0173, 3.0735999E-02
564.4994, 7.6838002E-02
564.9815, 0.1736850
565.4636, 0.1981090
565.9457, 0.1162220
566.4279, 6.6777997E-02
566.9100, 0.1918810
567.3921, 0.4164900
567.8742, 0.4670330
568.3563, 0.2006030
568.8384, 6.0099998E-04
569.3206, 7.5049996E-02
569.8027, 0.2521600
570.2848, 0.2908120
570.7669, 0.1762310
571.2490, 7.3717996E-02
571.7311, 0.1313830
572.2133, 0.3333430
572.6954, 0.4576620
573.1775, 0.4814680
573.6596, 0.4405960
574.1417, 0.2927750
574.6238, 0.1249270
575.1060, 9.1770003E-03
575.5881, 5.2547000E-02
576.0702, 0.1081180
576.5523, 0.2044800
577.0344, 0.3242020
577.5165, 0.3975420
577.9987, 0.4106550
578.4808, 0.4319400
578.9629, 0.5013890
579.4450, 0.5857040
579.9271, 0.6461420
580.4092, 0.6861860
580.8914, 0.7087930
581.3735, 0.6985380
581.8556, 0.6780570
582.3377, 0.6491090
582.8198, 0.6258620
583.3019, 0.6774360
583.7841, 0.8527910
584.2662, 1.106008
584.7483, 1.312359
585.2304, 1.441344
585.7125, 1.576118
586.1946, 1.749077
586.6768, 1.899609
587.1589, 1.978024
587.6410, 2.001432
588.1231, 2.007802
588.6052, 2.004689
589.0873, 2.041479
589.5695, 2.261521
590.0516, 2.703893
590.5337, 3.036761
591.0158, 3.092609
591.4979, 3.146274
591.9800, 3.438341
592.4622, 3.920465
592.9443, 4.397504
593.4264, 4.853783
593.9085, 5.242887
594.3906, 5.447941
594.8727, 5.549090
595.3549, 5.779058
595.8370, 6.214180
596.3191, 6.748491
596.8012, 7.252266
597.2833, 7.709909
597.7654, 8.259726
598.2476, 8.958210
598.7297, 9.666937
599.2118, 10.32929
599.6939, 10.98929
600.1760, 11.67451
600.6581, 12.40429
601.1403, 13.24920
601.6224, 14.32300
602.1045, 15.62282
602.5866, 16.94151
603.0687, 18.27664
603.5508, 19.62008
604.0330, 20.84977
604.5151, 22.13809
604.9972, 23.71336
605.4793, 25.64717
605.9614, 27.65807
606.4435, 29.58830
606.9257, 31.53456
607.4078, 33.56372
607.8899, 35.70373
608.3720, 38.08389
608.8541, 40.75238
609.3362, 43.74466
609.8184, 47.21654
610.3005, 51.50503
610.7826, 55.77954
611.2647, 59.70769
611.7468, 63.90901
612.2289, 68.71918
612.7111, 74.14275
613.1932, 80.11582
613.6753, 86.70461
614.1574, 93.61279
614.6395, 100.3988
615.1216, 107.1140
615.6038, 113.4058
616.0859, 119.4096
616.5680, 124.7388
617.0501, 129.4057
617.5322, 133.2475
618.0143, 135.4382
618.4965, 135.8457
618.9786, 134.5494
619.4607, 131.1976
619.9428, 126.2570
620.4249, 120.3898
620.9070, 113.8037
621.3892, 106.8178
621.8713, 99.66540
622.3534, 92.32909
622.8355, 85.68929
623.3176, 79.88837
623.7997, 74.67372
624.2819, 70.03220
624.7640, 65.94128
625.2461, 62.38084
625.7282, 59.39051
626.2103, 57.07038
626.6924, 55.65914
627.1745, 54.89190
627.6566, 54.11179
628.1387, 53.29910
628.6208, 52.81696
629.1030, 52.76071
629.5851, 53.13007
630.0672, 54.00031
630.5493, 55.35395
631.0314, 56.96857
631.5135, 58.88906
631.9957, 61.00395
632.4778, 63.10128
632.9599, 65.36340
633.4420, 68.19942
633.9241, 71.74594
634.4063, 75.77461
634.8884, 79.91302
635.3705, 84.11593
635.8526, 88.94418
636.3347, 94.31502
636.8168, 100.4475
637.2990, 107.2866
637.7811, 114.8843
638.2632, 123.2794
638.7453, 132.4380
639.2274, 142.5550
639.7095, 153.5980
640.1917, 165.6573
640.6738, 179.2383
641.1559, 194.2837
641.6380, 210.0910
642.1201, 226.3751
642.6022, 243.0169
643.0844, 260.0064
643.5665, 278.4640
644.0486, 294.6561
644.5307, 309.4203
645.0128, 321.1098
645.4949, 329.6380
645.9771, 334.2811
646.4592, 333.8648
646.9413, 327.8582
647.4234, 317.0363
647.9055, 301.5493
648.3876, 281.4804
648.8698, 260.9286
649.3519, 240.1300
649.8340, 219.1805
650.3161, 197.4233
650.7982, 175.8037
651.2803, 156.6282
651.7625, 140.3213
652.2446, 125.8274
652.7267, 113.1017
653.2088, 101.7708
653.6909, 91.64812
654.1730, 82.64852
654.6552, 74.62794
655.1373, 67.51614
655.6194, 61.25032
656.1015, 55.62572
656.5836, 50.71638
657.0657, 46.34044
657.5479, 42.58294
658.0300, 39.23884
658.5121, 36.32661
658.9942, 33.78626
659.4763, 31.53707
659.9584, 29.57339
660.4406, 27.75446
660.9227, 25.91569
661.4048, 24.13574
661.8869, 22.60661
662.3690, 21.36159
662.8511, 20.28816
663.3333, 19.33551
663.8154, 18.48498
664.2975, 17.63437
664.7796, 16.71450
665.2617, 15.87524
665.7438, 15.18495
666.2260, 14.49238
666.7081, 13.64242
667.1902, 12.73330
667.6723, 12.01502
668.1544, 11.62957
668.6365, 11.35845
669.1187, 10.78866
669.6008, 9.968107
670.0829, 9.302800
670.5650, 8.846826
671.0471, 8.467404
671.5292, 8.088280
672.0114, 7.718157
672.4935, 7.392222
672.9756, 7.167264
673.4577, 6.897480
673.9398, 6.474055
674.4219, 6.035891
674.9041, 5.715733
675.3862, 5.528072
675.8683, 5.407350
676.3504, 5.297813
676.8325, 5.153746
677.3146, 4.809111
677.7968, 4.182890
678.2789, 3.769813
678.7610, 3.757710
679.2431, 3.781573
679.7252, 3.490160
680.2073, 3.047945
680.6895, 3.044423
681.1716, 2.994233
681.6537, 2.899827
682.1358, 2.628835
682.6179, 2.585865
683.1000, 2.451528
683.5822, 2.313400
684.0643, 2.454103
684.5464, 2.292748
685.0285, 1.950052
685.5106, 1.712134
685.9927, 1.613982
686.4749, 1.541405
686.9570, 1.483922
687.4391, 1.461078
687.9212, 1.531127
688.4033, 1.630131
688.8854, 1.628551
689.3676, 1.463123
689.8497, 1.290883
690.3318, 1.255956
690.8139, 1.307418
691.2960, 1.343994
691.7781, 1.354297
692.2603, 1.346409
692.7424, 1.320032
693.2245, 1.287544
693.7066, 1.279916
694.1887, 1.290264
694.6708, 1.342348
695.1530, 1.529607
695.6351, 1.659305
696.1172, 1.576187
696.5993, 1.388897
697.0814, 1.299917
697.5635, 1.383794
698.0457, 1.499347
698.5278, 1.502873
699.0099, 1.423455
699.4920, 1.364079
699.9741, 1.335942
700.4562, 1.253304
700.9384, 1.043165
701.4205, 0.7875930
701.9026, 0.6723980
702.3847, 0.7869060
702.8668, 0.8021170
703.3489, 0.6285610
703.8311, 0.4437150
704.3132, 0.3128080
704.7953, 0.2373190
705.2774, 0.2289470
705.7595, 0.2854290
706.2416, 0.3287670
706.7238, 0.2362560
707.2059, 5.4517001E-02
707.6880, 3.5578001E-02
708.1701, 0.2197750
708.6522, 0.2598200
709.1343, 7.5358003E-02
709.6164, 0.5275100
710.0985, 0.6769990
710.5806, 0.4825540
711.0627, 0.3146640
711.5449, 0.2205960
712.0270, 0.1324690
712.5091, 5.4090001E-02
712.9912, 0.2228560
713.4733, 0.1465550
713.9554, 0.1916710
714.4376, 0.4898940
714.9197, 0.4149200
715.4018, 8.2966000E-02
715.8839, 2.7744001E-02
716.3660, 0.1176860
716.8481, 0.2292750
717.3303, 0.2151310
717.8124, 0.1361290
718.2945, 3.5195000E-02
718.7766, 8.3365001E-02
719.2587, 0.1461680
719.7408, 0.1508470
720.2230, 9.3855999E-02
720.7051, 8.4928997E-02
721.1872, 0.2927260
721.6693, 0.4462590
722.1514, 0.5190220
722.6335, 0.4810170
723.1157, 0.2789560
723.5978, 4.4200001E-03
724.0799, 5.6906000E-02
724.5620, 0.1267440
725.0441, 0.1648560
725.5262, 0.1334370
726.0084, 0.3812930
726.4905, 0.1515640
726.9726, 0.4056930
727.4547, 0.6955750
727.9368, 0.5528460
728.4189, 0.3546950
728.9011, 0.1507310
729.3832, 1.4559000E-02
729.8653, 5.8060002E-02
730.3474, 1.7530000E-02
730.8295, 4.5536999E-02
731.3116, 0.2380830
731.7938, 0.4422180
732.2759, 0.3133440
732.7580, 0.1566540
733.2401, 0.3273700
733.7222, 3.5728000E-02
734.2043, 0.2611240
734.6865, 0.2864590
735.1686, 0.1464780
735.6507, 8.1431001E-02
736.1328, 0.1147640
736.6149, 0.1417780
737.0970, 0.1452090
737.5792, 0.1317960
738.0613, 9.6722998E-02
738.5434, 5.0526001E-02
739.0255, 1.1464000E-02
739.5076, 1.4505000E-02
739.9897, 3.4510002E-02
740.4719, 7.3780999E-02
740.9540, 0.1202600
741.4361, 6.3155003E-02
741.9182, 0.1281810
742.4003, 0.2581820
742.8824, 0.2105880
743.3646, 0.1185470
743.8467, 0.1747030
744.3288, 0.3801570
744.8109, 0.5456240
745.2930, 0.6561180
745.7751, 0.7237330
746.2573, 0.7488750
746.7394, 0.7363830
747.2215, 0.6471680
747.7036, 0.5090980
748.1857, 0.4635930
748.6678, 0.6486330
749.1500, 0.9446860
749.6321, 1.066833
750.1142, 1.015384
750.5963, 0.9970370
751.0784, 1.055143
751.5605, 1.147650
752.0427, 1.263440
752.5248, 1.387240
753.0069, 1.436902
753.4890, 1.349504
753.9711, 1.292438
754.4532, 1.288819
754.9354, 1.320091
755.4175, 1.388903
755.8996, 1.479095
756.3817, 1.562644
756.8638, 1.628123
757.3459, 1.681688
757.8281, 1.736633
758.3102, 1.786106
758.7923, 1.789274
759.2744, 1.740281
759.7565, 1.712475
760.2386, 1.728934
760.7208, 1.811172
761.2029, 2.015904
761.6850, 2.405764
762.1671, 2.660698
762.6492, 2.660619
763.1313, 2.679294
763.6135, 2.827415
764.0956, 3.023252
764.5777, 3.091279
765.0598, 2.953743
765.5419, 3.137978
766.0240, 3.275513
766.5062, 3.368869
766.9883, 3.285611
767.4704, 3.430387
767.9525, 3.483783
768.4346, 3.533423
768.9167, 3.710295
769.3989, 3.680029
769.8810, 3.640242
770.3631, 3.607126
770.8452, 3.596534
771.3273, 3.548892
771.8094, 3.469134
772.2916, 3.317384
772.7737, 3.037787
773.2558, 2.723596
773.7379, 2.528308
774.2200, 2.509988
774.7021, 2.513844
775.1843, 2.484754
775.6664, 2.406872
776.1485, 2.192835
776.6306, 1.889800
777.1127, 1.716466
777.5948, 1.773622
778.0770, 1.918157
778.5591, 1.935157
779.0412, 1.813874
779.5233, 1.627302
780.0054, 1.312761
780.4875, 1.087759
780.9697, 1.061090
781.4518, 1.149235
781.9339, 1.302051
782.4160, 1.490558
782.8981, 1.556423
783.3802, 1.368008
783.8624, 1.174686
784.3445, 1.141583
784.8266, 1.133782
785.3087, 0.9819570
785.7908, 0.7338030
786.2729, 0.6135860
786.7551, 0.7869080
787.2372, 1.094161
787.7193, 1.175478
788.2014, 1.029721
788.6835, 1.034251
789.1656, 1.285143
789.6478, 1.488996
790.1299, 1.421315
790.6120, 1.200657
791.0941, 1.173830
791.5762, 1.459593
792.0583, 1.679186
792.5404, 1.791432
793.0225, 1.835588
793.5046, 1.769346
793.9868, 1.678287
794.4689, 1.651048
794.9510, 1.711910
795.4331, 1.863436
795.9152, 2.188560
796.3973, 2.546955
796.8795, 2.658540
797.3616, 2.579746
797.8437, 2.587538
798.3258, 2.750947
798.8079, 2.957887
799.2900, 3.114742
799.7722, 3.245637
800.2543, 3.432772
800.7364, 3.680566
801.2185, 3.960504
801.7006, 4.432609
802.1827, 4.782016
802.6649, 4.752026
803.1470, 4.519224
803.6291, 4.427860
804.1112, 4.582202
804.5933, 4.683407
805.0754, 4.523443
805.5576, 4.286376
806.0397, 4.150452
806.5218, 4.093122
807.0039, 4.058083
807.4860, 4.017265
807.9681, 3.887376
808.4503, 3.541980
808.9324, 3.037219
809.4145, 2.691749
809.8966, 2.528934
810.3787, 2.370571
810.8608, 2.166619
811.3430, 1.966487
811.8251, 1.801167
812.3072, 1.676714
812.7893, 1.623604
813.2714, 1.770424
813.7535, 1.796227
814.2357, 1.522011
814.7178, 1.235977
815.1999, 1.126352
815.6820, 1.164342
816.1641, 1.297863
816.6462, 1.512816
817.1284, 1.636102
817.6105, 1.455259
818.0926, 1.095461
818.5747, 0.7417470
819.0568, 0.4230630
819.5389, 0.2748510
820.0211, 0.3512580
820.5032, 0.5042790
820.9853, 0.5476960
821.4674, 0.5010850
821.9495, 0.7010660
822.4316, 1.420584
822.9138, 1.782252
823.3959, 1.294756
823.8780, 0.7433460
824.3601, 0.7043030
824.8422, 0.9983610
825.3243, 1.138300
825.8065, 0.9884660
826.2886, 0.8141980
826.7707, 0.7003330
827.2528, 0.6186070
827.7349, 0.5165420
828.2170, 0.4313380
828.6992, 0.5029070
829.1813, 0.7631640
829.6634, 0.9515990
830.1455, 0.6712670
830.6276, 0.1188710
831.1097, 2.2964001E-02
831.5919, 0.3753950
832.0740, 0.6679860
832.5561, 0.7592720
833.0382, 0.7322620
833.5203, 0.6354350
834.0024, 0.4912280
834.4846, 0.4728140
834.9667, 0.7092370
835.4488, 0.8604660
835.9309, 0.8823990
836.4130, 0.8485650
836.8951, 0.7688620
837.3773, 0.6685500
837.8594, 0.5877680
838.3415, 0.5375160
838.8236, 0.4964890
839.3057, 0.4143690
839.7878, 0.3589190
840.2700, 0.4222210
840.7521, 0.5604700
841.2342, 0.6847940
841.7163, 0.7658890
842.1984, 0.8157960
842.6805, 0.8675360
843.1627, 0.8947530
843.6448, 0.7722510
844.1269, 0.4923020
844.6090, 0.3375680
845.0911, 0.3899850
845.5732, 0.4585490
846.0554, 0.4075550
846.5375, 0.2779250
847.0196, 0.1840860
847.5017, 0.1053100
847.9838, 0.1188910
848.4659, 0.3663870
848.9481, 0.5364200
849.4302, 0.4462050
849.9123, 0.2585970
850.3944, 0.1274880
850.8765, 7.1425997E-02
851.3586, 0.1316870
851.8408, 0.4779290
852.3229, 0.8182210
852.8050, 0.8232100
853.2871, 0.6663510
853.7692, 0.6525480
854.2513, 0.7806930
854.7335, 0.8806720
855.2156, 0.8333140
855.6977, 0.7235280
856.1798, 0.6964910
856.6619, 0.7373270
857.1440, 0.7211730
857.6262, 0.6220580
858.1083, 0.5864120
858.5904, 0.6989360
859.0725, 0.8743920
859.5546, 1.015924
860.0367, 1.137540
860.5189, 1.128044
861.0010, 0.8784680
861.4831, 0.6476100
861.9652, 0.3987340
862.4473, 0.2470870
862.9294, 0.3489060
863.4116, 0.6163250
863.8937, 0.8005100
864.3758, 0.8171210
864.8579, 0.7732300
865.3400, 0.6835940
865.8221, 0.6124310
866.3043, 0.6718750
866.7864, 0.7953340
867.2685, 0.7594420
867.7506, 0.5090770
868.2327, 0.3224950
868.7148, 0.5578030
869.1970, 1.039452
869.6791, 1.144879
870.1612, 0.8733160
870.6433, 0.5936100
871.1254, 0.3591860
871.6075, 0.2372370
872.0897, 0.3086010
872.5718, 0.5077990
873.0539, 0.6198310
873.5360, 0.5865350
874.0181, 0.5994040
874.5002, 0.7779660
874.9823, 0.8629880
875.4644, 0.6759550
875.9465, 0.4085030
876.4286, 0.2787020
876.9108, 0.3024510
877.3929, 0.3525810
877.8750, 0.4497120
878.3571, 0.4888610
878.8392, 0.2985520
879.3214, 9.0329997E-02
879.8035, 0.1888080
880.2856, 0.5232990
880.7677, 0.7440470
881.2498, 0.6708250
881.7319, 0.4857600
882.2141, 0.3957320
882.6962, 0.3791620
883.1783, 0.3873170
883.6604, 0.4131660
884.1425, 0.3978800
884.6246, 0.3150050
885.1068, 0.2455820
885.5889, 0.2913580
886.0710, 0.4286020
886.5531, 0.4576890
887.0352, 0.3194660
887.5173, 0.2514100
887.9995, 0.3490310
888.4816, 0.4289080
888.9637, 0.3354730
889.4458, 0.1588130
889.9279, 8.2923003E-02
890.4100, 0.1329130
890.8922, 0.1944480
891.3743, 0.2748470
891.8564, 0.3364890
892.3385, 0.3280320
892.8206, 0.3133170
893.3027, 0.4061000
893.7849, 0.5787290
894.2670, 0.6482290
894.7491, 0.4894800
895.2312, 0.2702600
895.7133, 7.7321000E-02
896.1954, 3.9748002E-02
896.6776, 9.5337003E-02
897.1597, 0.4037740
897.6418, 0.5178490
898.1239, 0.2834100
898.6060, 3.0378999E-02
899.0881, 7.1970001E-02
899.5703, 9.7260997E-02
900.0524, 0.1425580
900.5345, 5.6341998E-02
901.0166, 7.9180002E-03
901.4987, 1.3030000E-02
901.9808, 4.3950002E-03
902.4630, 1.5679000E-02
902.9451, 2.6179001E-02
903.4272, 5.7743002E-02
903.9093, 0.1386170
904.3914, 0.1745190
904.8735, 0.1216820
905.3557, 7.8281000E-02
905.8378, 0.1108110
906.3199, 0.1489320
906.8020, 8.3701000E-02
907.2841, 7.7244997E-02
907.7662, 0.1455550
908.2484, 6.8562001E-02
908.7305, 0.1986610
909.2126, 2.3579000E-02
909.6947, 0.2415820
910.1768, 0.4874110
910.6589, 0.6349490
911.1411, 0.4990420
911.6232, 8.8100001E-04
912.1053, 0.4302230
912.5874, 0.3043090
913.0695, 4.2642001E-02
913.5516, 8.5914001E-02
914.0338, 0.1012510
914.5159, 0.2782040
914.9980, 0.3799550
915.4801, 0.4200180
915.9622, 0.4313900
916.4443, 0.4043660
916.9265, 0.2582290
917.4086, 2.4687000E-02
917.8907, 1.7647000E-02
918.3728, 0.5040200
918.8549, 0.8814710
919.3370, 0.8792700
919.8192, 0.6925360
920.3013, 0.5810590
920.7834, 0.5515440
921.2655, 0.5925910
921.7476, 0.8295130
922.2297, 0.8909030
922.7119, 0.4910190
923.1940, 0.1417910
923.6761, 0.2255190
924.1582, 0.5548930
924.6403, 0.7140980
925.1224, 0.5990150
925.6046, 0.5397960
926.0867, 0.7298720
926.5688, 0.8900680
927.0509, 0.8062460
927.5330, 0.6455280
928.0151, 0.6284870
928.4973, 0.7520360
928.9794, 0.8537800
929.4615, 0.8432560
929.9436, 0.8182270
930.4257, 0.8524840
930.9078, 0.9324930
931.3900, 1.076509
931.8721, 1.247186
932.3542, 1.325488
932.8363, 1.276725
933.3184, 1.190504
933.8005, 1.130980
934.2827, 1.126962
934.7648, 1.308453
935.2469, 1.646371
935.7290, 1.857564
936.2111, 1.893281
936.6932, 1.853965
937.1754, 1.778661
937.6575, 1.726086
938.1396, 1.811334
938.6217, 2.046846
939.1038, 2.269305
939.5859, 2.511390
940.0681, 2.648641
940.5502, 2.596597
941.0323, 2.505860
941.5144, 2.520128
941.9965, 2.602043
942.4786, 2.584036
942.9608, 2.365410
943.4429, 2.259472
943.9250, 2.363675
944.4071, 2.482307
944.8892, 2.527398
945.3713, 2.550948
945.8535, 2.633254
946.3356, 2.766497
946.8177, 2.842657
947.2998, 2.784507
947.7819, 2.726963
948.2640, 2.750567
948.7462, 2.795247
949.2283, 2.825685
949.7104, 2.823811
950.1925, 2.758826
950.6746, 2.627206
951.1567, 2.472100
951.6389, 2.265615
952.1210, 2.104814
952.6031, 2.225082
953.0852, 2.461187
953.5673, 2.370201
954.0494, 1.957439
954.5316, 1.655895
955.0137, 1.700391
955.4958, 1.886442
955.9779, 1.940406
956.4600, 1.876639
956.9421, 1.764547
957.4242, 1.615419
957.9063, 1.530507
958.3884, 1.541666
958.8705, 1.544722
959.3527, 1.456267
959.8348, 1.301974
960.3169, 1.141947
960.7990, 0.9577960
961.2811, 0.8699360
961.7632, 0.9027520
962.2454, 0.9781270
962.7275, 1.109508
963.2096, 1.207565
963.6917, 1.148665
964.1738, 0.9534080
964.6559, 0.8507590
965.1381, 0.9326740
965.6202, 0.9459730
966.1023, 0.8641420
966.5844, 0.7600040
967.0665, 0.6341930
967.5486, 0.5046410
968.0308, 0.4102880
968.5129, 0.3597850
968.9950, 0.3557060
969.4771, 0.4664110
969.9592, 0.5558120
970.4413, 0.6206000
970.9235, 0.5985410
971.4056, 0.3502030
971.8877, 2.6791001E-02
972.3698, 5.8970999E-02
972.8519, 0.1778350
973.3340, 0.3478160
973.8162, 0.1067190
974.2983, 0.1627990
974.7804, 9.3365997E-02
975.2625, 0.1055790
975.7446, 0.1448240
976.2267, 3.7207998E-02
976.7089, 4.9343999E-02
977.1910, 3.3927001E-02
977.6731, 6.6450001E-03
978.1552, 9.3516998E-02
978.6373, 0.2096890
979.1194, 0.1892960
979.6016, 7.1362004E-02
980.0837, 3.0422000E-02
980.5658, 8.5822999E-02
981.0479, 6.9622003E-02
981.5300, 3.5746001E-02
982.0121, 0.1482950
982.4943, 9.5211998E-02
982.9764, 8.4697999E-02
983.4585, 0.1563910
983.9406, 0.1177260
984.4227, 0.1249780
984.9048, 0.2279370
985.3870, 0.3818260
985.8691, 0.5543630
986.3512, 0.7305600
986.8333, 0.8635580
987.3154, 0.9521840
987.7975, 1.000263
988.2797, 1.000935
988.7618, 0.9853490
989.2439, 0.9529960
989.7260, 0.9381200
990.2081, 0.9914800
990.6902, 1.101327
991.1724, 1.151423
991.6545, 1.087657
992.1366, 1.098084
992.6187, 1.302723
993.1008, 1.417394
993.5829, 1.239828
994.0651, 0.9506570
994.5472, 0.7900830
995.0293, 0.7596300
995.5114, 0.7647000
995.9935, 0.8242880
996.4756, 0.8895970
996.9578, 1.007418
997.4399, 1.073102
997.9220, 0.9925180
998.4041, 0.8378530
998.8862, 0.7026550
999.3683, 0.5973420
999.8505, 0.5772500
1000.333, 0.8066090
1000.815, 0.9258220
1001.297, 0.6899980
1001.779, 0.3912470
1002.261, 0.2692520
1002.743, 0.2755730
1003.225, 0.2797540
1003.707, 0.2500920
1004.190, 0.2046000
1004.672, 0.1389020
1005.154, 7.5561002E-02
1005.636, 2.1949001E-02
1006.118, 1.5881000E-02
1006.600, 4.1873999E-02
1007.082, 4.5288999E-02
1007.564, 2.1152001E-02
1008.046, 0.1765290
1008.529, 0.2864090
1009.011, 0.2187630
1009.493, 7.5430997E-02
1009.975, 8.5634001E-02
1010.457, 0.2164780
1010.939, 0.2081300
1011.421, 8.0523998E-02
1011.903, 2.9056000E-02
1012.385, 5.2361999E-02
1012.868, 7.2094001E-02
1013.350, 0.1907200
1013.832, 0.3606250
1014.314, 0.5108320
1014.796, 0.6337970
1015.278, 0.6977710
1015.760, 0.7074150
1016.242, 0.7248070
1016.725, 0.7873860
1017.207, 0.8646020
1017.689, 0.9294980
1018.171, 0.9701780
1018.653, 0.9100660
1019.135, 0.7716290
1019.617, 0.7034150
1020.099, 0.7393560
1020.581, 0.8815320
1021.064, 1.151639
1021.546, 1.413847
1022.028, 1.375106
1022.510, 1.066778
1022.992, 0.8617190
1023.474, 0.7629240
1023.956, 0.6954130
1024.438, 0.6448530
1024.921, 0.5645620
1025.403, 0.4018280
1025.885, 0.2344570
1026.367, 0.2840220
1026.849, 0.5746660
1027.331, 0.6703520
1027.813, 0.5390510
1028.295, 0.3911980
1028.777, 0.2766410
1029.260, 0.1807000
1029.742, 8.2313001E-02
1030.224, 5.6489999E-03
1030.706, 2.6999000E-02
1031.188, 2.0205000E-02
1031.670, 7.0395000E-02
1032.152, 0.1408510
1032.634, 0.1247240
1033.116, 5.5110998E-02
1033.599, 0.2437730
1034.081, 0.3048230
1034.563, 0.2783290
1035.045, 0.2769780
1035.527, 0.3021930
1036.009, 0.3572380
1036.491, 0.4986370
1036.973, 0.5566640
1037.456, 0.4366100
1037.938, 0.2698620
1038.420, 0.1771010
1038.902, 0.1284290
1039.384, 5.0949999E-03
1039.866, 0.2598760
1040.348, 0.4139840
1040.830, 0.3744930
1041.313, 0.3506150
1041.795, 0.4246810
1042.277, 0.5047400
1042.759, 0.4547820
1043.241, 0.3518910
1043.723, 0.4666160
1044.205, 0.9260940
1044.687, 1.257231
1045.169, 1.415030
1045.651, 1.476089
1046.134, 1.356592
1046.616, 1.239067
1047.098, 1.271116
1047.580, 1.425755
1048.062, 1.621418
1048.544, 1.876730
1049.026, 2.083134
1049.508, 2.172207
1049.991, 2.279739
1050.473, 2.456362
1050.955, 2.665283
1051.437, 2.902575
1051.919, 3.143314
1052.401, 3.334301
1052.883, 3.465582
1053.365, 3.555729
1053.848, 3.590364
1054.330, 3.608280
1054.812, 3.587681
1055.294, 3.588684
1055.776, 3.676800
1056.258, 3.824865
1056.740, 3.967518
1057.222, 4.098705
1057.704, 4.186750
1058.187, 3.983486
1058.669, 3.940626
1059.151, 4.219928
1059.633, 4.445982
1060.115, 4.621610
1060.597, 4.595978
1061.079, 4.830244
1061.561, 4.960378
1062.043, 5.086201
1062.526, 5.524977
1063.008, 5.760447
1063.490, 5.554129
1063.972, 5.331432
1064.454, 5.517202
1064.936, 5.966539
1065.418, 6.313272
1065.900, 6.478849
1066.383, 6.710821
1066.865, 7.218851
1067.347, 7.669046
1067.829, 7.781216
1068.311, 7.871685
1068.793, 8.304722
1069.275, 8.904747
1069.757, 9.268253
1070.240, 9.324696
1070.722, 9.439751
1071.204, 9.895235
1071.686, 10.27206
1072.168, 10.31664
1072.650, 10.25861
1073.132, 10.30777
1073.614, 10.38469
1074.096, 10.28088
1074.578, 9.991255
1075.061, 9.822763
1075.543, 10.01239
1076.025, 10.17079
1076.507, 10.16135
1076.989, 9.997599
1077.471, 9.586786
1077.953, 9.081322
1078.435, 8.667727
1078.918, 8.388763
1079.400, 8.281021
1079.882, 8.462742
1080.364, 8.592997
1080.846, 8.579422
1081.328, 8.382648
1081.810, 7.762367
1082.292, 7.070826
1082.774, 6.843184
1083.257, 7.035383
1083.739, 7.106749
1084.221, 6.821199
1084.703, 6.562407
1085.185, 6.530273
1085.667, 6.556570
1086.149, 6.519308
1086.631, 6.486084
1087.114, 6.614632
1087.596, 6.827118
1088.078, 6.812473
1088.560, 6.421860
1089.042, 6.096504
1089.524, 6.046318
1090.006, 6.075504
1090.488, 6.105730
1090.970, 6.132206
1091.453, 6.160080
1091.935, 6.182095
1092.417, 6.154528
1092.899, 6.052538
1093.381, 6.040833
1093.863, 6.294312
1094.345, 6.498835
1094.827, 6.469975
1095.309, 6.383602
1095.792, 6.341496
1096.274, 6.366249
1096.756, 6.483242
1097.238, 6.697714
1097.720, 6.964582
1098.202, 7.364128
1098.684, 7.683401
1099.166, 7.716539
1099.649, 7.786161
1100.131, 8.185974
1100.613, 8.730627
1101.095, 9.087814
1101.577, 9.252659
1102.059, 9.591633
1102.541, 10.26744
1103.023, 10.99821
1103.505, 11.76398
1103.988, 12.51895
1104.470, 13.18966
1104.952, 13.86734
1105.434, 14.49598
1105.916, 15.19669
1106.398, 16.54955
1106.880, 18.98712
1107.362, 21.24786
1107.844, 23.09910
1108.327, 24.79802
1108.809, 26.26902
1109.291, 27.77950
1109.773, 29.47551
1110.255, 31.42027
1110.737, 33.75063
1111.219, 36.49273
1111.701, 39.56541
1112.184, 43.02013
1112.666, 46.71079
1113.148, 50.55364
1113.630, 54.67343
1114.112, 59.05178
1114.594, 63.79364
1115.076, 69.16991
1115.558, 75.19869
1116.041, 81.43967
1116.523, 87.91243
1117.005, 94.54411
1117.487, 101.4695
1117.969, 108.3521
1118.451, 115.0132
1118.933, 121.5900
1119.415, 128.3371
1119.897, 135.1577
1120.380, 141.4366
1120.862, 146.9824
1121.344, 152.5247
1121.826, 158.8035
1122.308, 163.6225
1122.790, 166.2589
1123.272, 167.0727
1123.754, 166.4036
1124.236, 164.1989
1124.719, 160.2561
1125.201, 154.5013
1125.683, 147.1941
1126.165, 138.0763
1126.647, 128.2781
1127.129, 117.9249
1127.611, 107.4426
1128.093, 97.03348
1128.576, 86.99314
1129.058, 77.87148
1129.540, 69.69844
1130.022, 61.95742
1130.504, 54.64092
1130.986, 48.26048
1131.468, 42.94174
1131.950, 38.36730
1132.432, 34.41510
1132.915, 30.99986
1133.397, 28.08058
1133.879, 25.56031
1134.361, 23.07865
1134.843, 20.63652
1135.325, 18.50253
1135.807, 16.70400
1136.289, 15.25942
1136.771, 14.16350
1137.254, 13.07230
1137.736, 11.65762
1138.218, 10.26920
1138.700, 9.642401
1139.182, 9.554882
1139.664, 9.322090
1140.146, 8.920788
1140.628, 8.289444
1141.111, 7.460265
1141.593, 6.689507
1142.075, 6.104561
1142.557, 5.624973
1143.039, 5.154530
1143.521, 4.729189
1144.003, 4.437452
1144.485, 4.223011
1144.968, 3.971344
1145.450, 3.686728
1145.932, 3.421406
1146.414, 3.193067
1146.896, 2.998775
1147.378, 2.852692
1147.860, 2.702901
1148.342, 2.496211
1148.824, 2.262837
1149.307, 1.995562
1149.789, 1.743691
1150.271, 1.647844
1150.753, 1.662188
1151.235, 1.477330
1151.717, 0.8967960
1152.199, 0.4527430
1152.681, 0.5838280
1153.163, 0.7919970
1153.646, 0.7230640
1154.128, 0.5843000
1154.610, 0.6365070
1155.092, 0.7998890
1155.574, 0.8298420
1156.056, 0.6765490
1156.538, 0.5582730
1157.020, 0.6084210
1157.503, 0.6005190
1157.985, 0.3749110
1158.467, 0.1774300
1158.949, 0.1454000
1159.431, 0.2342340
1159.913, 0.4549450
1160.395, 0.7676660
1160.877, 0.8547590
1161.359, 0.5515830
1161.842, 0.3123200
1162.324, 0.1492680
1162.806, 3.9987002E-02
1163.288, 1.8730000E-02
1163.770, 2.4181001E-02
1164.252, 6.7804001E-02
1164.734, 0.1823700
1165.216, 0.1328040
1165.698, 0.1029940
1166.181, 0.1947300
1166.663, 9.8853998E-02
1167.145, 1.4905000E-02
1167.627, 3.9926998E-02
1168.109, 4.5182001E-02
1168.591, 1.7916000E-02
1169.073, 0.1097550
1169.555, 0.1997860
1170.037, 0.2613080
1170.520, 0.1464460
1171.002, 0.1358420
1171.484, 0.1782860
1171.966, 2.7674001E-02
1172.448, 6.5913998E-02
1172.930, 0.1706600
1173.412, 0.3805900
1173.894, 0.3600020
1174.377, 0.2242190
1174.859, 0.1414510
1175.341, 8.0237001E-02
1175.823, 8.1983998E-02
1176.305, 0.2911210
1176.787, 0.3899850
1177.269, 0.3664400
1177.751, 0.2331870
1178.234, 1.6721999E-02
1178.716, 0.1170820
1179.198, 5.7990002E-03
1179.680, 0.1476460
1180.162, 9.0948001E-02
1180.644, 2.9194999E-02
1181.126, 3.1191001E-02
1181.608, 4.6991002E-02
1182.090, 0.1489110
1182.573, 0.2398560
1183.055, 0.2453040
1183.537, 0.1243990
1184.019, 1.1406000E-02
1184.501, 1.4245000E-02
1184.983, 2.2047000E-02
1185.465, 7.4008003E-02
1185.947, 0.1038010
1186.429, 8.2489997E-03
1186.912, 0.1303410
1187.394, 0.1503080
1187.876, 4.3125998E-02
1188.358, 3.8249001E-02
1188.840, 7.6328002E-02
1189.322, 7.9140000E-02
1189.804, 3.1491000E-02
1190.286, 3.1868000E-02
1190.769, 0.1382810
1191.251, 0.2111140
1191.733, 0.1572240
1192.215, 3.6065999E-02
1192.697, 2.1567000E-02
1193.179, 0.1476150
1193.661, 6.6074997E-02
1194.143, 0.3057470
1194.625, 0.5856210
1195.108, 0.7273350
1195.590, 0.6908860
1196.072, 0.4096310
1196.554, 0.1660340
1197.036, 0.3222180
1197.518, 0.6992440
1198.000, 0.6715460
1198.482, 0.3088030
1198.964, 0.3060370
1199.447, 0.6323270
1199.929, 0.7526890
1200.411, 0.5634820
1200.893, 0.3439460
1201.375, 0.2524510
1201.857, 0.2718680
1202.339, 0.4677270
1202.821, 0.6836950
1203.304, 0.6127180
1203.786, 0.4070350
1204.268, 0.3475840
1204.750, 0.3951620
1205.232, 0.3507200
1205.714, 0.1935010
1206.196, 0.1367030
1206.678, 0.3377560
1207.161, 0.5044770
1207.643, 0.3843340
1208.125, 0.2483340
1208.607, 0.3086070
1209.089, 0.4315490
1209.571, 0.4495340
1210.053, 0.4130370
1210.535, 0.4985320
1211.017, 0.7427330
1211.500, 0.8603380
1211.982, 0.6473070
1212.464, 0.5571050
1212.946, 0.7851270
1213.428, 0.9663460
1213.910, 0.9614560
1214.392, 0.8511190
1214.874, 0.6539830
1215.356, 0.4488380
1215.839, 0.5148170
1216.321, 0.9111440
1216.803, 0.9729060
1217.285, 0.6290010
1217.767, 0.3937830
1218.249, 0.3559350
1218.731, 0.4204080
1219.213, 0.5489330
1219.696, 0.7056870
1220.178, 0.8537350
1220.660, 0.9612200
1221.142, 0.8921230
1221.624, 0.7235360
1222.106, 0.7614110
1222.588, 0.9352360
1223.070, 0.8947300
1223.552, 0.6409190
1224.035, 0.5658760
1224.517, 0.8637530
1224.999, 1.224217
1225.481, 1.400306
1225.963, 1.501551
1226.445, 1.667756
1226.927, 1.768091
1227.409, 1.606816
1227.891, 1.312293
1228.374, 1.077010
1228.856, 0.9421680
1229.338, 0.9427220
1229.820, 1.147769
1230.302, 1.240818
1230.784, 1.048553
1231.266, 0.8561470
1231.748, 0.7180990
1232.231, 0.6192580
1232.713, 0.5746230
1233.195, 0.5152610
1233.677, 0.4351980
1234.159, 0.3349180
1234.641, 0.1972930
1235.123, 2.3739001E-02
1235.605, 8.4079998E-03
1236.088, 9.9399999E-02
1236.570, 0.2460750
1237.052, 0.3868080
1237.534, 0.5228730
1238.016, 0.6166050
1238.498, 0.6545020
1238.980, 0.6149810
1239.462, 0.5615170
1239.944, 0.5856080
1240.427, 0.6534720
1240.909, 0.5482420
1241.391, 0.3301290
1241.873, 0.3438000
1242.355, 0.6263550
1242.837, 0.8046790
1243.319, 0.6857380
1243.801, 0.4836500
1244.283, 0.2653130
1244.766, 0.1460730
1245.248, 0.2461630
1245.730, 0.4324710
1246.212, 0.6477080
1246.694, 0.8127200
1247.176, 0.7868040
1247.658, 0.5633630
1248.140, 0.4086350
1248.622, 0.3629220
1249.105, 0.3629480
1249.587, 0.4236830
1250.069, 0.4955640
1250.551, 0.6191510
1251.033, 0.6446570
1251.515, 0.4301770
1251.997, 0.1608130
1252.479, 0.1090170
1252.962, 0.2506240
1253.444, 0.3975720
1253.926, 0.5449220
1254.408, 0.6305090
1254.890, 0.6558290
1255.372, 0.7067320
1255.854, 0.8010230
1256.336, 0.8218000
1256.818, 0.7005210
1257.301, 0.5779620
1257.783, 0.6390120
1258.265, 0.7508110
1258.747, 0.7123000
1259.229, 0.6270330
1259.711, 0.6759830
1260.193, 0.7697020
1260.675, 0.6906450
1261.157, 0.4288850
1261.640, 0.2525720
1262.122, 0.2241140
1262.604, 0.2296710
1263.086, 0.2565970
1263.568, 0.2836810
1264.050, 0.2869480
1264.532, 0.3050310
1265.014, 0.3824160
1265.497, 0.4628000
1265.979, 0.4783620
1266.461, 0.4562170
1266.943, 0.4437910
1267.425, 0.4517770
1267.907, 0.3574920
1268.389, 0.1414030
1268.871, 9.9835999E-02
1269.354, 0.2844760
1269.836, 0.3787850
1270.318, 0.2503450
1270.800, 6.9695003E-02
1271.282, 4.8100000E-04
1271.764, 1.5631000E-02
1272.246, 0.1359620
1272.728, 0.2659970
1273.210, 0.1929000
1273.693, 2.4331000E-02
1274.175, 3.2669000E-02
1274.657, 2.1268001E-02
1275.139, 0.1105080
1275.621, 0.2085720
1276.103, 0.2315760
1276.585, 3.1364001E-02
1277.067, 5.9780002E-02
1277.549, 0.2274600
1278.032, 0.4453070
1278.514, 0.2809730
1278.996, 4.4649001E-02
1279.478, 2.1235000E-02
1279.960, 0.1393490
1280.442, 0.2454640
1280.924, 0.3808500
1281.406, 0.4014340
1281.889, 0.2204480
1282.371, 0.2393510
1282.853, 0.4428700
1283.335, 0.5108490
1283.817, 0.3628140
1284.299, 0.1980710
1284.781, 0.1501280
1285.263, 0.1390260
1285.745, 8.5959002E-02
1286.228, 0.0000000E+00
##END=



