##NAMES=Fredrikssonite
##RRUFFID=R130112
##IDEAL CHEMISTRY=Mg_2_Mn^3+^O_2_(BO_3_)
##LOCALITY=Langban, Filipstad, Varmland, Sweden
##OWNER=RRUFF
##SOURCE=Rock Currier 
##DESCRIPTION=Opaque reddish black striated prismatic crystals, associated with calcite and granular hausmannite. 
##STATUS=The identification of this mineral has been confirmed by single-crystal X-ray diffraction.
##URL=rruff.info/R130112
135.0722, 0.0000000E+00
135.5543, 6.4667001E-02
136.0364, 3.3996999E-02
136.5185, 8.4197998E-02
137.0006, 4.7561999E-02
137.4828, 0.5107270
137.9649, 1.333267
138.4470, 2.079102
138.9291, 2.599274
139.4112, 3.057175
139.8933, 3.577560
140.3755, 4.136292
140.8576, 4.902679
141.3397, 6.272079
141.8218, 8.194122
142.3039, 10.00798
142.7860, 11.16193
143.2681, 11.91270
143.7503, 13.25487
144.2324, 15.65944
144.7145, 18.44783
145.1966, 20.97404
145.6787, 23.22305
146.1608, 25.46387
146.6430, 27.73976
147.1251, 29.99796
147.6072, 33.07021
148.0893, 37.58817
148.5714, 42.75780
149.0535, 48.44897
149.5357, 54.55223
150.0178, 60.60957
150.4999, 66.08841
150.9820, 71.62057
151.4641, 74.95541
151.9462, 76.64526
152.4284, 76.18987
152.9105, 72.62720
153.3926, 65.71059
153.8747, 56.70107
154.3568, 48.71751
154.8389, 41.73860
155.3211, 36.13142
155.8032, 32.40549
156.2853, 29.87871
156.7674, 27.78830
157.2495, 25.84048
157.7316, 24.23309
158.2138, 23.53558
158.6959, 24.23018
159.1780, 25.42072
159.6601, 26.60437
160.1422, 27.72974
160.6243, 29.04446
161.1065, 30.80676
161.5886, 33.01866
162.0707, 35.30696
162.5528, 38.07545
163.0349, 40.75583
163.5170, 42.61237
163.9991, 43.56432
164.4813, 44.99159
164.9634, 47.98897
165.4455, 51.61205
165.9276, 54.50002
166.4097, 56.48128
166.8918, 58.14922
167.3740, 60.16193
167.8561, 62.44843
168.3382, 64.39835
168.8203, 65.74323
169.3024, 66.82239
169.7845, 67.99159
170.2667, 69.42061
170.7488, 70.91664
171.2309, 72.19609
171.7130, 73.60669
172.1951, 74.03093
172.6772, 73.26779
173.1594, 71.42616
173.6415, 68.60953
174.1236, 64.84018
174.6057, 60.15594
175.0878, 54.79080
175.5699, 48.05455
176.0521, 41.33788
176.5342, 34.65755
177.0163, 28.27879
177.4984, 22.68814
177.9805, 18.25345
178.4626, 14.97232
178.9448, 11.94481
179.4269, 8.810577
179.9090, 6.275711
180.3911, 4.847916
180.8732, 4.248047
181.3553, 3.819855
181.8375, 2.959747
182.3196, 1.581177
182.8017, 0.7189790
183.2838, 0.5451510
183.7659, 0.5984650
184.2480, 0.8057100
184.7301, 1.086166
185.2123, 1.229218
185.6944, 1.024994
186.1765, 0.4140320
186.6586, 0.1924440
187.1407, 0.9761050
187.6228, 1.628433
188.1050, 1.834579
188.5871, 1.576385
189.0692, 1.224762
189.5513, 1.128250
190.0334, 1.286545
190.5155, 1.464096
190.9977, 1.708939
191.4798, 1.926193
191.9619, 1.939240
192.4440, 1.678665
192.9261, 1.240662
193.4082, 1.367767
193.8904, 1.861580
194.3725, 2.099854
194.8546, 1.740234
195.3367, 1.015747
195.8188, 0.3369450
196.3009, 0.2947240
196.7831, 0.7753600
197.2652, 1.035568
197.7473, 1.109566
198.2294, 1.054558
198.7115, 0.7617950
199.1936, 0.3106460
199.6758, 8.1032000E-02
200.1579, 7.7225000E-02
200.6400, 0.3621600
201.1221, 1.089722
201.6042, 2.099297
202.0863, 3.007782
202.5685, 3.577805
203.0506, 3.823265
203.5327, 3.868179
204.0148, 3.338936
204.4969, 3.007530
204.9790, 3.315552
205.4612, 4.073593
205.9433, 4.806625
206.4254, 5.098503
206.9075, 4.919777
207.3896, 4.861862
207.8717, 5.057343
208.3539, 5.259796
208.8360, 5.420372
209.3181, 5.526009
209.8002, 5.573166
210.2823, 5.559425
210.7644, 5.486595
211.2466, 5.343918
211.7287, 5.038116
212.2108, 4.757301
212.6929, 4.599800
213.1750, 4.543381
213.6571, 4.487434
214.1393, 4.330475
214.6214, 4.041267
215.1035, 3.882996
215.5856, 4.028961
216.0677, 4.121613
216.5498, 3.930885
217.0320, 3.492065
217.5141, 3.022919
217.9962, 2.721535
218.4783, 2.611961
218.9604, 2.509773
219.4425, 2.383255
219.9247, 2.285011
220.4068, 2.254745
220.8889, 2.289658
221.3710, 2.357376
221.8531, 2.450645
222.3352, 2.567528
222.8174, 2.578323
223.2995, 2.352364
223.7816, 2.119583
224.2637, 2.005325
224.7458, 2.024185
225.2279, 2.236320
225.7100, 2.798515
226.1922, 3.645638
226.6743, 4.249489
227.1564, 4.225662
227.6385, 4.164124
228.1206, 4.616356
228.6027, 5.614510
229.0849, 6.871605
229.5670, 8.494308
230.0491, 10.20425
230.5312, 11.23434
231.0133, 10.83023
231.4954, 10.03149
231.9776, 10.07884
232.4597, 11.07879
232.9418, 12.18615
233.4239, 13.15833
233.9060, 13.83316
234.3881, 13.85294
234.8703, 12.83794
235.3524, 11.37233
235.8345, 10.19472
236.3166, 9.317024
236.7987, 8.644310
237.2808, 8.344940
237.7630, 8.152939
238.2451, 7.743576
238.7272, 6.913193
239.2093, 5.992897
239.6914, 5.498329
240.1735, 5.469215
240.6557, 5.657150
241.1378, 6.354416
241.6199, 7.098175
242.1020, 7.398895
242.5841, 7.043610
243.0662, 6.317436
243.5484, 5.630486
244.0305, 4.870583
244.5126, 4.395210
244.9947, 4.571709
245.4768, 4.899254
245.9589, 4.962936
246.4410, 4.635666
246.9232, 4.124344
247.4053, 3.766434
247.8874, 3.632698
248.3695, 3.427597
248.8516, 3.180832
249.3337, 2.802223
249.8159, 2.109100
250.2980, 1.078247
250.7801, 6.1165001E-02
251.2622, 0.2987980
251.7443, 0.5183640
252.2264, 0.7357030
252.7086, 0.2213360
253.1907, 1.383118
253.6728, 2.089737
254.1549, 2.179146
254.6370, 1.951042
255.1191, 1.862373
255.6013, 2.083260
256.0834, 2.096809
256.5655, 1.715889
257.0476, 1.321381
257.5297, 1.188431
258.0118, 1.332474
258.4940, 1.514267
258.9761, 1.399078
259.4582, 0.8403470
259.9403, 0.3898010
260.4224, 0.1380620
260.9045, 9.3018003E-02
261.3867, 0.4160920
261.8688, 0.8365480
262.3509, 1.281631
262.8330, 1.667358
263.3151, 1.953110
263.7972, 2.350861
264.2794, 3.038956
264.7615, 3.662399
265.2436, 3.893356
265.7257, 3.809036
266.2078, 3.829391
266.6899, 4.408249
267.1721, 5.686630
267.6542, 6.597549
268.1363, 7.019852
268.6184, 7.270111
269.1005, 7.413681
269.5826, 7.501587
270.0648, 7.629593
270.5469, 7.882217
271.0290, 8.262695
271.5111, 8.624176
271.9932, 9.116577
272.4753, 9.449539
272.9575, 9.283218
273.4396, 8.823547
273.9217, 8.652130
274.4038, 9.216080
274.8859, 10.42795
275.3680, 11.19223
275.8501, 11.30426
276.3322, 11.31628
276.8144, 11.26567
277.2965, 11.25279
277.7786, 11.52307
278.2607, 12.26091
278.7428, 13.30936
279.2249, 13.98143
279.7071, 13.69568
280.1892, 13.78934
280.6713, 14.79919
281.1534, 16.38783
281.6355, 18.01602
282.1176, 19.48051
282.5998, 20.76707
283.0819, 21.75909
283.5640, 22.27306
284.0461, 22.90294
284.5282, 23.83363
285.0103, 24.93169
285.4925, 25.99471
285.9746, 26.95456
286.4567, 27.90453
286.9388, 29.00568
287.4209, 30.25505
287.9030, 31.61975
288.3852, 33.20845
288.8673, 34.85909
289.3494, 36.34952
289.8315, 37.62659
290.3136, 38.80946
290.7957, 40.01942
291.2779, 41.23611
291.7600, 42.63446
292.2421, 44.39061
292.7242, 46.24641
293.2063, 47.95432
293.6884, 49.48889
294.1706, 50.93742
294.6527, 52.35643
295.1348, 53.74910
295.6169, 55.19791
296.0990, 56.77579
296.5811, 58.36057
297.0633, 59.89052
297.5454, 61.34993
298.0275, 62.67102
298.5096, 63.68661
298.9917, 64.51991
299.4738, 65.84578
299.9560, 67.94905
300.4381, 70.25926
300.9202, 72.65250
301.4023, 75.04498
301.8844, 77.06693
302.3665, 78.40317
302.8487, 79.33005
303.3308, 80.70624
303.8129, 82.74182
304.2950, 84.83797
304.7771, 86.86292
305.2592, 88.75577
305.7414, 90.27435
306.2235, 91.20061
306.7056, 91.94197
307.1877, 93.37489
307.6698, 95.68036
308.1519, 97.79990
308.6341, 99.25015
309.1162, 100.3171
309.5983, 101.5004
310.0804, 102.9352
310.5625, 104.4145
311.0446, 105.5616
311.5268, 106.3598
312.0089, 107.3900
312.4910, 109.1553
312.9731, 111.0351
313.4552, 112.2234
313.9373, 112.5900
314.4195, 112.7399
314.9016, 113.2874
315.3837, 114.1682
315.8658, 114.5756
316.3479, 114.1112
316.8300, 113.3892
317.3121, 112.9400
317.7943, 112.7550
318.2764, 112.5059
318.7585, 111.9889
319.2406, 111.2136
319.7227, 110.3364
320.2048, 109.2421
320.6870, 108.1608
321.1691, 107.3236
321.6512, 106.6344
322.1333, 105.7642
322.6154, 104.6218
323.0975, 103.1306
323.5797, 101.1149
324.0618, 98.44072
324.5439, 95.64566
325.0260, 92.89064
325.5081, 90.14386
325.9902, 87.20396
326.4724, 83.91508
326.9545, 80.75406
327.4366, 78.67400
327.9187, 77.90947
328.4008, 76.65810
328.8829, 74.34943
329.3651, 71.49814
329.8472, 68.59395
330.3293, 65.72020
330.8114, 62.98268
331.2935, 60.42688
331.7756, 58.07774
332.2578, 56.15691
332.7399, 55.03590
333.2220, 54.08156
333.7041, 52.77428
334.1862, 51.14938
334.6683, 49.59393
335.1505, 48.37654
335.6326, 47.47519
336.1147, 46.67035
336.5968, 45.99171
337.0789, 45.35649
337.5610, 44.74734
338.0432, 44.15393
338.5253, 43.55405
339.0074, 42.93095
339.4895, 42.32765
339.9716, 41.87092
340.4537, 41.85054
340.9359, 41.53438
341.4180, 40.62614
341.9001, 39.32152
342.3822, 37.80554
342.8643, 36.14862
343.3464, 34.59007
343.8286, 33.49818
344.3107, 33.13626
344.7928, 32.57980
345.2749, 31.60853
345.7570, 30.53883
346.2391, 29.67990
346.7213, 29.03129
347.2034, 28.29872
347.6855, 27.22532
348.1676, 25.78935
348.6497, 24.36076
349.1318, 23.03451
349.6140, 21.64772
350.0961, 19.91508
350.5782, 18.03870
351.0603, 16.54662
351.5424, 15.80913
352.0245, 15.61720
352.5067, 15.02232
352.9888, 13.55031
353.4709, 12.29070
353.9530, 11.44445
354.4351, 10.85384
354.9172, 10.34441
355.3994, 9.853333
355.8815, 9.397575
356.3636, 9.003113
356.8457, 8.709129
357.3278, 8.398788
357.8099, 7.997414
358.2920, 7.634781
358.7741, 7.423080
359.2563, 7.354980
359.7384, 7.314796
360.2205, 7.150208
360.7026, 6.803680
361.1847, 6.910416
361.6668, 7.794815
362.1490, 8.761536
362.6311, 9.706863
363.1132, 10.55730
363.5953, 11.16242
364.0774, 11.40280
364.5595, 11.41925
365.0417, 11.82361
365.5238, 12.96001
366.0059, 14.03358
366.4880, 14.87215
366.9701, 15.64302
367.4522, 16.61273
367.9344, 17.83459
368.4165, 18.98129
368.8986, 19.54437
369.3807, 19.42213
369.8628, 18.95625
370.3449, 17.99680
370.8271, 16.85894
371.3092, 15.56246
371.7913, 14.20080
372.2734, 12.97334
372.7555, 12.09409
373.2376, 11.55386
373.7198, 10.97158
374.2019, 10.17474
374.6840, 9.563034
375.1661, 9.256264
375.6482, 9.205902
376.1303, 9.377228
376.6125, 9.799110
377.0946, 10.32093
377.5767, 10.56898
378.0588, 10.40952
378.5409, 10.36006
379.0230, 10.57212
379.5052, 10.93966
379.9873, 11.41030
380.4694, 11.97204
380.9515, 12.59183
381.4336, 13.36581
381.9157, 14.28597
382.3979, 14.74372
382.8800, 14.27151
383.3621, 13.76572
383.8442, 13.91326
384.3263, 14.55564
384.8084, 15.10872
385.2906, 14.98303
385.7727, 14.60132
386.2548, 15.10860
386.7369, 16.80246
387.2190, 18.29454
387.7011, 18.57435
388.1833, 18.20451
388.6654, 17.97513
389.1475, 18.17326
389.6296, 18.28989
390.1117, 17.91663
390.5938, 17.07261
391.0760, 15.86526
391.5581, 14.18710
392.0402, 12.32485
392.5223, 10.70679
393.0044, 9.351952
393.4865, 7.887886
393.9687, 5.936172
394.4508, 3.870117
394.9329, 2.323929
395.4150, 1.389862
395.8971, 0.7661740
396.3792, 0.2752610
396.8614, 0.1003340
397.3435, 0.5874480
397.8256, 1.485710
398.3077, 2.240578
398.7898, 2.388931
399.2719, 2.062042
399.7540, 1.721275
400.2361, 1.569771
400.7183, 1.593864
401.2004, 1.799202
401.6825, 2.399567
402.1646, 2.783348
402.6467, 2.738976
403.1288, 2.470657
403.6110, 2.175018
404.0931, 1.906143
404.5752, 1.672714
405.0573, 1.482986
405.5394, 1.334473
406.0215, 1.254478
406.5037, 1.434387
406.9858, 1.493309
407.4679, 1.201591
407.9500, 0.6310810
408.4321, 2.1187000E-02
408.9142, 0.6441570
409.3964, 1.236435
409.8785, 1.799828
410.3606, 2.336700
410.8427, 2.834778
411.3248, 3.167831
411.8069, 3.528793
412.2891, 4.183990
412.7712, 5.166290
413.2533, 6.171242
413.7354, 6.741035
414.2175, 6.710220
414.6996, 6.914139
415.1818, 7.492889
415.6639, 8.184189
416.1460, 8.891266
416.6281, 9.634262
417.1102, 10.49121
417.5923, 11.56342
418.0745, 12.74467
418.5566, 13.61367
419.0387, 13.88571
419.5208, 14.48025
420.0029, 15.97560
420.4850, 17.73653
420.9672, 19.19464
421.4493, 20.21181
421.9314, 21.00082
422.4135, 21.77666
422.8956, 22.53080
423.3777, 23.10384
423.8599, 23.41205
424.3420, 23.60722
424.8241, 23.81015
425.3062, 24.01000
425.7883, 24.16367
426.2704, 24.31685
426.7526, 24.38509
427.2347, 24.32141
427.7168, 24.14059
428.1989, 23.51391
428.6810, 22.01045
429.1631, 20.06540
429.6453, 18.66983
430.1274, 17.99286
430.6095, 17.48433
431.0916, 17.00376
431.5737, 16.48423
432.0558, 15.75072
432.5380, 14.74542
433.0201, 13.64670
433.5022, 12.62327
433.9843, 11.67381
434.4664, 10.92359
434.9485, 10.45972
435.4307, 10.12474
435.9128, 9.833405
436.3949, 9.584229
436.8770, 9.432587
437.3591, 9.438477
437.8412, 9.511292
438.3234, 9.303009
438.8055, 8.497856
439.2876, 7.811951
439.7697, 7.207062
440.2518, 6.792648
440.7339, 6.758087
441.2160, 7.098801
441.6982, 7.562851
442.1803, 7.898087
442.6624, 8.132004
443.1445, 8.040840
443.6266, 7.092712
444.1087, 6.370750
444.5909, 6.331116
445.0730, 6.722862
445.5551, 7.129135
446.0372, 7.344261
446.5193, 7.417984
447.0014, 7.476860
447.4836, 7.574585
447.9657, 7.494698
448.4478, 6.974350
448.9299, 6.424767
449.4120, 6.055183
449.8941, 5.911804
450.3763, 5.999374
450.8584, 6.474396
451.3405, 7.207611
451.8226, 7.607384
452.3047, 7.514809
452.7868, 7.521866
453.2690, 8.015823
453.7511, 8.793213
454.2332, 9.642479
454.7153, 10.62216
455.1974, 11.38870
455.6795, 11.45309
456.1617, 11.03008
456.6438, 10.98173
457.1259, 11.61600
457.6080, 12.53343
458.0901, 13.25332
458.5722, 13.79199
459.0544, 14.34215
459.5365, 14.83495
460.0186, 15.35645
460.5007, 16.03356
460.9828, 16.86505
461.4649, 17.75734
461.9471, 18.67757
462.4292, 19.55135
462.9113, 20.13765
463.3934, 20.06432
463.8755, 20.28183
464.3576, 20.96376
464.8398, 21.85598
465.3219, 22.75927
465.8040, 23.64213
466.2861, 24.54094
466.7682, 25.48862
467.2503, 26.49599
467.7325, 27.54030
468.2146, 28.56999
468.6967, 29.59934
469.1788, 30.61801
469.6609, 31.63011
470.1430, 32.62373
470.6252, 33.60107
471.1073, 34.64919
471.5894, 35.92020
472.0715, 37.44102
472.5536, 38.99286
473.0357, 40.45049
473.5179, 42.07065
474.0000, 44.12901
474.4821, 46.49737
474.9642, 48.72470
475.4463, 50.36896
475.9284, 51.74026
476.4106, 53.57001
476.8927, 55.90999
477.3748, 58.31100
477.8569, 60.41586
478.3390, 62.56895
478.8211, 65.31967
479.3033, 68.83118
479.7854, 72.39851
480.2675, 75.66130
480.7496, 78.74261
481.2317, 81.80425
481.7138, 84.86351
482.1959, 88.12657
482.6780, 91.83084
483.1602, 95.97421
483.6423, 100.1303
484.1244, 104.6810
484.6065, 108.8228
485.0886, 112.1922
485.5707, 114.9575
486.0529, 117.4296
486.5350, 119.7344
487.0171, 121.7539
487.4992, 123.3402
487.9813, 124.7935
488.4634, 124.9280
488.9456, 123.4919
489.4277, 121.2238
489.9098, 118.5856
490.3919, 115.4091
490.8740, 111.1130
491.3561, 105.2294
491.8383, 98.37668
492.3204, 92.27808
492.8025, 87.23026
493.2846, 82.15573
493.7667, 76.54874
494.2488, 71.08484
494.7310, 66.24734
495.2131, 62.05310
495.6952, 58.13576
496.1773, 54.27433
496.6594, 50.51929
497.1415, 47.07498
497.6237, 43.98204
498.1058, 40.99336
498.5879, 37.85974
499.0700, 34.78708
499.5521, 32.14797
500.0342, 30.00916
500.5164, 28.15431
500.9985, 26.66448
501.4806, 25.30778
501.9627, 23.61938
502.4448, 21.51777
502.9269, 19.37122
503.4091, 17.50769
503.8912, 15.92439
504.3733, 14.47409
504.8554, 13.25613
505.3375, 12.04539
505.8196, 10.73793
506.3018, 9.379753
506.7839, 8.034325
507.2660, 6.732407
507.7481, 5.532143
508.2302, 4.551300
508.7123, 3.887749
509.1945, 3.133621
509.6766, 2.057816
510.1587, 1.096962
510.6408, 0.4354930
511.1229, 2.1111000E-02
511.6050, 0.2412720
512.0872, 0.3642120
512.5693, 0.4847490
513.0514, 0.9285050
513.5335, 1.770653
514.0156, 2.395576
514.4977, 2.464287
514.9799, 2.467529
515.4620, 2.871658
515.9441, 3.618942
516.4262, 4.275826
516.9083, 4.623215
517.3904, 4.803780
517.8726, 5.016312
518.3547, 5.254387
518.8368, 5.340302
519.3189, 5.107307
519.8010, 4.770027
520.2831, 4.901039
520.7653, 5.736923
521.2474, 6.255035
521.7295, 6.111275
522.2116, 5.703674
522.6937, 5.260399
523.1758, 4.869240
523.6580, 4.701431
524.1401, 4.924026
524.6222, 5.420303
525.1043, 5.570976
525.5864, 5.179878
526.0685, 4.699188
526.5507, 3.969727
527.0328, 3.303665
527.5149, 3.073349
527.9970, 3.241699
528.4791, 3.337891
528.9612, 2.831772
529.4434, 1.875916
529.9255, 1.449829
530.4076, 1.784470
530.8897, 2.117874
531.3718, 2.044701
531.8539, 1.841225
532.3361, 1.864807
532.8182, 2.233803
533.3003, 2.359444
533.7824, 1.723305
534.2645, 0.5944670
534.7466, 0.5581970
535.2288, 1.697029
535.7109, 2.536896
536.1930, 2.684761
536.6751, 2.330650
537.1572, 2.625610
537.6393, 4.041084
538.1215, 5.467712
538.6036, 6.663322
539.0857, 7.672890
539.5678, 8.507317
540.0499, 9.189674
540.5320, 9.858200
541.0142, 10.68082
541.4963, 11.67039
541.9784, 12.34875
542.4604, 11.93852
542.9426, 12.15488
543.4247, 13.87952
543.9068, 16.14290
544.3889, 17.78978
544.8710, 18.52997
545.3531, 19.04941
545.8353, 20.06224
546.3174, 21.53763
546.7995, 23.03775
547.2816, 24.51891
547.7637, 26.05910
548.2458, 27.82207
548.7280, 29.64845
549.2101, 31.30290
549.6922, 32.74681
550.1743, 33.99538
550.6564, 34.91278
551.1385, 35.67410
551.6207, 36.61237
552.1028, 37.79501
552.5849, 39.26941
553.0670, 41.18317
553.5491, 43.54601
554.0313, 45.34140
554.5134, 45.99150
554.9955, 46.85649
555.4776, 48.28842
555.9597, 50.16216
556.4418, 52.35829
556.9240, 54.82338
557.4061, 57.39517
557.8882, 59.90207
558.3703, 62.32040
558.8524, 64.87604
559.3345, 67.70132
559.8167, 70.43501
560.2988, 72.88216
560.7809, 75.21634
561.2630, 77.59396
561.7451, 80.02034
562.2272, 82.76863
562.7094, 86.34763
563.1915, 90.45724
563.6736, 93.96672
564.1557, 96.63000
564.6378, 99.37556
565.1199, 102.9135
565.6021, 107.0841
566.0842, 111.0792
566.5663, 114.6394
567.0484, 118.4003
567.5305, 122.7454
568.0126, 127.3029
568.4948, 131.7189
568.9769, 135.8863
569.4590, 139.8331
569.9411, 143.4690
570.4232, 146.8468
570.9053, 150.6082
571.3875, 154.8760
571.8696, 159.3776
572.3517, 164.4499
572.8338, 169.5678
573.3159, 174.1304
573.7980, 178.0975
574.2802, 181.9961
574.7623, 186.3926
575.2444, 191.1452
575.7265, 195.6534
576.2086, 199.9245
576.6907, 203.8773
577.1729, 207.1716
577.6550, 210.2790
578.1371, 213.8942
578.6192, 218.0554
579.1013, 222.3831
579.5834, 227.0917
580.0656, 231.7524
580.5477, 235.8180
581.0298, 239.2914
581.5119, 242.6925
581.9940, 246.3904
582.4761, 250.1142
582.9583, 253.0160
583.4404, 254.2788
583.9225, 256.0428
584.4046, 258.9121
584.8867, 261.8164
585.3688, 264.0979
585.8510, 265.7321
586.3331, 266.9865
586.8152, 268.0435
587.2973, 268.8917
587.7794, 269.3408
588.2615, 269.2880
588.7437, 269.3276
589.2258, 269.7855
589.7079, 270.2119
590.1900, 270.1303
590.6721, 269.6037
591.1542, 269.0946
591.6364, 269.0495
592.1185, 268.8622
592.6006, 267.8697
593.0827, 266.2806
593.5648, 264.7634
594.0469, 263.5750
594.5291, 262.4279
595.0112, 260.8794
595.4933, 258.7764
595.9754, 256.9768
596.4575, 256.1786
596.9396, 254.8745
597.4218, 252.1210
597.9039, 248.6752
598.3860, 245.6937
598.8681, 243.5499
599.3502, 241.5607
599.8323, 238.8051
600.3145, 235.3051
600.7966, 232.0376
601.2787, 229.1642
601.7608, 226.2814
602.2429, 223.4033
602.7250, 220.2888
603.2072, 216.4543
603.6893, 211.4885
604.1714, 206.8069
604.6535, 203.3397
605.1356, 200.4732
605.6177, 197.4184
606.0999, 194.0627
606.5820, 190.4107
607.0641, 186.3959
607.5462, 182.1987
608.0283, 178.5977
608.5104, 175.9538
608.9926, 173.4534
609.4747, 171.4404
609.9568, 169.2581
610.4389, 166.2832
610.9210, 162.6841
611.4031, 159.1270
611.8853, 155.9856
612.3674, 153.2182
612.8495, 150.8588
613.3316, 148.9567
613.8137, 146.6739
614.2958, 143.5397
614.7780, 140.2953
615.2601, 137.7208
615.7422, 135.7043
616.2243, 133.6448
616.7064, 131.3422
617.1885, 129.0407
617.6707, 126.8650
618.1528, 124.8102
618.6349, 122.8755
619.1170, 121.0560
619.5991, 119.2555
620.0812, 117.3047
620.5634, 115.1455
621.0455, 113.6039
621.5276, 113.3867
622.0097, 112.9302
622.4918, 111.8424
622.9739, 110.4086
623.4561, 108.8546
623.9382, 107.2586
624.4203, 105.7456
624.9023, 104.4902
625.3845, 103.3945
625.8666, 102.1508
626.3487, 100.7260
626.8308, 99.50092
627.3129, 98.78880
627.7950, 98.23637
628.2772, 97.06906
628.7593, 95.14192
629.2414, 93.44608
629.7235, 92.09093
630.2056, 91.03540
630.6877, 90.31410
631.1699, 89.85718
631.6520, 89.54623
632.1341, 89.33008
632.6162, 89.15028
633.0983, 88.95370
633.5804, 88.79141
634.0626, 88.30266
634.5447, 87.00665
635.0268, 86.02728
635.5089, 86.04411
635.9910, 86.59393
636.4731, 86.92416
636.9553, 86.77823
637.4374, 86.77374
637.9195, 87.49759
638.4016, 88.61990
638.8837, 89.50800
639.3658, 90.11177
639.8480, 90.73965
640.3301, 91.54550
640.8122, 92.49231
641.2943, 93.56635
641.7764, 94.84872
642.2585, 96.24950
642.7407, 97.84451
643.2228, 99.41214
643.7049, 100.7747
644.1870, 102.0559
644.6691, 103.4321
645.1512, 104.9043
645.6334, 106.7024
646.1155, 109.4924
646.5976, 113.2954
647.0797, 116.6348
647.5618, 119.1452
648.0439, 121.3961
648.5261, 123.5878
649.0082, 125.8454
649.4903, 128.5858
649.9724, 132.0653
650.4545, 135.7720
650.9366, 139.5499
651.4188, 143.3427
651.9009, 147.0063
652.3830, 150.5634
652.8651, 154.3436
653.3472, 158.6687
653.8293, 163.3416
654.3115, 167.4279
654.7936, 170.1707
655.2757, 174.0498
655.7578, 180.4207
656.2399, 187.2020
656.7220, 193.1876
657.2042, 198.6356
657.6863, 204.4537
658.1684, 211.0554
658.6505, 218.0617
659.1326, 225.3328
659.6147, 232.7092
660.0969, 239.7612
660.5790, 246.3907
661.0611, 253.0501
661.5432, 260.0944
662.0253, 267.5317
662.5074, 275.3802
662.9896, 284.5522
663.4717, 292.9474
663.9538, 299.9774
664.4359, 306.5185
664.9180, 313.3860
665.4001, 320.4771
665.8823, 327.1427
666.3644, 333.1618
666.8465, 338.2349
667.3286, 341.9334
667.8107, 344.2644
668.2928, 345.3157
668.7750, 345.1593
669.2571, 343.6137
669.7392, 340.3108
670.2213, 335.2717
670.7034, 329.6706
671.1855, 324.0607
671.6677, 317.2435
672.1498, 308.5598
672.6319, 298.7162
673.1140, 288.2405
673.5961, 277.3257
674.0782, 266.0946
674.5604, 254.5490
675.0425, 242.7730
675.5246, 230.9569
676.0067, 219.0985
676.4888, 207.1994
676.9709, 194.7351
677.4531, 182.7489
677.9352, 172.2773
678.4173, 162.9779
678.8994, 153.6925
679.3815, 144.0177
679.8636, 134.4695
680.3458, 125.1352
680.8279, 116.2026
681.3100, 107.9473
681.7921, 100.4182
682.2742, 93.25694
682.7563, 86.12767
683.2385, 79.20034
683.7206, 73.32114
684.2027, 69.07800
684.6848, 64.59692
685.1669, 59.36838
685.6490, 54.11419
686.1312, 49.06703
686.6133, 44.34820
687.0954, 40.20502
687.5775, 36.93788
688.0596, 33.93098
688.5417, 30.48067
689.0239, 26.91131
689.5060, 24.15946
689.9881, 22.35680
690.4702, 20.62984
690.9523, 18.23952
691.4344, 15.36878
691.9166, 12.88226
692.3987, 10.99097
692.8808, 9.160233
693.3629, 7.181984
693.8450, 5.431671
694.3271, 4.259529
694.8093, 3.486275
695.2914, 2.663826
695.7735, 1.601372
696.2556, 0.4036940
696.7377, 1.026176
697.2198, 2.510010
697.7020, 3.306450
698.1841, 3.246788
698.6662, 3.247063
699.1483, 4.011818
699.6304, 5.291306
700.1125, 6.120110
700.5947, 6.087372
701.0768, 6.212463
701.5589, 6.833946
702.0410, 7.311539
702.5231, 7.067314
703.0052, 6.397690
703.4874, 5.998314
703.9695, 6.179619
704.4516, 6.561165
704.9337, 6.727524
705.4158, 6.693939
705.8979, 6.462990
706.3801, 5.984055
706.8622, 5.669624
707.3442, 5.864220
707.8264, 6.313988
708.3085, 6.366310
708.7906, 5.921532
709.2727, 5.356560
709.7548, 4.423645
710.2369, 3.642952
710.7191, 3.478012
711.2012, 3.641159
711.6833, 3.587196
712.1654, 3.122314
712.6475, 2.522171
713.1296, 2.107986
713.6118, 1.843758
714.0939, 1.534325
714.5760, 1.173523
715.0581, 0.7592390
715.5402, 0.2739790
716.0223, 0.2526470
716.5045, 0.8068080
716.9866, 1.430428
717.4687, 1.842667
717.9508, 1.676704
718.4329, 1.662621
718.9150, 2.274879
719.3972, 3.219116
719.8793, 4.124588
720.3614, 4.863319
720.8435, 5.399605
721.3256, 5.705994
721.8077, 5.779869
722.2899, 5.494057
722.7720, 4.760670
723.2541, 4.383148
723.7362, 4.772030
724.2183, 5.389496
724.7004, 5.641716
725.1826, 5.531265
725.6647, 5.312767
726.1468, 4.812946
726.6289, 4.430538
727.1110, 4.391586
727.5931, 4.493431
728.0753, 4.542324
728.5574, 4.496170
729.0395, 4.370312
729.5216, 4.147346
730.0037, 3.910282
730.4858, 3.851551
730.9680, 3.973606
731.4501, 4.182125
731.9322, 4.487820
732.4143, 4.809914
732.8964, 5.077984
733.3785, 5.307911
733.8607, 5.585262
734.3428, 6.030525
734.8249, 6.342617
735.3070, 6.390141
735.7891, 6.327332
736.2712, 6.171303
736.7534, 6.027477
737.2355, 6.116322
737.7176, 6.552341
738.1997, 7.180901
738.6818, 7.926022
739.1639, 8.730927
739.6461, 8.893791
740.1282, 8.175724
740.6103, 7.667534
741.0924, 8.063339
741.5745, 8.997486
742.0566, 9.697964
742.5388, 10.17601
743.0209, 10.42332
743.5030, 10.27483
743.9851, 10.06861
744.4672, 9.867233
744.9493, 9.761566
745.4315, 9.931625
745.9136, 10.40429
746.3957, 10.91089
746.8778, 11.19297
747.3599, 11.30689
747.8420, 11.40965
748.3242, 11.50097
748.8063, 11.61040
749.2884, 11.75549
749.7705, 11.89530
750.2526, 11.96984
750.7347, 11.97416
751.2169, 12.04699
751.6990, 12.22305
752.1811, 12.46430
752.6632, 12.75093
753.1453, 13.00197
753.6274, 13.25184
754.1096, 13.47615
754.5917, 13.53566
755.0738, 13.26149
755.5559, 12.94295
756.0380, 13.05006
756.5201, 13.48899
757.0023, 13.85405
757.4844, 14.05891
757.9665, 14.10538
758.4486, 14.01789
758.9307, 13.80933
759.4128, 13.51955
759.8950, 13.08102
760.3771, 12.74872
760.8592, 12.65602
761.3413, 12.56691
761.8234, 12.24643
762.3055, 11.83684
762.7877, 11.64704
763.2698, 11.77946
763.7519, 11.92341
764.2340, 11.75531
764.7161, 11.50692
765.1982, 11.61959
765.6804, 12.00726
766.1625, 12.22804
766.6446, 12.13829
767.1267, 11.79562
767.6088, 11.23891
768.0909, 10.43723
768.5731, 9.887196
769.0552, 9.759529
769.5373, 9.569153
770.0194, 9.074291
770.5015, 8.628635
770.9836, 8.531750
771.4658, 8.736683
771.9479, 8.961979
772.4300, 9.084076
772.9121, 9.230671
773.3942, 9.645599
773.8763, 10.08187
774.3585, 10.10304
774.8406, 9.698257
775.3227, 9.142376
775.8048, 8.570572
776.2869, 8.082764
776.7690, 7.969479
777.2512, 8.300053
777.7333, 8.585758
778.2154, 8.814262
778.6975, 8.927670
779.1796, 8.781826
779.6617, 8.543652
780.1439, 8.498676
780.6260, 8.675587
781.1081, 8.909306
781.5902, 9.389996
782.0723, 9.717216
782.5544, 9.526588
783.0366, 9.027386
783.5187, 8.521290
784.0008, 8.111954
784.4829, 7.861496
784.9650, 7.852760
785.4471, 8.052944
785.9293, 8.477932
786.4114, 9.131218
786.8935, 9.298756
787.3756, 8.666359
787.8577, 7.904842
788.3398, 7.635799
788.8220, 7.810272
789.3040, 7.973698
789.7861, 8.365353
790.2682, 8.412277
790.7504, 7.925655
791.2325, 7.213921
791.7146, 6.217636
792.1967, 5.211521
792.6788, 4.733318
793.1609, 5.016880
793.6431, 5.452118
794.1252, 5.507233
794.6073, 5.346954
795.0894, 5.299400
795.5715, 5.366470
796.0536, 5.346783
796.5358, 5.147270
797.0179, 4.929455
797.5000, 4.917839
797.9821, 5.106270
798.4642, 5.174545
798.9464, 5.143074
799.4285, 5.029408
799.9106, 4.759838
800.3927, 4.449944
800.8748, 4.083447
801.3569, 3.719704
801.8391, 3.656231
802.3212, 4.192108
802.8033, 4.721191
803.2854, 4.954453
803.7675, 5.001774
804.2496, 4.971386
804.7318, 4.874554
805.2139, 4.652248
805.6960, 4.262951
806.1781, 3.881428
806.6602, 3.875175
807.1423, 4.204750
807.6245, 4.349380
808.1066, 4.343304
808.5887, 3.734219
809.0708, 1.867912
809.5529, 7.1640000E-02
810.0350, 0.1101110
810.5172, 2.180801
810.9993, 3.574665
811.4814, 3.596298
811.9635, 3.342724
812.4456, 2.940975
812.9277, 2.510822
813.4099, 2.103596
813.8920, 1.766678
814.3741, 1.613785
814.8562, 1.752895
815.3383, 1.982880
815.8204, 2.087715
816.3026, 2.126755
816.7847, 2.330677
817.2668, 2.669933
817.7489, 2.650082
818.2310, 1.954971
818.7131, 0.9882470
819.1953, 0.5365450
819.6774, 0.6678430
820.1595, 0.8685110
820.6416, 1.176502
821.1237, 1.497765
821.6058, 1.895489
822.0880, 2.210789
822.5701, 2.232738
823.0522, 1.972530
823.5343, 1.724129
824.0164, 1.396858
824.4985, 1.263992
824.9807, 1.703430
825.4628, 2.231140
825.9449, 2.184479
826.4270, 1.662460
826.9091, 1.360916
827.3912, 1.720707
827.8734, 2.204124
828.3555, 1.917080
828.8376, 1.088955
829.3197, 0.6893040
829.8018, 0.8055340
830.2839, 1.117260
830.7661, 1.508865
831.2482, 1.891624
831.7303, 2.130871
832.2124, 2.233410
832.6945, 2.204353
833.1766, 1.863480
833.6588, 1.601269
834.1409, 1.647408
834.6230, 1.708645
835.1051, 1.390434
835.5872, 0.8285480
836.0693, 0.7181590
836.5515, 1.664452
837.0336, 2.436790
837.5157, 2.127834
837.9978, 1.449612
838.4799, 1.208431
838.9620, 1.393288
839.4442, 1.669041
839.9263, 1.873783
840.4084, 1.992107
840.8905, 2.035210
841.3726, 1.988117
841.8547, 1.634926
842.3369, 0.9389150
842.8190, 0.5968210
843.3011, 0.8890990
843.7832, 1.425327
844.2653, 1.868782
844.7474, 2.222374
845.2296, 2.283905
845.7117, 1.655769
846.1938, 1.273056
846.6759, 1.396820
847.1580, 1.630848
847.6401, 1.779285
848.1223, 1.835052
848.6044, 1.812698
849.0865, 1.678471
849.5686, 1.582958
850.0507, 1.774239
850.5328, 1.918018
851.0150, 1.524826
851.4971, 0.8301730
851.9792, 0.4072380
852.4613, 0.4267810
852.9434, 0.6562040
853.4255, 0.9234850
853.9077, 1.178192
854.3898, 1.202461
854.8719, 0.9963680
855.3540, 0.9772530
855.8361, 1.289722
856.3182, 1.529106
856.8004, 1.295513
857.2825, 0.7826390
857.7646, 0.6486590
858.2467, 1.194279
858.7288, 1.463764
859.2109, 1.281647
859.6931, 1.038788
860.1752, 0.7939260
860.6573, 0.6108510
861.1394, 0.6299860
861.6215, 0.8433690
862.1036, 0.8987240
862.5858, 0.3764040
863.0679, 5.1624000E-02
863.5500, 0.2830010
864.0321, 0.8860860
864.5142, 0.9916380
864.9963, 0.6149140
865.4785, 0.3369600
865.9606, 0.5091060
866.4427, 0.8303950
866.9248, 0.7539980
867.4069, 0.3682630
867.8890, 0.3694730
868.3712, 0.8499600
868.8533, 1.207275
869.3354, 1.184746
869.8175, 0.9559560
870.2996, 0.7173920
870.7817, 0.4655080
871.2639, 0.4299280
871.7459, 0.8287120
872.2280, 1.062607
872.7101, 0.9672510
873.1923, 0.7435420
873.6744, 0.3406790
874.1565, 7.9692997E-02
874.6386, 7.5695001E-02
875.1207, 0.6430930
875.6028, 1.107655
876.0850, 0.6943020
876.5671, 0.1698190
877.0492, 9.7934999E-02
877.5313, 0.3340450
878.0134, 0.6255260
878.4955, 0.8770940
878.9777, 0.9895670
879.4598, 0.8282360
879.9419, 0.5484540
880.4240, 0.3294030
880.9061, 0.2086560
881.3882, 0.4230610
881.8704, 0.9822240
882.3525, 1.440632
882.8346, 1.522881
883.3167, 1.313366
883.7988, 0.8969920
884.2809, 0.1777610
884.7631, 1.9367000E-02
885.2452, 0.7345500
885.7273, 1.238617
886.2094, 1.028271
886.6915, 0.5689510
887.1736, 0.3866080
887.6558, 0.4636340
888.1379, 0.4450150
888.6200, 0.3158000
889.1021, 9.6694998E-02
889.5842, 0.4180910
890.0663, 0.8278710
890.5485, 0.7525840
891.0306, 0.3928490
891.5127, 0.1473240
891.9948, 0.1223260
892.4769, 0.2175330
892.9590, 0.5043660
893.4412, 0.7699600
893.9233, 0.7726780
894.4054, 0.5726680
894.8875, 0.2314760
895.3696, 0.1788830
895.8517, 0.3918950
896.3339, 0.1756320
896.8160, 0.2306790
897.2981, 0.3619650
897.7802, 0.2358820
898.2623, 6.3698001E-02
898.7444, 0.5674290
899.2266, 0.6873510
899.7087, 2.4597000E-02
900.1908, 0.8154580
900.6729, 0.8694400
901.1550, 8.0410004E-02
901.6371, 0.2415850
902.1193, 0.2719000
902.6014, 0.5676500
903.0835, 0.3514210
903.5656, 4.1198999E-02
904.0477, 0.5828360
904.5298, 1.106857
905.0120, 1.116096
905.4941, 0.3046570
905.9762, 0.2943100
906.4583, 0.3728810
906.9404, 0.2298410
907.4225, 0.1456950
907.9047, 0.5373610
908.3868, 0.5991170
908.8689, 0.3343090
909.3510, 0.1682850
909.8331, 0.4350620
910.3152, 0.7780800
910.7974, 0.8163870
911.2795, 0.6782150
911.7616, 0.6281970
912.2437, 0.6527250
912.7258, 0.4811060
913.2079, 1.4469000E-02
913.6901, 0.4637340
914.1722, 0.2957250
914.6543, 0.3601000
915.1364, 0.8052020
915.6185, 1.042057
916.1006, 0.9544140
916.5828, 0.4079130
917.0649, 2.3218000E-02
917.5470, 0.3819220
918.0291, 1.248919
918.5112, 1.767696
918.9933, 1.849636
919.4755, 1.814945
919.9576, 1.585880
920.4397, 1.350565
920.9218, 1.126957
921.4039, 0.9760840
921.8860, 0.9709840
922.3682, 1.107559
922.8503, 1.310032
923.3324, 1.646412
923.8145, 1.944630
924.2966, 2.182974
924.7787, 2.339861
925.2609, 2.377081
925.7430, 2.326515
926.2251, 2.226933
926.7072, 2.084505
927.1893, 1.998037
927.6714, 2.039143
928.1536, 2.161863
928.6357, 2.329754
929.1178, 2.549061
929.5999, 2.916018
930.0820, 3.400425
930.5641, 3.708782
931.0463, 3.623428
931.5284, 3.431004
932.0105, 3.616436
932.4926, 4.094362
932.9747, 4.567556
933.4568, 4.965672
933.9390, 5.035601
934.4211, 4.658291
934.9032, 4.387554
935.3853, 4.872862
935.8674, 5.961683
936.3495, 6.730785
936.8317, 7.082600
937.3138, 7.581770
937.7959, 8.421707
938.2780, 9.093777
938.7601, 9.191444
939.2422, 9.062447
939.7244, 9.354799
940.2065, 10.16753
940.6886, 10.83190
941.1707, 11.20585
941.6528, 11.59605
942.1349, 11.99107
942.6171, 12.49034
943.0992, 13.10556
943.5813, 13.89419
944.0634, 15.03102
944.5455, 16.66209
945.0276, 18.20630
945.5098, 19.35751
945.9919, 20.47280
946.4740, 21.75415
946.9561, 23.15199
947.4382, 24.53508
947.9203, 25.91264
948.4025, 27.48728
948.8846, 29.40910
949.3667, 31.45805
949.8488, 33.45440
950.3309, 35.42741
950.8130, 37.56025
951.2952, 39.72331
951.7773, 41.50552
952.2594, 42.78274
952.7415, 43.83435
953.2236, 45.02261
953.7057, 46.03686
954.1878, 46.09023
954.6699, 45.25845
955.1520, 44.03686
955.6342, 42.49575
956.1163, 40.68768
956.5984, 38.62076
957.0805, 36.39197
957.5626, 34.08967
958.0447, 31.68815
958.5269, 29.08898
959.0090, 26.21236
959.4911, 23.56778
959.9732, 21.29568
960.4553, 19.19135
960.9374, 17.11403
961.4196, 15.14778
961.9017, 13.52847
962.3838, 12.36520
962.8659, 11.20968
963.3480, 9.913582
963.8301, 8.826672
964.3123, 8.271366
964.7944, 7.789116
965.2765, 6.861660
965.7586, 5.622797
966.2407, 4.747009
966.7228, 4.450254
967.2050, 4.282345
967.6871, 4.221731
968.1692, 4.144844
968.6513, 3.959925
969.1334, 3.723316
969.6155, 3.478811
970.0977, 3.253258
970.5798, 3.152584
971.0619, 3.343212
971.5440, 3.462952
972.0261, 3.349247
972.5082, 3.043173
972.9904, 2.363283
973.4725, 1.569965
973.9546, 1.286095
974.4367, 1.675024
974.9188, 2.106686
975.4009, 2.036383
975.8831, 1.743416
976.3652, 1.537827
976.8473, 1.447433
977.3294, 1.525311
977.8115, 1.719767
978.2936, 1.759138
978.7758, 1.515396
979.2579, 1.230917
979.7400, 1.254393
980.2221, 1.462782
980.7042, 1.375750
981.1863, 1.049347
981.6685, 0.9781610
982.1506, 1.259922
982.6327, 1.563644
983.1148, 1.675303
983.5969, 1.663050
984.0790, 1.697765
984.5612, 1.783167
985.0433, 1.404810
985.5254, 0.4295350
986.0075, 0.2091870
986.4896, 0.2446330
986.9717, 5.9969001E-02
987.4539, 0.5914690
987.9360, 1.207317
988.4181, 1.457499
988.9002, 1.285988
989.3823, 0.9114040
989.8644, 6.2896997E-02
990.3466, 0.4603860
990.8287, 0.2660180
991.3108, 0.2065350
991.7929, 0.6378590
992.2750, 0.9979900
992.7571, 1.102110
993.2393, 0.7854420
993.7214, 0.5171680
994.2035, 0.1850910
994.6856, 5.3615998E-02
995.1677, 0.4097440
995.6498, 0.8739870
996.1320, 1.078054
996.6141, 1.019667
997.0962, 0.8125320
997.5783, 0.2624870
998.0604, 8.6732998E-02
998.5425, 9.4870003E-03
999.0247, 0.2408540
999.5068, 0.5399610
999.9889, 0.7843480
1000.471, 0.7347240
1000.953, 0.4132440
1001.435, 0.2773060
1001.917, 0.6610050
1002.399, 1.055391
1002.882, 1.240446
1003.364, 1.260841
1003.846, 1.007334
1004.328, 0.6740250
1004.810, 0.6907730
1005.292, 1.113033
1005.774, 1.394745
1006.256, 1.051331
1006.739, 0.6152250
1007.221, 0.5740800
1007.703, 0.7617380
1008.185, 1.074549
1008.667, 1.388187
1009.149, 1.357697
1009.631, 0.9011940
1010.113, 0.5494250
1010.595, 0.9246220
1011.078, 1.529821
1011.560, 1.595577
1012.042, 1.317106
1012.524, 1.145056
1013.006, 1.038574
1013.488, 0.7189460
1013.970, 8.4103003E-02
1014.452, 0.3664800
1014.935, 7.3729999E-02
1015.417, 0.9678060
1015.899, 1.299114
1016.381, 1.187389
1016.863, 1.187037
1017.345, 1.340847
1017.827, 1.279869
1018.309, 0.8103890
1018.791, 0.3636780
1019.274, 0.6097430
1019.756, 1.366106
1020.238, 1.714003
1020.720, 1.662046
1021.202, 1.664427
1021.684, 1.810097
1022.166, 1.822945
1022.648, 1.533987
1023.130, 1.059235
1023.613, 0.5209470
1024.095, 5.5128001E-02
1024.577, 0.1651360
1025.059, 0.2550980
1025.541, 0.6078610
1026.023, 0.7866690
1026.505, 0.8704030
1026.987, 0.8938690
1027.469, 0.8815460
1027.952, 0.8690550
1028.434, 0.8529490
1028.916, 0.9454650
1029.398, 1.223063
1029.880, 1.342684
1030.362, 1.236425
1030.844, 0.9552760
1031.326, 0.4505350
1031.809, 0.1226370
1032.291, 0.4746720
1032.773, 0.6184250
1033.255, 0.4095210
1033.737, 0.3628980
1034.219, 1.037310
1034.701, 1.536390
1035.183, 1.838686
1035.666, 1.873379
1036.148, 1.730034
1036.630, 1.576267
1037.112, 1.392225
1037.594, 1.314899
1038.076, 1.539875
1038.558, 1.552017
1039.040, 1.014084
1039.522, 0.5100100
1040.005, 0.4350800
1040.487, 0.6510810
1040.969, 0.8870940
1041.451, 1.156300
1041.933, 1.379045
1042.415, 1.615210
1042.897, 1.720098
1043.379, 1.606665
1043.861, 1.399757
1044.344, 1.128479
1044.826, 0.8809320
1045.308, 0.8225330
1045.790, 1.008303
1046.272, 1.036886
1046.754, 0.5884170
1047.236, 0.3623160
1047.718, 0.7864740
1048.201, 1.206465
1048.683, 1.120502
1049.165, 0.8010200
1049.647, 0.8298150
1050.129, 1.326555
1050.611, 1.528624
1051.093, 1.034561
1051.575, 0.5387460
1052.057, 0.1729160
1052.540, 1.9076999E-02
1053.022, 5.7624999E-02
1053.504, 0.2778150
1053.986, 0.4100890
1054.468, 0.4167230
1054.950, 0.5472300
1055.432, 1.056982
1055.914, 1.436859
1056.396, 1.517998
1056.879, 1.446138
1057.361, 1.185215
1057.843, 0.9115680
1058.325, 0.9423770
1058.807, 1.314072
1059.289, 1.592133
1059.771, 1.615070
1060.253, 1.538206
1060.736, 1.365871
1061.218, 1.187042
1061.700, 0.9776780
1062.182, 0.7925340
1062.664, 0.7395970
1063.146, 0.8280070
1063.628, 0.9548240
1064.110, 1.126875
1064.593, 1.268028
1065.075, 1.449799
1065.557, 1.491087
1066.039, 1.077898
1066.521, 0.5171090
1067.003, 0.3097550
1067.485, 0.4986080
1067.967, 0.7150420
1068.449, 0.9521080
1068.932, 0.9727400
1069.414, 0.2921430
1069.896, 0.2602560
1070.378, 0.2355820
1070.860, 1.090591
1071.342, 1.173737
1071.824, 0.4770030
1072.306, 3.7620999E-02
1072.788, 0.4847350
1073.271, 0.8479770
1073.753, 0.4686450
1074.235, 4.9015000E-02
1074.717, 8.2436003E-02
1075.199, 0.3969380
1075.681, 0.8823640
1076.163, 1.402395
1076.645, 1.523411
1077.127, 0.9321120
1077.610, 0.4833720
1078.092, 0.7259850
1078.574, 1.072683
1079.056, 1.097998
1079.538, 1.020216
1080.020, 1.135309
1080.502, 1.419910
1080.984, 1.678185
1081.467, 1.856247
1081.949, 1.944841
1082.431, 1.809948
1082.913, 1.805662
1083.395, 2.207188
1083.877, 2.746880
1084.359, 3.228981
1084.841, 3.578785
1085.323, 3.639458
1085.806, 3.324114
1086.288, 3.185469
1086.770, 3.581327
1087.252, 4.059427
1087.734, 4.446213
1088.216, 4.755140
1088.698, 5.022371
1089.180, 5.219847
1089.662, 5.233242
1090.145, 5.048122
1090.627, 4.882401
1091.109, 4.812840
1091.591, 4.858629
1092.073, 5.086771
1092.555, 5.283344
1093.037, 5.208746
1093.519, 5.016386
1094.002, 5.089668
1094.484, 5.430695
1094.966, 5.341764
1095.448, 4.074411
1095.930, 3.129173
1096.412, 3.430990
1096.894, 3.738468
1097.376, 3.133522
1097.859, 2.129646
1098.341, 1.354736
1098.823, 0.9000000
1099.305, 0.7847190
1099.787, 1.254967
1100.269, 1.555273
1100.751, 1.323822
1101.233, 1.077475
1101.715, 1.128691
1102.198, 1.247644
1102.680, 1.133457
1103.162, 0.8585990
1103.644, 0.7785240
1104.126, 1.060043
1104.608, 1.160034
1105.090, 0.7855680
1105.572, 0.4771370
1106.054, 0.5310630
1106.537, 0.6142160
1107.019, 0.3814410
1107.501, 1.6264001E-02
1107.983, 0.1542850
1108.465, 7.4006997E-02
1108.947, 0.1053910
1109.429, 0.3413120
1109.911, 0.6689030
1110.394, 0.7025030
1110.876, 0.6298620
1111.358, 0.5432150
1111.840, 0.4398860
1112.322, 0.2781390
1112.804, 4.5327999E-02
1113.286, 4.7743000E-02
1113.768, 5.1270001E-02
1114.250, 0.2169080
1114.733, 0.6516800
1115.215, 0.8621810
1115.697, 0.5294440
1116.179, 3.9360002E-02
1116.661, 0.6161480
1117.143, 1.139065
1117.625, 1.113003
1118.107, 0.1110040
1118.589, 0.4121230
1119.072, 0.2815190
1119.554, 2.5165999E-02
1120.036, 0.5099140
1120.518, 0.8722040
1121.000, 0.8088230
1121.482, 0.4598200
1121.964, 0.2303120
1122.446, 0.1286430
1122.929, 9.4081998E-02
1123.411, 0.1224820
1123.893, 0.2546460
1124.375, 0.5682600
1124.857, 0.7426340
1125.339, 0.5411190
1125.821, 0.1920170
1126.303, 9.2182003E-02
1126.786, 0.2258610
1127.268, 0.3200530
1127.750, 0.3588940
1128.232, 0.3384550
1128.714, 0.2078900
1129.196, 0.2498510
1129.678, 0.6312600
1130.160, 0.9766810
1130.642, 0.8674850
1131.125, 0.4674840
1131.607, 0.4512520
1132.089, 0.7732890
1132.571, 0.8170890
1133.053, 0.5679130
1133.535, 0.4572790
1134.017, 0.6141550
1134.499, 0.7869490
1134.981, 0.7854730
1135.464, 0.6547280
1135.946, 0.4230420
1136.428, 0.1477010
1136.910, 4.5292001E-02
1137.392, 0.1097340
1137.874, 0.3429990
1138.356, 0.7155150
1138.838, 1.065739
1139.321, 1.313057
1139.803, 1.413132
1140.285, 1.218224
1140.767, 0.9386180
1141.249, 1.032005
1141.731, 1.312271
1142.213, 1.322021
1142.695, 1.117874
1143.177, 1.027985
1143.660, 1.165936
1144.142, 1.537552
1144.624, 2.321541
1145.106, 2.922981
1145.588, 2.482067
1146.070, 1.692760
1146.552, 1.269066
1147.034, 1.243900
1147.516, 1.742378
1147.999, 2.603245
1148.481, 3.210598
1148.963, 3.303078
1149.445, 3.139469
1149.927, 2.654816
1150.409, 2.230595
1150.891, 2.171928
1151.373, 2.294586
1151.856, 2.492615
1152.338, 2.668869
1152.820, 2.593155
1153.302, 2.220730
1153.784, 2.104450
1154.266, 2.727524
1154.748, 3.211979
1155.230, 3.144676
1155.713, 2.987514
1156.195, 2.963093
1156.677, 3.061970
1157.159, 3.321842
1157.641, 3.697575
1158.123, 3.903091
1158.605, 3.872402
1159.087, 3.760876
1159.569, 3.370728
1160.052, 3.188339
1160.534, 3.438686
1161.016, 3.830982
1161.498, 4.189816
1161.980, 4.520638
1162.462, 4.863571
1162.944, 5.247616
1163.426, 5.319324
1163.908, 4.955181
1164.391, 4.620319
1164.873, 4.331982
1165.355, 4.235821
1165.837, 4.491760
1166.319, 4.715431
1166.801, 4.330555
1167.283, 3.575542
1167.765, 3.662182
1168.247, 4.655712
1168.730, 4.994968
1169.212, 4.593918
1169.694, 4.272758
1170.176, 4.256592
1170.658, 4.448376
1171.140, 4.797897
1171.622, 5.093578
1172.104, 4.875263
1172.587, 4.352398
1173.069, 4.433067
1173.551, 4.931789
1174.033, 4.925209
1174.515, 4.399662
1174.997, 4.091011
1175.479, 4.266285
1175.961, 4.571648
1176.443, 4.727531
1176.926, 4.806343
1177.408, 4.749729
1177.890, 4.732906
1178.372, 5.179485
1178.854, 5.815559
1179.336, 6.110622
1179.818, 5.999416
1180.300, 5.603554
1180.782, 4.912151
1181.265, 4.454144
1181.747, 4.662010
1182.229, 5.077900
1182.711, 5.617760
1183.193, 6.031265
1183.675, 5.897217
1184.157, 5.545921
1184.639, 5.728241
1185.122, 6.499321
1185.604, 6.844170
1186.086, 6.037205
1186.568, 5.593842
1187.050, 6.132538
1187.532, 6.625214
1188.014, 6.481373
1188.496, 6.241364
1188.979, 6.525375
1189.461, 7.078197
1189.943, 7.108402
1190.425, 6.468224
1190.907, 6.185368
1191.389, 6.361523
1191.871, 6.643475
1192.353, 7.070019
1192.835, 7.291412
1193.318, 7.067719
1193.800, 6.749695
1194.282, 6.780605
1194.764, 7.057446
1195.246, 7.191223
1195.728, 7.184055
1196.210, 7.028965
1196.692, 6.739189
1197.174, 6.605923
1197.657, 6.689922
1198.139, 6.662186
1198.621, 6.302197
1199.103, 5.974628
1199.585, 6.270782
1200.067, 6.856255
1200.549, 7.107014
1201.031, 7.104446
1201.514, 6.999149
1201.996, 6.820541
1202.478, 6.464893
1202.960, 5.985004
1203.442, 5.946892
1203.924, 6.895252
1204.406, 7.720879
1204.888, 7.405918
1205.370, 6.811398
1205.853, 6.652416
1206.335, 6.631790
1206.817, 6.203247
1207.299, 5.593960
1207.781, 5.556278
1208.263, 6.276226
1208.745, 6.857098
1209.227, 6.921459
1209.709, 7.069145
1210.192, 7.686878
1210.674, 8.107082
1211.156, 7.817753
1211.638, 7.338848
1212.120, 7.092533
1212.602, 7.064926
1213.084, 7.188549
1213.566, 7.544277
1214.049, 7.601421
1214.531, 7.228344
1215.013, 7.114567
1215.495, 7.444317
1215.977, 7.802872
1216.459, 7.963673
1216.941, 8.096889
1217.423, 8.399063
1217.906, 8.755825
1218.388, 8.785374
1218.870, 8.519382
1219.352, 7.978382
1219.834, 7.272373
1220.316, 6.976345
1220.798, 7.159241
1221.280, 7.318146
1221.762, 7.176052
1222.245, 7.073959
1222.727, 7.434746
1223.209, 7.941532
1223.691, 8.368481
1224.173, 8.603592
1224.655, 8.315983
1225.137, 7.795086
1225.619, 7.713448
1226.101, 8.066498
1226.584, 8.042400
1227.066, 7.129166
1227.548, 6.507759
1228.030, 6.824379
1228.512, 7.194393
1228.994, 7.385300
1229.476, 7.351803
1229.958, 6.839550
1230.441, 6.201511
1230.923, 6.126762
1231.405, 6.590153
1231.887, 6.700211
1232.369, 6.237312
1232.851, 6.122730
1233.333, 6.510548
1233.815, 6.839050
1234.297, 6.940868
1234.780, 6.927361
1235.262, 6.863991
1235.744, 6.797615
1236.226, 6.824108
1236.708, 6.908527
1237.190, 6.935295
1237.672, 6.887299
1238.154, 6.637646
1238.636, 6.225079
1239.119, 5.861057
1239.601, 5.613720
1240.083, 5.468014
1240.565, 5.433510
1241.047, 5.397835
1241.529, 5.164413
1242.011, 4.970596
1242.493, 5.130100
1242.975, 5.402973
1243.458, 5.577415
1243.940, 5.585453
1244.422, 5.235889
1244.904, 4.556232
1245.386, 4.255646
1245.868, 4.827229
1246.350, 5.216919
1246.832, 5.185719
1247.315, 5.027000
1247.797, 4.747581
1248.279, 4.485844
1248.761, 4.345478
1249.243, 4.280544
1249.725, 4.226406
1250.207, 4.174957
1250.689, 3.942680
1251.172, 3.489502
1251.654, 3.357395
1252.136, 3.604568
1252.618, 3.596714
1253.100, 3.145020
1253.582, 2.692028
1254.064, 2.534267
1254.546, 2.626110
1255.028, 3.074642
1255.510, 3.603870
1255.993, 3.593674
1256.475, 3.331814
1256.957, 3.466015
1257.439, 3.793030
1257.921, 3.638588
1258.403, 2.939148
1258.885, 2.225239
1259.367, 1.664574
1259.850, 1.339981
1260.332, 1.428619
1260.814, 1.579563
1261.296, 1.647713
1261.778, 1.692978
1262.260, 1.843010
1262.742, 1.955971
1263.224, 1.758587
1263.707, 1.297195
1264.189, 0.9832690
1264.671, 0.8943440
1265.153, 0.6163520
1265.635, 1.2249000E-02
1266.117, 2.5547000E-02
1266.599, 1.098259
1267.081, 1.836266
1267.563, 1.449799
1268.046, 0.5984270
1268.528, 3.1654000E-02
1269.010, 0.3752710
1269.492, 8.1352003E-02
1269.974, 0.5256920
1270.456, 0.5797350
1270.938, 0.2309720
1271.420, 5.9597000E-02
1271.902, 0.1764220
1272.385, 4.1248001E-02
1272.867, 0.3771900
1273.349, 0.6317480
1273.831, 0.2188450
1274.313, 9.3777001E-02
1274.795, 0.1764110
1275.277, 0.5621190
1275.759, 0.8416250
1276.242, 0.9996380
1276.724, 0.8545070
1277.206, 0.7089230
1277.688, 0.6110080
1278.170, 0.3788600
1278.652, 0.3743400
1279.134, 0.6391980
1279.616, 0.4911500
1280.099, 0.2115590
1280.581, 3.5027001E-02
1281.063, 0.1219250
1281.545, 0.2439040
1282.027, 0.2607350
1282.509, 9.7336002E-02
1282.991, 0.1718710
1283.473, 0.2504920
1283.955, 0.0000000E+00
##END=



