##NAMES=Freibergite
##RRUFFID=R061081
##IDEAL CHEMISTRY=Ag_6_Cu_4_Fe_2_Sb_4_S_13_
##LOCALITY=Sadie mine, Elsa, Yukon, Canada
##OWNER=RRUFF
##SOURCE=Lloyd Twaites
##DESCRIPTION=Dark gray metallic massive
##STATUS=The identification of this mineral has been made only by X-ray diffraction.
##URL=rruff.info/R061081
122.1115, 0.0000000E+00
122.5936, 12.63715
123.0757, 3.210297
123.5578, 0.7469480
124.0400, 16.73172
124.5221, 36.33890
125.0042, 53.98575
125.4863, 70.82269
125.9684, 97.06570
126.4505, 140.9309
126.9327, 185.1275
127.4148, 222.3288
127.8969, 257.8959
128.3790, 302.2289
128.8611, 363.3129
129.3432, 440.3024
129.8254, 506.0824
130.3075, 556.5249
130.7896, 601.8484
131.2717, 645.7944
131.7538, 687.1555
132.2359, 722.3105
132.7181, 748.3763
133.2002, 765.0781
133.6823, 775.7910
134.1644, 785.2983
134.6465, 786.1773
135.1286, 773.1220
135.6108, 747.3510
136.0929, 713.9099
136.5750, 675.6402
137.0571, 631.7213
137.5392, 594.2935
138.0213, 564.3226
138.5035, 539.2168
138.9856, 517.9835
139.4677, 500.3540
139.9498, 485.6820
140.4319, 471.7953
140.9140, 458.8672
141.3961, 459.4036
141.8783, 481.5276
142.3604, 512.4725
142.8425, 540.5143
143.3246, 564.1047
143.8067, 589.2652
144.2888, 619.4790
144.7710, 655.0718
145.2531, 706.8455
145.7352, 779.2172
146.2173, 846.7308
146.6994, 892.4839
147.1815, 925.2468
147.6637, 947.6365
148.1458, 962.6803
148.6279, 971.3886
149.1100, 966.5517
149.5921, 939.6962
150.0742, 900.3576
150.5564, 862.8950
151.0385, 828.2914
151.5206, 796.5770
152.0027, 771.8739
152.4848, 751.9731
152.9669, 723.8427
153.4491, 675.4387
153.9312, 615.2462
154.4133, 563.6784
154.8954, 524.5497
155.3775, 491.9529
155.8596, 459.7260
156.3418, 428.3657
156.8239, 402.0347
157.3060, 379.1251
157.7881, 362.2102
158.2702, 357.0114
158.7523, 374.7498
159.2345, 392.3521
159.7166, 387.2092
160.1987, 364.2324
160.6808, 337.7379
161.1629, 322.1317
161.6451, 317.3625
162.1272, 316.3364
162.6093, 327.7834
163.0914, 336.8188
163.5735, 335.9697
164.0556, 327.9780
164.5378, 313.2795
165.0199, 291.1281
165.5020, 263.1340
165.9841, 244.2374
166.4662, 243.8389
166.9483, 246.9487
167.4305, 247.0845
167.9126, 245.1708
168.3947, 240.3727
168.8768, 229.1851
169.3589, 212.2816
169.8410, 198.8113
170.3232, 186.2281
170.8053, 176.3370
171.2874, 177.2411
171.7695, 189.2095
172.2516, 197.9564
172.7337, 196.1467
173.2159, 182.9233
173.6980, 168.4689
174.1801, 152.5557
174.6622, 137.4255
175.1443, 124.0371
175.6264, 112.5599
176.1085, 103.2682
176.5907, 96.76630
177.0728, 93.15802
177.5549, 90.56757
178.0370, 92.08063
178.5191, 91.83783
179.0012, 86.04993
179.4834, 75.51062
179.9655, 64.38318
180.4476, 56.67712
180.9297, 52.92908
181.4118, 49.55884
181.8939, 46.31134
182.3761, 43.34534
182.8582, 40.57922
183.3403, 38.10828
183.8224, 36.24884
184.3045, 35.91394
184.7866, 37.56873
185.2688, 36.81201
185.7509, 30.06671
186.2330, 23.80609
186.7151, 14.75763
187.1972, 20.38696
187.6793, 22.75696
188.1615, 22.04126
188.6436, 8.947998
189.1257, 11.86926
189.6078, 8.388855
190.0899, 4.654602
190.5720, 9.855530
191.0542, 1.389221
191.5363, 3.679810
192.0184, 2.241028
192.5005, 3.783936
192.9826, 1.124756
193.4647, 4.041199
193.9469, 0.5056150
194.4290, 0.5454710
194.9111, 6.204163
195.3932, 4.482117
195.8753, 15.95813
196.3574, 15.86310
196.8396, 10.77997
197.3217, 25.87231
197.8038, 30.67358
198.2859, 24.57751
198.7680, 11.40137
199.2501, 0.2807010
199.7323, 0.6123660
200.2144, 8.728577
200.6965, 13.27466
201.1786, 4.949158
201.6607, 0.7634280
202.1428, 2.772827
202.6250, 12.17938
203.1071, 19.69885
203.5892, 19.05786
204.0713, 10.84009
204.5534, 7.286316
205.0355, 15.33887
205.5177, 21.23816
205.9998, 20.07684
206.4819, 14.55579
206.9640, 9.857056
207.4461, 9.667236
207.9282, 13.26709
208.4104, 14.49518
208.8925, 9.539917
209.3746, 6.484558
209.8567, 8.761963
210.3388, 13.76489
210.8209, 17.23328
211.3030, 16.36810
211.7852, 12.39728
212.2673, 11.38031
212.7494, 16.01141
213.2315, 20.40601
213.7136, 24.36084
214.1957, 27.16577
214.6779, 27.47180
215.1600, 24.29852
215.6421, 19.17834
216.1242, 17.51556
216.6063, 21.93652
217.0884, 26.12585
217.5706, 31.34290
218.0527, 34.96539
218.5348, 32.59656
219.0169, 21.95563
219.4990, 8.124878
219.9811, 4.764648
220.4633, 21.87250
220.9454, 31.99353
221.4275, 27.01746
221.9096, 16.73828
222.3917, 10.36414
222.8738, 11.17291
223.3560, 15.02362
223.8381, 13.44550
224.3202, 1.946716
224.8023, 5.112122
225.2844, 2.346069
225.7665, 2.475952
226.2487, 3.635132
226.7308, 0.3804320
227.2129, 7.254639
227.6950, 13.77264
228.1771, 19.83966
228.6592, 25.72260
229.1414, 33.08484
229.6235, 39.06677
230.1056, 40.80493
230.5877, 38.34973
231.0698, 35.33142
231.5519, 36.43140
232.0341, 42.86945
232.5162, 47.91467
232.9983, 50.80042
233.4804, 52.52802
233.9625, 53.35742
234.4446, 53.39478
234.9268, 52.83081
235.4089, 50.32220
235.8910, 45.16388
236.3731, 46.26440
236.8552, 60.80920
237.3373, 75.26892
237.8195, 83.89801
238.3016, 87.46436
238.7837, 89.65863
239.2658, 93.86853
239.7479, 99.69196
240.2300, 101.0941
240.7122, 93.29736
241.1943, 86.99347
241.6764, 86.73230
242.1585, 91.04749
242.6406, 96.96405
243.1227, 103.4852
243.6049, 110.0847
244.0870, 114.3943
244.5691, 114.5870
245.0512, 115.7443
245.5333, 120.8491
246.0154, 127.8444
246.4975, 133.8846
246.9797, 138.0167
247.4618, 140.2449
247.9439, 139.8873
248.4260, 135.7492
248.9081, 132.8063
249.3902, 134.8371
249.8724, 139.1089
250.3545, 143.7803
250.8366, 148.2202
251.3187, 151.8370
251.8008, 152.5713
252.2829, 149.2055
252.7651, 149.9446
253.2472, 163.1393
253.7293, 178.6282
254.2114, 188.4448
254.6935, 191.1108
255.1756, 190.2934
255.6578, 189.1768
256.1399, 188.5877
256.6220, 193.7438
257.1041, 210.7709
257.5862, 228.2370
258.0684, 233.3500
258.5505, 225.5901
259.0326, 220.2436
259.5147, 227.4003
259.9968, 243.9426
260.4789, 260.2415
260.9611, 276.0208
261.4432, 289.8815
261.9253, 299.0951
262.4074, 304.1862
262.8895, 311.0787
263.3716, 324.1511
263.8537, 340.7765
264.3358, 355.8185
264.8180, 368.2850
265.3001, 380.3718
265.7822, 393.5928
266.2643, 408.0548
266.7464, 424.0367
267.2285, 441.5067
267.7107, 460.0509
268.1928, 480.8793
268.6749, 503.9621
269.1570, 524.1154
269.6391, 535.7249
270.1212, 541.0756
270.6034, 552.3757
271.0855, 573.2630
271.5676, 597.0022
272.0497, 621.5636
272.5318, 646.2766
273.0139, 667.0653
273.4961, 680.6499
273.9782, 689.9776
274.4603, 705.5170
274.9424, 733.3552
275.4245, 757.1210
275.9066, 769.5400
276.3888, 775.3663
276.8709, 783.0790
277.3530, 795.9329
277.8351, 810.3774
278.3172, 819.3755
278.7993, 819.9088
279.2815, 823.6987
279.7636, 836.5175
280.2457, 850.8085
280.7278, 858.5979
281.2099, 858.2642
281.6920, 854.0457
282.1742, 851.0856
282.6563, 849.7355
283.1384, 846.0236
283.6205, 843.2108
284.1026, 835.6722
284.5847, 814.6982
285.0669, 784.0102
285.5490, 758.3913
286.0311, 752.1959
286.5132, 766.4550
286.9953, 769.5063
287.4774, 749.1519
287.9596, 731.2941
288.4417, 725.2180
288.9238, 727.1604
289.4059, 729.5781
289.8880, 728.1019
290.3701, 723.5604
290.8523, 719.2927
291.3344, 711.9688
291.8165, 709.8331
292.2986, 719.1724
292.7807, 731.5020
293.2628, 737.1846
293.7450, 732.7249
294.2271, 724.1162
294.7092, 722.1793
295.1913, 729.2866
295.6734, 736.8755
296.1555, 744.2878
296.6377, 751.6827
297.1198, 760.4731
297.6019, 770.2107
298.0840, 777.2604
298.5661, 774.8383
299.0482, 761.9241
299.5304, 758.7079
300.0125, 772.6454
300.4946, 789.8825
300.9767, 805.7359
301.4588, 819.3584
301.9409, 829.3796
302.4231, 834.2065
302.9052, 834.8928
303.3873, 833.4294
303.8694, 826.9290
304.3515, 825.2787
304.8336, 837.5904
305.3158, 857.0364
305.7979, 874.3282
306.2800, 887.4504
306.7621, 896.4278
307.2442, 899.7197
307.7263, 897.1920
308.2085, 895.0677
308.6906, 893.5865
309.1727, 895.7666
309.6548, 906.9279
310.1369, 931.0853
310.6190, 952.1937
311.1012, 957.5323
311.5833, 952.5478
312.0654, 952.6911
312.5475, 962.7227
313.0296, 977.1486
313.5117, 988.8288
313.9939, 997.6739
314.4760, 1006.549
314.9581, 1016.676
315.4402, 1026.705
315.9223, 1034.557
316.4044, 1040.133
316.8866, 1045.674
317.3687, 1051.846
317.8508, 1058.849
318.3329, 1075.533
318.8150, 1109.236
319.2971, 1144.547
319.7793, 1173.724
320.2614, 1198.541
320.7435, 1224.900
321.2256, 1255.922
321.7077, 1290.960
322.1898, 1326.819
322.6720, 1361.278
323.1541, 1400.014
323.6362, 1446.988
324.1183, 1497.105
324.6004, 1544.075
325.0826, 1585.830
325.5647, 1627.024
326.0468, 1674.251
326.5289, 1727.687
327.0110, 1787.934
327.4931, 1858.802
327.9753, 1932.705
328.4574, 2007.215
328.9395, 2080.918
329.4216, 2151.113
329.9037, 2214.878
330.3858, 2272.505
330.8680, 2331.995
331.3501, 2389.574
331.8322, 2454.823
332.3143, 2539.297
332.7964, 2631.106
333.2785, 2711.740
333.7606, 2771.423
334.2427, 2818.188
334.7249, 2865.660
335.2070, 2913.452
335.6891, 2963.456
336.1712, 3020.956
336.6533, 3078.619
337.1354, 3129.103
337.6176, 3170.437
338.0997, 3210.820
338.5818, 3257.001
339.0639, 3307.565
339.5460, 3355.295
340.0281, 3398.671
340.5103, 3439.630
340.9924, 3473.028
341.4745, 3501.151
341.9566, 3550.429
342.4387, 3642.953
342.9208, 3751.763
343.4030, 3846.480
343.8851, 3926.051
344.3672, 4002.875
344.8493, 4084.656
345.3314, 4170.698
345.8135, 4256.481
346.2957, 4361.468
346.7778, 4446.093
347.2599, 4489.770
347.7420, 4503.266
348.2241, 4508.163
348.7062, 4513.579
349.1884, 4509.205
349.6705, 4474.612
350.1526, 4400.987
350.6347, 4307.384
351.1168, 4196.227
351.5989, 4064.452
352.0811, 3900.688
352.5632, 3709.374
353.0453, 3514.413
353.5274, 3341.844
354.0095, 3195.524
354.4916, 3028.894
354.9738, 2818.627
355.4559, 2610.864
355.9380, 2411.624
356.4201, 2223.833
356.9022, 2046.402
357.3843, 1879.774
357.8665, 1726.527
358.3486, 1592.970
358.8307, 1483.922
359.3128, 1381.983
359.7949, 1285.875
360.2770, 1192.313
360.7592, 1097.850
361.2413, 1001.982
361.7234, 909.2021
362.2055, 821.5613
362.6876, 739.4843
363.1697, 667.4599
363.6519, 606.9808
364.1340, 554.9274
364.6161, 512.5997
365.0982, 477.1187
365.5803, 440.4289
366.0624, 397.1458
366.5446, 353.7654
367.0267, 316.9587
367.5088, 286.6746
367.9909, 258.2972
368.4730, 229.3721
368.9551, 200.9450
369.4373, 177.1732
369.9194, 160.8705
370.4015, 144.1316
370.8836, 123.2414
371.3657, 101.3445
371.8478, 82.02737
372.3300, 66.27472
372.8121, 54.89572
373.2942, 49.58563
373.7763, 53.43329
374.2584, 51.75729
374.7405, 39.16278
375.2227, 26.96054
375.7048, 21.67267
376.1869, 21.44125
376.6690, 20.31763
377.1511, 14.10602
377.6332, 4.313721
378.1154, 2.392151
378.5975, 4.548981
379.0796, 5.850952
379.5617, 5.749542
380.0438, 5.997101
380.5259, 9.060730
381.0081, 15.40665
381.4902, 21.20483
381.9723, 21.28336
382.4544, 15.70145
382.9365, 12.31485
383.4186, 11.88483
383.9008, 14.08389
384.3829, 20.08295
384.8650, 28.53122
385.3471, 34.89825
385.8292, 36.53073
386.3113, 35.58856
386.7935, 35.33868
387.2756, 35.77585
387.7577, 33.94073
388.2398, 27.10663
388.7219, 17.71445
389.2040, 11.95987
389.6862, 10.09073
390.1683, 10.88251
390.6504, 16.82617
391.1325, 24.16995
391.6146, 27.07269
392.0967, 24.23596
392.5789, 18.61407
393.0610, 13.05713
393.5431, 6.884491
394.0252, 4.829315
394.5073, 11.42712
394.9894, 17.06816
395.4716, 17.09624
395.9537, 12.87123
396.4358, 7.529114
396.9179, 2.657059
397.4000, 1.368942
397.8821, 3.453888
398.3643, 3.371765
398.8464, 1.656235
399.3285, 3.692291
399.8106, 9.071121
400.2927, 12.10127
400.7748, 12.38217
401.2570, 10.58153
401.7391, 6.565399
402.2212, 0.6611020
402.7033, 4.953918
403.1854, 10.94171
403.6675, 15.04874
404.1497, 14.74107
404.6317, 11.77255
405.1139, 9.131210
405.5960, 7.105774
406.0781, 6.186462
406.5602, 7.480484
407.0423, 10.48531
407.5244, 13.02289
408.0066, 14.57289
408.4887, 14.70401
408.9708, 11.55971
409.4529, 2.922440
409.9350, 0.1914830
410.4171, 8.464966
410.8993, 19.85899
411.3814, 26.61223
411.8635, 28.46184
412.3456, 28.54129
412.8277, 28.97870
413.3098, 29.79593
413.7920, 31.33861
414.2741, 35.83943
414.7562, 38.38664
415.2383, 36.71669
415.7204, 33.59842
416.2025, 32.00548
416.6847, 32.76474
417.1668, 34.48798
417.6489, 35.31528
418.1310, 35.08937
418.6131, 35.92114
419.0952, 39.18509
419.5774, 41.96924
420.0595, 42.26396
420.5416, 40.95747
421.0237, 40.08939
421.5058, 40.00632
421.9879, 41.02562
422.4701, 44.03249
422.9522, 48.96620
423.4343, 53.98041
423.9164, 59.25079
424.3985, 63.22961
424.8806, 62.15349
425.3628, 54.21674
425.8449, 49.63229
426.3270, 54.26753
426.8091, 61.65794
427.2912, 64.35463
427.7733, 62.02069
428.2555, 59.84129
428.7376, 62.25392
429.2197, 68.85048
429.7018, 72.04494
430.1839, 68.34952
430.6660, 65.49915
431.1482, 64.94080
431.6303, 65.85626
432.1124, 67.66169
432.5945, 70.05277
433.0766, 72.12063
433.5587, 72.16778
434.0409, 69.72236
434.5230, 69.28962
435.0051, 73.30744
435.4872, 76.77692
435.9693, 75.74995
436.4514, 72.33405
436.9336, 71.77854
437.4157, 78.61401
437.8978, 86.48148
438.3799, 85.65876
438.8620, 76.52757
439.3441, 69.12849
439.8263, 67.15792
440.3084, 69.06157
440.7905, 72.96189
441.2726, 79.41700
441.7547, 83.12196
442.2368, 80.57710
442.7190, 75.76019
443.2011, 72.47788
443.6832, 71.17316
444.1653, 70.62360
444.6474, 69.92732
445.1295, 69.01591
445.6117, 67.88164
446.0938, 65.27991
446.5759, 64.94836
447.0580, 68.74955
447.5401, 73.35856
448.0222, 75.75921
448.5044, 75.13798
448.9865, 72.94240
449.4686, 71.23341
449.9507, 70.31960
450.4328, 67.91930
450.9149, 62.60060
451.3971, 58.28326
451.8792, 57.25169
452.3613, 57.39827
452.8434, 56.32272
453.3255, 53.35289
453.8076, 50.57122
454.2898, 49.81862
454.7719, 50.61208
455.2540, 51.18779
455.7361, 50.89696
456.2182, 50.39916
456.7003, 50.44569
457.1825, 50.93027
457.6646, 51.02989
458.1467, 51.71645
458.6288, 51.53214
459.1109, 48.78680
459.5930, 44.84505
460.0752, 42.82733
460.5573, 44.20100
461.0394, 47.04399
461.5215, 47.06296
462.0036, 42.38661
462.4857, 38.69750
462.9679, 36.71278
463.4500, 35.27482
463.9321, 33.40167
464.4142, 31.62419
464.8963, 31.55116
465.3784, 34.90923
465.8606, 39.87163
466.3427, 42.60248
466.8248, 42.82600
467.3069, 41.64368
467.7890, 39.82555
468.2711, 37.70355
468.7533, 34.37083
469.2354, 29.02780
469.7175, 25.25906
470.1996, 25.30051
470.6817, 26.89501
471.1638, 27.41190
471.6460, 26.77065
472.1281, 26.54144
472.6102, 27.90044
473.0923, 30.54027
473.5744, 32.19958
474.0565, 33.32283
474.5387, 32.18774
475.0208, 24.30208
475.5029, 17.19723
475.9850, 20.49197
476.4671, 33.72137
476.9492, 45.04364
477.4313, 40.94324
477.9135, 23.84897
478.3956, 16.56309
478.8777, 23.67783
479.3598, 30.83497
479.8419, 30.55898
480.3240, 26.99612
480.8062, 25.06749
481.2883, 26.14493
481.7704, 26.68349
482.2525, 22.74158
482.7346, 16.99802
483.2167, 15.56309
483.6989, 19.63664
484.1810, 24.08556
484.6631, 23.85696
485.1452, 19.11479
485.6273, 18.29208
486.1094, 26.13913
486.5916, 31.65602
487.0737, 30.60298
487.5558, 26.22545
488.0379, 22.19771
488.5200, 19.67806
489.0021, 18.06660
489.4843, 16.20603
489.9664, 13.88455
490.4485, 15.15040
490.9306, 24.61923
491.4127, 30.96957
491.8948, 26.63657
492.3770, 17.27782
492.8591, 11.79307
493.3412, 13.51379
493.8233, 16.77521
494.3054, 16.62474
494.7875, 14.11574
495.2697, 12.65928
495.7518, 13.01034
496.2339, 13.64731
496.7160, 13.21523
497.1981, 11.65729
497.6802, 10.55901
498.1624, 10.47785
498.6445, 10.27414
499.1266, 8.893974
499.6087, 7.334290
500.0908, 7.412491
500.5729, 9.598511
501.0551, 12.11420
501.5372, 12.50493
502.0193, 10.50462
502.5014, 8.272362
502.9835, 4.842323
503.4656, 2.495583
503.9478, 2.277824
504.4299, 3.619301
504.9120, 5.722816
505.3941, 8.538940
505.8762, 11.47150
506.3583, 14.24205
506.8405, 16.73104
507.3226, 18.69701
507.8047, 19.93768
508.2868, 20.15124
508.7689, 18.59713
509.2510, 15.20700
509.7332, 13.08021
510.2153, 13.28629
510.6974, 13.49829
511.1795, 13.44879
511.6616, 12.78300
512.1437, 10.27453
512.6259, 5.789391
513.1080, 1.543633
513.5901, 0.4753650
514.0722, 2.823235
514.5543, 4.815193
515.0364, 6.002739
515.5186, 7.499031
516.0007, 11.16902
516.4828, 14.98592
516.9649, 15.34239
517.4470, 10.16733
517.9291, 5.349174
518.4113, 6.234207
518.8934, 10.77013
519.3755, 14.26948
519.8576, 15.91549
520.3397, 16.03761
520.8218, 14.54123
521.3040, 11.55391
521.7861, 9.895836
522.2682, 11.14079
522.7503, 11.56952
523.2324, 8.596848
523.7145, 5.374931
524.1967, 6.450974
524.6788, 12.08908
525.1609, 17.10187
525.6430, 15.41630
526.1251, 7.809784
526.6072, 2.794411
527.0894, 0.7736740
527.5715, 0.3863600
528.0536, 3.035378
528.5357, 6.163864
529.0178, 6.432968
529.4999, 3.006081
529.9821, 0.8553160
530.4642, 4.617683
530.9463, 7.279861
531.4284, 6.383720
531.9105, 2.183464
532.3926, 0.9351350
532.8748, 0.4075850
533.3569, 4.936005
533.8390, 6.775841
534.3211, 4.717926
534.8032, 1.452339
535.2853, 4.537949
535.7675, 10.31136
536.2496, 13.88069
536.7317, 15.26854
537.2138, 15.17110
537.6959, 13.34118
538.1780, 10.86853
538.6602, 10.85976
539.1423, 13.63166
539.6244, 15.83644
540.1065, 16.64146
540.5886, 15.97688
541.0707, 13.28404
541.5529, 8.445450
542.0350, 4.617752
542.5171, 2.412842
542.9992, 1.385895
543.4813, 1.843506
543.9634, 3.272705
544.4456, 4.296173
544.9277, 4.252808
545.4098, 3.732468
545.8919, 3.913422
546.3740, 5.072784
546.8561, 6.071579
547.3383, 6.519073
547.8204, 7.169281
548.3025, 9.212646
548.7846, 11.63077
549.2667, 11.89032
549.7488, 7.971924
550.2310, 4.341751
550.7131, 7.701233
551.1952, 15.25056
551.6773, 16.01970
552.1594, 7.013626
552.6415, 2.371384
553.1237, 3.194138
553.6058, 4.421310
554.0879, 10.20131
554.5700, 15.54745
555.0521, 17.60202
555.5342, 12.44557
556.0164, 5.508453
556.4985, 2.787476
556.9806, 5.171707
557.4627, 9.114838
557.9448, 11.81786
558.4269, 13.30789
558.9091, 13.26312
559.3912, 11.15102
559.8733, 9.334213
560.3554, 8.776779
560.8375, 9.023758
561.3196, 9.348480
561.8018, 9.730682
562.2839, 10.53606
562.7660, 14.12909
563.2481, 16.50914
563.7302, 11.44981
564.2123, 1.337097
564.6945, 4.372971
565.1766, 0.4122620
565.6587, 8.535797
566.1408, 11.58861
566.6229, 6.152542
567.1050, 1.945572
567.5872, 9.4406001E-02
568.0693, 1.165894
568.5514, 3.926468
569.0335, 6.531769
569.5156, 4.636246
569.9977, 5.730301
570.4799, 15.79630
570.9620, 15.38896
571.4441, 7.779007
571.9262, 3.101929
572.4083, 3.470123
572.8904, 5.757477
573.3726, 7.534180
573.8547, 8.768677
574.3368, 8.849289
574.8189, 4.804764
575.3010, 3.463074
575.7831, 8.893875
576.2653, 15.65218
576.7474, 18.53175
577.2295, 16.99951
577.7116, 13.84473
578.1937, 10.27966
578.6758, 7.164368
579.1580, 7.785934
579.6401, 12.62259
580.1222, 16.56200
580.6042, 17.46910
581.0864, 16.92998
581.5685, 17.71732
582.0506, 20.23416
582.5327, 20.27002
583.0148, 13.59348
583.4969, 7.746033
583.9791, 8.541199
584.4612, 13.47346
584.9433, 17.13710
585.4254, 17.44931
585.9075, 16.63409
586.3896, 18.46469
586.8718, 23.40982
587.3539, 24.92598
587.8360, 20.63528
588.3181, 16.66914
588.8002, 18.04227
589.2823, 21.29137
589.7645, 20.57642
590.2466, 13.34615
590.7287, 7.400314
591.2108, 7.108582
591.6929, 9.646179
592.1750, 12.22992
592.6572, 14.35144
593.1393, 15.55231
593.6214, 15.45490
594.1035, 14.55698
594.5856, 14.42928
595.0677, 15.69910
595.5499, 16.25833
596.0320, 15.05885
596.5141, 13.91531
596.9962, 13.25014
597.4783, 13.38254
597.9604, 15.24461
598.4426, 20.47530
598.9247, 25.20560
599.4068, 24.65440
599.8889, 20.88646
600.3710, 19.68796
600.8531, 22.28577
601.3353, 25.07144
601.8174, 24.71356
602.2995, 21.53310
602.7816, 19.48410
603.2637, 19.46861
603.7458, 19.43225
604.2280, 18.93793
604.7101, 18.51714
605.1922, 18.63408
605.6743, 19.27444
606.1564, 20.08397
606.6385, 20.84535
607.1207, 21.64380
607.6028, 23.38657
608.0849, 25.72462
608.5670, 25.03781
609.0491, 19.48799
609.5313, 13.14012
610.0134, 10.91516
610.4955, 13.30177
610.9776, 14.82011
611.4597, 13.86113
611.9418, 14.18695
612.4240, 18.47231
612.9061, 23.79509
613.3882, 27.31041
613.8703, 28.25954
614.3524, 26.69713
614.8345, 20.38818
615.3167, 11.97346
615.7988, 10.49744
616.2809, 16.47063
616.7630, 21.22575
617.2451, 21.30196
617.7272, 18.63789
618.2094, 15.69850
618.6915, 12.11349
619.1736, 10.22035
619.6557, 10.00198
620.1378, 11.63495
620.6199, 9.100708
621.1021, 18.98495
621.5842, 24.54150
622.0663, 26.00298
622.5484, 11.00307
623.0305, 17.23003
623.5126, 14.99350
623.9948, 12.41086
624.4769, 21.62045
624.9590, 9.104401
625.4411, 18.12921
625.9232, 18.54346
626.4053, 22.82834
626.8875, 18.50414
627.3696, 16.88058
627.8517, 23.88435
628.3338, 26.17024
628.8159, 21.04208
629.2980, 25.66959
629.7802, 12.87395
630.2623, 15.37016
630.7444, 24.46494
631.2265, 19.77402
631.7086, 24.56439
632.1907, 25.74599
632.6729, 14.18121
633.1550, 12.64606
633.6371, 16.05060
634.1192, 21.60001
634.6013, 23.15416
635.0834, 19.31204
635.5656, 16.02998
636.0477, 14.44405
636.5298, 13.80383
637.0119, 14.07097
637.4940, 14.78279
637.9761, 15.02115
638.4583, 14.36880
638.9404, 13.43347
639.4225, 12.98503
639.9046, 13.02498
640.3867, 13.57593
640.8688, 14.67905
641.3510, 16.27087
641.8331, 19.22705
642.3152, 22.25293
642.7973, 21.93301
643.2794, 15.98785
643.7615, 13.02695
644.2437, 18.45699
644.7258, 24.35538
645.2079, 23.93140
645.6900, 19.48374
646.1721, 16.58464
646.6542, 17.95062
647.1364, 20.29256
647.6185, 17.84532
648.1006, 10.93253
648.5827, 5.074928
649.0648, 0.4618910
649.5469, 1.120911
650.0291, 3.047073
650.5112, 10.28784
650.9933, 13.99738
651.4754, 13.35003
651.9575, 11.79992
652.4396, 9.330460
652.9218, 6.730270
653.4039, 4.027748
653.8860, 1.755692
654.3681, 0.8963170
654.8502, 1.782608
655.3323, 3.653000
655.8145, 5.695183
656.2966, 7.827141
656.7787, 9.355148
657.2608, 10.34672
657.7429, 10.36525
658.2250, 8.638321
658.7072, 6.316330
659.1893, 6.580048
659.6714, 11.21759
660.1535, 13.46293
660.6356, 10.30210
661.1177, 6.826332
661.5999, 6.659378
662.0820, 8.500168
662.5641, 8.873985
663.0462, 6.434814
663.5283, 4.035316
664.0104, 5.924065
664.4926, 10.70664
664.9747, 11.97401
665.4568, 9.010880
665.9389, 6.628204
666.4210, 7.174683
666.9031, 9.850403
667.3853, 13.53862
667.8674, 20.24828
668.3495, 22.28530
668.8316, 15.07383
669.3137, 8.203270
669.7958, 6.245895
670.2780, 7.214203
670.7601, 7.536560
671.2422, 6.236115
671.7243, 6.126099
672.2064, 12.11086
672.6885, 20.26656
673.1707, 20.49599
673.6528, 13.07381
674.1349, 7.494240
674.6170, 8.176971
675.0991, 11.74810
675.5812, 12.55254
676.0634, 9.149925
676.5455, 8.899620
677.0276, 16.22445
677.5097, 21.83814
677.9918, 22.61192
678.4739, 20.80509
678.9561, 18.54589
679.4382, 16.30960
679.9203, 14.78860
680.4024, 15.19486
680.8845, 16.02312
681.3666, 14.93033
681.8488, 12.53284
682.3309, 11.35931
682.8130, 12.23174
683.2951, 13.76112
683.7772, 14.54242
684.2593, 14.58498
684.7415, 12.72142
685.2236, 6.228905
685.7057, 2.853348
686.1878, 7.370659
686.6699, 13.51241
687.1520, 16.67119
687.6342, 16.94762
688.1163, 16.00221
688.5984, 12.77718
689.0805, 10.13541
689.5626, 11.77979
690.0447, 14.70345
690.5269, 12.94284
691.0090, 6.058281
691.4911, 5.7121001E-02
691.9732, 0.4379580
692.4553, 5.381691
692.9374, 7.918785
693.4196, 7.615471
693.9017, 7.064354
694.3838, 6.326584
694.8659, 6.127670
695.3480, 7.158066
695.8301, 9.295593
696.3123, 11.97614
696.7944, 17.49503
697.2765, 20.52593
697.7586, 17.43061
698.2407, 12.78336
698.7228, 10.62138
699.2050, 10.96453
699.6871, 12.14115
700.1692, 13.40722
700.6513, 14.17980
701.1334, 14.03143
701.6155, 12.77325
702.0977, 7.924759
702.5798, 1.657562
703.0619, 8.264465
703.5440, 5.803810
704.0261, 2.080727
704.5082, 4.923615
704.9904, 2.386299
705.4725, 5.005768
705.9546, 1.546051
706.4367, 7.882706
706.9188, 9.512680
707.4009, 7.906960
707.8831, 5.044815
708.3652, 1.180260
708.8473, 0.4085540
709.3294, 6.056099
709.8115, 14.41251
710.2936, 13.86043
710.7758, 5.917580
711.2579, 0.3967060
711.7400, 1.345612
712.2221, 1.047249
712.7042, 4.427521
713.1863, 9.059937
713.6685, 9.733368
714.1506, 2.981056
714.6327, 0.9733730
715.1148, 4.798965
715.5969, 12.47179
716.0790, 13.94645
716.5612, 9.114883
717.0433, 4.197357
717.5254, 0.8359760
718.0075, 3.898964
718.4896, 2.447235
718.9717, 1.004700
719.4539, 2.994171
719.9360, 2.979683
720.4181, 2.468788
720.9002, 2.501770
721.3823, 3.346161
721.8644, 5.377670
722.3465, 8.230515
722.8286, 8.723846
723.3107, 5.604149
723.7928, 3.172707
724.2750, 5.161064
724.7571, 10.78902
725.2392, 15.52428
725.7213, 21.34448
726.2034, 23.33274
726.6855, 18.62841
727.1677, 12.68100
727.6498, 7.934280
728.1319, 4.586014
728.6140, 2.400452
729.0961, 1.324715
729.5782, 1.219727
730.0604, 3.106697
730.5425, 5.327621
731.0246, 4.813438
731.5067, 1.921371
731.9888, 0.9122770
732.4709, 2.619736
732.9531, 2.891624
733.4352, 0.6520840
733.9173, 4.436569
734.3994, 6.568604
734.8815, 4.050468
735.3636, 2.695198
735.8458, 6.121315
736.3279, 10.66058
736.8100, 11.16650
737.2921, 7.520058
737.7742, 5.011078
738.2563, 5.554810
738.7385, 6.027664
739.2206, 4.376839
739.7027, 2.386314
740.1848, 2.247749
740.6669, 4.010719
741.1490, 6.353722
741.6312, 9.227791
742.1133, 10.96693
742.5954, 7.254654
743.0775, 0.2746430
743.5596, 4.069672
744.0417, 2.723228
744.5239, 1.921616
745.0060, 9.622276
745.4881, 18.17404
745.9702, 19.26260
746.4523, 7.837631
746.9344, 0.9520720
747.4166, 2.257126
747.8987, 4.864197
748.3808, 5.630699
748.8629, 5.603806
749.3450, 6.635452
749.8271, 9.196213
750.3093, 11.78984
750.7914, 14.01777
751.2735, 15.92392
751.7556, 18.24599
752.2377, 20.23456
752.7198, 19.77122
753.2020, 16.45390
753.6841, 13.15230
754.1662, 13.28019
754.6483, 15.51120
755.1304, 15.91186
755.6125, 14.49628
756.0947, 11.94771
756.5768, 8.017136
757.0589, 4.835945
757.5410, 4.649864
758.0231, 7.257721
758.5052, 10.16439
758.9874, 16.16936
759.4695, 17.91508
759.9516, 10.66821
760.4337, 3.066093
760.9158, 0.1896820
761.3979, 1.450920
761.8801, 3.682762
762.3622, 5.978577
762.8443, 8.049065
763.3264, 10.75017
763.8085, 12.82966
764.2906, 10.65323
764.7728, 6.029007
765.2549, 5.020325
765.7370, 10.09467
766.2191, 15.81483
766.7012, 14.43096
767.1833, 7.435112
767.6655, 2.669441
768.1476, 0.1409610
768.6297, 0.7075580
769.1118, 5.541542
769.5939, 11.04967
770.0760, 12.84634
770.5582, 10.72035
771.0403, 10.77747
771.5224, 15.16360
772.0045, 18.70982
772.4866, 21.39938
772.9688, 22.52504
773.4509, 20.49786
773.9330, 16.28196
774.4151, 12.79056
774.8972, 10.29230
775.3793, 9.788460
775.8615, 14.12107
776.3436, 19.29149
776.8257, 20.98565
777.3078, 18.91996
777.7899, 13.61636
778.2720, 5.251312
778.7542, 2.500305
779.2363, 4.652664
779.7184, 2.016724
780.2005, 2.514839
780.6826, 8.842331
781.1647, 12.07032
781.6469, 9.572319
782.1290, 5.798096
782.6111, 6.651184
783.0932, 12.30997
783.5753, 15.58418
784.0574, 15.47910
784.5396, 14.54935
785.0217, 12.07418
785.5038, 9.930603
785.9859, 9.997566
786.4680, 11.55214
786.9501, 11.83328
787.4323, 8.791527
787.9144, 7.208206
788.3965, 10.73008
788.8786, 15.32587
789.3607, 16.62447
789.8428, 15.62193
790.3250, 16.74728
790.8071, 21.84792
791.2892, 26.24273
791.7713, 23.14234
792.2534, 15.43131
792.7355, 11.08623
793.2177, 10.07438
793.6998, 10.62747
794.1819, 12.31303
794.6640, 13.41951
795.1461, 11.83787
795.6282, 7.836571
796.1104, 4.472229
796.5925, 1.420250
797.0746, 0.1767580
797.5567, 0.2709120
798.0388, 1.367714
798.5209, 6.735565
799.0031, 13.87013
799.4852, 16.80985
799.9673, 12.76310
800.4494, 9.508560
800.9315, 7.776413
801.4136, 7.683159
801.8958, 11.17741
802.3779, 16.33514
802.8600, 19.62849
803.3421, 20.10074
803.8242, 19.11582
804.3063, 17.35066
804.7885, 14.81526
805.2706, 10.75092
805.7527, 6.293655
806.2348, 5.476257
806.7169, 8.607971
807.1990, 10.68520
807.6812, 6.611732
808.1633, 0.1471410
808.6454, 2.036583
809.1275, 12.51205
809.6096, 17.92554
810.0917, 15.48999
810.5739, 10.74951
811.0560, 5.546288
811.5381, 1.831284
812.0202, 5.096825
812.5023, 20.70914
812.9844, 28.11947
813.4666, 20.02322
813.9487, 12.66290
814.4308, 11.04976
814.9129, 12.42015
815.3950, 14.62614
815.8771, 17.20192
816.3593, 17.93578
816.8414, 13.65019
817.3235, 10.13402
817.8056, 11.72332
818.2877, 14.98116
818.7698, 16.14735
819.2520, 15.16164
819.7341, 13.19570
820.2162, 10.58394
820.6983, 8.568321
821.1804, 9.511566
821.6625, 11.99683
822.1447, 11.43988
822.6268, 8.211807
823.1089, 8.335121
823.5910, 14.52194
824.0731, 20.97768
824.5552, 19.46103
825.0374, 10.80238
825.5195, 6.933617
826.0016, 8.686455
826.4837, 11.98075
826.9658, 17.15924
827.4479, 21.41367
827.9301, 22.20533
828.4122, 20.09449
828.8943, 17.97707
829.3764, 15.39777
829.8585, 13.53133
830.3406, 13.68978
830.8228, 13.19692
831.3049, 8.002220
831.7870, 2.529846
832.2691, 5.335464
832.7512, 18.20140
833.2333, 26.47466
833.7155, 19.76841
834.1976, 10.63840
834.6797, 6.845398
835.1618, 6.823883
835.6439, 9.530350
836.1260, 13.53822
836.6082, 13.96023
837.0903, 6.674797
837.5724, 1.017075
838.0545, 2.837387
838.5366, 13.51580
839.0187, 17.69881
839.5009, 14.74225
839.9830, 11.42029
840.4651, 10.92804
840.9472, 12.24723
841.4293, 14.18251
841.9114, 16.67790
842.3936, 18.17011
842.8757, 18.55599
843.3578, 18.26232
843.8399, 16.76928
844.3220, 16.10782
844.8041, 19.35527
845.2863, 25.24478
845.7684, 25.18311
846.2505, 13.37257
846.7326, 5.124916
847.2147, 1.441849
847.6968, 0.5976790
848.1790, 3.091415
848.6611, 7.371544
849.1432, 11.66523
849.6253, 15.95242
850.1074, 18.03253
850.5895, 15.24489
851.0717, 12.37340
851.5538, 11.77821
852.0359, 12.72986
852.5180, 15.69003
853.0001, 19.45572
853.4822, 19.78061
853.9644, 13.30490
854.4465, 5.561302
854.9286, 0.6806340
855.4107, 1.164597
855.8928, 1.751564
856.3749, 8.119171
856.8571, 13.60181
857.3392, 16.57478
857.8213, 16.09959
858.3034, 9.701073
858.7855, 0.1491010
859.2676, 0.1462400
859.7498, 9.226402
860.2319, 13.47839
860.7140, 9.096024
861.1961, 4.592567
861.6782, 7.428902
862.1603, 14.38618
862.6425, 14.05862
863.1245, 3.046730
863.6066, 1.880882
864.0887, 3.712349
864.5709, 7.345070
865.0530, 0.6602330
865.5351, 8.504513
866.0172, 7.750450
866.4993, 4.546761
866.9814, 11.18742
867.4636, 7.350815
867.9457, 4.361130
868.4278, 4.599304
868.9099, 6.216820
869.3920, 8.977501
869.8741, 11.77388
870.3563, 12.38379
870.8384, 9.714600
871.3205, 6.767830
871.8026, 3.165771
872.2847, 1.338860
872.7668, 5.294975
873.2490, 11.30353
873.7311, 12.94543
874.2132, 9.414818
874.6953, 5.810013
875.1774, 5.602478
875.6595, 6.495110
876.1417, 4.860275
876.6238, 2.893272
877.1059, 6.680672
877.5880, 14.90268
878.0701, 18.28507
878.5522, 12.09707
879.0344, 3.959473
879.5165, 5.636047
879.9986, 13.99368
880.4807, 15.56528
880.9628, 10.81581
881.4449, 7.693306
881.9271, 8.419327
882.4092, 10.65401
882.8913, 12.71603
883.3734, 14.08213
883.8555, 12.21741
884.3376, 6.086655
884.8198, 2.995407
885.3019, 4.139305
885.7840, 6.256378
886.2661, 7.883774
886.7482, 9.594780
887.2303, 12.64449
887.7125, 17.38901
888.1946, 19.36623
888.6767, 16.75822
889.1588, 14.24426
889.6409, 12.90920
890.1230, 11.60215
890.6052, 8.843864
891.0873, 5.602966
891.5694, 4.688728
892.0515, 7.628304
892.5336, 9.222717
893.0157, 7.763420
893.4979, 5.629021
893.9800, 2.290337
894.4621, 2.8374000E-02
894.9442, 2.994385
895.4263, 10.36774
895.9084, 13.78027
896.3906, 6.372810
896.8727, 0.6140370
897.3548, 0.7163090
897.8369, 4.560219
898.3190, 4.806496
898.8011, 2.407379
899.2833, 0.6451340
899.7654, 0.6730960
900.2475, 2.349098
900.7296, 6.957268
901.2117, 12.06117
901.6938, 14.39437
902.1760, 14.76190
902.6581, 15.21669
903.1402, 15.85836
903.6223, 14.66699
904.1044, 10.13848
904.5865, 5.201233
905.0687, 5.099480
905.5508, 8.221779
906.0329, 8.611244
906.5150, 6.303398
906.9971, 3.732254
907.4792, 1.682884
907.9614, 1.180367
908.4435, 3.502678
908.9256, 7.760193
909.4077, 10.92126
909.8898, 12.92407
910.3719, 14.95258
910.8541, 17.42645
911.3362, 17.92120
911.8183, 14.68185
912.3004, 10.07231
912.7825, 8.138603
913.2646, 8.986977
913.7468, 6.898598
914.2289, 0.7127690
914.7110, 4.101944
915.1931, 0.6251680
915.6752, 6.864059
916.1573, 10.15896
916.6395, 11.15840
917.1216, 11.76344
917.6037, 11.98144
918.0858, 11.80457
918.5679, 11.34665
919.0500, 10.34178
919.5322, 7.478241
920.0143, 4.975853
920.4964, 5.468361
920.9785, 8.458702
921.4606, 10.38926
921.9427, 10.68497
922.4249, 10.63179
922.9070, 9.973412
923.3891, 9.028053
923.8712, 8.991272
924.3533, 9.874138
924.8354, 11.23283
925.3176, 12.97408
925.7997, 12.13830
926.2818, 3.657799
926.7639, 2.433342
927.2460, 1.149300
927.7281, 7.273125
928.2103, 8.512154
928.6924, 6.591179
929.1745, 8.173767
929.6566, 15.71663
930.1387, 20.41423
930.6208, 12.96856
931.1030, 3.975388
931.5851, 3.556625
932.0672, 8.206322
932.5493, 11.61645
933.0314, 12.65308
933.5135, 11.96793
933.9957, 9.472839
934.4778, 7.425949
934.9599, 8.844833
935.4420, 11.65673
935.9241, 12.48144
936.4063, 12.26105
936.8884, 13.70028
937.3705, 17.25285
937.8526, 18.32702
938.3347, 12.53957
938.8168, 4.601570
939.2990, 2.707359
939.7811, 4.661079
940.2632, 3.617058
940.7453, 0.1051100
941.2274, 0.7829440
941.7095, 3.724327
942.1917, 9.376953
942.6738, 12.11155
943.1559, 12.35766
943.6380, 10.33381
944.1201, 6.569221
944.6022, 5.248520
945.0844, 6.945320
945.5665, 9.251236
946.0486, 11.55274
946.5307, 13.89575
947.0128, 16.68497
947.4949, 19.62680
947.9771, 20.01703
948.4592, 17.75429
948.9413, 14.83456
949.4234, 11.56601
949.9055, 8.169876
950.3876, 4.349770
950.8698, 1.596405
951.3519, 4.044991
951.8340, 12.44848
952.3161, 16.77136
952.7982, 16.29657
953.2803, 14.81525
953.7625, 12.89929
954.2446, 11.63052
954.7267, 11.90403
955.2088, 13.59039
955.6909, 16.45945
956.1730, 21.67166
956.6552, 23.67852
957.1373, 21.56400
957.6194, 18.11237
958.1015, 13.50143
958.5836, 9.296043
959.0657, 8.046883
959.5479, 9.318237
960.0300, 9.426308
960.5121, 7.068878
960.9942, 6.589714
961.4763, 9.995308
961.9584, 12.37095
962.4406, 10.21487
962.9227, 7.042847
963.4048, 7.713989
963.8869, 12.27813
964.3690, 16.05302
964.8511, 20.98066
965.3333, 22.02453
965.8154, 14.78294
966.2975, 8.001854
966.7796, 6.265984
967.2617, 7.611656
967.7438, 9.580948
968.2260, 12.40633
968.7081, 13.23799
969.1902, 9.312218
969.6723, 7.131615
970.1544, 9.165512
970.6365, 11.92621
971.1187, 13.60260
971.6008, 14.22632
972.0829, 14.52876
972.5650, 14.55235
973.0471, 13.44995
973.5292, 7.894737
974.0114, 4.892052
974.4935, 9.908173
974.9756, 15.11708
975.4577, 12.99738
975.9398, 6.401268
976.4219, 3.143669
976.9041, 4.898888
977.3862, 7.254822
977.8683, 10.81344
978.3504, 12.87276
978.8325, 11.33844
979.3146, 8.625061
979.7968, 6.219345
980.2789, 4.654228
980.7610, 5.379059
981.2431, 10.21008
981.7252, 12.19322
982.2073, 4.986687
982.6895, 0.4671550
983.1716, 3.969116
983.6537, 11.05419
984.1358, 12.87810
984.6179, 9.670288
985.1000, 6.069405
985.5822, 2.133041
986.0643, 0.6531600
986.5464, 4.316551
987.0285, 8.889381
987.5106, 14.79592
987.9927, 18.20258
988.4749, 11.84698
988.9570, 2.070503
989.4391, 10.21297
989.9212, 6.314224
990.4033, 0.9810180
990.8854, 2.217049
991.3676, 4.666237
991.8497, 8.624687
992.3318, 11.64535
992.8139, 8.775467
993.2960, 0.9447400
993.7781, 3.418365
994.2603, 0.3548810
994.7424, 4.749115
995.2245, 5.927902
995.7066, 6.970871
996.1887, 11.71777
996.6708, 16.98466
997.1530, 17.33250
997.6351, 12.67784
998.1172, 8.035568
998.5993, 4.228737
999.0814, 2.824089
999.5635, 7.227142
1000.046, 11.80759
1000.528, 12.65811
1001.010, 10.51108
1001.492, 5.303841
1001.974, 1.963943
1002.456, 5.039749
1002.938, 1.113022
1003.420, 7.834625
1003.903, 12.42715
1004.385, 14.62708
1004.867, 12.53096
1005.349, 8.390244
1005.831, 4.843880
1006.313, 2.610725
1006.795, 2.940735
1007.277, 9.105766
1007.759, 13.68911
1008.242, 10.49016
1008.724, 6.872993
1009.206, 9.533966
1009.688, 15.52823
1010.170, 20.19279
1010.652, 22.51859
1011.134, 22.45265
1011.616, 18.03520
1012.099, 14.10282
1012.581, 12.81603
1013.063, 12.70564
1013.545, 14.26078
1014.027, 15.38776
1014.509, 11.63802
1014.991, 3.034706
1015.473, 2.383667
1015.955, 0.4764860
1016.438, 4.092751
1016.920, 5.541733
1017.402, 6.585831
1017.884, 9.077400
1018.366, 11.75302
1018.848, 12.42148
1019.330, 10.89150
1019.812, 8.968407
1020.294, 6.932144
1020.777, 5.044754
1021.259, 2.875786
1021.741, 1.433411
1022.223, 1.694496
1022.705, 2.991982
1023.187, 4.204086
1023.669, 5.259918
1024.151, 7.214394
1024.634, 11.84884
1025.116, 15.24252
1025.598, 16.39491
1026.080, 15.94823
1026.562, 13.77691
1027.044, 10.54627
1027.526, 6.022575
1028.008, 0.6485670
1028.490, 0.9848940
1028.973, 6.459961
1029.455, 11.08054
1029.937, 7.128128
1030.419, 3.647659
1030.901, 6.166191
1031.383, 11.44516
1031.865, 15.98409
1032.347, 19.37273
1032.830, 20.47238
1033.312, 18.06273
1033.794, 15.02660
1034.276, 9.599068
1034.758, 6.052605
1035.240, 8.330330
1035.722, 12.03936
1036.204, 11.39722
1036.687, 6.979675
1037.169, 5.465912
1037.651, 9.739273
1038.133, 12.57240
1038.615, 12.67335
1039.097, 12.78473
1039.579, 14.19578
1040.061, 15.72628
1040.543, 15.90075
1041.026, 15.14269
1041.508, 15.38750
1041.990, 18.31292
1042.472, 18.44043
1042.954, 13.22453
1043.436, 9.654411
1043.918, 10.96636
1044.400, 13.37755
1044.882, 13.12846
1045.365, 11.19264
1045.847, 11.53994
1046.329, 15.44099
1046.811, 17.02660
1047.293, 14.99580
1047.775, 13.45947
1048.257, 13.56622
1048.739, 14.05695
1049.222, 14.15871
1049.704, 13.78190
1050.186, 12.33913
1050.668, 9.305656
1051.150, 9.710320
1051.632, 14.74365
1052.114, 16.31591
1052.596, 11.41519
1053.078, 5.283890
1053.561, 1.144547
1054.043, 0.5548170
1054.525, 1.969872
1055.007, 8.555466
1055.489, 10.57049
1055.971, 7.533058
1056.453, 6.117905
1056.935, 7.740730
1057.417, 9.135078
1057.900, 8.353928
1058.382, 6.343521
1058.864, 3.854897
1059.346, 1.599190
1059.828, 4.907372
1060.310, 12.52549
1060.792, 12.36691
1061.274, 3.084366
1061.757, 2.133492
1062.239, 3.123077
1062.721, 11.36983
1063.203, 13.59184
1063.685, 12.73100
1064.167, 17.38286
1064.649, 24.98376
1065.131, 25.48096
1065.614, 19.33514
1066.096, 14.96487
1066.578, 15.24955
1067.060, 17.17329
1067.542, 19.08811
1068.024, 19.13942
1068.506, 12.22734
1068.988, 2.937447
1069.470, 3.4798000E-02
1069.953, 2.005455
1070.435, 3.655304
1070.917, 3.633263
1071.399, 4.448273
1071.881, 8.212448
1072.363, 12.07735
1072.845, 13.39188
1073.327, 12.89642
1073.809, 10.57901
1074.292, 7.879204
1074.774, 7.690239
1075.256, 9.910912
1075.738, 11.87184
1076.220, 12.65156
1076.702, 12.45493
1077.184, 10.45358
1077.666, 8.578056
1078.148, 7.661354
1078.631, 7.930115
1079.113, 10.09417
1079.595, 13.57054
1080.077, 16.68273
1080.559, 19.11844
1081.041, 20.88846
1081.523, 22.68724
1082.005, 22.87336
1082.488, 18.14397
1082.970, 14.14871
1083.452, 17.94092
1083.934, 24.83132
1084.416, 23.49828
1084.898, 11.76007
1085.380, 5.537125
1085.862, 9.218239
1086.344, 12.22751
1086.827, 14.38940
1087.309, 14.45154
1087.791, 9.343063
1088.273, 4.355103
1088.755, 8.121597
1089.237, 19.67651
1089.719, 24.18774
1090.201, 19.16259
1090.683, 15.77472
1091.166, 15.02885
1091.648, 15.11185
1092.130, 15.48244
1092.612, 16.17523
1093.094, 17.71949
1093.576, 18.87712
1094.058, 14.11555
1094.540, 3.443779
1095.023, 0.6706770
1095.505, 6.229698
1095.987, 11.70654
1096.469, 14.88403
1096.951, 16.81460
1097.433, 18.24245
1097.915, 18.72240
1098.397, 16.73808
1098.880, 13.38271
1099.362, 12.26810
1099.844, 12.95702
1100.326, 14.24363
1100.808, 15.62246
1101.290, 16.00960
1101.772, 14.91067
1102.254, 12.74191
1102.736, 8.505104
1103.219, 4.914566
1103.701, 6.901718
1104.183, 10.94614
1104.665, 11.40651
1105.147, 9.208977
1105.629, 7.839394
1106.111, 8.215500
1106.593, 9.429382
1107.075, 11.19415
1107.558, 13.28453
1108.040, 16.69814
1108.522, 19.20849
1109.004, 18.11382
1109.486, 15.63771
1109.968, 15.57109
1110.450, 17.33032
1110.932, 16.20059
1111.415, 9.765839
1111.897, 4.317673
1112.379, 0.4982600
1112.861, 1.150826
1113.343, 1.805923
1113.825, 4.919662
1114.307, 3.609482
1114.789, 0.6785130
1115.271, 2.906441
1115.754, 11.39453
1116.236, 16.54813
1116.718, 17.65237
1117.200, 16.83900
1117.682, 13.16814
1118.164, 10.93063
1118.646, 12.83228
1119.128, 15.85632
1119.610, 16.10361
1120.093, 14.15815
1120.575, 11.90381
1121.057, 9.345573
1121.539, 4.709000
1122.021, 2.078598
1122.503, 6.794518
1122.985, 8.098640
1123.467, 6.247780
1123.950, 1.001122
1124.432, 5.094490
1124.914, 6.554214
1125.396, 6.004150
1125.878, 11.60002
1126.360, 20.67245
1126.842, 25.53529
1127.324, 25.14230
1127.807, 21.20266
1128.289, 14.41319
1128.771, 7.686333
1129.253, 1.366936
1129.735, 1.468231
1130.217, 5.580986
1130.699, 14.70986
1131.181, 16.87755
1131.663, 14.06520
1132.146, 10.68376
1132.628, 7.960373
1133.110, 7.963921
1133.592, 13.53593
1134.074, 18.04623
1134.556, 20.31648
1135.038, 20.10882
1135.520, 14.02967
1136.002, 7.995972
1136.485, 9.240967
1136.967, 15.67356
1137.449, 19.20143
1137.931, 19.44621
1138.413, 17.82925
1138.895, 12.84684
1139.377, 9.837685
1139.859, 10.27109
1140.342, 11.24599
1140.824, 11.69597
1141.306, 10.45499
1141.788, 4.761742
1142.270, 3.535522
1142.752, 2.286041
1143.234, 7.924423
1143.716, 12.55305
1144.198, 10.88091
1144.681, 11.54247
1145.163, 17.09319
1145.645, 21.03333
1146.127, 18.15296
1146.609, 12.55733
1147.091, 9.237946
1147.573, 7.953850
1148.055, 9.474594
1148.537, 12.19149
1149.020, 11.49498
1149.502, 8.651512
1149.984, 11.54361
1150.466, 23.00951
1150.948, 29.66751
1151.430, 17.09387
1151.912, 5.351730
1152.394, 8.416077
1152.877, 14.65398
1153.359, 14.98733
1153.841, 12.02347
1154.323, 10.75200
1154.805, 11.27330
1155.287, 10.00179
1155.769, 4.018593
1156.251, 1.337318
1156.734, 4.280472
1157.216, 7.028976
1157.698, 7.866325
1158.180, 8.521027
1158.662, 10.51029
1159.144, 12.76871
1159.626, 13.23652
1160.108, 11.95022
1160.590, 9.261505
1161.073, 5.084366
1161.555, 2.122276
1162.037, 0.7237930
1162.519, 3.974304
1163.001, 13.03770
1163.483, 20.89310
1163.965, 20.73219
1164.447, 17.07855
1164.929, 17.14427
1165.412, 19.22354
1165.894, 21.01427
1166.376, 21.65620
1166.858, 17.90558
1167.340, 11.33340
1167.822, 10.18710
1168.304, 18.09751
1168.786, 23.13696
1169.269, 15.50913
1169.751, 6.546059
1170.233, 0.2824780
1170.715, 2.601578
1171.197, 1.413628
1171.679, 7.613266
1172.161, 8.379143
1172.643, 3.841034
1173.125, 1.986610
1173.608, 3.569588
1174.090, 7.439354
1174.572, 16.95316
1175.054, 21.33181
1175.536, 15.99671
1176.018, 9.148758
1176.500, 6.143265
1176.982, 5.599876
1177.464, 5.300209
1177.947, 5.243828
1178.429, 5.051987
1178.911, 4.943726
1179.393, 7.687927
1179.875, 12.86599
1180.357, 16.17424
1180.839, 16.57441
1181.321, 16.66380
1181.804, 18.90500
1182.286, 19.47015
1182.768, 11.39845
1183.250, 1.865852
1183.732, 0.3589320
1184.214, 1.646149
1184.696, 3.909447
1185.178, 5.680695
1185.661, 6.927948
1186.143, 7.634705
1186.625, 8.048607
1187.107, 7.828445
1187.589, 7.833305
1188.071, 10.19164
1188.553, 10.84653
1189.035, 5.505272
1189.517, 6.6497996E-02
1190.000, 0.2464370
1190.482, 4.057716
1190.964, 12.67706
1191.446, 27.12061
1191.928, 29.24393
1192.410, 17.77985
1192.892, 8.721642
1193.374, 4.852234
1193.856, 2.456367
1194.339, 0.2286530
1194.821, 0.9764480
1195.303, 3.643394
1195.785, 9.070137
1196.267, 5.211136
1196.749, 2.033058
1197.231, 1.753891
1197.713, 3.802437
1198.196, 9.231087
1198.678, 13.40659
1199.160, 17.27258
1199.642, 21.38535
1200.124, 22.66345
1200.606, 18.02305
1201.088, 13.58782
1201.570, 12.46363
1202.052, 11.29894
1202.535, 5.889114
1203.017, 0.6251530
1203.499, 2.580887
1203.981, 9.739182
1204.463, 11.69456
1204.945, 6.892097
1205.427, 2.937836
1205.909, 0.6996540
1206.391, 0.8460920
1206.874, 9.186066
1207.356, 16.21288
1207.838, 17.05528
1208.320, 14.97401
1208.802, 13.32687
1209.284, 11.75776
1209.766, 9.111046
1210.248, 6.295296
1210.731, 5.149590
1211.213, 5.349731
1211.695, 6.405746
1212.177, 7.752090
1212.659, 7.695023
1213.141, 5.408798
1213.623, 3.723869
1214.105, 3.662857
1214.588, 4.936073
1215.070, 10.26440
1215.552, 13.79169
1216.034, 9.485756
1216.516, 2.699783
1216.998, 0.3867950
1217.480, 1.642517
1217.962, 1.938393
1218.444, 0.7873610
1218.927, 1.079628
1219.409, 2.765068
1219.891, 7.591469
1220.373, 16.12117
1220.855, 19.29372
1221.337, 12.83327
1221.819, 5.596283
1222.301, 8.121170
1222.783, 14.12521
1223.266, 11.73093
1223.748, 7.154091
1224.230, 12.98343
1224.712, 23.04172
1225.194, 23.64691
1225.676, 15.62314
1226.158, 10.20396
1226.640, 10.92522
1227.122, 11.41812
1227.605, 7.616066
1228.087, 6.420006
1228.569, 11.81316
1229.051, 17.50265
1229.533, 20.72617
1230.015, 23.09991
1230.497, 27.06937
1230.979, 30.68391
1231.462, 26.75419
1231.944, 15.29661
1232.426, 10.62867
1232.908, 12.25822
1233.390, 12.75517
1233.872, 11.25780
1234.354, 14.68826
1234.836, 24.63590
1235.318, 29.40850
1235.801, 17.51963
1236.283, 3.942947
1236.765, 5.170593
1237.247, 10.20272
1237.729, 8.315475
1238.211, 4.111984
1238.693, 4.135368
1239.175, 7.009003
1239.657, 7.644302
1240.140, 5.199295
1240.622, 5.035789
1241.104, 10.07051
1241.586, 11.34532
1242.068, 6.452492
1242.550, 3.676071
1243.032, 6.064720
1243.514, 8.726486
1243.997, 8.135246
1244.479, 5.945328
1244.961, 3.937294
1245.443, 3.032654
1245.925, 8.215042
1246.407, 15.61665
1246.889, 13.70370
1247.371, 5.774254
1247.854, 3.190918
1248.336, 0.7750240
1248.818, 9.876472
1249.300, 16.20083
1249.782, 18.43019
1250.264, 4.295586
1250.746, 11.29594
1251.228, 9.829102
1251.710, 8.017677
1252.193, 18.00456
1252.675, 6.268616
1253.157, 16.07536
1253.639, 17.28657
1254.121, 22.43572
1254.603, 19.06776
1255.085, 18.33526
1255.567, 26.13123
1256.049, 29.21152
1256.532, 24.88074
1257.014, 30.30614
1257.496, 18.31233
1257.978, 21.76251
1258.460, 20.69592
1258.942, 19.11371
1259.424, 15.08440
1259.906, 12.65451
1260.389, 17.08064
1260.871, 22.71581
1261.353, 22.50142
1261.835, 18.95543
1262.317, 20.00547
1262.799, 25.96844
1263.281, 24.19923
1263.763, 10.55946
1264.245, 1.788826
1264.728, 1.918480
1265.210, 3.442223
1265.692, 19.90138
1266.174, 29.63960
1266.656, 21.89873
1267.138, 9.523842
1267.620, 0.8233340
1268.102, 2.135086
1268.584, 8.890808
1269.067, 13.49161
1269.549, 8.986740
1270.031, 0.0000000E+00
##END=



