##NAMES=Friedelite
##RRUFFID=R060364
##IDEAL CHEMISTRY=Mn^2+^_8_Si_6_O_15_(OH)_10_
##LOCALITY=Sterling Hill mine, Ogdensburg, Sussex County, New Jersey, USA
##OWNER=RRUFF
##SOURCE=Herb Obodda
##DESCRIPTION=Brownish-red fine-grained massive
##STATUS=The identification of this mineral has been confirmed by X-ray diffraction and chemical analysis
##URL=rruff.info/R060364
##MEASURED CHEMISTRY=(Mn^2+^_7.46_Mg_0.54_)_Σ=8_Si_6.00_O_15_((OH)_9.26_Cl_0.74_)_Σ=10_
117.0086, 0.0000000E+00
117.4907, 1.9039999E-03
117.9728, 0.1916300
118.4550, 0.5620340
118.9371, 0.9004930
119.4192, 0.9663940
119.9013, 0.8985290
120.3834, 0.8246920
120.8655, 1.013567
121.3477, 1.356129
121.8298, 1.558919
122.3119, 1.594330
122.7940, 1.725399
123.2761, 2.110292
123.7582, 2.560074
124.2404, 3.170065
124.7225, 3.970379
125.2046, 3.674018
125.6867, 3.707815
126.1688, 4.397567
126.6509, 4.609291
127.1331, 4.264562
127.6152, 3.510064
128.0973, 2.734031
128.5794, 2.178011
129.0615, 1.796923
129.5436, 1.507252
130.0258, 1.358380
130.5079, 1.218684
130.9900, 0.7333930
131.4721, 9.6335001E-02
131.9542, 0.7882170
132.4363, 0.7569930
132.9185, 0.1186750
133.4006, 0.3071540
133.8827, 0.1770560
134.3648, 0.3142280
134.8469, 0.4768350
135.3290, 0.3028260
135.8112, 0.1681800
136.2933, 0.9477110
136.7754, 2.056322
137.2575, 3.226597
137.7396, 4.442946
138.2217, 5.672724
138.7039, 6.650420
139.1860, 7.287427
139.6681, 7.814814
140.1502, 8.660647
140.6323, 9.933548
141.1144, 11.12148
141.5966, 11.93874
142.0787, 12.20387
142.5608, 12.93093
143.0429, 14.31365
143.5250, 16.04480
144.0071, 17.37865
144.4893, 18.04664
144.9714, 18.73019
145.4535, 19.75140
145.9356, 21.41378
146.4177, 22.82682
146.8998, 23.87699
147.3820, 24.66011
147.8641, 25.62362
148.3462, 26.68003
148.8283, 27.98204
149.3104, 29.64994
149.7925, 32.16780
150.2747, 34.40781
150.7568, 36.16238
151.2389, 37.47410
151.7210, 38.85364
152.2031, 40.42772
152.6852, 41.97491
153.1674, 43.37804
153.6495, 44.31401
154.1316, 45.42086
154.6137, 46.85709
155.0958, 48.63017
155.5779, 50.35338
156.0601, 52.01564
156.5422, 53.59967
157.0243, 55.06700
157.5064, 56.65454
157.9885, 57.90024
158.4706, 58.38115
158.9528, 57.92651
159.4349, 58.12875
159.9170, 59.71000
160.3991, 62.07115
160.8812, 64.51962
161.3633, 67.00423
161.8455, 69.41597
162.3276, 71.74582
162.8097, 73.97928
163.2918, 76.02480
163.7739, 77.54703
164.2560, 78.75810
164.7382, 79.50360
165.2203, 80.81586
165.7024, 82.29956
166.1845, 83.56880
166.6666, 84.54784
167.1487, 85.43521
167.6309, 86.39818
168.1130, 87.37022
168.5951, 88.18695
169.0772, 88.80296
169.5593, 89.23438
170.0414, 89.45486
170.5236, 89.37398
171.0057, 89.29198
171.4878, 89.61980
171.9699, 90.17583
172.4520, 90.39377
172.9341, 89.58172
173.4163, 88.40038
173.8984, 87.67358
174.3805, 87.79101
174.8626, 88.06043
175.3447, 87.74889
175.8268, 86.96365
176.3090, 86.16711
176.7911, 85.99111
177.2732, 85.95526
177.7553, 85.19920
178.2374, 83.14648
178.7195, 80.68506
179.2017, 78.98573
179.6838, 77.97524
180.1659, 77.06608
180.6480, 75.64977
181.1301, 73.98740
181.6122, 72.69892
182.0944, 72.23038
182.5765, 72.02995
183.0586, 71.08759
183.5407, 69.41998
184.0228, 67.56341
184.5049, 65.92559
184.9871, 64.47329
185.4692, 63.18024
185.9513, 62.18478
186.4334, 61.30515
186.9155, 60.00276
187.3976, 58.25391
187.8798, 56.41764
188.3619, 54.71798
188.8440, 53.17123
189.3261, 52.01602
189.8082, 51.48639
190.2903, 51.44115
190.7725, 51.17376
191.2546, 50.60224
191.7367, 50.09747
192.2188, 50.35141
192.7009, 51.32396
193.1830, 51.80421
193.6652, 51.04248
194.1473, 49.28588
194.6294, 48.27658
195.1115, 48.12223
195.5936, 48.34541
196.0757, 48.32183
196.5579, 48.04060
197.0400, 47.83972
197.5221, 48.02217
198.0042, 48.53080
198.4863, 48.38822
198.9684, 47.46287
199.4506, 46.17623
199.9327, 45.22866
200.4148, 44.67973
200.8969, 43.90458
201.3790, 42.52697
201.8611, 40.52291
202.3433, 38.78452
202.8254, 37.39539
203.3075, 36.12925
203.7896, 34.53668
204.2717, 32.50460
204.7538, 30.67495
205.2360, 29.49096
205.7181, 29.08298
206.2002, 28.02857
206.6823, 26.09687
207.1644, 23.79777
207.6465, 22.06494
208.1287, 20.99279
208.6108, 20.19779
209.0929, 19.56731
209.5750, 19.13842
210.0571, 18.68153
210.5392, 18.21238
211.0214, 17.70166
211.5035, 17.06800
211.9856, 16.27786
212.4677, 15.47448
212.9498, 14.70303
213.4319, 13.95076
213.9140, 13.30515
214.3962, 12.76934
214.8783, 12.33677
215.3604, 12.03127
215.8425, 11.93680
216.3246, 11.77564
216.8067, 11.42090
217.2889, 10.84890
217.7710, 10.13985
218.2531, 9.179588
218.7352, 8.140999
219.2173, 7.478996
219.6994, 7.418694
220.1816, 7.299885
220.6637, 6.766872
221.1458, 5.576904
221.6279, 4.678623
222.1100, 4.153152
222.5921, 3.897137
223.0743, 3.626328
223.5564, 3.287121
224.0385, 3.031780
224.5206, 2.983845
225.0027, 3.339302
225.4848, 3.363434
225.9670, 2.900803
226.4491, 2.148830
226.9312, 1.622025
227.4133, 1.411438
227.8954, 1.282230
228.3775, 1.101219
228.8597, 0.7400360
229.3418, 0.6534810
229.8239, 0.9505230
230.3060, 1.495449
230.7881, 1.941868
231.2702, 2.446049
231.7524, 2.619045
232.2345, 2.183960
232.7166, 0.6252520
233.1987, 0.3300130
233.6808, 0.4709660
234.1629, 5.8842000E-02
234.6451, 0.2408180
235.1272, 0.4472960
235.6093, 0.5102500
236.0914, 0.3734320
236.5735, 0.1323890
237.0556, 0.4313200
237.5378, 0.4027900
238.0199, 0.1999590
238.5020, 0.2210880
238.9841, 0.5718840
239.4662, 0.9856150
239.9483, 1.373711
240.4305, 1.803444
240.9126, 2.049545
241.3947, 2.111351
241.8768, 1.992317
242.3589, 1.661701
242.8410, 0.9335100
243.3232, 0.2821460
243.8053, 6.6246003E-02
244.2874, 4.2068001E-02
244.7695, 8.2301997E-02
245.2516, 3.6242999E-02
245.7337, 7.0633002E-02
246.2159, 0.1660460
246.6980, 0.1635130
247.1801, 0.2881850
247.6622, 0.6529460
248.1443, 1.364304
248.6264, 2.023911
249.1086, 2.621094
249.5907, 3.178040
250.0728, 3.725792
250.5549, 4.207718
251.0370, 4.777168
251.5191, 5.533691
252.0013, 6.579475
252.4834, 7.427017
252.9655, 7.963028
253.4476, 8.358391
253.9297, 8.896973
254.4118, 9.504143
254.8940, 10.38320
255.3761, 11.73626
255.8582, 13.84206
256.3403, 15.24146
256.8224, 15.51424
257.3046, 15.40520
257.7867, 16.25623
258.2688, 18.64851
258.7509, 20.78951
259.2330, 21.96739
259.7151, 21.96973
260.1973, 22.36952
260.6794, 23.36790
261.1615, 24.55985
261.6436, 25.30560
262.1257, 25.45747
262.6078, 25.54155
263.0900, 25.72015
263.5721, 26.01456
264.0542, 26.19107
264.5363, 26.17873
265.0184, 26.13366
265.5005, 26.29760
265.9827, 26.77257
266.4648, 27.15663
266.9469, 27.37830
267.4290, 27.44137
267.9111, 27.12841
268.3932, 26.31477
268.8754, 25.31857
269.3575, 24.50706
269.8396, 23.92609
270.3217, 23.34439
270.8038, 22.74221
271.2859, 22.10814
271.7681, 21.25974
272.2502, 20.12349
272.7323, 18.92741
273.2144, 17.94962
273.6965, 17.22981
274.1786, 16.48223
274.6608, 15.59894
275.1429, 14.62284
275.6250, 13.86643
276.1071, 13.38478
276.5892, 12.96729
277.0714, 12.51692
277.5535, 12.06712
278.0356, 11.23080
278.5177, 9.764290
278.9998, 7.900085
279.4819, 6.614258
279.9641, 5.956009
280.4462, 5.624893
280.9283, 5.484940
281.4104, 5.548019
281.8925, 5.461227
282.3746, 5.146149
282.8568, 4.666168
283.3389, 4.089767
283.8210, 3.369072
284.3031, 2.916962
284.7852, 3.227974
285.2673, 4.240013
285.7495, 4.879494
286.2316, 4.950127
286.7137, 4.676620
287.1958, 4.478973
287.6779, 4.356583
288.1600, 4.299278
288.6422, 4.348923
289.1243, 4.481277
289.6064, 4.475670
290.0885, 4.262421
290.5706, 4.100822
291.0527, 4.420349
291.5349, 5.189537
292.0170, 6.033318
292.4991, 6.689064
292.9812, 7.215157
293.4633, 7.877052
293.9454, 8.730850
294.4276, 9.539215
294.9097, 9.771294
295.3918, 9.584625
295.8739, 9.763222
296.3560, 10.98635
296.8381, 12.79207
297.3203, 14.00600
297.8024, 14.53291
298.2845, 14.95411
298.7666, 16.09653
299.2487, 17.73214
299.7308, 19.10536
300.2130, 19.60851
300.6951, 19.79008
301.1772, 20.60732
301.6593, 22.04129
302.1414, 23.51501
302.6235, 24.30086
303.1057, 24.77103
303.5878, 25.67139
304.0699, 27.61124
304.5520, 29.82825
305.0341, 31.36037
305.5162, 32.27771
305.9984, 33.23396
306.4805, 34.91833
306.9626, 36.86661
307.4447, 38.35257
307.9268, 38.88544
308.4089, 39.31573
308.8911, 40.38558
309.3732, 41.99964
309.8553, 43.76870
310.3374, 45.56351
310.8195, 47.35663
311.3016, 49.13241
311.7838, 50.97578
312.2659, 52.60851
312.7480, 53.70282
313.2301, 54.41479
313.7122, 55.15453
314.1943, 56.29513
314.6765, 57.42590
315.1586, 58.28832
315.6407, 58.85880
316.1228, 59.11351
316.6049, 58.68579
317.0870, 57.97499
317.5692, 57.64299
318.0513, 58.22939
318.5334, 58.99490
319.0155, 59.67380
319.4976, 60.27972
319.9797, 60.54245
320.4619, 60.04773
320.9440, 59.27181
321.4261, 58.75504
321.9082, 58.82465
322.3903, 58.97201
322.8724, 59.22406
323.3546, 59.58522
323.8367, 59.38879
324.3188, 58.18967
324.8009, 56.55865
325.2830, 54.94881
325.7651, 53.92099
326.2473, 52.35114
326.7294, 49.87100
327.2115, 46.59312
327.6936, 43.39205
328.1757, 40.49486
328.6578, 37.59064
329.1400, 34.50768
329.6221, 30.86060
330.1042, 27.60584
330.5863, 24.85153
331.0684, 22.48383
331.5505, 20.20802
332.0327, 17.79580
332.5148, 15.71907
332.9969, 14.23077
333.4790, 13.69353
333.9611, 12.78710
334.4432, 11.20930
334.9254, 9.431091
335.4075, 8.334770
335.8896, 8.276863
336.3717, 8.157043
336.8538, 7.566406
337.3359, 6.423859
337.8180, 5.663551
338.3001, 5.395081
338.7823, 5.342682
339.2644, 5.218811
339.7465, 5.015839
340.2286, 4.769867
340.7107, 4.480934
341.1928, 4.152039
341.6750, 3.840904
342.1571, 3.544464
342.6392, 3.256165
343.1213, 2.946968
343.6034, 2.617958
344.0855, 2.354126
344.5677, 2.168846
345.0498, 2.059685
345.5319, 2.140633
346.0140, 2.426796
346.4961, 2.482193
346.9782, 1.902046
347.4604, 0.8080750
347.9425, 0.2238850
348.4246, 1.186752
348.9067, 1.969284
349.3888, 2.391716
349.8709, 2.482414
350.3531, 2.399727
350.8352, 2.113609
351.3173, 1.732376
351.7994, 1.458885
352.2815, 1.303299
352.7636, 1.224411
353.2458, 1.285843
353.7279, 1.394615
354.2100, 1.350357
354.6921, 1.090408
355.1742, 0.6343150
355.6563, 0.1539150
356.1385, 1.226387
356.6206, 2.120247
357.1027, 2.321205
357.5848, 2.235680
358.0669, 2.353119
358.5490, 2.894920
359.0312, 3.527802
359.5133, 4.064110
359.9954, 4.525337
360.4775, 4.986023
360.9596, 5.359795
361.4417, 5.823860
361.9239, 6.553284
362.4060, 7.697121
362.8881, 8.742889
363.3702, 9.489578
363.8523, 10.01927
364.3344, 10.45802
364.8166, 10.63107
365.2987, 10.90988
365.7808, 11.45496
366.2629, 12.30235
366.7450, 13.19520
367.2271, 14.30940
367.7093, 15.34782
368.1914, 16.04942
368.6735, 15.77755
369.1556, 15.85525
369.6377, 16.61149
370.1198, 17.96179
370.6020, 19.15763
371.0841, 20.32071
371.5662, 21.21955
372.0483, 21.67516
372.5304, 21.25223
373.0125, 21.22025
373.4947, 21.73399
373.9768, 22.64268
374.4589, 23.54993
374.9410, 24.43138
375.4231, 25.27805
375.9052, 26.09750
376.3874, 26.89734
376.8695, 27.69084
377.3516, 28.46204
377.8337, 29.27580
378.3158, 30.32037
378.7979, 31.66257
379.2801, 32.72908
379.7622, 33.22750
380.2443, 33.34562
380.7264, 34.09761
381.2085, 35.58139
381.6906, 36.97832
382.1728, 37.34871
382.6549, 36.89945
383.1370, 36.98225
383.6191, 37.95211
384.1012, 39.32591
384.5833, 40.32387
385.0655, 40.98968
385.5476, 41.65042
386.0297, 42.62653
386.5118, 43.70515
386.9939, 44.46313
387.4760, 44.82404
387.9582, 45.13479
388.4403, 45.82937
388.9224, 46.71797
389.4045, 47.40281
389.8866, 47.47627
390.3687, 47.45165
390.8509, 47.71184
391.3330, 48.25485
391.8151, 49.03549
392.2972, 50.34341
392.7793, 51.72526
393.2614, 52.72400
393.7436, 52.92386
394.2257, 53.13251
394.7078, 53.60744
395.1899, 54.33938
395.6720, 55.30392
396.1541, 57.11102
396.6363, 58.65902
397.1184, 59.24850
397.6005, 58.32747
398.0826, 57.97360
398.5647, 59.11532
399.0468, 60.77949
399.5290, 61.78653
400.0111, 61.41587
400.4932, 61.07124
400.9753, 60.96586
401.4574, 61.09946
401.9395, 61.36591
402.4217, 62.03190
402.9038, 62.55074
403.3859, 62.51221
403.8680, 61.63045
404.3501, 60.87131
404.8322, 60.35762
405.3144, 59.97117
405.7965, 59.38747
406.2786, 58.52855
406.7607, 57.67933
407.2428, 57.01251
407.7249, 56.55188
408.2071, 56.11777
408.6892, 55.82218
409.1713, 55.27220
409.6534, 53.69867
410.1355, 51.16598
410.6176, 49.01653
411.0998, 47.83939
411.5819, 47.14382
412.0640, 45.73918
412.5461, 43.66750
413.0282, 41.39331
413.5103, 39.08077
413.9925, 36.87329
414.4746, 35.13956
414.9567, 34.08620
415.4388, 33.06911
415.9209, 31.30582
416.4030, 29.03703
416.8852, 26.80616
417.3673, 24.81515
417.8494, 23.05713
418.3315, 21.62538
418.8136, 20.54357
419.2957, 19.31354
419.7779, 17.44769
420.2600, 15.39382
420.7421, 13.63330
421.2242, 12.46078
421.7063, 11.41765
422.1884, 10.34411
422.6706, 9.270370
423.1527, 8.261826
423.6348, 7.405785
424.1169, 6.576656
424.5990, 5.710239
425.0811, 4.802814
425.5633, 3.868114
426.0454, 2.729336
426.5275, 1.639721
427.0096, 0.9193420
427.4917, 0.7748110
427.9738, 0.7016680
428.4560, 0.6262280
428.9381, 0.5443570
429.4202, 0.4105530
429.9023, 0.2348750
430.3844, 5.1460001E-03
430.8665, 0.3939590
431.3487, 1.005283
431.8308, 1.293705
432.3129, 1.150597
432.7950, 0.7452050
433.2771, 0.4061160
433.7592, 0.1382220
434.2414, 0.1312980
434.7235, 0.4848940
435.2056, 0.8734470
435.6877, 1.100605
436.1698, 1.163788
436.6519, 1.097065
437.1341, 0.7390980
437.6162, 0.2712590
438.0983, 0.2007030
438.5804, 0.8689880
439.0625, 1.699390
439.5446, 1.948540
440.0268, 1.766304
440.5089, 1.699036
440.9910, 2.112846
441.4731, 2.755390
441.9552, 3.495338
442.4373, 4.371502
442.9195, 4.993805
443.4016, 4.989628
443.8837, 4.675598
444.3658, 4.436527
444.8479, 4.303467
445.3300, 4.345718
445.8122, 4.714046
446.2943, 5.351158
446.7764, 5.779236
447.2585, 5.858780
447.7406, 5.765942
448.2227, 5.581528
448.7049, 5.314484
449.1870, 4.941750
449.6691, 4.352280
450.1512, 3.714504
450.6333, 3.320576
451.1154, 3.263752
451.5976, 3.239056
452.0797, 3.154285
452.5618, 3.019447
453.0439, 2.984921
453.5260, 3.039082
454.0081, 3.236790
454.4903, 3.681404
454.9724, 4.366158
455.4545, 4.998180
455.9366, 5.536819
456.4187, 6.011524
456.9008, 6.436344
457.3830, 6.823589
457.8651, 7.235291
458.3472, 7.868736
458.8293, 8.499023
459.3114, 8.702457
459.7935, 8.477276
460.2757, 8.039124
460.7578, 7.479595
461.2399, 6.841518
461.7220, 6.183437
462.2041, 5.498806
462.6862, 4.818295
463.1684, 4.140594
463.6505, 3.476173
464.1326, 2.868687
464.6147, 2.237698
465.0968, 1.744648
465.5789, 1.544273
466.0611, 1.688206
466.5432, 1.766514
467.0253, 1.556057
467.5074, 1.323566
467.9895, 1.292660
468.4716, 1.505016
468.9538, 1.899868
469.4359, 2.601147
469.9180, 3.472984
470.4001, 4.064442
470.8822, 4.166164
471.3643, 4.377907
471.8465, 4.964424
472.3286, 5.959499
472.8107, 6.957470
473.2928, 7.930859
473.7749, 8.902260
474.2570, 9.994965
474.7392, 11.24176
475.2213, 12.24469
475.7034, 12.79682
476.1855, 13.11885
476.6676, 13.74134
477.1497, 14.65110
477.6319, 15.64077
478.1140, 16.70391
478.5961, 17.71851
479.0782, 18.37321
479.5603, 18.62149
480.0424, 19.10012
480.5246, 20.57504
481.0067, 22.49309
481.4888, 24.07632
481.9709, 24.84024
482.4530, 25.48834
482.9352, 26.28814
483.4173, 27.24445
483.8994, 28.38962
484.3815, 30.01163
484.8636, 31.65546
485.3457, 33.01219
485.8279, 33.87312
486.3100, 35.00729
486.7921, 36.76155
487.2742, 38.71066
487.7563, 40.46822
488.2384, 41.80945
488.7206, 43.29630
489.2027, 45.12532
489.6848, 47.14875
490.1669, 48.73592
490.6490, 49.88023
491.1311, 50.47562
491.6133, 50.41914
492.0954, 49.74173
492.5775, 49.01309
493.0596, 48.27125
493.5417, 47.13649
494.0238, 45.04963
494.5060, 42.19027
494.9881, 39.37188
495.4702, 36.83118
495.9523, 34.44976
496.4344, 32.03341
496.9165, 29.59925
497.3987, 27.28779
497.8808, 25.15157
498.3629, 23.13995
498.8450, 21.18908
499.3271, 19.27237
499.8092, 17.63316
500.2914, 16.55638
500.7735, 15.71323
501.2556, 14.76012
501.7377, 13.39338
502.2198, 12.19444
502.7019, 11.20955
503.1841, 10.47363
503.6662, 10.07104
504.1483, 10.34891
504.6304, 10.59462
505.1125, 10.58473
505.5946, 10.29063
506.0768, 10.09187
506.5589, 10.03181
507.0410, 10.00787
507.5231, 9.929871
508.0052, 9.785105
508.4873, 9.663013
508.9695, 9.551245
509.4516, 9.507893
509.9337, 9.677788
510.4158, 10.05138
510.8979, 10.45056
511.3800, 10.83762
511.8622, 11.18620
512.3443, 11.48030
512.8264, 11.71189
513.3085, 11.76725
513.7906, 11.45205
514.2728, 10.94852
514.7549, 10.48636
515.2370, 10.10845
515.7191, 9.778591
516.2012, 9.506857
516.6833, 9.263065
517.1655, 8.994772
517.6476, 8.759808
518.1297, 8.424496
518.6118, 7.903522
519.0939, 7.212919
519.5760, 6.535666
520.0582, 5.871159
520.5403, 5.249199
521.0224, 4.690933
521.5045, 4.195202
521.9866, 3.757240
522.4688, 3.388550
522.9509, 3.064215
523.4330, 2.749168
523.9151, 2.442261
524.3972, 2.154367
524.8793, 1.908245
525.3615, 1.669859
525.8436, 1.295536
526.3257, 0.7869280
526.8078, 0.3677580
527.2899, 0.2323170
527.7720, 0.2643800
528.2542, 0.1952970
528.7363, 1.1593000E-02
529.2184, 0.1824130
529.7005, 0.3492340
530.1826, 0.4538760
530.6647, 0.4180260
531.1469, 5.4409001E-02
531.6290, 0.1771390
532.1111, 0.1731680
532.5932, 0.8280030
533.0753, 1.220436
533.5574, 0.9718510
534.0396, 0.6443900
534.5217, 0.4266550
535.0038, 0.3352990
535.4859, 0.2139630
535.9680, 5.9036002E-02
536.4501, 0.2467170
536.9323, 0.1812000
537.4144, 0.2938460
537.8965, 0.5841010
538.3786, 0.6484850
538.8607, 0.5681880
539.3428, 0.4423660
539.8250, 0.2663820
540.3071, 7.6165996E-02
540.7892, 0.1784190
541.2713, 0.3929580
541.7534, 0.1882440
542.2355, 0.3908670
542.7177, 0.8678570
543.1998, 0.7961200
543.6819, 0.4866640
544.1640, 0.4624080
544.6461, 0.7760960
545.1282, 1.063890
545.6104, 1.007839
546.0925, 0.8087560
546.5746, 0.7023260
547.0567, 0.9325140
547.5388, 1.013525
548.0209, 0.5347730
548.5031, 0.1966690
548.9852, 0.5157600
549.4673, 0.2202470
549.9494, 0.8053630
550.4315, 0.8935780
550.9136, 0.4873700
551.3958, 0.1268540
551.8779, 0.2762910
552.3600, 0.4858280
552.8421, 0.2527920
553.3242, 0.4994540
553.8063, 0.9625700
554.2885, 1.085308
554.7706, 0.9668140
555.2527, 0.6071570
555.7348, 6.6510998E-02
556.2169, 0.2559240
556.6990, 0.1342750
557.1812, 0.1305470
557.6633, 0.1062700
558.1454, 0.1484340
558.6275, 0.4140550
559.1096, 0.5484920
559.5917, 0.6519220
560.0739, 0.8371930
560.5560, 1.115553
561.0381, 1.290947
561.5202, 1.066523
562.0023, 0.8393500
562.4844, 0.9150260
562.9666, 1.649498
563.4487, 2.218107
563.9308, 2.546417
564.4129, 2.699974
564.8950, 2.746002
565.3771, 2.580074
565.8593, 2.543680
566.3414, 2.742374
566.8235, 3.124264
567.3056, 3.505526
567.7877, 3.899837
568.2698, 4.173250
568.7520, 4.210556
569.2341, 4.058403
569.7162, 3.852066
570.1983, 3.588390
570.6804, 3.410053
571.1625, 3.397133
571.6447, 3.574083
572.1268, 4.037184
572.6089, 5.004883
573.0910, 5.845800
573.5731, 5.950647
574.0552, 5.688686
574.5374, 5.709101
575.0195, 6.627436
575.5016, 7.450840
575.9837, 7.734308
576.4658, 7.529881
576.9479, 7.602795
577.4301, 8.065237
577.9122, 8.693283
578.3943, 9.482601
578.8764, 10.53390
579.3585, 11.04106
579.8406, 10.75011
580.3228, 10.47925
580.8049, 11.24502
581.2870, 12.97412
581.7691, 14.42593
582.2512, 15.34992
582.7333, 15.98180
583.2155, 16.58480
583.6975, 17.16671
584.1796, 17.79185
584.6617, 18.39192
585.1439, 19.11415
585.6260, 20.18847
586.1081, 21.53941
586.5902, 22.80613
587.0723, 23.73235
587.5544, 24.59038
588.0366, 25.53148
588.5187, 26.55368
589.0008, 27.77865
589.4829, 29.08884
589.9650, 30.64921
590.4471, 32.65296
590.9293, 35.46485
591.4114, 37.96306
591.8935, 39.98797
592.3756, 41.78959
592.8577, 43.70519
593.3398, 45.69512
593.8220, 48.21448
594.3041, 51.44267
594.7862, 55.23495
595.2683, 59.40518
595.7504, 63.89027
596.2325, 68.43871
596.7147, 72.59722
597.1968, 76.87933
597.6789, 81.92822
598.1610, 87.79350
598.6431, 94.23915
599.1252, 100.9964
599.6074, 108.2489
600.0895, 116.2176
600.5716, 125.2680
601.0537, 134.5555
601.5358, 143.5746
602.0179, 152.8534
602.5001, 163.0851
602.9822, 174.4923
603.4643, 186.2761
603.9464, 198.4364
604.4285, 210.8751
604.9106, 223.5938
605.3928, 236.4387
605.8749, 250.0532
606.3570, 264.9401
606.8391, 280.7721
607.3212, 296.7390
607.8033, 312.7710
608.2855, 329.3359
608.7676, 346.5530
609.2497, 364.4724
609.7318, 382.9197
610.2139, 402.1201
610.6960, 421.4467
611.1782, 440.3132
611.6603, 459.1553
612.1424, 478.6942
612.6245, 500.8208
613.1066, 521.2939
613.5887, 539.4647
614.0709, 555.7088
614.5530, 571.4998
615.0351, 587.9265
615.5172, 601.0182
615.9993, 609.8719
616.4814, 614.5703
616.9636, 615.9047
617.4457, 613.9413
617.9278, 608.1851
618.4099, 598.1074
618.8920, 584.0696
619.3741, 566.4092
619.8563, 544.9743
620.3384, 521.4153
620.8205, 496.2074
621.3026, 469.9656
621.7847, 443.4078
622.2668, 416.0462
622.7490, 389.1725
623.2311, 362.7499
623.7132, 337.0630
624.1953, 312.4769
624.6774, 288.5786
625.1595, 266.4273
625.6417, 246.2220
626.1238, 227.7433
626.6059, 210.7869
627.0880, 195.3882
627.5701, 181.0974
628.0522, 167.6961
628.5344, 155.2730
629.0165, 144.4447
629.4986, 135.2280
629.9807, 126.8200
630.4628, 118.6858
630.9449, 110.9784
631.4271, 103.7490
631.9092, 96.99321
632.3913, 90.99117
632.8734, 86.22018
633.3555, 82.18412
633.8376, 78.26859
634.3198, 74.16943
634.8019, 70.61436
635.2840, 68.25760
635.7661, 66.41015
636.2482, 64.03777
636.7303, 60.61045
637.2125, 57.53355
637.6946, 55.16685
638.1767, 53.19663
638.6588, 50.54261
639.1409, 47.01065
639.6230, 44.02815
640.1052, 42.38062
640.5873, 41.59171
641.0694, 40.26250
641.5515, 38.42418
642.0336, 36.54357
642.5157, 34.91948
642.9979, 33.43225
643.4800, 31.93252
643.9621, 30.38598
644.4442, 29.04664
644.9263, 28.21706
645.4084, 27.51986
645.8906, 26.65126
646.3727, 25.42302
646.8548, 24.27848
647.3369, 23.28802
647.8190, 22.35519
648.3011, 21.37043
648.7833, 20.27798
649.2654, 19.29754
649.7475, 18.47914
650.2296, 17.75117
650.7117, 16.92285
651.1938, 16.00003
651.6760, 15.14249
652.1581, 14.41958
652.6402, 13.78512
653.1223, 13.16096
653.6044, 12.56362
654.0865, 12.02210
654.5687, 11.61937
655.0508, 11.23713
655.5329, 10.82005
656.0150, 10.36700
656.4971, 9.804874
656.9792, 8.939285
657.4614, 8.105888
657.9435, 7.468811
658.4256, 7.022717
658.9077, 6.847492
659.3898, 7.109039
659.8719, 7.348286
660.3541, 7.000370
660.8362, 6.089195
661.3183, 5.308216
661.8004, 4.757793
662.2825, 4.406281
662.7646, 4.333454
663.2468, 4.423378
663.7289, 4.382622
664.2110, 4.012131
664.6931, 3.594921
665.1752, 3.351913
665.6573, 3.215286
666.1395, 3.016972
666.6216, 2.498219
667.1037, 2.125050
667.5858, 2.198624
668.0679, 2.622673
668.5500, 2.680367
669.0322, 2.197910
669.5143, 1.682678
669.9964, 1.331135
670.4785, 1.140179
670.9606, 1.128181
671.4427, 1.326763
671.9249, 1.477180
672.4070, 1.231827
672.8891, 0.8067170
673.3712, 0.7394100
673.8533, 1.115791
674.3354, 1.465645
674.8176, 1.416706
675.2997, 1.177959
675.7818, 0.9462620
676.2639, 0.6419220
676.7460, 0.5612640
677.2281, 1.102730
677.7103, 1.773216
678.1924, 1.928474
678.6745, 1.160957
679.1566, 0.7754940
679.6387, 1.020973
680.1208, 1.611042
680.6030, 1.947697
681.0851, 2.039036
681.5672, 2.120941
682.0493, 2.277653
682.5314, 2.476437
683.0135, 2.683231
683.4957, 2.879616
683.9778, 3.010334
684.4599, 3.048061
684.9420, 3.001846
685.4241, 2.780010
685.9063, 2.420700
686.3884, 2.285488
686.8705, 2.857380
687.3526, 3.330303
687.8347, 3.283360
688.3168, 2.581009
688.7990, 2.248547
689.2811, 2.386112
689.7632, 2.687233
690.2453, 2.929035
690.7274, 3.116985
691.2095, 3.331512
691.6917, 3.595486
692.1738, 3.766209
692.6559, 3.604588
693.1380, 3.258263
693.6201, 2.952682
694.1022, 2.711426
694.5844, 2.641182
695.0665, 3.021252
695.5486, 3.532726
696.0307, 3.769489
696.5128, 3.286213
696.9949, 2.978924
697.4771, 3.021362
697.9592, 3.244938
698.4413, 3.324570
698.9234, 3.235989
699.4055, 3.095123
699.8876, 2.890293
700.3698, 2.698277
700.8519, 2.751247
701.3340, 3.022125
701.8161, 3.333565
702.2982, 3.712864
702.7803, 4.007452
703.2625, 4.006411
703.7446, 3.750723
704.2267, 3.461235
704.7088, 3.201729
705.1909, 2.959551
705.6730, 2.669641
706.1552, 2.310751
706.6373, 2.273865
707.1194, 2.779238
707.6015, 3.298960
708.0836, 3.519407
708.5657, 3.420952
709.0479, 3.425436
709.5300, 3.547527
710.0121, 3.675508
710.4942, 3.756138
710.9763, 3.756672
711.4584, 3.579023
711.9406, 3.196379
712.4227, 2.752819
712.9048, 2.152697
713.3869, 1.641476
713.8690, 1.518173
714.3511, 2.228653
714.8333, 2.644335
715.3154, 2.296865
715.7975, 1.689680
716.2796, 1.354317
716.7617, 1.404692
717.2438, 1.416342
717.7260, 1.364231
718.2081, 1.216751
718.6902, 0.8118550
719.1723, 0.2015060
719.6544, 0.1577010
720.1365, 2.7046001E-02
720.6187, 0.2654020
721.1008, 0.3697810
721.5829, 0.3321970
722.0650, 0.2615950
722.5471, 0.1507700
723.0292, 7.0349000E-02
723.5114, 8.8385001E-02
723.9935, 0.1728270
724.4756, 0.1791320
724.9577, 2.8749000E-02
725.4398, 8.1941999E-02
725.9219, 8.2523003E-02
726.4041, 5.5889999E-03
726.8862, 8.2716003E-02
727.3683, 0.1554150
727.8504, 0.1369290
728.3325, 0.1075590
728.8146, 0.4523560
729.2968, 0.6086920
729.7789, 0.5920310
730.2610, 0.5570490
730.7431, 0.5863360
731.2252, 0.6451680
731.7073, 0.7267170
732.1895, 0.8357730
732.6716, 0.8868060
733.1537, 0.8526190
733.6358, 0.7643640
734.1179, 0.5779000
734.6000, 0.2157630
735.0822, 0.2990300
735.5643, 0.9524350
736.0464, 1.627483
736.5285, 1.831865
737.0106, 1.642452
737.4927, 1.260420
737.9749, 0.6719400
738.4570, 0.2304190
738.9391, 0.3954600
739.4212, 0.8107090
739.9033, 1.078485
740.3854, 1.093742
740.8676, 1.008356
741.3497, 0.8242570
741.8318, 0.5777890
742.3139, 0.2980560
742.7960, 5.5101000E-02
743.2781, 0.3468460
743.7603, 0.5926610
744.2424, 0.7341080
744.7245, 0.5716440
745.2066, 0.1650520
745.6887, 3.8794000E-02
746.1708, 0.3954560
746.6530, 0.8648300
747.1351, 1.054296
747.6172, 1.047647
748.0993, 0.9897610
748.5814, 0.9292160
749.0635, 0.8309750
749.5457, 0.5812020
750.0278, 0.3000550
750.5099, 0.2574230
750.9920, 0.6142520
751.4741, 0.9073700
751.9562, 1.058380
752.4384, 1.092205
752.9205, 1.030678
753.4026, 0.8774510
753.8847, 0.7795010
754.3668, 0.8032990
754.8489, 0.9035610
755.3311, 1.099249
755.8132, 1.326851
756.2953, 1.396181
756.7774, 1.018148
757.2595, 0.6578830
757.7416, 0.5470450
758.2238, 0.6574880
758.7059, 0.7763390
759.1880, 0.8950540
759.6701, 1.012022
760.1522, 1.118139
760.6343, 1.222149
761.1165, 1.397654
761.5986, 1.649452
762.0807, 1.855835
762.5628, 1.940565
763.0449, 1.940540
763.5270, 1.895391
764.0092, 1.815067
764.4913, 1.749706
764.9734, 1.772184
765.4555, 1.780491
765.9376, 1.677275
766.4197, 1.458471
766.9019, 1.356239
767.3840, 1.354738
767.8661, 1.511168
768.3482, 1.925032
768.8303, 2.578987
769.3124, 2.916204
769.7946, 2.912119
770.2767, 2.866043
770.7588, 3.037769
771.2409, 3.291874
771.7230, 3.354237
772.2051, 3.224335
772.6873, 3.120586
773.1694, 3.230183
773.6515, 3.365353
774.1336, 3.380930
774.6157, 3.231798
775.0978, 3.167799
775.5800, 3.244612
776.0621, 3.342220
776.5442, 3.380754
777.0263, 3.354933
777.5084, 3.404356
777.9905, 3.544491
778.4727, 3.668318
778.9548, 3.600681
779.4369, 3.482782
779.9190, 3.598099
780.4011, 3.984058
780.8832, 4.364132
781.3654, 4.554560
781.8475, 4.693436
782.3296, 4.879845
782.8117, 5.134567
783.2938, 5.407305
783.7759, 5.722857
784.2581, 6.032547
784.7402, 6.299614
785.2223, 6.522190
785.7044, 6.681910
786.1865, 6.761665
786.6686, 6.842152
787.1508, 7.036011
787.6329, 7.293818
788.1150, 7.543364
788.5971, 7.778034
789.0792, 7.946859
789.5613, 7.797310
790.0435, 7.720444
790.5256, 8.107729
791.0077, 9.304081
791.4898, 10.05662
791.9719, 10.21439
792.4540, 10.19403
792.9362, 10.26277
793.4183, 10.39816
793.9004, 10.78417
794.3825, 11.50052
794.8646, 12.24969
795.3467, 12.74907
795.8289, 13.12978
796.3110, 13.48662
796.7931, 13.77382
797.2752, 14.16792
797.7573, 14.84566
798.2394, 15.62888
798.7216, 16.37308
799.2037, 17.11690
799.6858, 17.73753
800.1679, 18.19477
800.6500, 18.66615
801.1321, 19.28902
801.6143, 20.07077
802.0964, 21.17804
802.5785, 22.68808
803.0606, 23.92873
803.5427, 23.95224
804.0248, 23.59508
804.5070, 23.81074
804.9891, 25.02003
805.4712, 25.99820
805.9533, 26.34798
806.4354, 26.48223
806.9175, 26.66474
807.3997, 26.87647
807.8818, 27.22091
808.3639, 27.75017
808.8460, 28.27752
809.3281, 28.60443
809.8102, 28.74833
810.2924, 28.69749
810.7745, 28.41791
811.2566, 28.25009
811.7387, 28.64813
812.2208, 29.14326
812.7029, 29.28984
813.1851, 28.85281
813.6672, 28.53116
814.1493, 28.48258
814.6314, 28.40130
815.1135, 27.98224
815.5956, 27.20586
816.0778, 26.69097
816.5599, 26.48986
817.0420, 26.29880
817.5241, 25.93396
818.0062, 25.34584
818.4883, 24.34664
818.9705, 22.84756
819.4526, 21.49858
819.9347, 20.92486
820.4168, 20.38860
820.8989, 19.24696
821.3810, 17.24147
821.8632, 15.75006
822.3453, 14.90022
822.8274, 14.27868
823.3095, 13.65681
823.7916, 13.00200
824.2737, 12.09926
824.7559, 10.93123
825.2380, 9.862934
825.7201, 9.254448
826.2022, 8.864542
826.6843, 8.512129
827.1664, 8.189768
827.6486, 7.745560
828.1307, 6.911215
828.6128, 6.165876
829.0949, 5.759993
829.5770, 5.720900
830.0591, 5.677483
830.5413, 5.643782
831.0234, 5.519087
831.5055, 5.122612
831.9876, 4.618227
832.4697, 4.400211
832.9518, 4.456339
833.4340, 4.381929
833.9161, 3.683393
834.3982, 2.997442
834.8803, 2.779324
835.3624, 3.098322
835.8445, 3.277435
836.3267, 3.303391
836.8088, 3.204767
837.2909, 2.932837
837.7730, 2.541748
838.2551, 2.400524
838.7372, 2.492756
839.2194, 2.546352
839.7015, 2.364149
840.1836, 2.076616
840.6657, 1.758698
841.1478, 1.431824
841.6299, 1.211178
842.1121, 1.217983
842.5942, 1.248829
843.0763, 1.252356
843.5584, 1.223986
844.0405, 1.117182
844.5226, 0.9151400
845.0048, 0.7514950
845.4869, 0.6977140
845.9690, 0.7073250
846.4511, 0.7014830
846.9332, 0.6827700
847.4153, 0.6606580
847.8975, 0.6324310
848.3796, 0.6131460
848.8617, 0.5939640
849.3438, 0.5812380
849.8259, 0.6260720
850.3080, 0.8114830
850.7902, 0.8742580
851.2723, 0.7341380
851.7544, 0.4662340
852.2365, 0.1706920
852.7186, 0.1254560
853.2007, 0.2552410
853.6829, 0.1030010
854.1650, 0.1540600
854.6471, 0.4944380
855.1292, 0.7919390
855.6113, 0.8489150
856.0934, 0.1585690
856.5756, 0.1438220
857.0577, 0.3334240
857.5398, 1.028980
858.0219, 1.030983
858.5040, 0.2817210
858.9861, 8.0123998E-02
859.4683, 0.2070710
859.9504, 0.7342360
860.4325, 0.9484730
860.9146, 0.9261250
861.3967, 0.8208180
861.8788, 0.6107430
862.3610, 0.5711290
862.8431, 1.005161
863.3252, 1.512184
863.8073, 1.699350
864.2894, 1.400541
864.7715, 1.327517
865.2537, 1.546040
865.7358, 1.851782
866.2179, 2.017290
866.7000, 2.032518
867.1821, 1.910114
867.6642, 1.656574
868.1464, 1.540586
868.6285, 1.902275
869.1106, 2.328196
869.5927, 2.479771
870.0748, 2.241556
870.5569, 2.088606
871.0391, 2.088923
871.5212, 2.121979
872.0033, 2.017017
872.4854, 1.804407
872.9675, 2.045763
873.4496, 2.731647
873.9318, 3.337019
874.4139, 3.423895
874.8960, 3.296169
875.3781, 3.182783
875.8602, 3.104826
876.3423, 3.075747
876.8245, 3.193838
877.3066, 3.243450
877.7887, 3.128366
878.2708, 2.936167
878.7529, 2.905989
879.2350, 3.009525
879.7172, 3.123310
880.1993, 3.249166
880.6814, 3.299303
881.1635, 3.073387
881.6456, 2.683971
882.1277, 2.393461
882.6099, 2.513969
883.0920, 2.489676
883.5741, 1.932272
884.0562, 1.249060
884.5383, 1.140591
885.0204, 1.716459
885.5026, 2.173275
885.9847, 2.360540
886.4668, 2.402088
886.9489, 2.462349
887.4310, 2.505817
887.9131, 2.460510
888.3953, 2.305387
888.8774, 2.072971
889.3595, 1.573183
889.8416, 1.127842
890.3237, 1.072931
890.8058, 1.636169
891.2880, 1.916874
891.7701, 1.869730
892.2522, 1.673435
892.7343, 1.368021
893.2164, 1.055996
893.6985, 1.102842
894.1807, 1.531021
894.6628, 1.862194
895.1449, 1.669310
895.6270, 1.369226
896.1091, 1.244572
896.5912, 1.329994
897.0734, 1.367212
897.5555, 1.333288
898.0376, 1.305988
898.5197, 1.333565
899.0018, 1.392879
899.4839, 1.398722
899.9661, 1.357664
900.4482, 1.308161
900.9303, 1.236839
901.4124, 1.196465
901.8945, 1.243076
902.3766, 1.350607
902.8588, 1.437672
903.3409, 1.541525
903.8230, 1.539076
904.3051, 1.391264
904.7872, 1.145866
905.2693, 0.8006760
905.7515, 0.4070050
906.2336, 0.2935810
906.7157, 0.6215210
907.1978, 1.054600
907.6799, 1.402466
908.1620, 1.643213
908.6442, 1.748793
909.1263, 1.645954
909.6084, 1.517130
910.0905, 1.387274
910.5726, 1.197672
911.0547, 0.8189870
911.5369, 0.3060110
912.0190, 0.1324210
912.5011, 0.3310300
912.9832, 0.5556600
913.4653, 0.4859410
913.9474, 0.3269940
914.4296, 0.2807450
914.9117, 0.3953300
915.3938, 0.4815810
915.8759, 0.6254220
916.3580, 0.5596160
916.8401, 4.0183999E-02
917.3223, 0.7751500
917.8044, 0.9771670
918.2865, 0.6013340
918.7686, 0.2102380
919.2507, 0.1530320
919.7328, 0.1769010
920.2150, 1.3826000E-02
920.6971, 0.2659110
921.1792, 0.4838090
921.6613, 0.7068560
922.1434, 0.6808720
922.6255, 0.2188000
923.1077, 0.3649880
923.5898, 0.4460810
924.0719, 5.9990000E-02
924.5540, 0.1294710
925.0361, 4.1861001E-02
925.5182, 0.3054940
926.0004, 0.4601140
926.4825, 0.5188600
926.9646, 0.4707600
927.4467, 0.2194650
927.9288, 0.1560570
928.4109, 0.5072500
928.8931, 0.8173270
929.3752, 0.6904740
929.8573, 0.1406900
930.3394, 3.8892999E-02
930.8215, 0.1527900
931.3036, 0.3538700
931.7858, 0.2911830
932.2679, 0.1152060
932.7500, 6.0098998E-02
933.2321, 0.2203060
933.7142, 0.3391060
934.1964, 0.5007020
934.6785, 0.4752370
935.1606, 8.7099001E-02
935.6427, 0.4641950
936.1248, 0.5229300
936.6069, 0.1247080
937.0891, 0.2992820
937.5712, 0.6646820
938.0533, 0.8943440
938.5354, 0.8560750
939.0175, 0.6545430
939.4996, 0.4422420
939.9818, 6.2909998E-02
940.4639, 1.0779999E-03
940.9460, 0.4761390
941.4281, 0.9832670
941.9102, 0.9095820
942.3923, 0.3362050
942.8745, 3.6832999E-02
943.3566, 6.8379998E-02
943.8387, 0.2106150
944.3208, 0.4091380
944.8029, 0.5446660
945.2850, 0.4334810
945.7672, 5.1111002E-02
946.2493, 5.8334000E-02
946.7314, 0.2898580
947.2135, 0.6361080
947.6956, 0.8088970
948.1777, 0.8443340
948.6599, 0.8437270
949.1420, 0.8102970
949.6241, 0.7651480
950.1062, 0.6363950
950.5883, 0.5967660
951.0704, 0.9195100
951.5526, 1.382051
952.0347, 1.531191
952.5168, 1.098537
952.9989, 0.8367810
953.4810, 0.8114830
953.9631, 0.9503480
954.4453, 1.275600
954.9274, 1.695112
955.4095, 1.821716
955.8916, 1.577890
956.3737, 1.410509
956.8558, 1.808788
957.3380, 2.246597
957.8201, 2.300480
958.3022, 1.926666
958.7843, 1.574669
959.2664, 1.201742
959.7485, 0.9894640
960.2307, 1.078558
960.7128, 1.352842
961.1949, 1.628561
961.6770, 1.864811
962.1591, 1.914511
962.6412, 1.399742
963.1234, 1.034534
963.6055, 1.229326
964.0876, 1.713882
964.5697, 2.076527
965.0518, 2.341103
965.5339, 2.301466
966.0161, 1.868296
966.4982, 1.360416
966.9803, 1.107180
967.4624, 1.056547
967.9445, 1.168077
968.4266, 1.459055
968.9088, 1.699589
969.3909, 1.807396
969.8730, 1.830627
970.3551, 1.784616
970.8372, 1.673882
971.3193, 1.617064
971.8015, 1.615223
972.2836, 1.607182
972.7657, 1.548330
973.2478, 1.476673
973.7299, 1.405331
974.2120, 1.358147
974.6942, 1.386972
975.1763, 1.559868
975.6584, 1.684229
976.1405, 1.762930
976.6226, 1.824329
977.1047, 1.919899
977.5869, 2.029886
978.0690, 1.964258
978.5511, 1.677397
979.0332, 1.362867
979.5153, 1.094244
979.9974, 0.9363370
980.4796, 1.017889
980.9617, 1.380365
981.4438, 1.440647
981.9259, 1.020748
982.4080, 0.7228980
982.8901, 0.8669640
983.3723, 1.287262
983.8544, 1.518923
984.3365, 1.598669
984.8186, 1.660389
985.3007, 1.743958
985.7828, 1.864195
986.2650, 2.029194
986.7471, 2.209581
987.2292, 2.389505
987.7113, 2.621458
988.1934, 2.749559
988.6755, 2.725456
989.1577, 2.629745
989.6398, 2.493158
990.1219, 2.400457
990.6040, 2.543760
991.0861, 2.940718
991.5682, 3.226099
992.0504, 3.094643
992.5325, 2.987469
993.0146, 3.122576
993.4967, 3.420141
993.9788, 3.638609
994.4609, 3.807177
994.9431, 3.912880
995.4252, 3.874924
995.9073, 3.881462
996.3894, 4.235012
996.8715, 4.747137
997.3536, 5.115162
997.8358, 5.193285
998.3179, 5.194641
998.8000, 5.063736
999.2821, 4.959124
999.7642, 5.068748
1000.246, 5.350981
1000.728, 5.514145
1001.211, 5.557631
1001.693, 5.767721
1002.175, 6.513981
1002.657, 7.330744
1003.139, 7.925678
1003.621, 8.306280
1004.103, 8.618214
1004.585, 8.853144
1005.068, 9.048407
1005.550, 9.180634
1006.032, 9.350389
1006.514, 9.761145
1006.996, 10.32505
1007.478, 10.87845
1007.960, 11.37484
1008.442, 11.85241
1008.924, 12.34904
1009.407, 12.81660
1009.889, 13.22604
1010.371, 13.57427
1010.853, 13.85307
1011.335, 14.06437
1011.817, 14.40145
1012.299, 15.04257
1012.781, 15.82977
1013.263, 16.71996
1013.746, 17.64745
1014.228, 18.39294
1014.710, 18.67853
1015.192, 19.26087
1015.674, 20.33504
1016.156, 21.60281
1016.638, 22.62767
1017.120, 23.48323
1017.603, 24.33454
1018.085, 25.18585
1018.567, 26.31576
1019.049, 27.93538
1019.531, 29.85958
1020.013, 31.94822
1020.495, 34.19523
1020.977, 36.81639
1021.459, 39.80276
1021.942, 43.24238
1022.424, 47.24696
1022.906, 51.64759
1023.388, 56.20369
1023.870, 61.03975
1024.352, 66.39938
1024.834, 71.87955
1025.316, 78.69156
1025.799, 87.25739
1026.281, 96.62513
1026.763, 105.9661
1027.245, 115.1809
1027.727, 124.6046
1028.209, 134.2536
1028.691, 144.1550
1029.173, 153.8365
1029.656, 164.2546
1030.138, 176.1722
1030.620, 189.3943
1031.102, 202.7793
1031.584, 216.1825
1032.066, 230.6481
1032.548, 246.6214
1033.030, 263.5882
1033.512, 281.3181
1033.995, 299.1878
1034.477, 316.1125
1034.959, 332.3102
1035.441, 345.7770
1035.923, 357.4546
1036.405, 364.6157
1036.887, 365.6716
1037.369, 360.8228
1037.851, 351.4940
1038.334, 337.8634
1038.816, 320.1237
1039.298, 296.1216
1039.780, 270.4010
1040.262, 244.5414
1040.744, 219.2667
1041.226, 195.7402
1041.708, 173.5364
1042.191, 153.3942
1042.673, 135.0629
1043.155, 118.8419
1043.637, 105.0217
1044.119, 93.22488
1044.601, 82.84889
1045.083, 73.70420
1045.565, 65.76122
1046.047, 59.29787
1046.530, 53.64697
1047.012, 48.71473
1047.494, 44.42175
1047.976, 40.63914
1048.458, 37.29490
1048.940, 34.18842
1049.422, 31.19874
1049.904, 28.55757
1050.386, 26.61352
1050.869, 24.96792
1051.351, 23.15436
1051.833, 21.03047
1052.315, 19.51263
1052.797, 18.74135
1053.279, 17.91475
1053.761, 16.34983
1054.243, 14.54603
1054.726, 13.36867
1055.208, 12.65691
1055.690, 11.98512
1056.172, 11.17516
1056.654, 10.43272
1057.136, 9.751192
1057.618, 9.176512
1058.100, 8.811947
1058.583, 8.619568
1059.065, 8.369699
1059.547, 8.044075
1060.029, 7.619579
1060.511, 6.932825
1060.993, 6.292789
1061.475, 5.970877
1061.957, 5.874401
1062.439, 5.596727
1062.922, 5.113743
1063.404, 4.569099
1063.886, 3.950926
1064.368, 3.440607
1064.850, 3.352186
1065.332, 3.464222
1065.814, 3.482086
1066.296, 3.337643
1066.778, 3.151175
1067.261, 2.890404
1067.743, 2.676388
1068.225, 2.587704
1068.707, 2.583426
1069.189, 2.548851
1069.671, 2.483957
1070.153, 2.388020
1070.635, 2.252436
1071.118, 2.097742
1071.600, 1.940231
1072.082, 1.764986
1072.564, 1.535639
1073.046, 1.240658
1073.528, 1.101357
1074.010, 1.132128
1074.492, 1.100618
1074.974, 0.6119250
1075.457, 0.1646500
1075.939, 0.3827420
1076.421, 1.056700
1076.903, 1.247490
1077.385, 0.6498910
1077.867, 0.2765370
1078.349, 0.3264730
1078.831, 0.5646840
1079.313, 0.8044280
1079.796, 0.9666000
1080.278, 0.8255290
1080.760, 0.3273300
1081.242, 1.8155999E-02
1081.724, 0.3134330
1082.206, 0.5599460
1082.688, 0.5165650
1083.170, 0.2667060
1083.652, 3.6164999E-02
1084.135, 0.1683480
1084.617, 0.2990420
1085.099, 0.3307230
1085.581, 0.3114050
1086.063, 0.2781940
1086.545, 0.1972730
1087.027, 9.5419995E-03
1087.509, 0.3839320
1087.992, 0.3982070
1088.474, 3.2559998E-02
1088.956, 0.3849160
1089.438, 0.7533490
1089.920, 0.9884000
1090.402, 1.013004
1090.884, 0.8399720
1091.366, 0.4674630
1091.849, 0.4398990
1092.331, 0.8163030
1092.813, 0.4747030
1093.295, 3.6424998E-02
1093.777, 0.1471000
1094.259, 3.9360002E-02
1094.741, 0.1349830
1095.223, 0.4123040
1095.705, 0.5511380
1096.188, 0.2928180
1096.670, 2.4759000E-02
1097.152, 0.2277720
1097.634, 0.3641550
1098.116, 4.2881001E-02
1098.598, 0.6045480
1099.080, 0.8022270
1099.562, 0.3977530
1100.044, 0.1308140
1100.527, 0.6417580
1101.009, 1.013517
1101.491, 1.137718
1101.973, 1.051964
1102.455, 0.9194720
1102.937, 0.7374920
1103.419, 0.5613920
1103.901, 0.3999020
1104.384, 0.2795640
1104.866, 0.1604750
1105.348, 0.1369380
1105.830, 0.3858180
1106.312, 1.073507
1106.794, 1.347862
1107.276, 1.088608
1107.758, 0.8381270
1108.240, 0.8968430
1108.723, 1.165918
1109.205, 1.594212
1109.687, 2.080692
1110.169, 2.396404
1110.651, 2.272627
1111.133, 2.270277
1111.615, 2.477985
1112.097, 2.737543
1112.579, 2.891874
1113.062, 2.978678
1113.544, 3.132486
1114.026, 3.354073
1114.508, 3.611481
1114.990, 3.900789
1115.472, 4.211498
1115.954, 4.561398
1116.436, 4.908268
1116.919, 5.209164
1117.401, 5.460552
1117.883, 5.525475
1118.365, 5.380995
1118.847, 5.280981
1119.329, 5.577105
1119.811, 5.838537
1120.293, 5.543755
1120.776, 4.935722
1121.258, 5.144476
1121.740, 6.297857
1122.222, 7.051676
1122.704, 7.045914
1123.186, 6.764969
1123.668, 6.555130
1124.150, 6.451939
1124.632, 6.533642
1125.115, 6.838976
1125.597, 7.040035
1126.079, 7.134161
1126.561, 7.110437
1127.043, 6.921600
1127.525, 6.681383
1128.007, 6.606701
1128.489, 6.605152
1128.971, 6.494814
1129.454, 6.130785
1129.936, 6.047235
1130.418, 6.539108
1130.900, 6.800030
1131.382, 6.170279
1131.864, 5.037691
1132.346, 4.533794
1132.828, 4.507746
1133.311, 4.482698
1133.793, 4.217905
1134.275, 3.998775
1134.757, 3.919947
1135.239, 3.869669
1135.721, 3.769981
1136.203, 3.617476
1136.685, 3.316038
1137.167, 2.896725
1137.650, 2.623249
1138.132, 2.830286
1138.614, 3.010698
1139.096, 2.887840
1139.578, 2.619514
1140.060, 2.396622
1140.542, 2.218048
1141.024, 2.131437
1141.506, 2.141823
1141.989, 2.155813
1142.471, 2.033152
1142.953, 1.978607
1143.435, 2.213810
1143.917, 2.616964
1144.399, 2.854216
1144.881, 2.952471
1145.363, 2.977161
1145.846, 2.933105
1146.328, 2.881071
1146.810, 2.853571
1147.292, 2.859680
1147.774, 2.928692
1148.256, 3.074369
1148.738, 3.256907
1149.220, 3.538431
1149.703, 3.637266
1150.185, 3.385180
1150.667, 3.073442
1151.149, 3.107470
1151.631, 3.305677
1152.113, 3.389992
1152.595, 3.251780
1153.077, 3.397970
1153.559, 4.024040
1154.042, 4.542044
1154.524, 4.670952
1155.006, 4.594090
1155.488, 4.584209
1155.970, 4.649706
1156.452, 4.811350
1156.934, 5.224794
1157.416, 5.406969
1157.898, 5.203299
1158.381, 4.952934
1158.863, 4.869801
1159.345, 4.878592
1159.827, 4.769869
1160.309, 4.590956
1160.791, 4.468590
1161.273, 4.480171
1161.755, 4.506550
1162.238, 4.556847
1162.720, 4.553331
1163.202, 4.421467
1163.684, 4.221127
1164.166, 4.313864
1164.648, 4.621803
1165.130, 4.802271
1165.612, 4.613306
1166.094, 4.338060
1166.577, 4.048431
1167.059, 3.747421
1167.541, 3.390366
1168.023, 3.003036
1168.505, 2.937075
1168.987, 3.154669
1169.469, 3.252489
1169.951, 2.882301
1170.433, 2.469676
1170.916, 2.191273
1171.398, 1.997087
1171.880, 1.771237
1172.362, 1.527910
1172.844, 1.624504
1173.326, 2.075791
1173.808, 2.417098
1174.290, 2.259179
1174.773, 1.963398
1175.255, 1.625498
1175.737, 1.338220
1176.219, 1.376138
1176.701, 1.742729
1177.183, 1.718850
1177.665, 1.192345
1178.147, 0.6354830
1178.630, 0.3215220
1179.112, 0.2033100
1179.594, 0.3677140
1180.076, 0.6931950
1180.558, 0.8011750
1181.040, 0.6817970
1181.522, 0.5348760
1182.004, 0.3899930
1182.486, 0.2816830
1182.969, 0.2516150
1183.451, 0.2619030
1183.933, 0.2823420
1184.415, 0.3137230
1184.897, 0.4187750
1185.379, 0.6223340
1185.861, 0.5786450
1186.343, 0.1307220
1186.825, 0.2960930
1187.308, 0.2467870
1187.790, 1.7520000E-03
1188.272, 0.2132910
1188.754, 0.3763190
1189.236, 0.3902780
1189.718, 0.2283150
1190.200, 0.1917580
1190.682, 0.4312430
1191.165, 0.6745140
1191.647, 0.6151690
1192.129, 0.4172820
1192.611, 0.2219210
1193.093, 4.2704001E-02
1193.575, 1.1510000E-03
1194.057, 0.1212330
1194.539, 0.1969700
1195.021, 0.1218360
1195.504, 2.0199001E-02
1195.986, 2.3464000E-02
1196.468, 8.8491000E-02
1196.950, 0.1735480
1197.432, 0.2847660
1197.914, 0.3262000
1198.396, 0.2877650
1198.878, 0.2533120
1199.360, 0.3078980
1199.843, 0.3200650
1200.325, 5.9843000E-02
1200.807, 0.4984840
1201.289, 0.4325230
1201.771, 0.4016980
1202.253, 0.6753450
1202.735, 0.2884060
1203.217, 2.2690000E-03
1203.700, 0.3678630
1204.182, 0.8813350
1204.664, 0.9472800
1205.146, 0.7491460
1205.628, 0.5662140
1206.110, 0.4002800
1206.592, 0.3889610
1207.074, 0.5650060
1207.557, 0.6820140
1208.039, 0.5255140
1208.521, 0.2832030
1209.003, 8.9589000E-02
1209.485, 1.9138999E-02
1209.967, 5.3971998E-02
1210.449, 0.4414010
1210.931, 0.5832730
1211.413, 0.4368550
1211.896, 0.3253860
1212.378, 0.5368790
1212.860, 0.8414110
1213.342, 1.022120
1213.824, 1.104307
1214.306, 1.145841
1214.788, 1.213617
1215.270, 1.003219
1215.752, 0.4671060
1216.235, 4.4787001E-02
1216.717, 0.1535710
1217.199, 0.4505810
1217.681, 0.7272610
1218.163, 0.8966930
1218.645, 0.7155710
1219.127, 1.0659000E-02
1219.609, 0.2586150
1220.092, 5.3567000E-02
1220.574, 0.4649920
1221.056, 0.7374230
1221.538, 0.8288360
1222.020, 0.4964850
1222.502, 2.7270000E-03
1222.984, 2.3734000E-02
1223.466, 0.5741000
1223.948, 0.9187770
1224.431, 0.9564570
1224.913, 0.8922030
1225.395, 0.8058310
1225.877, 0.7653010
1226.359, 0.9568340
1226.841, 1.199956
1227.323, 1.031673
1227.805, 0.3520910
1228.287, 6.8715997E-02
1228.770, 0.1773430
1229.252, 7.7749998E-03
1229.734, 0.7683090
1230.216, 1.465582
1230.698, 1.476460
1231.180, 1.043063
1231.662, 0.7292390
1232.144, 0.5305340
1232.627, 0.5115940
1233.109, 0.6815190
1233.591, 0.9007840
1234.073, 1.208600
1234.555, 1.386193
1235.037, 1.127872
1235.519, 0.7052970
1236.001, 0.6733830
1236.484, 1.032276
1236.966, 1.174108
1237.448, 1.046644
1237.930, 0.8718440
1238.412, 0.7123290
1238.894, 0.6455320
1239.376, 0.8295720
1239.858, 1.072635
1240.340, 1.008067
1240.823, 0.6757300
1241.305, 0.5477650
1241.787, 0.6664340
1242.269, 0.7893440
1242.751, 0.7751990
1243.233, 0.7347440
1243.715, 0.6945030
1244.197, 0.6731470
1244.679, 0.6988650
1245.162, 0.7835470
1245.644, 0.8802590
1246.126, 0.9775830
1246.608, 0.9939220
1247.090, 0.7991880
1247.572, 0.6408230
1248.054, 0.6157660
1248.536, 0.6203360
1249.019, 0.4294320
1249.501, 0.1685940
1249.983, 0.4282980
1250.465, 1.200514
1250.947, 1.694168
1251.429, 1.322236
1251.911, 0.9452570
1252.393, 0.6696060
1252.875, 0.5859700
1253.358, 0.5521760
1253.840, 0.5667930
1254.322, 0.5906820
1254.804, 0.6167350
1255.286, 0.6205480
1255.768, 0.6236180
1256.250, 0.5238140
1256.732, 0.2437330
1257.214, 3.1048000E-02
1257.697, 0.2313080
1258.179, 0.6220830
1258.661, 0.8458640
1259.143, 0.9024900
1259.625, 0.9633220
1260.107, 1.092912
1260.589, 1.091127
1261.071, 0.8861860
1261.554, 0.6253810
1262.036, 0.5673250
1262.518, 0.6317290
1263.000, 0.8322940
1263.482, 1.101539
1263.964, 1.073571
1264.446, 0.5474170
1264.928, 0.6262230
1265.411, 1.541381
1265.893, 2.291051
1266.375, 1.735286
1266.857, 0.9198640
1267.339, 0.6714640
1267.821, 0.8236100
1268.303, 0.7141800
1268.785, 0.3074650
1269.267, 0.1439500
1269.750, 0.2888220
1270.232, 0.4440610
1270.714, 0.3971250
1271.196, 0.2783490
1271.678, 6.3598998E-02
1272.160, 0.1114520
1272.642, 4.9263999E-02
1273.124, 0.5099900
1273.606, 0.7521310
1274.089, 0.7393590
1274.571, 0.6103890
1275.053, 0.2973590
1275.535, 6.8331003E-02
1276.017, 5.5910000E-03
1276.499, 7.6531999E-02
1276.981, 0.3673990
1277.463, 0.7677680
1277.946, 0.8196090
1278.428, 0.5409030
1278.910, 0.2784200
1279.392, 0.2000090
1279.874, 0.1247450
1280.356, 4.3058001E-02
1280.838, 0.1134800
1281.320, 0.2322980
1281.802, 0.7451580
1282.285, 0.8744730
1282.767, 0.6823850
1283.249, 0.5341710
1283.731, 0.5952840
1284.213, 0.5436000
1284.695, 0.3192410
1285.177, 0.1179440
1285.659, 0.1111880
1286.141, 0.2327150
1286.624, 0.4603460
1287.106, 0.7469860
1287.588, 0.9446370
1288.070, 1.041249
1288.552, 0.9723600
1289.034, 0.6697820
1289.516, 0.4200170
1289.998, 0.4865060
1290.481, 0.6772590
1290.963, 0.8655990
1291.445, 1.010797
1291.927, 1.052507
1292.409, 0.9899180
1292.891, 0.8764960
1293.373, 0.6752700
1293.855, 0.5149360
1294.338, 0.5123510
1294.820, 0.5113270
1295.302, 0.4290900
1295.784, 0.3356180
1296.266, 0.2960110
1296.748, 0.3046020
1297.230, 0.3592380
1297.712, 0.4357020
1298.194, 0.4294450
1298.677, 6.1476000E-02
1299.159, 3.8561001E-02
1299.641, 0.3416200
1300.123, 0.7399380
1300.605, 0.7702330
1301.087, 0.5672660
1301.569, 0.3713110
1302.051, 0.3483200
1302.533, 0.2257620
1303.016, 0.0000000E+00
##END=



