##NAMES=Frolovite
##RRUFFID=R070469
##IDEAL CHEMISTRY=Ca[B(OH)_4_]_2_
##LOCALITY=Solongo B deposit, Vitim Plateau, Buriatia (Buryatia) Republic, Transbaikalia (Zabaykalye), Eastern-Siberian Region, Russia
##OWNER=RRUFF
##SOURCE=Michael Scott
##DESCRIPTION=Vitreous colorless vein, associated with calcite and yellow roweite, R130073
##STATUS=The identification of this mineral has been confirmed by single-crystal X-ray diffraction.
##URL=rruff.info/R070469
142.2423, 0.0000000E+00
142.7244, 8.131653
143.2065, 7.790283
143.6887, 1.775391
144.1708, 2.635498
144.6529, 4.156677
145.1350, 0.9966430
145.6171, 8.488586
146.0992, 23.61224
146.5814, 41.48932
147.0635, 59.83405
147.5456, 78.55383
148.0277, 99.76044
148.5098, 124.0786
148.9919, 150.0607
149.4741, 177.5884
149.9562, 206.6348
150.4383, 235.0449
150.9204, 262.1624
151.4025, 287.1907
151.8846, 307.5292
152.3668, 319.5511
152.8489, 328.7965
153.3310, 340.7781
153.8131, 355.9082
154.2952, 370.4641
154.7773, 380.2612
155.2595, 386.7383
155.7416, 395.9862
156.2237, 410.8581
156.7058, 428.0009
157.1879, 443.9722
157.6700, 458.5963
158.1522, 471.8900
158.6343, 484.2667
159.1164, 495.2699
159.5985, 503.0865
160.0806, 510.2018
160.5627, 512.7404
161.0449, 503.1033
161.5270, 478.7348
162.0091, 451.2397
162.4912, 429.6787
162.9733, 411.0314
163.4554, 389.0266
163.9376, 356.5861
164.4197, 320.9397
164.9018, 296.3693
165.3839, 285.6772
165.8660, 278.4702
166.3481, 266.6797
166.8303, 253.8380
167.3124, 246.4680
167.7945, 248.7756
168.2766, 257.7070
168.7587, 265.9884
169.2408, 271.5347
169.7230, 281.5746
170.2051, 301.5746
170.6872, 327.8663
171.1693, 355.1267
171.6514, 380.9082
172.1335, 406.0427
172.6157, 433.4135
173.0978, 465.8235
173.5799, 494.6523
174.0620, 514.6382
174.5441, 529.5956
175.0262, 544.1957
175.5084, 559.6351
175.9905, 576.9108
176.4726, 600.6179
176.9547, 637.4177
177.4368, 667.9857
177.9189, 678.3234
178.4010, 680.4158
178.8832, 692.0186
179.3653, 725.8790
179.8474, 771.2422
180.3295, 796.5300
180.8116, 795.7324
181.2937, 783.4442
181.7759, 762.5034
182.2580, 735.6670
182.7401, 706.4197
183.2222, 676.5203
183.7043, 645.1212
184.1864, 608.6089
184.6686, 561.1171
185.1507, 519.5041
185.6328, 491.1707
186.1149, 469.2693
186.5970, 444.7360
187.0791, 412.4189
187.5613, 377.8362
188.0434, 355.8794
188.5255, 354.5458
189.0076, 353.0551
189.4897, 346.5510
189.9718, 337.7689
190.4540, 329.5056
190.9361, 323.1033
191.4182, 317.6245
191.9003, 309.6908
192.3824, 292.3833
192.8645, 285.8264
193.3467, 302.4874
193.8288, 325.3292
194.3109, 336.3431
194.7930, 328.2134
195.2751, 310.9180
195.7572, 305.4547
196.2394, 313.9048
196.7215, 331.7751
197.2036, 363.7781
197.6857, 400.2140
198.1678, 432.3200
198.6499, 457.2849
199.1321, 478.9073
199.6142, 504.3392
200.0963, 533.5636
200.5784, 562.6036
201.0605, 593.2487
201.5426, 622.3418
202.0248, 647.7883
202.5069, 668.9631
202.9890, 685.3043
203.4711, 695.8835
203.9532, 700.3907
204.4353, 699.0445
204.9175, 694.3929
205.3996, 683.6433
205.8817, 661.6383
206.3638, 628.5886
206.8459, 592.7317
207.3280, 565.5013
207.8102, 550.5019
208.2923, 535.4535
208.7744, 519.8852
209.2565, 503.8790
209.7386, 486.1124
210.2207, 467.5450
210.7029, 451.7988
211.1850, 444.4270
211.6671, 449.5017
212.1492, 448.4982
212.6313, 432.3276
213.1134, 418.2904
213.5956, 417.0311
214.0777, 426.9445
214.5598, 437.8889
215.0419, 438.9722
215.5240, 428.0132
216.0061, 421.6699
216.4883, 423.9552
216.9704, 427.1180
217.4525, 428.0450
217.9346, 427.2286
218.4167, 426.6381
218.8988, 427.3076
219.3810, 429.1112
219.8631, 436.8199
220.3452, 454.9459
220.8273, 475.0003
221.3094, 496.5623
221.7915, 518.3290
222.2737, 538.1388
222.7558, 553.9218
223.2379, 566.3834
223.7200, 581.8475
224.2021, 599.8798
224.6842, 622.0416
225.1664, 653.4412
225.6485, 688.2748
226.1306, 717.9427
226.6127, 737.0614
227.0948, 748.0347
227.5770, 760.6717
228.0591, 773.6821
228.5412, 790.6848
229.0233, 814.0841
229.5054, 840.7744
229.9875, 868.9982
230.4697, 898.2448
230.9518, 924.9173
231.4339, 938.3450
231.9160, 923.3269
232.3981, 921.6102
232.8802, 943.5348
233.3624, 976.0515
233.8445, 1008.895
234.3266, 1038.496
234.8087, 1066.783
235.2908, 1095.805
235.7729, 1122.410
236.2551, 1158.043
236.7372, 1209.315
237.2193, 1265.017
237.7014, 1319.057
238.1835, 1369.962
238.6656, 1419.028
239.1478, 1469.229
239.6299, 1523.120
240.1120, 1567.302
240.5941, 1601.123
241.0762, 1625.522
241.5583, 1643.186
242.0405, 1652.612
242.5226, 1648.104
243.0047, 1622.827
243.4868, 1575.437
243.9689, 1519.560
244.4510, 1450.980
244.9332, 1376.548
245.4153, 1298.098
245.8974, 1215.742
246.3795, 1129.226
246.8616, 1034.325
247.3437, 932.7101
247.8259, 847.7881
248.3080, 791.0558
248.7901, 736.3872
249.2722, 671.8549
249.7543, 603.3463
250.2364, 541.1168
250.7186, 490.4044
251.2007, 448.3505
251.6828, 407.4340
252.1649, 367.1179
252.6470, 329.0199
253.1291, 293.5513
253.6113, 260.6293
254.0934, 230.1028
254.5755, 201.5919
255.0576, 175.5577
255.5397, 154.3126
256.0219, 139.9510
256.5040, 123.9079
256.9861, 99.98370
257.4682, 75.18872
257.9503, 54.18146
258.4324, 38.27722
258.9146, 26.94043
259.3967, 19.86023
259.8788, 16.38834
260.3609, 12.46643
260.8430, 8.297394
261.3251, 3.592865
261.8073, 2.895081
262.2894, 10.94333
262.7715, 17.34769
263.2536, 17.81323
263.7357, 13.89709
264.2178, 15.48776
264.7000, 28.11581
265.1821, 39.48746
265.6642, 38.96967
266.1463, 29.48898
266.6284, 20.83591
267.1105, 18.89142
267.5927, 20.84131
268.0748, 20.09979
268.5569, 15.45865
269.0390, 11.72440
269.5211, 14.81152
270.0032, 20.59418
270.4854, 21.78772
270.9675, 13.16360
271.4496, 2.326569
271.9317, 1.296509
272.4138, 2.490753
272.8959, 5.103485
273.3781, 1.972565
273.8602, 4.936707
274.3423, 11.83371
274.8244, 19.36771
275.3065, 25.86209
275.7886, 28.32150
276.2708, 27.80530
276.7529, 30.35150
277.2350, 39.20303
277.7171, 50.95593
278.1992, 60.42834
278.6813, 68.03757
279.1635, 73.02161
279.6456, 73.12851
280.1277, 70.71707
280.6098, 69.80753
281.0919, 71.28616
281.5740, 74.27725
282.0562, 78.80643
282.5383, 85.30438
283.0204, 88.14386
283.5025, 82.18253
283.9846, 75.07550
284.4667, 75.20096
284.9489, 82.68872
285.4310, 89.74930
285.9131, 89.89590
286.3952, 83.02194
286.8773, 76.45779
287.3594, 71.96387
287.8416, 66.10007
288.3237, 55.10474
288.8058, 41.13107
289.2879, 30.38834
289.7700, 26.71124
290.2521, 28.16168
290.7343, 26.71460
291.2164, 18.66043
291.6985, 12.48364
292.1806, 10.22556
292.6627, 10.25818
293.1448, 11.08090
293.6270, 12.11289
294.1091, 12.56247
294.5912, 10.94974
295.0733, 5.720093
295.5554, 1.247650
296.0375, 3.425446
296.5197, 6.708191
297.0018, 6.346130
297.4839, 2.780823
297.9660, 0.7427980
298.4481, 0.6937560
298.9302, 3.576660
299.4124, 6.990387
299.8945, 10.24902
300.3766, 11.99857
300.8587, 10.62299
301.3408, 7.370392
301.8229, 4.732452
302.3050, 4.349915
302.7871, 5.898987
303.2693, 7.904236
303.7514, 11.86243
304.2335, 13.92102
304.7156, 12.32996
305.1977, 9.086456
305.6798, 6.027374
306.1620, 3.798004
306.6441, 2.600800
307.1262, 3.451935
307.6083, 7.522339
308.0904, 9.230011
308.5725, 5.776581
309.0547, 0.8447570
309.5368, 4.511383
310.0189, 9.818787
310.5010, 13.17416
310.9831, 11.36520
311.4652, 5.085052
311.9474, 2.536194
312.4295, 7.118347
312.9116, 11.39993
313.3937, 9.511658
313.8758, 3.629028
314.3579, 0.4844970
314.8401, 1.760956
315.3222, 6.482574
315.8043, 5.343994
316.2864, 3.169556
316.7685, 8.481018
317.2506, 1.115295
317.7328, 11.89941
318.2149, 18.68060
318.6970, 15.62491
319.1791, 10.02112
319.6612, 6.409332
320.1433, 4.463226
320.6255, 3.220337
321.1076, 2.580627
321.5897, 2.780609
322.0718, 4.259735
322.5539, 6.976868
323.0360, 8.033600
323.5182, 5.865784
324.0003, 3.059479
324.4824, 2.198303
324.9645, 3.456970
325.4466, 6.357635
325.9287, 11.65750
326.4109, 19.87842
326.8930, 22.86212
327.3751, 14.87585
327.8572, 6.574371
328.3393, 4.376190
328.8214, 7.582916
329.3036, 12.01517
329.7857, 15.01154
330.2678, 16.94809
330.7499, 19.89255
331.2320, 30.06970
331.7141, 33.78305
332.1963, 22.83676
332.6784, 7.760345
333.1605, 0.1842650
333.6426, 3.514648
334.1247, 12.47968
334.6068, 19.88168
335.0890, 26.63052
335.5711, 28.95462
336.0532, 22.58344
336.5353, 16.10312
337.0174, 13.39606
337.4995, 14.54056
337.9817, 18.27982
338.4638, 24.53140
338.9459, 32.62607
339.4280, 36.17123
339.9101, 31.38574
340.3922, 27.50296
340.8744, 28.59567
341.3565, 31.55466
341.8386, 31.78003
342.3207, 26.99506
342.8028, 21.56998
343.2849, 22.98318
343.7671, 32.42834
344.2492, 40.24194
344.7313, 43.15720
345.2134, 44.34314
345.6955, 46.28952
346.1776, 49.11835
346.6598, 51.79282
347.1419, 53.93896
347.6240, 55.43063
348.1061, 55.46725
348.5882, 53.31015
349.0703, 51.73666
349.5525, 52.50452
350.0346, 55.55658
350.5167, 61.17004
350.9988, 73.10040
351.4809, 84.71802
351.9630, 90.86221
352.4452, 91.95416
352.9273, 89.66492
353.4094, 83.39224
353.8915, 75.41492
354.3736, 72.24356
354.8557, 74.52496
355.3379, 79.63181
355.8200, 92.58850
356.3021, 105.2896
356.7842, 105.7003
357.2663, 92.03723
357.7484, 74.91055
358.2306, 66.13501
358.7127, 67.31592
359.1948, 70.02081
359.6769, 77.20676
360.1590, 82.57999
360.6411, 80.87582
361.1233, 75.13022
361.6054, 72.24106
362.0875, 76.73956
362.5696, 86.56433
363.0517, 93.49741
363.5338, 96.08499
364.0160, 97.78427
364.4981, 98.14282
364.9802, 98.22751
365.4623, 98.85788
365.9444, 100.3715
366.4265, 102.5540
366.9087, 103.9776
367.3908, 104.3579
367.8729, 109.5508
368.3550, 124.7105
368.8371, 138.4349
369.3192, 143.1664
369.8014, 142.1380
370.2835, 143.3111
370.7656, 151.0561
371.2477, 162.0420
371.7298, 170.5998
372.2119, 176.4231
372.6941, 183.3055
373.1762, 194.1722
373.6583, 205.7776
374.1404, 212.3796
374.6225, 212.0063
375.1046, 214.6796
375.5868, 228.8362
376.0689, 248.5092
376.5510, 260.2525
377.0331, 260.1927
377.5152, 260.9526
377.9973, 277.8926
378.4795, 313.2607
378.9616, 337.0114
379.4437, 337.5801
379.9258, 336.5980
380.4079, 346.9383
380.8900, 366.3788
381.3722, 386.5559
381.8543, 402.8270
382.3364, 417.2393
382.8185, 436.3998
383.3006, 468.6772
383.7827, 494.5724
384.2649, 508.1747
384.7470, 518.7421
385.2291, 533.6698
385.7112, 554.0870
386.1933, 577.0054
386.6754, 600.1507
387.1576, 623.6438
387.6397, 642.9017
388.1218, 650.8736
388.6039, 663.0148
389.0860, 686.0194
389.5681, 715.8732
390.0503, 746.5381
390.5324, 776.2962
391.0145, 803.6735
391.4966, 825.3158
391.9787, 840.2347
392.4608, 859.3221
392.9430, 888.7899
393.4251, 920.3412
393.9072, 945.9034
394.3893, 965.4650
394.8714, 983.3602
395.3535, 1002.576
395.8357, 1021.281
396.3178, 1037.857
396.7999, 1052.578
397.2820, 1060.537
397.7641, 1056.408
398.2462, 1041.434
398.7284, 1026.971
399.2105, 1011.136
399.6926, 998.6746
400.1747, 996.9623
400.6568, 998.4564
401.1389, 989.0062
401.6211, 963.8372
402.1032, 932.5345
402.5853, 908.9449
403.0674, 895.9897
403.5495, 881.7714
404.0316, 866.3325
404.5138, 849.8064
404.9959, 830.3762
405.4780, 810.1522
405.9601, 793.7928
406.4422, 784.2920
406.9243, 779.6189
407.4065, 772.5806
407.8886, 760.7099
408.3707, 751.7184
408.8528, 750.8276
409.3349, 750.5670
409.8170, 743.7079
410.2992, 729.5911
410.7813, 715.6748
411.2634, 707.9323
411.7455, 705.7802
412.2276, 707.5039
412.7097, 715.0904
413.1919, 721.4943
413.6740, 720.4511
414.1561, 714.8101
414.6382, 709.7393
415.1203, 705.2807
415.6024, 702.7426
416.0846, 704.1995
416.5667, 708.4891
417.0488, 712.4692
417.5309, 715.4238
418.0130, 716.1412
418.4951, 711.0625
418.9773, 695.0977
419.4594, 692.0621
419.9415, 714.9612
420.4236, 741.0719
420.9057, 755.8833
421.3878, 760.1617
421.8700, 760.9357
422.3521, 762.5894
422.8342, 764.6725
423.3163, 765.0831
423.7984, 761.3918
424.2805, 759.8907
424.7627, 761.8608
425.2448, 765.6186
425.7269, 771.4697
426.2090, 778.6072
426.6911, 782.9301
427.1732, 778.4855
427.6554, 766.2845
428.1375, 759.3728
428.6196, 760.6940
429.1017, 761.6729
429.5838, 758.4858
430.0659, 752.0086
430.5481, 743.6097
431.0302, 734.7259
431.5123, 721.5647
431.9944, 695.7422
432.4765, 662.1319
432.9586, 640.3352
433.4408, 637.9420
433.9229, 639.7097
434.4050, 626.7432
434.8871, 597.2567
435.3692, 571.8582
435.8513, 555.3482
436.3335, 539.9277
436.8156, 521.9562
437.2977, 501.1072
437.7798, 476.4069
438.2619, 447.0351
438.7440, 415.7361
439.2262, 389.9297
439.7083, 374.2553
440.1904, 355.9848
440.6725, 332.3272
441.1546, 308.2266
441.6367, 286.9869
442.1189, 268.4164
442.6010, 250.0433
443.0831, 229.7700
443.5652, 208.4578
444.0473, 189.8429
444.5294, 175.0762
445.0116, 159.7310
445.4937, 139.2497
445.9758, 118.7542
446.4579, 104.0560
446.9400, 96.56342
447.4221, 89.75110
447.9043, 79.28333
448.3864, 66.73419
448.8685, 55.30249
449.3506, 45.36462
449.8327, 36.44263
450.3148, 27.90417
450.7970, 19.98834
451.2791, 14.36792
451.7612, 12.68585
452.2433, 11.19714
452.7254, 9.489258
453.2076, 6.954407
453.6897, 1.711182
454.1718, 6.446045
454.6539, 13.81543
455.1360, 14.91803
455.6181, 7.940063
456.1003, 4.983765
456.5824, 9.533997
457.0645, 14.75958
457.5466, 19.34634
458.0287, 23.09482
458.5108, 26.19635
458.9930, 28.91733
459.4751, 30.11429
459.9572, 27.35904
460.4393, 20.59103
460.9214, 14.54053
461.4035, 9.348877
461.8857, 6.227234
462.3678, 8.148682
462.8499, 13.78491
463.3320, 15.75317
463.8141, 8.133789
464.2962, 0.9144290
464.7784, 3.194031
465.2605, 0.2677610
465.7426, 1.392700
466.2247, 0.9190060
466.7068, 6.344543
467.1889, 13.47467
467.6711, 24.85083
468.1532, 32.35944
468.6353, 31.68103
469.1174, 30.96368
469.5995, 36.81641
470.0816, 47.22876
470.5638, 55.44586
471.0459, 57.13068
471.5280, 54.07465
472.0101, 50.73761
472.4922, 45.50006
472.9743, 44.49377
473.4565, 54.36707
473.9386, 65.11035
474.4207, 70.09882
474.9028, 69.26880
475.3849, 67.03717
475.8670, 65.77032
476.3492, 64.77637
476.8313, 62.92188
477.3134, 60.17969
477.7955, 56.62439
478.2776, 51.87256
478.7597, 46.68054
479.2419, 42.61853
479.7240, 38.79956
480.2061, 37.94501
480.6882, 45.01685
481.1703, 52.29608
481.6524, 51.37756
482.1346, 42.86407
482.6167, 34.13794
483.0988, 30.81531
483.5809, 31.75446
484.0630, 30.29047
484.5451, 23.05444
485.0273, 19.05939
485.5094, 21.79980
485.9915, 26.29865
486.4736, 28.17456
486.9557, 27.23547
487.4378, 26.96600
487.9200, 31.78467
488.4021, 39.29248
488.8842, 40.69318
489.3663, 34.37396
489.8484, 31.13721
490.3305, 38.32104
490.8127, 51.14587
491.2948, 58.59814
491.7769, 57.46521
492.2590, 60.30737
492.7411, 75.56378
493.2232, 94.60571
493.7054, 107.5262
494.1875, 113.5687
494.6696, 117.2139
495.1517, 121.1473
495.6338, 126.0724
496.1159, 136.8685
496.5981, 158.4983
497.0802, 179.2131
497.5623, 196.9948
498.0444, 214.1131
498.5265, 232.7229
499.0086, 252.8475
499.4908, 272.5585
499.9729, 290.5452
500.4550, 306.8699
500.9371, 320.7398
501.4192, 331.2130
501.9013, 343.4120
502.3835, 360.9324
502.8656, 380.7870
503.3477, 397.6326
503.8298, 410.2129
504.3119, 424.4818
504.7940, 443.3211
505.2762, 464.6008
505.7583, 485.6375
506.2404, 506.3735
506.7225, 527.7851
507.2046, 550.5068
507.6867, 574.6963
508.1689, 600.8007
508.6510, 631.0368
509.1331, 660.1742
509.6152, 691.0752
510.0973, 718.4681
510.5794, 737.1617
511.0616, 747.9822
511.5437, 756.2778
512.0258, 764.7601
512.5079, 773.6951
512.9901, 785.1292
513.4722, 799.9530
513.9543, 814.2137
514.4364, 828.3268
514.9185, 838.9299
515.4006, 840.9404
515.8828, 833.6905
516.3649, 827.4935
516.8470, 830.3248
517.3291, 832.1031
517.8112, 820.5105
518.2933, 799.1090
518.7755, 781.0448
519.2576, 773.1380
519.7397, 772.1973
520.2218, 770.8171
520.7039, 767.7351
521.1860, 766.6691
521.6682, 767.7162
522.1503, 770.8955
522.6324, 777.1158
523.1145, 785.3107
523.5966, 793.3317
524.0787, 800.8739
524.5609, 806.2398
525.0430, 806.5106
525.5251, 801.7017
526.0072, 793.4577
526.4893, 779.5171
526.9714, 766.8297
527.4536, 763.1085
527.9357, 767.2586
528.4178, 773.4359
528.8999, 781.0523
529.3820, 790.2601
529.8641, 801.6199
530.3463, 814.8578
530.8284, 829.0380
531.3105, 843.8511
531.7926, 858.9281
532.2747, 873.5784
532.7568, 888.0122
533.2390, 900.8243
533.7211, 904.7674
534.2032, 915.8413
534.6853, 943.1481
535.1674, 978.6597
535.6495, 1012.241
536.1317, 1041.272
536.6138, 1067.005
537.0959, 1089.110
537.5780, 1108.798
538.0601, 1128.490
538.5422, 1147.643
539.0244, 1172.617
539.5065, 1210.085
539.9886, 1256.869
540.4707, 1296.258
540.9528, 1327.129
541.4349, 1353.608
541.9171, 1378.521
542.3992, 1398.134
542.8813, 1408.766
543.3634, 1410.261
543.8455, 1404.760
544.3276, 1393.715
544.8098, 1377.331
545.2919, 1357.436
545.7740, 1336.835
546.2561, 1305.051
546.7382, 1252.714
547.2203, 1192.892
547.7024, 1134.169
548.1845, 1077.061
548.6666, 1019.776
549.1487, 961.4531
549.6309, 903.1342
550.1130, 845.6086
550.5951, 789.1199
551.0772, 735.0519
551.5593, 683.0539
552.0414, 635.5837
552.5236, 596.7682
553.0057, 568.9289
553.4878, 541.7353
553.9699, 517.0961
554.4520, 490.8459
554.9341, 457.7105
555.4163, 422.9540
555.8984, 396.3825
556.3805, 381.7278
556.8626, 368.5311
557.3447, 339.8664
557.8268, 298.9161
558.3090, 274.2611
558.7911, 273.5692
559.2732, 273.1535
559.7553, 257.1723
560.2374, 229.3059
560.7195, 202.8555
561.2017, 177.0801
561.6838, 154.0681
562.1659, 135.5850
562.6480, 119.5295
563.1301, 103.5964
563.6122, 87.62201
564.0944, 72.64148
564.5765, 59.31082
565.0586, 47.38345
565.5407, 35.25272
566.0228, 21.31308
566.5049, 11.29398
566.9871, 9.319702
567.4692, 9.193268
567.9513, 6.925629
568.4334, 2.780609
568.9155, 0.4758300
569.3976, 1.621063
569.8798, 1.139618
570.3619, 1.614777
570.8440, 5.748962
571.3261, 7.501190
571.8082, 5.358917
572.2903, 2.719086
572.7725, 4.411499
573.2546, 11.54614
573.7367, 15.08499
574.2188, 13.01694
574.7009, 8.437683
575.1830, 0.7340090
575.6652, 9.469757
576.1473, 11.30484
576.6294, 5.679810
577.1115, 0.4756470
577.5936, 0.5343930
578.0757, 3.310181
578.5579, 4.436584
579.0400, 2.676331
579.5221, 2.793732
580.0042, 14.94141
580.4863, 28.37057
580.9684, 31.67828
581.4506, 22.60388
581.9327, 14.93158
582.4148, 12.33588
582.8969, 10.69296
583.3790, 5.967255
583.8611, 0.4805910
584.3433, 4.177032
584.8254, 2.744995
585.3075, 1.539185
585.7896, 4.825500
586.2717, 6.397339
586.7538, 5.137421
587.2360, 1.389923
587.7181, 5.577271
588.2002, 2.717072
588.6823, 4.459595
589.1644, 12.96527
589.6465, 24.34149
590.1287, 31.05017
590.6108, 25.61343
591.0929, 15.80676
591.5750, 12.22159
592.0571, 15.35312
592.5392, 18.58835
593.0214, 16.94547
593.5035, 12.61102
593.9856, 13.66422
594.4677, 23.70477
594.9498, 31.02234
595.4319, 31.94907
595.9141, 32.36142
596.3962, 35.62909
596.8783, 40.58096
597.3604, 44.31110
597.8425, 46.31802
598.3246, 46.53113
598.8068, 41.64777
599.2889, 34.89435
599.7710, 35.72922
600.2531, 45.52167
600.7352, 56.14725
601.2173, 61.38077
601.6995, 62.43280
602.1816, 64.97745
602.6637, 69.82935
603.1458, 73.32770
603.6279, 76.31415
604.1100, 77.51212
604.5922, 74.78439
605.0743, 69.11188
605.5564, 64.27490
606.0385, 62.29886
606.5206, 62.48776
607.0027, 64.36197
607.4849, 67.70209
607.9670, 70.86380
608.4491, 73.58786
608.9312, 75.50516
609.4133, 76.17154
609.8954, 75.58551
610.3776, 74.70779
610.8597, 72.38193
611.3418, 71.00012
611.8239, 71.24451
612.3060, 72.60187
612.7881, 76.55252
613.2703, 81.85559
613.7524, 82.48782
614.2345, 71.42065
614.7166, 54.51236
615.1987, 46.38968
615.6808, 47.33163
616.1630, 51.51907
616.6451, 59.20032
617.1272, 66.11826
617.6093, 67.09299
618.0914, 61.97293
618.5735, 56.37857
619.0557, 46.55045
619.5378, 40.86838
620.0199, 47.37091
620.5020, 57.46729
620.9841, 59.53644
621.4662, 52.04803
621.9484, 43.03448
622.4305, 39.93115
622.9126, 40.98318
623.3947, 39.21457
623.8768, 34.15094
624.3589, 28.72885
624.8411, 22.25769
625.3232, 17.58722
625.8053, 20.14752
626.2874, 29.43997
626.7695, 34.60867
627.2516, 32.36697
627.7338, 27.61859
628.2159, 20.28149
628.6980, 12.99313
629.1801, 10.72668
629.6622, 13.90033
630.1443, 16.53354
630.6265, 11.44281
631.1086, 0.9898990
631.5907, 5.3070001E-02
632.0728, 11.78290
632.5549, 19.14789
633.0370, 13.36218
633.5192, 3.811493
634.0013, 2.475464
634.4834, 9.214722
634.9655, 13.96747
635.4476, 13.97192
635.9297, 11.71686
636.4119, 6.997284
636.8940, 1.823395
637.3761, 0.9936830
637.8582, 0.9279170
638.3403, 0.9462890
638.8224, 4.241486
639.3046, 8.299652
639.7867, 8.211121
640.2688, 2.140381
640.7509, 1.357239
641.2330, 2.533447
641.7151, 7.645294
642.1973, 5.880066
642.6794, 1.663727
643.1615, 4.090302
643.6436, 8.837372
644.1257, 18.47906
644.6078, 10.92944
645.0900, 5.230499
645.5721, 17.74783
646.0542, 23.11230
646.5363, 23.40509
647.0184, 20.18024
647.5005, 14.32999
647.9827, 9.638062
648.4648, 5.791840
648.9469, 4.756195
649.4290, 9.272186
649.9111, 14.35828
650.3932, 14.72772
650.8754, 11.07693
651.3575, 8.247742
651.8396, 7.425232
652.3217, 7.048737
652.8038, 6.714447
653.2859, 6.258331
653.7681, 4.725220
654.2502, 2.475250
654.7323, 2.106110
655.2144, 6.124847
655.6965, 13.07056
656.1786, 18.70706
656.6608, 23.42929
657.1429, 23.77328
657.6250, 15.73383
658.1071, 7.855835
658.5892, 10.45041
659.0714, 20.56619
659.5535, 24.76825
660.0356, 17.44617
660.5177, 9.542419
660.9998, 4.211853
661.4819, 0.4762880
661.9641, 2.315338
662.4462, 4.523621
662.9283, 7.024414
663.4104, 10.66302
663.8925, 14.17941
664.3746, 14.05960
664.8568, 10.12595
665.3389, 9.051971
665.8210, 13.65344
666.3031, 16.82297
666.7852, 11.22388
667.2673, 0.2349240
667.7495, 4.847260
668.2316, 0.5677190
668.7137, 7.548676
669.1958, 16.03781
669.6779, 24.20535
670.1600, 30.42560
670.6422, 35.12546
671.1243, 39.93356
671.6064, 45.78052
672.0885, 51.39890
672.5706, 55.44714
673.0527, 57.83884
673.5349, 57.12537
674.0170, 52.46628
674.4991, 48.69470
674.9812, 47.99515
675.4633, 50.66104
675.9454, 58.03745
676.4276, 75.03006
676.9097, 85.99530
677.3918, 87.30246
677.8739, 85.80139
678.3560, 82.17407
678.8381, 79.13007
679.3203, 80.94116
679.8024, 88.95270
680.2845, 98.99594
680.7666, 107.1962
681.2487, 114.4367
681.7308, 123.8982
682.2130, 135.3380
682.6951, 142.6013
683.1772, 142.1630
683.6593, 139.4023
684.1414, 143.0508
684.6235, 154.9748
685.1057, 162.6380
685.5878, 160.9926
686.0699, 161.1078
686.5520, 164.9684
687.0341, 172.3130
687.5162, 184.4153
687.9984, 200.7081
688.4805, 215.1445
688.9626, 227.5468
689.4447, 233.8741
689.9268, 223.6210
690.4089, 203.3126
690.8911, 193.1627
691.3732, 198.4802
691.8553, 211.7264
692.3374, 226.6890
692.8195, 242.3526
693.3016, 250.2364
693.7838, 246.4760
694.2659, 243.2316
694.7480, 243.9432
695.2301, 244.6552
695.7122, 243.1620
696.1943, 239.6723
696.6765, 234.6331
697.1586, 225.0443
697.6407, 218.3721
698.1228, 220.5233
698.6049, 226.5061
699.0870, 231.6990
699.5692, 234.9028
700.0513, 234.9558
700.5334, 230.7358
701.0155, 224.2612
701.4976, 218.7546
701.9797, 213.4324
702.4619, 215.2142
702.9440, 227.7286
703.4261, 237.2766
703.9082, 234.6744
704.3903, 224.9345
704.8724, 219.4327
705.3546, 218.7114
705.8367, 220.8390
706.3188, 227.2033
706.8009, 234.4528
707.2830, 241.2958
707.7651, 247.0167
708.2473, 249.9981
708.7294, 250.2125
709.2115, 252.0673
709.6936, 261.9399
710.1757, 275.9657
710.6578, 283.8348
711.1400, 285.7469
711.6221, 287.4002
712.1042, 290.7619
712.5863, 294.6821
713.0684, 297.0537
713.5505, 297.3954
714.0327, 302.5641
714.5148, 317.4319
714.9969, 330.8979
715.4790, 340.4458
715.9611, 349.4752
716.4432, 360.8109
716.9254, 373.2560
717.4075, 382.9233
717.8896, 386.5953
718.3717, 390.9113
718.8538, 398.3406
719.3359, 410.6257
719.8181, 434.8226
720.3002, 469.2163
720.7823, 498.8218
721.2644, 512.6422
721.7465, 518.5373
722.2286, 535.6272
722.7108, 565.2872
723.1929, 596.5323
723.6750, 627.5735
724.1571, 662.0877
724.6392, 700.3881
725.1213, 744.2190
725.6035, 798.5182
726.0856, 868.5363
726.5677, 930.1932
727.0498, 971.3713
727.5319, 1011.152
728.0140, 1059.162
728.4962, 1114.491
728.9783, 1172.927
729.4604, 1233.750
729.9425, 1302.824
730.4246, 1385.344
730.9067, 1479.540
731.3889, 1582.134
731.8710, 1692.964
732.3531, 1810.194
732.8352, 1933.745
733.3173, 2064.086
733.7994, 2202.405
734.2816, 2348.002
734.7637, 2497.837
735.2458, 2648.362
735.7279, 2810.719
736.2100, 2987.963
736.6921, 3175.943
737.1743, 3372.877
737.6564, 3579.549
738.1385, 3795.428
738.6206, 4017.170
739.1027, 4258.794
739.5848, 4536.389
740.0670, 4833.287
740.5491, 5131.255
741.0312, 5428.009
741.5133, 5724.676
741.9954, 6019.327
742.4775, 6321.521
742.9597, 6652.733
743.4418, 7009.457
743.9239, 7340.587
744.4060, 7635.411
744.8881, 7964.173
745.3702, 8366.999
745.8524, 8803.645
746.3345, 9215.796
746.8166, 9599.137
747.2987, 10011.16
747.7808, 10469.61
748.2629, 10936.29
748.7451, 11426.89
749.2272, 11906.29
749.7093, 12352.84
750.1914, 12760.68
750.6735, 13125.06
751.1556, 13460.35
751.6378, 13716.78
752.1199, 13851.23
752.6020, 13873.46
753.0841, 13805.57
753.5662, 13646.37
754.0483, 13359.90
754.5305, 12921.19
755.0126, 12383.01
755.4947, 11841.80
755.9768, 11299.98
756.4589, 10730.46
756.9410, 10120.22
757.4232, 9508.082
757.9053, 8889.662
758.3874, 8288.443
758.8695, 7736.279
759.3516, 7237.003
759.8337, 6754.417
760.3159, 6286.683
760.7980, 5833.167
761.2801, 5386.462
761.7622, 4958.901
762.2443, 4559.496
762.7264, 4190.840
763.2086, 3851.423
763.6907, 3542.102
764.1728, 3259.092
764.6549, 2996.631
765.1370, 2756.111
765.6191, 2541.313
766.1013, 2352.619
766.5834, 2181.366
767.0655, 2022.541
767.5476, 1877.638
768.0297, 1753.230
768.5118, 1654.649
768.9940, 1545.447
769.4761, 1417.272
769.9582, 1296.180
770.4403, 1192.472
770.9224, 1102.860
771.4045, 1022.693
771.8867, 952.3269
772.3688, 888.2276
772.8509, 831.9031
773.3330, 780.1937
773.8151, 733.0038
774.2972, 689.0784
774.7794, 647.3312
775.2615, 607.5928
775.7436, 570.2442
776.2257, 536.0747
776.7078, 503.1322
777.1899, 469.5275
777.6721, 435.4044
778.1542, 399.7284
778.6363, 363.1573
779.1184, 331.0746
779.6005, 307.0209
780.0826, 286.9203
780.5648, 261.1550
781.0469, 227.7061
781.5290, 208.6672
782.0111, 210.2807
782.4932, 209.7549
782.9753, 196.2925
783.4575, 178.0101
783.9396, 167.5803
784.4217, 165.7141
784.9038, 155.0737
785.3859, 123.4588
785.8680, 97.26971
786.3502, 86.72974
786.8323, 82.94879
787.3144, 78.13397
787.7965, 71.76166
788.2786, 66.70874
788.7607, 64.34167
789.2429, 63.48169
789.7250, 65.26019
790.2071, 66.04834
790.6892, 58.22528
791.1713, 45.11200
791.6534, 37.91016
792.1356, 40.13074
792.6177, 44.14777
793.0998, 39.61603
793.5819, 28.25262
794.0640, 25.33551
794.5461, 32.86334
795.0283, 35.50171
795.5104, 27.89508
795.9925, 15.91968
796.4746, 3.697021
796.9567, 8.262268
797.4388, 14.18085
797.9210, 7.269287
798.4031, 3.989929
798.8852, 8.631958
799.3673, 13.53491
799.8494, 13.34015
800.3315, 10.51276
800.8137, 10.88324
801.2958, 16.58710
801.7779, 19.62518
802.2600, 12.60278
802.7421, 4.140564
803.2242, 3.235718
803.7064, 6.437988
804.1885, 5.705627
804.6706, 0.3734740
805.1527, 5.470947
805.6348, 3.422913
806.1169, 1.988159
806.5991, 2.127686
807.0812, 2.234619
807.5633, 5.121582
808.0454, 5.435059
808.5275, 5.665649
809.0096, 7.376953
809.4918, 10.31653
809.9739, 14.09167
810.4560, 19.51215
810.9381, 22.55225
811.4202, 20.24695
811.9023, 20.41125
812.3845, 27.08746
812.8666, 37.10425
813.3487, 49.30676
813.8308, 63.52460
814.3129, 68.81494
814.7950, 53.11560
815.2772, 41.53564
815.7593, 46.72229
816.2414, 56.53363
816.7235, 59.41681
817.2056, 56.63849
817.6877, 55.94836
818.1699, 60.77905
818.6520, 67.50024
819.1341, 74.30206
819.6162, 80.33759
820.0983, 84.57031
820.5804, 86.83594
821.0626, 86.42346
821.5447, 83.17657
822.0268, 79.06128
822.5089, 75.99646
822.9910, 73.96851
823.4731, 72.85370
823.9553, 72.63092
824.4374, 73.79028
824.9195, 76.83044
825.4016, 79.85999
825.8837, 82.00867
826.3658, 82.63281
826.8480, 79.05603
827.3301, 66.78577
827.8122, 60.74554
828.2943, 65.50708
828.7764, 70.96393
829.2585, 75.75928
829.7407, 77.96173
830.2228, 73.35785
830.7049, 61.87158
831.1870, 54.73358
831.6691, 61.13861
832.1512, 64.43854
832.6334, 53.44568
833.1155, 38.76245
833.5976, 31.77930
834.0797, 31.34143
834.5618, 29.00098
835.0439, 20.37048
835.5261, 12.49371
836.0082, 14.72607
836.4903, 20.40820
836.9724, 17.42224
837.4545, 7.545227
837.9366, 0.4133300
838.4188, 3.478149
838.9009, 4.720886
839.3830, 7.493530
839.8651, 10.87219
840.3472, 10.55341
840.8293, 6.410583
841.3115, 5.675537
841.7936, 10.28912
842.2757, 14.97574
842.7578, 15.73868
843.2399, 14.71576
843.7220, 17.75092
844.2042, 27.24680
844.6863, 32.70511
845.1684, 31.96252
845.6505, 30.41440
846.1326, 30.72229
846.6147, 30.42862
847.0969, 25.14886
847.5790, 15.69522
848.0611, 12.19583
848.5432, 26.56042
849.0253, 32.75015
849.5074, 15.53989
849.9896, 5.156189
850.4717, 14.21442
850.9538, 14.37439
851.4359, 13.82648
851.9180, 15.00281
852.4001, 16.85980
852.8823, 18.90900
853.3644, 21.14240
853.8465, 22.95660
854.3286, 25.14447
854.8107, 29.50812
855.2928, 36.10284
855.7750, 43.36896
856.2571, 49.93152
856.7392, 55.41418
857.2213, 57.93250
857.7034, 59.00043
858.1855, 66.33179
858.6677, 80.21350
859.1498, 90.88348
859.6319, 93.71338
860.1140, 94.12067
860.5961, 99.71875
861.0782, 109.8950
861.5604, 114.0361
862.0425, 109.2749
862.5246, 111.3606
863.0067, 128.1786
863.4888, 143.4998
863.9709, 142.6915
864.4531, 130.7880
864.9352, 125.9873
865.4173, 132.0075
865.8994, 137.2226
866.3815, 141.9474
866.8636, 145.5637
867.3458, 144.6355
867.8279, 144.5299
868.3100, 155.0577
868.7921, 175.1592
869.2742, 184.4254
869.7563, 164.2321
870.2385, 149.6960
870.7206, 160.9174
871.2027, 177.9512
871.6848, 184.2334
872.1669, 181.1194
872.6490, 174.8315
873.1312, 167.2209
873.6133, 161.6348
874.0954, 161.7380
874.5775, 164.0580
875.0596, 166.0007
875.5417, 166.7081
876.0239, 164.2527
876.5060, 158.6586
876.9881, 151.7226
877.4702, 144.0703
877.9523, 138.1550
878.4344, 139.5447
878.9166, 146.0853
879.3987, 148.4689
879.8808, 146.7026
880.3629, 150.1602
880.8450, 162.9926
881.3271, 175.9764
881.8093, 177.5147
882.2914, 169.6970
882.7735, 166.0124
883.2556, 167.1602
883.7377, 167.0697
884.2198, 164.1644
884.7020, 161.7804
885.1841, 161.6665
885.6662, 163.9907
886.1483, 169.6750
886.6304, 180.2097
887.1125, 187.2977
887.5947, 190.4294
888.0768, 190.8007
888.5589, 184.4808
889.0410, 179.2538
889.5231, 184.0696
890.0052, 196.1866
890.4874, 202.8633
890.9695, 198.9902
891.4516, 197.3547
891.9337, 202.5567
892.4158, 207.2819
892.8979, 206.7092
893.3801, 203.7947
893.8622, 203.5230
894.3443, 206.1763
894.8264, 206.5542
895.3085, 200.5787
895.7906, 193.5644
896.2728, 188.6660
896.7549, 184.5051
897.2370, 177.2994
897.7191, 169.6628
898.2012, 170.4481
898.6833, 183.0523
899.1655, 193.5754
899.6476, 186.9928
900.1297, 174.9136
900.6118, 172.9680
901.0939, 176.7505
901.5760, 175.4091
902.0582, 167.4120
902.5403, 158.9632
903.0224, 154.0485
903.5045, 151.6778
903.9866, 151.3651
904.4688, 152.1274
904.9509, 150.8788
905.4330, 147.9545
905.9151, 144.0709
906.3972, 138.5021
906.8793, 134.2979
907.3615, 135.5353
907.8436, 141.3618
908.3257, 149.4066
908.8078, 159.3787
909.2899, 160.6183
909.7720, 150.7142
910.2542, 141.7288
910.7363, 138.5280
911.2184, 142.5443
911.7005, 158.4280
912.1826, 185.7982
912.6647, 195.3382
913.1469, 179.0615
913.6290, 170.8947
914.1111, 180.3176
914.5932, 191.9244
915.0753, 195.9424
915.5574, 194.9950
916.0396, 194.9060
916.5217, 195.9811
917.0038, 196.9258
917.4859, 196.1320
917.9680, 197.5245
918.4501, 205.1925
918.9323, 212.6776
919.4144, 215.1891
919.8965, 213.2591
920.3786, 208.8677
920.8607, 200.2590
921.3428, 193.4166
921.8250, 188.9220
922.3071, 186.6811
922.7892, 188.9307
923.2713, 191.9075
923.7534, 190.9454
924.2355, 186.1520
924.7177, 181.6837
925.1998, 180.5460
925.6819, 176.9927
926.1640, 163.4074
926.6461, 151.4622
927.1282, 153.2040
927.6104, 162.2965
928.0925, 167.8223
928.5746, 167.1913
929.0567, 162.7756
929.5388, 152.0873
930.0209, 142.5135
930.5031, 142.3901
930.9852, 144.6215
931.4673, 140.0918
931.9494, 129.7278
932.4315, 118.3932
932.9136, 107.8672
933.3958, 99.24597
933.8779, 93.67218
934.3600, 90.39307
934.8421, 90.09180
935.3242, 90.80676
935.8063, 88.32172
936.2885, 82.50659
936.7706, 75.78088
937.2527, 69.35999
937.7348, 63.86365
938.2169, 60.12463
938.6990, 57.81140
939.1812, 57.09576
939.6633, 57.15900
940.1454, 54.29340
940.6275, 47.99493
941.1096, 42.22583
941.5917, 39.90051
942.0739, 39.01959
942.5560, 35.98907
943.0381, 31.17780
943.5202, 25.24561
944.0023, 18.66351
944.4844, 18.11389
944.9666, 25.82690
945.4487, 33.31006
945.9308, 32.71240
946.4129, 26.73352
946.8950, 22.37885
947.3771, 19.64502
947.8593, 18.86035
948.3414, 20.20441
948.8235, 21.61786
949.3056, 22.28326
949.7877, 22.87854
950.2698, 24.25134
950.7520, 26.14374
951.2341, 27.03949
951.7162, 26.70343
952.1983, 26.96350
952.6804, 28.16479
953.1625, 29.29932
953.6447, 29.86316
954.1268, 30.27600
954.6089, 31.42017
955.0910, 33.14471
955.5731, 31.96838
956.0552, 26.93561
956.5374, 21.26556
957.0195, 11.95203
957.5016, 9.609436
957.9837, 24.00507
958.4658, 44.38306
958.9479, 53.15381
959.4301, 49.62549
959.9122, 44.25385
960.3943, 33.74280
960.8764, 28.18805
961.3585, 32.13861
961.8406, 37.18707
962.3228, 38.86993
962.8049, 37.90332
963.2870, 35.76813
963.7691, 32.70233
964.2512, 27.09229
964.7333, 10.93988
965.2155, 3.884827
965.6976, 19.19696
966.1797, 34.84808
966.6618, 34.08380
967.1439, 23.94763
967.6260, 21.45905
968.1082, 30.45264
968.5903, 33.19299
969.0724, 23.51776
969.5545, 14.61353
970.0366, 8.870789
970.5187, 5.897278
971.0009, 7.681519
971.4830, 11.63129
971.9651, 10.19644
972.4472, 0.4108890
972.9293, 5.263092
973.4114, 4.870880
973.8936, 11.83905
974.3757, 4.398773
974.8578, 4.820343
975.3399, 2.818024
975.8220, 6.927734
976.3041, 11.31985
976.7863, 5.717865
977.2684, 3.401733
977.7505, 12.92877
978.2326, 19.51312
978.7147, 12.29395
979.1968, 2.440552
979.6790, 1.454163
980.1611, 7.977966
980.6432, 14.07669
981.1253, 17.95645
981.6074, 21.65503
982.0895, 27.02249
982.5717, 30.89374
983.0538, 32.42572
983.5359, 31.07632
984.0180, 23.91830
984.5001, 13.31268
984.9822, 8.163208
985.4644, 11.69110
985.9465, 17.25385
986.4286, 22.50616
986.9107, 28.14542
987.3928, 36.18555
987.8749, 43.88333
988.3571, 47.70178
988.8392, 48.09302
989.3213, 48.65543
989.8034, 51.21765
990.2855, 51.88123
990.7676, 47.53107
991.2498, 41.78775
991.7319, 32.25903
992.2140, 26.62189
992.6961, 38.53265
993.1782, 63.35736
993.6603, 77.57202
994.1425, 69.83716
994.6246, 61.48434
995.1067, 61.41705
995.5888, 64.60938
996.0709, 67.91879
996.5530, 71.90430
997.0352, 78.84399
997.5173, 88.04556
997.9994, 95.17520
998.4815, 97.97964
998.9636, 100.7551
999.4457, 105.1888
999.9279, 110.4180
1000.410, 115.0032
1000.892, 120.4734
1001.374, 130.2770
1001.856, 143.1343
1002.338, 152.7722
1002.821, 156.6461
1003.303, 158.6482
1003.785, 159.1026
1004.267, 159.9969
1004.749, 163.4218
1005.231, 167.5621
1005.713, 169.9623
1006.195, 170.7972
1006.677, 171.7767
1007.160, 173.2721
1007.642, 175.5151
1008.124, 177.4071
1008.606, 181.3966
1009.088, 191.0115
1009.570, 202.3831
1010.052, 210.9993
1010.534, 216.8359
1011.017, 222.4282
1011.499, 229.1987
1011.981, 233.4339
1012.463, 230.8988
1012.945, 228.3914
1013.427, 230.0536
1013.909, 233.9948
1014.391, 239.8537
1014.873, 245.7870
1015.356, 246.1627
1015.838, 237.3650
1016.320, 232.0892
1016.802, 242.0347
1017.284, 248.7260
1017.766, 235.8640
1018.248, 219.6205
1018.730, 219.8053
1019.213, 231.3619
1019.695, 233.9891
1020.177, 220.7524
1020.659, 210.1713
1021.141, 210.0281
1021.623, 211.6409
1022.105, 211.5664
1022.587, 210.9059
1023.069, 211.6679
1023.552, 212.6433
1024.034, 211.4436
1024.516, 208.3214
1024.998, 198.5258
1025.480, 173.4317
1025.962, 151.1935
1026.444, 137.9573
1026.926, 130.9326
1027.409, 130.9212
1027.891, 134.4183
1028.373, 134.7877
1028.855, 131.0018
1029.337, 125.6381
1029.819, 118.1101
1030.301, 110.5259
1030.783, 102.0606
1031.266, 95.08286
1031.748, 93.70303
1032.230, 93.76389
1032.712, 86.53946
1033.194, 70.65851
1033.676, 59.50717
1034.158, 57.53778
1034.640, 55.84378
1035.122, 53.41190
1035.604, 50.44739
1036.087, 47.51248
1036.569, 43.90094
1037.051, 37.60599
1037.533, 28.42151
1038.015, 23.20282
1038.497, 24.50742
1038.979, 25.73874
1039.461, 27.41711
1039.944, 27.83038
1040.426, 27.03232
1040.908, 23.87891
1041.390, 15.79196
1041.872, 3.476898
1042.354, 5.563812
1042.836, 12.62698
1043.318, 12.87939
1043.800, 0.9189450
1044.283, 8.059418
1044.765, 7.715149
1045.247, 3.199554
1045.729, 0.8269650
1046.211, 4.428955
1046.693, 8.265686
1047.175, 13.74640
1047.657, 14.00916
1048.140, 6.090912
1048.622, 2.051361
1049.104, 7.007782
1049.586, 13.04004
1050.068, 13.41476
1050.550, 9.979797
1051.032, 7.458038
1051.514, 5.784637
1051.996, 6.339966
1052.479, 9.964172
1052.961, 9.794800
1053.443, 3.374359
1053.925, 2.346161
1054.407, 2.613251
1054.889, 0.2797850
1055.371, 2.389069
1055.853, 3.730560
1056.335, 4.886505
1056.818, 5.870758
1057.300, 3.928070
1057.782, 1.446198
1058.264, 6.048462
1058.746, 7.495636
1059.228, 9.425354
1059.710, 18.19424
1060.192, 29.98526
1060.675, 29.92548
1061.157, 20.56885
1061.639, 16.52698
1062.121, 18.68936
1062.603, 19.09409
1063.085, 14.73959
1063.567, 10.34064
1064.049, 10.42157
1064.531, 13.18893
1065.014, 15.72974
1065.496, 18.34085
1065.978, 22.63470
1066.460, 27.66095
1066.942, 29.00046
1067.424, 26.29263
1067.906, 25.61002
1068.388, 31.29419
1068.870, 39.78925
1069.353, 50.75323
1069.835, 59.37991
1070.317, 54.31314
1070.799, 43.42807
1071.281, 45.57278
1071.763, 59.61261
1072.245, 65.58322
1072.727, 53.20856
1073.210, 41.10855
1073.692, 44.35043
1074.174, 51.86084
1074.656, 55.61731
1075.138, 57.23013
1075.620, 58.05127
1076.102, 59.03751
1076.584, 61.69739
1077.067, 66.46625
1077.549, 72.32602
1078.031, 80.98315
1078.513, 87.88635
1078.995, 89.30905
1079.477, 89.93207
1079.959, 93.46497
1080.441, 98.57532
1080.923, 102.8755
1081.406, 106.0567
1081.888, 108.8696
1082.370, 109.2941
1082.852, 112.5381
1083.334, 120.5302
1083.816, 130.2946
1084.298, 141.8521
1084.780, 153.7080
1085.262, 166.2571
1085.745, 177.9013
1086.227, 179.3034
1086.709, 166.1882
1087.191, 154.0349
1087.673, 141.8235
1088.155, 132.9510
1088.637, 129.8633
1089.119, 127.2721
1089.602, 120.4531
1090.084, 112.5991
1090.566, 111.4720
1091.048, 117.6477
1091.530, 116.8150
1092.012, 107.6000
1092.494, 101.8242
1092.976, 102.1295
1093.458, 100.1667
1093.941, 90.90735
1094.423, 81.79352
1094.905, 82.96555
1095.387, 91.18314
1095.869, 95.31778
1096.351, 95.50754
1096.833, 90.74655
1097.315, 81.97632
1097.797, 78.53107
1098.280, 83.22318
1098.762, 90.21017
1099.244, 95.12607
1099.726, 98.57797
1100.208, 102.0385
1100.690, 103.9231
1101.172, 100.4183
1101.654, 93.91153
1102.137, 86.27069
1102.619, 79.34116
1103.101, 79.34375
1103.583, 89.45227
1104.065, 99.39450
1104.547, 101.4263
1105.029, 98.55905
1105.511, 91.64014
1105.994, 84.08533
1106.476, 76.65930
1106.958, 71.44321
1107.440, 76.21820
1107.922, 91.80688
1108.404, 99.38498
1108.886, 83.37888
1109.368, 69.63513
1109.850, 70.68002
1110.333, 73.16565
1110.815, 68.37698
1111.297, 61.77188
1111.779, 61.42517
1112.261, 65.43655
1112.743, 62.64590
1113.225, 44.94565
1113.707, 38.74033
1114.189, 57.26010
1114.672, 67.11063
1115.154, 54.20868
1115.636, 40.97348
1116.118, 43.58441
1116.600, 53.83295
1117.082, 56.53754
1117.564, 51.70834
1118.046, 48.78775
1118.529, 47.45602
1119.011, 51.27344
1119.493, 62.64368
1119.975, 64.36673
1120.457, 47.55856
1120.939, 29.80475
1121.421, 30.09726
1121.903, 40.85541
1122.385, 41.99594
1122.868, 35.61789
1123.350, 33.18417
1123.832, 34.22937
1124.314, 32.14001
1124.796, 26.19672
1125.278, 24.34323
1125.760, 31.54236
1126.242, 37.29276
1126.724, 26.13007
1127.207, 9.548340
1127.689, 1.959778
1128.171, 0.9734800
1128.653, 4.741486
1129.135, 10.90598
1129.617, 15.53064
1130.099, 17.48297
1130.581, 16.99869
1131.064, 12.28903
1131.546, 8.577515
1132.028, 7.798248
1132.510, 9.737213
1132.992, 17.41852
1133.474, 25.42596
1133.956, 27.61517
1134.438, 24.29309
1134.921, 18.42773
1135.403, 8.975128
1135.885, 1.826019
1136.367, 1.764069
1136.849, 4.055206
1137.331, 4.885956
1137.813, 5.334351
1138.295, 6.448181
1138.777, 6.968140
1139.260, 4.740326
1139.742, 0.1419680
1140.224, 3.727844
1140.706, 7.234863
1141.188, 5.994293
1141.670, 1.089600
1142.152, 2.907959
1142.634, 4.398438
1143.116, 12.46021
1143.599, 14.83279
1144.081, 13.87830
1144.563, 12.74097
1145.045, 11.95862
1145.527, 14.18298
1146.009, 18.02191
1146.491, 19.64563
1146.973, 18.39609
1147.456, 13.03171
1147.938, 3.635406
1148.420, 2.300293
1148.902, 2.502563
1149.384, 10.02142
1149.866, 14.50751
1150.348, 16.93384
1150.830, 17.97940
1151.313, 17.78000
1151.795, 15.75171
1152.277, 12.50735
1152.759, 10.63242
1153.241, 11.41342
1153.723, 10.92712
1154.205, 4.294037
1154.687, 1.816772
1155.169, 9.919495
1155.651, 19.50354
1156.134, 26.55237
1156.616, 30.42325
1157.098, 29.50070
1157.580, 24.21957
1158.062, 19.45532
1158.544, 14.78207
1159.026, 12.91882
1159.508, 14.48483
1159.991, 15.83218
1160.473, 15.73682
1160.955, 16.67017
1161.437, 20.72717
1161.919, 25.38034
1162.401, 25.41092
1162.883, 22.93936
1163.365, 27.14566
1163.848, 34.69885
1164.330, 33.00864
1164.812, 23.48395
1165.294, 16.69998
1165.776, 16.30594
1166.258, 21.52484
1166.740, 35.00232
1167.222, 45.70932
1167.704, 40.64218
1168.187, 32.82526
1168.669, 35.07483
1169.151, 40.67343
1169.633, 38.90402
1170.115, 32.57492
1170.597, 33.24197
1171.079, 44.13351
1171.561, 51.78217
1172.043, 50.67661
1172.526, 51.29489
1173.008, 57.62396
1173.490, 62.28842
1173.972, 59.69592
1174.454, 57.79883
1174.936, 66.63297
1175.418, 81.50436
1175.900, 85.00671
1176.383, 76.02945
1176.865, 72.33954
1177.347, 74.12015
1177.829, 70.81500
1178.311, 60.70941
1178.793, 55.68155
1179.275, 61.65744
1179.757, 71.71765
1180.240, 79.68768
1180.722, 85.78430
1181.204, 89.63373
1181.686, 92.25494
1182.168, 95.62650
1182.650, 98.93686
1183.132, 100.3365
1183.614, 99.72546
1184.096, 97.46445
1184.578, 92.94247
1185.061, 92.10760
1185.543, 104.4291
1186.025, 111.7682
1186.507, 98.44403
1186.989, 86.66644
1187.471, 95.44754
1187.953, 112.9584
1188.435, 121.6154
1188.918, 122.9715
1189.400, 128.0815
1189.882, 139.7278
1190.364, 142.7572
1190.846, 135.1729
1191.328, 130.3954
1191.810, 132.6416
1192.292, 135.0708
1192.775, 133.2587
1193.257, 132.1089
1193.739, 137.2272
1194.221, 143.6651
1194.703, 137.5672
1195.185, 124.0229
1195.667, 114.3786
1196.149, 109.7277
1196.631, 114.1187
1197.114, 125.0252
1197.596, 131.0194
1198.078, 126.7958
1198.560, 119.8326
1199.042, 109.4427
1199.524, 104.5912
1200.006, 96.68103
1200.488, 115.7050
1200.970, 125.9850
1201.453, 128.0138
1201.935, 97.25241
1202.417, 108.9046
1202.899, 103.6017
1203.381, 97.60110
1203.863, 115.2420
1204.345, 89.29831
1204.827, 106.5436
1205.310, 106.5617
1205.792, 114.4691
1206.274, 108.3610
1206.756, 107.7670
1207.238, 104.3772
1207.720, 98.72668
1208.202, 89.58075
1208.684, 80.14966
1209.167, 82.77017
1209.649, 92.89151
1210.131, 95.80615
1210.613, 90.44223
1211.095, 84.80402
1211.577, 82.02921
1212.059, 80.52747
1212.541, 79.82840
1213.023, 79.42834
1213.505, 79.67404
1213.988, 79.44647
1214.470, 77.81760
1214.952, 75.38974
1215.434, 73.32620
1215.916, 71.11618
1216.398, 67.08060
1216.880, 61.57675
1217.362, 50.39108
1217.845, 28.79733
1218.327, 23.44009
1218.809, 40.55286
1219.291, 56.63120
1219.773, 62.25751
1220.255, 59.52100
1220.737, 48.79153
1221.219, 37.24054
1221.702, 40.69113
1222.184, 50.60150
1222.666, 47.20926
1223.148, 37.41165
1223.630, 37.68091
1224.112, 45.48050
1224.594, 46.53662
1225.076, 37.91913
1225.558, 32.64960
1226.041, 39.20694
1226.523, 44.14404
1227.005, 42.07050
1227.487, 38.62402
1227.969, 34.51526
1228.451, 31.96710
1228.933, 34.65070
1229.415, 37.88986
1229.897, 32.84454
1230.380, 20.55325
1230.862, 12.71777
1231.344, 9.445282
1231.826, 8.508911
1232.308, 9.639618
1232.790, 10.02747
1233.272, 9.059875
1233.754, 8.747009
1234.237, 10.27917
1234.719, 11.50790
1235.201, 10.25122
1235.683, 7.483704
1236.165, 1.679993
1236.647, 2.709961
1237.129, 0.7795410
1237.611, 8.412842
1238.094, 15.99384
1238.576, 21.64630
1239.058, 20.42529
1239.540, 8.918335
1240.022, 5.9937000E-02
1240.504, 0.2143550
1240.986, 0.4564820
1241.468, 1.469177
1241.950, 1.454071
1242.432, 2.357635
1242.915, 0.0000000E+00
##END=



