##NAMES=Gahnite
##RRUFFID=R070591
##IDEAL CHEMISTRY=ZnAl_2_O_4_
##LOCALITY=Jemaa, Kaduna, Nigeria
##OWNER=RRUFF
##SOURCE=James Shigley
##DESCRIPTION=Blue octahedron
##STATUS=The identification of this mineral has been confirmed only by single crystal X-ray diffraction.
##URL=rruff.info/R070591
145.0299, 0.0000000E+00
145.5120, 12.46875
145.9942, 1.782715
146.4763, 30.02490
146.9584, 175.0728
147.4405, 281.6479
147.9226, 307.6343
148.4047, 215.3931
148.8869, 158.7222
149.3690, 158.5918
149.8511, 190.2466
150.3332, 212.4956
150.8153, 222.7485
151.2974, 226.2300
151.7796, 222.5166
152.2617, 193.4600
152.7438, 190.3633
153.2259, 228.3740
153.7080, 292.3013
154.1901, 329.9453
154.6722, 327.3457
155.1544, 300.4678
155.6365, 260.8032
156.1186, 172.7729
156.6007, 107.3574
157.0828, 90.55078
157.5649, 123.7534
158.0471, 163.0674
158.5292, 196.6826
159.0113, 218.1484
159.4934, 246.8013
159.9755, 225.0981
160.4576, 195.6543
160.9398, 202.7319
161.4219, 287.5615
161.9040, 362.4448
162.3861, 382.6255
162.8682, 366.6641
163.3503, 347.4595
163.8325, 346.1694
164.3146, 342.3984
164.7967, 319.2949
165.2788, 262.6206
165.7609, 207.1577
166.2430, 170.8579
166.7252, 151.8853
167.2073, 144.1499
167.6894, 154.6382
168.1715, 170.7563
168.6536, 179.3579
169.1357, 176.4653
169.6179, 164.8477
170.1000, 134.8877
170.5821, 89.29004
171.0642, 63.37500
171.5463, 120.1099
172.0284, 210.4385
172.5106, 251.2339
172.9927, 162.3369
173.4748, 29.60205
173.9569, 51.98291
174.4390, 76.82617
174.9211, 70.46289
175.4033, 49.94873
175.8854, 16.95264
176.3675, 26.74121
176.8496, 90.90430
177.3317, 166.4663
177.8138, 227.6226
178.2959, 270.2046
178.7781, 310.8730
179.2602, 378.3896
179.7423, 465.8345
180.2244, 531.5322
180.7065, 532.3989
181.1886, 488.4927
181.6708, 458.6372
182.1529, 457.8364
182.6350, 473.6226
183.1171, 481.3926
183.5992, 482.0073
184.0813, 489.5186
184.5635, 534.1338
185.0456, 606.3359
185.5277, 656.4038
186.0098, 653.3047
186.4919, 624.4155
186.9740, 667.7432
187.4562, 795.9175
187.9383, 910.4922
188.4204, 859.7319
188.9025, 660.8569
189.3846, 524.4629
189.8667, 564.8408
190.3489, 749.9927
190.8310, 871.4214
191.3131, 916.1211
191.7952, 937.6240
192.2773, 1019.710
192.7594, 1164.121
193.2416, 1312.717
193.7237, 1459.198
194.2058, 1599.938
194.6879, 1656.113
195.1700, 1608.660
195.6521, 1492.579
196.1343, 1373.532
196.6164, 1252.132
197.0985, 1132.251
197.5806, 1015.925
198.0627, 902.6855
198.5448, 801.0571
199.0270, 721.2944
199.5091, 654.1279
199.9912, 558.9839
200.4733, 425.7124
200.9554, 305.1040
201.4375, 245.4277
201.9196, 256.0127
202.4018, 266.3745
202.8839, 269.1592
203.3660, 261.5273
203.8481, 234.7954
204.3302, 179.2480
204.8123, 127.0718
205.2945, 116.4731
205.7766, 161.3462
206.2587, 196.3613
206.7408, 204.2544
207.2229, 185.4766
207.7050, 155.1226
208.1872, 103.7061
208.6693, 50.17725
209.1514, 23.99365
209.6335, 31.31348
210.1156, 48.38379
210.5977, 71.00000
211.0799, 104.1929
211.5620, 118.2568
212.0441, 104.6846
212.5262, 80.10840
213.0083, 83.02832
213.4904, 128.8291
213.9726, 167.0581
214.4547, 171.3428
214.9368, 127.8638
215.4189, 93.70459
215.9010, 68.54443
216.3831, 54.03174
216.8653, 57.22998
217.3474, 87.03320
217.8295, 118.5161
218.3116, 138.2207
218.7937, 144.1367
219.2758, 144.5679
219.7580, 139.8364
220.2401, 130.0107
220.7222, 111.9614
221.2043, 71.68701
221.6864, 42.64111
222.1685, 53.56348
222.6507, 129.2803
223.1328, 188.2676
223.6149, 212.5791
224.0970, 205.1865
224.5791, 217.8613
225.0612, 261.0601
225.5434, 311.5806
226.0255, 349.2065
226.5076, 370.3608
226.9897, 384.8457
227.4718, 399.2075
227.9539, 412.3848
228.4361, 406.3257
228.9182, 372.8975
229.4003, 332.3125
229.8824, 303.2988
230.3645, 286.3896
230.8466, 279.4175
231.3288, 283.7114
231.8109, 301.0625
232.2930, 307.1284
232.7751, 300.8760
233.2572, 288.7827
233.7393, 278.7217
234.2215, 266.3647
234.7036, 259.1978
235.1857, 263.9121
235.6678, 293.6982
236.1499, 294.7231
236.6320, 252.1250
237.1142, 187.0259
237.5963, 139.0752
238.0784, 112.3018
238.5605, 97.28955
239.0426, 90.26660
239.5247, 89.44678
240.0069, 101.7637
240.4890, 137.0557
240.9711, 183.1797
241.4532, 207.5620
241.9353, 200.6909
242.4174, 185.0039
242.8996, 170.9458
243.3817, 157.9302
243.8638, 146.5688
244.3459, 132.7666
244.8280, 119.7905
245.3101, 124.5073
245.7922, 161.7114
246.2744, 197.2153
246.7565, 209.5718
247.2386, 183.4126
247.7207, 167.4512
248.2028, 170.5229
248.6849, 188.3750
249.1671, 193.2520
249.6492, 180.3345
250.1313, 161.2769
250.6134, 145.1514
251.0955, 138.8828
251.5776, 119.6089
252.0598, 77.01807
252.5419, 14.78174
253.0240, 23.49121
253.5061, 30.86572
253.9882, 22.59570
254.4703, 10.96387
254.9525, 0.4233400
255.4346, 25.06787
255.9167, 76.72803
256.3988, 153.4956
256.8809, 180.4150
257.3630, 132.4336
257.8452, 66.46777
258.3273, 37.99756
258.8094, 62.61914
259.2915, 86.89893
259.7736, 103.2715
260.2557, 111.9351
260.7379, 101.4121
261.2200, 59.40771
261.7021, 14.28955
262.1842, 0.4379880
262.6663, 33.34277
263.1484, 55.21094
263.6306, 47.16504
264.1127, 7.236816
264.5948, 15.37158
265.0769, 19.60742
265.5590, 8.142090
266.0411, 24.33838
266.5233, 93.15771
267.0054, 132.7847
267.4875, 112.8662
267.9696, 28.22705
268.4517, 10.20068
268.9338, 13.58203
269.4160, 61.46533
269.8981, 82.01709
270.3802, 67.10986
270.8623, 52.79004
271.3444, 52.21143
271.8265, 66.37598
272.3087, 74.92627
272.7908, 76.71973
273.2729, 74.12402
273.7550, 69.23389
274.2371, 61.03906
274.7192, 56.12305
275.2014, 58.69238
275.6835, 69.15771
276.1656, 77.39014
276.6477, 85.12451
277.1298, 87.75000
277.6119, 71.77490
278.0940, 33.06641
278.5761, 5.689453
279.0583, 13.86426
279.5404, 58.43701
280.0225, 69.33936
280.5046, 37.57129
280.9867, 10.24756
281.4688, 32.45117
281.9510, 28.57471
282.4331, 9.729004
282.9152, 37.51172
283.3973, 108.4087
283.8794, 115.6099
284.3615, 39.77637
284.8437, 61.45801
285.3258, 88.73975
285.8079, 41.22363
286.2900, 11.86963
286.7721, 37.81201
287.2542, 39.68408
287.7364, 33.19678
288.2185, 17.24121
288.7006, 2.020020
289.1827, 14.54346
289.6648, 20.59717
290.1469, 26.85254
290.6291, 42.27637
291.1112, 61.91602
291.5933, 63.82178
292.0754, 42.96582
292.5575, 15.02295
293.0396, 5.594727
293.5218, 11.77539
294.0039, 10.90430
294.4860, 17.61426
294.9681, 62.32080
295.4502, 94.89307
295.9323, 113.0898
296.4145, 117.0552
296.8966, 96.80420
297.3787, 58.31055
297.8608, 27.67139
298.3429, 31.75781
298.8250, 51.46143
299.3072, 48.10791
299.7893, 13.33398
300.2714, 26.51904
300.7535, 45.78125
301.2356, 46.26514
301.7177, 33.98096
302.1999, 8.806641
302.6820, 25.97656
303.1641, 73.75488
303.6462, 141.7383
304.1283, 194.5396
304.6104, 180.7734
305.0926, 122.4316
305.5747, 77.10986
306.0568, 96.47949
306.5389, 133.9805
307.0210, 136.4883
307.5031, 90.12598
307.9853, 41.18652
308.4674, 16.59863
308.9495, 15.34424
309.4316, 35.24902
309.9137, 105.8911
310.3958, 177.5435
310.8780, 205.2158
311.3601, 174.7451
311.8422, 144.1372
312.3243, 156.2710
312.8064, 190.7207
313.2885, 210.8940
313.7707, 172.6938
314.2528, 133.1270
314.7349, 135.6382
315.2170, 199.4248
315.6991, 245.7520
316.1812, 220.9546
316.6634, 160.4839
317.1455, 119.6045
317.6276, 129.6689
318.1097, 153.6323
318.5918, 179.2822
319.0739, 208.7490
319.5561, 224.6318
320.0382, 209.3330
320.5203, 182.0908
321.0024, 166.3721
321.4845, 169.2690
321.9666, 182.6104
322.4488, 206.1226
322.9308, 244.6733
323.4130, 279.7583
323.8951, 325.7832
324.3772, 361.4336
324.8593, 361.6094
325.3414, 266.7773
325.8235, 190.7358
326.3057, 164.7954
326.7878, 206.4614
327.2699, 241.6240
327.7520, 265.2119
328.2341, 283.8413
328.7162, 304.9980
329.1984, 341.3008
329.6805, 364.8174
330.1626, 372.2173
330.6447, 364.2158
331.1268, 330.0522
331.6089, 246.2505
332.0911, 154.1904
332.5732, 96.50195
333.0553, 79.39502
333.5374, 87.26660
334.0195, 126.6553
334.5016, 197.9648
334.9838, 246.8770
335.4659, 275.2705
335.9480, 279.1045
336.4301, 244.5630
336.9122, 151.2798
337.3943, 88.13623
337.8765, 80.73779
338.3586, 121.8350
338.8407, 150.9399
339.3228, 165.2314
339.8049, 173.9702
340.2870, 188.5830
340.7692, 210.4028
341.2513, 211.9434
341.7334, 176.4141
342.2155, 120.2324
342.6976, 108.6787
343.1797, 148.8789
343.6619, 198.2417
344.1440, 214.0771
344.6261, 197.7656
345.1082, 181.1514
345.5903, 170.0225
346.0724, 162.1211
346.5546, 147.4009
347.0367, 125.8892
347.5188, 115.8530
348.0009, 148.6177
348.4830, 205.0005
348.9651, 223.1006
349.4473, 179.9604
349.9294, 120.1079
350.4115, 111.0527
350.8936, 142.9023
351.3757, 165.8491
351.8578, 121.1646
352.3400, 54.75781
352.8221, 47.60596
353.3042, 134.6616
353.7863, 227.2476
354.2684, 235.4014
354.7505, 181.8052
355.2327, 129.7510
355.7148, 95.51416
356.1969, 88.51074
356.6790, 132.0850
357.1611, 250.5542
357.6432, 344.5161
358.1254, 326.1660
358.6075, 243.4985
359.0896, 185.6177
359.5717, 217.1221
360.0538, 264.3354
360.5359, 282.1895
361.0181, 259.4380
361.5002, 237.8916
361.9823, 221.4932
362.4644, 217.5527
362.9465, 235.7554
363.4286, 313.1567
363.9108, 381.5952
364.3929, 415.5010
364.8750, 409.0918
365.3571, 399.1016
365.8392, 385.9731
366.3214, 373.8525
366.8035, 367.0430
367.2856, 376.8252
367.7677, 379.8389
368.2498, 369.8926
368.7319, 346.0938
369.2140, 325.6533
369.6961, 312.8374
370.1783, 299.7109
370.6604, 278.1045
371.1425, 233.3594
371.6246, 207.5640
372.1067, 212.3945
372.5888, 243.3335
373.0710, 263.4443
373.5531, 270.6475
374.0352, 271.0420
374.5173, 266.3569
374.9994, 253.5854
375.4815, 250.2046
375.9637, 260.8350
376.4458, 280.6782
376.9279, 296.4111
377.4100, 308.7852
377.8921, 314.7021
378.3742, 304.7134
378.8564, 279.9150
379.3385, 281.5503
379.8206, 320.2700
380.3027, 370.7358
380.7848, 384.3916
381.2669, 363.0518
381.7491, 349.0918
382.2312, 368.5469
382.7133, 411.6104
383.1954, 458.3516
383.6775, 509.2173
384.1596, 554.3979
384.6418, 574.3076
385.1239, 577.3130
385.6060, 588.7197
386.0881, 624.0840
386.5702, 672.3218
387.0523, 724.9512
387.5345, 782.3193
388.0166, 834.8872
388.4987, 856.0122
388.9808, 866.5493
389.4629, 900.8345
389.9450, 997.2207
390.4272, 1105.691
390.9093, 1189.564
391.3914, 1249.282
391.8735, 1310.868
392.3556, 1370.802
392.8377, 1451.308
393.3199, 1567.980
393.8020, 1766.033
394.2841, 1948.447
394.7662, 2073.668
395.2483, 2159.561
395.7304, 2275.415
396.2126, 2400.456
396.6947, 2581.479
397.1768, 2845.397
397.6589, 3255.617
398.1410, 3657.869
398.6231, 4007.202
399.1053, 4347.991
399.5874, 4783.427
400.0695, 5369.178
400.5516, 5986.327
401.0337, 6606.411
401.5158, 7251.449
401.9980, 7804.740
402.4801, 8245.945
402.9622, 8613.057
403.4443, 8953.122
403.9264, 9257.412
404.4085, 9558.150
404.8907, 9855.915
405.3728, 10155.13
405.8549, 10496.12
406.3370, 10884.61
406.8191, 11306.78
407.3012, 11747.09
407.7834, 12207.90
408.2655, 12696.66
408.7476, 13205.19
409.2297, 13756.45
409.7118, 14371.47
410.1939, 15048.01
410.6761, 15874.41
411.1582, 16937.58
411.6403, 18198.53
412.1224, 19579.78
412.6045, 21066.69
413.0866, 22682.52
413.5687, 24582.08
414.0508, 26705.45
414.5330, 28785.94
415.0151, 31079.89
415.4972, 33066.71
415.9793, 34310.86
416.4614, 34782.95
416.9435, 34325.75
417.4257, 32545.52
417.9078, 29816.75
418.3899, 26707.18
418.8720, 22993.13
419.3541, 19346.35
419.8362, 16066.42
420.3184, 13182.52
420.8005, 10685.63
421.2826, 8707.404
421.7647, 7095.969
422.2468, 5755.109
422.7289, 4732.920
423.2111, 3891.293
423.6932, 3256.156
424.1753, 2808.317
424.6574, 2393.023
425.1395, 1979.720
425.6216, 1627.587
426.1038, 1376.988
426.5859, 1278.508
427.0680, 1174.034
427.5501, 1052.738
428.0322, 922.9800
428.5143, 806.6948
428.9965, 703.6401
429.4786, 610.4180
429.9607, 521.4800
430.4428, 435.6650
430.9249, 377.6821
431.4070, 356.1958
431.8892, 341.1353
432.3713, 274.7788
432.8534, 160.6802
433.3355, 83.89062
433.8176, 97.56982
434.2997, 164.4985
434.7819, 188.0317
435.2640, 167.8560
435.7461, 132.2529
436.2282, 87.25391
436.7103, 46.32910
437.1924, 42.90088
437.6746, 117.2085
438.1567, 191.3726
438.6388, 166.8057
439.1209, 68.86035
439.6030, 0.7001950
440.0851, 53.32373
440.5673, 138.5728
441.0494, 173.1357
441.5315, 124.6489
442.0136, 75.19336
442.4957, 62.43213
442.9778, 70.47803
443.4600, 72.15576
443.9421, 59.43164
444.4242, 39.51562
444.9063, 8.975098
445.3884, 37.50977
445.8705, 63.74609
446.3527, 46.25977
446.8348, 18.82227
447.3169, 11.03369
447.7990, 43.31641
448.2811, 62.79736
448.7632, 55.17383
449.2454, 26.39209
449.7275, 21.76904
450.2096, 54.54980
450.6917, 84.39648
451.1738, 79.22217
451.6559, 31.98145
452.1381, 5.755859
452.6202, 11.27832
453.1023, 31.14111
453.5844, 33.98535
454.0665, 19.95264
454.5486, 2.623535
455.0308, 36.89600
455.5129, 76.93262
455.9950, 96.94824
456.4771, 94.04102
456.9592, 94.12012
457.4413, 137.2690
457.9234, 202.6484
458.4055, 244.6616
458.8877, 235.8940
459.3698, 205.7783
459.8519, 171.2964
460.3340, 135.3813
460.8161, 114.9204
461.2982, 133.2100
461.7804, 163.3652
462.2625, 181.7363
462.7446, 172.0107
463.2267, 171.5054
463.7088, 200.2373
464.1909, 247.0791
464.6731, 288.3008
465.1552, 328.0474
465.6373, 354.1318
466.1194, 359.0234
466.6015, 336.5088
467.0836, 317.8071
467.5658, 304.2363
468.0479, 293.4990
468.5300, 281.6777
469.0121, 260.7163
469.4942, 257.0908
469.9763, 283.0659
470.4585, 330.6934
470.9406, 355.0269
471.4227, 352.6094
471.9048, 338.8691
472.3869, 320.1719
472.8690, 297.2622
473.3512, 279.9893
473.8333, 269.0220
474.3154, 267.6807
474.7975, 291.9766
475.2796, 335.4321
475.7617, 359.7334
476.2439, 326.3628
476.7260, 272.9736
477.2081, 262.8706
477.6902, 297.6562
478.1723, 346.3691
478.6544, 397.6289
479.1366, 444.1104
479.6187, 474.4404
480.1008, 464.9380
480.5829, 462.6533
481.0650, 503.5029
481.5471, 574.5688
482.0293, 630.6519
482.5114, 637.2764
482.9935, 633.4902
483.4756, 638.4404
483.9577, 659.7627
484.4398, 684.0894
484.9220, 710.1406
485.4041, 742.3081
485.8862, 786.4312
486.3683, 852.4624
486.8504, 911.5654
487.3326, 953.6812
487.8147, 979.7744
488.2968, 1020.311
488.7789, 1084.308
489.2610, 1146.712
489.7431, 1174.898
490.2253, 1162.281
490.7074, 1180.579
491.1895, 1259.234
491.6716, 1361.525
492.1537, 1408.745
492.6358, 1404.952
493.1180, 1395.581
493.6001, 1396.550
494.0822, 1409.753
494.5643, 1445.364
495.0464, 1504.938
495.5285, 1562.021
496.0107, 1591.276
496.4928, 1603.457
496.9749, 1614.337
497.4570, 1628.416
497.9391, 1643.902
498.4212, 1650.457
498.9034, 1653.755
499.3855, 1679.590
499.8676, 1754.658
500.3497, 1842.072
500.8318, 1922.398
501.3139, 1991.414
501.7961, 2059.957
502.2782, 2136.257
502.7603, 2209.683
503.2424, 2260.843
503.7245, 2272.235
504.2066, 2297.591
504.6887, 2361.765
505.1708, 2458.000
505.6530, 2496.389
506.1351, 2467.690
506.6172, 2409.964
507.0993, 2353.326
507.5814, 2296.244
508.0635, 2205.978
508.5457, 2071.285
509.0278, 1922.897
509.5099, 1812.688
509.9920, 1734.353
510.4741, 1655.509
510.9562, 1556.976
511.4384, 1450.381
511.9205, 1353.455
512.4026, 1266.858
512.8847, 1185.292
513.3668, 1095.608
513.8489, 1011.015
514.3311, 948.2305
514.8132, 935.8022
515.2953, 916.6626
515.7774, 856.1304
516.2595, 768.7051
516.7416, 699.6055
517.2238, 675.7915
517.7059, 656.5591
518.1880, 626.8159
518.6701, 585.3555
519.1522, 535.5762
519.6343, 461.0547
520.1165, 391.5986
520.5986, 363.2788
521.0807, 392.8809
521.5628, 411.6450
522.0449, 407.1367
522.5270, 382.7588
523.0092, 347.9038
523.4913, 300.9341
523.9734, 255.3989
524.4555, 214.7896
524.9376, 181.6587
525.4197, 170.6235
525.9019, 185.7764
526.3840, 207.1899
526.8661, 215.6689
527.3482, 214.1064
527.8303, 208.9106
528.3124, 200.9165
528.7946, 191.7144
529.2767, 185.8804
529.7588, 181.4985
530.2409, 167.5142
530.7230, 130.8560
531.2051, 88.33008
531.6873, 48.11084
532.1694, 1.502441
532.6515, 21.27148
533.1336, 14.88281
533.6157, 68.14746
534.0978, 75.65186
534.5800, 7.547363
535.0621, 66.75830
535.5442, 68.25928
536.0263, 19.17529
536.5084, 2.0020001E-02
536.9905, 15.98389
537.4727, 46.33740
537.9548, 81.39258
538.4369, 120.9077
538.9190, 152.6299
539.4011, 178.8145
539.8832, 187.5000
540.3654, 145.3618
540.8475, 66.08154
541.3296, 3.456543
541.8117, 19.14453
542.2938, 13.08057
542.7759, 20.28125
543.2581, 77.20508
543.7402, 123.9463
544.2223, 135.8555
544.7044, 130.9634
545.1865, 122.8613
545.6686, 108.6982
546.1508, 102.6089
546.6329, 133.0005
547.1150, 169.8740
547.5971, 158.9868
548.0792, 24.79785
548.5613, 74.59521
549.0435, 95.23438
549.5256, 39.10156
550.0077, 3.288086
550.4898, 6.983887
550.9719, 6.783203
551.4540, 7.077637
551.9362, 8.248535
552.4183, 2.014160
552.9004, 12.92188
553.3825, 34.31689
553.8646, 63.59082
554.3467, 98.48828
554.8289, 125.4399
555.3110, 137.6782
555.7931, 138.7627
556.2752, 129.0728
556.7573, 109.9111
557.2394, 93.35791
557.7216, 89.64648
558.2037, 90.85205
558.6858, 89.96484
559.1679, 85.27930
559.6500, 78.64209
560.1321, 59.44824
560.6143, 40.90723
561.0964, 44.11133
561.5785, 110.0420
562.0606, 154.9409
562.5427, 149.8345
563.0248, 99.90186
563.5070, 89.24365
563.9891, 137.3203
564.4712, 188.8022
564.9533, 205.2793
565.4354, 183.1089
565.9175, 175.5396
566.3997, 190.5220
566.8818, 207.8960
567.3639, 189.7593
567.8460, 144.7417
568.3281, 115.8701
568.8102, 126.7612
569.2924, 157.0054
569.7744, 186.7930
570.2565, 214.3818
570.7386, 230.4668
571.2208, 210.2559
571.7029, 188.1328
572.1850, 198.6201
572.6671, 262.6240
573.1492, 305.8716
573.6313, 281.4272
574.1135, 232.4048
574.5956, 212.3208
575.0777, 258.3823
575.5598, 290.7466
576.0419, 292.9521
576.5240, 272.4692
577.0062, 267.3350
577.4883, 286.9663
577.9704, 298.3994
578.4525, 273.9277
578.9346, 214.4404
579.4167, 198.0376
579.8989, 232.2944
580.3810, 273.5347
580.8631, 258.3711
581.3452, 208.3301
581.8273, 195.1455
582.3094, 262.9868
582.7916, 338.4473
583.2737, 330.1743
583.7558, 265.4023
584.2379, 223.2183
584.7200, 255.2207
585.2021, 309.9448
585.6843, 365.1118
586.1664, 421.0068
586.6485, 458.1484
587.1306, 468.6943
587.6127, 461.6870
588.0948, 442.3120
588.5770, 391.9014
589.0591, 363.5337
589.5412, 362.6157
590.0233, 381.1694
590.5054, 413.2754
590.9875, 468.3735
591.4697, 504.1289
591.9518, 488.4907
592.4339, 437.6582
592.9160, 433.5903
593.3981, 480.0801
593.8802, 527.5376
594.3624, 523.4502
594.8445, 492.6494
595.3266, 479.9907
595.8087, 498.3960
596.2908, 512.4189
596.7729, 492.9023
597.2551, 456.2832
597.7372, 426.9399
598.2193, 419.0625
598.7014, 421.0400
599.1835, 433.4292
599.6656, 451.0459
600.1478, 452.9375
600.6299, 416.1523
601.1120, 386.9097
601.5941, 395.1738
602.0762, 454.7500
602.5583, 462.9932
603.0405, 401.3237
603.5226, 334.5498
604.0047, 343.6230
604.4868, 417.0308
604.9689, 468.3706
605.4510, 481.0381
605.9332, 476.7983
606.4153, 460.2563
606.8974, 434.2900
607.3795, 412.7744
607.8616, 395.6499
608.3438, 391.1587
608.8259, 409.1050
609.3080, 449.8013
609.7901, 496.4507
610.2722, 555.9629
610.7543, 611.2749
611.2365, 648.7524
611.7186, 642.0410
612.2007, 661.9951
612.6828, 720.5762
613.1649, 798.2524
613.6470, 864.3804
614.1292, 915.4067
614.6113, 969.3369
615.0934, 1029.108
615.5755, 1095.090
616.0576, 1170.838
616.5397, 1256.763
617.0219, 1342.344
617.5040, 1431.783
617.9861, 1511.977
618.4682, 1553.054
618.9503, 1550.480
619.4324, 1548.025
619.9146, 1583.558
620.3967, 1632.719
620.8788, 1667.161
621.3609, 1639.284
621.8430, 1652.375
622.3251, 1769.372
622.8073, 1942.757
623.2894, 2064.975
623.7715, 2095.494
624.2536, 2129.931
624.7357, 2193.812
625.2178, 2283.974
625.7000, 2360.202
626.1821, 2420.521
626.6642, 2476.619
627.1463, 2534.278
627.6284, 2594.026
628.1105, 2658.537
628.5927, 2728.191
629.0748, 2803.034
629.5569, 2888.256
630.0390, 2979.072
630.5211, 3064.139
631.0032, 3124.627
631.4854, 3199.341
631.9675, 3325.114
632.4496, 3483.636
632.9317, 3624.964
633.4138, 3693.279
633.8959, 3783.730
634.3781, 3932.499
634.8602, 4140.566
635.3423, 4355.248
635.8244, 4567.708
636.3065, 4797.286
636.7886, 5050.221
637.2708, 5319.940
637.7529, 5652.670
638.2350, 6055.007
638.7171, 6511.900
639.1992, 7009.660
639.6813, 7553.286
640.1635, 8148.291
640.6456, 8785.146
641.1277, 9488.944
641.6098, 10280.23
642.0919, 11155.97
642.5740, 12081.30
643.0562, 13070.32
643.5383, 14088.90
644.0204, 15142.16
644.5025, 16229.08
644.9846, 17300.02
645.4667, 18313.56
645.9489, 19349.30
646.4310, 20437.38
646.9131, 21584.56
647.3952, 22792.30
647.8773, 24049.79
648.3594, 25388.93
648.8416, 26809.92
649.3237, 28328.46
649.8058, 29926.50
650.2879, 31587.27
650.7700, 33341.80
651.2521, 35211.25
651.7343, 37189.73
652.2164, 39256.51
652.6985, 41482.54
653.1806, 43728.93
653.6627, 45948.46
654.1448, 48159.14
654.6270, 50177.23
655.1091, 52098.43
655.5912, 53699.03
656.0733, 54890.43
656.5554, 55768.15
657.0375, 55992.21
657.5197, 55533.89
658.0018, 54460.79
658.4839, 52804.96
658.9660, 50565.11
659.4481, 47930.42
659.9302, 44852.99
660.4123, 41543.03
660.8944, 38272.27
661.3765, 35057.55
661.8586, 31953.49
662.3408, 28901.92
662.8229, 26029.17
663.3050, 23453.93
663.7871, 21165.48
664.2692, 19062.30
664.7513, 17055.69
665.2335, 15238.90
665.7156, 13704.97
666.1977, 12491.69
666.6798, 11367.42
667.1619, 10324.66
667.6440, 9375.014
668.1262, 8562.108
668.6083, 7892.028
669.0904, 7231.879
669.5725, 6554.196
670.0546, 5910.760
670.5367, 5391.577
671.0189, 4976.444
671.5010, 4612.992
671.9831, 4314.545
672.4652, 4034.687
672.9473, 3720.271
673.4294, 3385.546
673.9116, 3086.498
674.3937, 2843.879
674.8758, 2640.290
675.3579, 2478.962
675.8400, 2374.057
676.3221, 2256.733
676.8043, 2118.884
677.2864, 1973.658
677.7685, 1833.195
678.2506, 1698.818
678.7327, 1565.930
679.2148, 1428.275
679.6970, 1309.534
680.1791, 1269.104
680.6612, 1281.494
681.1433, 1254.354
681.6254, 1133.937
682.1075, 987.6709
682.5897, 862.7788
683.0718, 761.6846
683.5539, 683.4795
684.0360, 645.5410
684.5181, 615.7085
685.0002, 577.6123
685.4824, 530.0024
685.9645, 500.0049
686.4466, 505.9292
686.9287, 504.9126
687.4108, 464.9507
687.8929, 378.1392
688.3751, 327.2705
688.8572, 317.3999
689.3393, 325.3579
689.8214, 330.3008
690.3035, 332.6611
690.7856, 332.9316
691.2678, 329.3154
691.7499, 328.3857
692.2320, 344.0776
692.7141, 365.0645
693.1962, 371.7573
693.6783, 332.9604
694.1605, 304.4014
694.6426, 307.9795
695.1247, 338.5186
695.6068, 368.2241
696.0889, 404.8364
696.5710, 426.1284
697.0532, 416.3057
697.5353, 378.7212
698.0174, 370.4341
698.4995, 394.5361
698.9816, 421.7734
699.4637, 427.7827
699.9459, 420.5493
700.4280, 415.0107
700.9101, 411.8608
701.3922, 418.5391
701.8743, 461.3447
702.3564, 507.9326
702.8386, 521.9043
703.3207, 454.7588
703.8028, 409.9658
704.2849, 421.7349
704.7670, 461.9170
705.2491, 486.6875
705.7313, 486.9629
706.2134, 495.4751
706.6955, 526.4658
707.1776, 565.8667
707.6597, 566.3325
708.1418, 528.5635
708.6240, 486.1973
709.1061, 451.3613
709.5882, 425.1953
710.0703, 417.8169
710.5524, 426.4062
711.0345, 422.5283
711.5167, 369.5884
711.9988, 312.9146
712.4809, 285.9009
712.9630, 302.5244
713.4451, 313.8701
713.9272, 327.2549
714.4094, 323.8804
714.8915, 281.9209
715.3736, 186.8906
715.8557, 119.4185
716.3378, 90.93262
716.8199, 78.31299
717.3021, 48.88379
717.7842, 5.627930
718.2663, 41.82666
718.7484, 104.4375
719.2305, 148.7222
719.7126, 125.3364
720.1948, 56.91699
720.6769, 1.545898
721.1590, 49.05566
721.6411, 62.51367
722.1232, 11.10156
722.6053, 96.95410
723.0875, 160.2393
723.5696, 163.8584
724.0517, 148.7900
724.5338, 128.1021
725.0159, 102.5337
725.4980, 84.34033
725.9802, 73.06641
726.4623, 76.32080
726.9444, 124.4668
727.4265, 185.8408
727.9086, 190.8472
728.3907, 121.9463
728.8729, 52.91064
729.3550, 29.62500
729.8371, 31.88477
730.3192, 40.18604
730.8013, 63.84766
731.2834, 73.84473
731.7656, 57.36084
732.2477, 32.96094
732.7298, 33.09766
733.2119, 67.70703
733.6940, 82.94873
734.1761, 65.35010
734.6583, 24.20264
735.1404, 33.52490
735.6225, 101.9019
736.1046, 148.6929
736.5867, 141.6045
737.0688, 117.2100
737.5510, 106.2583
738.0331, 107.4497
738.5152, 112.3677
738.9973, 117.3486
739.4794, 125.7764
739.9615, 143.8247
740.4437, 173.4868
740.9258, 181.1323
741.4079, 152.7212
741.8900, 130.5581
742.3721, 154.2197
742.8542, 218.9053
743.3364, 243.0996
743.8185, 218.4922
744.3006, 194.4360
744.7827, 232.4395
745.2648, 299.7368
745.7469, 345.5161
746.2291, 353.7578
746.7112, 353.0029
747.1933, 339.3516
747.6754, 331.2363
748.1575, 353.7681
748.6396, 443.3911
749.1218, 512.2617
749.6038, 550.8911
750.0859, 566.6978
750.5681, 569.2178
751.0502, 557.1606
751.5323, 551.4346
752.0144, 560.7490
752.4965, 577.9546
752.9786, 590.1924
753.4608, 598.8169
753.9429, 609.3110
754.4250, 611.2065
754.9071, 627.1235
755.3892, 690.2056
755.8713, 793.8027
756.3535, 854.4263
756.8356, 826.5063
757.3177, 786.1313
757.7998, 756.8896
758.2819, 738.4014
758.7640, 741.3511
759.2462, 770.7837
759.7283, 799.4463
760.2104, 797.1733
760.6925, 777.9116
761.1746, 783.9014
761.6567, 819.2192
762.1389, 851.9038
762.6210, 861.5483
763.1031, 855.5225
763.5852, 841.8188
764.0673, 812.3901
764.5494, 787.7974
765.0316, 771.2227
765.5137, 765.3052
765.9958, 773.5850
766.4779, 798.3452
766.9600, 832.1343
767.4421, 882.0918
767.9243, 926.4365
768.4064, 919.4570
768.8885, 873.0078
769.3706, 839.2329
769.8527, 843.0054
770.3348, 856.8037
770.8170, 855.5791
771.2991, 845.5723
771.7812, 841.3320
772.2633, 858.5010
772.7454, 870.4512
773.2275, 866.8472
773.7097, 850.7407
774.1918, 835.9424
774.6739, 820.5049
775.1560, 814.5264
775.6381, 831.2559
776.1202, 856.1821
776.6024, 836.8770
777.0845, 776.9946
777.5666, 718.2656
778.0487, 682.0752
778.5308, 663.2939
779.0129, 661.2773
779.4951, 675.6177
779.9772, 684.4873
780.4593, 676.7017
780.9414, 656.2607
781.4235, 623.5068
781.9056, 571.1489
782.3878, 541.8159
782.8699, 538.9927
783.3520, 554.4707
783.8341, 593.5698
784.3162, 642.3779
784.7983, 638.2983
785.2805, 569.4189
785.7626, 491.9746
786.2447, 452.7544
786.7268, 438.4204
787.2089, 429.7456
787.6910, 422.3149
788.1732, 417.2329
788.6553, 420.1475
789.1374, 421.9971
789.6195, 411.1060
790.1016, 378.8286
790.5837, 363.2046
791.0659, 371.1123
791.5480, 388.5742
792.0301, 397.9609
792.5122, 399.7134
792.9943, 386.8467
793.4764, 341.6602
793.9586, 299.1196
794.4407, 299.7104
794.9228, 326.4399
795.4049, 345.6318
795.8870, 336.2881
796.3691, 331.1631
796.8513, 348.8467
797.3334, 375.2510
797.8155, 361.4995
798.2976, 295.4453
798.7797, 240.7056
799.2618, 217.3862
799.7440, 221.8584
800.2261, 261.4414
800.7082, 327.7754
801.1903, 374.5669
801.6724, 355.2783
802.1545, 322.6685
802.6367, 322.7705
803.1188, 351.9136
803.6009, 360.5508
804.0830, 306.7583
804.5651, 263.6206
805.0472, 265.7305
805.5294, 311.2222
806.0115, 301.3843
806.4936, 226.3921
806.9757, 157.3652
807.4578, 157.8184
807.9399, 196.1431
808.4221, 193.8696
808.9042, 149.3467
809.3863, 113.4580
809.8684, 123.9790
810.3505, 151.1768
810.8326, 174.7207
811.3148, 191.9365
811.7969, 207.4946
812.2790, 226.4907
812.7611, 237.2827
813.2432, 229.4385
813.7253, 202.3481
814.2075, 175.4131
814.6896, 148.9712
815.1717, 123.3306
815.6538, 97.56738
816.1359, 73.43408
816.6180, 54.18555
817.1002, 41.04395
817.5823, 30.65967
818.0644, 10.99414
818.5465, 1.115234
819.0286, 15.11719
819.5107, 100.5347
819.9929, 126.9404
820.4750, 66.36279
820.9571, 14.13330
821.4392, 31.37842
821.9213, 7.941895
822.4034, 54.43799
822.8856, 104.9316
823.3677, 144.5269
823.8498, 147.7324
824.3319, 129.7104
824.8140, 111.0337
825.2961, 86.93555
825.7783, 77.82031
826.2604, 108.6431
826.7425, 147.5176
827.2246, 149.5645
827.7067, 102.3008
828.1888, 65.51904
828.6710, 51.03906
829.1531, 47.28613
829.6352, 32.10791
830.1173, 10.99805
830.5994, 2.466309
831.0815, 22.26416
831.5637, 43.13623
832.0458, 39.17090
832.5279, 24.35938
833.0100, 24.12793
833.4921, 74.28174
833.9742, 99.17188
834.4564, 76.42578
834.9385, 30.16846
835.4206, 25.28027
835.9027, 63.78711
836.3848, 84.77783
836.8669, 66.68555
837.3491, 31.64844
837.8312, 4.996582
838.3133, 12.59912
838.7954, 19.45361
839.2775, 3.8086001E-02
839.7596, 14.71289
840.2417, 0.2666020
840.7238, 30.89355
841.2059, 25.26416
841.6880, 38.71875
842.1702, 83.18115
842.6523, 78.51221
843.1344, 45.90186
843.6165, 46.27148
844.0986, 75.56299
844.5807, 103.7852
845.0629, 114.7588
845.5450, 118.8252
846.0271, 117.0132
846.5092, 113.8203
846.9913, 125.3540
847.4734, 194.4414
847.9556, 233.2656
848.4377, 208.3340
848.9198, 136.6289
849.4019, 96.93799
849.8840, 94.19775
850.3661, 96.89014
850.8483, 85.09668
851.3304, 73.86035
851.8125, 101.2563
852.2946, 157.1177
852.7767, 199.0010
853.2589, 194.0864
853.7410, 181.2964
854.2231, 180.6138
854.7052, 190.0728
855.1873, 191.5688
855.6694, 183.1953
856.1516, 175.0381
856.6337, 174.0630
857.1158, 175.0562
857.5979, 153.4448
858.0800, 112.1060
858.5621, 77.00830
859.0443, 54.52344
859.5264, 51.83740
860.0085, 91.25098
860.4906, 163.2456
860.9727, 207.6860
861.4548, 177.3555
861.9370, 153.7710
862.4191, 166.8623
862.9012, 208.0322
863.3833, 216.6274
863.8654, 191.1118
864.3475, 160.1079
864.8297, 135.3779
865.3118, 116.5420
865.7939, 102.7642
866.2760, 94.25439
866.7581, 90.72266
867.2402, 104.6455
867.7224, 111.1367
868.2045, 86.05029
868.6866, 37.47412
869.1687, 31.44434
869.6508, 84.52100
870.1329, 126.0078
870.6151, 114.0161
871.0972, 71.96191
871.5793, 68.78125
872.0614, 98.91992
872.5435, 130.4233
873.0256, 148.1982
873.5078, 158.0010
873.9899, 161.5806
874.4720, 159.7734
874.9541, 158.9238
875.4362, 173.3237
875.9183, 164.5029
876.4005, 104.4307
876.8826, 14.79395
877.3647, 0.8632810
877.8468, 58.03418
878.3289, 112.7231
878.8110, 128.2256
879.2932, 116.7324
879.7753, 75.79785
880.2574, 14.92236
880.7395, 20.26514
881.2216, 12.02148
881.7037, 41.78516
882.1859, 46.06104
882.6680, 31.37012
883.1501, 26.55566
883.6322, 31.40088
884.1143, 46.50488
884.5964, 82.57617
885.0786, 120.6069
885.5607, 121.2344
886.0428, 95.15723
886.5249, 78.70020
887.0070, 107.4116
887.4891, 129.4731
887.9713, 118.1289
888.4534, 81.79492
888.9355, 48.29980
889.4176, 13.40918
889.8997, 2.458496
890.3818, 14.90625
890.8640, 47.50000
891.3461, 55.43066
891.8282, 42.58643
892.3103, 23.72510
892.7924, 15.64209
893.2745, 37.45850
893.7567, 0.5351560
894.2388, 72.18848
894.7209, 102.6665
895.2030, 63.42822
895.6851, 31.32178
896.1672, 21.21289
896.6494, 25.29541
897.1315, 26.54590
897.6136, 25.30127
898.0957, 28.77539
898.5778, 41.33398
899.0599, 55.41650
899.5421, 70.90967
900.0242, 80.58545
900.5063, 74.03809
900.9884, 22.32178
901.4705, 9.438477
901.9526, 9.684082
902.4348, 8.811035
902.9169, 28.78516
903.3990, 49.65527
903.8811, 57.58984
904.3632, 47.70947
904.8453, 27.59668
905.3275, 8.944336
905.8096, 46.15576
906.2917, 59.37402
906.7738, 10.97607
907.2559, 17.72314
907.7380, 0.2050780
908.2202, 31.62158
908.7023, 36.02490
909.1844, 11.04736
909.6665, 8.309570
910.1486, 17.81982
910.6307, 18.56494
911.1129, 2.261230
911.5950, 18.77979
912.0771, 24.40381
912.5592, 4.682617
913.0413, 15.55957
913.5234, 29.24219
914.0056, 39.63965
914.4877, 49.35010
914.9698, 58.77734
915.4519, 65.62109
915.9340, 69.90186
916.4161, 70.69287
916.8983, 68.21729
917.3804, 61.45703
917.8625, 44.97168
918.3446, 16.20166
918.8267, 3.357910
919.3088, 2.349609
919.7910, 16.52295
920.2731, 29.44678
920.7552, 41.92871
921.2373, 45.21680
921.7194, 36.75244
922.2015, 29.79932
922.6837, 40.50293
923.1658, 58.32031
923.6479, 56.39453
924.1300, 35.09619
924.6121, 18.01270
925.0942, 21.56836
925.5764, 30.06543
926.0585, 35.83252
926.5406, 38.44092
927.0227, 34.71240
927.5048, 22.93994
927.9869, 11.91504
928.4691, 4.022949
928.9511, 0.6635740
929.4332, 7.232422
929.9153, 22.74219
930.3975, 41.56494
930.8796, 72.79004
931.3617, 94.55957
931.8438, 89.62158
932.3259, 63.65088
932.8080, 45.32520
933.2902, 33.07324
933.7723, 35.30078
934.2544, 60.96143
934.7365, 94.32617
935.2186, 100.0796
935.7007, 85.68506
936.1829, 71.26123
936.6650, 58.58057
937.1471, 56.18896
937.6292, 78.99463
938.1113, 112.1978
938.5934, 127.6982
939.0756, 127.5078
939.5577, 109.1816
940.0398, 63.34424
940.5219, 16.40039
941.0040, 17.44775
941.4861, 51.36426
941.9683, 72.90479
942.4504, 67.44922
942.9325, 58.31006
943.4146, 61.92627
943.8967, 67.52002
944.3788, 61.75195
944.8610, 32.83691
945.3431, 23.66699
945.8252, 41.66357
946.3073, 60.22852
946.7894, 46.41504
947.2715, 12.56934
947.7537, 9.444824
948.2358, 15.73584
948.7179, 0.5322270
949.2000, 67.08545
949.6821, 136.3237
950.1642, 167.2373
950.6464, 153.6587
951.1285, 133.6992
951.6106, 105.7153
952.0927, 90.19385
952.5748, 111.5747
953.0569, 152.9741
953.5391, 166.3936
954.0212, 155.0073
954.5033, 141.6782
954.9854, 137.7520
955.4675, 137.2021
955.9496, 133.4102
956.4318, 129.3315
956.9139, 146.5737
957.3960, 196.9727
957.8781, 223.8408
958.3602, 199.0581
958.8423, 150.6240
959.3245, 135.0688
959.8066, 143.5474
960.2887, 148.1475
960.7708, 121.3984
961.2529, 104.5708
961.7350, 121.1738
962.2172, 155.0093
962.6993, 180.5210
963.1814, 199.0327
963.6635, 205.2520
964.1456, 197.0464
964.6277, 190.2124
965.1099, 200.6787
965.5920, 218.2637
966.0741, 225.1577
966.5562, 220.1870
967.0383, 204.6372
967.5204, 151.2520
968.0026, 105.5444
968.4847, 112.2856
968.9668, 191.9360
969.4489, 203.4912
969.9310, 138.8442
970.4131, 69.17529
970.8953, 46.14697
971.3774, 56.82959
971.8595, 90.12646
972.3416, 144.1919
972.8237, 194.2539
973.3058, 251.2705
973.7880, 280.3643
974.2701, 258.2495
974.7522, 193.9863
975.2343, 160.0366
975.7164, 156.8862
976.1985, 163.7822
976.6807, 180.1904
977.1628, 192.9888
977.6449, 182.6025
978.1270, 155.7256
978.6091, 130.3735
979.0912, 94.07129
979.5734, 86.24121
980.0555, 125.9521
980.5376, 184.8550
981.0197, 208.0928
981.5018, 198.4585
981.9839, 193.5112
982.4661, 204.2227
982.9482, 215.0171
983.4303, 200.8369
983.9124, 183.6768
984.3945, 191.9429
984.8766, 260.8843
985.3588, 293.6001
985.8409, 275.9443
986.3230, 245.3198
986.8051, 228.5708
987.2872, 226.3765
987.7693, 250.9766
988.2515, 302.4839
988.7336, 342.2891
989.2157, 344.8149
989.6978, 324.9438
990.1799, 281.4312
990.6620, 214.9160
991.1442, 186.3633
991.6263, 210.1943
992.1084, 226.0215
992.5905, 196.8315
993.0726, 149.9702
993.5547, 157.6382
994.0369, 205.7305
994.5190, 247.6724
995.0011, 266.5068
995.4832, 270.2993
995.9653, 256.4492
996.4474, 231.3091
996.9296, 201.6831
997.4117, 163.0996
997.8938, 148.4814
998.3759, 167.2212
998.8580, 196.4380
999.3401, 217.8828
999.8223, 226.7969
1000.304, 211.4258
1000.786, 156.5356
1001.269, 117.8096
1001.751, 120.8413
1002.233, 133.0957
1002.715, 133.3228
1003.197, 121.0376
1003.679, 125.9434
1004.161, 148.4619
1004.643, 155.2856
1005.126, 94.54199
1005.608, 27.41260
1006.090, 16.57031
1006.572, 58.73340
1007.054, 85.58203
1007.536, 88.09619
1008.018, 75.33496
1008.500, 42.09424
1008.982, 2.121094
1009.465, 6.926758
1009.947, 7.735352
1010.429, 17.45068
1010.911, 2.914551
1011.393, 6.006836
1011.875, 17.66943
1012.357, 53.55615
1012.839, 68.90576
1013.322, 49.49609
1013.804, 59.34473
1014.286, 111.5513
1014.768, 159.8232
1015.250, 144.8989
1015.732, 94.29541
1016.214, 54.66406
1016.696, 30.69482
1017.178, 20.93018
1017.661, 31.86621
1018.143, 51.73584
1018.625, 84.34619
1019.107, 124.6875
1019.589, 100.7446
1020.071, 11.82178
1020.553, 54.03418
1021.035, 39.46777
1021.517, 6.247070
1022.000, 47.16162
1022.482, 82.58789
1022.964, 105.6270
1023.446, 119.4751
1023.928, 108.6978
1024.410, 56.11377
1024.892, 0.5898440
1025.374, 13.36279
1025.857, 77.14697
1026.339, 126.8359
1026.821, 150.8403
1027.303, 162.5635
1027.785, 145.7939
1028.267, 126.4009
1028.749, 137.4878
1029.231, 188.9141
1029.714, 196.8970
1030.196, 152.7192
1030.678, 111.8081
1031.160, 124.2124
1031.642, 157.3638
1032.124, 154.3735
1032.606, 122.5312
1033.088, 99.92822
1033.570, 96.48389
1034.052, 113.8340
1034.535, 163.8521
1035.017, 222.6318
1035.499, 225.4790
1035.981, 177.3096
1036.463, 138.7080
1036.945, 126.4082
1037.427, 121.6284
1037.909, 103.5767
1038.392, 86.05322
1038.874, 85.38818
1039.356, 109.1455
1039.838, 137.9214
1040.320, 175.6318
1040.802, 202.7656
1041.284, 187.7690
1041.766, 153.8174
1042.249, 170.6729
1042.731, 232.2319
1043.213, 273.4072
1043.695, 251.0962
1044.177, 213.6719
1044.659, 170.4902
1045.141, 130.3535
1045.623, 129.0723
1046.105, 167.6768
1046.588, 190.1411
1047.070, 174.0483
1047.552, 149.6445
1048.034, 154.6206
1048.516, 169.6240
1048.998, 167.5444
1049.480, 121.6299
1049.962, 100.9102
1050.444, 116.5762
1050.927, 141.9272
1051.409, 148.0078
1051.891, 143.0688
1052.373, 143.2275
1052.855, 148.9248
1053.337, 157.0635
1053.819, 171.4277
1054.301, 182.2598
1054.784, 186.1807
1055.266, 182.6147
1055.748, 166.4141
1056.230, 136.6172
1056.712, 103.0952
1057.194, 62.61426
1057.676, 34.00146
1058.158, 55.32520
1058.641, 96.97021
1059.123, 114.0913
1059.605, 72.13330
1060.087, 52.27344
1060.569, 61.15479
1061.051, 86.75537
1061.533, 130.9727
1062.015, 183.6982
1062.497, 202.5332
1062.979, 187.7261
1063.462, 162.3325
1063.944, 122.3765
1064.426, 93.21191
1064.908, 102.5195
1065.390, 132.0522
1065.872, 113.7847
1066.354, 40.23877
1066.836, 4.870605
1067.318, 46.89062
1067.801, 109.9121
1068.283, 132.7290
1068.765, 128.8682
1069.247, 114.8706
1069.729, 84.91064
1070.211, 66.35645
1070.693, 62.66357
1071.175, 65.37061
1071.658, 72.66699
1072.140, 80.72314
1072.622, 68.56201
1073.104, 39.62451
1073.586, 25.62451
1074.068, 67.12988
1074.550, 102.1504
1075.032, 89.41455
1075.515, 52.86816
1075.997, 62.59912
1076.479, 122.4878
1076.961, 133.6323
1077.443, 57.88477
1077.925, 27.90186
1078.407, 52.69531
1078.889, 35.02197
1079.371, 6.364746
1079.854, 87.85107
1080.336, 121.4243
1080.818, 88.73438
1081.300, 52.50049
1081.782, 62.10693
1082.264, 97.92188
1082.746, 113.9399
1083.228, 109.9541
1083.710, 85.07568
1084.193, 5.111328
1084.675, 62.16504
1085.157, 42.66602
1085.639, 17.33594
1086.121, 57.65967
1086.603, 78.25537
1087.085, 74.12744
1087.567, 40.09912
1088.050, 7.073730
1088.532, 2.232910
1089.014, 10.41943
1089.496, 21.19629
1089.978, 35.37549
1090.460, 29.98535
1090.942, 2.966797
1091.424, 21.07910
1091.906, 10.82812
1092.389, 62.06982
1092.871, 77.60986
1093.353, 69.01318
1093.835, 66.67383
1094.317, 93.89209
1094.799, 108.8623
1095.281, 106.5879
1095.763, 90.78662
1096.245, 54.32812
1096.728, 4.514160
1097.210, 5.333008
1097.692, 31.93994
1098.174, 72.47168
1098.656, 99.21680
1099.138, 108.9536
1099.620, 90.72363
1100.102, 51.74707
1100.585, 40.99463
1101.067, 59.95410
1101.549, 78.07910
1102.031, 83.04688
1102.513, 84.03223
1102.995, 92.71924
1103.477, 102.9668
1103.959, 104.9209
1104.442, 86.36230
1104.924, 80.84033
1105.406, 92.96191
1105.888, 105.6748
1106.370, 109.6504
1106.852, 101.5679
1107.334, 55.40332
1107.816, 19.41309
1108.298, 50.54395
1108.781, 44.05127
1109.263, 121.8066
1109.745, 140.1812
1110.227, 122.3301
1110.709, 114.1392
1111.191, 115.4883
1111.673, 127.9312
1112.155, 154.8472
1112.637, 179.4316
1113.120, 196.0234
1113.602, 200.4609
1114.084, 186.0459
1114.566, 151.7798
1115.048, 127.7373
1115.530, 113.7295
1116.012, 107.8887
1116.494, 116.2466
1116.977, 126.3296
1117.459, 124.7100
1117.941, 114.5479
1118.423, 102.9067
1118.905, 85.42480
1119.387, 79.87012
1119.869, 92.14111
1120.351, 104.3545
1120.833, 89.01270
1121.316, 61.79639
1121.798, 55.03955
1122.280, 71.73145
1122.762, 85.78320
1123.244, 73.38867
1123.726, 77.22510
1124.208, 121.4497
1124.690, 183.4824
1125.172, 195.3574
1125.655, 165.5645
1126.137, 129.4326
1126.619, 89.54980
1127.101, 66.31689
1127.583, 80.24658
1128.065, 108.8989
1128.547, 132.3970
1129.029, 150.5356
1129.512, 162.0259
1129.994, 166.6763
1130.476, 181.8516
1130.958, 241.3281
1131.440, 296.8188
1131.922, 308.7627
1132.404, 282.8525
1132.886, 238.1421
1133.369, 164.8560
1133.851, 108.2627
1134.333, 72.86475
1134.815, 60.34229
1135.297, 83.68164
1135.779, 122.7354
1136.261, 158.2017
1136.743, 190.6123
1137.225, 207.0977
1137.708, 200.5991
1138.190, 182.7441
1138.672, 150.5996
1139.154, 116.9419
1139.636, 112.5278
1140.118, 131.9614
1140.600, 163.4722
1141.082, 230.3823
1141.564, 256.5723
1142.047, 194.4004
1142.529, 109.4116
1143.011, 54.60645
1143.493, 30.59229
1143.975, 27.62158
1144.457, 44.05518
1144.939, 66.50635
1145.421, 98.24854
1145.904, 121.1372
1146.386, 122.0869
1146.868, 109.0293
1147.350, 94.98682
1147.832, 79.97510
1148.314, 57.46826
1148.796, 24.09766
1149.278, 4.260254
1149.760, 4.383301
1150.243, 4.800293
1150.725, 5.644043
1151.207, 2.976563
1151.689, 5.940918
1152.171, 38.79590
1152.653, 52.95703
1153.135, 17.59033
1153.617, 18.65576
1154.099, 30.32080
1154.582, 111.5845
1155.064, 138.4849
1155.546, 41.33105
1156.028, 3.275391
1156.510, 20.79150
1156.992, 55.66553
1157.474, 53.23926
1157.956, 33.27686
1158.438, 42.02881
1158.921, 71.62012
1159.403, 86.71338
1159.885, 59.90723
1160.367, 36.15381
1160.849, 21.08740
1161.331, 20.78223
1161.813, 41.44824
1162.295, 75.52002
1162.778, 100.2803
1163.260, 112.8320
1163.742, 118.1514
1164.224, 114.4521
1164.706, 108.0190
1165.188, 99.57324
1165.670, 89.42627
1166.152, 78.58496
1166.635, 76.00098
1167.117, 102.4414
1167.599, 184.3174
1168.081, 244.7246
1168.563, 213.1323
1169.045, 161.8701
1169.527, 157.0254
1170.009, 199.6030
1170.491, 214.1904
1170.974, 200.9629
1171.456, 172.9517
1171.938, 112.1655
1172.420, 65.52539
1172.902, 72.97070
1173.384, 114.6846
1173.866, 155.3843
1174.348, 199.8213
1174.830, 208.9136
1175.313, 177.1543
1175.795, 146.0869
1176.277, 153.8257
1176.759, 176.3184
1177.241, 191.3604
1177.723, 199.4595
1178.205, 215.4673
1178.687, 245.4604
1179.170, 256.5586
1179.652, 237.0005
1180.134, 210.0845
1180.616, 204.3281
1181.098, 208.8281
1181.580, 208.4609
1182.062, 199.0479
1182.544, 197.8652
1183.026, 207.0435
1183.509, 222.0923
1183.991, 248.5806
1184.473, 271.6338
1184.955, 253.1982
1185.437, 212.5742
1185.919, 190.0723
1186.401, 215.2461
1186.883, 223.9648
1187.365, 204.0054
1187.848, 186.5874
1188.330, 204.5034
1188.812, 240.2808
1189.294, 250.1191
1189.776, 238.4307
1190.258, 225.0894
1190.740, 211.3325
1191.222, 206.3130
1191.705, 213.5703
1192.187, 225.4277
1192.669, 235.5474
1193.151, 242.4189
1193.633, 238.4292
1194.115, 223.1753
1194.597, 213.1963
1195.079, 230.2612
1195.562, 234.0137
1196.044, 202.9336
1196.526, 158.6797
1197.008, 163.1411
1197.490, 198.7622
1197.972, 196.7031
1198.454, 128.9170
1198.936, 79.51318
1199.418, 115.3477
1199.901, 153.1646
1200.383, 142.7632
1200.865, 97.24414
1201.347, 88.36572
1201.829, 109.4722
1202.311, 125.9160
1202.793, 111.5938
1203.275, 109.0415
1203.757, 163.4844
1204.240, 216.6758
1204.722, 215.4126
1205.204, 159.4941
1205.686, 115.6982
1206.168, 84.43457
1206.650, 72.60449
1207.132, 100.0879
1207.614, 123.6899
1208.097, 119.5479
1208.579, 100.0933
1209.061, 79.13379
1209.543, 60.39795
1210.025, 32.19727
1210.507, 5.172363
1210.989, 19.68896
1211.471, 47.49316
1211.953, 110.2104
1212.436, 94.72949
1212.918, 35.87402
1213.400, 31.33057
1213.882, 79.46143
1214.364, 98.76709
1214.846, 67.23047
1215.328, 30.95020
1215.810, 17.48633
1216.292, 21.97266
1216.775, 56.27832
1217.257, 110.5083
1217.739, 84.18213
1218.221, 20.77344
1218.703, 79.46582
1219.185, 28.21533
1219.667, 41.58447
1220.149, 58.75781
1220.632, 58.49951
1221.114, 79.62354
1221.596, 126.0273
1222.078, 155.8618
1222.560, 169.4292
1223.042, 166.2231
1223.524, 132.7905
1224.006, 96.88867
1224.489, 71.25684
1224.971, 60.11426
1225.453, 73.56104
1225.935, 119.1187
1226.417, 126.2134
1226.899, 91.64111
1227.381, 52.80859
1227.863, 35.75879
1228.345, 26.35059
1228.828, 12.06787
1229.310, 1.723145
1229.792, 2.059082
1230.274, 11.75928
1230.756, 36.26416
1231.238, 73.49072
1231.720, 93.88037
1232.202, 49.36133
1232.684, 1.476074
1233.167, 10.32080
1233.649, 16.21582
1234.131, 55.65967
1234.613, 109.6553
1235.095, 124.9253
1235.577, 79.20947
1236.059, 39.77783
1236.541, 81.71191
1237.024, 141.1572
1237.506, 157.9678
1237.988, 145.8354
1238.470, 113.4702
1238.952, 60.67773
1239.434, 49.89795
1239.916, 126.4990
1240.398, 193.6030
1240.880, 149.6650
1241.363, 49.88916
1241.845, 0.1743160
1242.327, 4.381348
1242.809, 40.27588
1243.291, 133.2910
1243.773, 195.2910
1244.255, 165.7905
1244.737, 116.7695
1245.219, 80.74072
1245.702, 63.43311
1246.184, 81.30566
1246.666, 140.5264
1247.148, 142.9292
1247.630, 93.49316
1248.112, 44.59717
1248.594, 15.10498
1249.076, 11.81299
1249.558, 38.45801
1250.041, 71.04980
1250.523, 85.27832
1251.005, 80.64551
1251.487, 73.39648
1251.969, 67.12891
1252.451, 70.97607
1252.933, 84.36816
1253.415, 100.7910
1253.898, 127.7227
1254.380, 153.7183
1254.862, 172.8169
1255.344, 188.8979
1255.826, 188.1514
1256.308, 161.0439
1256.790, 137.3037
1257.272, 142.8726
1257.755, 151.1006
1258.237, 151.0630
1258.719, 147.0884
1259.201, 136.3530
1259.683, 120.9702
1260.165, 121.3623
1260.647, 150.7725
1261.129, 157.5547
1261.611, 63.93604
1262.094, 2.084961
1262.576, 42.59424
1263.058, 83.40967
1263.540, 0.0000000E+00
##END=



