##NAMES=Gahnite
##RRUFFID=R040027
##IDEAL CHEMISTRY=ZnAl_2_O_4_
##LOCALITY=Rowe, Franklin County, Massachusetts, USA
##OWNER=RRUFF
##SOURCE=University of Arizona Mineral Museum
##DESCRIPTION=Dark blue octahedral single crystals embedded in quartz matrix
##STATUS=The identification of this mineral has been confirmed by X-ray diffraction and chemical analysis
##URL=rruff.info/R040027
##MEASURED CHEMISTRY=(Zn_0.83_Fe_0.11_Mg_0.06_)_Σ=1_(Al_0.96_Fe_0.04_)_Σ=2_O_4_
124.7438, 0.0000000E+00
125.2259, 1.3046000E-02
125.7081, 0.1175230
126.1902, 1.543579
126.6723, 2.563339
127.1544, 2.860626
127.6365, 2.954025
128.1186, 3.450150
128.6008, 4.593475
129.0829, 7.274826
129.5650, 9.000397
130.0471, 11.00423
130.5292, 12.18521
131.0113, 11.26312
131.4935, 8.633774
131.9756, 5.797363
132.4577, 2.680649
132.9398, 0.2001950
133.4219, 0.9694520
133.9040, 0.5167390
134.3862, 2.738098
134.8683, 4.263123
135.3504, 5.113144
135.8325, 5.482452
136.3146, 5.063416
136.7967, 4.026535
137.2789, 4.282700
137.7610, 6.117142
138.2431, 8.532990
138.7252, 10.44200
139.2073, 11.95615
139.6894, 12.48344
140.1716, 11.52007
140.6537, 8.774948
141.1358, 6.662399
141.6179, 5.143524
142.1000, 4.222198
142.5821, 4.030838
143.0643, 4.870636
143.5464, 5.784348
144.0285, 6.363052
144.5106, 6.394257
144.9927, 6.629105
145.4748, 7.053665
145.9570, 7.680084
146.4391, 8.608063
146.9212, 10.45258
147.4033, 11.87337
147.8854, 12.21028
148.3675, 10.56468
148.8497, 9.220703
149.3318, 8.040527
149.8139, 7.124268
150.2960, 7.226654
150.7781, 9.566895
151.2602, 12.06010
151.7424, 13.56274
152.2245, 13.28612
152.7066, 12.94283
153.1887, 12.50883
153.6708, 12.01862
154.1529, 11.82587
154.6351, 12.51396
155.1172, 13.17712
155.5993, 13.21227
156.0814, 12.04865
156.5635, 10.77264
157.0456, 9.334473
157.5278, 7.756607
158.0099, 6.895935
158.4920, 7.437424
158.9741, 8.532166
159.4562, 9.424988
159.9383, 9.743820
160.4205, 10.01466
160.9026, 10.50609
161.3847, 11.25824
161.8668, 11.74371
162.3489, 11.67323
162.8310, 11.27492
163.3132, 10.81256
163.7953, 10.50853
164.2774, 10.05841
164.7595, 9.218231
165.2416, 7.903824
165.7237, 6.659531
166.2059, 5.618744
166.6880, 4.822525
167.1701, 4.335129
167.6522, 4.326096
168.1343, 4.542236
168.6164, 4.840271
169.0985, 5.226105
169.5807, 5.593781
170.0628, 6.016006
170.5449, 6.385208
171.0270, 6.439590
171.5091, 6.114044
171.9912, 5.424957
172.4734, 4.182709
172.9555, 2.159653
173.4376, 0.3555600
173.9197, 0.3846130
174.4018, 0.2301940
174.8839, 0.3207090
175.3661, 1.288681
175.8482, 2.380920
176.3303, 3.196426
176.8124, 3.626617
177.2945, 3.885468
177.7766, 4.215286
178.2588, 4.582809
178.7409, 4.841858
179.2230, 4.565155
179.7051, 4.164352
180.1872, 4.458008
180.6693, 5.758911
181.1515, 7.514664
181.6336, 9.185883
182.1157, 10.73347
182.5978, 11.84622
183.0799, 12.24910
183.5620, 12.07626
184.0442, 11.59955
184.5263, 10.63133
185.0084, 9.709793
185.4905, 10.06516
185.9726, 11.64183
186.4547, 13.04086
186.9369, 12.90237
187.4190, 11.58955
187.9011, 10.60205
188.3832, 10.28426
188.8653, 10.41287
189.3474, 10.51364
189.8296, 10.58374
190.3117, 10.73238
190.7938, 10.92935
191.2759, 11.19284
191.7580, 12.00876
192.2401, 13.72894
192.7223, 15.81551
193.2044, 16.45396
193.6865, 15.48160
194.1686, 14.34000
194.6507, 14.72311
195.1328, 16.53160
195.6150, 17.44209
196.0971, 16.73477
196.5792, 14.75858
197.0613, 12.62788
197.5434, 10.22306
198.0255, 8.262207
198.5077, 7.752434
198.9898, 8.748070
199.4719, 9.750999
199.9540, 10.46500
200.4361, 10.86099
200.9182, 10.84321
201.4004, 10.34656
201.8825, 9.740387
202.3646, 9.263527
202.8467, 8.853310
203.3288, 8.833488
203.8109, 9.458588
204.2931, 10.61896
204.7752, 11.25115
205.2573, 11.23297
205.7394, 11.03842
206.2215, 11.31587
206.7036, 12.24996
207.1858, 12.92072
207.6679, 13.14565
208.1500, 12.92862
208.6321, 12.14812
209.1142, 10.51478
209.5963, 8.866264
210.0785, 8.235718
210.5606, 8.797394
211.0427, 9.384590
211.5248, 10.03104
212.0069, 10.71761
212.4890, 10.11967
212.9712, 7.678963
213.4533, 4.798546
213.9354, 3.132370
214.4175, 3.046860
214.8996, 3.005585
215.3817, 2.498459
215.8639, 1.523537
216.3460, 1.534096
216.8281, 3.106865
217.3102, 4.902786
217.7923, 5.239677
218.2744, 3.387917
218.7565, 1.994209
219.2387, 1.926605
219.7208, 3.227669
220.2029, 3.531883
220.6850, 2.258224
221.1671, 0.6806790
221.6492, 0.3268430
222.1314, 1.809708
222.6135, 3.089058
223.0956, 3.571754
223.5777, 3.215363
224.0598, 3.369110
224.5419, 4.396950
225.0241, 5.537460
225.5062, 5.919533
225.9883, 5.116875
226.4704, 4.430489
226.9525, 4.134285
227.4346, 4.233719
227.9168, 4.598740
228.3989, 5.447556
228.8810, 6.315010
229.3631, 6.666374
229.8452, 6.187164
230.3273, 5.849358
230.8095, 5.990990
231.2916, 6.650459
231.7737, 6.652069
232.2558, 5.672234
232.7379, 4.376968
233.2200, 3.433090
233.7022, 2.909416
234.1843, 2.617027
234.6664, 2.634735
235.1485, 2.970833
235.6306, 2.976425
236.1127, 2.503929
236.5949, 1.849800
237.0770, 1.272659
237.5591, 0.7510990
238.0412, 0.3580930
238.5233, 0.1172560
239.0054, 2.3452999E-02
239.4876, 2.0020001E-02
239.9697, 0.1056670
240.4518, 1.8738000E-02
240.9339, 0.4415280
241.4160, 1.582787
241.8981, 2.526688
242.3803, 3.183182
242.8624, 3.547668
243.3445, 3.403152
243.8266, 2.440041
244.3087, 1.319618
244.7908, 0.5750580
245.2730, 0.2992860
245.7551, 0.2138440
246.2372, 0.2678070
246.7193, 0.4670790
247.2014, 0.9873810
247.6835, 2.207428
248.1657, 3.279549
248.6478, 3.482079
249.1299, 2.353920
249.6120, 1.354324
250.0941, 0.6220630
250.5762, 0.1546780
251.0584, 5.6357998E-02
251.5405, 4.5630999E-02
252.0226, 0.3326030
252.5047, 0.7549740
252.9868, 1.452934
253.4689, 1.987106
253.9511, 2.402924
254.4332, 2.640594
254.9153, 2.272919
255.3974, 0.9612050
255.8795, 0.4242250
256.3616, 1.349030
256.8438, 1.762543
257.3259, 1.842079
257.8080, 1.468727
258.2901, 0.7806400
258.7722, 0.3612140
259.2543, 0.4531400
259.7365, 0.4031520
260.2186, 0.3550720
260.7007, 2.413780
261.1828, 3.275627
261.6649, 2.284172
262.1470, 0.1737750
262.6292, 0.8599850
263.1113, 0.5257420
263.5934, 0.3095860
264.0755, 1.331703
264.5576, 2.724838
265.0397, 3.697327
265.5219, 4.319641
266.0040, 4.470825
266.4861, 3.628777
266.9682, 1.201408
267.4503, 0.6637570
267.9324, 0.6272890
268.4146, 1.974907
268.8967, 3.299858
269.3788, 2.941978
269.8609, 1.719475
270.3430, 1.241409
270.8251, 1.739853
271.3073, 2.279160
271.7894, 2.311104
272.2715, 1.789650
272.7536, 1.664856
273.2357, 2.054008
273.7178, 2.667358
274.2000, 3.121948
274.6821, 3.442833
275.1642, 3.498703
275.6463, 3.091850
276.1284, 2.219482
276.6105, 1.906525
277.0927, 2.316193
277.5748, 2.943405
278.0569, 3.107109
278.5390, 2.749046
279.0211, 2.404358
279.5032, 2.236488
279.9854, 2.243828
280.4675, 2.247246
280.9496, 2.275955
281.4317, 2.246147
281.9138, 1.948929
282.3959, 1.384209
282.8781, 1.207680
283.3602, 1.822639
283.8423, 2.925705
284.3244, 3.012329
284.8065, 1.930107
285.2886, 0.8000180
285.7708, 0.7039110
286.2529, 1.591484
286.7350, 2.599876
287.2171, 3.773041
287.6992, 4.793877
288.1813, 4.411385
288.6635, 2.539680
289.1456, 0.8300400
289.6277, 0.8131710
290.1098, 2.238129
290.5919, 3.430168
291.0740, 4.141693
291.5562, 4.482719
292.0383, 4.611885
292.5204, 4.535179
293.0025, 4.328743
293.4846, 4.085808
293.9667, 3.759048
294.4489, 3.074448
294.9310, 1.863586
295.4131, 0.6671140
295.8952, 0.4731830
296.3773, 1.130516
296.8594, 1.673447
297.3416, 1.091682
297.8237, 5.0262000E-02
298.3058, 0.3844450
298.7879, 2.484184
299.2700, 4.716187
299.7521, 4.921165
300.2343, 3.591484
300.7164, 2.287453
301.1985, 1.590363
301.6806, 1.422646
302.1627, 1.926666
302.6448, 3.167786
303.1270, 4.195656
303.6091, 3.784607
304.0912, 2.535622
304.5733, 1.674957
305.0554, 2.145622
305.5375, 3.019058
306.0197, 3.170517
306.5018, 2.635254
306.9839, 2.124763
307.4660, 2.196960
307.9481, 2.620384
308.4302, 3.068588
308.9124, 3.520882
309.3945, 3.910767
309.8766, 4.207779
310.3587, 4.400642
310.8408, 4.432800
311.3229, 4.240692
311.8051, 3.882523
312.2872, 3.396851
312.7693, 2.679245
313.2514, 2.015053
313.7335, 1.490440
314.2156, 1.095154
314.6978, 0.8378370
315.1799, 0.8731690
315.6620, 1.001541
316.1441, 1.082848
316.6262, 1.071442
317.1083, 0.9729610
317.5905, 0.6853260
318.0726, 0.3817290
318.5547, 0.2668840
319.0368, 0.4925080
319.5189, 0.8430630
320.0010, 1.306396
320.4832, 1.941299
320.9653, 2.210464
321.4474, 1.624710
321.9295, 0.6861950
322.4116, 1.9774999E-02
322.8937, 0.4946140
323.3759, 0.4786380
323.8580, 0.5690920
324.3401, 2.729958
324.8222, 4.076759
325.3043, 3.878555
325.7864, 2.986244
326.2686, 2.067757
326.7507, 0.9588850
327.2328, 6.9747999E-02
327.7149, 1.229980
328.1970, 2.430237
328.6791, 2.808952
329.1613, 1.474846
329.6434, 1.8302999E-02
330.1255, 0.7455600
330.6076, 4.0932000E-02
331.0897, 0.2201310
331.5718, 0.2847520
332.0540, 1.246307
332.5361, 1.772682
333.0182, 1.613159
333.5003, 1.357506
333.9824, 1.267288
334.4645, 1.497749
334.9467, 1.398521
335.4288, 0.7641220
335.9109, 5.3932000E-02
336.3930, 0.4236680
336.8751, 0.1243210
337.3572, 8.8402003E-02
337.8394, 0.1420750
338.3215, 0.8610230
338.8036, 0.8304520
339.2857, 0.2739720
339.7678, 1.563301
340.2499, 1.963440
340.7320, 1.278900
341.2141, 0.8783340
341.6963, 1.233604
342.1784, 2.091759
342.6605, 2.147705
343.1426, 1.246155
343.6247, 0.2614210
344.1068, 8.3816998E-02
344.5890, 0.1880340
345.0711, 0.5139470
345.5532, 0.7647630
346.0353, 1.088814
346.5174, 2.057327
346.9995, 3.654884
347.4817, 4.772873
347.9638, 4.394135
348.4459, 2.933113
348.9280, 1.846809
349.4101, 1.227043
349.8922, 1.057922
350.3744, 1.490829
350.8565, 2.413979
351.3386, 3.408546
351.8207, 4.637283
352.3028, 5.683655
352.7849, 5.604073
353.2671, 4.370667
353.7492, 3.183800
354.2313, 3.234756
354.7134, 4.028625
355.1955, 4.705612
355.6776, 4.961876
356.1598, 4.994507
356.6419, 4.813026
357.1240, 4.472420
357.6061, 4.306458
358.0882, 4.641647
358.5703, 5.193558
359.0525, 5.709457
359.5346, 6.215775
360.0167, 6.519394
360.4988, 6.221916
360.9809, 5.624573
361.4630, 5.395485
361.9452, 6.386833
362.4273, 7.386848
362.9094, 7.622925
363.3915, 6.831581
363.8736, 6.101974
364.3557, 5.687927
364.8379, 5.562866
365.3200, 5.700485
365.8021, 6.445335
366.2842, 7.108971
366.7663, 7.578148
367.2484, 7.852661
367.7306, 7.716827
368.2127, 6.645805
368.6948, 5.471214
369.1769, 4.736725
369.6590, 4.876732
370.1411, 4.954948
370.6233, 5.043190
371.1054, 5.059761
371.5875, 4.653023
372.0696, 3.403069
372.5517, 2.244186
373.0338, 1.549377
373.5160, 1.391647
373.9981, 1.523125
374.4802, 2.116280
374.9623, 2.861755
375.4444, 3.282036
375.9265, 3.372437
376.4087, 3.125580
376.8908, 2.326851
377.3729, 1.013359
377.8550, 0.5722050
378.3371, 1.133362
378.8192, 2.231140
379.3014, 3.621048
379.7835, 5.350288
380.2656, 6.560486
380.7477, 7.025955
381.2298, 6.919861
381.7119, 6.430496
382.1941, 5.531059
382.6762, 4.900269
383.1583, 5.122414
383.6404, 6.020813
384.1225, 6.887749
384.6046, 7.628784
385.0868, 8.426987
385.5689, 9.505478
386.0510, 10.76642
386.5331, 12.04659
387.0152, 13.35179
387.4973, 14.70728
387.9795, 16.17588
388.4616, 17.75879
388.9437, 19.29845
389.4258, 20.65794
389.9079, 21.94437
390.3900, 23.33188
390.8722, 24.70213
391.3543, 26.14653
391.8364, 27.63315
392.3185, 29.17723
392.8006, 30.98360
393.2827, 32.78519
393.7649, 35.15561
394.2470, 38.72048
394.7291, 44.29527
395.2112, 49.47487
395.6933, 52.51603
396.1754, 54.63545
396.6576, 57.84109
397.1397, 63.07472
397.6218, 69.13007
398.1039, 75.67214
398.5860, 82.66235
399.0681, 90.03056
399.5503, 98.70999
400.0324, 107.2510
400.5145, 114.5002
400.9966, 119.9066
401.4787, 124.8869
401.9608, 129.3551
402.4430, 133.4614
402.9251, 137.7526
403.4072, 142.2081
403.8893, 146.9013
404.3714, 151.7557
404.8535, 156.6777
405.3357, 162.2091
405.8178, 168.1632
406.2999, 174.8781
406.7820, 182.8685
407.2641, 192.2206
407.7462, 202.2915
408.2284, 212.7304
408.7105, 223.6404
409.1926, 236.5869
409.6747, 251.6355
410.1568, 268.2240
410.6389, 286.5176
411.1211, 306.0828
411.6032, 325.4554
412.0853, 344.6514
412.5674, 363.1761
413.0495, 381.6235
413.5316, 399.6985
414.0138, 415.3982
414.4959, 430.6949
414.9780, 442.0509
415.4601, 444.4195
415.9422, 437.5602
416.4243, 421.5962
416.9065, 393.3326
417.3886, 356.7094
417.8707, 318.0554
418.3528, 275.9061
418.8349, 235.5552
419.3170, 199.0338
419.7992, 166.2419
420.2813, 138.4805
420.7634, 116.8300
421.2455, 99.29673
421.7276, 84.79137
422.2097, 73.59428
422.6919, 63.96045
423.1740, 55.43173
423.6561, 48.15454
424.1382, 42.14855
424.6203, 38.21792
425.1024, 34.93059
425.5846, 31.88515
426.0667, 29.06004
426.5488, 27.01352
427.0309, 26.33162
427.5130, 25.89043
427.9951, 24.84740
428.4773, 22.65925
428.9594, 21.11599
429.4415, 20.68667
429.9236, 20.81876
430.4057, 19.92516
430.8878, 17.59785
431.3700, 15.52898
431.8521, 14.62643
432.3342, 14.89044
432.8163, 14.61652
433.2984, 13.70767
433.7805, 12.60384
434.2627, 11.63630
434.7448, 10.83731
435.2269, 10.59072
435.7090, 11.19320
436.1911, 12.19578
436.6732, 12.79424
437.1554, 12.99899
437.6375, 12.86121
438.1196, 12.44649
438.6017, 11.70033
439.0838, 10.34722
439.5659, 8.206352
440.0480, 6.261040
440.5302, 5.651291
441.0123, 5.740494
441.4944, 5.460236
441.9765, 3.493813
442.4586, 1.756119
442.9407, 1.681694
443.4229, 3.094528
443.9050, 4.402473
444.3871, 4.972244
444.8692, 5.195900
445.3513, 5.387985
445.8334, 6.058067
446.3156, 5.865768
446.7977, 3.741493
447.2798, 0.7364430
447.7619, 1.292191
448.2440, 1.718773
448.7261, 1.678047
449.2083, 1.269478
449.6904, 0.4622880
450.1725, 0.1678470
450.6546, 0.8136440
451.1367, 1.038139
451.6188, 0.2717970
452.1010, 2.078804
452.5831, 3.316238
453.0652, 2.895767
453.5473, 1.555290
454.0294, 1.009567
454.5115, 1.360870
454.9937, 1.659576
455.4758, 1.401337
455.9579, 0.7010190
456.4400, 0.2722850
456.9221, 0.1485900
457.4042, 5.0223999E-02
457.8864, 0.7665560
458.3685, 1.864021
458.8506, 3.026222
459.3327, 4.317436
459.8148, 5.378624
460.2969, 5.493370
460.7791, 4.950478
461.2612, 4.699821
461.7433, 5.377022
462.2254, 6.511993
462.7075, 7.902618
463.1896, 9.605095
463.6718, 10.78932
464.1539, 10.44479
464.6360, 9.615944
465.1181, 9.345436
465.6002, 10.61377
466.0823, 11.70647
466.5645, 11.86352
467.0466, 11.41663
467.5287, 11.64580
468.0108, 13.34912
468.4929, 15.16240
468.9750, 16.61833
469.4572, 17.64891
469.9393, 18.55286
470.4214, 19.30825
470.9035, 19.94571
471.3856, 20.48051
471.8677, 20.87808
472.3499, 21.27481
472.8320, 21.67938
473.3141, 22.11392
473.7962, 22.80434
474.2783, 23.84039
474.7604, 24.49602
475.2426, 24.06000
475.7247, 22.76276
476.2068, 22.04648
476.6889, 22.00916
477.1710, 22.29268
477.6531, 22.64949
478.1353, 22.87758
478.6174, 22.76280
479.0995, 22.29385
479.5816, 21.65294
480.0637, 20.80452
480.5458, 19.79073
481.0280, 18.94904
481.5101, 18.61223
481.9922, 18.58536
482.4743, 18.71709
482.9564, 18.98795
483.4385, 19.26164
483.9207, 19.53482
484.4028, 19.73343
484.8849, 19.78557
485.3670, 19.30338
485.8491, 19.09100
486.3312, 19.37509
486.8134, 20.06322
487.2955, 20.77784
487.7776, 21.89468
488.2597, 22.71048
488.7418, 22.73918
489.2239, 21.56947
489.7061, 21.17130
490.1882, 22.02961
490.6703, 23.09286
491.1524, 22.89101
491.6345, 21.15508
492.1166, 20.26854
492.5988, 20.93292
493.0809, 22.48566
493.5630, 23.23846
494.0451, 23.21532
494.5272, 23.01916
495.0093, 22.84988
495.4915, 22.79056
495.9736, 23.24872
496.4557, 24.28547
496.9378, 24.98241
497.4199, 23.92972
497.9020, 22.14603
498.3842, 21.24573
498.8663, 22.13254
499.3484, 23.41075
499.8305, 24.07497
500.3126, 24.42686
500.7947, 25.25554
501.2769, 27.46010
501.7590, 29.70438
502.2411, 31.36258
502.7232, 32.34441
503.2053, 33.19485
503.6874, 33.65883
504.1696, 34.21906
504.6517, 35.23973
505.1338, 37.08765
505.6159, 38.60100
506.0980, 39.85841
506.5801, 40.82303
507.0623, 41.41414
507.5444, 41.74118
508.0265, 41.42905
508.5086, 40.14520
508.9907, 38.00760
509.4728, 36.05461
509.9550, 34.16714
510.4371, 32.42702
510.9192, 31.17886
511.4013, 30.30328
511.8834, 29.06390
512.3655, 27.24362
512.8477, 25.16315
513.3298, 22.96239
513.8119, 20.84380
514.2940, 19.20462
514.7761, 18.53633
515.2582, 18.15997
515.7404, 17.63647
516.2225, 16.95641
516.7046, 16.17981
517.1867, 14.92879
517.6688, 13.85579
518.1509, 13.52895
518.6331, 14.60962
519.1152, 14.99158
519.5973, 13.53746
520.0794, 11.50374
520.5615, 10.49986
521.0436, 11.19698
521.5258, 11.88048
522.0079, 12.37953
522.4900, 12.66440
522.9721, 12.54887
523.4542, 11.94264
523.9363, 11.20383
524.4185, 10.41362
524.9006, 9.573532
525.3827, 9.204987
525.8648, 9.398468
526.3469, 9.608688
526.8290, 9.148041
527.3112, 8.179352
527.7933, 7.307922
528.2754, 6.658264
528.7575, 6.194763
529.2396, 5.879929
529.7217, 5.711014
530.2039, 5.680054
530.6860, 6.117889
531.1681, 6.437927
531.6502, 6.098480
532.1323, 5.088730
532.6144, 4.167221
533.0966, 4.052521
533.5787, 3.856079
534.0608, 2.856140
534.5429, 0.3304290
535.0250, 2.227356
535.5071, 1.578339
535.9893, 0.1528470
536.4714, 0.8126980
536.9535, 0.2882540
537.4356, 1.100494
537.9177, 0.9967800
538.3998, 0.2038270
538.8820, 0.2226260
539.3641, 1.196350
539.8462, 2.310776
540.3283, 3.124725
540.8104, 3.649185
541.2925, 3.945602
541.7747, 4.000214
542.2568, 3.922501
542.7389, 3.826920
543.2210, 3.689392
543.7031, 3.415436
544.1852, 2.814880
544.6674, 2.334183
545.1495, 2.724136
545.6316, 3.581451
546.1137, 3.899277
546.5958, 2.609894
547.0779, 1.180786
547.5601, 0.4277950
548.0422, 0.4120640
548.5243, 0.3719480
549.0064, 0.2315060
549.4885, 4.3334998E-02
549.9706, 0.5050810
550.4528, 1.492935
550.9349, 1.969482
551.4170, 1.542282
551.8991, 0.9207150
552.3812, 1.259781
552.8633, 2.837524
553.3455, 4.234924
553.8276, 5.085266
554.3097, 5.535629
554.7918, 6.020859
555.2739, 6.531509
555.7560, 7.091461
556.2382, 7.829544
556.7203, 8.605453
557.2024, 9.021866
557.6845, 9.051178
558.1666, 9.130035
558.6487, 9.717224
559.1309, 10.53329
559.6130, 11.19504
560.0951, 11.52478
560.5772, 11.86351
561.0593, 12.45706
561.5414, 13.15921
562.0236, 13.70110
562.5057, 13.49673
562.9878, 13.67113
563.4699, 14.81432
563.9520, 16.78876
564.4341, 18.23138
564.9163, 19.01122
565.3984, 19.43854
565.8805, 19.60492
566.3626, 19.45044
566.8447, 19.39142
567.3268, 19.41611
567.8090, 19.56647
568.2911, 20.02069
568.7732, 20.72226
569.2553, 21.12146
569.7374, 21.10014
570.2195, 20.75128
570.7017, 19.89685
571.1838, 18.76781
571.6659, 18.10655
572.1480, 18.92674
572.6301, 19.88564
573.1122, 19.68840
573.5944, 18.45454
574.0765, 17.38081
574.5586, 16.80144
575.0407, 16.68958
575.5228, 17.15654
576.0049, 18.59303
576.4871, 19.52437
576.9692, 19.45683
577.4513, 19.08286
577.9334, 19.11353
578.4155, 19.98167
578.8976, 20.11386
579.3798, 18.88382
579.8619, 17.16136
580.3440, 17.38846
580.8261, 19.74364
581.3082, 21.73273
581.7903, 22.04720
582.2725, 21.29327
582.7546, 21.20503
583.2367, 21.74460
583.7188, 22.46130
584.2009, 22.99219
584.6830, 23.50974
585.1652, 24.31358
585.6473, 25.50365
586.1294, 26.56638
586.6115, 27.05603
587.0936, 27.33464
587.5757, 27.77608
588.0578, 28.84650
588.5399, 29.64526
589.0220, 29.64989
589.5042, 29.29938
589.9863, 29.62904
590.4684, 31.07680
590.9505, 32.50443
591.4326, 33.73402
591.9147, 34.72960
592.3969, 34.91991
592.8790, 34.02621
593.3611, 33.38799
593.8432, 34.27997
594.3253, 36.21194
594.8074, 36.61487
595.2896, 35.23978
595.7717, 33.92876
596.2538, 34.76933
596.7359, 36.84932
597.2180, 38.59438
597.7001, 39.56955
598.1823, 40.15091
598.6644, 40.38707
599.1465, 40.44939
599.6286, 40.62421
600.1107, 41.06834
600.5928, 41.57541
601.0750, 41.96736
601.5571, 42.31577
602.0392, 43.13721
602.5213, 44.50233
603.0034, 46.19931
603.4855, 48.21909
603.9677, 50.65685
604.4498, 52.79623
604.9319, 54.51709
605.4140, 56.35262
605.8961, 58.90009
606.3782, 62.05049
606.8604, 64.83647
607.3425, 67.12566
607.8246, 69.15973
608.3067, 70.76453
608.7888, 72.34999
609.2709, 74.80412
609.7531, 79.10982
610.2352, 83.59109
610.7173, 87.23483
611.1994, 90.21245
611.6815, 93.02455
612.1636, 95.24275
612.6458, 97.91910
613.1279, 101.7260
613.6100, 106.6848
614.0921, 111.2539
614.5742, 115.4229
615.0563, 119.2883
615.5385, 122.7813
616.0206, 125.7900
616.5027, 129.4055
616.9848, 133.8176
617.4669, 138.2552
617.9490, 141.7645
618.4312, 144.4459
618.9133, 146.6042
619.3954, 148.1444
619.8775, 149.6624
620.3596, 151.8679
620.8417, 154.6727
621.3239, 157.7129
621.8060, 162.0663
622.2881, 165.4220
622.7702, 165.8809
623.2523, 164.1172
623.7344, 162.8107
624.2166, 162.8277
624.6987, 163.1665
625.1808, 163.6801
625.6629, 164.4575
626.1450, 164.4406
626.6271, 163.4901
627.1093, 161.8551
627.5914, 159.6136
628.0735, 156.6991
628.5556, 153.4677
629.0377, 149.9675
629.5198, 146.3518
630.0020, 142.6062
630.4841, 138.8298
630.9662, 135.3304
631.4483, 132.2097
631.9304, 129.3578
632.4125, 126.6001
632.8947, 124.0787
633.3768, 122.0087
633.8589, 120.7406
634.3410, 119.7240
634.8231, 118.7122
635.3052, 117.7449
635.7874, 117.0634
636.2695, 115.9712
636.7516, 115.9960
637.2337, 117.8523
637.7158, 121.6344
638.1979, 125.2397
638.6801, 128.3617
639.1622, 132.2027
639.6443, 138.0819
640.1264, 145.7032
640.6085, 152.7404
641.0906, 158.7982
641.5728, 165.3350
642.0549, 174.2513
642.5370, 184.7097
643.0191, 195.3687
643.5012, 205.9438
643.9833, 216.5095
644.4655, 227.1246
644.9476, 237.7953
645.4297, 248.9473
645.9118, 260.2694
646.3939, 272.4238
646.8760, 285.4711
647.3582, 299.4774
647.8403, 314.2218
648.3224, 329.5302
648.8045, 346.3453
649.2866, 365.3866
649.7687, 386.5768
650.2509, 407.6575
650.7330, 428.8096
651.2151, 449.8515
651.6972, 470.3291
652.1793, 490.8546
652.6614, 512.5433
653.1436, 535.6009
653.6257, 557.7440
654.1078, 578.0592
654.5899, 595.7455
655.0720, 610.3672
655.5541, 622.5876
656.0363, 629.8016
656.5184, 631.4749
657.0005, 627.5051
657.4826, 617.5716
657.9647, 601.1172
658.4468, 579.9680
658.9290, 553.8954
659.4111, 523.4836
659.8932, 489.3235
660.3753, 450.9620
660.8574, 412.4810
661.3395, 374.6867
661.8217, 338.2195
662.3038, 304.5873
662.7859, 273.7303
663.2680, 245.2934
663.7501, 219.1593
664.2322, 195.3243
664.7144, 173.4524
665.1965, 153.5440
665.6786, 135.7659
666.1607, 120.7822
666.6428, 107.5139
667.1249, 95.29698
667.6071, 83.95815
668.0892, 74.08223
668.5713, 66.11366
669.0534, 59.04504
669.5355, 51.96925
670.0176, 44.69746
670.4998, 38.56654
670.9819, 33.85608
671.4640, 29.90984
671.9461, 25.70322
672.4282, 21.46599
672.9103, 17.80139
673.3925, 14.97346
673.8746, 12.65356
674.3567, 10.73073
674.8388, 9.072601
675.3209, 7.408813
675.8030, 5.433258
676.2852, 3.652908
676.7673, 2.381073
677.2494, 1.518539
677.7315, 0.4479980
678.2136, 1.219055
678.6957, 2.590332
679.1779, 3.238922
679.6600, 3.215698
680.1421, 3.584106
680.6242, 4.433945
681.1063, 5.186127
681.5884, 5.301910
682.0706, 5.004822
682.5527, 5.104813
683.0348, 5.658234
683.5169, 6.093872
683.9990, 6.067368
684.4811, 5.630112
684.9633, 4.724091
685.4454, 3.105377
685.9275, 1.785599
686.4096, 1.268127
686.8917, 1.138031
687.3738, 0.9547420
687.8560, 0.7448120
688.3381, 0.4262240
688.8202, 0.1278690
689.3023, 0.4049990
689.7844, 1.651093
690.2665, 3.655151
690.7487, 5.931503
691.2308, 8.526123
691.7129, 11.06023
692.1950, 12.80759
692.6771, 13.94232
693.1592, 15.13202
693.6414, 16.74397
694.1235, 18.50218
694.6056, 20.31667
695.0877, 22.10988
695.5698, 23.63585
696.0519, 24.59825
696.5341, 25.48579
697.0162, 26.43709
697.4983, 27.45291
697.9804, 28.74835
698.4625, 30.47653
698.9446, 32.18526
699.4268, 33.66077
699.9089, 34.90726
700.3910, 35.76955
700.8731, 36.22604
701.3552, 36.58195
701.8373, 37.18320
702.3195, 37.84221
702.8016, 38.17931
703.2837, 38.10155
703.7658, 38.02335
704.2479, 38.56003
704.7300, 39.02721
705.2122, 38.73869
705.6943, 36.91975
706.1764, 35.41518
706.6585, 34.72849
707.1406, 34.15625
707.6227, 32.73758
708.1049, 30.16869
708.5870, 28.00935
709.0691, 26.55812
709.5512, 25.52376
710.0333, 24.41960
710.5154, 23.28070
710.9976, 22.39012
711.4797, 22.28375
711.9618, 21.88161
712.4439, 19.47606
712.9260, 15.89853
713.4081, 13.09877
713.8903, 12.56792
714.3724, 12.24463
714.8545, 11.26520
715.3366, 9.738525
715.8187, 8.570724
716.3008, 8.067780
716.7830, 7.380463
717.2651, 6.129105
717.7472, 4.403580
718.2293, 2.924149
718.7114, 1.685730
719.1935, 0.7830050
719.6757, 0.3497010
720.1578, 0.2620390
720.6399, 0.3659820
721.1220, 0.6377110
721.6041, 0.8225100
722.0862, 0.6808930
722.5684, 0.4384460
723.0505, 0.2371370
723.5326, 8.6425997E-02
724.0147, 2.5238000E-02
724.4968, 3.4988001E-02
724.9789, 7.8156002E-02
725.4611, 0.5251010
725.9432, 1.438019
726.4253, 2.187187
726.9074, 2.785828
727.3895, 3.199287
727.8716, 3.174423
728.3538, 2.896942
728.8359, 3.228355
729.3180, 4.440681
729.8001, 5.671814
730.2822, 5.936363
730.7643, 5.817230
731.2465, 6.122787
731.7286, 7.572304
732.2107, 8.697052
732.6928, 8.422539
733.1749, 7.825928
733.6570, 8.613419
734.1392, 11.65388
734.6213, 14.08683
735.1034, 15.37257
735.5855, 16.02769
736.0676, 16.95627
736.5497, 18.13171
737.0319, 19.49281
737.5140, 21.12859
737.9961, 22.80055
738.4782, 24.28088
738.9603, 25.54567
739.4424, 26.55280
739.9246, 26.81826
740.4067, 27.29420
740.8888, 28.57367
741.3709, 30.47167
741.8530, 32.12605
742.3351, 33.36559
742.8173, 34.63166
743.2994, 36.01237
743.7815, 37.54216
744.2636, 39.47607
744.7457, 41.79871
745.2278, 44.44131
745.7100, 47.50513
746.1921, 50.76787
746.6742, 53.80173
747.1563, 56.62050
747.6384, 59.18707
748.1205, 61.35431
748.6027, 63.41624
749.0848, 65.58606
749.5669, 67.87775
750.0490, 70.00899
750.5311, 72.01366
751.0132, 73.77832
751.4954, 75.22517
751.9775, 76.33677
752.4596, 77.39513
752.9417, 78.38021
753.4238, 79.46601
753.9059, 81.15878
754.3881, 83.02696
754.8702, 83.84142
755.3523, 83.49297
755.8344, 82.98814
756.3165, 84.15022
756.7986, 84.83148
757.2808, 82.43887
757.7629, 75.06713
758.2450, 70.35120
758.7271, 71.61211
759.2092, 74.18314
759.6913, 74.96377
760.1735, 73.55109
760.6556, 72.01358
761.1377, 70.48329
761.6198, 68.55545
762.1019, 65.29813
762.5840, 61.23228
763.0662, 58.27058
763.5483, 56.88616
764.0304, 55.77339
764.5125, 53.76149
764.9946, 51.48970
765.4767, 49.72652
765.9589, 48.95173
766.4410, 48.25937
766.9231, 47.44659
767.4052, 46.54912
767.8873, 45.65091
768.3694, 44.86569
768.8516, 43.80028
769.3337, 42.39091
769.8158, 40.73933
770.2979, 38.73508
770.7800, 36.59061
771.2621, 35.11864
771.7443, 34.77458
772.2264, 34.56735
772.7085, 33.50602
773.1906, 32.07068
773.6727, 30.91859
774.1548, 30.56480
774.6370, 30.16688
775.1191, 29.47241
775.6012, 28.62312
776.0833, 27.87426
776.5654, 27.32635
777.0475, 26.50021
777.5297, 25.21923
778.0118, 23.84676
778.4939, 22.90808
778.9760, 22.30290
779.4581, 21.74595
779.9402, 21.13226
780.4224, 20.50375
780.9045, 19.84029
781.3866, 19.18405
781.8687, 18.63420
782.3508, 18.43069
782.8329, 18.07362
783.3151, 17.42333
783.7972, 16.59644
784.2793, 15.84373
784.7614, 15.20341
785.2435, 14.47912
785.7256, 13.43113
786.2077, 12.47108
786.6898, 12.93568
787.1719, 14.37871
787.6541, 15.10988
788.1362, 13.72106
788.6183, 12.03487
789.1004, 11.28384
789.5825, 11.16190
790.0646, 10.96325
790.5468, 10.49909
791.0289, 10.01764
791.5110, 9.563889
791.9931, 9.134155
792.4752, 8.815361
792.9573, 8.647629
793.4395, 8.170647
793.9216, 6.989662
794.4037, 5.620743
794.8858, 5.131027
795.3679, 5.307182
795.8500, 5.527336
796.3322, 5.287766
796.8143, 5.202202
797.2964, 5.976357
797.7785, 7.277954
798.2606, 7.585548
798.7427, 5.822151
799.2249, 4.512428
799.7070, 4.399994
800.1891, 5.088951
800.6712, 5.214615
801.1533, 4.769691
801.6354, 4.346436
802.1176, 4.203102
802.5997, 4.214813
803.0818, 4.269348
803.5639, 4.332878
804.0460, 4.300636
804.5281, 4.233063
805.0103, 3.948715
805.4924, 3.135330
805.9745, 1.987938
806.4566, 1.353256
806.9387, 1.416786
807.4208, 1.636642
807.9030, 1.933372
808.3851, 2.220375
808.8672, 2.338974
809.3493, 2.322487
809.8314, 2.342133
810.3135, 2.617561
810.7957, 2.848808
811.2778, 2.694504
811.7599, 2.230827
812.2420, 1.677063
812.7241, 0.9535450
813.2062, 0.3418880
813.6884, 0.1425700
814.1705, 0.4762270
814.6526, 0.4031980
815.1347, 0.1575390
815.6168, 0.9558410
816.0989, 2.120163
816.5811, 3.260780
817.0632, 3.456741
817.5453, 2.860046
818.0274, 2.075798
818.5095, 1.128548
818.9916, 0.3399430
819.4738, 4.0442999E-02
819.9559, 8.8737004E-02
820.4380, 3.8300001E-03
820.9201, 0.3276820
821.4022, 0.6063080
821.8843, 0.8867490
822.3665, 1.029503
822.8486, 0.4523320
823.3307, 0.8737340
823.8128, 1.739632
824.2949, 1.632263
824.7770, 1.018196
825.2592, 0.3853610
825.7413, 0.1911540
826.2234, 0.5569460
826.7055, 0.6008150
827.1876, 0.4837110
827.6697, 0.1913380
828.1519, 0.2106400
828.6340, 0.6373370
829.1161, 1.337402
829.5982, 1.359032
830.0803, 0.2168660
830.5624, 1.264458
831.0446, 1.288223
831.5267, 0.1103590
832.0088, 0.9245450
832.4909, 1.457863
832.9730, 1.509171
833.4551, 0.5580830
833.9373, 0.7241290
834.4194, 1.254501
834.9015, 0.3954850
835.3836, 1.295792
835.8657, 0.6802140
836.3478, 0.5379640
836.8300, 0.9293900
837.3121, 0.3930280
837.7942, 4.5876000E-02
838.2763, 0.1040950
838.7584, 0.3252790
839.2405, 0.3491210
839.7227, 0.2550740
840.2048, 0.2716600
840.6869, 0.5696950
841.1690, 0.7523800
841.6511, 0.4754260
842.1332, 4.9484000E-02
842.6154, 0.1607740
843.0975, 0.1829380
843.5796, 0.1868520
844.0617, 1.197433
844.5438, 2.142654
845.0259, 1.977989
845.5081, 0.9467470
845.9902, 0.1977840
846.4723, 9.5856003E-02
846.9544, 2.0919999E-02
847.4365, 0.5685270
847.9186, 1.377983
848.4008, 2.137619
848.8829, 3.000038
849.3650, 3.252899
849.8471, 2.386093
850.3292, 1.337601
850.8113, 0.7737350
851.2935, 0.7538680
851.7756, 0.8348850
852.2577, 1.057938
852.7398, 1.071335
853.2219, 7.4615002E-02
853.7040, 1.129829
854.1862, 1.048004
854.6683, 0.5570070
855.1504, 1.935913
855.6325, 2.121803
856.1146, 1.951942
856.5967, 1.958427
857.0789, 2.179680
857.5610, 2.295876
858.0431, 2.283691
858.5252, 2.245705
859.0073, 2.216919
859.4894, 2.217857
859.9716, 2.324860
860.4537, 2.523033
860.9358, 2.659615
861.4179, 2.503937
861.9000, 2.357712
862.3821, 2.572227
862.8643, 3.119919
863.3464, 3.187920
863.8285, 2.507370
864.3106, 1.709747
864.7927, 0.8451840
865.2748, 6.1615001E-02
865.7570, 0.4197460
866.2391, 1.837914
866.7212, 2.833679
867.2033, 2.210083
867.6854, 1.091942
868.1675, 0.6083370
868.6497, 0.6183930
869.1318, 0.7389600
869.6139, 1.096519
870.0960, 1.222374
870.5781, 0.7450560
871.0602, 6.7276001E-02
871.5424, 0.4082180
872.0245, 1.945427
872.5066, 2.752960
872.9887, 2.024597
873.4708, 0.8490370
873.9529, 0.9636840
874.4351, 1.860245
874.9172, 2.408501
875.3993, 1.854195
875.8814, 1.465538
876.3635, 2.011002
876.8456, 2.847672
877.3278, 3.040771
877.8099, 2.284943
878.2920, 1.859322
878.7741, 1.940636
879.2562, 2.207550
879.7383, 2.260445
880.2205, 2.166763
880.7026, 2.133621
881.1847, 2.169998
881.6668, 2.101677
882.1489, 1.693176
882.6310, 1.332024
883.1132, 1.416245
883.5953, 2.286278
884.0774, 2.520737
884.5595, 1.849342
885.0416, 1.045181
885.5237, 0.6961590
886.0059, 0.7232970
886.4880, 0.7727200
886.9701, 0.8145600
887.4522, 0.8142170
887.9343, 0.5561520
888.4164, 0.4203800
888.8986, 0.9481050
889.3807, 2.152222
889.8628, 2.805267
890.3449, 2.484848
890.8270, 2.045921
891.3091, 1.857285
891.7913, 1.848061
892.2734, 1.587082
892.7555, 1.058281
893.2376, 0.6510930
893.7197, 0.9050830
894.2018, 1.310890
894.6840, 1.208054
895.1661, 0.7443470
895.6482, 0.3479610
896.1303, 1.2436000E-02
896.6124, 2.3735000E-02
897.0945, 0.4181370
897.5767, 1.085739
898.0588, 1.397881
898.5409, 1.344025
899.0230, 1.455597
899.5051, 1.955215
899.9872, 2.378304
900.4694, 1.923531
900.9515, 1.065773
901.4336, 0.6451190
901.9157, 1.233765
902.3978, 1.560135
902.8799, 0.9617920
903.3621, 0.1752550
903.8442, 0.2208400
904.3263, 0.2117610
904.8084, 0.2598650
905.2905, 1.345543
905.7726, 2.206734
906.2548, 1.656693
906.7369, 0.5075000
907.2190, 0.1861570
907.7011, 1.2253000E-02
908.1832, 1.143913
908.6653, 1.790619
909.1475, 1.983139
909.6296, 0.3657840
910.1117, 1.087204
910.5938, 0.8712230
911.0759, 0.5912170
911.5580, 1.538673
912.0402, 8.7196000E-02
912.5223, 1.105812
913.0044, 1.185448
913.4865, 1.700386
913.9686, 1.271477
914.4507, 1.132996
914.9329, 1.937538
915.4150, 2.219894
915.8971, 1.681213
916.3792, 2.220375
916.8613, 0.8332820
917.3434, 1.137772
917.8256, 1.322639
918.3077, 1.001358
918.7898, 0.9972310
919.2719, 1.199394
919.7540, 1.370514
920.2361, 1.504723
920.7183, 1.448753
921.2004, 0.8538130
921.6825, 0.1991650
922.1646, 2.9829999E-03
922.6467, 0.5291140
923.1288, 0.6221240
923.6110, 0.1982730
924.0931, 0.1973040
924.5752, 0.1314850
925.0573, 0.3412550
925.5394, 1.351105
926.0215, 2.883224
926.5037, 3.971901
926.9858, 4.077255
927.4679, 3.600967
927.9500, 2.493477
928.4321, 0.8472370
928.9142, 0.2743070
929.3964, 0.8085330
929.8785, 0.7933880
930.3606, 5.0510000E-03
930.8427, 1.076027
931.3248, 1.318886
931.8069, 0.9213940
932.2891, 0.4913940
932.7712, 4.3870001E-03
933.2533, 0.1489720
933.7354, 0.5306090
934.2175, 1.570000
934.6996, 2.003693
935.1818, 1.623161
935.6639, 1.343735
936.1460, 1.285172
936.6281, 1.357697
937.1102, 1.577606
937.5923, 1.797516
938.0745, 1.681641
938.5566, 1.070168
939.0387, 0.6290210
939.5208, 0.8246080
940.0029, 1.217308
940.4850, 1.484238
940.9672, 1.601112
941.4493, 1.752907
941.9314, 1.919724
942.4135, 2.179482
942.8956, 2.869064
943.3777, 3.573586
943.8599, 3.271400
944.3420, 2.160782
944.8241, 1.281868
945.3062, 1.512711
945.7883, 1.671967
946.2704, 1.064621
946.7526, 6.3156001E-02
947.2347, 0.3119200
947.7168, 3.5332002E-02
948.1989, 0.3353500
948.6810, 0.3467480
949.1631, 0.3330150
949.6453, 0.7234340
950.1274, 1.354691
950.6095, 1.945618
951.0916, 2.531227
951.5737, 2.835640
952.0558, 2.385132
952.5380, 1.907288
953.0201, 2.106102
953.5022, 3.167000
953.9843, 3.253166
954.4664, 2.237267
954.9485, 1.356575
955.4307, 2.116028
955.9128, 3.295212
956.3949, 3.131790
956.8770, 1.667084
957.3591, 0.5006180
957.8412, 6.0196001E-02
958.3234, 0.1795040
958.8055, 0.9974370
959.2876, 2.263466
959.7697, 3.095703
960.2518, 3.487366
960.7339, 3.435379
961.2161, 2.737152
961.6982, 1.934929
962.1803, 1.574524
962.6624, 1.574783
963.1445, 1.764870
963.6266, 2.474800
964.1088, 2.727051
964.5909, 2.237122
965.0730, 1.598053
965.5551, 1.402931
966.0372, 1.636742
966.5193, 2.083092
967.0015, 2.728745
967.4836, 3.148155
967.9657, 2.877586
968.4478, 2.360825
968.9299, 1.887863
969.4120, 1.498482
969.8942, 1.336670
970.3763, 1.477402
970.8584, 1.726433
971.3405, 2.056328
971.8226, 2.418320
972.3047, 2.867744
972.7869, 3.288391
973.2690, 3.161362
973.7511, 1.757393
974.2332, 0.5275800
974.7153, 0.2729720
975.1974, 0.6338200
975.6796, 1.116364
976.1617, 1.850052
976.6438, 2.226128
977.1259, 2.159462
977.6080, 1.928116
978.0901, 1.764565
978.5723, 1.660286
979.0544, 1.613136
979.5365, 1.620567
980.0186, 1.611382
980.5007, 1.411743
980.9828, 1.341927
981.4650, 1.659409
981.9471, 2.256477
982.4291, 2.501862
982.9113, 2.384064
983.3934, 2.084030
983.8755, 1.590019
984.3576, 1.070946
984.8397, 0.6542820
985.3218, 0.3944930
985.8040, 0.4066010
986.2861, 1.049759
986.7682, 1.467392
987.2503, 1.413475
987.7324, 1.266655
988.2145, 1.425339
988.6967, 1.839142
989.1788, 2.319031
989.6609, 2.859619
990.1430, 3.253059
990.6251, 3.095634
991.1072, 2.892853
991.5894, 3.336205
992.0715, 4.389648
992.5536, 4.527412
993.0357, 3.271835
993.5178, 1.894539
993.9999, 0.5512770
994.4821, 0.3720170
994.9642, 0.7176280
995.4463, 3.126137
995.9284, 4.415428
996.4105, 3.106110
996.8926, 1.651093
997.3748, 1.075691
997.8569, 1.199738
998.3390, 1.901466
998.8211, 3.625999
999.3032, 4.111359
999.7853, 3.092964
1000.267, 2.061493
1000.750, 2.756966
1001.232, 4.044861
1001.714, 3.817436
1002.196, 2.226158
1002.678, 1.228714
1003.160, 2.304108
1003.642, 3.280853
1004.124, 3.487991
1004.607, 3.144592
1005.089, 2.774719
1005.571, 2.401276
1006.053, 2.142326
1006.535, 2.014618
1007.017, 2.045532
1007.499, 2.437927
1007.981, 2.912315
1008.463, 3.156960
1008.946, 3.134743
1009.428, 2.690590
1009.910, 1.510109
1010.392, 0.5507350
1010.874, 0.6530840
1011.356, 1.512512
1011.838, 2.229942
1012.320, 2.752098
1012.802, 2.729965
1013.285, 1.303757
1013.767, 2.5169000E-02
1014.249, 0.1981050
1014.731, 0.2394030
1015.213, 0.5585330
1015.695, 0.7775270
1016.177, 0.7142790
1016.659, 0.2669830
1017.142, 0.1693570
1017.624, 7.7331997E-02
1018.106, 0.3174130
1018.588, 0.7943650
1019.070, 1.393021
1019.552, 1.527458
1020.034, 0.4844440
1020.516, 0.2515870
1020.998, 0.1713790
1021.481, 1.466164
1021.963, 2.053955
1022.445, 2.014427
1022.927, 1.879524
1023.409, 1.935982
1023.891, 2.010880
1024.373, 1.991264
1024.855, 1.878761
1025.338, 1.515182
1025.820, 0.5810930
1026.302, 0.4194640
1026.784, 1.320259
1027.266, 2.296425
1027.748, 2.075768
1028.230, 1.319168
1028.712, 1.406136
1029.194, 2.355438
1029.677, 2.811012
1030.159, 1.742920
1030.641, 0.6283190
1031.123, 0.1149440
1031.605, 0.4654240
1032.087, 0.2077790
1032.569, 0.6190030
1033.051, 1.319435
1033.534, 1.623207
1034.016, 1.842728
1034.498, 2.431404
1034.980, 3.017166
1035.462, 3.108437
1035.944, 2.392868
1036.426, 1.877708
1036.908, 1.591980
1037.391, 1.432060
1037.873, 1.265060
1038.355, 1.188599
1038.837, 1.653320
1039.319, 2.500015
1039.801, 3.000305
1040.283, 2.566528
1040.765, 2.011391
1041.247, 1.465363
1041.729, 1.037964
1042.212, 0.9280470
1042.694, 1.142197
1043.176, 1.458672
1043.658, 1.887436
1044.140, 2.314270
1044.622, 2.584396
1045.104, 2.829407
1045.586, 3.426552
1046.069, 4.466202
1046.551, 4.239365
1047.033, 1.905449
1047.515, 0.3724210
1047.997, 1.146744
1048.479, 3.051163
1048.961, 3.665413
1049.443, 3.298500
1049.926, 2.694542
1050.408, 1.804420
1050.890, 1.272278
1051.372, 1.642456
1051.854, 2.224266
1052.336, 2.433449
1052.818, 2.229088
1053.300, 2.492294
1053.782, 3.261307
1054.265, 3.805779
1054.747, 3.359810
1055.229, 2.682083
1055.711, 2.363754
1056.193, 2.352272
1056.675, 2.414688
1057.157, 2.658012
1057.639, 2.637054
1058.121, 2.218994
1058.604, 1.655602
1059.086, 1.244469
1059.568, 0.9869920
1060.050, 0.9441450
1060.532, 1.112663
1061.014, 1.303093
1061.496, 1.647690
1061.978, 1.858543
1062.461, 1.765350
1062.943, 1.432533
1063.425, 1.036865
1063.907, 0.6231610
1064.389, 0.6779330
1064.871, 1.716171
1065.353, 2.682068
1065.835, 2.651657
1066.318, 2.135933
1066.800, 1.807838
1067.282, 1.821617
1067.764, 1.616158
1068.246, 1.149971
1068.728, 0.6665190
1069.210, 0.1613850
1069.692, 0.1364590
1070.174, 0.4359890
1070.656, 1.594452
1071.139, 2.243874
1071.621, 1.484261
1072.103, 0.8624730
1072.585, 0.6456530
1073.067, 0.6786880
1073.549, 0.7193680
1074.031, 0.7976230
1074.513, 1.162163
1074.996, 1.865753
1075.478, 2.393555
1075.960, 2.088921
1076.442, 1.798302
1076.924, 2.240334
1077.406, 3.224846
1077.888, 3.482361
1078.370, 2.968117
1078.853, 2.416069
1079.335, 2.113022
1079.817, 1.763161
1080.299, 0.6606290
1080.781, 0.5287630
1081.263, 0.8347320
1081.745, 0.4265440
1082.227, 1.170387
1082.709, 1.202805
1083.192, 1.185860
1083.674, 1.808823
1084.156, 2.608704
1084.638, 2.166748
1085.120, 0.8209530
1085.602, 0.2505110
1086.084, 0.5776820
1086.566, 0.5345150
1087.048, 0.1674960
1087.531, 0.4505080
1088.013, 1.471306
1088.495, 2.798088
1088.977, 3.175926
1089.459, 2.517387
1089.941, 1.706116
1090.423, 1.157585
1090.905, 0.7954480
1091.387, 0.5942540
1091.870, 0.5512620
1092.352, 0.6763530
1092.834, 0.9933850
1093.316, 1.296448
1093.798, 1.561150
1094.280, 1.719345
1094.762, 1.627014
1095.244, 1.409622
1095.727, 1.197273
1096.209, 0.9986270
1096.691, 0.9022140
1097.173, 0.8684080
1097.655, 1.058159
1098.137, 1.705566
1098.619, 2.458260
1099.101, 2.443153
1099.583, 1.851234
1100.066, 1.150566
1100.548, 0.2867580
1101.030, 0.2775040
1101.512, 0.3564220
1101.994, 0.1583790
1102.476, 0.3338550
1102.958, 1.064934
1103.440, 0.9594730
1103.922, 0.1294250
1104.405, 0.1935880
1104.887, 1.416267
1105.369, 3.007126
1105.851, 3.531250
1106.333, 3.263130
1106.815, 2.703278
1107.297, 1.760162
1107.779, 1.265938
1108.262, 1.350784
1108.744, 1.419960
1109.226, 0.6061550
1109.708, 0.2646100
1110.190, 0.2730030
1110.672, 0.5566710
1111.154, 1.277420
1111.636, 1.946846
1112.119, 2.108521
1112.601, 1.471840
1113.083, 0.7112880
1113.565, 1.109695
1114.047, 2.007301
1114.529, 2.040886
1115.011, 0.7453460
1115.493, 0.2119140
1115.975, 1.795601
1116.458, 2.797737
1116.940, 1.730629
1117.422, 0.5298000
1117.904, 1.128418
1118.386, 0.4218140
1118.868, 0.3620990
1119.350, 0.7973940
1119.832, 1.203018
1120.314, 1.746468
1120.797, 2.283150
1121.279, 2.719093
1121.761, 3.053368
1122.243, 3.259972
1122.725, 3.339134
1123.207, 3.250648
1123.689, 2.800591
1124.171, 2.353462
1124.654, 2.111397
1125.136, 2.051552
1125.618, 2.110741
1126.100, 2.295967
1126.582, 2.662376
1127.064, 3.275833
1127.546, 3.487274
1128.028, 2.057602
1128.510, 0.5050660
1128.993, 0.8389890
1129.475, 2.631157
1129.957, 3.176880
1130.439, 1.632431
1130.921, 0.7880020
1131.403, 1.234444
1131.885, 2.127007
1132.367, 2.473663
1132.849, 2.493767
1133.332, 2.599464
1133.814, 2.845375
1134.296, 2.674149
1134.778, 1.366508
1135.260, 0.7085270
1135.742, 1.459312
1136.224, 2.900536
1136.706, 3.631943
1137.189, 3.802612
1137.671, 3.829529
1138.153, 3.846886
1138.635, 3.519989
1139.117, 2.257813
1139.599, 1.272255
1140.081, 1.212967
1140.563, 1.805771
1141.046, 1.544685
1141.528, 0.6523280
1142.010, 0.2817920
1142.492, 1.254929
1142.974, 2.216652
1143.456, 2.512238
1143.938, 2.398201
1144.420, 2.050850
1144.902, 1.467056
1145.385, 1.375381
1145.867, 1.730003
1146.349, 1.862831
1146.831, 0.8325580
1147.313, 1.9745000E-02
1147.795, 0.7304230
1148.277, 2.075211
1148.759, 2.287086
1149.241, 1.015816
1149.724, 0.3209230
1150.206, 0.3429180
1150.688, 0.8567280
1151.170, 2.220276
1151.652, 3.474472
1152.134, 3.475266
1152.616, 2.570160
1153.098, 2.232109
1153.581, 2.854996
1154.063, 2.842110
1154.545, 1.842979
1155.027, 0.8689800
1155.509, 1.422768
1155.991, 2.535454
1156.473, 2.966797
1156.955, 2.659378
1157.438, 2.389320
1157.920, 2.200142
1158.402, 2.165817
1158.884, 2.319298
1159.366, 2.535492
1159.848, 2.681107
1160.330, 2.742661
1160.812, 2.663712
1161.294, 2.385231
1161.776, 2.077370
1162.259, 1.818703
1162.741, 1.572868
1163.223, 1.234322
1163.705, 0.9210430
1164.187, 0.9407500
1164.669, 1.193924
1165.151, 1.461678
1165.633, 1.709282
1166.116, 1.876900
1166.598, 1.838501
1167.080, 1.878403
1167.562, 2.230965
1168.044, 2.724098
1168.526, 2.504265
1169.008, 1.776833
1169.490, 1.368217
1169.973, 1.718681
1170.455, 2.141891
1170.937, 2.607140
1171.419, 2.853333
1171.901, 2.564743
1172.383, 1.845314
1172.865, 1.424278
1173.347, 1.334229
1173.829, 1.727592
1174.312, 3.341270
1174.794, 4.658684
1175.276, 4.745689
1175.758, 4.337044
1176.240, 4.311043
1176.722, 4.637581
1177.204, 4.231422
1177.686, 3.141319
1178.168, 2.211006
1178.651, 1.835136
1179.133, 1.907578
1179.615, 2.585724
1180.097, 3.580940
1180.579, 4.704208
1181.061, 5.953537
1181.543, 5.974869
1182.025, 4.674728
1182.508, 3.578537
1182.990, 4.246353
1183.472, 5.036812
1183.954, 4.664505
1184.436, 3.676781
1184.918, 3.357819
1185.400, 3.748604
1185.882, 4.067230
1186.365, 4.209396
1186.847, 4.242302
1187.329, 4.230606
1187.811, 4.119095
1188.293, 3.615662
1188.775, 2.975784
1189.257, 3.305496
1189.739, 4.708954
1190.221, 5.718597
1190.703, 6.083046
1191.186, 5.842705
1191.668, 4.301712
1192.150, 2.757095
1192.632, 2.643906
1193.114, 3.779282
1193.596, 4.062233
1194.078, 3.389458
1194.560, 2.833916
1195.043, 2.698875
1195.525, 2.747749
1196.007, 2.876350
1196.489, 2.975769
1196.971, 2.863670
1197.453, 2.533813
1197.935, 2.537933
1198.417, 2.919357
1198.900, 3.269951
1199.382, 3.384438
1199.864, 3.555084
1200.346, 4.502380
1200.828, 5.444000
1201.310, 5.320389
1201.792, 3.930885
1202.274, 2.828720
1202.756, 1.992020
1203.239, 1.674454
1203.721, 2.215469
1204.203, 2.937950
1204.685, 3.533897
1205.167, 3.630508
1205.649, 2.394844
1206.131, 0.7872470
1206.613, 1.903809
1207.095, 0.7419660
1207.578, 0.4777680
1208.060, 0.4043350
1208.542, 1.1917000E-02
1209.024, 0.3332520
1209.506, 1.056084
1209.988, 1.778976
1210.470, 2.710899
1210.952, 2.486198
1211.435, 0.9173580
1211.917, 0.2766880
1212.399, 0.4031220
1212.881, 1.587959
1213.363, 1.959457
1213.845, 1.794411
1214.327, 1.607239
1214.809, 1.482521
1215.292, 1.148636
1215.774, 0.5623320
1216.256, 0.1275560
1216.738, 0.3988420
1217.220, 0.7338560
1217.702, 0.2761230
1218.184, 0.5187680
1218.666, 0.6079330
1219.148, 0.3276440
1219.630, 0.7754440
1220.113, 0.6323550
1220.595, 0.3898850
1221.077, 0.3965450
1221.559, 0.5126040
1222.041, 0.5629120
1222.523, 0.6470110
1223.005, 0.9884260
1223.487, 1.604599
1223.970, 2.592247
1224.452, 4.050400
1224.934, 4.919426
1225.416, 3.725929
1225.898, 2.090347
1226.380, 1.194458
1226.862, 1.018608
1227.344, 1.324753
1227.827, 2.243919
1228.309, 2.701767
1228.791, 2.577850
1229.273, 2.392784
1229.755, 2.826172
1230.237, 3.161064
1230.719, 2.670303
1231.201, 1.609352
1231.683, 0.6343690
1232.166, 0.3100200
1232.648, 0.3552400
1233.130, 0.6233980
1233.612, 1.954750
1234.094, 3.802505
1234.576, 5.139664
1235.058, 4.803452
1235.540, 3.446976
1236.022, 2.534248
1236.505, 2.064407
1236.987, 2.196373
1237.469, 2.988640
1237.951, 3.618340
1238.433, 3.205544
1238.915, 2.661880
1239.397, 2.558319
1239.879, 2.773331
1240.362, 3.127136
1240.844, 3.596901
1241.326, 3.819641
1241.808, 3.722786
1242.290, 3.666283
1242.772, 4.043205
1243.254, 4.364304
1243.736, 4.304276
1244.219, 4.047279
1244.701, 4.164650
1245.183, 4.536125
1245.665, 4.106209
1246.147, 2.615730
1246.629, 1.865295
1247.111, 3.646980
1247.593, 5.355179
1248.075, 5.375984
1248.557, 4.482193
1249.040, 4.714104
1249.522, 5.732635
1250.004, 6.091736
1250.486, 5.601967
1250.968, 5.140350
1251.450, 5.384499
1251.932, 5.349655
1252.414, 4.479813
1252.897, 3.376541
1253.379, 3.867531
1253.861, 5.360954
1254.343, 5.884590
1254.825, 5.055672
1255.307, 4.524666
1255.789, 5.014412
1256.271, 5.599014
1256.754, 6.062836
1257.236, 6.402023
1257.718, 6.566505
1258.200, 6.615959
1258.682, 6.738632
1259.164, 6.995796
1259.646, 6.777191
1260.128, 5.751442
1260.610, 4.676178
1261.093, 3.444153
1261.575, 2.549370
1262.057, 3.046181
1262.539, 4.236099
1263.021, 5.155128
1263.503, 5.650658
1263.985, 6.026329
1264.467, 6.387505
1264.949, 6.344437
1265.432, 5.749321
1265.914, 4.807426
1266.396, 3.171616
1266.878, 1.737991
1267.360, 1.834961
1267.842, 3.607826
1268.324, 4.606689
1268.806, 4.761452
1269.289, 4.660614
1269.771, 4.405670
1270.253, 4.184921
1270.735, 4.390549
1271.217, 4.558052
1271.699, 4.041771
1272.181, 3.020538
1272.663, 2.756721
1273.146, 3.233978
1273.628, 3.331047
1274.110, 2.650818
1274.592, 2.033615
1275.074, 2.486504
1275.556, 2.830345
1276.038, 1.989220
1276.520, 0.4934620
1277.002, 0.6675640
1277.484, 2.179886
1277.967, 2.969215
1278.449, 2.410637
1278.931, 1.815224
1279.413, 1.975838
1279.895, 2.157516
1280.377, 2.070374
1280.859, 1.744102
1281.341, 1.056259
1281.823, 0.2083360
1282.306, 0.2110370
1282.788, 3.9670002E-03
1283.270, 0.3002010
1283.752, 0.4130550
1284.234, 0.7953340
1284.716, 1.637321
1285.198, 1.822899
1285.680, 1.684647
1286.163, 1.025726
1286.645, 0.4411700
1287.127, 0.0000000E+00
##END=



