##NAMES=Gaidonnayite
##RRUFFID=R070472
##IDEAL CHEMISTRY=Na_2_ZrSi_3_O_9_&#183;2H_2_O
##LOCALITY=Poudrette quarry (Demix quarry; Uni-Mix quarry; Desourdy quarry), Mont Saint-Hilaire, Rouville County, Qu√©bec, Canada
##OWNER=RRUFF
##SOURCE=Michael Scott
##DESCRIPTION=Colorless to light brown prismatic crystals, co-type material, associated with colorless albite and pyrite. Fluoresces green under short wave ultraviolet light.
##STATUS=The identification of this mineral has been confirmed by single-crystal X-ray diffraction.
##URL=rruff.info/R070472
163.8256, 0.0000000E+00
164.3077, 33.87109
164.7899, 59.34668
165.2720, 78.12793
165.7541, 93.15918
166.2362, 100.9443
166.7183, 92.39355
167.2004, 60.04590
167.6826, 31.28516
168.1647, 31.65723
168.6468, 53.61621
169.1289, 75.17090
169.6110, 75.54004
170.0931, 69.73145
170.5753, 87.92383
171.0574, 140.3496
171.5395, 188.0371
172.0216, 212.2930
172.5037, 215.7715
172.9858, 204.2930
173.4680, 176.0381
173.9501, 148.0811
174.4322, 141.5898
174.9143, 157.0830
175.3964, 180.8633
175.8785, 187.6924
176.3607, 177.0801
176.8428, 174.2471
177.3249, 187.6367
177.8070, 206.6523
178.2891, 207.8730
178.7712, 184.1426
179.2534, 154.2324
179.7355, 124.2373
180.2176, 96.95117
180.6997, 79.86523
181.1818, 77.02441
181.6639, 82.21582
182.1461, 84.82227
182.6282, 86.03320
183.1103, 90.69238
183.5924, 86.83789
184.0745, 77.33008
184.5566, 90.22070
185.0388, 119.4727
185.5209, 162.5679
186.0030, 185.3130
186.4851, 167.6460
186.9672, 173.1289
187.4493, 197.1821
187.9315, 226.3999
188.4136, 248.7085
188.8957, 259.9487
189.3778, 263.2236
189.8599, 264.7437
190.3420, 273.1309
190.8242, 280.9756
191.3063, 271.8057
191.7884, 249.6538
192.2705, 243.9731
192.7526, 272.7158
193.2347, 308.8301
193.7169, 327.4067
194.1990, 328.1201
194.6811, 318.1079
195.1632, 298.0767
195.6453, 269.5044
196.1274, 242.7441
196.6096, 215.3838
197.0917, 196.0996
197.5738, 195.8350
198.0559, 212.8398
198.5380, 225.0015
199.0201, 215.2197
199.5023, 187.0054
199.9844, 160.4380
200.4665, 140.2900
200.9486, 119.2847
201.4307, 88.65186
201.9128, 50.64404
202.3950, 19.12891
202.8771, 7.866211
203.3592, 11.88135
203.8413, 5.040039
204.3234, 24.22363
204.8055, 50.81836
205.2877, 52.89111
205.7698, 37.31689
206.2519, 27.75928
206.7340, 47.32959
207.2161, 85.93408
207.6982, 99.99023
208.1804, 71.47412
208.6625, 46.78760
209.1446, 66.14600
209.6267, 112.1616
210.1088, 142.2588
210.5909, 122.5972
211.0730, 70.79639
211.5552, 38.03906
212.0373, 28.26074
212.5194, 31.04932
213.0015, 49.24805
213.4836, 74.02930
213.9657, 89.50586
214.4479, 87.48779
214.9300, 71.94629
215.4121, 49.12549
215.8942, 14.95020
216.3763, 15.79053
216.8584, 28.00244
217.3406, 34.23438
217.8227, 53.45264
218.3048, 99.63867
218.7869, 155.8184
219.2690, 189.4126
219.7511, 192.3989
220.2333, 202.0493
220.7154, 250.3735
221.1975, 309.7085
221.6796, 359.8999
222.1617, 370.2891
222.6438, 370.3672
223.1260, 403.1123
223.6081, 474.5400
224.0902, 543.0801
224.5723, 591.1162
225.0544, 629.0376
225.5365, 666.0708
226.0187, 704.3872
226.5008, 740.3496
226.9829, 766.4609
227.4650, 781.8096
227.9471, 804.9458
228.4292, 853.8721
228.9114, 905.0371
229.3935, 932.3423
229.8756, 930.0068
230.3577, 927.4097
230.8398, 946.4346
231.3219, 986.5469
231.8041, 1044.791
232.2862, 1142.518
232.7683, 1235.963
233.2504, 1279.493
233.7325, 1270.787
234.2146, 1261.492
234.6968, 1290.002
235.1789, 1348.576
235.6610, 1399.242
236.1431, 1433.643
236.6252, 1461.312
237.1073, 1489.648
237.5895, 1518.672
238.0716, 1550.162
238.5537, 1593.700
239.0358, 1640.588
239.5179, 1664.250
240.0000, 1653.361
240.4822, 1638.359
240.9643, 1644.097
241.4464, 1665.591
241.9285, 1690.137
242.4106, 1724.955
242.8927, 1757.159
243.3749, 1758.693
243.8570, 1721.442
244.3391, 1683.335
244.8212, 1679.483
245.3033, 1695.362
245.7854, 1698.614
246.2676, 1677.007
246.7497, 1642.173
247.2318, 1603.112
247.7139, 1559.540
248.1960, 1521.646
248.6781, 1498.667
249.1603, 1484.158
249.6424, 1462.891
250.1245, 1427.921
250.6066, 1393.765
251.0887, 1371.418
251.5708, 1359.586
252.0530, 1351.521
252.5351, 1348.712
253.0172, 1343.979
253.4993, 1322.758
253.9814, 1278.128
254.4635, 1233.673
254.9457, 1194.766
255.4278, 1164.865
255.9099, 1157.914
256.3920, 1185.606
256.8741, 1224.007
257.3563, 1231.108
257.8384, 1203.735
258.3205, 1173.471
258.8026, 1146.310
259.2847, 1122.636
259.7668, 1103.479
260.2490, 1089.137
260.7311, 1077.264
261.2132, 1065.498
261.6953, 1053.377
262.1774, 1038.219
262.6595, 1011.302
263.1417, 988.1055
263.6238, 989.3013
264.1059, 1015.202
264.5880, 1038.323
265.0701, 1033.748
265.5522, 1000.612
266.0344, 975.0942
266.5165, 957.3442
266.9986, 943.6626
267.4807, 933.5210
267.9628, 926.8335
268.4449, 924.0107
268.9271, 926.7271
269.4092, 932.5371
269.8913, 926.9668
270.3734, 906.9663
270.8555, 879.3389
271.3376, 836.2754
271.8198, 788.4438
272.3019, 757.8188
272.7840, 756.9316
273.2661, 773.2598
273.7482, 769.5371
274.2303, 717.9209
274.7125, 676.3438
275.1946, 649.6963
275.6767, 633.9180
276.1588, 628.2002
276.6409, 631.5596
277.1230, 636.7729
277.6052, 632.1567
278.0873, 612.6670
278.5694, 593.4219
279.0515, 568.5317
279.5336, 547.8979
280.0157, 542.2256
280.4979, 550.1382
280.9800, 558.6421
281.4621, 553.3765
281.9442, 531.1050
282.4263, 516.1689
282.9084, 516.0166
283.3906, 515.6621
283.8727, 509.1758
284.3548, 497.9814
284.8369, 486.7236
285.3190, 479.1646
285.8011, 474.3057
286.2833, 464.1274
286.7654, 438.8413
287.2475, 420.8257
287.7296, 410.2388
288.2117, 410.6855
288.6938, 430.8115
289.1760, 476.3242
289.6581, 531.5234
290.1402, 559.0449
290.6223, 544.5000
291.1044, 536.5781
291.5865, 547.9180
292.0687, 566.4663
292.5508, 584.8477
293.0329, 601.0977
293.5150, 615.0967
293.9971, 619.6660
294.4792, 568.0728
294.9614, 655.2168
295.4435, 717.3086
295.9256, 755.6987
296.4077, 699.3564
296.8898, 765.3857
297.3719, 782.4019
297.8541, 797.4341
298.3362, 880.7471
298.8183, 838.2876
299.3004, 920.5625
299.7825, 953.0786
300.2646, 1008.404
300.7468, 1014.426
301.2289, 1035.708
301.7110, 1106.369
302.1931, 1149.732
302.6752, 1150.183
303.1573, 1207.128
303.6395, 1168.441
304.1216, 1177.119
304.6037, 1187.037
305.0858, 1212.738
305.5679, 1262.277
306.0500, 1313.907
306.5322, 1353.812
307.0143, 1384.000
307.4964, 1408.543
307.9785, 1423.814
308.4606, 1442.611
308.9427, 1491.667
309.4249, 1576.548
309.9070, 1649.324
310.3891, 1687.826
310.8712, 1711.070
311.3533, 1744.750
311.8354, 1793.350
312.3176, 1840.895
312.7997, 1868.547
313.2818, 1872.592
313.7639, 1893.631
314.2460, 1940.888
314.7281, 1996.732
315.2103, 2056.446
315.6924, 2116.524
316.1745, 2166.174
316.6566, 2195.612
317.1387, 2210.787
317.6208, 2252.939
318.1030, 2347.625
318.5851, 2436.557
319.0672, 2499.652
319.5493, 2554.082
320.0314, 2622.572
320.5135, 2667.979
320.9957, 2795.200
321.4778, 2897.394
321.9599, 2975.895
322.4420, 2959.831
322.9241, 3066.501
323.4063, 3124.470
323.8884, 3180.728
324.3705, 3305.859
324.8526, 3307.072
325.3347, 3436.820
325.8168, 3520.361
326.2990, 3629.729
326.7811, 3691.896
327.2632, 3770.029
327.7453, 3896.370
328.2274, 3994.138
328.7095, 4048.879
329.1917, 4160.880
329.6738, 4172.605
330.1559, 4273.162
330.6380, 4411.878
331.1201, 4470.175
331.6022, 4582.239
332.0844, 4672.752
332.5665, 4669.092
333.0486, 4831.246
333.5307, 4920.511
334.0128, 4933.505
334.4949, 5083.410
334.9770, 5103.998
335.4591, 5171.780
335.9413, 5274.958
336.4234, 5344.079
336.9055, 5407.409
337.3876, 5471.750
337.8697, 5549.163
338.3518, 5626.083
338.8340, 5690.885
339.3161, 5746.356
339.7982, 5757.096
340.2803, 5699.710
340.7624, 5571.031
341.2445, 5387.624
341.7267, 5149.573
342.2088, 4857.775
342.6909, 4477.755
343.1730, 4037.558
343.6551, 3617.032
344.1372, 3244.990
344.6194, 2918.649
345.1015, 2630.804
345.5836, 2376.142
346.0657, 2166.487
346.5478, 2027.481
347.0299, 1919.602
347.5121, 1803.153
347.9942, 1672.516
348.4763, 1547.576
348.9584, 1450.108
349.4405, 1383.888
349.9226, 1323.285
350.4048, 1268.917
350.8869, 1218.642
351.3690, 1173.249
351.8511, 1131.617
352.3332, 1091.304
352.8153, 1050.888
353.2975, 1011.018
353.7796, 972.4146
354.2617, 925.2544
354.7438, 898.0796
355.2259, 906.6646
355.7080, 926.4268
356.1902, 937.1108
356.6723, 934.2310
357.1544, 927.2998
357.6365, 929.0039
358.1186, 940.1313
358.6007, 941.1655
359.0829, 920.9409
359.5650, 901.2485
360.0471, 893.0029
360.5292, 895.4658
361.0113, 905.7563
361.4934, 926.2773
361.9756, 951.9814
362.4577, 976.5879
362.9398, 1001.203
363.4219, 1014.647
363.9040, 997.2168
364.3861, 971.7168
364.8683, 983.8247
365.3504, 1057.437
365.8325, 1119.715
366.3146, 1117.787
366.7967, 1075.164
367.2788, 1045.216
367.7610, 1042.675
368.2431, 1052.812
368.7252, 1055.962
369.2073, 1047.299
369.6894, 1056.965
370.1715, 1114.996
370.6537, 1169.565
371.1358, 1175.838
371.6179, 1141.577
372.1000, 1109.040
372.5821, 1109.282
373.0642, 1134.259
373.5464, 1130.660
374.0285, 1073.403
374.5106, 1017.112
374.9927, 976.5835
375.4748, 936.5127
375.9569, 873.6875
376.4391, 783.4106
376.9212, 689.8120
377.4033, 635.4951
377.8854, 642.9395
378.3675, 606.4648
378.8496, 478.3267
379.3318, 346.7651
379.8139, 239.9492
380.2960, 158.7402
380.7781, 98.43066
381.2602, 62.87451
381.7423, 41.53906
382.2245, 4.200684
382.7066, 55.51123
383.1887, 110.9370
383.6708, 157.6763
384.1529, 191.2285
384.6350, 201.7095
385.1172, 183.2031
385.5993, 162.5303
386.0814, 160.7700
386.5635, 172.6782
387.0456, 182.0977
387.5277, 186.5342
388.0099, 185.8022
388.4920, 176.2324
388.9741, 158.5195
389.4562, 148.3677
389.9383, 162.0898
390.4204, 172.2397
390.9026, 150.0903
391.3847, 104.2471
391.8668, 69.37451
392.3489, 65.81592
392.8310, 84.77197
393.3131, 97.35156
393.7953, 104.4814
394.2774, 103.5469
394.7595, 91.85498
395.2416, 73.50244
395.7237, 48.99561
396.2058, 20.07959
396.6880, 6.583496
397.1701, 21.72998
397.6522, 23.40576
398.1343, 38.52100
398.6164, 80.11963
399.0985, 122.1841
399.5807, 167.9502
400.0628, 206.9277
400.5449, 221.1089
401.0270, 199.2808
401.5091, 160.6128
401.9912, 136.8652
402.4734, 130.0952
402.9555, 121.5835
403.4376, 97.83350
403.9197, 79.40820
404.4018, 88.44775
404.8839, 124.1860
405.3661, 156.4502
405.8482, 172.6113
406.3303, 175.3047
406.8124, 163.5142
407.2945, 136.2954
407.7766, 114.8838
408.2588, 115.5229
408.7409, 133.5801
409.2230, 145.1250
409.7051, 152.5464
410.1872, 151.0806
410.6693, 132.4741
411.1515, 105.9062
411.6336, 85.44580
412.1157, 75.29053
412.5978, 70.11230
413.0799, 62.19238
413.5620, 48.63184
414.0442, 43.48486
414.5263, 59.55664
415.0084, 70.03906
415.4905, 49.67627
415.9726, 15.27246
416.4547, 6.780273
416.9369, 51.60693
417.4190, 123.1216
417.9011, 145.0635
418.3832, 95.25342
418.8653, 55.58350
419.3474, 49.60205
419.8296, 55.10986
420.3117, 59.77979
420.7938, 61.81738
421.2759, 61.62451
421.7580, 57.81006
422.2401, 52.09180
422.7223, 50.29443
423.2044, 53.94141
423.6865, 56.65674
424.1686, 55.82959
424.6507, 50.67920
425.1328, 38.47705
425.6150, 2.792480
426.0971, 17.71777
426.5792, 10.76318
427.0613, 66.13574
427.5434, 102.1821
428.0255, 104.9810
428.5077, 98.29492
428.9898, 114.2461
429.4719, 161.4761
429.9540, 194.5190
430.4361, 208.7856
430.9182, 214.8633
431.4004, 209.0464
431.8825, 199.6533
432.3646, 203.8579
432.8467, 232.2119
433.3288, 273.1191
433.8109, 296.0083
434.2931, 290.0327
434.7752, 293.4185
435.2573, 322.9600
435.7394, 354.3828
436.2215, 372.4370
436.7036, 377.1187
437.1858, 378.6768
437.6679, 380.2798
438.1500, 384.0620
438.6321, 395.1943
439.1142, 413.0132
439.5963, 442.6030
440.0785, 495.0815
440.5606, 554.3389
441.0427, 590.9380
441.5248, 600.4297
442.0069, 598.8496
442.4890, 580.7861
442.9712, 563.7363
443.4533, 577.1333
443.9354, 624.9365
444.4175, 680.4907
444.8996, 718.5977
445.3817, 737.8579
445.8639, 761.7959
446.3460, 794.0825
446.8281, 827.6450
447.3102, 863.4351
447.7923, 895.5815
448.2744, 914.5796
448.7566, 919.3145
449.2387, 925.5581
449.7208, 960.3589
450.2029, 1031.140
450.6850, 1079.463
451.1671, 1085.417
451.6493, 1086.105
452.1314, 1102.081
452.6135, 1128.558
453.0956, 1150.532
453.5777, 1159.673
454.0598, 1163.400
454.5420, 1171.198
455.0241, 1182.062
455.5062, 1192.944
455.9883, 1209.199
456.4704, 1218.206
456.9525, 1193.865
457.4347, 1131.975
457.9168, 1080.196
458.3989, 1051.484
458.8810, 1033.748
459.3631, 1017.990
459.8452, 1003.437
460.3274, 992.1147
460.8095, 985.8813
461.2916, 982.4292
461.7737, 973.0117
462.2558, 953.8672
462.7379, 934.3350
463.2201, 910.4971
463.7022, 889.7227
464.1843, 876.4946
464.6664, 871.9575
465.1485, 876.4229
465.6306, 892.4258
466.1128, 917.9971
466.5949, 942.0820
467.0770, 962.2031
467.5591, 987.0635
468.0412, 1022.104
468.5233, 1063.615
469.0055, 1107.506
469.4876, 1152.524
469.9697, 1202.404
470.4518, 1254.654
470.9339, 1314.382
471.4160, 1396.507
471.8982, 1503.452
472.3803, 1612.728
472.8624, 1706.507
473.3445, 1785.268
473.8266, 1854.626
474.3087, 1910.846
474.7909, 1964.528
475.2730, 2020.462
475.7551, 2074.122
476.2372, 2118.803
476.7193, 2153.302
477.2014, 2184.701
477.6836, 2225.414
478.1657, 2277.894
478.6478, 2302.812
479.1299, 2296.700
479.6120, 2264.912
480.0941, 2205.838
480.5763, 2126.769
481.0584, 2035.375
481.5405, 1931.456
482.0226, 1826.776
482.5047, 1732.728
482.9868, 1648.175
483.4690, 1563.798
483.9511, 1474.488
484.4332, 1398.956
484.9153, 1360.522
485.3974, 1358.630
485.8795, 1334.661
486.3617, 1271.648
486.8438, 1203.834
487.3259, 1146.204
487.8080, 1094.126
488.2901, 1033.946
488.7722, 961.9551
489.2544, 896.6582
489.7365, 866.7969
490.2186, 880.3789
490.7007, 891.9336
491.1828, 907.4238
491.6649, 914.2192
492.1471, 899.5010
492.6292, 875.3770
493.1113, 861.1738
493.5934, 864.1255
494.0755, 879.8135
494.5576, 908.1177
495.0398, 947.0767
495.5219, 975.5479
496.0040, 982.1475
496.4861, 993.6069
496.9682, 1037.858
497.4503, 1112.098
497.9325, 1191.111
498.4146, 1276.100
498.8967, 1362.138
499.3788, 1440.488
499.8609, 1519.163
500.3430, 1608.791
500.8252, 1713.464
501.3073, 1841.026
501.7894, 2005.881
502.2715, 2214.980
502.7536, 2426.107
503.2357, 2622.671
503.7179, 2838.646
504.2000, 3081.306
504.6821, 3351.287
505.1642, 3650.754
505.6463, 3983.411
506.1284, 4332.772
506.6106, 4677.910
507.0927, 5020.099
507.5748, 5384.214
508.0569, 5773.773
508.5390, 6189.246
509.0211, 6637.519
509.5033, 7116.417
509.9854, 7600.724
510.4675, 8069.087
510.9496, 8566.048
511.4317, 9122.844
511.9138, 9720.627
512.3960, 10331.22
512.8781, 10944.47
513.3602, 11563.37
513.8423, 12179.21
514.3245, 12786.71
514.8066, 13443.97
515.2887, 14199.82
515.7708, 14952.94
516.2529, 15694.91
516.7350, 16410.93
517.2172, 17101.13
517.6993, 17762.75
518.1814, 18359.48
518.6635, 18853.67
519.1456, 19244.01
519.6277, 19548.01
520.1099, 19779.94
520.5920, 19860.73
521.0741, 19721.62
521.5562, 19368.05
522.0383, 18902.85
522.5204, 18316.25
523.0026, 17631.56
523.4847, 16823.68
523.9668, 15934.76
524.4489, 14988.85
524.9310, 14001.35
525.4131, 13018.66
525.8953, 12079.48
526.3774, 11185.14
526.8595, 10360.92
527.3416, 9631.805
527.8237, 8936.301
528.3058, 8225.076
528.7880, 7553.994
529.2701, 6983.026
529.7522, 6521.737
530.2343, 6107.248
530.7164, 5698.645
531.1985, 5305.133
531.6807, 4939.731
532.1628, 4603.745
532.6449, 4297.902
533.1270, 4023.127
533.6091, 3775.046
534.0912, 3551.854
534.5734, 3357.127
535.0555, 3180.033
535.5376, 3032.238
536.0197, 2890.993
536.5018, 2732.986
536.9839, 2566.129
537.4661, 2423.746
537.9482, 2329.159
538.4303, 2261.542
538.9124, 2160.656
539.3945, 2018.268
539.8766, 1887.038
540.3588, 1783.384
540.8409, 1688.575
541.3230, 1583.319
541.8051, 1473.919
542.2872, 1376.174
542.7693, 1303.054
543.2515, 1241.666
543.7336, 1178.650
544.2157, 1114.760
544.6978, 1054.680
545.1799, 1000.425
545.6620, 946.5254
546.1442, 884.1865
546.6263, 809.0942
547.1084, 748.1025
547.5905, 712.2437
548.0726, 677.3364
548.5547, 630.2871
549.0369, 580.7754
549.5190, 544.8647
550.0011, 528.4429
550.4832, 516.8975
550.9653, 492.7456
551.4474, 457.9521
551.9296, 426.6626
552.4117, 400.4097
552.8938, 380.4604
553.3759, 375.0205
553.8580, 374.0454
554.3401, 348.2383
554.8223, 278.0273
555.3044, 220.8818
555.7865, 199.1250
556.2686, 197.0430
556.7507, 202.5400
557.2328, 211.2617
557.7150, 216.9199
558.1971, 213.9209
558.6792, 204.8813
559.1613, 203.1094
559.6434, 214.4434
560.1255, 221.6641
560.6077, 217.7793
561.0898, 211.8057
561.5719, 213.1948
562.0540, 219.4590
562.5361, 215.4644
563.0182, 185.0479
563.5004, 147.3330
563.9825, 123.7192
564.4646, 112.1440
564.9467, 103.1313
565.4288, 93.07520
565.9109, 83.80371
566.3931, 80.86865
566.8752, 89.34961
567.3573, 77.69189
567.8394, 16.97998
568.3215, 28.71338
568.8036, 29.92334
569.2858, 6.720703
569.7679, 16.46826
570.2500, 31.39893
570.7321, 38.45752
571.2142, 36.60693
571.6964, 27.17773
572.1785, 14.87598
572.6606, 26.30957
573.1427, 9.551270
573.6248, 28.72754
574.1069, 31.95898
574.5891, 28.19727
575.0712, 6.809082
575.5533, 18.12549
576.0354, 30.74268
576.5175, 2.102051
576.9996, 48.97998
577.4818, 16.96094
577.9639, 18.15283
578.4460, 4.180176
578.9281, 23.12207
579.4102, 31.93506
579.8923, 7.876465
580.3745, 2.063477
580.8566, 24.90186
581.3386, 10.12793
581.8207, 29.10791
582.3029, 11.44336
582.7850, 1.388672
583.2671, 4.346191
583.7492, 8.235840
584.2313, 1.430664
584.7134, 9.367676
585.1956, 10.26123
585.6777, 1.209473
586.1598, 16.17822
586.6419, 26.49023
587.1240, 32.69385
587.6061, 41.04150
588.0883, 46.98047
588.5704, 62.61963
589.0525, 106.5723
589.5346, 147.5908
590.0167, 163.0122
590.4988, 150.8682
590.9810, 119.7363
591.4631, 55.31836
591.9452, 12.78223
592.4273, 40.51465
592.9094, 31.50977
593.3915, 4.961426
593.8737, 36.94922
594.3558, 76.86133
594.8379, 91.70459
595.3200, 78.58594
595.8021, 56.65381
596.2842, 1.135254
596.7664, 33.49219
597.2485, 3.404785
597.7306, 45.21777
598.2127, 44.02588
598.6948, 19.86768
599.1769, 80.98828
599.6591, 63.47705
600.1412, 8.140137
600.6233, 39.50391
601.1054, 24.33203
601.5875, 8.221191
602.0696, 13.98389
602.5518, 28.26904
603.0339, 24.41406
603.5160, 3.052734
603.9981, 24.78516
604.4802, 39.40283
604.9623, 45.93115
605.4445, 36.17090
605.9266, 19.37256
606.4087, 15.77686
606.8908, 33.54541
607.3729, 53.74023
607.8550, 43.99756
608.3372, 5.427734
608.8193, 10.46777
609.3014, 7.699219
609.7835, 25.25098
610.2656, 18.11768
610.7477, 0.2294920
611.2299, 0.2690430
611.7120, 28.79102
612.1941, 47.54053
612.6762, 36.54590
613.1583, 16.24707
613.6404, 2.203613
614.1226, 4.470703
614.6047, 7.048828
615.0868, 7.294922
615.5689, 4.342285
616.0510, 5.282715
616.5331, 23.38672
617.0153, 35.14062
617.4974, 36.24756
617.9795, 35.50586
618.4616, 37.74219
618.9437, 41.79785
619.4258, 45.54053
619.9080, 48.16504
620.3901, 51.37842
620.8722, 57.44727
621.3543, 63.55957
621.8364, 60.80664
622.3185, 52.76318
622.8007, 60.44531
623.2828, 99.63965
623.7649, 154.1172
624.2470, 179.1318
624.7291, 166.8169
625.2112, 152.6538
625.6934, 138.8003
626.1755, 124.5200
626.6576, 104.4116
627.1397, 85.02051
627.6218, 81.41846
628.1039, 103.2046
628.5861, 128.8286
629.0682, 151.7695
629.5503, 167.8223
630.0324, 162.7832
630.5145, 139.5444
630.9966, 129.9390
631.4788, 158.1558
631.9609, 209.0293
632.4430, 229.4482
632.9251, 205.7036
633.4072, 190.9331
633.8893, 195.5337
634.3715, 206.6929
634.8536, 216.2715
635.3357, 226.6401
635.8178, 238.0068
636.2999, 253.4800
636.7820, 264.9033
637.2642, 264.7715
637.7463, 259.3770
638.2284, 255.1411
638.7105, 253.0186
639.1926, 257.6948
639.6747, 272.5259
640.1569, 292.7505
640.6390, 292.6636
641.1211, 253.1338
641.6032, 239.7476
642.0853, 286.9956
642.5674, 336.2212
643.0496, 354.0830
643.5317, 348.4663
644.0138, 340.3931
644.4959, 330.4365
644.9780, 330.6465
645.4601, 363.3354
645.9423, 405.8896
646.4244, 411.2183
646.9065, 376.9160
647.3886, 354.0527
647.8707, 385.1001
648.3528, 446.1655
648.8350, 443.3604
649.3171, 336.7832
649.7992, 283.0942
650.2813, 325.7349
650.7634, 389.3452
651.2455, 449.2979
651.7277, 494.1450
652.2098, 500.8477
652.6919, 444.7612
653.1740, 395.7554
653.6561, 399.8857
654.1382, 437.3408
654.6204, 480.3330
655.1025, 521.1265
655.5846, 552.2271
656.0667, 573.2119
656.5488, 590.1660
657.0309, 606.8018
657.5131, 624.2993
657.9952, 632.1299
658.4773, 619.0820
658.9594, 612.5972
659.4415, 629.9653
659.9236, 661.2998
660.4058, 687.8989
660.8879, 703.1240
661.3700, 727.5967
661.8521, 785.4395
662.3342, 846.3384
662.8163, 861.8330
663.2985, 842.5088
663.7806, 846.9819
664.2627, 910.7144
664.7448, 1004.804
665.2269, 1069.700
665.7090, 1101.091
666.1912, 1124.899
666.6733, 1133.973
667.1554, 1153.945
667.6375, 1201.711
668.1196, 1266.482
668.6017, 1334.277
669.0839, 1409.259
669.5660, 1476.502
670.0481, 1522.195
670.5302, 1562.008
671.0123, 1612.479
671.4944, 1668.580
671.9766, 1712.119
672.4587, 1734.873
672.9408, 1757.788
673.4229, 1817.707
673.9050, 1913.300
674.3871, 1986.634
674.8693, 2030.260
675.3514, 2069.031
675.8335, 2118.497
676.3156, 2167.782
676.7977, 2191.802
677.2798, 2182.503
677.7620, 2189.883
678.2441, 2237.915
678.7262, 2286.650
679.2083, 2316.894
679.6904, 2331.215
680.1725, 2335.952
680.6547, 2333.532
681.1368, 2323.013
681.6189, 2294.366
682.1010, 2256.060
682.5831, 2243.737
683.0652, 2258.893
683.5474, 2265.445
684.0295, 2250.602
684.5116, 2220.246
684.9937, 2181.893
685.4758, 2135.791
685.9579, 2079.982
686.4401, 2013.801
686.9222, 1938.863
687.4043, 1847.544
687.8864, 1752.495
688.3685, 1649.444
688.8506, 1517.664
689.3328, 1506.168
689.8149, 1478.173
690.2970, 1434.357
690.7791, 1327.365
691.2612, 1301.874
691.7433, 1243.718
692.2255, 1184.242
692.7076, 1170.295
693.1897, 1072.478
693.6718, 1057.797
694.1539, 1009.934
694.6360, 977.2666
695.1182, 898.6494
695.6003, 911.1436
696.0824, 906.9307
696.5645, 886.9209
697.0466, 803.7607
697.5287, 802.1758
698.0109, 767.9004
698.4930, 732.2920
698.9751, 742.2002
699.4572, 668.2598
699.9393, 677.4727
700.4214, 653.5000
700.9036, 644.7100
701.3857, 603.0342
701.8678, 571.5195
702.3499, 572.9229
702.8320, 556.1318
703.3141, 510.7275
703.7963, 502.9746
704.2784, 393.8643
704.7605, 397.1846
705.2426, 385.5449
705.7247, 359.8477
706.2068, 272.7266
706.6890, 268.9062
707.1711, 234.1279
707.6532, 199.7129
708.1353, 212.5107
708.6174, 143.1553
709.0995, 158.6465
709.5817, 142.6670
710.0638, 143.6113
710.5459, 113.3984
711.0280, 95.07715
711.5101, 111.3838
711.9922, 111.1846
712.4744, 84.06348
712.9565, 96.29688
713.4386, 43.00000
713.9207, 50.44434
714.4028, 85.07324
714.8849, 68.36621
715.3671, 91.07324
715.8492, 103.2393
716.3313, 51.32520
716.8134, 110.9424
717.2955, 124.6777
717.7776, 91.55078
718.2598, 128.8369
718.7419, 114.9199
719.2240, 111.7891
719.7061, 142.5342
720.1882, 156.0488
720.6703, 141.8770
721.1525, 166.2744
721.6346, 124.4521
722.1167, 142.8340
722.5988, 189.3242
723.0809, 183.8535
723.5630, 220.4258
724.0452, 239.3145
724.5273, 219.7695
725.0094, 203.9502
725.4915, 227.3584
725.9736, 270.5283
726.4557, 289.3096
726.9379, 268.0068
727.4200, 263.4443
727.9021, 308.9727
728.3842, 362.9336
728.8663, 396.7441
729.3484, 411.0938
729.8306, 410.9404
730.3127, 399.3877
730.7948, 391.5010
731.2769, 404.8369
731.7590, 435.0537
732.2411, 469.0996
732.7233, 506.7461
733.2054, 542.0967
733.6875, 573.6338
734.1696, 600.4316
734.6517, 620.2363
735.1339, 632.1631
735.6160, 651.1777
736.0981, 683.2090
736.5802, 714.9688
737.0623, 743.0898
737.5444, 771.0557
738.0266, 803.0664
738.5087, 837.8291
738.9908, 869.7529
739.4729, 899.5996
739.9550, 921.1836
740.4371, 928.1162
740.9193, 925.0459
741.4014, 920.3115
741.8835, 913.5039
742.3656, 893.3604
742.8477, 851.2979
743.3298, 805.0098
743.8120, 797.8135
744.2941, 832.2891
744.7762, 826.8359
745.2583, 764.1826
745.7404, 702.2998
746.2225, 675.3633
746.7047, 665.2041
747.1868, 633.0635
747.6689, 567.1855
748.1510, 523.5273
748.6331, 528.4736
749.1152, 527.6445
749.5974, 488.1182
750.0795, 436.7988
750.5616, 410.0029
751.0437, 411.1885
751.5258, 412.4951
752.0079, 396.3594
752.4901, 371.1406
752.9722, 344.7930
753.4543, 318.6904
753.9364, 293.3174
754.4185, 268.4590
754.9006, 251.5283
755.3828, 253.4521
755.8649, 265.3828
756.3470, 245.1826
756.8291, 177.3184
757.3112, 145.3311
757.7933, 175.5010
758.2755, 212.1777
758.7576, 222.4463
759.2397, 216.1445
759.7218, 218.0508
760.2039, 229.2051
760.6860, 238.3779
761.1682, 244.4600
761.6503, 249.4346
762.1324, 257.0967
762.6145, 262.6133
763.0966, 256.8828
763.5787, 238.7812
764.0609, 220.6699
764.5430, 214.9082
765.0251, 213.9434
765.5072, 204.7061
765.9893, 189.5195
766.4714, 177.6445
766.9536, 171.5576
767.4357, 166.4033
767.9178, 158.0645
768.3999, 146.6133
768.8820, 130.2031
769.3641, 103.7148
769.8463, 91.82129
770.3284, 111.3066
770.8105, 126.4951
771.2926, 110.6348
771.7747, 72.73535
772.2568, 32.31152
772.7390, 23.07910
773.2211, 49.45312
773.7032, 6.871094
774.1853, 36.16797
774.6674, 27.87207
775.1495, 6.937500
775.6317, 23.51270
776.1138, 10.14941
776.5959, 10.53906
777.0780, 20.75879
777.5601, 26.47754
778.0422, 43.79590
778.5244, 65.47949
779.0065, 60.06934
779.4886, 19.88574
779.9707, 26.88281
780.4528, 56.74609
780.9349, 69.31641
781.4171, 55.11426
781.8992, 3.996094
782.3813, 20.30176
782.8634, 7.614258
783.3455, 27.50684
783.8276, 13.68652
784.3098, 84.50781
784.7919, 100.2393
785.2740, 32.83105
785.7561, 11.80566
786.2382, 13.34375
786.7203, 1.511719
787.2025, 19.74023
787.6846, 41.38281
788.1667, 51.98242
788.6488, 49.71484
789.1309, 47.12598
789.6130, 49.90430
790.0952, 52.34766
790.5773, 55.80469
791.0594, 58.81836
791.5415, 51.23145
792.0236, 33.66309
792.5057, 28.65039
792.9879, 56.68262
793.4700, 101.6631
793.9521, 118.7598
794.4342, 106.5586
794.9163, 94.68848
795.3984, 84.83105
795.8806, 80.78320
796.3627, 85.79883
796.8448, 97.20996
797.3269, 110.9570
797.8090, 132.4863
798.2911, 138.2090
798.7733, 107.1357
799.2554, 86.31348
799.7375, 103.0146
800.2196, 128.5215
800.7017, 132.6104
801.1838, 113.5264
801.6660, 88.69043
802.1481, 49.65137
802.6302, 24.44238
803.1123, 48.34570
803.5944, 87.02637
804.0765, 89.04492
804.5587, 58.07227
805.0408, 35.26367
805.5229, 42.24414
806.0050, 65.18652
806.4871, 92.25586
806.9692, 118.3154
807.4514, 119.9297
807.9335, 96.01465
808.4156, 59.10352
808.8977, 11.27148
809.3798, 30.24805
809.8619, 39.43945
810.3441, 15.35059
810.8262, 7.258789
811.3083, 26.83594
811.7904, 33.26465
812.2725, 6.550781
812.7546, 20.88184
813.2368, 15.28223
813.7189, 13.03711
814.2010, 26.66895
814.6831, 16.59766
815.1652, 1.616211
815.6473, 29.63672
816.1295, 51.24121
816.6116, 29.01562
817.0937, 13.40625
817.5758, 29.12402
818.0579, 4.382813
818.5400, 23.88184
819.0222, 26.46094
819.5043, 20.45410
819.9864, 23.72070
820.4685, 35.58984
820.9506, 57.52441
821.4327, 87.52734
821.9149, 111.3340
822.3970, 117.2344
822.8791, 109.4531
823.3612, 95.11133
823.8433, 74.59766
824.3254, 59.01758
824.8076, 49.77051
825.2897, 45.03809
825.7718, 44.43066
826.2539, 46.59180
826.7360, 48.21387
827.2181, 47.35449
827.7003, 56.12695
828.1824, 91.94434
828.6645, 111.2627
829.1466, 84.14355
829.6287, 62.64062
830.1108, 97.41504
830.5930, 114.3418
831.0751, 113.7705
831.5572, 52.47461
832.0393, 73.06543
832.5214, 60.92188
833.0035, 47.08691
833.4857, 77.80664
833.9678, 25.45605
834.4499, 56.60645
834.9320, 54.59375
835.4141, 67.77734
835.8962, 48.13770
836.3784, 38.72070
836.8605, 62.16406
837.3426, 67.20410
837.8247, 41.97656
838.3068, 52.47949
838.7889, 5.101563
839.2711, 10.33789
839.7532, 29.88965
840.2353, 22.62109
840.7174, 30.26270
841.1995, 53.50684
841.6816, 30.58594
842.1638, 6.334961
842.6459, 7.440430
843.1280, 19.83203
843.6101, 13.44336
844.0922, 20.79883
844.5743, 29.23633
845.0565, 3.570313
845.5386, 36.95605
846.0207, 72.74902
846.5028, 93.05078
846.9849, 70.08691
847.4670, 12.20508
847.9492, 23.72461
848.4313, 7.999023
848.9134, 4.406250
849.3955, 43.42090
849.8776, 81.36035
850.3597, 85.01953
850.8419, 66.54199
851.3240, 50.88281
851.8061, 44.63770
852.2882, 38.52246
852.7703, 22.40039
853.2524, 8.258789
853.7346, 12.66309
854.2167, 25.31250
854.6988, 24.52148
855.1809, 9.242188
855.6630, 0.5937500
856.1451, 9.961914
856.6273, 28.17676
857.1094, 33.72754
857.5915, 29.93359
858.0736, 27.54395
858.5557, 27.60840
859.0378, 29.98145
859.5200, 34.54590
860.0021, 41.37305
860.4842, 53.36035
860.9663, 69.72656
861.4484, 58.02734
861.9305, 6.825195
862.4127, 15.73047
862.8948, 13.51953
863.3769, 58.06934
863.8590, 94.12793
864.3411, 120.4775
864.8232, 132.9775
865.3054, 134.2930
865.7875, 115.5742
866.2696, 43.36914
866.7517, 10.64746
867.2338, 2.271484
867.7159, 26.07031
868.1981, 15.98633
868.6802, 35.08887
869.1623, 59.09277
869.6444, 6.709961
870.1265, 35.07812
870.6086, 16.52637
871.0908, 13.55566
871.5729, 1.648438
872.0550, 35.55176
872.5371, 41.09570
873.0192, 9.531250
873.5013, 55.94238
873.9835, 59.81152
874.4656, 39.36426
874.9477, 1.746094
875.4298, 40.30859
875.9119, 61.06348
876.3940, 56.78223
876.8762, 47.94531
877.3583, 48.71973
877.8404, 58.16113
878.3225, 78.74512
878.8046, 105.9492
879.2867, 123.8379
879.7689, 131.7617
880.2510, 142.8164
880.7331, 163.5215
881.2152, 186.3496
881.6973, 197.3857
882.1794, 200.3564
882.6616, 238.6973
883.1437, 319.3574
883.6258, 371.7363
884.1079, 376.5605
884.5900, 361.8613
885.0721, 342.5166
885.5543, 326.6787
886.0364, 342.2061
886.5185, 402.8652
887.0006, 455.9414
887.4827, 499.8984
887.9648, 538.3730
888.4470, 569.6670
888.9291, 598.3496
889.4112, 628.5244
889.8933, 660.3682
890.3754, 697.2188
890.8575, 745.5645
891.3397, 790.2695
891.8218, 823.9639
892.3039, 858.5254
892.7860, 903.5752
893.2681, 953.8877
893.7502, 998.0693
894.2324, 1033.900
894.7145, 1069.049
895.1966, 1101.868
895.6787, 1140.131
896.1608, 1197.547
896.6429, 1256.114
897.1251, 1289.734
897.6072, 1305.313
898.0893, 1332.980
898.5714, 1385.682
899.0535, 1448.438
899.5356, 1510.546
900.0178, 1578.054
900.4999, 1662.386
900.9820, 1755.800
901.4641, 1842.063
901.9462, 1916.730
902.4283, 1985.423
902.9105, 2048.443
903.3926, 2114.065
903.8747, 2202.608
904.3568, 2308.169
904.8389, 2408.903
905.3210, 2506.622
905.8032, 2624.688
906.2853, 2775.899
906.7674, 2945.415
907.2495, 3117.397
907.7316, 3289.077
908.2137, 3445.773
908.6959, 3586.717
909.1780, 3727.444
909.6601, 3868.916
910.1422, 4031.656
910.6243, 4233.508
911.1064, 4462.179
911.5886, 4686.572
912.0707, 4906.252
912.5528, 5123.910
913.0349, 5339.311
913.5170, 5553.445
913.9991, 5765.930
914.4813, 5976.957
914.9634, 6184.083
915.4455, 6389.334
915.9276, 6597.652
916.4097, 6806.733
916.8918, 7022.794
917.3740, 7241.326
917.8561, 7472.191
918.3382, 7735.912
918.8203, 8005.631
919.3024, 8252.506
919.7845, 8478.749
920.2667, 8643.800
920.7488, 8715.211
921.2309, 8767.175
921.7130, 8831.126
922.1951, 8866.734
922.6772, 8829.503
923.1594, 8745.675
923.6415, 8678.486
924.1236, 8647.040
924.6057, 8586.896
925.0878, 8475.981
925.5699, 8334.850
926.0521, 8157.178
926.5342, 7966.928
927.0163, 7788.408
927.4984, 7624.335
927.9805, 7455.633
928.4626, 7270.021
928.9448, 7096.654
929.4269, 6967.631
929.9090, 6844.945
930.3911, 6692.958
930.8732, 6521.439
931.3553, 6345.030
931.8375, 6170.408
932.3196, 6010.715
932.8017, 5884.404
933.2838, 5751.705
933.7659, 5557.285
934.2480, 5341.638
934.7302, 5169.680
935.2123, 5035.152
935.6944, 4903.428
936.1765, 4761.221
936.6586, 4608.594
937.1407, 4445.143
937.6229, 4274.450
938.1050, 4093.287
938.5871, 3909.445
939.0692, 3740.323
939.5513, 3589.190
940.0334, 3465.802
940.5156, 3376.897
940.9977, 3301.483
941.4798, 3205.068
941.9619, 3096.155
942.4440, 3016.556
942.9261, 2961.195
943.4083, 2894.667
943.8904, 2809.324
944.3725, 2710.479
944.8546, 2600.340
945.3367, 2492.295
945.8188, 2415.296
946.3010, 2367.624
946.7831, 2318.431
947.2652, 2267.035
947.7473, 2209.537
948.2294, 2143.751
948.7115, 2080.208
949.1937, 2030.343
949.6758, 1986.117
950.1579, 1913.652
950.6400, 1807.255
951.1221, 1743.724
951.6042, 1734.730
952.0864, 1718.008
952.5685, 1670.337
953.0506, 1615.875
953.5327, 1580.691
954.0148, 1560.447
954.4969, 1529.177
954.9791, 1485.490
955.4612, 1434.672
955.9433, 1374.123
956.4254, 1312.441
956.9075, 1249.584
957.3896, 1193.735
957.8718, 1158.068
958.3539, 1142.144
958.8360, 1124.323
959.3181, 1112.445
959.8002, 1078.035
960.2823, 992.6523
960.7645, 925.8682
961.2466, 927.3633
961.7287, 961.0557
962.2108, 964.2188
962.6929, 931.4482
963.1750, 918.1885
963.6572, 937.4756
964.1393, 955.6094
964.6214, 978.2695
965.1035, 986.8066
965.5856, 954.1182
966.0677, 903.5684
966.5499, 889.2334
967.0320, 925.3242
967.5141, 933.7705
967.9962, 891.8125
968.4783, 850.7510
968.9604, 812.1348
969.4426, 786.8340
969.9247, 790.2080
970.4068, 811.7871
970.8889, 824.8926
971.3710, 826.1328
971.8531, 824.3984
972.3353, 806.6084
972.8174, 835.1543
973.2995, 846.9932
973.7816, 843.0273
974.2637, 775.8955
974.7458, 790.3389
975.2280, 772.0947
975.7101, 752.5166
976.1922, 778.4502
976.6743, 720.5195
977.1564, 745.7422
977.6385, 737.7793
978.1207, 745.0098
978.6028, 719.3555
979.0849, 703.8555
979.5670, 721.2686
980.0491, 720.4619
980.5313, 691.0410
981.0134, 699.2510
981.4955, 640.2158
981.9776, 640.2021
982.4597, 665.6523
982.9418, 637.8857
983.4240, 646.7207
983.9061, 641.6162
984.3882, 578.1992
984.8703, 568.4941
985.3524, 502.2695
985.8345, 443.1367
986.3167, 444.7656
986.7988, 468.9561
987.2809, 465.7773
987.7630, 431.6787
988.2451, 391.0615
988.7272, 343.3848
989.2094, 306.1670
989.6915, 291.9863
990.1736, 284.7686
990.6557, 283.1299
991.1378, 275.7119
991.6199, 238.8857
992.1021, 176.1855
992.5842, 134.7900
993.0663, 154.6406
993.5484, 159.3125
994.0305, 96.19336
994.5126, 23.62402
994.9948, 17.63770
995.4769, 36.29590
995.9590, 50.53418
996.4411, 62.85742
996.9232, 64.39551
997.4053, 37.94434
997.8875, 22.19922
998.3696, 48.46875
998.8517, 80.29590
999.3338, 86.54590
999.8159, 79.00293
1000.298, 82.25391
1000.780, 98.49219
1001.262, 105.2803
1001.744, 87.75684
1002.227, 67.18457
1002.709, 48.22070
1003.191, 35.81641
1003.673, 39.76660
1004.155, 50.71289
1004.637, 54.67969
1005.119, 48.95215
1005.601, 36.14551
1006.083, 15.06250
1006.566, 9.566406
1007.048, 53.32324
1007.530, 82.82617
1008.012, 51.45605
1008.494, 4.617188
1008.976, 21.87207
1009.458, 7.742188
1009.940, 36.53613
1010.422, 43.80371
1010.905, 48.51465
1011.387, 57.17383
1011.869, 68.91895
1012.351, 87.95996
1012.833, 107.5166
1013.315, 115.4502
1013.797, 110.9277
1014.279, 108.4336
1014.762, 107.3838
1015.244, 118.1289
1015.726, 157.5205
1016.208, 197.8428
1016.690, 216.9033
1017.172, 223.3672
1017.654, 228.7070
1018.136, 236.0234
1018.618, 253.2939
1019.101, 295.4102
1019.583, 329.4512
1020.065, 329.1172
1020.547, 331.7471
1021.029, 368.5029
1021.511, 421.7432
1021.993, 464.9688
1022.475, 495.4785
1022.958, 524.3320
1023.440, 553.1396
1023.922, 582.8828
1024.404, 613.7598
1024.886, 645.9805
1025.368, 671.5664
1025.850, 703.8066
1026.332, 769.9004
1026.814, 865.7490
1027.297, 938.5410
1027.779, 958.0479
1028.261, 986.8496
1028.743, 1039.765
1029.225, 1103.683
1029.707, 1183.116
1030.189, 1262.282
1030.671, 1320.944
1031.154, 1360.199
1031.636, 1398.198
1032.118, 1431.409
1032.600, 1474.128
1033.082, 1523.597
1033.564, 1587.941
1034.046, 1694.180
1034.528, 1799.480
1035.010, 1856.497
1035.493, 1870.166
1035.975, 1883.389
1036.457, 1904.235
1036.939, 1913.415
1037.421, 1878.858
1037.903, 1872.496
1038.385, 1960.506
1038.867, 2051.230
1039.349, 2046.717
1039.832, 1973.270
1040.314, 1945.125
1040.796, 1983.542
1041.278, 2014.724
1041.760, 2043.070
1042.242, 2057.198
1042.724, 2053.512
1043.206, 2034.169
1043.689, 1990.032
1044.171, 1935.707
1044.653, 1920.085
1045.135, 1958.348
1045.617, 1973.212
1046.099, 1958.778
1046.581, 1932.972
1047.063, 1889.256
1047.546, 1858.874
1048.028, 1874.524
1048.510, 1907.819
1048.992, 1889.088
1049.474, 1809.610
1049.956, 1775.335
1050.438, 1797.908
1050.920, 1814.363
1051.402, 1811.746
1051.885, 1806.546
1052.367, 1810.387
1052.849, 1811.670
1053.331, 1793.404
1053.813, 1756.368
1054.295, 1710.885
1054.777, 1657.663
1055.259, 1600.734
1055.741, 1539.422
1056.224, 1469.088
1056.706, 1384.644
1057.188, 1307.008
1057.670, 1264.530
1058.152, 1247.262
1058.634, 1213.083
1059.116, 1162.615
1059.598, 1126.690
1060.081, 1107.440
1060.563, 1081.864
1061.045, 1040.095
1061.527, 984.5166
1062.009, 915.9492
1062.491, 840.0654
1062.973, 758.1924
1063.455, 681.7783
1063.938, 668.0449
1064.420, 706.6543
1064.902, 709.4395
1065.384, 654.5928
1065.866, 584.5791
1066.348, 527.8906
1066.830, 484.2695
1067.312, 472.2793
1067.794, 473.8145
1068.276, 450.5137
1068.759, 413.4648
1069.241, 377.9941
1069.723, 353.4717
1070.205, 348.2598
1070.687, 371.1279
1071.169, 394.0088
1071.651, 389.8262
1072.133, 372.5449
1072.616, 356.7041
1073.098, 339.1426
1073.580, 309.5146
1074.062, 271.0791
1074.544, 246.1924
1075.026, 244.2979
1075.508, 247.9844
1075.990, 249.3301
1076.472, 250.0723
1076.955, 250.0928
1077.437, 251.1553
1077.919, 252.2959
1078.401, 256.7432
1078.883, 278.6025
1079.365, 322.3018
1079.847, 335.8789
1080.329, 272.2383
1080.812, 218.4658
1081.294, 207.8027
1081.776, 212.6914
1082.258, 220.0391
1082.740, 227.8760
1083.222, 236.2109
1083.704, 244.8389
1084.186, 247.2852
1084.668, 257.5713
1085.151, 238.0771
1085.633, 134.3936
1086.115, 69.05859
1086.597, 121.1846
1087.079, 198.9102
1087.561, 201.4473
1088.043, 147.2910
1088.525, 129.4785
1089.007, 158.5322
1089.490, 195.3975
1089.972, 254.7217
1090.454, 276.9863
1090.936, 237.2217
1091.418, 177.3271
1091.900, 124.2910
1092.382, 83.89551
1092.864, 70.90820
1093.347, 85.30176
1093.829, 112.4355
1094.311, 154.3789
1094.793, 157.0322
1095.275, 108.7080
1095.757, 80.13184
1096.239, 111.8770
1096.721, 159.3916
1097.203, 162.8555
1097.686, 136.4600
1098.168, 120.4043
1098.650, 113.4219
1099.132, 112.3838
1099.614, 115.3662
1100.096, 115.0234
1100.578, 109.1045
1101.060, 104.6992
1101.542, 111.4717
1102.025, 113.5234
1102.507, 70.48340
1102.989, 21.85547
1103.471, 51.33496
1103.953, 119.0986
1104.435, 122.1543
1104.917, 56.78711
1105.399, 14.51953
1105.882, 46.30371
1106.364, 73.94336
1106.846, 28.66016
1107.328, 23.10938
1107.810, 33.67773
1108.292, 21.01855
1108.774, 1.273438
1109.256, 24.82520
1109.739, 35.19531
1110.221, 28.30762
1110.703, 19.70215
1111.185, 15.79297
1111.667, 9.491211
1112.149, 9.253906
1112.631, 27.19531
1113.113, 41.18652
1113.595, 42.74414
1114.078, 6.505859
1114.560, 63.76855
1115.042, 82.31836
1115.524, 4.852539
1116.006, 26.17773
1116.488, 15.84082
1116.970, 58.04492
1117.452, 77.80859
1117.934, 83.97266
1118.417, 82.30566
1118.899, 75.97168
1119.381, 74.93652
1119.863, 79.77441
1120.345, 78.77441
1120.827, 72.38867
1121.309, 49.26465
1121.791, 41.39258
1122.274, 15.56543
1122.756, 47.35645
1123.238, 55.67676
1123.720, 29.29102
1124.202, 6.695313
1124.684, 6.690430
1125.166, 22.14062
1125.648, 30.65820
1126.130, 42.29688
1126.613, 9.485352
1127.095, 11.41992
1127.577, 36.09961
1128.059, 11.43359
1128.541, 2.158203
1129.023, 42.55566
1129.505, 57.91602
1129.987, 27.78418
1130.469, 53.94531
1130.952, 20.80469
1131.434, 5.516602
1131.916, 46.66602
1132.398, 58.65039
1132.880, 96.95605
1133.362, 70.54102
1133.844, 51.03320
1134.326, 85.24121
1134.809, 116.3320
1135.291, 82.54297
1135.773, 20.79688
1136.255, 4.355469
1136.737, 38.82520
1137.219, 57.78809
1137.701, 47.86523
1138.183, 51.19824
1138.666, 78.69629
1139.148, 103.4355
1139.630, 118.4883
1140.112, 120.1895
1140.594, 99.93262
1141.076, 70.25586
1141.558, 70.21777
1142.040, 99.96289
1142.522, 120.6465
1143.005, 132.5869
1143.487, 142.8193
1143.969, 152.8213
1144.451, 152.6465
1144.933, 136.5078
1145.415, 119.5205
1145.897, 124.4482
1146.379, 134.3848
1146.861, 107.5781
1147.344, 65.16016
1147.826, 50.84570
1148.308, 61.98047
1148.790, 86.34961
1149.272, 116.2646
1149.754, 128.0703
1150.236, 101.4971
1150.718, 79.37012
1151.201, 97.19141
1151.683, 123.0088
1152.165, 144.7402
1152.647, 152.1104
1153.129, 121.9922
1153.611, 72.10254
1154.093, 52.93750
1154.575, 77.75488
1155.057, 86.80859
1155.540, 56.41016
1156.022, 33.72754
1156.504, 28.80078
1156.986, 26.35352
1157.468, 16.64355
1157.950, 10.20020
1158.432, 20.41504
1158.914, 43.35938
1159.396, 62.08594
1159.879, 76.80469
1160.361, 84.11328
1160.843, 83.95312
1161.325, 77.23828
1161.807, 63.52344
1162.289, 49.48633
1162.771, 40.43555
1163.253, 35.64355
1163.736, 35.10840
1164.218, 38.68555
1164.700, 38.16309
1165.182, 38.36719
1165.664, 58.99707
1166.146, 92.88770
1166.628, 113.7188
1167.110, 113.6543
1167.593, 94.82422
1168.075, 50.93652
1168.557, 10.27246
1169.039, 15.83789
1169.521, 24.32520
1170.003, 1.069336
1170.485, 32.45312
1170.967, 36.16016
1171.449, 23.66309
1171.932, 30.05762
1172.414, 59.62598
1172.896, 85.83789
1173.378, 119.0029
1173.860, 124.5420
1174.342, 85.43457
1174.824, 51.41211
1175.306, 45.33789
1175.788, 47.83691
1176.271, 38.75098
1176.753, 24.30762
1177.235, 25.11230
1177.717, 40.46582
1178.199, 28.44043
1178.681, 7.394531
1179.163, 7.062500
1179.645, 32.62109
1180.128, 51.58594
1180.610, 18.93848
1181.092, 14.23926
1181.574, 12.87109
1182.056, 61.12207
1182.538, 77.81055
1183.020, 75.60742
1183.502, 66.00293
1183.984, 54.08301
1184.467, 64.88672
1184.949, 90.27344
1185.431, 89.63281
1185.913, 39.99512
1186.395, 7.878906
1186.877, 31.25488
1187.359, 28.43262
1187.841, 61.82031
1188.323, 72.34473
1188.806, 11.52539
1189.288, 26.91016
1189.770, 16.30078
1190.252, 3.667969
1190.734, 59.20215
1191.216, 10.95605
1191.698, 43.58008
1192.180, 48.32617
1192.663, 75.87891
1193.145, 54.06348
1193.627, 47.48145
1194.109, 90.24121
1194.591, 105.6621
1195.073, 78.13672
1195.555, 107.0742
1196.037, 35.11523
1196.520, 51.68848
1197.002, 106.4443
1197.484, 81.36328
1197.966, 111.1562
1198.448, 120.0498
1198.930, 33.92383
1199.412, 113.0098
1199.894, 120.6387
1200.376, 54.79395
1200.859, 127.9434
1201.341, 71.76855
1201.823, 61.91113
1202.305, 86.96582
1202.787, 75.88477
1203.269, 121.7480
1203.751, 112.5020
1204.233, 98.13184
1204.715, 105.1641
1205.198, 74.10059
1205.680, 84.48242
1206.162, 109.7168
1206.644, 143.9678
1207.126, 161.6396
1207.608, 159.3574
1208.090, 139.8496
1208.572, 103.1963
1209.055, 62.78027
1209.537, 50.89453
1210.019, 60.28809
1210.501, 86.56543
1210.983, 117.3018
1211.465, 118.8281
1211.947, 85.77734
1212.429, 76.77148
1212.911, 116.1191
1213.394, 154.0557
1213.876, 162.6455
1214.358, 157.7227
1214.840, 139.8330
1215.322, 120.0352
1215.804, 96.13867
1216.286, 86.08008
1216.768, 98.16895
1217.250, 133.4355
1217.733, 124.4346
1218.215, 54.44336
1218.697, 18.33301
1219.179, 20.70020
1219.661, 12.55469
1220.143, 21.82422
1220.625, 22.68750
1221.107, 54.30273
1221.590, 139.6582
1222.072, 135.3350
1222.554, 84.24805
1223.036, 42.38086
1223.518, 20.35547
1224.000, 57.50977
1224.482, 123.4639
1224.964, 146.0605
1225.447, 121.7295
1225.929, 105.7119
1226.411, 117.2432
1226.893, 135.7705
1227.375, 177.6035
1227.857, 194.3770
1228.339, 136.2559
1228.821, 84.63184
1229.303, 91.36426
1229.786, 123.2188
1230.268, 144.2480
1230.750, 152.6201
1231.232, 131.5488
1231.714, 75.71289
1232.196, 74.62305
1232.678, 108.0605
1233.160, 113.6562
1233.642, 56.00977
1234.125, 19.78516
1234.607, 54.28711
1235.089, 99.24023
1235.571, 101.6895
1236.053, 89.98828
1236.535, 99.95898
1237.017, 104.0840
1237.499, 45.27148
1237.982, 15.33789
1238.464, 33.90430
1238.946, 161.6426
1239.428, 204.0840
1239.910, 131.3633
1240.392, 103.5625
1240.874, 165.1016
1241.356, 155.8457
1241.839, 118.6348
1242.321, 79.00000
1242.803, 47.16992
1243.285, 26.10938
1243.767, 1.595703
1244.249, 0.0000000E+00
##END=



