##NAMES=Gaspeite
##RRUFFID=R040157
##IDEAL CHEMISTRY=NiCO_3_
##LOCALITY=Lemieux Township, Gaspe Nord County, Gaspe Peninsula, Quebec, Canada
##OWNER=RRUFF
##SOURCE=University of Arizona Mineral Museum
##DESCRIPTION=Green massive
##STATUS=The identification of this mineral has been confirmed by X-ray diffraction and chemical analysis
##URL=rruff.info/R040157
##MEASURED CHEMISTRY=(Ni_0.54_Mg_0.31_Fe_0.15_Ca_0.01_Co_0.01_)C_1.00_O_3_; = the gray bands. Light grey bands are also gaspeite: (Ni_0.57_Mg_0.41_Fe_0.08_)C_0.97_O_3_; Dark grey bands, magnesite: (Mg_0.98_Fe_0.04_Ni_0.03_)C_0.97_O_3_
175.2140, 0.0000000E+00
175.6961, 20.05838
176.1783, 41.23302
176.6604, 45.38285
177.1425, 50.86499
177.6246, 65.32449
178.1067, 40.57337
178.5888, 20.06245
179.0710, 6.752748
179.5531, 2.761764
180.0352, 10.56458
180.5173, 7.159580
180.9994, 60.45661
181.4815, 80.71738
181.9637, 69.55334
182.4458, 54.07211
182.9279, 60.98178
183.4100, 84.23440
183.8921, 100.7685
184.3742, 88.95891
184.8564, 72.80529
185.3385, 115.4535
185.8206, 221.5316
186.3027, 341.6888
186.7848, 437.6744
187.2669, 508.7062
187.7491, 555.1669
188.2312, 569.1420
188.7133, 557.9637
189.1954, 548.5745
189.6775, 540.3714
190.1596, 534.8782
190.6418, 548.2142
191.1239, 578.6426
191.6060, 576.3821
192.0881, 496.0052
192.5702, 350.9060
193.0524, 256.9113
193.5345, 215.2516
194.0166, 220.9130
194.4987, 291.3947
194.9808, 433.0486
195.4629, 544.1996
195.9451, 556.7081
196.4272, 474.0094
196.9093, 425.5544
197.3914, 421.2742
197.8735, 442.0497
198.3556, 453.0248
198.8378, 452.3946
199.3199, 451.7342
199.8020, 453.7241
200.2841, 457.1018
200.7662, 476.1326
201.2483, 514.5712
201.7305, 566.2686
202.2126, 617.5544
202.6947, 669.3640
203.1768, 717.1563
203.6589, 756.6231
204.1410, 785.0673
204.6232, 818.3693
205.1053, 861.4120
205.5874, 908.7205
206.0695, 936.7344
206.5516, 935.2910
207.0337, 941.1874
207.5159, 983.8243
207.9980, 1068.868
208.4801, 1155.932
208.9622, 1244.369
209.4443, 1330.892
209.9264, 1392.906
210.4086, 1415.002
210.8907, 1444.108
211.3728, 1520.957
211.8549, 1663.723
212.3370, 1797.235
212.8191, 1916.449
213.3013, 2018.419
213.7834, 2086.528
214.2655, 2094.878
214.7476, 2111.524
215.2297, 2201.539
215.7118, 2396.482
216.1940, 2581.573
216.6761, 2734.386
217.1582, 2857.264
217.6403, 2986.744
218.1224, 3140.430
218.6045, 3274.473
219.0867, 3334.705
219.5688, 3276.325
220.0509, 3249.052
220.5330, 3291.014
221.0151, 3405.222
221.4972, 3507.450
221.9794, 3603.404
222.4615, 3675.966
222.9436, 3702.023
223.4257, 3660.539
223.9078, 3616.393
224.3899, 3591.039
224.8721, 3583.011
225.3542, 3553.117
225.8363, 3496.228
226.3184, 3418.651
226.8005, 3342.669
227.2827, 3289.013
227.7648, 3200.034
228.2469, 3047.495
228.7290, 2816.336
229.2111, 2602.365
229.6932, 2413.176
230.1754, 2237.307
230.6575, 2058.000
231.1396, 1877.030
231.6217, 1693.081
232.1038, 1500.753
232.5859, 1291.034
233.0681, 1120.834
233.5502, 1015.131
234.0323, 941.0575
234.5144, 847.8552
234.9965, 711.3665
235.4786, 594.5006
235.9608, 518.1608
236.4429, 480.4405
236.9250, 472.6179
237.4071, 522.4006
237.8892, 585.7743
238.3713, 588.4230
238.8535, 486.8647
239.3356, 395.1282
239.8177, 352.9890
240.2998, 376.4259
240.7819, 391.1035
241.2640, 391.1370
241.7462, 382.8514
242.2283, 371.6246
242.7104, 349.2483
243.1925, 336.5941
243.6746, 345.3769
244.1567, 397.2729
244.6389, 397.9731
245.1210, 311.4371
245.6031, 195.0827
246.0852, 157.7018
246.5673, 250.4307
247.0494, 335.2216
247.5316, 365.6190
248.0137, 328.1678
248.4958, 264.6962
248.9779, 143.3626
249.4600, 16.29149
249.9421, 8.681435
250.4243, 126.6339
250.9064, 260.1364
251.3885, 334.2712
251.8706, 338.8840
252.3527, 312.2925
252.8348, 228.0245
253.3170, 128.8367
253.7991, 106.1470
254.2812, 207.0488
254.7633, 293.4872
255.2454, 308.4111
255.7275, 228.1667
256.2097, 160.0793
256.6918, 100.5812
257.1739, 55.81378
257.6560, 39.18295
258.1381, 58.34069
258.6202, 90.43311
259.1024, 133.5778
259.5845, 195.8719
260.0666, 230.2172
260.5487, 227.8847
261.0308, 203.9757
261.5129, 186.2283
261.9951, 173.1622
262.4772, 169.4568
262.9593, 183.0930
263.4414, 224.8463
263.9235, 231.8667
264.4056, 192.3377
264.8878, 129.6541
265.3699, 85.39777
265.8520, 64.67030
266.3341, 47.79559
266.8162, 23.06287
267.2983, 15.21559
267.7805, 22.19133
268.2626, 14.30964
268.7447, 68.22182
269.2268, 93.47482
269.7089, 83.63475
270.1910, 67.86186
270.6732, 57.26405
271.1553, 52.40131
271.6374, 47.65246
272.1195, 46.34159
272.6016, 40.34772
273.0837, 8.010536
273.5659, 53.55402
274.0480, 5.3303000E-02
274.5301, 18.24814
275.0122, 0.3232990
275.4943, 24.00400
275.9764, 50.23576
276.4586, 14.48056
276.9407, 13.06388
277.4228, 31.45211
277.9049, 42.45753
278.3870, 47.53326
278.8691, 46.37849
279.3513, 25.42476
279.8334, 23.02116
280.3155, 28.43419
280.7976, 22.58958
281.2798, 36.54059
281.7619, 2.707809
282.2440, 26.03737
282.7261, 34.38202
283.2082, 31.70337
283.6903, 15.50927
284.1725, 2.524643
284.6546, 5.028843
285.1367, 6.941555
285.6188, 14.70874
286.1009, 7.466335
286.5830, 9.744934
287.0652, 13.40882
287.5473, 2.321003
288.0294, 12.77460
288.5115, 17.25266
288.9936, 13.23453
289.4757, 17.26551
289.9579, 49.84339
290.4400, 91.06583
290.9221, 75.57184
291.4042, 0.9667020
291.8863, 3.306889
292.3684, 23.52269
292.8506, 3.382111
293.3327, 39.84690
293.8148, 38.90661
294.2969, 126.3106
294.7790, 153.9651
295.2611, 121.9493
295.7433, 82.10114
296.2254, 96.20737
296.7075, 140.8109
297.1896, 145.5372
297.6717, 68.49470
298.1538, 37.00811
298.6360, 30.61119
299.1181, 59.06679
299.6002, 56.90932
300.0823, 14.37700
300.5644, 20.14834
301.0465, 44.39010
301.5287, 105.2960
302.0108, 151.7563
302.4929, 167.9936
302.9750, 156.5978
303.4571, 129.1821
303.9392, 73.20730
304.4214, 12.29445
304.9035, 21.25101
305.3856, 16.00392
305.8677, 12.26495
306.3498, 61.36502
306.8319, 124.6712
307.3141, 180.8945
307.7962, 206.2089
308.2783, 222.2467
308.7604, 255.0176
309.2425, 322.7045
309.7246, 379.2392
310.2068, 376.7993
310.6889, 338.3013
311.1710, 326.6259
311.6531, 372.1521
312.1352, 455.5987
312.6173, 575.5830
313.0995, 755.8943
313.5816, 902.1176
314.0637, 920.3629
314.5458, 877.4379
315.0279, 898.9800
315.5100, 1119.059
315.9922, 1351.715
316.4743, 1482.575
316.9564, 1463.974
317.4385, 1477.287
317.9206, 1591.382
318.4027, 1770.018
318.8849, 1960.026
319.3670, 2146.429
319.8491, 2342.424
320.3312, 2550.645
320.8133, 2771.667
321.2954, 3011.373
321.7776, 3266.713
322.2597, 3545.555
322.7418, 3856.266
323.2239, 4231.598
323.7060, 4607.376
324.1881, 4972.333
324.6703, 5326.328
325.1524, 5666.376
325.6345, 5978.158
326.1166, 6280.825
326.5987, 6590.279
327.0808, 6871.944
327.5630, 7201.492
328.0451, 7617.451
328.5272, 8113.350
329.0093, 8554.244
329.4914, 8948.183
329.9735, 9269.523
330.4557, 9492.277
330.9378, 9557.906
331.4199, 9627.804
331.9020, 9745.924
332.3841, 9887.507
332.8662, 9943.375
333.3484, 9894.729
333.8305, 9783.847
334.3126, 9634.481
334.7947, 9445.527
335.2768, 9216.886
335.7589, 8941.139
336.2411, 8630.213
336.7232, 8308.450
337.2053, 7981.769
337.6874, 7633.317
338.1695, 7248.331
338.6516, 6826.272
339.1338, 6388.140
339.6159, 5936.628
340.0980, 5478.001
340.5801, 5022.234
341.0622, 4560.477
341.5443, 4138.725
342.0265, 3778.985
342.5086, 3480.000
342.9907, 3169.574
343.4728, 2841.234
343.9549, 2526.046
344.4370, 2283.771
344.9192, 2108.355
345.4013, 1926.898
345.8834, 1697.422
346.3655, 1450.019
346.8476, 1287.098
347.3297, 1213.880
347.8119, 1166.743
348.2940, 1086.814
348.7761, 985.6030
349.2582, 898.9878
349.7403, 840.7584
350.2225, 796.2748
350.7046, 750.7057
351.1867, 700.2471
351.6688, 641.2109
352.1509, 551.5789
352.6331, 451.1599
353.1152, 369.4108
353.5973, 313.9995
354.0794, 277.5425
354.5615, 256.5099
355.0436, 248.6433
355.5258, 249.8606
356.0079, 277.4681
356.4900, 302.5995
356.9721, 289.0842
357.4542, 222.0086
357.9363, 159.4586
358.4185, 125.2960
358.9006, 111.2998
359.3827, 106.1771
359.8648, 115.7399
360.3469, 127.1094
360.8290, 134.8793
361.3112, 139.0066
361.7933, 137.6516
362.2754, 113.3203
362.7575, 86.06087
363.2396, 85.37718
363.7217, 167.5576
364.2039, 227.6620
364.6860, 233.7762
365.1681, 184.4043
365.6502, 127.0160
366.1323, 37.15319
366.6144, 19.93153
367.0966, 7.560627
367.5787, 14.30454
368.0608, 32.33652
368.5429, 92.71590
369.0250, 157.6072
369.5071, 165.3052
369.9893, 63.74549
370.4714, 20.80429
370.9535, 15.84210
371.4356, 7.771141
371.9177, 29.72881
372.3998, 32.79336
372.8820, 13.77403
373.3641, 3.739891
373.8462, 20.29706
374.3283, 4.985491
374.8104, 18.89445
375.2925, 17.33821
375.7747, 46.70174
376.2568, 58.21957
376.7389, 57.81361
377.2210, 44.53386
377.7031, 9.498989
378.1852, 3.893480
378.6674, 33.44149
379.1495, 104.7862
379.6316, 128.6087
380.1137, 90.42597
380.5958, 47.78030
381.0779, 57.48030
381.5601, 109.4947
382.0422, 151.3745
382.5243, 173.8733
383.0064, 179.6585
383.4885, 165.8100
383.9706, 134.8502
384.4528, 107.5215
384.9349, 99.49558
385.4170, 103.8898
385.8991, 114.4424
386.3812, 136.6183
386.8633, 145.7457
387.3455, 95.11346
387.8276, 11.96784
388.3097, 4.898193
388.7918, 3.197493
389.2739, 71.74168
389.7560, 109.4143
390.2382, 104.7408
390.7203, 90.36263
391.2024, 78.82119
391.6845, 69.46693
392.1666, 61.86105
392.6487, 59.97618
393.1309, 61.43859
393.6130, 61.76412
394.0951, 54.23741
394.5772, 35.56829
395.0593, 8.922913
395.5414, 45.01572
396.0236, 55.70660
396.5057, 18.01190
396.9878, 54.89775
397.4699, 148.6888
397.9520, 241.1969
398.4341, 262.7581
398.9163, 141.5365
399.3984, 22.28582
399.8805, 7.750044
400.3626, 19.25341
400.8447, 10.00649
401.3268, 83.59449
401.8090, 205.5259
402.2911, 221.2564
402.7732, 77.48590
403.2553, 7.003102
403.7374, 6.069742
404.2195, 30.97243
404.7017, 69.44006
405.1838, 60.57033
405.6659, 38.37495
406.1480, 35.35781
406.6301, 51.63625
407.1122, 55.78213
407.5944, 36.86642
408.0765, 8.660383
408.5586, 8.308891
409.0407, 35.37401
409.5228, 60.18785
410.0049, 58.96145
410.4871, 39.52684
410.9692, 22.37623
411.4513, 8.134666
411.9334, 2.200346
412.4155, 20.72414
412.8976, 54.71562
413.3798, 76.53024
413.8619, 70.85526
414.3440, 49.34719
414.8261, 11.98655
415.3082, 5.340463
415.7903, 13.55245
416.2725, 7.719448
416.7546, 95.69470
417.2367, 155.6376
417.7188, 161.0910
418.2009, 144.1254
418.6830, 98.22892
419.1652, 35.85099
419.6473, 3.229826
420.1294, 51.41062
420.6115, 107.0238
421.0937, 128.5448
421.5758, 88.97098
422.0579, 59.56031
422.5400, 68.87917
423.0221, 89.88846
423.5042, 78.08437
423.9864, 10.56433
424.4685, 59.18120
424.9506, 50.37750
425.4327, 1.308039
425.9148, 82.32129
426.3969, 153.9648
426.8791, 207.1289
427.3612, 218.7974
427.8433, 177.2609
428.3254, 144.0747
428.8075, 136.3883
429.2896, 143.1621
429.7718, 114.0332
430.2539, 39.53645
430.7360, 24.38025
431.2181, 9.983913
431.7002, 18.72081
432.1823, 24.00734
432.6645, 92.29427
433.1466, 151.9548
433.6287, 126.9431
434.1108, 36.50937
434.5929, 21.85816
435.0750, 26.22222
435.5572, 116.8302
436.0393, 116.1055
436.5214, 30.27132
437.0035, 29.91448
437.4856, 71.07025
437.9677, 237.5933
438.4499, 332.1162
438.9320, 292.9866
439.4141, 219.4762
439.8962, 159.8939
440.3783, 118.9094
440.8604, 107.7256
441.3426, 171.2856
441.8247, 235.6423
442.3068, 254.4093
442.7889, 213.0940
443.2710, 171.7827
443.7531, 135.3387
444.2353, 111.3790
444.7174, 108.2475
445.1995, 179.5692
445.6816, 213.9379
446.1637, 162.9314
446.6458, 42.34098
447.1280, 18.54006
447.6101, 12.73283
448.0922, 67.99806
448.5743, 115.6305
449.0564, 170.6147
449.5385, 170.9013
450.0207, 82.17226
450.5028, 32.11131
450.9849, 35.98238
451.4670, 94.83307
451.9491, 211.2437
452.4312, 251.4983
452.9134, 222.7073
453.3955, 201.7356
453.8776, 191.6178
454.3597, 180.7633
454.8418, 145.3525
455.3239, 91.86353
455.8061, 57.55457
456.2882, 53.36296
456.7703, 68.14580
457.2524, 93.39287
457.7345, 123.4768
458.2166, 148.9120
458.6988, 166.8924
459.1809, 177.9062
459.6630, 170.6545
460.1451, 140.6297
460.6272, 121.3631
461.1093, 151.5016
461.5915, 198.4244
462.0736, 219.7369
462.5557, 159.1747
463.0378, 105.5581
463.5199, 94.85604
464.0020, 122.6673
464.4842, 153.2943
464.9663, 197.5511
465.4484, 228.7942
465.9305, 230.2524
466.4126, 170.3730
466.8947, 138.1095
467.3769, 143.0416
467.8590, 170.4742
468.3411, 200.6936
468.8232, 244.9791
469.3053, 266.7462
469.7874, 248.7397
470.2696, 194.9952
470.7517, 171.7353
471.2338, 191.9135
471.7159, 201.1858
472.1980, 124.7319
472.6801, 34.57312
473.1623, 14.34790
473.6444, 29.42628
474.1265, 41.10666
474.6086, 137.6475
475.0907, 216.4310
475.5728, 259.4102
476.0550, 227.4164
476.5371, 163.8504
477.0192, 140.0974
477.5013, 158.4129
477.9834, 189.5515
478.4655, 217.5578
478.9477, 239.6816
479.4298, 251.9778
479.9119, 251.1181
480.3940, 243.4230
480.8761, 224.9455
481.3582, 200.7582
481.8404, 181.9515
482.3225, 213.8104
482.8046, 224.8573
483.2867, 164.1185
483.7688, 25.86778
484.2509, 14.43941
484.7331, 11.24501
485.2152, 155.6999
485.6973, 246.9655
486.1794, 222.7306
486.6615, 187.9415
487.1436, 141.1168
487.6258, 94.04272
488.1079, 115.1376
488.5900, 221.7060
489.0721, 326.6929
489.5542, 390.9789
490.0363, 416.8642
490.5185, 415.8579
491.0006, 383.9305
491.4827, 333.5037
491.9648, 260.9368
492.4470, 173.1644
492.9291, 128.6223
493.4112, 154.7997
493.8933, 221.3085
494.3754, 301.4664
494.8575, 387.0438
495.3397, 448.2342
495.8218, 442.7693
496.3039, 394.3597
496.7860, 315.8387
497.2681, 188.8677
497.7502, 99.04591
498.2324, 132.0215
498.7145, 219.3602
499.1966, 269.2276
499.6787, 182.1342
500.1608, 110.1153
500.6429, 110.0461
501.1251, 181.2117
501.6072, 245.9165
502.0893, 312.5200
502.5714, 360.4598
503.0535, 376.3374
503.5356, 335.0198
504.0178, 322.8147
504.4999, 354.7353
504.9820, 397.6944
505.4641, 409.5555
505.9462, 385.7528
506.4283, 346.0443
506.9105, 286.1048
507.3926, 219.3577
507.8747, 200.5953
508.3568, 223.6171
508.8389, 246.3082
509.3210, 236.9987
509.8032, 207.8471
510.2853, 199.6570
510.7674, 219.0105
511.2495, 253.8136
511.7316, 311.4836
512.2137, 371.5165
512.6959, 403.2842
513.1780, 366.3489
513.6601, 318.7108
514.1422, 299.6661
514.6243, 304.8968
515.1064, 311.4467
515.5886, 307.5751
516.0707, 305.3051
516.5528, 316.1414
517.0349, 367.8059
517.5170, 378.2441
517.9991, 291.6904
518.4813, 177.9181
518.9634, 126.5247
519.4455, 165.9209
519.9276, 220.9114
520.4097, 293.0583
520.8918, 370.9243
521.3740, 386.7311
521.8561, 320.7620
522.3382, 244.5940
522.8203, 189.5593
523.3024, 158.8321
523.7845, 191.8786
524.2667, 309.7922
524.7488, 420.1593
525.2309, 385.8059
525.7130, 245.7559
526.1951, 139.3684
526.6772, 115.2426
527.1594, 146.0151
527.6415, 231.9210
528.1236, 354.4439
528.6057, 434.3728
529.0878, 372.6062
529.5699, 285.0190
530.0521, 273.1660
530.5342, 371.9657
531.0163, 423.3811
531.4984, 324.7120
531.9805, 184.5264
532.4626, 109.7078
532.9448, 175.2878
533.4269, 235.8300
533.9090, 280.2530
534.3911, 302.6763
534.8732, 285.4120
535.3553, 189.3906
535.8375, 128.6344
536.3196, 175.3000
536.8017, 339.3950
537.2838, 411.4820
537.7659, 378.3810
538.2480, 300.8420
538.7302, 228.6510
539.2123, 163.4556
539.6944, 109.0141
540.1765, 64.26759
540.6586, 34.08337
541.1407, 27.67321
541.6229, 38.71783
542.1050, 56.98689
542.5871, 99.70770
543.0692, 143.7733
543.5513, 174.3386
544.0334, 189.9118
544.5156, 175.6019
544.9977, 72.48708
545.4798, 33.73724
545.9619, 11.00567
546.4440, 31.82629
546.9261, 114.8806
547.4083, 150.6281
547.8904, 153.2503
548.3725, 145.2551
548.8546, 108.9627
549.3367, 92.84207
549.8188, 121.0726
550.3010, 186.6375
550.7831, 204.4834
551.2652, 166.9306
551.7473, 107.0025
552.2294, 34.23044
552.7115, 36.08817
553.1937, 8.266411
553.6758, 9.526993
554.1579, 16.23613
554.6400, 4.198452
555.1221, 73.20101
555.6042, 92.98314
556.0864, 30.02414
556.5685, 76.35594
557.0506, 69.11078
557.5327, 38.52526
558.0148, 73.61224
558.4969, 153.8432
558.9791, 196.4489
559.4612, 182.0389
559.9433, 91.69109
560.4254, 34.17907
560.9075, 61.51052
561.3896, 112.1153
561.8718, 132.0401
562.3539, 103.3477
562.8360, 75.46223
563.3181, 56.18846
563.8002, 37.00823
564.2823, 15.25816
564.7645, 29.27682
565.2466, 93.10068
565.7287, 76.74466
566.2108, 4.274792
566.6929, 0.2491490
567.1750, 86.23120
567.6572, 139.5255
568.1393, 92.85876
568.6214, 3.159782
569.1035, 37.90166
569.5856, 19.54457
570.0677, 82.59223
570.5499, 69.44425
571.0320, 17.10089
571.5141, 15.74265
571.9962, 6.972301
572.4783, 24.68221
572.9604, 95.59508
573.4426, 191.4691
573.9247, 242.5831
574.4068, 187.2358
574.8889, 130.1463
575.3710, 112.5176
575.8531, 142.6303
576.3353, 172.0363
576.8174, 214.4267
577.2995, 234.9028
577.7816, 183.8398
578.2637, 51.02667
578.7458, 44.27091
579.2280, 6.547405
579.7101, 12.37673
580.1922, 0.9728430
580.6743, 134.7484
581.1564, 219.9930
581.6385, 167.7063
582.1207, 57.56021
582.6028, 26.10930
583.0849, 14.93548
583.5670, 8.123325
584.0491, 23.34642
584.5313, 147.2928
585.0134, 192.1064
585.4955, 111.9435
585.9776, 57.42907
586.4597, 101.9461
586.9418, 176.7991
587.4240, 201.0171
587.9061, 107.8382
588.3882, 69.28655
588.8703, 143.3055
589.3524, 272.9565
589.8345, 268.0373
590.3167, 84.03237
590.7988, 38.11303
591.2809, 47.34258
591.7630, 75.12018
592.2451, 134.6847
592.7272, 122.9915
593.2094, 100.9783
593.6915, 140.2882
594.1736, 201.0670
594.6557, 191.9633
595.1378, 78.37552
595.6199, 21.03225
596.1021, 0.9695510
596.5842, 88.61119
597.0663, 162.6594
597.5485, 194.4544
598.0306, 209.4571
598.5127, 210.3807
598.9948, 199.5204
599.4769, 186.2835
599.9590, 162.4688
600.4412, 147.6644
600.9233, 154.3760
601.4054, 185.8750
601.8875, 184.6555
602.3696, 138.1710
602.8517, 89.21041
603.3339, 72.94135
603.8160, 89.44271
604.2981, 114.2184
604.7802, 143.2605
605.2623, 164.3266
605.7444, 150.2606
606.2266, 114.2814
606.7087, 91.31052
607.1908, 99.44212
607.6729, 120.0118
608.1550, 146.4417
608.6371, 174.4895
609.1193, 192.2567
609.6014, 187.2356
610.0835, 176.9888
610.5656, 160.0008
611.0477, 136.9352
611.5298, 140.4565
612.0120, 204.6456
612.4941, 265.3254
612.9762, 267.2873
613.4583, 183.3754
613.9404, 138.0316
614.4225, 145.3172
614.9047, 174.6667
615.3868, 178.0998
615.8689, 157.2175
616.3510, 132.1649
616.8331, 98.54327
617.3152, 78.79039
617.7974, 143.5077
618.2795, 262.4375
618.7616, 323.2672
619.2437, 180.2156
619.7258, 17.75134
620.2079, 13.21915
620.6901, 94.47132
621.1722, 200.1398
621.6543, 280.4740
622.1364, 324.1190
622.6185, 314.1593
623.1006, 206.6154
623.5828, 148.7060
624.0649, 167.3502
624.5470, 215.3202
625.0291, 239.7828
625.5112, 240.6376
625.9933, 210.7910
626.4755, 132.3952
626.9576, 42.50216
627.4397, 35.02010
627.9218, 99.08688
628.4039, 171.6711
628.8860, 232.7418
629.3682, 277.7443
629.8503, 297.4035
630.3324, 294.8039
630.8145, 291.1515
631.2966, 284.9758
631.7787, 284.5269
632.2609, 303.5719
632.7430, 347.7908
633.2251, 398.1466
633.7072, 469.1015
634.1893, 523.0361
634.6714, 531.5819
635.1536, 471.2461
635.6357, 416.5602
636.1178, 372.3682
636.5999, 334.0654
637.0820, 298.6107
637.5641, 264.4268
638.0463, 256.9243
638.5284, 294.9053
639.0105, 350.8958
639.4926, 372.3258
639.9747, 362.6951
640.4568, 339.7320
640.9390, 297.6960
641.4211, 262.3119
641.9032, 264.4025
642.3853, 303.7603
642.8674, 343.1126
643.3495, 375.7560
643.8317, 397.6283
644.3138, 404.6044
644.7959, 381.5219
645.2780, 376.2916
645.7601, 401.0376
646.2422, 434.8732
646.7244, 467.2810
647.2065, 504.7219
647.6886, 498.2349
648.1707, 421.2341
648.6528, 318.5308
649.1349, 295.9253
649.6171, 346.9617
650.0992, 397.8284
650.5813, 412.2832
651.0634, 411.9047
651.5455, 427.1685
652.0276, 450.8589
652.5098, 454.6997
652.9919, 406.6130
653.4740, 349.0680
653.9561, 313.5284
654.4382, 306.2686
654.9203, 292.3205
655.4025, 223.3236
655.8846, 175.9842
656.3667, 204.7470
656.8488, 337.9036
657.3309, 474.6057
657.8130, 634.4190
658.2952, 757.0494
658.7773, 720.5417
659.2594, 539.0898
659.7415, 419.4702
660.2236, 434.5406
660.7057, 503.8897
661.1879, 516.1492
661.6700, 488.3522
662.1521, 467.4399
662.6342, 469.1777
663.1163, 491.1439
663.5984, 550.8384
664.0806, 639.7377
664.5627, 692.2172
665.0448, 683.5971
665.5269, 640.4706
666.0090, 562.1430
666.4911, 437.6609
666.9733, 365.1962
667.4554, 356.3114
667.9375, 376.5847
668.4196, 407.3890
668.9017, 447.9650
669.3839, 467.3558
669.8660, 460.3789
670.3481, 443.2033
670.8302, 418.9278
671.3123, 399.8377
671.7944, 419.6496
672.2766, 531.0490
672.7587, 614.4344
673.2408, 547.4273
673.7229, 401.7498
674.2050, 316.9650
674.6871, 414.1192
675.1693, 487.2674
675.6514, 455.3392
676.1335, 345.8346
676.6156, 310.9490
677.0977, 391.7448
677.5798, 452.8079
678.0620, 417.1250
678.5441, 300.2149
679.0262, 252.0409
679.5083, 275.5406
679.9904, 315.6566
680.4725, 337.1024
680.9547, 342.5343
681.4368, 336.6710
681.9189, 319.9135
682.4010, 292.1122
682.8831, 223.7188
683.3652, 158.6160
683.8474, 144.8508
684.3295, 246.2849
684.8116, 315.0756
685.2937, 320.8366
685.7758, 286.5054
686.2579, 237.1367
686.7401, 167.9805
687.2222, 92.25316
687.7043, 2.539795
688.1864, 32.27338
688.6685, 51.81862
689.1506, 49.29672
689.6328, 126.1169
690.1149, 56.38392
690.5970, 57.97262
691.0791, 46.88128
691.5612, 10.64030
692.0433, 111.2336
692.5255, 239.5079
693.0076, 339.4241
693.4897, 369.0448
693.9718, 320.5965
694.4539, 260.2073
694.9360, 176.8594
695.4182, 102.6968
695.9003, 53.87280
696.3824, 32.93287
696.8645, 33.19728
697.3466, 61.58789
697.8287, 93.01870
698.3109, 95.65582
698.7930, 77.61755
699.2751, 74.94519
699.7572, 99.75998
700.2393, 119.6421
700.7214, 104.3377
701.2036, 65.13579
701.6857, 20.20036
702.1678, 48.50764
702.6499, 4.030239
703.1320, 33.48479
703.6141, 7.871017
704.0963, 57.22757
704.5784, 66.89756
705.0605, 65.06811
705.5426, 49.20051
706.0247, 27.09141
706.5068, 48.90019
706.9890, 124.7933
707.4711, 160.7653
707.9532, 69.69885
708.4353, 6.960743
708.9174, 66.01585
709.3995, 58.10031
709.8817, 7.492229
710.3638, 26.44717
710.8459, 144.0980
711.3280, 158.4118
711.8101, 46.56269
712.2922, 42.92659
712.7744, 12.29913
713.2565, 21.30451
713.7386, 14.62721
714.2207, 132.1269
714.7028, 188.7890
715.1849, 120.9345
715.6671, 18.32707
716.1492, 16.78430
716.6313, 12.61677
717.1134, 40.16801
717.5955, 53.98775
718.0776, 66.41079
718.5598, 106.2976
719.0419, 159.3171
719.5240, 195.5162
720.0061, 194.3791
720.4882, 186.7263
720.9703, 188.3939
721.4525, 193.8975
721.9346, 190.3852
722.4167, 142.6071
722.8988, 131.2349
723.3809, 184.5891
723.8630, 284.3492
724.3452, 354.3122
724.8273, 389.6844
725.3094, 429.1032
725.7915, 510.4911
726.2736, 603.3712
726.7557, 603.7016
727.2379, 525.5403
727.7200, 465.2536
728.2021, 471.6692
728.6842, 521.4144
729.1663, 633.0057
729.6484, 812.7979
730.1306, 924.5190
730.6127, 857.3722
731.0948, 770.3664
731.5769, 751.8986
732.0590, 819.1411
732.5411, 884.4686
733.0233, 947.4200
733.5054, 1009.409
733.9875, 1073.258
734.4696, 1138.260
734.9517, 1198.919
735.4338, 1256.382
735.9160, 1301.017
736.3981, 1318.041
736.8802, 1317.456
737.3623, 1315.634
737.8444, 1326.695
738.3266, 1317.928
738.8087, 1246.970
739.2908, 1158.620
739.7729, 1121.035
740.2551, 1171.276
740.7372, 1210.267
741.2193, 1236.084
741.7014, 1236.908
742.1835, 1163.722
742.6656, 1015.581
743.1478, 924.0799
743.6299, 964.4367
744.1120, 1041.902
744.5941, 988.6383
745.0762, 843.4276
745.5583, 727.6145
746.0405, 734.9913
746.5226, 749.8908
747.0047, 705.3534
747.4868, 610.5751
747.9689, 532.0275
748.4510, 478.2726
748.9332, 438.2392
749.4153, 412.0155
749.8974, 395.9857
750.3795, 387.7594
750.8616, 391.1882
751.3438, 373.0296
751.8259, 280.9187
752.3080, 158.4625
752.7901, 134.1121
753.2722, 207.3227
753.7543, 269.8519
754.2365, 248.9653
754.7186, 187.6865
755.2007, 107.4685
755.6828, 0.7879010
756.1649, 17.15646
756.6470, 13.48419
757.1292, 19.64307
757.6113, 20.05702
758.0934, 90.84123
758.5755, 120.3112
759.0576, 95.67768
759.5397, 73.69091
760.0219, 137.9349
760.5040, 256.8117
760.9861, 300.5718
761.4682, 242.1100
761.9503, 167.1857
762.4324, 139.7131
762.9146, 136.8248
763.3967, 130.5132
763.8788, 101.6455
764.3609, 89.55730
764.8430, 128.5066
765.3251, 171.4229
765.8073, 155.0408
766.2894, 51.32057
766.7715, 3.775805
767.2536, 24.58752
767.7357, 88.30907
768.2178, 105.6539
768.7000, 83.86430
769.1821, 57.24492
769.6642, 32.05346
770.1463, 11.05096
770.6284, 14.05062
771.1105, 25.70595
771.5927, 20.67352
772.0748, 14.25994
772.5569, 23.01476
773.0390, 7.542938
773.5211, 12.59047
774.0032, 31.91746
774.4854, 6.152201
774.9675, 28.13301
775.4496, 9.809589
775.9317, 33.27259
776.4138, 68.09548
776.8959, 93.33883
777.3781, 103.9713
777.8602, 77.19599
778.3423, 54.29817
778.8244, 68.45694
779.3065, 108.9114
779.7886, 145.0907
780.2708, 177.8543
780.7529, 192.5694
781.2350, 184.5562
781.7171, 155.2522
782.1992, 113.3584
782.6813, 51.27753
783.1635, 4.320694
783.6456, 11.30865
784.1277, 4.755314
784.6098, 39.69180
785.0919, 87.92345
785.5740, 97.07516
786.0562, 9.892086
786.5383, 94.08334
787.0204, 174.8589
787.5025, 198.3001
787.9846, 186.7549
788.4667, 91.58875
788.9489, 20.37551
789.4310, 20.03039
789.9131, 95.65686
790.3952, 147.4063
790.8773, 170.0367
791.3594, 191.8915
791.8416, 252.1739
792.3237, 325.2121
792.8058, 334.2015
793.2879, 276.4154
793.7700, 207.8304
794.2521, 132.9544
794.7343, 86.86533
795.2164, 114.6337
795.6985, 250.4135
796.1806, 337.3082
796.6627, 341.4687
797.1448, 314.9629
797.6270, 281.7049
798.1091, 237.9760
798.5912, 225.3465
799.0733, 250.8399
799.5554, 270.6592
800.0375, 225.7262
800.5197, 149.1976
801.0018, 111.9870
801.4839, 129.4930
801.9660, 136.7001
802.4481, 69.73333
802.9302, 9.634039
803.4124, 13.90978
803.8945, 14.99363
804.3766, 9.641195
804.8587, 12.32802
805.3408, 24.95782
805.8229, 82.54651
806.3051, 184.8279
806.7872, 299.1116
807.2693, 434.8855
807.7514, 507.8370
808.2335, 364.2709
808.7156, 125.6637
809.1978, 15.42192
809.6799, 13.71702
810.1620, 20.06845
810.6441, 47.14883
811.1262, 68.03977
811.6083, 81.32718
812.0905, 75.04238
812.5726, 91.99784
813.0547, 141.3264
813.5368, 197.0613
814.0189, 234.4915
814.5010, 254.1600
814.9832, 237.2154
815.4653, 174.2809
815.9474, 118.0131
816.4295, 138.5130
816.9116, 187.1723
817.3937, 201.5017
817.8759, 145.8270
818.3580, 95.22247
818.8401, 51.00065
819.3222, 28.20681
819.8043, 50.88786
820.2864, 135.7938
820.7686, 184.0654
821.2507, 178.1244
821.7328, 159.4629
822.2149, 198.8077
822.6970, 266.8431
823.1791, 282.2285
823.6613, 212.3545
824.1434, 135.6490
824.6255, 93.02496
825.1076, 76.63291
825.5897, 80.94637
826.0718, 141.9223
826.5540, 169.7797
827.0361, 150.3464
827.5182, 114.4585
828.0003, 106.1281
828.4824, 124.6677
828.9645, 102.2045
829.4467, 17.77272
829.9288, 18.37884
830.4109, 3.938181
830.8930, 11.77228
831.3751, 40.21096
831.8572, 15.79132
832.3394, 1.8456999E-02
832.8215, 3.247271
833.3036, 74.65411
833.7857, 128.5907
834.2678, 162.1514
834.7499, 146.6338
835.2321, 60.54498
835.7142, 26.90819
836.1963, 26.98773
836.6784, 44.50166
837.1605, 112.8183
837.6426, 169.8997
838.1248, 193.2223
838.6069, 129.5442
839.0890, 39.39649
839.5711, 9.127092
840.0532, 19.15435
840.5353, 51.94280
841.0175, 85.17506
841.4996, 117.3512
841.9817, 162.3885
842.4638, 221.6584
842.9459, 199.2951
843.4280, 73.63425
843.9102, 17.13082
844.3923, 22.60752
844.8744, 66.52728
845.3565, 81.39609
845.8386, 31.72765
846.3207, 50.19307
846.8029, 0.5276220
847.2850, 23.92376
847.7671, 76.81188
848.2492, 77.36404
848.7313, 74.34566
849.2134, 64.99129
849.6956, 58.29304
850.1777, 67.31346
850.6598, 86.93530
851.1419, 102.9635
851.6240, 115.0463
852.1061, 109.8713
852.5883, 34.32120
853.0704, 33.88510
853.5525, 22.11770
854.0346, 137.1296
854.5167, 231.6972
854.9988, 221.4446
855.4810, 182.4967
855.9631, 162.2365
856.4452, 160.6872
856.9273, 192.4350
857.4094, 261.6549
857.8915, 310.9378
858.3737, 264.7993
858.8558, 181.0071
859.3379, 136.5201
859.8200, 143.5488
860.3021, 144.2263
860.7842, 96.84568
861.2664, 51.64885
861.7485, 35.75811
862.2306, 52.23437
862.7127, 87.74730
863.1948, 145.0677
863.6769, 211.5448
864.1591, 305.4910
864.6412, 395.9219
865.1233, 384.9000
865.6054, 279.9955
866.0875, 211.2556
866.5696, 317.1878
867.0518, 429.6497
867.5339, 438.2760
868.0160, 331.4596
868.4981, 251.6048
868.9802, 206.8912
869.4623, 170.8502
869.9445, 125.8644
870.4266, 80.56682
870.9087, 82.26019
871.3908, 125.1067
871.8729, 169.5941
872.3550, 195.4416
872.8372, 210.6485
873.3193, 223.2744
873.8014, 234.2794
874.2835, 234.0193
874.7656, 193.1893
875.2477, 170.0782
875.7299, 191.6783
876.2120, 238.4349
876.6941, 218.8167
877.1762, 132.4721
877.6583, 81.38573
878.1404, 144.3931
878.6226, 229.3775
879.1047, 195.9401
879.5869, 85.94050
880.0690, 10.48851
880.5511, 40.15412
881.0332, 65.45311
881.5153, 31.69586
881.9974, 20.32204
882.4796, 1.027962
882.9617, 105.1638
883.4438, 195.1994
883.9259, 243.8836
884.4080, 265.7242
884.8901, 276.8461
885.3723, 279.0776
885.8544, 278.3561
886.3365, 291.9349
886.8186, 283.7185
887.3007, 188.7316
887.7828, 68.14287
888.2650, 17.49675
888.7471, 71.87390
889.2292, 113.4931
889.7113, 129.3282
890.1934, 126.8673
890.6755, 101.0298
891.1577, 64.17866
891.6398, 61.08535
892.1219, 110.3205
892.6040, 170.0552
893.0861, 212.1931
893.5682, 235.6474
894.0504, 243.1765
894.5325, 231.5721
895.0146, 217.2727
895.4967, 198.9109
895.9788, 180.0256
896.4609, 159.1718
896.9431, 138.7632
897.4252, 141.8180
897.9073, 172.6519
898.3894, 192.4781
898.8715, 153.1898
899.3536, 104.3996
899.8358, 84.88702
900.3179, 99.08166
900.8000, 142.0733
901.2821, 243.2603
901.7642, 323.8587
902.2463, 355.4525
902.7285, 341.8551
903.2106, 288.2923
903.6927, 193.9274
904.1748, 113.2232
904.6569, 98.65861
905.1390, 108.5425
905.6212, 83.57531
906.1033, 38.97541
906.5854, 43.89146
907.0675, 184.8078
907.5496, 298.3667
908.0317, 351.5410
908.5139, 349.0514
908.9960, 278.6480
909.4781, 140.1901
909.9602, 62.26352
910.4423, 118.7435
910.9244, 207.8822
911.4066, 220.2555
911.8887, 183.0331
912.3708, 141.4439
912.8529, 92.42527
913.3350, 66.41476
913.8171, 79.85719
914.2993, 110.6514
914.7814, 133.6690
915.2635, 149.8185
915.7456, 155.5865
916.2277, 147.3530
916.7098, 126.1104
917.1920, 90.37559
917.6741, 54.03940
918.1562, 29.12511
918.6383, 6.426529
919.1204, 39.06403
919.6025, 253.9342
920.0847, 437.5001
920.5668, 421.2379
921.0489, 160.2883
921.5310, 30.04174
922.0131, 41.45143
922.4952, 92.94701
922.9774, 113.2629
923.4595, 116.4223
923.9416, 120.9802
924.4237, 128.1943
924.9058, 138.1721
925.3879, 169.2793
925.8701, 183.5914
926.3522, 161.6926
926.8343, 108.5904
927.3164, 58.90999
927.7985, 10.44805
928.2806, 16.18597
928.7628, 1.726730
929.2449, 33.93591
929.7270, 31.70732
930.2091, 5.228432
930.6912, 17.79765
931.1733, 45.17661
931.6555, 48.98008
932.1376, 71.49556
932.6197, 235.2755
933.1018, 266.4379
933.5839, 140.8419
934.0660, 70.06599
934.5482, 100.1256
935.0303, 170.6846
935.5124, 244.3996
935.9945, 292.7079
936.4766, 252.2577
936.9587, 61.72131
937.4409, 18.45626
937.9230, 37.48209
938.4051, 13.06741
938.8872, 11.37938
939.3693, 193.8311
939.8514, 320.2570
940.3336, 366.4075
940.8157, 359.1391
941.2978, 288.3857
941.7799, 194.1472
942.2620, 140.7048
942.7441, 129.2695
943.2263, 105.8880
943.7084, 8.938126
944.1905, 44.68719
944.6726, 4.135014
945.1547, 115.7956
945.6368, 136.2025
946.1190, 51.04562
946.6011, 12.86418
947.0832, 135.7207
947.5653, 288.5815
948.0474, 292.0208
948.5295, 188.6716
949.0117, 77.70405
949.4938, 0.1865160
949.9759, 57.87283
950.4580, 9.599472
950.9401, 206.9443
951.4222, 340.1095
951.9044, 392.3670
952.3865, 366.0451
952.8686, 242.8700
953.3507, 131.1074
953.8328, 183.7496
954.3149, 298.6012
954.7971, 336.8887
955.2792, 240.2564
955.7613, 189.8098
956.2434, 248.2915
956.7255, 319.0990
957.2076, 344.3257
957.6898, 320.7567
958.1719, 277.7237
958.6540, 216.2356
959.1361, 170.6464
959.6182, 169.2671
960.1003, 186.9216
960.5825, 194.1117
961.0646, 196.9511
961.5467, 240.4817
962.0288, 406.0398
962.5109, 486.0780
962.9930, 401.2776
963.4752, 229.9821
963.9573, 167.4418
964.4394, 200.2348
964.9215, 246.0135
965.4036, 289.5549
965.8857, 312.8632
966.3679, 293.1376
966.8500, 251.6830
967.3321, 225.0614
967.8142, 213.6561
968.2963, 183.9824
968.7784, 128.2921
969.2606, 86.95695
969.7427, 127.7129
970.2248, 218.1694
970.7069, 234.5687
971.1890, 171.6019
971.6711, 92.75354
972.1533, 4.355679
972.6354, 19.83153
973.1175, 38.56667
973.5996, 9.054855
974.0817, 59.07862
974.5638, 269.8885
975.0460, 408.3830
975.5281, 372.9294
976.0102, 243.0354
976.4923, 154.8339
976.9744, 114.3719
977.4565, 137.7897
977.9387, 327.9704
978.4208, 470.4529
978.9029, 456.3547
979.3850, 366.4019
979.8671, 296.7121
980.3492, 240.5740
980.8314, 268.6208
981.3135, 410.4852
981.7956, 538.3857
982.2777, 487.1431
982.7598, 346.2775
983.2419, 236.6846
983.7241, 175.3085
984.2062, 129.1951
984.6883, 83.11006
985.1704, 56.00659
985.6525, 54.20501
986.1346, 77.53542
986.6168, 149.3374
987.0989, 266.8011
987.5810, 362.2074
988.0631, 388.2125
988.5452, 380.4217
989.0273, 366.3546
989.5095, 346.1488
989.9916, 323.1595
990.4737, 289.1837
990.9558, 248.4088
991.4379, 189.4987
991.9200, 141.0943
992.4022, 166.9847
992.8843, 246.4979
993.3664, 296.3995
993.8485, 302.6584
994.3306, 266.3684
994.8127, 127.6546
995.2949, 17.54602
995.7770, 18.04744
996.2591, 26.76010
996.7412, 70.42540
997.2233, 254.0612
997.7054, 382.9899
998.1876, 329.8392
998.6697, 181.9368
999.1518, 147.0796
999.6339, 195.3457
1000.116, 206.6337
1000.598, 83.48258
1001.080, 28.04518
1001.562, 61.48949
1002.044, 107.5287
1002.527, 74.53217
1003.009, 26.75767
1003.491, 85.06371
1003.973, 174.6182
1004.455, 227.6245
1004.937, 199.7312
1005.419, 138.8914
1005.901, 113.0504
1006.384, 150.5598
1006.866, 147.2868
1007.348, 47.91062
1007.830, 37.12239
1008.312, 19.68954
1008.794, 72.89065
1009.276, 95.50896
1009.758, 55.93880
1010.240, 20.98494
1010.723, 23.34270
1011.205, 48.73870
1011.687, 119.1104
1012.169, 202.3565
1012.651, 212.5784
1013.133, 119.1745
1013.615, 36.05908
1014.097, 25.86162
1014.580, 35.44965
1015.062, 6.280205
1015.544, 75.66218
1016.026, 82.37278
1016.508, 22.70603
1016.990, 6.261047
1017.472, 19.70292
1017.954, 33.54889
1018.436, 23.82310
1018.919, 45.62966
1019.401, 28.63619
1019.883, 27.29919
1020.365, 80.49225
1020.847, 118.8335
1021.329, 133.0888
1021.811, 80.75025
1022.293, 0.6892550
1022.776, 15.95166
1023.258, 164.9369
1023.740, 209.2473
1024.222, 20.21420
1024.704, 94.54852
1025.186, 45.79153
1025.668, 75.49582
1026.150, 187.8332
1026.632, 126.7880
1027.115, 41.58707
1027.597, 26.08170
1028.079, 14.75649
1028.561, 53.80262
1029.043, 52.38212
1029.525, 93.85642
1030.007, 50.17078
1030.489, 13.36465
1030.972, 45.66219
1031.454, 20.42839
1031.936, 83.89256
1032.418, 132.7605
1032.900, 147.5253
1033.382, 86.39486
1033.864, 40.09354
1034.346, 11.26984
1034.828, 7.595802
1035.311, 61.00109
1035.793, 156.1811
1036.275, 173.3779
1036.757, 102.8730
1037.239, 36.90852
1037.721, 47.98450
1038.203, 80.75722
1038.685, 107.5902
1039.167, 123.7920
1039.650, 89.50305
1040.132, 26.95615
1040.614, 39.39330
1041.096, 169.0287
1041.578, 420.0541
1042.060, 393.0374
1042.542, 204.2189
1043.024, 70.13667
1043.507, 68.91576
1043.989, 105.3881
1044.471, 215.5891
1044.953, 295.8778
1045.435, 234.6533
1045.917, 49.07130
1046.399, 24.19171
1046.881, 15.52839
1047.364, 80.96799
1047.846, 150.0661
1048.328, 190.5805
1048.810, 156.1284
1049.292, 69.84280
1049.774, 36.05170
1050.256, 71.63010
1050.738, 102.5391
1051.220, 113.0995
1051.703, 115.9081
1052.185, 137.2160
1052.667, 159.6519
1053.149, 132.2584
1053.631, 21.61839
1054.113, 4.034317
1054.595, 190.8258
1055.077, 380.2123
1055.559, 440.0861
1056.042, 393.9160
1056.524, 421.2881
1057.006, 510.5619
1057.488, 566.3309
1057.970, 486.5794
1058.452, 408.7532
1058.934, 413.3259
1059.416, 477.5451
1059.899, 551.5847
1060.381, 638.9814
1060.863, 751.7868
1061.345, 898.5813
1061.827, 1025.394
1062.309, 1055.695
1062.791, 1046.782
1063.273, 1086.326
1063.755, 1181.397
1064.238, 1272.800
1064.720, 1315.120
1065.202, 1394.984
1065.684, 1549.422
1066.166, 1748.256
1066.648, 1883.417
1067.130, 1966.128
1067.612, 2069.751
1068.094, 2222.089
1068.577, 2389.687
1069.059, 2544.853
1069.541, 2713.156
1070.023, 2918.489
1070.505, 3162.515
1070.987, 3440.225
1071.469, 3754.242
1071.951, 4106.889
1072.434, 4535.433
1072.916, 4989.047
1073.398, 5389.216
1073.880, 5759.458
1074.362, 6183.573
1074.844, 6678.078
1075.326, 7249.860
1075.808, 7921.554
1076.291, 8646.406
1076.773, 9351.604
1077.255, 10063.25
1077.737, 10836.91
1078.219, 11670.17
1078.701, 12535.78
1079.183, 13411.50
1079.665, 14311.15
1080.147, 15234.06
1080.630, 16185.18
1081.112, 17245.20
1081.594, 18411.86
1082.076, 19564.50
1082.558, 20662.70
1083.040, 21698.61
1083.522, 22635.75
1084.004, 23512.24
1084.486, 24390.76
1084.969, 25347.31
1085.451, 26126.61
1085.933, 26685.71
1086.415, 27199.14
1086.897, 27892.73
1087.379, 28584.78
1087.861, 28961.21
1088.343, 29049.84
1088.826, 28993.31
1089.308, 28785.31
1089.790, 28513.32
1090.272, 28200.92
1090.754, 27820.85
1091.236, 27350.42
1091.718, 26784.10
1092.200, 26068.63
1092.682, 25193.48
1093.165, 24295.77
1093.647, 23452.06
1094.129, 22625.41
1094.611, 21807.17
1095.093, 20984.37
1095.575, 20030.19
1096.057, 18938.06
1096.539, 17907.80
1097.022, 17073.64
1097.504, 16238.75
1097.986, 15153.76
1098.468, 13972.59
1098.950, 12928.82
1099.432, 12077.96
1099.914, 11279.83
1100.396, 10539.33
1100.879, 9866.665
1101.361, 9290.331
1101.843, 8781.724
1102.325, 8281.257
1102.807, 7788.054
1103.289, 7312.658
1103.771, 6846.034
1104.253, 6410.469
1104.735, 6002.718
1105.218, 5618.693
1105.700, 5262.385
1106.182, 4933.925
1106.664, 4654.775
1107.146, 4424.408
1107.628, 4212.914
1108.110, 4029.331
1108.592, 3829.239
1109.074, 3568.714
1109.557, 3269.851
1110.039, 3035.221
1110.521, 2866.670
1111.003, 2715.280
1111.485, 2578.496
1111.967, 2423.840
1112.449, 2174.861
1112.931, 1921.182
1113.414, 1769.766
1113.896, 1754.595
1114.378, 1728.389
1114.860, 1700.796
1115.342, 1617.855
1115.824, 1407.856
1116.306, 1159.133
1116.788, 997.2308
1117.271, 909.3539
1117.753, 865.3568
1118.235, 906.1088
1118.717, 916.7488
1119.199, 879.2578
1119.681, 831.2159
1120.163, 822.6303
1120.645, 831.4936
1121.127, 777.3837
1121.609, 665.4098
1122.092, 578.0642
1122.574, 579.3626
1123.056, 586.9377
1123.538, 580.8804
1124.020, 559.9643
1124.502, 504.6395
1124.984, 424.6536
1125.466, 394.7488
1125.949, 433.3710
1126.431, 456.1066
1126.913, 382.3232
1127.395, 295.3266
1127.877, 264.7174
1128.359, 281.4811
1128.841, 272.4307
1129.323, 240.1682
1129.806, 180.8315
1130.288, 57.61827
1130.770, 18.09952
1131.252, 161.6451
1131.734, 413.6012
1132.216, 483.9888
1132.698, 275.7569
1133.180, 138.4613
1133.662, 87.24100
1134.145, 67.74199
1134.627, 46.27440
1135.109, 34.24795
1135.591, 78.19211
1136.073, 144.9974
1136.555, 149.3360
1137.037, 35.40184
1137.519, 36.65462
1138.001, 55.67921
1138.484, 41.36979
1138.966, 33.43609
1139.448, 32.62111
1139.930, 40.60649
1140.412, 10.82707
1140.894, 67.48868
1141.376, 134.9173
1141.858, 168.0328
1142.341, 137.9061
1142.823, 82.60417
1143.305, 74.06124
1143.787, 104.1521
1144.269, 144.6576
1144.751, 194.8907
1145.233, 213.5213
1145.715, 152.7065
1146.198, 68.50890
1146.680, 13.47210
1147.162, 44.39007
1147.644, 48.12072
1148.126, 5.306759
1148.608, 48.21475
1149.090, 48.42420
1149.572, 38.64205
1150.054, 56.21195
1150.536, 75.81346
1151.019, 66.41529
1151.501, 22.92384
1151.983, 39.52639
1152.465, 121.2152
1152.947, 146.1308
1153.429, 11.87535
1153.911, 72.06350
1154.393, 98.23685
1154.876, 31.91809
1155.358, 34.72878
1155.840, 4.264572
1156.322, 23.27054
1156.804, 6.072731
1157.286, 29.50020
1157.768, 29.78193
1158.250, 113.2732
1158.733, 137.8734
1159.215, 116.3874
1159.697, 109.4244
1160.179, 157.7969
1160.661, 141.8485
1161.143, 23.84483
1161.625, 6.370358
1162.107, 29.25949
1162.589, 28.80843
1163.072, 93.50069
1163.554, 117.7781
1164.036, 131.2111
1164.518, 153.0260
1165.000, 139.7776
1165.482, 66.01274
1165.964, 24.26856
1166.446, 35.24721
1166.928, 39.88213
1167.411, 6.870979
1167.893, 92.20166
1168.375, 137.7411
1168.857, 80.77161
1169.339, 32.44947
1169.821, 43.81313
1170.303, 85.71576
1170.785, 83.51550
1171.268, 52.27494
1171.750, 45.83774
1172.232, 98.75080
1172.714, 130.0687
1173.196, 70.04935
1173.678, 16.54420
1174.160, 42.58455
1174.642, 129.2719
1175.125, 126.7701
1175.607, 59.84845
1176.089, 43.97649
1176.571, 205.1240
1177.053, 312.7175
1177.535, 201.4497
1178.017, 47.89120
1178.499, 29.88560
1178.981, 144.9877
1179.464, 174.2208
1179.946, 119.3270
1180.428, 52.67384
1180.910, 19.40167
1181.392, 12.86465
1181.874, 27.91599
1182.356, 98.62447
1182.838, 81.35457
1183.320, 11.53985
1183.803, 16.54305
1184.285, 25.01004
1184.767, 9.889240
1185.249, 9.536880
1185.731, 49.74970
1186.213, 4.875191
1186.695, 156.4877
1187.177, 193.4269
1187.660, 96.75497
1188.142, 12.49551
1188.624, 9.555457
1189.106, 12.72105
1189.588, 23.92331
1190.070, 2.318888
1190.552, 59.57306
1191.034, 228.9277
1191.516, 293.4680
1191.999, 243.0375
1192.481, 175.3239
1192.963, 101.5224
1193.445, 68.66438
1193.927, 179.9059
1194.409, 317.8255
1194.891, 349.7063
1195.373, 266.1720
1195.855, 208.9910
1196.338, 181.4798
1196.820, 186.4821
1197.302, 248.5913
1197.784, 293.2924
1198.266, 205.8445
1198.748, 70.20695
1199.230, 3.901108
1199.712, 2.398821
1200.195, 27.90531
1200.677, 78.05031
1201.159, 108.4510
1201.641, 83.00578
1202.123, 40.88646
1202.605, 5.774147
1203.087, 26.53503
1203.569, 45.43435
1204.052, 300.1436
1204.534, 362.1366
1205.016, 196.9247
1205.498, 40.48001
1205.980, 81.75840
1206.462, 198.1031
1206.944, 280.3522
1207.426, 325.1622
1207.908, 317.8141
1208.391, 240.1595
1208.873, 160.4487
1209.355, 72.14243
1209.837, 29.38152
1210.319, 134.7244
1210.801, 266.9095
1211.283, 273.8387
1211.765, 181.0371
1212.247, 108.1169
1212.730, 84.36745
1213.212, 30.10477
1213.694, 1.546883
1214.176, 72.65776
1214.658, 26.11662
1215.140, 1.546856
1215.622, 130.4559
1216.104, 261.4573
1216.587, 275.7229
1217.069, 103.5419
1217.551, 66.35963
1218.033, 249.4466
1218.515, 434.3605
1218.997, 321.8275
1219.479, 112.4223
1219.961, 38.39831
1220.443, 115.4317
1220.926, 190.2843
1221.408, 258.9639
1221.890, 313.3770
1222.372, 354.2108
1222.854, 370.7624
1223.336, 351.1021
1223.818, 297.5959
1224.300, 191.4075
1224.782, 31.24824
1225.265, 13.59420
1225.747, 85.60550
1226.229, 137.9301
1226.711, 64.29356
1227.193, 22.59305
1227.675, 46.81158
1228.157, 161.6146
1228.639, 168.3631
1229.122, 35.15847
1229.604, 29.45409
1230.086, 178.7187
1230.568, 268.2101
1231.050, 193.3036
1231.532, 69.68645
1232.014, 20.69499
1232.496, 6.469936
1232.979, 44.94177
1233.461, 59.11305
1233.943, 26.04143
1234.425, 238.0107
1234.907, 459.7835
1235.389, 401.7697
1235.871, 254.9149
1236.353, 167.6334
1236.835, 128.4802
1237.318, 133.0726
1237.800, 187.2703
1238.282, 220.5110
1238.764, 233.7011
1239.246, 194.2732
1239.728, 6.801167
1240.210, 42.08440
1240.692, 45.91576
1241.175, 167.1495
1241.657, 289.1065
1242.139, 288.7634
1242.621, 365.9876
1243.103, 519.7650
1243.585, 607.0794
1244.067, 482.3609
1244.549, 336.6719
1245.031, 301.3141
1245.514, 323.3354
1245.996, 326.1929
1246.478, 305.6713
1246.960, 268.6417
1247.442, 216.8746
1247.924, 196.1839
1248.406, 296.4601
1248.888, 370.7102
1249.370, 306.3175
1249.853, 194.2031
1250.335, 159.2760
1250.817, 197.7950
1251.299, 188.5404
1251.781, 130.7697
1252.263, 93.62965
1252.745, 145.8762
1253.227, 199.8655
1253.710, 220.7567
1254.192, 219.8208
1254.674, 201.1310
1255.156, 170.5160
1255.638, 156.6291
1256.120, 158.2932
1256.602, 153.9576
1257.084, 149.5060
1257.567, 143.9632
1258.049, 123.4618
1258.531, 120.4287
1259.013, 214.8382
1259.495, 363.5343
1259.977, 389.9228
1260.459, 293.0823
1260.941, 204.7648
1261.423, 209.0074
1261.906, 186.1243
1262.388, 86.50294
1262.870, 2.558128
1263.352, 4.640350
1263.834, 73.12845
1264.316, 203.0463
1264.798, 379.7733
1265.280, 458.4510
1265.762, 321.9893
1266.245, 199.0130
1266.727, 123.2957
1267.209, 89.39883
1267.691, 97.37804
1268.173, 139.8476
1268.655, 203.2892
1269.137, 290.5900
1269.619, 331.7457
1270.102, 282.9362
1270.584, 309.8180
1271.066, 473.7269
1271.548, 617.2516
1272.030, 490.9124
1272.512, 298.2957
1272.994, 204.3533
1273.476, 226.1790
1273.958, 286.5461
1274.441, 397.5247
1274.923, 468.9111
1275.405, 461.8337
1275.887, 432.4056
1276.369, 327.5838
1276.851, 226.5360
1277.333, 220.9831
1277.815, 296.2733
1278.297, 342.5705
1278.780, 358.7579
1279.262, 362.8946
1279.744, 359.3188
1280.226, 339.2813
1280.708, 273.1332
1281.190, 208.5368
1281.672, 178.8639
1282.154, 178.7332
1282.637, 202.1887
1283.119, 244.4736
1283.601, 248.4470
1284.083, 192.4832
1284.565, 170.2922
1285.047, 315.8824
1285.529, 418.6841
1286.011, 358.4211
1286.494, 200.4316
1286.976, 117.2722
1287.458, 97.03550
1287.940, 100.8457
1288.422, 120.9921
1288.904, 164.2974
1289.386, 270.8999
1289.868, 350.3212
1290.350, 371.9314
1290.833, 349.8599
1291.315, 288.7270
1291.797, 212.0002
1292.279, 164.3454
1292.761, 153.6930
1293.243, 185.5759
1293.725, 284.9601
1294.207, 351.8558
1294.689, 350.1716
1295.172, 310.3015
1295.654, 232.3525
1296.136, 168.1191
1296.618, 224.7857
1297.100, 433.4241
1297.582, 430.4218
1298.064, 172.8096
1298.546, 15.42910
1299.029, 19.33217
1299.511, 35.08002
1299.993, 28.07445
1300.475, 5.544975
1300.957, 18.47865
1301.439, 60.26075
1301.921, 73.20026
1302.403, 59.12287
1302.885, 73.46774
1303.368, 142.8556
1303.850, 194.8400
1304.332, 158.9254
1304.814, 90.59306
1305.296, 18.63278
1305.778, 2.844143
1306.260, 8.120428
1306.742, 142.7430
1307.224, 241.2834
1307.707, 264.3222
1308.189, 169.7678
1308.671, 169.6766
1309.153, 123.5192
1309.635, 0.0000000E+00
##END=



