##NAMES=Gaspeite
##RRUFFID=R040157
##IDEAL CHEMISTRY=NiCO_3_
##LOCALITY=Lemieux Township, Gaspe Nord County, Gaspe Peninsula, Quebec, Canada
##OWNER=RRUFF
##SOURCE=University of Arizona Mineral Museum
##DESCRIPTION=Green massive
##STATUS=The identification of this mineral has been confirmed by X-ray diffraction and chemical analysis
##URL=rruff.info/R040157
##MEASURED CHEMISTRY=(Ni_0.54_Mg_0.31_Fe_0.15_Ca_0.01_Co_0.01_)C_1.00_O_3_; = the gray bands. Light grey bands are also gaspeite: (Ni_0.57_Mg_0.41_Fe_0.08_)C_0.97_O_3_; Dark grey bands, magnesite: (Mg_0.98_Fe_0.04_Ni_0.03_)C_0.97_O_3_
126.758, 0.000
128.146, 0.511
129.534, 11.840
130.922, 12.204
132.309, 75.485
133.696, 91.760
135.083, 81.444
136.470, 93.509
137.857, 126.651
139.243, 62.435
140.630, 104.560
142.016, 97.997
143.401, 58.409
144.787, 2.836
146.172, 109.232
147.557, 126.564
148.942, 84.112
150.327, 133.840
151.711, 26.723
153.096, 89.736
154.480, 164.866
155.863, 108.097
157.247, 16.584
158.630, 84.160
160.013, 60.205
161.396, 88.247
162.779, 139.292
164.161, 169.712
165.544, 112.106
166.926, 156.487
168.308, 138.859
169.689, 50.231
171.070, 38.609
172.452, 43.994
173.833, 197.383
175.213, 152.779
176.594, 295.184
177.974, 200.594
179.354, 21.011
180.734, 257.436
182.114, 217.868
183.493, 173.310
184.872, 243.759
186.251, 230.217
187.630, 238.684
189.008, 223.944
190.387, 285.060
191.765, 275.378
193.143, 338.009
194.520, 307.251
195.898, 301.513
197.275, 356.793
198.652, 407.092
200.029, 358.379
201.405, 380.528
202.782, 523.827
204.158, 541.142
205.534, 662.512
206.909, 699.486
208.285, 718.994
209.660, 817.836
211.035, 911.460
212.410, 959.040
213.784, 1153.680
215.159, 1303.322
216.533, 1402.971
217.907, 1794.622
219.281, 2021.276
220.654, 2168.934
222.027, 2379.598
223.400, 2273.272
224.773, 2389.952
226.146, 2323.637
227.518, 2116.328
228.891, 1794.029
230.263, 1306.738
231.634, 1112.455
233.006, 826.180
234.377, 694.912
235.748, 493.652
237.119, 342.401
238.490, 240.154
239.860, 231.918
241.231, 179.758
242.601, 159.464
243.970, 181.246
245.340, 169.033
246.709, 148.827
248.079, 50.626
249.448, 28.571
250.816, 1.279
252.185, 74.945
253.553, 102.880
254.921, 18.290
256.289, 121.547
257.657, 204.395
259.024, 6.253
260.391, 80.119
261.758, 56.989
263.125, 145.867
264.492, 110.752
265.858, 125.642
267.224, 96.538
268.590, 6.443
269.956, 46.353
271.321, 86.743
272.687, 120.130
274.052, 84.003
275.416, 214.884
276.781, 29.499
278.146, 56.356
279.510, 285.243
280.874, 59.185
282.237, 152.065
283.601, 182.355
284.964, 230.348
286.327, 240.558
287.690, 28.226
289.053, 190.100
290.416, 171.500
291.778, 63.665
293.140, 232.667
294.502, 243.144
295.863, 203.502
297.225, 6.703
298.586, 224.475
299.947, 104.274
301.308, 307.140
302.668, 402.189
304.029, 297.053
305.389, 244.935
306.749, 462.815
308.108, 354.715
309.468, 541.583
310.827, 556.521
312.186, 452.473
313.545, 762.439
314.903, 944.428
316.262, 1572.604
317.620, 1731.614
318.978, 1352.798
320.336, 1819.844
321.693, 2389.510
323.051, 2972.596
324.408, 3534.686
325.765, 4436.781
327.121, 4888.883
328.478, 6077.986
329.834, 6555.096
331.190, 7217.208
332.546, 7462.324
333.902, 7478.443
335.257, 6992.566
336.612, 6796.695
337.967, 5779.826
339.322, 5200.967
340.677, 4379.107
342.031, 3508.250
343.385, 3075.400
344.739, 2215.549
346.093, 1868.707
347.446, 1513.865
348.799, 1235.029
350.153, 991.195
351.505, 968.367
352.858, 925.531
354.210, 765.654
355.563, 517.775
356.915, 637.900
358.267, 523.031
359.618, 332.166
360.969, 583.303
362.321, 347.443
363.672, 504.545
365.022, 467.650
366.373, 409.760
367.723, 478.873
369.073, 220.021
370.423, 434.170
371.773, 369.320
373.122, 214.477
374.471, 308.650
375.821, 338.078
377.169, 464.258
378.518, 231.457
379.866, 223.656
381.215, 93.896
382.563, 253.141
383.910, 344.387
385.258, 166.637
386.605, 209.533
387.952, 193.783
389.299, 365.035
390.646, 102.289
391.992, 241.549
393.339, 303.807
394.685, 141.064
396.031, 151.330
397.376, 207.594
398.722, 157.441
400.067, 249.127
401.412, 180.396
402.757, 137.666
404.101, 121.062
405.446, 64.203
406.790, 173.779
408.134, 40.051
409.478, 90.324
410.821, 206.596
412.165, 271.809
413.508, 167.078
414.851, 218.600
416.193, 296.850
417.536, 153.525
418.878, 127.797
420.220, 69.064
421.562, 192.812
422.904, 214.098
424.245, 101.635
425.586, 140.932
426.927, 161.172
428.268, 41.410
429.609, 178.977
430.949, 82.211
432.289, 34.443
433.629, 142.211
434.969, 89.703
436.309, 69.070
437.648, 293.137
438.987, 7.676
440.326, 66.848
441.665, 161.283
443.003, 6.594
444.342, 63.189
445.680, 193.332
447.018, 129.709
448.355, 147.854
449.693, 214.994
451.030, 5.867
452.367, 5.871
453.704, 77.002
455.041, 46.609
456.377, 50.646
457.713, 65.732
459.049, 106.787
460.385, 70.000
461.721, 41.051
463.056, 3.100
464.391, 310.160
465.726, 151.219
467.061, 74.273
468.395, 407.340
469.730, 75.391
471.064, 130.492
472.398, 307.537
473.731, 117.938
475.065, 228.471
476.398, 19.504
477.731, 136.801
479.064, 23.857
480.397, 212.615
481.729, 219.660
483.062, 281.449
484.394, 349.494
485.725, 291.527
487.057, 287.557
488.389, 314.824
489.720, 255.844
491.051, 382.855
492.382, 219.865
493.712, 215.869
495.043, 368.252
496.373, 289.664
497.703, 134.748
499.032, 237.070
500.362, 310.141
501.691, 330.217
503.020, 419.277
504.349, 484.346
505.678, 450.984
507.007, 469.752
508.335, 368.135
509.663, 373.182
510.991, 309.775
512.319, 187.811
513.646, 517.318
514.973, 256.336
516.300, 427.344
517.627, 264.539
518.954, 480.535
520.280, 449.523
521.607, 416.934
522.933, 346.475
524.259, 353.453
525.584, 228.734
526.910, 177.893
528.235, 237.703
529.560, 342.654
530.885, 217.592
532.209, 497.520
533.534, 241.938
534.858, 51.139
536.182, 292.625
537.506, 406.400
538.829, 271.289
540.152, 242.648
541.476, 261.812
542.799, 278.941
544.121, 287.271
545.444, 16.113
546.766, 364.980
548.088, 366.840
549.410, 165.947
550.732, 512.250
552.053, 266.074
553.375, 467.891
554.696, 217.629
556.017, 181.455
557.337, 135.531
558.658, 286.334
559.978, 347.541
561.298, 212.320
562.618, 107.572
563.938, 318.324
565.257, 97.064
566.576, 238.791
567.895, 254.506
569.214, 218.209
570.533, 431.900
571.851, 374.582
573.170, 261.250
574.488, 157.924
575.805, 366.584
577.123, 151.234
578.440, 166.871
579.758, 32.496
581.075, 143.102
582.391, 376.695
583.708, 12.887
585.024, 190.658
586.341, 289.189
587.657, 60.295
588.972, 301.168
590.288, 328.615
591.603, 254.025
592.918, 85.467
594.233, 170.893
595.548, 214.084
596.863, 60.482
598.177, 338.734
599.491, 85.104
600.805, 115.457
602.119, 46.650
603.432, 163.041
604.746, 95.348
606.059, 217.512
607.372, 373.787
608.685, 199.049
609.997, 22.027
611.309, 441.090
612.621, 121.414
613.933, 148.711
615.245, 30.975
616.557, 238.166
617.868, 114.293
619.179, 231.896
620.490, 298.947
621.801, 219.809
623.111, 272.785
624.421, 424.955
625.731, 154.988
627.041, 206.338
628.351, 8.658
629.660, 393.117
630.970, 75.416
632.279, 15.371
633.588, 398.529
634.896, 112.471
636.205, 333.340
637.513, 31.648
638.821, 378.154
640.129, 64.059
641.437, 170.221
642.744, 302.924
644.051, 178.613
645.358, 114.424
646.665, 182.467
647.972, 211.268
649.278, 314.434
650.584, 314.740
651.890, 83.330
653.196, 120.225
654.502, 558.773
655.807, 139.307
657.113, 335.193
658.418, 195.688
659.722, 279.166
661.027, 504.727
662.331, 65.166
663.636, 294.584
664.940, 192.598
666.244, 493.434
667.547, 70.797
668.851, 374.672
670.154, 89.197
671.457, 277.496
672.760, 267.779
674.062, 160.148
675.365, 385.643
676.667, 279.123
677.969, 248.324
679.271, 320.514
680.572, 493.025
681.874, 136.209
683.175, 164.643
684.476, 69.074
685.777, 210.445
687.077, 365.330
688.378, 402.346
689.678, 31.770
690.978, 142.838
692.278, 73.410
693.577, 6.314
694.877, 254.215
696.176, 111.566
697.475, 143.475
698.774, 150.070
700.072, 99.266
701.371, 315.266
702.669, 357.801
703.967, 235.443
705.265, 161.066
706.562, 111.740
707.860, 452.516
709.157, 328.615
710.454, 39.158
711.751, 540.422
713.047, 166.916
714.344, 560.389
715.640, 130.842
716.936, 412.271
718.232, 114.682
719.527, 298.945
720.823, 621.312
722.118, 319.486
723.413, 410.814
724.708, 407.148
726.002, 370.574
727.297, 448.842
728.591, 914.090
729.885, 290.320
731.179, 814.545
732.472, 987.734
733.766, 594.908
735.059, 896.393
736.352, 945.168
737.645, 1043.266
738.937, 956.375
740.230, 1137.150
741.522, 1217.236
742.814, 883.303
744.106, 852.381
745.397, 922.592
746.689, 865.990
747.980, 760.980
749.271, 484.949
750.562, 517.904
751.853, 519.297
753.143, 640.873
754.433, 254.879
755.723, 237.518
757.013, 375.262
758.303, 207.697
759.592, 339.545
760.881, 29.369
762.170, 349.174
763.459, 251.959
764.748, 163.727
766.036, 329.869
767.325, 59.928
768.613, 503.615
769.901, 153.273
771.188, 251.625
772.476, 407.295
773.763, 102.775
775.050, 356.393
776.337, 32.010
777.624, 213.539
778.910, 239.072
780.196, 258.586
781.482, 142.064
782.768, 275.539
784.054, 27.088
785.339, 136.525
786.625, 154.000
787.910, 301.906
789.195, 87.600
790.479, 452.465
791.764, 138.750
793.048, 231.311
794.332, 374.559
795.616, 75.047
796.900, 262.252
798.183, 268.451
799.467, 174.633
800.750, 114.664
802.033, 167.811
803.316, 76.938
804.598, 39.498
805.880, 466.584
807.163, 351.730
808.445, 274.811
809.726, 382.695
811.008, 115.277
812.289, 242.143
813.570, 257.408
814.851, 47.812
816.132, 339.914
817.413, 277.053
818.693, 55.750
819.973, 94.781
821.253, 317.439
822.533, 73.986
823.813, 153.611
825.092, 364.908
826.371, 293.506
827.650, 175.088
828.929, 139.463
830.208, 139.012
831.486, 447.566
832.764, 381.799
834.042, 41.695
835.320, 261.428
836.598, 139.570
837.875, 391.820
839.152, 216.412
840.429, 327.867
841.706, 188.502
842.983, 421.936
844.259, 68.873
845.536, 70.059
846.812, 461.889
848.088, 0.588
849.363, 285.795
850.639, 3.230
851.914, 283.830
853.189, 376.049
854.464, 105.941
855.739, 166.695
857.013, 294.568
858.288, 450.871
859.562, 163.904
860.836, 132.725
862.110, 51.002
863.383, 487.270
864.656, 125.406
865.930, 447.777
867.203, 270.689
868.475, 338.861
869.748, 398.607
871.020, 474.766
872.292, 354.426
873.564, 403.822
874.836, 424.693
876.108, 364.816
877.379, 169.947
878.650, 143.078
879.922, 441.197
881.192, 240.303
882.463, 359.428
883.733, 171.545
885.004, 290.660
886.274, 277.771
887.544, 94.877
888.813, 144.971
890.083, 422.062
891.352, 170.150
892.621, 296.230
893.890, 374.312
895.159, 373.391
896.427, 86.461
897.695, 129.541
898.964, 79.613
900.232, 311.674
901.499, 110.732
902.767, 225.779
904.034, 67.818
905.301, 416.848
906.568, 150.869
907.835, 353.264
909.102, 273.742
910.368, 541.949
911.634, 194.910
912.900, 116.930
914.166, 284.072
915.432, 174.082
916.697, 625.080
917.962, 208.818
919.227, 59.805
920.492, 520.863
921.757, 181.828
923.021, 437.494
924.285, 163.459
925.550, 408.418
926.813, 312.875
928.077, 478.818
929.341, 395.766
930.604, 299.660
931.867, 338.578
933.130, 414.488
934.393, 252.072
935.655, 129.973
936.918, 401.070
938.180, 64.621
939.442, 420.238
940.703, 138.127
941.965, 183.775
943.226, 252.652
944.488, 322.191
945.749, 363.697
947.009, 247.934
948.270, 472.258
949.530, 231.135
950.791, 307.996
952.051, 134.715
953.311, 331.174
954.570, 241.848
955.830, 54.148
957.089, 432.275
958.348, 186.100
959.607, 305.600
960.866, 132.418
962.124, 207.230
963.383, 129.658
964.641, 28.488
965.899, 202.318
967.156, 203.061
968.414, 271.912
969.671, 158.758
970.928, 47.980
972.185, 268.354
973.442, 34.188
974.699, 402.477
975.955, 104.096
977.211, 353.906
978.468, 192.707
979.723, 212.395
980.979, 375.922
982.234, 143.436
983.490, 5.805
984.745, 684.941
986.000, 167.344
987.254, 497.484
988.509, 411.865
989.763, 143.529
991.017, 561.746
992.271, 113.451
993.525, 248.668
994.779, 308.850
996.032, 150.027
997.285, 477.695
998.538, 434.322
999.791, 455.396
1001.044, 55.719
1002.296, 537.395
1003.548, 134.082
1004.800, 450.176
1006.052, 298.596
1007.304, 223.658
1008.555, 524.514
1009.807, 380.016
1011.058, 483.986
1012.309, 265.334
1013.559, 311.875
1014.810, 474.881
1016.060, 370.289
1017.310, 281.576
1018.560, 441.043
1019.810, 493.408
1021.060, 200.791
1022.309, 449.543
1023.558, 726.824
1024.807, 309.896
1026.056, 818.617
1027.305, 292.256
1028.553, 591.936
1029.801, 443.465
1031.049, 778.418
1032.297, 562.977
1033.545, 425.305
1034.793, 658.395
1036.040, 801.309
1037.287, 606.230
1038.534, 593.338
1039.781, 628.256
1041.027, 471.674
1042.274, 966.166
1043.520, 585.428
1044.766, 618.756
1046.012, 945.076
1047.257, 447.203
1048.503, 622.139
1049.748, 654.102
1050.993, 1043.775
1052.238, 469.904
1053.483, 978.182
1054.727, 903.090
1055.971, 729.709
1057.216, 835.115
1058.459, 820.123
1059.703, 848.686
1060.947, 964.936
1062.190, 990.104
1063.433, 1081.281
1064.676, 1174.863
1065.919, 1351.945
1067.162, 1496.672
1068.404, 1496.383
1069.646, 2246.559
1070.888, 1804.566
1072.130, 2333.078
1073.372, 3141.371
1074.613, 3201.078
1075.855, 3920.750
1077.096, 4815.883
1078.337, 5621.277
1079.578, 6628.547
1080.818, 8513.047
1082.059, 9967.027
1083.299, 11790.730
1084.539, 13630.750
1085.779, 15825.852
1087.018, 17376.281
1088.258, 19180.844
1089.497, 19840.699
1090.736, 20106.352
1091.975, 19709.953
1093.213, 18728.387
1094.452, 17465.035
1095.690, 15727.109
1096.928, 14510.609
1098.166, 12173.902
1099.404, 10749.145
1100.642, 9030.613
1101.879, 8041.043
1103.116, 6239.879
1104.353, 5909.957
1105.590, 4767.941
1106.827, 4478.992
1108.063, 3605.840
1109.299, 3274.809
1110.536, 2529.547
1111.771, 2632.465
1113.007, 1992.203
1114.243, 1897.660
1115.478, 1772.117
1116.713, 1475.824
1117.948, 1282.238
1119.183, 1054.070
1120.418, 1281.297
1121.652, 971.621
1122.886, 968.746
1124.120, 1033.816
1125.354, 936.070
1126.588, 787.879
1127.821, 661.340
1129.055, 604.613
1130.288, 559.715
1131.521, 528.078
1132.753, 490.680
1133.986, 277.297
1135.218, 69.426
1136.450, 112.289
1137.682, 513.707
1138.914, 157.363
1140.146, 544.469
1141.377, 227.980
1142.609, 44.078
1143.840, 128.977
1145.071, 24.574
1146.301, 167.223
1147.532, 319.520
1148.762, 107.688
1149.992, 307.520
1151.222, 158.312
1152.452, 113.406
1153.682, 178.504
1154.911, 213.617
1156.140, 147.785
1157.369, 230.086
1158.598, 104.875
1159.827, 229.672
1161.055, 114.273
1162.284, 370.602
1163.512, 92.926
1164.740, 299.055
1165.967, 56.801
1167.195, 281.945
1168.422, 277.262
1169.650, 423.910
1170.877, 293.840
1172.103, 341.078
1173.330, 183.391
1174.557, 22.414
1175.783, 42.836
1177.009, 455.410
1178.235, 385.078
1179.461, 37.652
1180.686, 319.102
1181.912, 133.324
1183.137, 41.535
1184.362, 408.516
1185.587, 292.328
1186.811, 145.648
1188.036, 288.984
1189.260, 263.598
1190.484, 322.840
1191.708, 302.422
1192.932, 300.023
1194.155, 503.691
1195.378, 339.344
1196.602, 278.953
1197.825, 196.168
1199.047, 547.844
1200.270, 285.270
1201.492, 665.398
1202.715, 191.570
1203.937, 454.426
1205.159, 60.797
1206.380, 595.879
1207.602, 83.820
1208.823, 606.375
1210.044, 69.168
1211.265, 395.598
1212.486, 657.965
1213.707, 350.191
1214.927, 345.441
1216.147, 355.625
1217.367, 506.836
1218.587, 153.891
1219.807, 423.875
1221.027, 315.789
1222.246, 319.641
1223.465, 441.426
1224.684, 371.102
1225.903, 397.809
1227.121, 336.379
1228.340, 212.828
1229.558, 105.250
1230.776, 427.973
1231.994, 367.195
1233.212, 314.301
1234.429, 178.328
1235.646, 437.059
1236.864, 211.914
1238.081, 248.699
1239.297, 681.410
1240.514, 220.055
1241.730, 350.594
1242.947, 477.062
1244.163, 281.395
1245.378, 551.641
1246.594, 219.789
1247.810, 431.785
1249.025, 352.691
1250.240, 17.746
1251.455, 428.348
1252.670, 272.867
1253.885, 52.277
1255.099, 294.508
1256.313, 328.648
1257.527, 286.676
1258.741, 61.391
1259.955, 44.262
1261.168, 25.340
1262.382, 50.660
1263.595, 154.059
1264.808, 242.242
1266.021, 586.328
1267.233, 5.266
1268.446, 265.094
1269.658, 164.809
1270.870, 524.414
1272.082, 183.934
1273.294, 243.359
1274.505, 746.664
1275.716, 1107.887
1276.928, 252.027
1278.139, 227.082
1279.349, 29.047
1280.560, 328.609
1281.770, 123.258
1282.981, 70.977
1284.191, 49.410
1285.401, 227.574
1286.610, 96.969
1287.820, 177.707
1289.029, 20.410
1290.239, 201.500
1291.448, 137.996
1292.656, 250.945
1293.865, 104.426
1295.073, 310.914
1296.282, 49.145
1297.490, 168.641
1298.698, 233.379
1299.906, 173.852
1301.113, 111.133
1302.320, 177.027
1303.528, 2.824
1304.735, 20.320
1305.942, 82.422
1307.148, 79.844
1308.355, 217.086
1309.561, 250.078
1310.767, 10.148
1311.973, 208.355
1313.179, 77.863
1314.384, 596.258
1315.590, 884.195
1316.795, 350.508
1318.000, 115.941
1319.205, 33.629
1320.410, 190.680
1321.614, 419.848
1322.819, 45.332
1324.023, 211.559
1325.227, 306.867
1326.431, 7.449
1327.634, 396.172
1328.838, 56.016
1330.041, 55.219
1331.244, 105.961
1332.447, 283.477
1333.650, 196.555
1334.852, 4.508
1336.055, 163.621
1337.257, 139.648
1338.459, 121.645
1339.661, 327.449
1340.862, 108.613
1342.064, 520.793
1343.265, 265.422
1344.466, 1.621
1345.667, 358.078
1346.868, 330.352
1348.068, 599.164
1349.269, 407.195
1350.469, 392.113
1351.669, 302.215
1352.869, 412.332
1354.069, 307.625
1355.268, 464.543
1356.468, 713.730
1357.667, 157.887
1358.866, 413.945
1360.065, 823.852
1361.263, 353.195
1362.462, 477.410
1363.660, 449.160
1364.858, 404.023
1366.056, 576.082
1367.254, 402.430
1368.451, 504.531
1369.649, 491.750
1370.846, 595.152
1372.043, 140.309
1373.240, 588.398
1374.436, 271.824
1375.633, 394.332
1376.829, 764.465
1378.025, 354.879
1379.221, 148.684
1380.417, 437.008
1381.613, 448.785
1382.808, 474.824
1384.003, 448.805
1385.199, 456.672
1386.393, 597.199
1387.588, 417.449
1388.783, 349.906
1389.977, 589.738
1391.171, 443.488
1392.365, 678.629
1393.559, 232.887
1394.753, 291.523
1395.946, 679.750
1397.140, 297.309
1398.333, 579.508
1399.526, 529.207
1400.719, 602.812
1401.911, 334.129
1403.104, 667.039
1404.296, 507.688
1405.488, 610.738
1406.680, 247.148
1407.872, 602.051
1409.063, 410.242
1410.255, 634.984
1411.446, 1150.645
1412.637, 802.441
1413.828, 1372.348
1415.018, 934.098
1416.209, 1724.016
1417.399, 1697.648
1418.589, 2274.938
1419.779, 2220.805
1420.969, 2634.809
1422.159, 2981.559
1423.348, 3481.660
1424.537, 3084.441
1425.726, 3524.723
1426.915, 3462.918
1428.104, 3301.832
1429.293, 3240.406
1430.481, 3144.699
1431.669, 2749.414
1432.857, 2679.297
1434.045, 2492.180
1435.233, 2296.797
1436.420, 2185.137
1437.608, 1941.891
1438.795, 1852.188
1439.982, 1583.016
1441.169, 1577.137
1442.355, 1594.703
1443.542, 1342.188
1444.728, 1177.078
1445.914, 1461.996
1447.100, 919.684
1448.286, 941.020
1449.472, 711.133
1450.657, 896.676
1451.842, 540.449
1453.027, 1137.297
1454.212, 893.367
1455.397, 636.402
1456.581, 879.441
1457.766, 125.574
1458.950, 753.770
1460.134, 726.090
1461.318, 249.715
1462.501, 779.648
1463.685, 229.949
1464.868, 288.656
1466.051, 615.844
1467.234, 127.531
1468.417, 708.738
1469.600, 78.504
1470.782, 378.773
1471.965, 639.594
1473.147, 317.051
1474.329, 153.273
1475.510, 769.414
1476.692, 718.609
1477.873, 12.992
1479.055, 296.734
1480.236, 353.043
1481.416, 101.254
1482.597, 273.105
1483.778, 10.816
1484.958, 283.191
1486.138, 296.812
1487.318, 238.473
1488.498, 0.000
##END=



