##NAMES=Gaylussite
##RRUFFID=R040146
##IDEAL CHEMISTRY=Na_2_Ca(CO_3_)_2_&#183;5H_2_O
##LOCALITY=Searles Lake, Trona, San Bernardino County, California, USA
##OWNER=RRUFF
##SOURCE=University of Arizona Mineral Museum
##DESCRIPTION=Colorless crystal fragments
##STATUS=The identification of this mineral has been confirmed by X-ray diffraction and chemical analysis
##URL=rruff.info/R040146
##MEASURED CHEMISTRY=Na_2.00_Ca_1.00_(C_1.00_O_3_)_2_Â·5H_2_O
86.404, 0.000
87.798, 4.203
89.193, 206.894
90.587, 457.355
91.981, 941.483
93.375, 1577.411
94.768, 2499.447
96.161, 3566.644
97.554, 4485.519
98.947, 5194.587
100.340, 5369.455
101.732, 5135.224
103.124, 4297.543
104.516, 3107.391
105.908, 1880.994
107.300, 1027.755
108.691, 462.194
110.082, 115.922
111.473, 107.630
112.864, 54.766
114.254, 302.450
115.644, 618.069
117.034, 965.335
118.424, 1276.283
119.813, 1555.860
121.203, 1683.014
122.592, 1829.962
123.981, 1957.876
125.369, 1898.491
126.758, 1963.510
128.146, 1873.890
129.534, 1795.574
130.922, 1512.522
132.309, 1534.708
133.696, 1213.112
135.083, 1020.718
136.470, 718.544
137.857, 641.192
139.243, 460.320
140.630, 588.067
142.016, 569.511
143.401, 592.109
144.787, 578.554
146.172, 699.905
147.557, 783.980
148.942, 991.689
150.327, 1097.523
151.711, 1544.421
153.096, 2113.408
154.480, 2787.489
155.863, 4053.814
157.247, 5256.184
158.630, 6617.666
160.013, 8169.154
161.396, 9227.626
162.779, 10141.238
164.161, 10445.856
165.544, 10274.522
166.926, 9251.242
168.308, 7892.876
169.689, 6560.376
171.070, 5193.668
172.452, 4040.833
173.833, 3154.932
175.213, 2370.023
176.594, 1835.116
177.974, 1366.204
179.354, 842.305
180.734, 632.429
182.114, 388.563
183.493, 187.713
184.872, 4.883
186.251, 26.074
187.630, 79.718
189.008, 106.500
190.387, 193.273
191.765, 130.036
193.143, 186.790
194.520, 200.986
195.898, 107.507
197.275, 149.610
198.652, 141.955
200.029, 4.350
201.405, 208.781
202.782, 146.174
204.158, 291.957
205.534, 332.883
206.909, 470.585
208.285, 436.903
209.660, 278.469
211.035, 308.909
212.410, 271.818
213.784, 84.196
215.159, 239.147
216.533, 63.054
217.907, 68.513
219.281, 138.578
220.654, 228.871
222.027, 140.553
223.400, 169.563
224.773, 276.525
226.146, 191.706
227.518, 342.765
228.891, 406.389
230.263, 410.595
231.634, 425.773
233.006, 459.926
234.377, 400.285
235.748, 373.102
237.119, 277.841
238.490, 344.714
239.860, 246.453
241.231, 382.755
242.601, 316.382
243.970, 433.014
245.340, 586.302
246.709, 759.404
248.079, 984.607
249.448, 1104.945
250.816, 1518.350
252.185, 1760.334
253.553, 1945.055
254.921, 2229.143
256.289, 2503.006
257.657, 2740.983
259.024, 2959.365
260.391, 3093.561
261.758, 2979.863
263.125, 3188.873
264.492, 2855.426
265.858, 2611.020
267.224, 2357.603
268.590, 2100.447
269.956, 1895.789
271.321, 1751.161
272.687, 1644.945
274.052, 1561.269
275.416, 1464.902
276.781, 1453.521
278.146, 1368.828
279.510, 1404.528
280.874, 1254.127
282.237, 1205.548
283.601, 1143.572
284.964, 1006.239
286.327, 842.442
287.690, 675.047
289.053, 702.729
290.416, 499.417
291.778, 382.861
293.140, 397.004
294.502, 280.560
295.863, 254.269
297.225, 199.096
298.586, 179.425
299.947, 102.791
301.308, 5.946
302.668, 11.823
304.029, 9.202
305.389, 14.773
306.749, 47.567
308.108, 63.360
309.468, 35.092
310.827, 11.744
312.186, 67.796
313.545, 15.401
314.903, 88.058
316.262, 47.788
317.620, 76.581
318.978, 67.445
320.336, 60.379
321.693, 31.616
323.051, 6.564
324.408, 37.542
325.765, 39.714
327.121, 107.954
328.478, 13.720
329.834, 14.339
331.190, 51.098
332.546, 17.392
333.902, 2.173
335.257, 55.203
336.612, 120.531
337.967, 108.820
339.322, 125.067
340.677, 270.274
342.031, 27.440
343.385, 166.552
344.739, 90.622
346.093, 21.647
347.446, 145.617
348.799, 69.533
350.153, 116.410
351.505, 85.222
352.858, 126.108
354.210, 13.226
355.563, 77.730
356.915, 2.478
358.267, 22.488
359.618, 26.887
360.969, 60.643
362.321, 50.527
363.672, 69.235
365.022, 90.793
366.373, 70.755
367.723, 38.586
369.073, 4.659
370.423, 95.967
371.773, 43.061
373.122, 80.924
374.471, 57.198
375.821, 90.467
377.169, 150.694
378.518, 88.868
379.866, 83.998
381.215, 63.066
382.563, 100.082
383.910, 48.733
385.258, 75.135
386.605, 109.163
387.952, 57.895
389.299, 171.569
390.646, 43.203
391.992, 42.759
393.339, 120.256
394.685, 147.701
396.031, 51.109
397.376, 1.389
398.722, 41.415
400.067, 23.702
401.412, 111.566
402.757, 110.655
404.101, 142.692
405.446, 215.682
406.790, 134.604
408.134, 142.562
409.478, 165.389
410.821, 147.290
412.165, 156.042
413.508, 228.757
414.851, 129.462
416.193, 223.143
417.536, 247.797
418.878, 161.521
420.220, 173.113
421.562, 142.668
422.904, 161.416
424.245, 23.885
425.586, 194.423
426.927, 235.918
428.268, 140.229
429.609, 255.563
430.949, 182.782
432.289, 80.954
433.629, 154.062
434.969, 243.163
436.309, 194.194
437.648, 205.161
438.987, 182.331
440.326, 159.299
441.665, 233.180
443.003, 145.237
444.342, 175.172
445.680, 223.832
447.018, 165.962
448.355, 245.531
449.693, 226.584
451.030, 224.096
452.367, 281.102
453.704, 170.481
455.041, 248.979
456.377, 212.269
457.713, 196.812
459.049, 292.009
460.385, 150.421
461.721, 308.880
463.056, 229.599
464.391, 221.348
465.726, 250.859
467.061, 262.273
468.395, 243.620
469.730, 311.605
471.064, 213.375
472.398, 304.268
473.731, 318.339
475.065, 370.518
476.398, 351.277
477.731, 363.807
479.064, 311.906
480.397, 339.466
481.729, 381.175
483.062, 356.184
484.394, 278.820
485.725, 382.567
487.057, 259.047
488.389, 370.114
489.720, 267.675
491.051, 301.143
492.382, 259.430
493.712, 294.821
495.043, 383.938
496.373, 364.900
497.703, 313.975
499.032, 269.012
500.362, 366.011
501.691, 388.972
503.020, 377.091
504.349, 383.978
505.678, 374.362
507.007, 476.850
508.335, 502.634
509.663, 513.006
510.991, 547.620
512.319, 558.396
513.646, 571.523
514.973, 573.390
516.300, 577.060
517.627, 575.635
518.954, 562.676
520.280, 634.603
521.607, 569.047
522.933, 572.228
524.259, 582.885
525.584, 531.971
526.910, 534.165
528.235, 511.962
529.560, 465.109
530.885, 455.985
532.209, 368.317
533.534, 299.700
534.858, 396.355
536.182, 330.832
537.506, 291.006
538.829, 241.305
540.152, 323.411
541.476, 249.028
542.799, 132.379
544.121, 325.391
545.444, 119.037
546.766, 214.404
548.088, 251.421
549.410, 201.333
550.732, 227.736
552.053, 212.465
553.375, 225.336
554.696, 189.950
556.017, 131.379
557.337, 101.450
558.658, 142.437
559.978, 256.676
561.298, 197.452
562.618, 211.157
563.938, 230.360
565.257, 197.004
566.576, 131.988
567.895, 233.051
569.214, 126.334
570.533, 163.365
571.851, 287.463
573.170, 184.954
574.488, 161.833
575.805, 270.233
577.123, 126.678
578.440, 170.626
579.758, 185.656
581.075, 91.265
582.391, 184.139
583.708, 109.514
585.024, 109.650
586.341, 168.896
587.657, 124.246
588.972, 152.330
590.288, 207.675
591.603, 161.650
592.918, 127.515
594.233, 133.306
595.548, 155.227
596.863, 76.049
598.177, 193.655
599.491, 15.588
600.805, 64.252
602.119, 79.390
603.432, 183.951
604.746, 57.332
606.059, 216.527
607.372, 14.549
608.685, 123.870
609.997, 8.465
611.309, 180.464
612.621, 93.159
613.933, 148.099
615.245, 60.700
616.557, 159.941
617.868, 66.887
619.179, 41.193
620.490, 143.869
621.801, 64.689
623.111, 73.101
624.421, 256.822
625.731, 121.207
627.041, 275.787
628.351, 41.660
629.660, 168.982
630.970, 154.906
632.279, 178.624
633.588, 260.474
634.896, 147.300
636.205, 175.298
637.513, 92.383
638.821, 221.386
640.129, 254.168
641.437, 365.621
642.744, 358.630
644.051, 293.308
645.358, 162.225
646.665, 298.825
647.972, 239.852
649.278, 391.562
650.584, 355.544
651.890, 322.267
653.196, 309.622
654.502, 327.018
655.807, 363.286
657.113, 367.080
658.418, 344.160
659.722, 318.814
661.027, 344.698
662.331, 515.939
663.636, 445.565
664.940, 399.571
666.244, 565.467
667.547, 328.069
668.851, 536.405
670.154, 418.180
671.457, 478.746
672.760, 432.384
674.062, 276.022
675.365, 364.593
676.667, 431.168
677.969, 349.734
679.271, 357.292
680.572, 399.270
681.874, 338.817
683.175, 287.558
684.476, 443.084
685.777, 388.606
687.077, 374.135
688.378, 531.652
689.678, 296.166
690.978, 467.269
692.278, 319.769
693.577, 310.260
694.877, 131.739
696.176, 271.452
697.475, 92.302
698.774, 351.158
700.072, 50.029
701.371, 324.637
702.669, 268.048
703.967, 255.508
705.265, 160.965
706.562, 336.609
707.860, 344.055
709.157, 277.778
710.454, 139.215
711.751, 388.642
713.047, 342.918
714.344, 406.097
715.640, 489.460
716.936, 683.924
718.232, 614.359
719.527, 913.788
720.823, 837.209
722.118, 747.620
723.413, 668.930
724.708, 622.325
726.002, 402.601
727.297, 323.980
728.591, 290.352
729.885, 61.713
731.179, 232.066
732.472, 270.411
733.766, 133.649
735.059, 170.979
736.352, 152.299
737.645, 110.127
738.937, 122.685
740.230, 101.857
741.522, 109.024
742.814, 152.323
744.106, 44.544
745.397, 102.826
746.689, 123.102
747.980, 13.378
749.271, 6.396
750.562, 85.841
751.853, 164.085
753.143, 215.072
754.433, 11.304
755.723, 131.361
757.013, 87.287
758.303, 76.277
759.592, 134.482
760.881, 40.838
762.170, 42.333
763.459, 25.036
764.748, 109.071
766.036, 61.627
767.325, 40.148
768.613, 31.792
769.901, 33.118
771.188, 140.651
772.476, 54.713
773.763, 5.498
775.050, 206.181
776.337, 9.220
777.624, 95.988
778.910, 50.790
780.196, 140.192
781.482, 70.695
782.768, 48.625
784.054, 100.173
785.339, 34.089
786.625, 85.996
787.910, 54.026
789.195, 82.211
790.479, 24.630
791.764, 7.463
793.048, 30.127
794.332, 85.939
795.616, 28.255
796.900, 28.528
798.183, 142.302
799.467, 54.068
800.750, 110.173
802.033, 33.521
803.316, 143.204
804.598, 19.117
805.880, 123.542
807.163, 138.806
808.445, 80.767
809.726, 73.330
811.008, 79.889
812.289, 7.439
813.570, 129.982
814.851, 6.530
816.132, 3.070
817.413, 220.601
818.693, 40.875
819.973, 35.622
821.253, 207.110
822.533, 30.407
823.813, 56.054
825.092, 138.507
826.371, 86.953
827.650, 84.395
828.929, 112.870
830.208, 99.303
831.486, 209.732
832.764, 112.155
834.042, 1.574
835.320, 130.560
836.598, 51.967
837.875, 203.368
839.152, 120.768
840.429, 206.165
841.706, 139.559
842.983, 115.948
844.259, 4.663
845.536, 167.717
846.812, 174.117
848.088, 106.516
849.363, 39.907
850.639, 7.960
851.914, 43.938
853.189, 29.452
854.464, 56.440
855.739, 53.870
857.013, 194.177
858.288, 318.480
859.562, 48.780
860.836, 185.094
862.110, 29.404
863.383, 132.708
864.656, 160.006
865.930, 244.303
867.203, 159.595
868.475, 183.885
869.748, 89.172
871.020, 160.468
872.292, 115.758
873.564, 203.046
874.836, 295.330
876.108, 275.611
877.379, 346.682
878.650, 355.248
879.922, 373.440
881.192, 331.709
882.463, 274.010
883.733, 170.042
885.004, 317.337
886.274, 285.628
887.544, 120.913
888.813, 247.195
890.083, 279.476
891.352, 163.698
892.621, 339.969
893.890, 348.149
895.159, 186.356
896.427, 296.617
897.695, 290.548
898.964, 150.722
900.232, 363.971
901.499, 201.761
902.767, 213.247
904.034, 260.336
905.301, 292.565
906.568, 282.795
907.835, 328.562
909.102, 271.800
910.368, 215.899
911.634, 215.950
912.900, 100.176
914.166, 262.707
915.432, 241.646
916.697, 393.172
917.962, 229.385
919.227, 64.398
920.492, 391.979
921.757, 153.866
923.021, 342.897
924.285, 239.130
925.550, 215.110
926.813, 204.652
928.077, 141.878
929.341, 226.661
930.604, 219.809
931.867, 225.766
933.130, 192.098
934.393, 193.137
935.655, 292.079
936.918, 248.235
938.180, 162.112
939.442, 345.204
940.703, 157.159
941.965, 176.150
943.226, 138.975
944.488, 288.723
945.749, 133.562
947.009, 86.633
948.270, 195.015
949.530, 110.834
950.791, 148.988
952.051, 185.910
953.311, 230.174
954.570, 231.027
955.830, 221.918
957.089, 196.137
958.348, 205.271
959.607, 181.307
960.866, 187.783
962.124, 151.219
963.383, 117.236
964.641, 64.301
965.899, 117.365
967.156, 142.068
968.414, 258.119
969.671, 75.463
970.928, 82.275
972.185, 256.104
973.442, 100.213
974.699, 256.611
975.955, 127.514
977.211, 139.914
978.468, 237.236
979.723, 56.789
980.979, 218.031
982.234, 277.957
983.490, 149.166
984.745, 347.580
986.000, 48.352
987.254, 262.469
988.509, 207.062
989.763, 91.900
991.017, 375.756
992.271, 155.562
993.525, 206.316
994.779, 179.195
996.032, 183.527
997.285, 301.949
998.538, 296.498
999.791, 236.764
1001.044, 48.588
1002.296, 367.418
1003.548, 121.785
1004.800, 352.729
1006.052, 117.053
1007.304, 99.193
1008.555, 292.160
1009.807, 255.596
1011.058, 371.273
1012.309, 208.039
1013.559, 288.357
1014.810, 416.412
1016.060, 464.172
1017.310, 477.477
1018.560, 369.279
1019.810, 399.859
1021.060, 154.287
1022.309, 253.340
1023.558, 477.088
1024.807, 238.494
1026.056, 468.488
1027.305, 266.123
1028.553, 344.723
1029.801, 366.006
1031.049, 442.467
1032.297, 391.363
1033.545, 310.586
1034.793, 391.486
1036.040, 422.965
1037.287, 325.957
1038.534, 429.260
1039.781, 440.059
1041.027, 493.553
1042.274, 571.719
1043.520, 470.004
1044.766, 626.951
1046.012, 584.211
1047.257, 511.289
1048.503, 549.771
1049.748, 750.180
1050.993, 926.074
1052.238, 828.111
1053.483, 990.723
1054.727, 942.574
1055.971, 829.182
1057.216, 803.068
1058.459, 1150.260
1059.703, 1325.262
1060.947, 1413.361
1062.190, 1674.242
1063.433, 2204.176
1064.676, 2958.422
1065.919, 4408.754
1067.162, 7416.535
1068.404, 14315.926
1069.646, 28557.215
1070.888, 43969.625
1072.130, 47226.660
1073.372, 35724.145
1074.613, 20250.383
1075.855, 11640.656
1077.096, 7157.588
1078.337, 3954.699
1079.578, 2540.033
1080.818, 2025.293
1082.059, 1214.607
1083.299, 1160.217
1084.539, 939.816
1085.779, 953.432
1087.018, 679.305
1088.258, 658.588
1089.497, 563.348
1090.736, 555.838
1091.975, 557.580
1093.213, 378.879
1094.452, 325.697
1095.690, 388.037
1096.928, 447.264
1098.166, 428.426
1099.404, 227.627
1100.642, 369.234
1101.879, 337.836
1103.116, 141.658
1104.353, 235.779
1105.590, 177.369
1106.827, 209.055
1108.063, 227.381
1109.299, 319.100
1110.536, 67.238
1111.771, 174.104
1113.007, 96.490
1114.243, 52.588
1115.478, 250.979
1116.713, 102.854
1117.948, 133.984
1119.183, 170.443
1120.418, 258.621
1121.652, 225.967
1122.886, 182.121
1124.120, 197.621
1125.354, 121.502
1126.588, 136.043
1127.821, 78.906
1129.055, 171.289
1130.288, 6.225
1131.521, 187.334
1132.753, 138.320
1133.986, 119.740
1135.218, 36.803
1136.450, 46.256
1137.682, 37.646
1138.914, 32.406
1140.146, 46.537
1141.377, 58.793
1142.609, 28.953
1143.840, 21.600
1145.071, 92.242
1146.301, 122.592
1147.532, 189.680
1148.762, 40.150
1149.992, 155.445
1151.222, 66.230
1152.452, 10.756
1153.682, 149.359
1154.911, 187.666
1156.140, 38.984
1157.369, 168.016
1158.598, 56.332
1159.827, 87.701
1161.055, 128.744
1162.284, 341.477
1163.512, 93.041
1164.740, 200.871
1165.967, 102.293
1167.195, 153.773
1168.422, 25.496
1169.650, 331.438
1170.877, 123.738
1172.103, 203.156
1173.330, 68.848
1174.557, 145.316
1175.783, 158.314
1177.009, 232.668
1178.235, 188.041
1179.461, 105.193
1180.686, 247.217
1181.912, 91.309
1183.137, 189.686
1184.362, 397.699
1185.587, 239.186
1186.811, 118.135
1188.036, 189.039
1189.260, 264.008
1190.484, 236.379
1191.708, 349.258
1192.932, 237.037
1194.155, 279.061
1195.378, 179.768
1196.602, 202.570
1197.825, 363.844
1199.047, 285.150
1200.270, 145.166
1201.492, 331.449
1202.715, 139.361
1203.937, 308.324
1205.159, 6.162
1206.380, 273.504
1207.602, 246.637
1208.823, 294.967
1210.044, 2.141
1211.265, 202.064
1212.486, 177.215
1213.707, 308.922
1214.927, 158.971
1216.147, 153.963
1217.367, 147.900
1218.587, 60.789
1219.807, 120.988
1221.027, 179.828
1222.246, 162.547
1223.465, 241.207
1224.684, 192.818
1225.903, 135.375
1227.121, 147.115
1228.340, 129.322
1229.558, 93.713
1230.776, 298.045
1231.994, 289.354
1233.212, 222.596
1234.429, 122.793
1235.646, 238.986
1236.864, 297.096
1238.081, 237.164
1239.297, 457.186
1240.514, 208.162
1241.730, 317.092
1242.947, 370.977
1244.163, 253.812
1245.378, 190.604
1246.594, 231.332
1247.810, 225.996
1249.025, 174.611
1250.240, 115.068
1251.455, 217.582
1252.670, 189.014
1253.885, 268.395
1255.099, 177.699
1256.313, 308.951
1257.527, 131.691
1258.741, 2.812
1259.955, 407.521
1261.168, 169.570
1262.382, 7.527
1263.595, 259.961
1264.808, 173.516
1266.021, 235.127
1267.233, 185.734
1268.446, 228.256
1269.658, 137.676
1270.870, 277.059
1272.082, 52.986
1273.294, 263.910
1274.505, 129.465
1275.716, 229.342
1276.928, 32.561
1278.139, 198.191
1279.349, 110.652
1280.560, 262.941
1281.770, 7.785
1282.981, 94.584
1284.191, 168.264
1285.401, 48.854
1286.610, 98.424
1287.820, 104.947
1289.029, 19.275
1290.239, 290.490
1291.448, 71.852
1292.656, 268.605
1293.865, 167.281
1295.073, 84.271
1296.282, 99.680
1297.490, 245.656
1298.698, 65.250
1299.906, 21.104
1301.113, 141.111
1302.320, 34.379
1303.528, 82.594
1304.735, 161.061
1305.942, 41.574
1307.148, 15.189
1308.355, 18.285
1309.561, 162.604
1310.767, 144.689
1311.973, 221.447
1313.179, 40.740
1314.384, 99.092
1315.590, 68.230
1316.795, 177.684
1318.000, 108.871
1319.205, 139.398
1320.410, 19.785
1321.614, 140.998
1322.819, 124.029
1324.023, 19.188
1325.227, 85.094
1326.431, 31.020
1327.634, 75.123
1328.838, 118.623
1330.041, 72.455
1331.244, 108.094
1332.447, 104.084
1333.650, 88.318
1334.852, 4.816
1336.055, 85.137
1337.257, 89.736
1338.459, 54.961
1339.661, 84.311
1340.862, 39.807
1342.064, 146.092
1343.265, 125.447
1344.466, 180.602
1345.667, 103.127
1346.868, 177.359
1348.068, 150.777
1349.269, 370.865
1350.469, 185.594
1351.669, 74.465
1352.869, 311.188
1354.069, 90.082
1355.268, 392.877
1356.468, 299.326
1357.667, 9.648
1358.866, 371.488
1360.065, 304.686
1361.263, 249.842
1362.462, 283.414
1363.660, 116.879
1364.858, 387.875
1366.056, 381.117
1367.254, 254.295
1368.451, 257.816
1369.649, 406.021
1370.846, 362.994
1372.043, 354.123
1373.240, 413.975
1374.436, 326.713
1375.633, 202.572
1376.829, 346.135
1378.025, 274.953
1379.221, 195.436
1380.417, 228.881
1381.613, 445.719
1382.808, 362.559
1384.003, 319.361
1385.199, 461.244
1386.393, 385.631
1387.588, 521.107
1388.783, 405.451
1389.977, 567.012
1391.171, 482.004
1392.365, 715.057
1393.559, 615.965
1394.753, 660.521
1395.946, 838.107
1397.140, 660.527
1398.333, 1046.029
1399.526, 942.721
1400.719, 1044.096
1401.911, 870.295
1403.104, 973.098
1404.296, 780.822
1405.488, 613.863
1406.680, 609.895
1407.872, 738.104
1409.063, 448.982
1410.255, 497.705
1411.446, 583.570
1412.637, 305.117
1413.828, 687.271
1415.018, 416.988
1416.209, 428.418
1417.399, 677.912
1418.589, 535.000
1419.779, 416.846
1420.969, 783.670
1422.159, 549.934
1423.348, 717.166
1424.537, 462.744
1425.726, 572.898
1426.915, 871.311
1428.104, 619.885
1429.293, 863.898
1430.481, 759.994
1431.669, 657.295
1432.857, 820.363
1434.045, 796.189
1435.233, 729.975
1436.420, 824.289
1437.608, 794.158
1438.795, 823.008
1439.982, 854.172
1441.169, 828.438
1442.355, 837.297
1443.542, 840.172
1444.728, 802.508
1445.914, 725.020
1447.100, 691.676
1448.286, 612.227
1449.472, 624.521
1450.657, 590.721
1451.842, 450.762
1453.027, 731.643
1454.212, 588.383
1455.397, 404.061
1456.581, 809.574
1457.766, 295.070
1458.950, 642.539
1460.134, 517.928
1461.318, 294.254
1462.501, 533.654
1463.685, 262.037
1464.868, 375.598
1466.051, 605.227
1467.234, 313.209
1468.417, 681.383
1469.600, 329.648
1470.782, 361.117
1471.965, 520.938
1473.147, 480.881
1474.329, 450.967
1475.510, 434.285
1476.692, 347.613
1477.873, 234.990
1479.055, 324.469
1480.236, 348.994
1481.416, 229.559
1482.597, 477.170
1483.778, 83.859
1484.958, 375.654
1486.138, 205.594
1487.318, 165.709
1488.498, 60.035
1489.678, 31.715
1490.857, 153.457
1492.037, 109.607
1493.216, 171.064
1494.395, 194.963
1495.574, 318.906
1496.752, 245.297
1497.931, 281.033
1499.109, 346.160
1500.287, 106.740
1501.465, 89.854
1502.643, 88.576
1503.820, 39.004
1504.998, 4.195
1506.175, 125.283
1507.352, 73.402
1508.529, 88.766
1509.706, 184.645
1510.882, 62.883
1512.059, 89.984
1513.235, 255.195
1514.411, 308.562
1515.587, 397.613
1516.762, 0.000
##END=



