##NAMES=Gedrite
##RRUFFID=R050339
##IDEAL CHEMISTRY=[box]Mg_2_(Mg_3_Al_2_)(Si_6_Al_2_)O_22_(OH)_2_
##LOCALITY=Bamble, Telemark, Norway
##OWNER=RRUFF
##SOURCE=California Institute of Technology
##DESCRIPTION=Dark gray cleavage fragment
##STATUS=The identification of this mineral has been confirmed by X-ray diffraction and chemical analysis
##URL=rruff.info/R050339
##MEASURED CHEMISTRY=([box]_0.61_Na_0.39_)(Mg_4.55_Fe^2+^_1.40_Al_0.91_Ti_0.07_Ca_0.07_)_Σ7_(Si_6.56_Al_1.44_)_Σ8_O_22_(OH)_2_
113.2544, 0.0000000E+00
113.7366, 1.041687
114.2187, 2.208710
114.7008, 2.813965
115.1829, 3.220795
115.6650, 3.726166
116.1471, 4.441803
116.6293, 5.352661
117.1114, 6.337585
117.5935, 7.532684
118.0756, 8.430756
118.5577, 8.652985
119.0398, 8.587372
119.5220, 9.013428
120.0041, 10.17917
120.4862, 11.72070
120.9683, 12.91040
121.4504, 13.75107
121.9325, 14.37982
122.4147, 14.88446
122.8968, 15.11139
123.3789, 15.47873
123.8610, 16.82632
124.3431, 18.03220
124.8252, 18.39075
125.3074, 17.73758
125.7895, 16.20395
126.2716, 14.31265
126.7537, 13.99451
127.2358, 13.71436
127.7179, 13.03665
128.2001, 12.04761
128.6822, 10.83463
129.1643, 9.421844
129.6464, 7.981262
130.1285, 7.119141
130.6106, 6.195343
131.0928, 5.470520
131.5749, 5.392609
132.0570, 5.809662
132.5391, 5.907318
133.0212, 4.926727
133.5033, 2.898651
133.9855, 1.482269
134.4676, 0.9209900
134.9497, 0.6360470
135.4318, 0.3859250
135.9139, 0.1177370
136.3960, 0.2045900
136.8782, 0.7285160
137.3603, 1.582214
137.8424, 1.709503
138.3245, 0.6831670
138.8066, 0.9580990
139.2887, 2.639648
139.7709, 4.252686
140.2530, 5.809021
140.7351, 7.303284
141.2172, 8.729675
141.6993, 10.16443
142.1814, 12.28357
142.6636, 14.58948
143.1457, 15.10806
143.6278, 12.57916
144.1099, 8.929688
144.5920, 5.615845
145.0741, 2.702972
145.5563, 0.3456420
146.0384, 1.229218
146.5205, 1.958832
147.0026, 2.427216
147.4847, 2.539978
147.9668, 2.531006
148.4490, 2.484711
148.9311, 2.429688
149.4132, 2.388458
149.8953, 2.429230
150.3774, 2.703583
150.8595, 2.725311
151.3417, 2.560211
151.8238, 2.138367
152.3059, 1.276764
152.7880, 5.8837999E-02
153.2701, 1.608917
153.7522, 2.694092
154.2344, 2.683929
154.7165, 2.871185
155.1986, 3.313202
155.6807, 3.977234
156.1628, 4.849121
156.6449, 5.930634
157.1271, 7.169861
157.6092, 8.355957
158.0913, 9.539246
158.5734, 10.64401
159.0555, 11.58392
159.5376, 12.41467
160.0198, 13.28049
160.5019, 14.25983
160.9840, 15.34158
161.4661, 16.42496
161.9482, 17.35184
162.4303, 18.44009
162.9125, 20.10071
163.3946, 22.30035
163.8767, 24.20905
164.3588, 25.01871
164.8409, 25.29034
165.3230, 26.01273
165.8052, 27.57892
166.2873, 29.44522
166.7694, 30.70270
167.2515, 31.03891
167.7336, 31.88095
168.2157, 34.50171
168.6979, 37.85297
169.1800, 40.71558
169.6621, 42.43015
170.1442, 43.43130
170.6263, 44.96576
171.1084, 47.34964
171.5906, 49.86194
172.0727, 52.30832
172.5548, 54.71420
173.0369, 57.13849
173.5190, 59.63058
174.0011, 62.16937
174.4833, 64.57117
174.9654, 66.20453
175.4475, 68.37564
175.9296, 71.85809
176.4117, 76.06924
176.8938, 79.93704
177.3760, 82.58057
177.8581, 83.94894
178.3402, 86.09787
178.8223, 89.95776
179.3044, 93.59546
179.7865, 96.03424
180.2687, 97.57080
180.7508, 99.20990
181.2329, 101.8195
181.7150, 105.5244
182.1971, 108.9624
182.6792, 112.0558
183.1614, 114.9880
183.6435, 118.0043
184.1256, 121.0593
184.6077, 123.7359
185.0898, 125.6083
185.5719, 126.5822
186.0540, 127.4673
186.5362, 128.4751
187.0183, 129.2772
187.5004, 129.3082
187.9825, 128.4538
188.4646, 127.7656
188.9467, 128.6295
189.4289, 130.6104
189.9110, 131.9073
190.3931, 131.6872
190.8752, 130.6662
191.3573, 129.9213
191.8394, 129.5829
192.3216, 129.3722
192.8037, 128.9709
193.2858, 128.5085
193.7679, 128.3185
194.2500, 128.7084
194.7321, 129.4881
195.2143, 130.0706
195.6964, 130.4237
196.1785, 130.7926
196.6606, 131.4962
197.1427, 132.2764
197.6248, 132.6416
198.1070, 131.8678
198.5891, 130.1766
199.0712, 129.9105
199.5533, 132.5139
200.0354, 135.0303
200.5175, 136.3121
200.9997, 136.6052
201.4818, 136.5924
201.9639, 136.8301
202.4460, 137.3374
202.9281, 137.3929
203.4102, 136.7143
203.8924, 135.7563
204.3745, 134.4345
204.8566, 132.9369
205.3387, 131.6713
205.8208, 131.0474
206.3029, 131.1891
206.7851, 130.8246
207.2672, 129.7227
207.7493, 128.3962
208.2314, 126.9572
208.7135, 125.4618
209.1956, 123.9339
209.6778, 122.3744
210.1599, 120.7610
210.6420, 119.4139
211.1241, 118.2651
211.6062, 117.3417
212.0883, 116.8283
212.5705, 116.6270
213.0526, 116.3147
213.5347, 115.4583
214.0168, 113.9654
214.4989, 112.8541
214.9810, 112.1068
215.4632, 111.7067
215.9453, 111.8685
216.4274, 112.5289
216.9095, 113.0656
217.3916, 112.8853
217.8737, 111.9619
218.3559, 111.2600
218.8380, 110.8837
219.3201, 110.6792
219.8022, 110.5716
220.2843, 110.5569
220.7664, 110.4947
221.2486, 110.1139
221.7307, 109.5674
222.2128, 109.5013
222.6949, 110.7361
223.1770, 112.1178
223.6591, 112.2490
224.1413, 110.9761
224.6234, 109.2852
225.1055, 108.1129
225.5876, 106.9975
226.0697, 104.9595
226.5518, 101.0750
227.0340, 96.47842
227.5161, 92.85767
227.9982, 90.38162
228.4803, 88.29962
228.9624, 86.44110
229.4445, 84.65503
229.9267, 82.67920
230.4088, 80.28351
230.8909, 77.77765
231.3730, 75.81580
231.8551, 74.57501
232.3372, 73.45612
232.8194, 72.31772
233.3015, 71.10852
233.7836, 69.71335
234.2657, 68.01892
234.7478, 66.22083
235.2299, 64.84033
235.7121, 64.24039
236.1942, 63.30301
236.6763, 61.40646
237.1584, 59.17816
237.6405, 57.29865
238.1227, 56.08316
238.6048, 55.26007
239.0869, 54.11005
239.5690, 52.31232
240.0511, 50.74771
240.5332, 49.77496
241.0154, 48.99561
241.4975, 48.02701
241.9796, 46.70508
242.4617, 45.14536
242.9438, 43.60550
243.4259, 41.75262
243.9081, 40.50101
244.3902, 40.46231
244.8723, 40.75946
245.3544, 40.43546
245.8365, 39.13449
246.3186, 37.42584
246.8007, 36.67065
247.2829, 38.28540
247.7650, 38.77240
248.2471, 37.49310
248.7292, 35.35663
249.2113, 32.99017
249.6934, 30.65506
250.1756, 28.52917
250.6577, 27.00745
251.1398, 26.54129
251.6219, 26.05273
252.1040, 25.71942
252.5861, 25.24124
253.0683, 24.31699
253.5504, 22.88162
254.0325, 21.13757
254.5146, 19.37711
254.9967, 17.34317
255.4788, 15.89481
255.9610, 15.37982
256.4431, 15.27441
256.9252, 15.13434
257.4073, 14.83548
257.8894, 14.47827
258.3716, 14.18283
258.8537, 13.96576
259.3358, 13.82309
259.8179, 13.84305
260.3000, 13.97467
260.7821, 14.25470
261.2643, 14.66208
261.7464, 14.94876
262.2285, 14.82608
262.7106, 14.18936
263.1927, 13.46722
263.6748, 12.29413
264.1570, 11.29507
264.6391, 11.09125
265.1212, 11.70917
265.6033, 12.56836
266.0854, 13.19312
266.5675, 13.55807
267.0497, 13.77036
267.5318, 13.80884
268.0139, 13.70166
268.4960, 13.33371
268.9781, 12.73990
269.4602, 12.35028
269.9424, 12.59125
270.4245, 13.36957
270.9066, 13.88007
271.3887, 13.83859
271.8708, 13.65958
272.3529, 13.59296
272.8351, 13.65698
273.3172, 13.91275
273.7993, 14.57169
274.2814, 15.41489
274.7635, 15.76556
275.2456, 15.17911
275.7278, 14.56302
276.2099, 14.47815
276.6920, 14.90662
277.1741, 15.79477
277.6562, 17.53659
278.1383, 19.39743
278.6204, 19.85394
279.1025, 18.18869
279.5847, 16.71796
280.0668, 17.24588
280.5489, 19.45377
281.0310, 21.43970
281.5131, 22.47757
281.9952, 23.03094
282.4774, 23.73337
282.9595, 24.56174
283.4416, 25.64160
283.9237, 27.20410
284.4058, 29.12262
284.8879, 30.88187
285.3701, 32.32199
285.8522, 33.59195
286.3343, 34.71045
286.8164, 35.69171
287.2985, 37.04483
287.7806, 39.29074
288.2628, 42.15842
288.7449, 44.80518
289.2270, 47.25638
289.7091, 49.19888
290.1912, 50.37958
290.6733, 50.90225
291.1555, 51.07474
291.6376, 51.35187
292.1197, 51.35416
292.6018, 49.91669
293.0839, 46.41266
293.5660, 42.83981
294.0482, 40.58807
294.5303, 39.19373
295.0124, 37.85178
295.4945, 36.28311
295.9766, 34.58884
296.4587, 32.94907
296.9409, 31.37762
297.4230, 29.81277
297.9051, 28.18228
298.3872, 26.53799
298.8693, 24.97153
299.3514, 23.59113
299.8336, 22.15356
300.3157, 20.22290
300.7978, 17.67758
301.2799, 15.30051
301.7620, 13.34033
302.2441, 11.71970
302.7263, 10.41846
303.2084, 9.450775
303.6905, 8.691193
304.1726, 8.113617
304.6547, 7.735046
305.1368, 7.133362
305.6190, 6.113831
306.1011, 4.885956
306.5832, 3.502167
307.0653, 1.985840
307.5474, 0.6552730
308.0295, 0.2276920
308.5117, 0.6798100
308.9938, 0.8976140
309.4759, 0.7290950
309.9580, 0.5228270
310.4401, 0.4685360
310.9222, 0.5645140
311.4044, 0.7901920
311.8865, 1.144714
312.3686, 1.621185
312.8507, 2.247192
313.3328, 3.218903
313.8149, 3.992065
314.2971, 4.353516
314.7792, 4.345001
315.2613, 3.983551
315.7434, 3.040833
316.2255, 1.905029
316.7076, 1.467285
317.1898, 1.933472
317.6719, 2.531433
318.1540, 3.084167
318.6361, 3.522614
319.1182, 3.714600
319.6003, 3.564972
320.0825, 3.317200
320.5646, 3.362335
321.0467, 3.774567
321.5288, 4.002563
322.0109, 3.700134
322.4930, 3.239441
322.9752, 2.897308
323.4573, 2.718475
323.9394, 2.589661
324.4215, 2.420563
324.9036, 2.212738
325.3857, 1.951477
325.8679, 1.408234
326.3500, 1.065155
326.8321, 1.424500
327.3142, 2.368805
327.7963, 3.165588
328.2784, 3.310577
328.7606, 2.889496
329.2427, 2.252625
329.7248, 1.173340
330.2069, 0.3085630
330.6890, 0.1310420
331.1711, 0.4276430
331.6533, 0.7700810
332.1354, 1.013336
332.6175, 1.157837
333.0996, 1.168549
333.5817, 0.9886780
334.0638, 0.8596800
334.5460, 1.101624
335.0281, 1.395599
335.5102, 1.329010
335.9923, 0.7009280
336.4744, 9.5031999E-02
336.9565, 0.6084900
337.4387, 0.8227230
337.9208, 0.9959410
338.4029, 1.207611
338.8850, 1.413208
339.3671, 1.493774
339.8492, 1.419220
340.3314, 1.532776
340.8135, 2.297607
341.2956, 3.574615
341.7777, 4.451080
342.2598, 4.714874
342.7419, 4.583954
343.2241, 4.204681
343.7062, 3.612976
344.1883, 2.982758
344.6704, 2.251343
345.1525, 1.560486
345.6346, 1.267059
346.1168, 1.472229
346.5989, 1.802246
347.0810, 1.805084
347.5631, 1.757233
348.0452, 2.257294
348.5273, 4.037476
349.0095, 5.908630
349.4916, 6.296204
349.9737, 5.164032
350.4558, 4.186157
350.9379, 4.226959
351.4200, 4.842163
351.9022, 5.294586
352.3843, 5.546661
352.8664, 5.649536
353.3485, 5.374847
353.8306, 4.910370
354.3127, 5.079407
354.7949, 6.317200
355.2770, 7.927216
355.7591, 9.022064
356.2412, 9.617645
356.7233, 10.21048
357.2054, 11.06396
357.6876, 11.99683
358.1697, 12.71976
358.6518, 13.18674
359.1339, 13.49341
359.6160, 13.50687
360.0981, 13.36850
360.5803, 13.83148
361.0624, 15.57620
361.5445, 17.51404
362.0266, 18.76306
362.5087, 19.36432
362.9908, 19.73502
363.4730, 20.05249
363.9551, 20.32462
364.4372, 20.57925
364.9193, 20.76282
365.4014, 21.01361
365.8835, 21.19513
366.3657, 21.47025
366.8478, 22.27475
367.3299, 23.84360
367.8120, 25.68027
368.2941, 26.93250
368.7762, 27.39536
369.2584, 28.15933
369.7405, 29.75497
370.2226, 31.47281
370.7047, 32.67532
371.1868, 33.25360
371.6689, 33.29895
372.1511, 32.73651
372.6332, 31.56219
373.1153, 31.37015
373.5974, 32.92282
374.0795, 34.68738
374.5616, 35.99408
375.0438, 36.82843
375.5259, 37.33704
376.0080, 37.55838
376.4901, 37.62579
376.9722, 38.00974
377.4543, 38.97006
377.9365, 39.94983
378.4186, 40.89291
378.9007, 41.77972
379.3828, 42.65765
379.8649, 43.55621
380.3470, 44.38049
380.8292, 45.00574
381.3113, 45.51221
381.7934, 45.45108
382.2755, 43.88513
382.7576, 42.64276
383.2397, 43.03378
383.7219, 44.79266
384.2040, 46.72577
384.6861, 47.88132
385.1682, 48.26913
385.6503, 48.49451
386.1324, 48.50623
386.6146, 48.52463
387.0967, 48.38641
387.5788, 48.37726
388.0609, 48.88559
388.5430, 50.03909
389.0251, 51.49344
389.5073, 52.61884
389.9894, 53.35474
390.4715, 53.87799
390.9536, 53.93054
391.4357, 54.02844
391.9178, 54.55435
392.4000, 55.47308
392.8821, 56.43604
393.3642, 57.04755
393.8463, 57.31268
394.3284, 58.11758
394.8105, 60.13220
395.2927, 61.85345
395.7748, 62.54904
396.2569, 62.65881
396.7390, 62.87222
397.2211, 63.46414
397.7032, 64.50729
398.1854, 66.32196
398.6675, 69.29108
399.1496, 71.89188
399.6317, 73.49503
400.1138, 74.70535
400.5959, 75.83615
401.0780, 76.95264
401.5602, 78.24170
402.0423, 79.84097
402.5244, 81.74640
403.0065, 83.99426
403.4886, 86.74121
403.9707, 89.61240
404.4529, 92.32968
404.9350, 94.94250
405.4171, 97.62039
405.8992, 100.4391
406.3813, 103.3470
406.8634, 106.3783
407.3456, 109.5789
407.8277, 112.4982
408.3098, 114.8094
408.7919, 116.7631
409.2740, 118.8533
409.7561, 121.2864
410.2383, 123.4019
410.7204, 124.5046
411.2025, 124.9634
411.6846, 125.9129
412.1667, 127.7255
412.6488, 129.8597
413.1310, 131.5893
413.6131, 132.9301
414.0952, 134.6223
414.5773, 137.0510
415.0594, 139.7137
415.5415, 142.0580
416.0237, 144.1106
416.5058, 146.3421
416.9879, 149.0352
417.4700, 152.1729
417.9521, 155.6553
418.4342, 159.6499
418.9164, 163.7155
419.3985, 167.7962
419.8806, 171.8611
420.3627, 175.8776
420.8448, 179.8444
421.3269, 183.6558
421.8091, 187.1060
422.2912, 189.8707
422.7733, 193.2044
423.2554, 197.6457
423.7375, 202.1266
424.2196, 205.7758
424.7018, 208.8208
425.1839, 212.1751
425.6660, 216.5456
426.1481, 221.7294
426.6302, 226.4769
427.1123, 230.5935
427.5945, 234.4187
428.0766, 237.5889
428.5587, 240.6872
429.0408, 244.4449
429.5229, 249.0306
430.0050, 253.8758
430.4872, 258.3039
430.9693, 262.3852
431.4514, 265.6917
431.9335, 266.8517
432.4156, 268.4727
432.8977, 272.0373
433.3799, 276.9612
433.8620, 281.6909
434.3441, 285.2334
434.8262, 287.9004
435.3083, 290.5884
435.7904, 293.3670
436.2726, 296.0152
436.7547, 298.5742
437.2368, 300.8982
437.7189, 302.7354
438.2010, 304.0150
438.6831, 305.2122
439.1653, 306.9584
439.6474, 309.0555
440.1295, 310.3329
440.6116, 310.3020
441.0937, 310.0441
441.5758, 310.5068
442.0580, 311.4717
442.5401, 312.3560
443.0222, 313.1766
443.5043, 313.7543
443.9864, 314.1189
444.4685, 314.1754
444.9507, 313.0702
445.4328, 309.9628
445.9149, 305.9250
446.3970, 303.5786
446.8791, 303.6288
447.3612, 302.9481
447.8434, 300.6302
448.3255, 297.2562
448.8076, 293.0608
449.2897, 288.0610
449.7718, 283.2733
450.2539, 279.9556
450.7361, 278.2933
451.2182, 275.0898
451.7003, 269.4762
452.1824, 263.4200
452.6645, 257.4759
453.1466, 251.5383
453.6288, 245.4011
454.1109, 238.9804
454.5930, 232.5421
455.0751, 226.5359
455.5572, 221.2330
456.0393, 215.8819
456.5215, 210.6060
457.0036, 205.0654
457.4857, 198.8688
457.9678, 192.2663
458.4499, 185.8425
458.9320, 180.0239
459.4142, 174.7084
459.8963, 169.2021
460.3784, 163.3687
460.8605, 157.6259
461.3426, 151.9583
461.8247, 146.3956
462.3069, 140.9526
462.7890, 135.6331
463.2711, 130.4771
463.7532, 125.6194
464.2353, 121.0136
464.7174, 116.4168
465.1996, 111.8390
465.6817, 107.2094
466.1638, 102.3922
466.6459, 97.47940
467.1280, 92.68304
467.6101, 87.91779
468.0923, 83.45676
468.5744, 79.72275
469.0565, 76.63846
469.5386, 73.82544
470.0207, 71.31296
470.5028, 68.75974
470.9850, 65.37717
471.4671, 60.89563
471.9492, 57.11426
472.4313, 54.89679
472.9134, 53.34409
473.3955, 51.63205
473.8777, 49.64172
474.3598, 47.34418
474.8419, 44.65781
475.3240, 41.64670
475.8061, 38.99741
476.2882, 36.55292
476.7704, 34.59668
477.2525, 33.81198
477.7346, 33.28137
478.2167, 31.75381
478.6988, 28.95740
479.1809, 25.86740
479.6631, 23.70444
480.1452, 22.65634
480.6273, 21.65591
481.1094, 20.90591
481.5915, 19.99481
482.0736, 18.75024
482.5558, 17.25192
483.0379, 15.55453
483.5200, 13.62018
484.0021, 11.78845
484.4842, 10.80807
484.9663, 10.89352
485.4485, 10.80798
485.9306, 10.17294
486.4127, 9.412659
486.8948, 8.878479
487.3769, 8.548645
487.8590, 8.032043
488.3412, 6.963654
488.8233, 5.619171
489.3054, 4.444977
489.7875, 3.464203
490.2696, 2.714478
490.7517, 2.240204
491.2339, 2.022522
491.7160, 2.014465
492.1981, 2.364655
492.6802, 2.495270
493.1623, 1.970886
493.6444, 1.153076
494.1266, 0.5532530
494.6087, 0.2641300
495.0908, 7.0525996E-02
495.5729, 0.1916810
496.0550, 0.5053100
496.5371, 0.8457640
497.0193, 1.189209
497.5014, 1.580750
497.9835, 2.146545
498.4656, 2.730652
498.9477, 3.090881
499.4298, 3.150330
499.9120, 3.091064
500.3941, 3.186127
500.8762, 3.501953
501.3583, 3.694427
501.8404, 3.608154
502.3225, 3.575531
502.8047, 3.821930
503.2868, 4.181396
503.7689, 4.318115
504.2510, 4.028015
504.7331, 3.617584
505.2152, 3.815338
505.6974, 4.820709
506.1795, 5.157532
506.6616, 3.779419
507.1437, 2.349274
507.6258, 2.261322
508.1079, 3.305634
508.5901, 4.212769
509.0722, 4.401520
509.5543, 4.080597
510.0364, 3.382629
510.5185, 2.321350
511.0006, 1.475342
511.4828, 1.135712
511.9649, 1.165710
512.4470, 1.358429
512.9291, 1.873871
513.4112, 2.015869
513.8933, 1.199493
514.3754, 0.1691590
514.8575, 9.0392999E-02
515.3397, 0.3713380
515.8218, 0.4797360
516.3039, 0.6961980
516.7860, 2.863007
517.2681, 3.875702
517.7502, 2.416748
518.2324, 1.423706
518.7145, 1.364838
519.1966, 1.759399
519.6787, 2.256592
520.1608, 2.732819
520.6429, 3.106354
521.1251, 3.295746
521.6072, 3.303497
522.0893, 3.137665
522.5714, 2.428986
523.0535, 2.154907
523.5356, 3.120392
524.0178, 4.428162
524.4999, 4.938660
524.9820, 4.307556
525.4641, 3.493378
525.9462, 3.457428
526.4283, 4.013062
526.9105, 4.318420
527.3926, 4.240997
527.8747, 3.958008
528.3568, 3.478638
528.8389, 2.894836
529.3210, 2.515350
529.8032, 2.294067
530.2853, 2.373474
530.7674, 3.078186
531.2495, 4.097809
531.7316, 4.846375
532.2137, 5.156281
532.6959, 5.139740
533.1780, 4.913422
533.6601, 4.449585
534.1422, 3.928711
534.6243, 3.052734
535.1064, 2.443451
535.5886, 2.496552
536.0707, 2.920105
536.5528, 3.291992
537.0349, 3.438446
537.5170, 3.425507
537.9991, 3.380066
538.4813, 3.348663
538.9634, 3.040771
539.4455, 2.187225
539.9276, 1.335876
540.4097, 0.6568600
540.8918, 0.1778260
541.3740, 5.2338000E-02
541.8561, 2.5451999E-02
542.3382, 0.2735290
542.8203, 0.7192990
543.3024, 1.293365
543.7845, 1.192993
544.2667, 0.1055600
544.7488, 1.489777
545.2309, 1.425842
545.7130, 0.1145630
546.1951, 0.5270080
546.6772, 0.4821780
547.1594, 1.607941
547.6415, 1.728271
548.1236, 1.169861
548.6057, 0.8745730
549.0878, 1.230774
549.5699, 1.744781
550.0521, 1.523956
550.5342, 4.9316000E-02
551.0163, 0.5101930
551.4984, 0.8457950
551.9805, 1.984039
552.4626, 1.720642
552.9448, 0.5816040
553.4269, 0.3605650
553.9090, 0.5976260
554.3911, 0.3885500
554.8732, 8.5022002E-02
555.3553, 0.3742980
555.8375, 0.5228270
556.3196, 1.9989001E-02
556.8017, 0.5294800
557.2838, 0.5671690
557.7659, 0.2320860
558.2480, 0.2647710
558.7302, 1.163422
559.2123, 1.835266
559.6944, 1.444214
560.1765, 0.2027590
560.6586, 0.9842530
561.1407, 1.898285
561.6229, 2.490997
562.1050, 2.661652
562.5871, 2.335999
563.0692, 2.063873
563.5513, 1.573792
564.0334, 1.359589
564.5156, 1.826660
564.9977, 2.826965
565.4798, 4.098236
565.9619, 5.481903
566.4440, 6.754639
566.9261, 7.517334
567.4083, 7.576630
567.8904, 8.092957
568.3725, 9.410767
568.8546, 10.88220
569.3367, 12.42896
569.8188, 13.88916
570.3010, 14.97665
570.7831, 15.52615
571.2652, 15.98569
571.7473, 16.93259
572.2294, 18.33490
572.7115, 19.78549
573.1937, 21.10828
573.6758, 22.62686
574.1579, 24.96527
574.6400, 27.81882
575.1221, 29.97766
575.6042, 30.77267
576.0864, 31.47403
576.5685, 32.72415
577.0506, 34.31586
577.5327, 35.85782
578.0148, 37.25912
578.4969, 38.70627
578.9791, 40.39618
579.4612, 42.33502
579.9433, 44.39398
580.4254, 46.76486
580.9075, 49.03320
581.3896, 50.86490
581.8718, 52.71396
582.3539, 55.26785
582.8360, 58.60193
583.3181, 61.80457
583.8002, 63.60440
584.2823, 64.30930
584.7645, 66.33417
585.2466, 70.16092
585.7287, 73.97897
586.2108, 76.81097
586.6929, 79.14835
587.1750, 81.63071
587.6572, 84.32098
588.1393, 87.06448
588.6214, 89.76459
589.1035, 92.48999
589.5856, 95.33844
590.0677, 98.31067
590.5499, 101.2532
591.0320, 104.0413
591.5141, 106.7880
591.9962, 109.8802
592.4783, 113.7984
592.9604, 117.3666
593.4426, 120.3691
593.9247, 123.1943
594.4068, 126.1238
594.8889, 129.1265
595.3710, 131.9982
595.8531, 134.5317
596.3353, 136.9684
596.8174, 139.9495
597.2995, 143.5355
597.7816, 147.2957
598.2637, 151.3956
598.7458, 155.3453
599.2280, 158.7134
599.7101, 161.5797
600.1922, 164.3900
600.6743, 167.2304
601.1564, 170.0980
601.6385, 173.2121
602.1207, 176.3637
602.6028, 178.8022
603.0849, 180.2709
603.5670, 181.5894
604.0491, 183.8485
604.5313, 187.3458
605.0134, 189.7484
605.4955, 190.1912
605.9776, 190.7672
606.4597, 192.4575
606.9418, 194.4945
607.4240, 195.9029
607.9061, 196.4174
608.3882, 196.3740
608.8703, 196.1074
609.3524, 195.5807
609.8345, 194.3337
610.3167, 192.0699
610.7988, 189.9724
611.2809, 188.7032
611.7630, 187.8799
612.2451, 187.0788
612.7272, 186.3425
613.2094, 185.2807
613.6915, 183.9047
614.1736, 182.0102
614.6557, 179.0526
615.1378, 175.1586
615.6199, 171.3884
616.1021, 168.4130
616.5842, 165.9346
617.0663, 163.1892
617.5484, 160.0974
618.0305, 156.8531
618.5126, 153.6324
618.9948, 150.0848
619.4769, 145.7317
619.9590, 140.9133
620.4411, 136.4607
620.9232, 132.7952
621.4053, 129.5573
621.8875, 126.1725
622.3696, 122.6520
622.8517, 119.2851
623.3338, 116.1724
623.8159, 113.1426
624.2980, 110.0711
624.7802, 106.9843
625.2623, 103.9633
625.7444, 100.9145
626.2265, 98.08182
626.7086, 95.86368
627.1907, 93.79813
627.6729, 91.06891
628.1550, 87.60495
628.6371, 84.21274
629.1192, 81.63123
629.6013, 79.73721
630.0834, 77.60803
630.5656, 75.01157
631.0477, 72.54657
631.5298, 70.25299
632.0119, 68.15228
632.4940, 66.22604
632.9761, 64.49280
633.4583, 63.02902
633.9404, 62.11404
634.4225, 61.29813
634.9046, 59.53851
635.3867, 56.95557
635.8688, 55.37305
636.3510, 55.64755
636.8331, 56.40826
637.3152, 55.83148
637.7973, 53.70831
638.2794, 52.70926
638.7615, 54.11047
639.2437, 55.25116
639.7258, 54.56122
640.2079, 53.12640
640.6900, 52.46085
641.1721, 52.96127
641.6542, 54.14328
642.1364, 55.71750
642.6185, 57.58752
643.1006, 58.34857
643.5827, 57.48187
644.0648, 56.64450
644.5469, 56.23743
645.0291, 56.23767
645.5112, 56.66730
645.9933, 57.52765
646.4754, 58.72253
646.9575, 60.63086
647.4396, 62.54858
647.9218, 63.55054
648.4039, 63.83133
648.8860, 64.22290
649.3681, 65.03854
649.8502, 66.31363
650.3323, 68.20615
650.8145, 71.00076
651.2966, 73.09750
651.7787, 73.77667
652.2608, 74.61279
652.7429, 76.02390
653.2250, 77.88727
653.7072, 80.12305
654.1893, 82.68729
654.6714, 85.23438
655.1535, 87.38278
655.6356, 89.25571
656.1177, 91.19977
656.5999, 93.19217
657.0820, 95.59256
657.5641, 98.79327
658.0462, 102.2336
658.5283, 104.7921
659.0104, 106.2448
659.4926, 108.1545
659.9747, 111.1767
660.4568, 114.3430
660.9389, 116.8406
661.4210, 118.9677
661.9031, 121.6109
662.3853, 125.1147
662.8674, 128.7034
663.3495, 131.1152
663.8316, 132.2306
664.3137, 134.1003
664.7958, 137.1346
665.2780, 140.2507
665.7601, 142.9352
666.2422, 145.4362
666.7243, 148.1630
667.2064, 151.2383
667.6885, 153.7262
668.1707, 155.0452
668.6528, 155.6853
669.1349, 156.0208
669.6170, 156.1511
670.0991, 156.4119
670.5812, 156.9682
671.0634, 157.3312
671.5455, 156.6514
672.0276, 154.8005
672.5097, 152.4941
672.9918, 149.6597
673.4739, 146.3343
673.9561, 142.4154
674.4382, 138.1602
674.9203, 133.8965
675.4024, 129.7226
675.8845, 125.2007
676.3666, 119.9055
676.8488, 114.0297
677.3309, 107.7668
677.8130, 101.2152
678.2951, 95.24399
678.7772, 90.24707
679.2593, 86.01599
679.7415, 82.18958
680.2236, 79.12585
680.7057, 75.37231
681.1878, 70.22406
681.6699, 65.24487
682.1520, 60.81598
682.6342, 56.97705
683.1163, 54.07895
683.5984, 52.11914
684.0805, 50.12830
684.5626, 46.66644
685.0447, 42.15277
685.5269, 38.90771
686.0090, 37.12021
686.4911, 35.67297
686.9732, 34.12537
687.4553, 32.59662
687.9374, 31.32245
688.4196, 30.35361
688.9017, 29.21240
689.3838, 27.41772
689.8659, 25.85223
690.3480, 25.33749
690.8301, 25.35406
691.3123, 24.96835
691.7944, 23.87955
692.2765, 22.42456
692.7586, 20.83701
693.2407, 19.17383
693.7228, 18.28839
694.2050, 18.51016
694.6871, 18.58130
695.1692, 17.95490
695.6513, 17.03009
696.1334, 16.21628
696.6155, 15.51715
697.0977, 14.81229
697.5798, 13.93567
698.0619, 13.15964
698.5440, 12.83206
699.0261, 12.72815
699.5082, 12.32159
699.9904, 11.48569
700.4725, 10.68555
700.9546, 10.50876
701.4367, 10.86926
701.9188, 10.46927
702.4009, 8.764984
702.8831, 7.415558
703.3652, 7.040771
703.8473, 7.021210
704.3294, 7.055145
704.8115, 7.071747
705.2936, 6.853943
705.7758, 6.311371
706.2579, 5.539246
706.7400, 4.371277
707.2221, 3.067261
707.7042, 2.273590
708.1863, 2.115112
708.6685, 1.998260
709.1505, 1.351318
709.6326, 0.2827150
710.1147, 0.3922730
710.5969, 0.5079040
711.0790, 0.5276490
711.5611, 0.5648190
712.0432, 0.4829410
712.5253, 5.5695001E-02
713.0074, 0.8074040
713.4896, 0.9988100
713.9717, 4.6509001E-02
714.4538, 1.000824
714.9359, 1.163361
715.4180, 0.7499080
715.9001, 0.3033450
716.3823, 7.4920997E-02
716.8644, 8.0565996E-02
717.3465, 0.6056820
717.8286, 1.708008
718.3107, 2.196442
718.7928, 1.660797
719.2750, 1.269043
719.7571, 1.205475
720.2392, 1.142395
720.7213, 0.7565000
721.2034, 0.2788390
721.6855, 0.2115170
722.1677, 0.7910460
722.6498, 1.488617
723.1319, 1.903809
723.6140, 2.080322
724.0961, 2.022430
724.5782, 1.769989
725.0604, 1.653961
725.5425, 1.867706
726.0246, 2.249878
726.5067, 2.502350
726.9888, 2.670563
727.4709, 2.552338
727.9531, 1.632507
728.4352, 1.018982
728.9173, 1.433472
729.3994, 2.202820
729.8815, 2.359406
730.3636, 1.710846
730.8458, 1.074707
731.3279, 1.079376
731.8100, 1.437805
732.2921, 1.831970
732.7742, 2.194183
733.2563, 2.072937
733.7385, 1.238098
734.2206, 0.3484500
734.7027, 0.2700200
735.1848, 1.061554
735.6669, 1.667267
736.1490, 2.366638
736.6312, 2.502045
737.1133, 1.295258
737.5954, 2.5665000E-02
738.0775, 0.1654660
738.5596, 0.7357180
739.0417, 1.308624
739.5239, 0.6499330
740.0060, 0.4179990
740.4881, 1.003967
740.9702, 1.212677
741.4523, 1.353638
741.9344, 1.492279
742.4166, 1.512329
742.8987, 1.253265
743.3808, 0.8539120
743.8629, 1.019531
744.3450, 2.267365
744.8271, 3.090881
745.3093, 3.089203
745.7914, 2.998993
746.2735, 3.296783
746.7556, 3.787903
747.2377, 3.964539
747.7198, 3.570618
748.2020, 3.201050
748.6841, 3.319031
749.1662, 3.764954
749.6483, 4.417938
750.1304, 5.193420
750.6125, 5.592773
751.0947, 5.306519
751.5768, 4.830048
752.0589, 5.160706
752.5410, 6.648224
753.0231, 7.270721
753.5052, 6.153625
753.9874, 5.339417
754.4695, 5.759552
754.9516, 6.585632
755.4337, 6.930786
755.9158, 6.701263
756.3979, 6.400818
756.8801, 6.172821
757.3622, 6.059845
757.8443, 6.019135
758.3264, 6.122681
758.8085, 6.695374
759.2906, 7.772827
759.7728, 8.779602
760.2549, 9.147064
760.7370, 8.962280
761.2191, 8.688324
761.7012, 8.116058
762.1833, 8.037781
762.6655, 9.146698
763.1476, 10.21075
763.6297, 10.32178
764.1118, 9.748169
764.5939, 9.227325
765.0760, 8.847626
765.5582, 8.668732
766.0403, 8.901733
766.5224, 9.236420
767.0045, 9.256104
767.4866, 9.020691
767.9688, 8.911438
768.4509, 9.132507
768.9330, 9.474670
769.4151, 9.560028
769.8972, 9.377869
770.3793, 9.366913
770.8615, 9.655914
771.3436, 9.741577
771.8257, 9.056488
772.3078, 8.279846
772.7899, 8.621735
773.2720, 10.21463
773.7542, 11.34619
774.2363, 11.46008
774.7184, 11.36435
775.2005, 11.44278
775.6826, 11.52258
776.1647, 11.31976
776.6469, 10.89429
777.1290, 10.64862
777.6111, 11.00677
778.0932, 11.56995
778.5753, 11.19818
779.0574, 9.950500
779.5396, 9.625763
780.0217, 10.80518
780.5038, 11.93936
780.9859, 11.71997
781.4680, 10.53076
781.9501, 10.01050
782.4323, 10.70178
782.9144, 11.16266
783.3965, 11.27063
783.8786, 11.15228
784.3607, 10.75494
784.8428, 10.24130
785.3250, 9.850708
785.8071, 9.693024
786.2892, 9.777588
786.7713, 10.38364
787.2534, 11.02679
787.7355, 10.72501
788.2177, 9.631683
788.6998, 8.687439
789.1819, 8.189392
789.6640, 7.953430
790.1461, 7.777496
790.6282, 7.662170
791.1104, 7.783508
791.5925, 8.543793
792.0746, 8.984070
792.5567, 8.573059
793.0388, 7.973724
793.5209, 7.739624
794.0031, 7.760193
794.4852, 7.600800
794.9673, 7.049377
795.4494, 6.700989
795.9315, 6.909363
796.4136, 7.344360
796.8958, 7.802673
797.3779, 8.257324
797.8600, 8.528046
798.3421, 8.475433
798.8242, 8.137543
799.3063, 7.626404
799.7885, 6.956696
800.2706, 6.234558
800.7527, 5.294098
801.2348, 4.835236
801.7169, 5.470856
802.1990, 6.510925
802.6812, 6.938629
803.1633, 6.711945
803.6454, 6.304779
804.1275, 5.370422
804.6096, 4.854797
805.0917, 5.348724
805.5739, 6.243805
806.0560, 7.136230
806.5381, 7.848389
807.0202, 8.041504
807.5023, 7.371704
807.9844, 6.542297
808.4666, 6.645203
808.9487, 7.414246
809.4308, 7.851013
809.9129, 7.854919
810.3950, 7.795502
810.8771, 7.900345
811.3593, 8.007645
811.8414, 7.854874
812.3235, 7.378387
812.8056, 6.997437
813.2877, 6.877899
813.7698, 6.613174
814.2520, 5.816635
814.7341, 5.005737
815.2162, 4.706635
815.6983, 4.948807
816.1804, 5.437881
816.6625, 6.401932
817.1447, 7.185043
817.6268, 7.263962
818.1089, 6.919724
818.5910, 6.514099
819.0731, 6.150375
819.5552, 5.906036
820.0374, 5.842941
820.5195, 5.932434
821.0016, 6.088287
821.4837, 6.304382
821.9658, 6.633545
822.4479, 7.184799
822.9301, 7.438522
823.4122, 6.928970
823.8943, 6.120575
824.3764, 5.929428
824.8585, 6.538422
825.3406, 6.827347
825.8228, 6.241974
826.3049, 5.967743
826.7870, 6.970245
827.2691, 8.110504
827.7512, 8.003281
828.2333, 6.742477
828.7155, 5.603043
829.1976, 5.256958
829.6797, 5.320023
830.1618, 5.557236
830.6439, 5.869843
831.1260, 5.893707
831.6082, 5.587479
832.0903, 5.313522
832.5724, 5.284042
833.0545, 5.344452
833.5366, 5.165039
834.0187, 4.662216
834.5009, 4.365372
834.9830, 4.328918
835.4651, 4.397141
835.9472, 4.529968
836.4293, 4.725296
836.9114, 5.106567
837.3936, 5.649948
837.8757, 5.770477
838.3578, 4.987869
838.8399, 4.235352
839.3220, 3.709122
839.8041, 3.482803
840.2863, 3.857483
840.7684, 4.087387
841.2505, 4.654160
841.7326, 4.932388
842.2147, 4.935532
842.6968, 3.846588
843.1790, 4.161072
843.6611, 3.911240
844.1432, 3.638901
844.6253, 4.156326
845.1074, 3.232376
845.5895, 3.740463
846.0717, 3.670120
846.5538, 3.853790
847.0359, 3.465286
847.5180, 3.250229
848.0001, 3.601730
848.4822, 3.640015
848.9644, 3.188614
849.4465, 3.394516
849.9286, 2.445236
850.4107, 2.510193
850.8928, 3.009888
851.3749, 2.592224
851.8571, 2.807388
852.3392, 2.783463
852.8213, 1.664932
853.3034, 1.795517
853.7855, 1.500137
854.2676, 1.236710
854.7498, 0.9503940
855.2319, 0.4305570
855.7140, 7.1762003E-02
856.1961, 0.2404630
856.6782, 1.205154
857.1603, 1.603363
857.6425, 1.106552
858.1246, 0.4200440
858.6067, 0.1106570
859.0888, 9.7473003E-02
859.5709, 4.7058001E-02
860.0530, 0.2003170
860.5352, 4.2587001E-02
861.0173, 0.9708250
861.4994, 1.811066
861.9815, 1.892639
862.4636, 1.605240
862.9457, 1.460419
863.4279, 1.506195
863.9100, 1.504395
864.3921, 1.326752
864.8742, 1.156708
865.3563, 1.060333
865.8384, 1.038162
866.3206, 1.236389
866.8027, 1.539459
867.2848, 1.441483
867.7669, 0.5471500
868.2490, 0.4483340
868.7311, 0.6549220
869.2133, 0.2334140
869.6954, 0.5246890
870.1775, 1.538849
870.6596, 2.261002
871.1417, 2.442902
871.6238, 2.250015
872.1060, 1.874222
872.5881, 1.315430
873.0702, 0.7364650
873.5523, 5.3801998E-02
874.0344, 0.3249660
874.5165, 0.4095150
874.9987, 1.342316
875.4808, 1.936386
875.9629, 2.208221
876.4450, 2.146271
876.9271, 1.562286
877.4092, 1.049225
877.8914, 0.8070680
878.3735, 0.5845790
878.8556, 0.1521000
879.3377, 0.3346710
879.8198, 0.6585390
880.3019, 0.7609560
880.7841, 0.6441800
881.2662, 0.1918950
881.7483, 0.3614960
882.2304, 0.8254240
882.7125, 1.150269
883.1946, 1.108932
883.6768, 0.7225040
884.1589, 0.4042050
884.6410, 0.4243930
885.1231, 0.6745000
885.6052, 1.061096
886.0873, 1.605515
886.5695, 1.560867
887.0516, 0.7575380
887.5337, 2.6337000E-02
888.0158, 0.3814390
888.4979, 0.4458470
888.9800, 1.4650000E-03
889.4622, 0.9355470
889.9443, 1.290375
890.4264, 0.1839600
890.9085, 0.2047580
891.3906, 1.073441
891.8727, 2.395020
892.3549, 2.719543
892.8370, 2.370239
893.3191, 2.019089
893.8012, 1.782959
894.2833, 1.693192
894.7654, 1.939133
895.2476, 2.206329
895.7297, 2.119034
896.2118, 1.906631
896.6939, 2.147049
897.1760, 2.605652
897.6581, 3.156830
898.1403, 3.422394
898.6224, 3.416611
899.1045, 2.269150
899.5866, 2.643616
900.0687, 2.435379
900.5508, 2.217804
901.0330, 2.858795
901.5151, 1.974167
901.9972, 2.638428
902.4793, 2.713257
902.9614, 3.083191
903.4435, 2.869049
903.9257, 2.861038
904.4078, 3.478958
904.8899, 3.779251
905.3720, 3.571182
905.8541, 4.077011
906.3362, 3.017120
906.8184, 3.007126
907.3005, 2.987656
907.7826, 3.155930
908.2647, 3.893188
908.7468, 4.436813
909.2289, 4.246033
909.7111, 3.745529
910.1932, 3.418060
910.6753, 3.337616
911.1574, 3.412201
911.6395, 3.659790
912.1216, 3.927750
912.6038, 4.078537
913.0859, 4.167236
913.5680, 4.281509
914.0501, 4.458206
914.5322, 4.688171
915.0143, 4.934296
915.4965, 5.046249
915.9786, 4.719437
916.4607, 4.138870
916.9428, 4.039688
917.4249, 4.376892
917.9070, 4.521713
918.3892, 4.340439
918.8713, 4.112015
919.3534, 3.986130
919.8355, 3.961334
920.3176, 4.059875
920.7997, 4.322891
921.2819, 4.592819
921.7640, 5.018234
922.2461, 5.137680
922.7282, 4.469925
923.2103, 3.653656
923.6924, 3.677704
924.1746, 4.469803
924.6567, 4.573975
925.1388, 3.055298
925.6209, 2.065628
926.1030, 2.272354
926.5851, 2.804504
927.0673, 3.351242
927.5494, 3.729980
928.0315, 3.574509
928.5136, 2.785049
928.9957, 2.076584
929.4778, 1.902725
929.9600, 1.882828
930.4421, 1.824387
930.9242, 1.653015
931.4063, 1.032669
931.8884, 0.1290280
932.3705, 0.1607510
932.8527, 0.6769560
933.3348, 1.790680
933.8169, 2.054962
934.2990, 1.729691
934.7811, 1.464279
935.2632, 1.291107
935.7454, 1.180222
936.2275, 1.122177
936.7096, 1.076843
937.1917, 0.9632870
937.6738, 0.8432770
938.1559, 1.018387
938.6381, 1.559296
939.1202, 1.935104
939.6023, 2.048157
940.0844, 2.056015
940.5665, 2.049088
941.0486, 1.972488
941.5308, 1.734116
942.0129, 1.320633
942.4950, 0.8609310
942.9771, 8.5724004E-02
943.4592, 0.3298030
943.9413, 9.4848998E-02
944.4235, 0.5149840
944.9056, 0.3678280
945.3877, 0.1626890
945.8698, 0.7389830
946.3519, 1.406784
946.8340, 1.622635
947.3162, 0.9665680
947.7983, 0.1851650
948.2804, 0.5924380
948.7625, 1.104843
949.2446, 0.9531250
949.7267, 0.2664490
950.2089, 0.3595890
950.6910, 0.7429350
951.1731, 0.7357180
951.6552, 0.1715240
952.1373, 1.247482
952.6194, 1.427811
953.1016, 1.021378
953.5837, 1.057358
954.0658, 1.733978
954.5479, 2.101486
955.0300, 1.192841
955.5121, 0.1201320
955.9943, 4.0665001E-02
956.4763, 1.048874
956.9584, 1.599182
957.4406, 1.475510
957.9227, 1.266342
958.4048, 1.232040
958.8869, 1.381104
959.3690, 1.756729
959.8511, 2.323929
960.3333, 2.868591
960.8154, 3.442535
961.2975, 3.549057
961.7796, 2.994385
962.2617, 2.290329
962.7438, 1.682053
963.2260, 1.256882
963.7081, 1.252991
964.1902, 1.806335
964.6723, 2.027573
965.1544, 1.412399
965.6365, 1.321121
966.1187, 2.904312
966.6008, 4.316498
967.0829, 3.602585
967.5650, 1.610550
968.0471, 1.059891
968.5292, 2.879669
969.0114, 4.067322
969.4935, 3.720993
969.9756, 3.251297
970.4577, 3.196899
970.9398, 3.400238
971.4219, 3.704361
971.9041, 4.070709
972.3862, 4.492981
972.8683, 5.166977
973.3504, 5.443405
973.8325, 4.499664
974.3146, 3.455917
974.7968, 3.270569
975.2789, 3.749084
975.7610, 4.747238
976.2431, 6.015854
976.7252, 6.451309
977.2073, 4.827377
977.6895, 2.965546
978.1716, 3.180878
978.6537, 4.361740
979.1358, 4.390945
979.6179, 3.512299
980.1000, 3.510254
980.5822, 4.983932
981.0643, 6.522125
981.5464, 6.620483
982.0285, 5.862457
982.5106, 5.589218
982.9927, 5.686890
983.4749, 5.516281
983.9570, 5.020279
984.4391, 4.786636
984.9212, 5.135620
985.4033, 5.789780
985.8854, 6.423950
986.3676, 6.999237
986.8497, 7.049973
987.3318, 6.504074
987.8139, 6.326279
988.2960, 6.779678
988.7781, 7.241943
989.2603, 7.273529
989.7424, 7.122726
990.2245, 7.371948
990.7066, 8.154114
991.1887, 8.187408
991.6708, 6.906647
992.1530, 6.308975
992.6351, 7.309891
993.1172, 8.440384
993.5993, 8.442932
994.0814, 7.738968
994.5635, 7.655304
995.0457, 8.526321
995.5278, 9.069305
996.0099, 8.998184
996.4920, 8.974411
996.9741, 9.217575
997.4562, 9.525864
997.9384, 9.749176
998.4205, 9.891815
998.9026, 9.964050
999.3847, 9.829056
999.8668, 9.981308
1000.349, 10.58434
1000.831, 11.41757
1001.313, 12.94131
1001.795, 14.24852
1002.277, 13.96919
1002.760, 12.45183
1003.242, 11.65767
1003.724, 12.52568
1004.206, 13.34145
1004.688, 13.11934
1005.170, 12.79985
1005.652, 13.02151
1006.134, 13.63095
1006.616, 14.49994
1007.099, 15.49620
1007.581, 16.21811
1008.063, 16.39609
1008.545, 16.40236
1009.027, 16.40308
1009.509, 16.52893
1009.991, 17.03749
1010.473, 17.73518
1010.956, 18.16182
1011.438, 18.24231
1011.920, 18.29822
1012.402, 18.53424
1012.884, 18.87851
1013.366, 19.23000
1013.848, 19.63257
1014.330, 20.28954
1014.812, 21.09116
1015.295, 21.62816
1015.777, 21.76930
1016.259, 21.82431
1016.741, 22.04636
1017.223, 22.29529
1017.705, 22.23241
1018.187, 21.98129
1018.669, 22.01689
1019.151, 22.34875
1019.634, 22.64946
1020.116, 22.75618
1020.598, 22.87238
1021.080, 23.28490
1021.562, 23.70413
1022.044, 22.96381
1022.526, 21.26166
1023.008, 20.88599
1023.491, 22.06314
1023.973, 23.20274
1024.455, 23.64755
1024.937, 23.70374
1025.419, 23.68512
1025.901, 23.60684
1026.383, 23.57869
1026.865, 23.63235
1027.348, 23.33910
1027.830, 22.50156
1028.312, 22.19518
1028.794, 23.07460
1029.276, 24.12802
1029.758, 24.00497
1030.240, 22.91095
1030.722, 22.48615
1031.204, 22.83987
1031.687, 23.48756
1032.169, 24.63318
1032.651, 25.24310
1033.133, 24.65950
1033.615, 23.61113
1034.097, 23.00822
1034.579, 22.81531
1035.061, 22.50668
1035.543, 21.96306
1036.026, 21.61090
1036.508, 21.47737
1036.990, 21.64342
1037.472, 22.28442
1037.954, 22.93314
1038.436, 22.98082
1038.918, 22.42804
1039.400, 21.18483
1039.883, 18.31192
1040.365, 16.54106
1040.847, 16.74283
1041.329, 17.13162
1041.811, 17.14546
1042.293, 16.84291
1042.775, 16.18839
1043.257, 15.15096
1043.740, 13.79915
1044.222, 11.53043
1044.704, 9.889893
1045.186, 9.378082
1045.668, 9.040253
1046.150, 8.518845
1046.632, 7.958527
1047.114, 7.400055
1047.596, 6.818634
1048.078, 6.445999
1048.561, 6.711792
1049.043, 6.598282
1049.525, 5.449799
1050.007, 4.524368
1050.489, 4.728821
1050.971, 5.252670
1051.453, 4.978531
1051.935, 3.992401
1052.418, 3.454803
1052.900, 3.949051
1053.382, 4.224258
1053.864, 3.900803
1054.346, 3.444794
1054.828, 3.102783
1055.310, 2.756393
1055.792, 2.115204
1056.275, 1.275208
1056.757, 0.8904110
1057.239, 1.333282
1057.721, 1.764069
1058.203, 1.944260
1058.685, 2.067688
1059.167, 2.270172
1059.649, 2.448563
1060.131, 2.479706
1060.614, 2.368301
1061.096, 2.191559
1061.578, 1.998459
1062.060, 1.671738
1062.542, 0.7232210
1063.024, 0.1494290
1063.506, 1.053879
1063.988, 2.261246
1064.470, 2.248093
1064.953, 1.265198
1065.435, 0.7414400
1065.917, 1.258270
1066.399, 1.651779
1066.881, 1.168549
1067.363, 0.7770540
1067.845, 1.325256
1068.327, 2.041534
1068.810, 1.947479
1069.292, 1.227097
1069.774, 0.7827910
1070.256, 0.9442140
1070.738, 0.9401400
1071.220, 0.1451420
1071.702, 0.5949860
1072.184, 0.9001770
1072.667, 0.7838130
1073.149, 1.9774999E-02
1073.631, 1.166229
1074.113, 1.809158
1074.595, 1.720566
1075.077, 1.394547
1075.559, 0.9062810
1076.041, 0.4226530
1076.523, 0.2034300
1077.005, 0.5938570
1077.488, 0.1170650
1077.970, 0.8200990
1078.452, 1.236725
1078.934, 0.8967440
1079.416, 0.5945130
1079.898, 0.6613160
1080.380, 0.8895570
1080.862, 1.435272
1081.344, 1.873718
1081.827, 1.714142
1082.309, 1.183411
1082.791, 0.7164310
1083.273, 0.4017180
1083.755, 0.1398160
1084.237, 0.2083590
1084.719, 0.3686370
1085.201, 3.4697998E-02
1085.684, 0.4050900
1086.166, 0.6337590
1086.648, 0.6898800
1087.130, 0.7229000
1087.612, 0.7511750
1088.094, 0.6510620
1088.576, 0.2343140
1089.058, 3.0913999E-02
1089.541, 0.2505800
1090.023, 0.5386660
1090.505, 0.3103640
1090.987, 4.4449002E-02
1091.469, 7.2708003E-02
1091.951, 0.6101990
1092.433, 1.032745
1092.915, 1.240112
1093.397, 1.113205
1093.880, 1.6357001E-02
1094.362, 0.7712710
1094.844, 0.2034000
1095.326, 1.576691
1095.808, 1.801132
1096.290, 1.085846
1096.772, 0.5285800
1097.254, 0.3980710
1097.736, 0.4024050
1098.219, 0.7520900
1098.701, 0.8213040
1099.183, 5.1971000E-02
1099.665, 0.9891360
1100.147, 1.212723
1100.629, 0.8769230
1101.111, 0.4279940
1101.593, 6.5582000E-02
1102.076, 0.6628720
1102.558, 2.030441
1103.040, 2.622726
1103.522, 1.164597
1104.004, 0.4751590
1104.486, 1.073288
1104.968, 0.8959810
1105.450, 0.2801670
1105.932, 0.6913760
1106.415, 1.182266
1106.897, 0.6255040
1107.379, 0.1807100
1107.861, 3.1189000E-02
1108.343, 9.6313000E-02
1108.825, 0.5562130
1109.307, 1.044785
1109.789, 1.029770
1110.271, 0.5960390
1110.754, 0.4758760
1111.236, 0.9799040
1111.718, 1.298843
1112.200, 1.176147
1112.682, 1.114288
1113.164, 1.463470
1113.646, 1.803345
1114.128, 1.696884
1114.611, 1.272964
1115.093, 0.9648740
1115.575, 0.7825320
1116.057, 0.6918330
1116.539, 0.6939700
1117.021, 0.7903750
1117.503, 1.137192
1117.985, 1.391953
1118.468, 1.184113
1118.950, 0.8247830
1119.432, 0.9790500
1119.914, 1.720367
1120.396, 2.026062
1120.878, 1.768555
1121.360, 1.307068
1121.842, 0.3718110
1122.324, 0.1572570
1122.807, 0.3968510
1123.289, 1.233536
1123.771, 1.251724
1124.253, 0.5971370
1124.735, 0.5130310
1125.217, 1.147217
1125.699, 1.920776
1126.181, 3.065048
1126.663, 3.481689
1127.146, 2.587143
1127.628, 1.357986
1128.110, 0.5952450
1128.592, 0.3084720
1129.074, 0.6887820
1129.556, 1.851013
1130.038, 2.010071
1130.520, 0.9777220
1131.003, 0.5648960
1131.485, 1.242935
1131.967, 1.858948
1132.449, 1.650284
1132.931, 1.047714
1133.413, 0.7169490
1133.895, 0.6461030
1134.377, 0.7796940
1134.859, 1.095047
1135.342, 1.193497
1135.824, 1.009247
1136.306, 1.178131
1136.788, 1.999100
1137.270, 2.610809
1137.752, 1.988678
1138.234, 0.7466580
1138.716, 0.3945470
1139.198, 0.7539060
1139.681, 1.122192
1140.163, 1.443878
1140.645, 1.821945
1141.127, 2.237503
1141.609, 2.192459
1142.091, 1.275909
1142.573, 0.1692500
1143.055, 0.2274020
1143.538, 5.7785001E-02
1144.020, 0.6754910
1144.502, 1.653351
1144.984, 2.040268
1145.466, 1.823944
1145.948, 1.480118
1146.430, 1.225845
1146.912, 1.246857
1147.395, 1.964310
1147.877, 2.786957
1148.359, 3.170410
1148.841, 3.143219
1149.323, 2.455872
1149.805, 1.526840
1150.287, 1.279999
1150.769, 1.854294
1151.251, 2.594269
1151.734, 3.342026
1152.216, 3.617859
1152.698, 2.809875
1153.180, 1.886749
1153.662, 1.750107
1154.144, 1.977051
1154.626, 1.918701
1155.108, 1.646118
1155.590, 1.740982
1156.073, 2.477097
1156.555, 2.794250
1157.037, 1.816071
1157.519, 0.9425960
1158.001, 0.9173280
1158.483, 1.193024
1158.965, 1.507309
1159.447, 1.726517
1159.930, 1.507141
1160.412, 0.8268430
1160.894, 0.6381840
1161.376, 1.759811
1161.858, 2.191238
1162.340, 1.200836
1162.822, 0.3052060
1163.304, 5.0522000E-02
1163.786, 0.1732180
1164.269, 0.5037380
1164.751, 0.9382930
1165.233, 1.071884
1165.715, 0.7565920
1166.197, 0.9100650
1166.679, 1.954163
1167.161, 2.249252
1167.643, 1.168289
1168.125, 9.2651002E-02
1168.608, 0.1731260
1169.090, 8.5495003E-02
1169.572, 0.4669650
1170.054, 0.9401700
1170.536, 1.301376
1171.018, 1.558151
1171.500, 1.491425
1171.982, 1.065109
1172.465, 0.7833860
1172.947, 0.8184360
1173.429, 1.093170
1173.911, 1.585831
1174.393, 2.089874
1174.875, 2.213852
1175.357, 2.015106
1175.839, 1.572540
1176.322, 1.001251
1176.804, 0.8110200
1177.286, 1.036530
1177.768, 1.268127
1178.250, 1.319809
1178.732, 1.473053
1179.214, 2.133743
1179.696, 2.835831
1180.178, 2.853149
1180.661, 2.645950
1181.143, 2.954819
1181.625, 3.500107
1182.107, 3.518829
1182.589, 2.958618
1183.071, 2.397171
1183.553, 2.040878
1184.035, 1.926880
1184.517, 2.336029
1185.000, 2.695587
1185.482, 2.405975
1185.964, 2.016617
1186.446, 2.191910
1186.928, 2.777634
1187.410, 3.293503
1187.892, 3.645004
1188.374, 3.842041
1188.857, 3.894440
1189.339, 3.795959
1189.821, 3.545517
1190.303, 3.120117
1190.785, 2.146942
1191.267, 1.262878
1191.749, 1.327469
1192.231, 2.064636
1192.714, 2.361084
1193.196, 2.075882
1193.678, 1.877686
1194.160, 1.883698
1194.642, 1.616348
1195.124, 0.7623900
1195.606, 0.2857060
1196.088, 0.8482210
1196.570, 1.764191
1197.052, 2.126907
1197.535, 1.993881
1198.017, 1.581543
1198.499, 0.8977510
1198.981, 0.2759550
1199.463, 0.2463070
1199.945, 0.2145080
1200.427, 0.4450070
1200.909, 0.9959260
1201.392, 0.9717250
1201.874, 0.7198940
1202.356, 0.5290680
1202.838, 0.5276640
1203.320, 1.349792
1203.802, 2.462936
1204.284, 2.503769
1204.766, 1.658142
1205.249, 0.9879000
1205.731, 0.8321840
1206.213, 0.9282230
1206.695, 1.119507
1207.177, 1.495346
1207.659, 2.485001
1208.141, 3.296707
1208.623, 2.988220
1209.105, 2.269943
1209.588, 2.110764
1210.070, 2.381104
1210.552, 2.316315
1211.034, 1.703125
1211.516, 1.322754
1211.998, 1.628922
1212.480, 1.782166
1212.962, 1.231277
1213.444, 0.8895570
1213.927, 1.677002
1214.409, 2.549500
1214.891, 2.109665
1215.373, 0.7954560
1215.855, 0.6974640
1216.337, 2.288528
1216.819, 3.005310
1217.301, 2.675613
1217.784, 2.011658
1218.266, 0.9938660
1218.748, 0.4999540
1219.230, 1.121033
1219.712, 2.015503
1220.194, 2.112625
1220.676, 1.620255
1221.158, 1.162491
1221.641, 0.7787480
1222.123, 0.5614780
1222.605, 0.5579990
1223.087, 1.195984
1223.569, 2.347580
1224.051, 2.750977
1224.533, 1.619339
1225.015, 0.4263610
1225.497, 0.9802090
1225.979, 1.964233
1226.462, 1.719223
1226.944, 1.047623
1227.426, 1.099823
1227.908, 1.558838
1228.390, 1.510880
1228.872, 0.9023740
1229.354, 0.5536960
1229.836, 0.8004150
1230.319, 1.149124
1230.801, 1.637756
1231.283, 1.923935
1231.765, 1.635605
1232.247, 1.314697
1232.729, 1.436340
1233.211, 1.794266
1233.693, 2.017288
1234.176, 2.107941
1234.658, 2.114578
1235.140, 2.054245
1235.622, 1.800995
1236.104, 1.206909
1236.586, 0.9501500
1237.068, 1.299088
1237.550, 1.618179
1238.032, 1.391464
1238.515, 0.9692990
1238.997, 0.9121400
1239.479, 1.195068
1239.961, 1.823151
1240.443, 2.543640
1240.925, 1.999527
1241.407, 0.4969020
1241.889, 0.1067200
1242.371, 1.245605
1242.854, 2.221329
1243.336, 1.948074
1243.818, 1.390656
1244.300, 1.463165
1244.782, 1.681213
1245.264, 1.578033
1245.746, 1.337738
1246.228, 1.230179
1246.711, 1.165619
1247.193, 0.7611850
1247.675, 6.0577001E-02
1248.157, 0.1537170
1248.639, 0.6937870
1249.121, 1.248779
1249.603, 1.005005
1250.085, 0.7818910
1250.568, 0.9290920
1251.050, 1.081314
1251.532, 0.9255220
1252.014, 0.6357270
1252.496, 0.5393680
1252.978, 0.6127010
1253.460, 0.8200840
1253.942, 1.150818
1254.424, 1.614868
1254.906, 2.228729
1255.389, 2.442734
1255.871, 2.110596
1256.353, 1.439194
1256.835, 0.5303500
1257.317, 0.2197880
1257.799, 0.2470700
1258.281, 0.1643830
1258.763, 0.6019740
1259.246, 1.027008
1259.728, 1.347351
1260.210, 1.537109
1260.692, 1.640472
1261.174, 1.654465
1261.656, 1.679596
1262.138, 1.788986
1262.620, 1.732773
1263.103, 1.231506
1263.585, 0.7082670
1264.067, 0.1832120
1264.549, 5.1589999E-02
1265.031, 0.4229580
1265.513, 1.206497
1265.995, 1.911423
1266.477, 2.482162
1266.959, 2.546356
1267.442, 1.968689
1267.924, 1.302109
1268.406, 0.5216060
1268.888, 0.2344360
1269.370, 0.5143740
1269.852, 0.8357540
1270.334, 0.9407960
1270.816, 1.035599
1271.298, 1.308563
1271.781, 1.627777
1272.263, 1.901749
1272.745, 2.019501
1273.227, 1.764420
1273.709, 1.292450
1274.191, 1.415817
1274.673, 1.971863
1275.155, 1.959686
1275.638, 1.060715
1276.120, 0.2924500
1276.602, 2.0645000E-02
1277.084, 0.3219150
1277.566, 1.144974
1278.048, 0.0000000E+00
##END=



