##NAMES=Gehlenite
##RRUFFID=R061091
##IDEAL CHEMISTRY=Ca_2_Al(SiAl)O_7_
##LOCALITY=Carneal Plug, Glenoe Larne District, County Antrim, Northern Ireland
##OWNER=RRUFF
##SOURCE=Michael Scott
##DESCRIPTION=Yellowish-brown anhedral blebs associated with black magnetite and white wollastonite
##STATUS=The identification of this mineral is confirmed by single-crystal X-ray diffraction and chemical analysis.
##URL=rruff.info/R061091
##MEASURED CHEMISTRY=(Ca_1.64_Na_0.36_)_Σ=2_(Al_0.38_Fe_0.36_Mg_0.26_)_Σ=1_(Si_1.98_Al_0.02_)_Σ=2_O_7_
137.0571, 0.0000000E+00
137.5392, 0.7963870
138.0213, 2.455322
138.5035, 11.35852
138.9856, 17.87573
139.4677, 21.63928
139.9498, 21.70728
140.4319, 5.021851
140.9140, 0.2846680
141.3961, 34.42126
141.8783, 107.0854
142.3604, 186.5227
142.8425, 247.9077
143.3246, 292.4207
143.8067, 343.9324
144.2888, 411.7451
144.7710, 484.4034
145.2531, 557.4443
145.7352, 612.7930
146.2173, 635.5833
146.6994, 624.9409
147.1815, 596.5588
147.6637, 574.8579
148.1458, 570.5918
148.6279, 568.4526
149.1100, 558.8281
149.5921, 540.8689
150.0742, 522.5676
150.5564, 515.1213
151.0385, 521.8513
151.5206, 520.5261
152.0027, 502.1443
152.4848, 478.2521
152.9669, 452.0221
153.4491, 424.7244
153.9312, 399.7150
154.4133, 384.2239
154.8954, 383.7371
155.3775, 373.7562
155.8596, 340.4398
156.3418, 304.3354
156.8239, 278.8590
157.3060, 266.8811
157.7881, 261.6698
158.2702, 252.9866
158.7523, 238.4841
159.2345, 226.0752
159.7166, 214.2721
160.1987, 205.7245
160.6808, 203.9847
161.1629, 209.5510
161.6451, 217.8281
162.1272, 221.2739
162.6093, 219.5389
163.0914, 214.1832
163.5735, 202.3862
164.0556, 194.8785
164.5378, 196.4941
165.0199, 206.5514
165.5020, 219.4448
165.9841, 222.8137
166.4662, 209.7902
166.9483, 199.9547
167.4305, 195.9116
167.9126, 191.0576
168.3947, 187.3879
168.8768, 187.9509
169.3589, 188.8311
169.8410, 181.8892
170.3232, 164.4011
170.8053, 151.1437
171.2874, 143.2677
171.7695, 138.5953
172.2516, 135.2437
172.7337, 132.4978
173.2159, 130.6117
173.6980, 130.3196
174.1801, 135.5941
174.6622, 136.5029
175.1443, 130.0887
175.6264, 120.7920
176.1085, 113.0339
176.5907, 108.2499
177.0728, 104.1241
177.5549, 96.08362
178.0370, 74.84546
178.5191, 62.72827
179.0012, 65.62305
179.4834, 74.65417
179.9655, 82.41357
180.4476, 86.36450
180.9297, 86.70752
181.4118, 83.67664
181.8939, 72.28967
182.3761, 64.81140
182.8582, 64.10437
183.3403, 66.03259
183.8224, 65.96399
184.3045, 62.51953
184.7866, 58.64734
185.2688, 59.70227
185.7509, 73.19128
186.2330, 79.23035
186.7151, 73.61450
187.1972, 62.33447
187.6793, 51.30542
188.1615, 42.16504
188.6436, 32.89722
189.1257, 19.85425
189.6078, 1.900146
190.0899, 17.83972
190.5720, 26.95886
191.0542, 30.52527
191.5363, 29.04907
192.0184, 22.74561
192.5005, 13.17920
192.9826, 2.215088
193.4647, 12.60754
193.9469, 23.12000
194.4290, 29.43311
194.9111, 30.61218
195.3932, 25.59094
195.8753, 14.45129
196.3574, 1.188843
196.8396, 9.231812
197.3217, 17.68164
197.8038, 19.35303
198.2859, 5.421509
198.7680, 10.46765
199.2501, 14.32227
199.7323, 3.758423
200.2144, 11.56506
200.6965, 20.87915
201.1786, 23.50073
201.6607, 19.12695
202.1428, 1.564087
202.6250, 19.64160
203.1071, 37.61987
203.5892, 51.28540
204.0713, 57.62207
204.5534, 51.29639
205.0355, 25.83765
205.5177, 14.63977
205.9998, 28.46863
206.4819, 48.56421
206.9640, 61.91809
207.4461, 65.96545
207.9282, 68.62549
208.4104, 78.07739
208.8925, 96.29297
209.3746, 103.7784
209.8567, 90.43542
210.3388, 74.17871
210.8209, 65.84204
211.3030, 66.25098
211.7852, 71.96143
212.2673, 80.51965
212.7494, 92.14917
213.2315, 105.8206
213.7136, 126.6466
214.1957, 145.0083
214.6779, 152.8457
215.1600, 151.8956
215.6421, 152.1315
216.1242, 162.1770
216.6063, 181.4917
217.0884, 192.0364
217.5706, 190.9407
218.0527, 185.5175
218.5348, 173.8949
219.0169, 159.7017
219.4990, 154.4971
219.9811, 167.8279
220.4633, 196.8260
220.9454, 213.1786
221.4275, 205.0906
221.9096, 199.4110
222.3917, 211.8212
222.8738, 234.6448
223.3560, 248.7297
223.8381, 242.3859
224.3202, 220.0114
224.8023, 203.2754
225.2844, 192.7104
225.7665, 185.8711
226.2487, 183.7345
226.7308, 184.7826
227.2129, 186.8701
227.6950, 189.1860
228.1771, 191.2955
228.6592, 191.8098
229.1414, 192.1417
229.6235, 189.2500
230.1056, 178.8567
230.5877, 166.1409
231.0698, 158.7860
231.5519, 159.8215
232.0341, 164.9740
232.5162, 165.2227
232.9983, 156.1122
233.4804, 148.6516
233.9625, 143.7462
234.4446, 140.4130
234.9268, 138.9602
235.4089, 139.2532
235.8910, 138.0225
236.3731, 129.4624
236.8552, 104.5079
237.3373, 91.16101
237.8195, 101.5822
238.3016, 115.3564
238.7837, 114.8441
239.2658, 97.93860
239.7479, 76.27283
240.2300, 63.60950
240.7122, 62.66333
241.1943, 62.86487
241.6764, 64.52747
242.1585, 66.90100
242.6406, 69.63489
243.1227, 72.66516
243.6049, 76.32666
244.0870, 81.51233
244.5691, 89.19385
245.0512, 90.34973
245.5333, 80.74500
246.0154, 69.80029
246.4975, 59.59326
246.9797, 51.16211
247.4618, 46.23364
247.9439, 46.37317
248.4260, 51.47644
248.9081, 50.78210
249.3902, 37.81702
249.8724, 26.67773
250.3545, 19.54028
250.8366, 16.78101
251.3187, 18.82751
251.8008, 26.38745
252.2829, 37.77808
252.7651, 45.50696
253.2472, 48.26819
253.7293, 48.43298
254.2114, 44.40808
254.6935, 38.35730
255.1756, 33.07410
255.6578, 30.09082
256.1399, 29.23022
256.6220, 28.23987
257.1041, 26.98132
257.5862, 24.93726
258.0684, 20.89099
258.5505, 16.09082
259.0326, 11.09021
259.5147, 6.503784
259.9968, 8.519165
260.4789, 7.457031
260.9611, 16.18970
261.4432, 18.07397
261.9253, 7.438110
262.4074, 2.438477
262.8895, 1.861572
263.3716, 6.740967
263.8537, 8.124878
264.3358, 13.38721
264.8180, 1.169312
265.3001, 1.333496
265.7822, 8.091309
266.2643, 0.5837400
266.7464, 2.512817
267.2285, 9.903076
267.7107, 21.74963
268.1928, 20.47034
268.6749, 8.614380
269.1570, 4.438110
269.6391, 13.56128
270.1212, 22.26636
270.6034, 25.11951
271.0855, 23.57068
271.5676, 19.75610
272.0497, 13.83020
272.5318, 7.022827
273.0139, 1.739624
273.4961, 2.538208
273.9782, 3.805298
274.4603, 1.759277
274.9424, 3.869019
275.4245, 15.33740
275.9066, 35.95178
276.3888, 56.03113
276.8709, 63.31934
277.3530, 57.26782
277.8351, 48.40820
278.3172, 34.38855
278.7993, 23.62195
279.2815, 27.80359
279.7636, 50.61658
280.2457, 71.01807
280.7278, 70.00732
281.2099, 52.64978
281.6920, 42.85046
282.1742, 48.28772
282.6563, 59.39600
283.1384, 66.71460
283.6205, 70.51111
284.1026, 71.06067
284.5847, 65.93250
285.0669, 58.35583
285.5490, 52.45630
286.0311, 48.22974
286.5132, 49.27747
286.9953, 62.69812
287.4774, 86.46326
287.9596, 103.8029
288.4417, 105.2251
288.9238, 104.2239
289.4059, 115.6614
289.8880, 138.6401
290.3701, 157.0015
290.8523, 158.6819
291.3344, 146.4495
291.8165, 140.0031
292.2986, 140.5695
292.7807, 144.9657
293.2628, 155.0308
293.7450, 167.9436
294.2271, 175.4117
294.7092, 171.9618
295.1913, 164.7277
295.6734, 174.2339
296.1555, 219.1040
296.6377, 251.8274
297.1198, 260.1483
297.6019, 255.9043
298.0840, 251.0524
298.5661, 249.3168
299.0482, 250.2736
299.5304, 252.6659
300.0125, 257.2084
300.4946, 260.0139
300.9767, 258.6112
301.4588, 257.9318
301.9409, 263.2897
302.4231, 273.3890
302.9052, 280.9589
303.3873, 278.4215
303.8694, 264.8553
304.3515, 257.9705
304.8336, 263.4270
305.3158, 269.9950
305.7979, 278.0835
306.2800, 284.6903
306.7621, 283.8619
307.2442, 270.5325
307.7263, 249.8425
308.2085, 239.1716
308.6906, 248.8796
309.1727, 252.6089
309.6548, 238.7019
310.1369, 219.4171
310.6190, 207.2898
311.1012, 206.3857
311.5833, 211.0018
312.0654, 213.4906
312.5475, 213.6941
313.0296, 213.3402
313.5117, 214.3960
313.9939, 213.7927
314.4760, 208.5599
314.9581, 198.6292
315.4402, 187.5992
315.9223, 179.7128
316.4044, 174.1011
316.8866, 161.3905
317.3687, 134.1774
317.8508, 110.6499
318.3329, 106.9979
318.8150, 116.8898
319.2971, 125.7007
319.7793, 129.1240
320.2614, 128.1422
320.7435, 119.8934
321.2256, 103.6964
321.7077, 89.54675
322.1898, 81.17511
322.6720, 79.24896
323.1541, 80.69836
323.6362, 88.03571
324.1183, 95.08264
324.6004, 97.42450
325.0826, 97.00696
325.5647, 98.58246
326.0468, 104.2558
326.5289, 109.4610
327.0110, 104.7742
327.4931, 87.55182
327.9753, 74.15045
328.4574, 70.15704
328.9395, 70.07971
329.4216, 68.38684
329.9037, 64.19501
330.3858, 59.42114
330.8680, 56.14215
331.3501, 54.15289
331.8322, 50.63031
332.3143, 41.18481
332.7964, 35.31464
333.2785, 41.12274
333.7606, 53.94330
334.2427, 62.15198
334.7249, 58.27399
335.2070, 45.46375
335.6891, 37.23950
336.1712, 38.85626
336.6533, 38.74896
337.1354, 33.46600
337.6176, 27.88458
338.0997, 26.24390
338.5818, 29.39795
339.0639, 34.77002
339.5460, 40.29688
340.0281, 48.40887
340.5103, 50.22729
340.9924, 37.66333
341.4745, 25.28223
341.9566, 19.64294
342.4387, 20.42987
342.9208, 24.70398
343.4030, 31.13910
343.8851, 38.22650
344.3672, 41.88953
344.8493, 42.46698
345.3314, 41.21167
345.8135, 37.94617
346.2957, 33.93127
346.7778, 30.10443
347.2599, 26.51892
347.7420, 23.12256
348.2241, 18.48425
348.7062, 12.82251
349.1884, 13.20111
349.6705, 27.05371
350.1526, 43.17017
350.6347, 44.58844
351.1168, 28.77515
351.5989, 16.63147
352.0811, 22.76050
352.5632, 36.73468
353.0453, 39.29364
353.5274, 26.44989
354.0095, 11.56354
354.4916, 7.855469
354.9738, 16.24951
355.4559, 18.74048
355.9380, 8.298645
356.4201, 1.753174
356.9022, 2.716736
357.3843, 3.460999
357.8665, 10.05890
358.3486, 13.51208
358.8307, 14.27466
359.3128, 14.13562
359.7949, 11.20197
360.2770, 9.763733
360.7592, 12.38281
361.2413, 15.40295
361.7234, 14.65137
362.2055, 9.483215
362.6876, 2.870239
363.1697, 1.960999
363.6519, 6.186707
364.1340, 5.591614
364.6161, 9.825745
365.0982, 21.01825
365.5803, 16.87592
366.0624, 2.472473
366.5446, 9.510620
367.0267, 10.97516
367.5088, 4.779602
367.9909, 0.2457890
368.4730, 3.009094
368.9551, 7.354370
369.4373, 20.19690
369.9194, 32.41321
370.4015, 33.31091
370.8836, 19.07867
371.3657, 3.881836
371.8478, 2.569458
372.3300, 12.35553
372.8121, 16.01593
373.2942, 7.660339
373.7763, 3.022766
374.2584, 4.708252
374.7405, 1.140930
375.2227, 4.110168
375.7048, 3.884766
376.1869, 12.52850
376.6690, 8.785522
377.1511, 6.523193
377.6332, 20.11609
378.1154, 23.97937
378.5975, 19.61194
379.0796, 14.45160
379.5617, 3.557129
380.0438, 2.086853
380.5259, 6.083130
381.0081, 18.65015
381.4902, 22.06903
381.9723, 12.66125
382.4544, 1.264282
382.9365, 7.959167
383.4186, 5.113464
383.9008, 2.319641
384.3829, 1.513855
384.8650, 4.298706
385.3471, 4.622131
385.8292, 3.041931
386.3113, 1.123657
386.7935, 5.9199999E-03
387.2756, 0.7601930
387.7577, 3.539124
388.2398, 11.33606
388.7219, 14.75031
389.2040, 6.582031
389.6862, 4.154724
390.1683, 8.747375
390.6504, 5.150757
391.1325, 1.7700000E-02
391.6146, 1.276794
392.0967, 1.119446
392.5789, 7.733398
393.0610, 22.73560
393.5431, 34.24231
394.0252, 27.82275
394.5073, 8.201416
394.9894, 7.163330
395.4716, 14.15118
395.9537, 14.88269
396.4358, 8.326538
396.9179, 4.074951
397.4000, 13.93542
397.8821, 17.00098
398.3643, 14.81000
398.8464, 11.43469
399.3285, 6.644409
399.8106, 1.205078
400.2927, 9.667664
400.7748, 18.48334
401.2570, 13.72870
401.7391, 4.587158
402.2212, 22.12793
402.7033, 22.79181
403.1854, 4.416138
403.6675, 6.470093
404.1497, 7.346680
404.6317, 3.194885
405.1139, 10.92108
405.5960, 27.75616
406.0781, 35.75323
406.5602, 29.14136
407.0423, 15.69727
407.5244, 10.08997
408.0066, 14.43756
408.4887, 16.75330
408.9708, 11.86389
409.4529, 6.682983
409.9350, 7.212830
410.4171, 12.89801
410.8993, 16.81476
411.3814, 11.05505
411.8635, 1.710693
412.3456, 3.128906
412.8277, 17.48175
413.3098, 31.15497
413.7920, 36.52161
414.2741, 34.11731
414.7562, 28.97174
415.2383, 17.96484
415.7204, 9.615173
416.2025, 10.33716
416.6847, 15.24353
417.1668, 15.48370
417.6489, 8.601746
418.1310, 0.1629640
418.6131, 2.228638
419.0952, 3.889465
419.5774, 5.349731
420.0595, 4.531738
420.5416, 12.07074
421.0237, 10.75195
421.5058, 2.317627
421.9879, 10.17004
422.4701, 26.17896
422.9522, 42.18994
423.4343, 49.79028
423.9164, 45.65094
424.3985, 39.78516
424.8806, 33.96936
425.3628, 28.59607
425.8449, 21.59308
426.3270, 13.51514
426.8091, 10.46899
427.2912, 21.49933
427.7733, 40.75848
428.2555, 49.36316
428.7376, 43.94385
429.2197, 39.12891
429.7018, 46.13190
430.1839, 60.26331
430.6660, 69.15802
431.1482, 69.62915
431.6303, 67.81696
432.1124, 64.83069
432.5945, 63.25861
433.0766, 68.14142
433.5587, 80.52948
434.0409, 94.39563
434.5230, 103.3920
435.0051, 107.1434
435.4872, 110.0121
435.9693, 109.7572
436.4514, 110.6768
436.9336, 115.1934
437.4157, 122.1287
437.8978, 129.6198
438.3799, 137.6016
438.8620, 144.8909
439.3441, 147.8187
439.8263, 142.3957
440.3084, 143.1286
440.7905, 157.2136
441.2726, 174.5779
441.7547, 190.4763
442.2368, 204.2983
442.7190, 216.0528
443.2011, 225.6901
443.6832, 233.2241
444.1653, 238.1449
444.6474, 240.0345
445.1295, 242.3140
445.6117, 246.4869
446.0938, 251.8499
446.5759, 257.7533
447.0580, 265.5244
447.5401, 273.0970
448.0222, 277.9590
448.5044, 282.0748
448.9865, 289.1444
449.4686, 299.6053
449.9507, 309.4465
450.4328, 314.1733
450.9149, 313.5339
451.3971, 315.6321
451.8792, 324.3529
452.3613, 330.9153
452.8434, 331.7651
453.3255, 329.2457
453.8076, 327.2754
454.2898, 327.4370
454.7719, 326.7725
455.2540, 318.9150
455.7361, 302.4866
456.2182, 290.1019
456.7003, 282.0345
457.1825, 279.1370
457.6646, 286.2964
458.1467, 298.0304
458.6288, 301.5138
459.1109, 288.9525
459.5930, 271.9298
460.0752, 261.6686
460.5573, 257.1832
461.0394, 253.1768
461.5215, 248.0541
462.0036, 241.6877
462.4857, 232.2202
462.9679, 216.9521
463.4500, 210.1711
463.9321, 220.3395
464.4142, 233.3848
464.8963, 241.0599
465.3784, 242.9483
465.8606, 240.0931
466.3427, 232.5229
466.8248, 222.6558
467.3069, 218.4590
467.7890, 221.8398
468.2711, 227.6725
468.7533, 239.7142
469.2354, 250.4405
469.7175, 252.7983
470.1996, 247.8257
470.6817, 243.7601
471.1638, 247.6402
471.6460, 256.7166
472.1281, 262.4127
472.6102, 263.7107
473.0923, 267.2626
473.5744, 277.0968
474.0565, 290.8237
474.5387, 304.5336
475.0208, 320.5719
475.5029, 329.6475
475.9850, 322.2164
476.4671, 308.6183
476.9492, 303.0737
477.4313, 306.7902
477.9135, 310.6969
478.3956, 306.7650
478.8777, 296.2465
479.3598, 291.1003
479.8419, 296.7745
480.3240, 300.9642
480.8062, 299.9641
481.2883, 297.9240
481.7704, 300.9258
482.2525, 309.4004
482.7346, 315.5891
483.2167, 309.1535
483.6989, 291.2571
484.1810, 279.3575
484.6631, 276.2506
485.1452, 273.6891
485.6273, 263.7524
486.1094, 252.4268
486.5916, 250.1112
487.0737, 263.1833
487.5558, 274.5712
488.0379, 271.6716
488.5200, 259.9523
489.0021, 250.5360
489.4843, 245.7457
489.9664, 241.1602
490.4485, 231.7666
490.9306, 217.0845
491.4127, 209.0145
491.8948, 214.3663
492.3770, 217.3165
492.8591, 213.4759
493.3412, 204.8609
493.8233, 191.9013
494.3054, 175.5017
494.7875, 161.7864
495.2697, 160.7164
495.7518, 173.0564
496.2339, 179.8173
496.7160, 176.6324
497.1981, 174.0389
497.6802, 182.2300
498.1624, 193.6674
498.6445, 194.0252
499.1266, 174.1891
499.6087, 154.3958
500.0908, 151.8104
500.5729, 160.8879
501.0551, 168.4597
501.5372, 171.6944
502.0193, 171.9993
502.5014, 170.6938
502.9835, 167.5085
503.4656, 162.5728
503.9478, 152.4487
504.4299, 144.7756
504.9120, 142.2867
505.3941, 143.5372
505.8762, 148.5244
506.3583, 156.9503
506.8405, 164.9930
507.3226, 166.6396
507.8047, 161.0270
508.2868, 157.2350
508.7689, 155.5891
509.2510, 156.2239
509.7332, 158.2104
510.2153, 162.0497
510.6974, 170.0664
511.1795, 185.4225
511.6616, 198.1191
512.1437, 197.3963
512.6259, 189.8555
513.1080, 191.9871
513.5901, 207.4428
514.0722, 221.3127
514.5543, 217.3744
515.0364, 194.5184
515.5186, 182.5334
516.0007, 190.8194
516.4828, 198.8800
516.9649, 202.0315
517.4470, 201.5254
517.9291, 197.9750
518.4113, 191.8003
518.8934, 186.1925
519.3755, 184.6820
519.8576, 187.1885
520.3397, 192.7445
520.8218, 205.0054
521.3040, 212.6030
521.7861, 205.5903
522.2682, 192.4252
522.7503, 183.5964
523.2324, 180.0080
523.7145, 178.6105
524.1967, 175.2883
524.6788, 174.1116
525.1609, 186.4714
525.6430, 212.2489
526.1251, 230.4583
526.6072, 222.3207
527.0894, 192.1899
527.5715, 178.7429
528.0536, 205.4408
528.5357, 219.9310
529.0178, 209.9622
529.4999, 191.4827
529.9821, 175.5287
530.4642, 163.9127
530.9463, 155.0250
531.4284, 148.5516
531.9105, 143.8240
532.3926, 136.9578
532.8748, 126.5068
533.3569, 123.0370
533.8390, 136.1461
534.3211, 154.7787
534.8032, 160.3281
535.2853, 150.1387
535.7675, 140.5191
536.2496, 134.1342
536.7317, 131.4239
537.2138, 135.8488
537.6959, 144.9337
538.1780, 149.3991
538.6602, 143.2682
539.1423, 131.6165
539.6244, 128.9304
540.1065, 142.2781
540.5886, 148.2595
541.0707, 140.5167
541.5529, 129.3179
542.0350, 116.9811
542.5171, 105.4272
542.9992, 98.90436
543.4813, 100.3855
543.9634, 106.5589
544.4456, 115.9655
544.9277, 127.3786
545.4098, 132.5529
545.8919, 128.1986
546.3740, 119.6307
546.8561, 112.7050
547.3383, 107.6752
547.8204, 102.9913
548.3025, 98.92749
548.7846, 94.90552
549.2667, 92.41272
549.7488, 89.23010
550.2310, 79.93134
550.7131, 63.43207
551.1952, 48.49524
551.6773, 49.80347
552.1594, 67.57568
552.6415, 72.93085
553.1237, 58.76947
553.6058, 45.24805
554.0879, 44.93817
554.5700, 51.21967
555.0521, 55.04913
555.5342, 55.00433
556.0164, 53.44135
556.4985, 51.11835
556.9806, 48.17212
557.4627, 45.36304
557.9448, 42.47864
558.4269, 36.66504
558.9091, 24.70923
559.3912, 9.580872
559.8733, 5.897278
560.3554, 23.19348
560.8375, 36.00867
561.3196, 44.89478
561.8018, 46.77460
562.2839, 36.30841
562.7660, 15.93585
563.2481, 4.365540
563.7302, 20.43817
564.2123, 31.68878
564.6945, 35.28351
565.1766, 31.89557
565.6587, 29.24493
566.1408, 30.29382
566.6229, 31.82086
567.1050, 29.81085
567.5872, 23.71143
568.0693, 16.34552
568.5514, 2.259644
569.0335, 7.255798
569.5156, 4.835144
569.9977, 4.512512
570.4799, 14.85059
570.9620, 23.76807
571.4441, 28.59137
571.9262, 22.95526
572.4083, 7.372009
572.8904, 1.069946
573.3726, 8.070129
573.8547, 15.60840
574.3368, 18.28265
574.8189, 16.85095
575.3010, 11.93610
575.7831, 2.054688
576.2653, 6.694885
576.7474, 13.06445
577.2295, 16.42230
577.7116, 15.57239
578.1937, 10.83032
578.6758, 2.662598
579.1580, 9.466492
579.6401, 21.88776
580.1222, 22.25024
580.6042, 2.899719
581.0864, 9.435791
581.5685, 7.193665
582.0506, 1.549927
582.5327, 3.197205
583.0148, 6.814209
583.4969, 9.987427
583.9791, 14.65845
584.4612, 16.44611
584.9433, 6.576416
585.4254, 9.585510
585.9075, 14.56091
586.3896, 3.828674
586.8718, 9.568665
587.3539, 12.81842
587.8360, 6.029419
588.3181, 7.8739999E-03
588.8002, 6.318115
589.2823, 10.58075
589.7645, 10.32776
590.2466, 9.203552
590.7287, 11.38910
591.2108, 16.90259
591.6929, 21.24371
592.1750, 18.82043
592.6572, 13.78027
593.1393, 16.69891
593.6214, 27.50598
594.1035, 36.04962
594.5856, 37.31561
595.0677, 36.65491
595.5499, 42.53790
596.0320, 57.22955
596.5141, 68.48566
596.9962, 74.21844
597.4783, 78.33997
597.9604, 80.90009
598.4426, 83.67169
598.9247, 90.54382
599.4068, 102.5042
599.8889, 113.3899
600.3710, 113.5198
600.8531, 104.4540
601.3353, 102.2475
601.8174, 107.9713
602.2995, 118.6698
602.7816, 135.2480
603.2637, 154.8149
603.7458, 171.3853
604.2280, 184.5226
604.7101, 196.4857
605.1922, 207.7146
605.6743, 218.1397
606.1564, 225.8286
606.6385, 232.6384
607.1207, 243.7649
607.6028, 262.1158
608.0849, 284.0917
608.5670, 302.4722
609.0491, 316.5255
609.5313, 334.2648
610.0134, 358.2051
610.4955, 382.9467
610.9776, 404.3044
611.4597, 424.2913
611.9418, 446.0754
612.4240, 467.5667
612.9061, 496.1942
613.3882, 541.6487
613.8703, 592.5511
614.3524, 635.5152
614.8345, 669.3810
615.3167, 696.8052
615.7988, 718.0321
616.2809, 739.2910
616.7630, 781.3483
617.2451, 851.2919
617.7272, 919.9055
618.2094, 986.7329
618.6915, 1048.537
619.1736, 1102.237
619.6557, 1149.897
620.1378, 1197.628
620.6199, 1242.370
621.1021, 1294.328
621.5842, 1366.990
622.0663, 1449.706
622.5484, 1523.254
623.0305, 1585.441
623.5126, 1649.277
623.9948, 1727.173
624.4769, 1813.816
624.9590, 1876.523
625.4411, 1901.049
625.9232, 1932.779
626.4053, 1993.719
626.8875, 2052.258
627.3696, 2084.167
627.8517, 2093.837
628.3338, 2104.991
628.8159, 2138.772
629.2980, 2163.709
629.7802, 2148.391
630.2623, 2106.488
630.7444, 2065.142
631.2265, 2030.175
631.7086, 1994.923
632.1907, 1954.098
632.6729, 1907.686
633.1550, 1850.548
633.6371, 1773.893
634.1192, 1702.734
634.6013, 1644.221
635.0834, 1589.193
635.5656, 1532.238
636.0477, 1472.744
636.5298, 1411.252
637.0119, 1339.641
637.4940, 1272.213
637.9761, 1224.049
638.4583, 1192.124
638.9404, 1167.633
639.4225, 1147.856
639.9046, 1126.278
640.3867, 1093.601
640.8688, 1051.458
641.3510, 1031.238
641.8331, 1047.229
642.3152, 1061.762
642.7973, 1067.904
643.2794, 1070.691
643.7615, 1067.427
644.2437, 1061.589
644.7258, 1071.337
645.2079, 1114.141
645.6900, 1169.839
646.1721, 1218.194
646.6542, 1263.475
647.1364, 1317.961
647.6185, 1384.856
648.1006, 1457.572
648.5827, 1529.871
649.0648, 1601.378
649.5469, 1673.058
650.0291, 1745.406
650.5112, 1816.190
650.9933, 1879.609
651.4754, 1945.080
651.9575, 2019.517
652.4396, 2103.166
652.9218, 2192.507
653.4039, 2298.412
653.8860, 2398.037
654.3681, 2469.050
654.8502, 2520.208
655.3323, 2570.589
655.8145, 2625.350
656.2966, 2682.339
656.7787, 2739.976
657.2608, 2798.093
657.7429, 2852.529
658.2250, 2908.312
658.7072, 2949.865
659.1893, 2959.015
659.6714, 2963.890
660.1535, 2991.631
660.6356, 3037.414
661.1177, 3065.306
661.5999, 3055.103
662.0820, 3032.067
662.5641, 3007.310
663.0462, 2983.391
663.5283, 2968.361
664.0104, 2961.863
664.4926, 2949.322
664.9747, 2917.148
665.4568, 2868.349
665.9389, 2818.083
666.4210, 2767.705
666.9031, 2711.099
667.3853, 2642.179
667.8674, 2571.241
668.3495, 2510.117
668.8316, 2455.421
669.3137, 2390.620
669.7958, 2300.684
670.2780, 2213.821
670.7601, 2148.537
671.2422, 2091.042
671.7243, 2022.148
672.2064, 1940.667
672.6885, 1860.044
673.1707, 1790.263
673.6528, 1727.742
674.1349, 1664.619
674.6170, 1601.390
675.0991, 1534.889
675.5812, 1459.773
676.0634, 1389.917
676.5455, 1340.823
677.0276, 1307.977
677.5097, 1266.909
677.9918, 1206.246
678.4739, 1152.381
678.9561, 1121.532
679.4382, 1092.731
679.9203, 1043.126
680.4024, 977.2581
680.8845, 917.2211
681.3666, 875.5187
681.8488, 843.9498
682.3309, 810.4843
682.8130, 775.4512
683.2951, 738.7350
683.7772, 699.4427
684.2593, 663.4866
684.7415, 636.8850
685.2236, 616.1172
685.7057, 588.5410
686.1878, 543.1154
686.6699, 509.4490
687.1520, 501.8799
687.6342, 493.5149
688.1163, 464.3406
688.5984, 423.6855
689.0805, 392.1198
689.5626, 377.6139
690.0447, 368.6444
690.5269, 355.4931
691.0090, 338.5671
691.4911, 318.2303
691.9732, 295.3972
692.4553, 280.6618
692.9374, 281.1982
693.4196, 287.0002
693.9017, 277.1534
694.3838, 244.3649
694.8659, 222.5203
695.3480, 221.0463
695.8301, 218.5834
696.3123, 205.6604
696.7944, 190.2709
697.2765, 183.9005
697.7586, 188.4321
698.2407, 186.8662
698.7228, 161.7836
699.2050, 133.7464
699.6871, 125.6487
700.1692, 131.9816
700.6513, 137.5793
701.1334, 136.9227
701.6155, 128.3464
702.0977, 106.3682
702.5798, 72.68970
703.0619, 57.26215
703.5440, 66.70227
704.0261, 74.63177
704.5082, 71.25348
704.9904, 65.32849
705.4725, 67.09167
705.9546, 75.48401
706.4367, 80.62354
706.9188, 79.82123
707.4009, 78.07129
707.8831, 76.82880
708.3652, 75.80084
708.8473, 76.10083
709.3294, 76.59967
709.8115, 71.72467
710.2936, 54.41833
710.7758, 34.18024
711.2579, 33.01276
711.7400, 49.25409
712.2221, 60.17108
712.7042, 60.87933
713.1863, 55.91772
713.6685, 47.29108
714.1506, 36.53815
714.6327, 31.37421
715.1148, 38.30945
715.5969, 43.05994
716.0790, 41.39606
716.5612, 38.38007
717.0433, 37.90131
717.5254, 39.11774
718.0075, 38.45685
718.4896, 34.28119
718.9717, 28.83655
719.4539, 21.25543
719.9360, 14.70648
720.4181, 15.88000
720.9002, 23.14429
721.3823, 27.55310
721.8644, 24.81903
722.3465, 17.96045
722.8286, 11.33746
723.3107, 5.078064
723.7928, 1.211548
724.2750, 0.5200200
724.7571, 1.285706
725.2392, 2.461487
725.7213, 2.070374
726.2034, 4.746460
726.6855, 19.32977
727.1677, 25.09998
727.6498, 9.948975
728.1319, 4.923828
728.6140, 6.231750
729.0961, 1.350159
729.5782, 1.513062
730.0604, 8.314026
730.5425, 15.62158
731.0246, 18.64722
731.5067, 19.27094
731.9888, 22.35730
732.4709, 27.20093
732.9531, 27.08502
733.4352, 20.08612
733.9173, 10.37830
734.3994, 0.6956180
734.8815, 8.326904
735.3636, 12.03894
735.8458, 5.726135
736.3279, 3.385254
736.8100, 8.985535
737.2921, 12.80646
737.7742, 6.274963
738.2563, 4.751404
738.7385, 9.982788
739.2206, 15.46606
739.7027, 2.587341
740.1848, 12.75824
740.6669, 17.07385
741.1490, 6.833984
741.6312, 4.620605
742.1133, 1.673157
742.5954, 1.639893
743.0775, 14.90564
743.5596, 5.314941
744.0417, 10.45886
744.5239, 12.03656
745.0060, 20.00983
745.4881, 14.63214
745.9702, 11.48053
746.4523, 12.22906
746.9344, 7.412964
747.4166, 4.321838
747.8987, 9.087646
748.3808, 1.387024
748.8629, 5.967957
749.3450, 11.45654
749.8271, 14.16626
750.3093, 12.19263
750.7914, 6.363342
751.2735, 0.4021610
751.7556, 4.955383
752.2377, 7.964783
752.7198, 4.161377
753.2020, 2.503479
753.6841, 2.479553
754.1662, 3.746704
754.6483, 6.165771
755.1304, 2.217529
755.6125, 15.68640
756.0947, 20.90271
756.5768, 17.27716
757.0589, 14.06378
757.5410, 12.39832
758.0231, 11.13251
758.5052, 8.308777
758.9874, 6.195679
759.4695, 11.26898
759.9516, 27.41937
760.4337, 34.24475
760.9158, 23.25543
761.3979, 10.36279
761.8801, 0.1866460
762.3622, 5.793182
762.8443, 3.174225
763.3264, 7.272064
763.8085, 14.77194
764.2906, 9.995575
764.7728, 0.1884160
765.2549, 7.103271
765.7370, 11.92172
766.2191, 14.40515
766.7012, 14.57321
767.1833, 11.51865
767.6655, 3.559296
768.1476, 6.424713
768.6297, 8.820343
769.1118, 1.670197
769.5939, 1.588501
770.0760, 1.600433
770.5582, 6.761475
771.0403, 14.19220
771.5224, 20.71762
772.0045, 16.94141
772.4866, 4.665558
772.9688, 14.37207
773.4509, 3.367340
773.9330, 19.69061
774.4151, 15.66821
774.8972, 3.958527
775.3793, 6.183472
775.8615, 25.75302
776.3436, 41.71109
776.8257, 35.00955
777.3078, 20.41229
777.7899, 14.93356
778.2720, 17.17325
778.7542, 26.11938
779.2363, 40.38205
779.7184, 48.10742
780.2005, 37.54089
780.6826, 15.75031
781.1647, 7.335968
781.6469, 14.24664
782.1290, 21.26645
782.6111, 27.58463
783.0932, 30.97568
783.5753, 28.50833
784.0574, 22.61575
784.5396, 20.33359
785.0217, 24.71222
785.5038, 25.23306
785.9859, 13.79135
786.4680, 6.759277
786.9501, 16.01053
787.4323, 31.85403
787.9144, 41.23795
788.3965, 41.66238
788.8786, 39.45410
789.3607, 36.39371
789.8428, 33.87488
790.3250, 34.05191
790.8071, 35.76343
791.2892, 37.22095
791.7713, 37.69641
792.2534, 35.80035
792.7355, 30.15341
793.2177, 21.82495
793.6998, 2.621002
794.1819, 13.72833
794.6640, 22.81241
795.1461, 25.02234
795.6282, 0.1863400
796.1104, 9.867950
796.5925, 5.549072
797.0746, 0.3942260
797.5567, 15.47577
798.0388, 5.840363
798.5209, 8.888916
799.0031, 9.004639
799.4852, 15.89182
799.9673, 8.494843
800.4494, 5.440826
800.9315, 16.69064
801.4136, 19.85010
801.8958, 10.74789
802.3779, 17.96069
802.8600, 4.018250
803.3421, 0.4150700
803.8242, 14.21518
804.3063, 5.744568
804.7885, 2.724670
805.2706, 1.569275
805.7527, 8.561218
806.2348, 9.548126
806.7169, 6.428864
807.1990, 6.267883
807.6812, 9.554016
808.1633, 14.17816
808.6454, 19.50464
809.1275, 22.74237
809.6096, 17.81146
810.0917, 3.991211
810.5739, 1.762268
811.0560, 16.35217
811.5381, 29.53003
812.0202, 38.65076
812.5023, 41.17529
812.9844, 30.43213
813.4666, 8.401855
813.9487, 2.953308
814.4308, 6.700500
814.9129, 13.36157
815.3950, 9.655457
815.8771, 5.144897
816.3593, 5.106995
816.8414, 8.734192
817.3235, 15.02039
817.8056, 25.09283
818.2877, 28.75604
818.7698, 9.993164
819.2520, 12.22772
819.7341, 16.04785
820.2162, 6.278625
820.6983, 5.124695
821.1804, 14.30878
821.6625, 19.69208
822.1447, 18.64026
822.6268, 13.49719
823.1089, 12.36566
823.5910, 14.86993
824.0731, 12.90137
824.5552, 4.428650
825.0374, 2.149170
825.5195, 0.5708010
826.0016, 7.247070
826.4837, 16.09247
826.9658, 28.02557
827.4479, 32.77972
827.9301, 28.45587
828.4122, 20.91113
828.8943, 9.035339
829.3764, 2.828186
829.8585, 9.950195
830.3406, 13.23871
830.8228, 11.57751
831.3049, 3.226990
831.7870, 16.24817
832.2691, 20.98108
832.7512, 21.38367
833.2333, 21.62958
833.7155, 22.56171
834.1976, 23.20447
834.6797, 23.73065
835.1618, 21.97205
835.6439, 13.65845
836.1260, 4.199341
836.6082, 0.3754270
837.0903, 0.3225710
837.5724, 7.220886
838.0545, 20.18768
838.5366, 32.39014
839.0187, 35.75836
839.5009, 33.84149
839.9830, 35.95624
840.4651, 41.81793
840.9472, 48.88635
841.4293, 56.62592
841.9114, 64.76318
842.3936, 74.14948
842.8757, 82.57770
843.3578, 79.54187
843.8399, 57.88483
844.3220, 49.94293
844.8041, 66.15839
845.2863, 81.27966
845.7684, 78.70526
846.2505, 70.53485
846.7326, 79.30798
847.2147, 108.5788
847.6968, 124.6159
848.1790, 113.0831
848.6611, 104.8370
849.1432, 111.0341
849.6253, 121.9474
850.1074, 128.1559
850.5895, 130.9794
851.0717, 138.9478
851.5538, 158.6976
852.0359, 173.0150
852.5180, 165.5387
853.0001, 150.9644
853.4822, 142.4396
853.9644, 139.7744
854.4465, 134.6458
854.9286, 124.9783
855.4107, 119.1663
855.8928, 125.3364
856.3749, 137.8897
856.8571, 142.1828
857.3392, 140.6099
857.8213, 140.5333
858.3034, 143.5027
858.7855, 147.5595
859.2676, 151.5358
859.7498, 151.4380
860.2319, 136.1243
860.7140, 103.9728
861.1961, 80.37524
861.6782, 66.57544
862.1603, 65.05212
862.6425, 82.11298
863.1245, 101.6247
863.6066, 98.78516
864.0887, 72.50055
864.5709, 57.34540
865.0530, 62.42084
865.5351, 62.09277
866.0172, 46.37659
866.4993, 30.05621
866.9814, 23.93488
867.4636, 24.45166
867.9457, 22.26306
868.4278, 15.86639
868.9099, 10.72980
869.3920, 7.613281
869.8741, 5.123352
870.3563, 1.324280
870.8384, 1.531860
871.3205, 2.042786
871.8026, 10.61816
872.2847, 12.64728
872.7668, 7.393738
873.2490, 24.45197
873.7311, 13.58148
874.2132, 4.970520
874.6953, 1.325195
875.1774, 18.46844
875.6595, 25.07196
876.1417, 5.563477
876.6238, 17.35767
877.1059, 15.87073
877.5880, 2.687683
878.0701, 1.107849
878.5522, 9.280396
879.0344, 17.12091
879.5165, 22.16559
879.9986, 27.76373
880.4807, 37.34711
880.9628, 47.90674
881.4449, 50.61078
881.9271, 45.88837
882.4092, 45.45563
882.8913, 50.73138
883.3734, 54.79620
883.8555, 53.16168
884.3376, 51.53278
884.8198, 58.96405
885.3019, 75.78271
885.7840, 93.13495
886.2661, 113.0798
886.7482, 127.7682
887.2303, 133.1084
887.7125, 135.9073
888.1946, 140.4839
888.6767, 147.3577
889.1588, 157.9664
889.6409, 174.0573
890.1230, 188.8900
890.6052, 201.3616
891.0873, 213.8091
891.5694, 227.5464
892.0515, 241.4294
892.5336, 253.5555
893.0157, 264.0690
893.4979, 276.8396
893.9800, 294.6844
894.4621, 312.3215
894.9442, 325.6943
895.4263, 340.1245
895.9084, 363.4764
896.3906, 390.4830
896.8727, 406.9725
897.3548, 408.1151
897.8369, 416.4008
898.3190, 453.1403
898.8011, 496.2433
899.2833, 526.6303
899.7654, 548.9525
900.2475, 570.1952
900.7296, 592.5554
901.2117, 616.3808
901.6938, 640.3049
902.1760, 672.4040
902.6581, 731.6707
903.1402, 802.6125
903.6223, 852.8679
904.1044, 883.8438
904.5865, 907.8989
905.0687, 930.2103
905.5508, 961.1733
906.0329, 1015.060
906.5150, 1080.557
906.9971, 1123.216
907.4792, 1145.472
907.9614, 1169.129
908.4435, 1197.086
908.9256, 1240.859
909.4077, 1309.254
909.8898, 1389.325
910.3719, 1460.390
910.8541, 1522.406
911.3362, 1581.125
911.8183, 1636.513
912.3004, 1688.956
912.7825, 1736.137
913.2646, 1786.892
913.7468, 1851.212
914.2289, 1923.410
914.7110, 1981.972
915.1931, 2022.831
915.6752, 2059.382
916.1573, 2083.344
916.6395, 2117.881
917.1216, 2190.623
917.6037, 2262.496
918.0858, 2278.593
918.5679, 2239.609
919.0500, 2225.375
919.5322, 2256.094
920.0143, 2281.752
920.4964, 2311.343
920.9785, 2320.423
921.4606, 2282.499
921.9427, 2220.079
922.4249, 2175.065
922.9070, 2155.334
923.3891, 2116.779
923.8712, 2031.992
924.3533, 1948.791
924.8354, 1885.916
925.3176, 1833.295
925.7997, 1787.105
926.2818, 1742.226
926.7639, 1688.014
927.2460, 1619.097
927.7281, 1550.897
928.2103, 1495.219
928.6924, 1439.943
929.1745, 1375.846
929.6566, 1306.407
930.1387, 1230.800
930.6208, 1154.082
931.1030, 1097.307
931.5851, 1081.148
932.0672, 1068.993
932.5493, 1027.888
933.0314, 973.6389
933.5135, 921.4655
933.9957, 875.6436
934.4778, 839.8159
934.9599, 814.6033
935.4420, 793.1104
935.9241, 771.9313
936.4063, 748.4678
936.8884, 718.6296
937.3705, 683.8957
937.8526, 644.1821
938.3347, 602.0698
938.8168, 566.4579
939.2990, 541.6409
939.7811, 524.2821
940.2632, 515.1104
940.7453, 508.5497
941.2274, 485.7775
941.7095, 451.2245
942.1917, 426.5574
942.6738, 415.6471
943.1559, 408.8699
943.6380, 400.7184
944.1201, 388.7999
944.6022, 364.7584
945.0844, 331.8488
945.5665, 315.2267
946.0486, 315.1098
946.5307, 311.2931
947.0128, 297.6735
947.4949, 282.8612
947.9771, 274.3292
948.4592, 269.7582
948.9413, 261.2201
949.4234, 248.3345
949.9055, 242.4032
950.3876, 245.5577
950.8698, 243.8503
951.3519, 230.4379
951.8340, 215.5018
952.3161, 211.6345
952.7982, 216.2966
953.2803, 211.2700
953.7625, 193.4983
954.2446, 180.3608
954.7267, 174.1963
955.2088, 170.8486
955.6909, 168.6602
956.1730, 167.6519
956.6552, 168.6009
957.1373, 171.5786
957.6194, 168.9890
958.1015, 158.8352
958.5836, 147.9015
959.0657, 135.7919
959.5479, 125.6234
960.0300, 119.7850
960.5121, 116.7583
960.9942, 113.5572
961.4763, 110.2445
961.9584, 106.9075
962.4406, 103.6497
962.9227, 100.8959
963.4048, 101.5921
963.8869, 98.59326
964.3690, 82.17999
964.8511, 59.39368
965.3333, 51.20496
965.8154, 66.12354
966.2975, 69.39954
966.7796, 48.95215
967.2617, 35.12988
967.7438, 39.20062
968.2260, 47.42303
968.7081, 52.53613
969.1902, 54.32275
969.6723, 50.25629
970.1544, 32.93427
970.6365, 22.53668
971.1187, 25.68683
971.6008, 29.96277
972.0829, 31.78650
972.5650, 31.60022
973.0471, 28.34717
973.5292, 23.45703
974.0114, 23.58875
974.4935, 34.12384
974.9756, 40.60272
975.4577, 44.50690
975.9398, 40.10590
976.4219, 13.61780
976.9041, 28.78076
977.3862, 36.70203
977.8683, 37.77045
978.3504, 11.44043
978.8325, 20.50446
979.3146, 15.39331
979.7968, 9.706116
980.2789, 23.76990
980.7610, 1.457336
981.2431, 22.26099
981.7252, 30.66669
982.2073, 26.88843
982.6895, 21.71277
983.1716, 17.52283
983.6537, 12.06464
984.1358, 1.399048
984.6179, 10.80469
985.1000, 1.310852
985.5822, 16.27490
986.0643, 21.04889
986.5464, 9.335632
987.0285, 1.156738
987.5106, 9.822937
987.9927, 15.39972
988.4749, 5.270996
988.9570, 11.49304
989.4391, 21.18469
989.9212, 24.07068
990.4033, 0.5766600
990.8854, 10.08136
991.3676, 6.564880
991.8497, 2.472290
992.3318, 18.12817
992.8139, 2.593689
993.2960, 12.77716
993.7781, 13.73804
994.2603, 21.29340
994.7424, 14.58453
995.2245, 12.33069
995.7066, 24.35352
996.1887, 28.43579
996.6708, 20.10236
997.1530, 28.10419
997.6351, 12.62549
998.1172, 9.949829
998.5993, 5.925415
999.0814, 4.722168
999.5635, 7.766174
1000.046, 11.07874
1000.528, 15.69495
1001.010, 16.77661
1001.492, 6.893860
1001.974, 4.548828
1002.456, 7.306274
1002.938, 2.602417
1003.420, 3.742310
1003.903, 10.77148
1004.385, 15.06787
1004.867, 11.83051
1005.349, 8.267212
1005.831, 6.519653
1006.313, 8.605896
1006.795, 22.43732
1007.277, 41.56647
1007.759, 44.80798
1008.242, 22.66632
1008.724, 5.296753
1009.206, 9.244263
1009.688, 16.86816
1010.170, 19.73651
1010.652, 19.95483
1011.134, 19.71216
1011.616, 19.14130
1012.099, 17.54724
1012.581, 14.61304
1013.063, 11.27429
1013.545, 4.931580
1014.027, 1.858398
1014.509, 10.94159
1014.991, 22.00000
1015.473, 19.17542
1015.955, 7.097168
1016.438, 5.016724
1016.920, 21.79608
1017.402, 32.18896
1017.884, 21.36133
1018.366, 8.020752
1018.848, 2.060547
1019.330, 1.059204
1019.812, 7.238403
1020.294, 15.32080
1020.777, 19.57275
1021.259, 17.45917
1021.741, 16.13104
1022.223, 21.25909
1022.705, 23.57172
1023.187, 13.20465
1023.669, 2.167358
1024.151, 6.322632
1024.634, 19.98511
1025.116, 21.27197
1025.598, 0.9083860
1026.080, 12.00183
1026.562, 0.4848630
1027.044, 7.463318
1027.526, 6.092407
1028.008, 23.17169
1028.490, 26.84381
1028.973, 19.90826
1029.455, 13.41333
1029.937, 9.015930
1030.419, 4.721863
1030.901, 3.187439
1031.383, 6.653198
1031.865, 0.7414550
1032.347, 8.768494
1032.830, 20.15448
1033.312, 30.78815
1033.794, 33.88916
1034.276, 26.40051
1034.758, 20.83038
1035.240, 16.92419
1035.722, 16.88214
1036.204, 26.98663
1036.687, 35.72870
1037.169, 30.85907
1037.651, 18.96649
1038.133, 18.19708
1038.615, 34.55365
1039.097, 38.60559
1039.579, 13.26917
1040.061, 1.919983
1040.543, 27.03284
1041.026, 50.66370
1041.508, 42.60602
1041.990, 18.89587
1042.472, 13.76611
1042.954, 31.79791
1043.436, 40.58429
1043.918, 34.30475
1044.400, 31.06964
1044.882, 37.64899
1045.365, 41.11328
1045.847, 31.42377
1046.329, 15.96075
1046.811, 7.611938
1047.293, 6.396057
1047.775, 11.14130
1048.257, 25.88391
1048.739, 33.51587
1049.222, 29.55389
1049.704, 23.21649
1050.186, 18.45422
1050.668, 16.34546
1051.150, 19.64398
1051.632, 26.86084
1052.114, 26.22949
1052.596, 15.47424
1053.078, 15.79034
1053.561, 32.23163
1054.043, 44.91840
1054.525, 44.24615
1055.007, 38.85260
1055.489, 36.99701
1055.971, 37.16718
1056.453, 42.30865
1056.935, 52.71356
1057.417, 53.32306
1057.900, 42.58411
1058.382, 32.48352
1058.864, 27.51648
1059.346, 28.50995
1059.828, 38.34271
1060.310, 50.28076
1060.792, 42.91003
1061.274, 20.96832
1061.757, 11.07690
1062.239, 13.72076
1062.721, 17.36859
1063.203, 18.23242
1063.685, 19.95203
1064.167, 26.63226
1064.649, 32.11743
1065.131, 21.84943
1065.614, 3.784241
1066.096, 3.529846
1066.578, 0.4856570
1067.060, 11.19092
1067.542, 29.08105
1068.024, 43.37891
1068.506, 48.13507
1068.988, 46.51636
1069.470, 36.52399
1069.953, 26.48425
1070.435, 35.00806
1070.917, 50.64618
1071.399, 43.71985
1071.881, 16.52777
1072.363, 1.928284
1072.845, 15.65189
1073.327, 32.37289
1073.809, 30.06729
1074.292, 24.80371
1074.774, 33.85284
1075.256, 46.33197
1075.738, 46.72733
1076.220, 37.99927
1076.702, 31.89999
1077.184, 31.36514
1077.666, 32.88968
1078.148, 37.41888
1078.631, 40.46387
1079.113, 39.60535
1079.595, 37.03107
1080.077, 31.87155
1080.559, 27.07874
1081.041, 30.23102
1081.523, 42.31485
1082.005, 47.07996
1082.488, 27.25739
1082.970, 19.92621
1083.452, 52.19910
1083.934, 78.54865
1084.416, 63.08328
1084.898, 33.78934
1085.380, 32.48441
1085.862, 56.70847
1086.344, 68.48773
1086.827, 57.36914
1087.309, 54.63077
1087.791, 66.87872
1088.273, 76.82501
1088.755, 78.76437
1089.237, 74.97253
1089.719, 65.60022
1090.201, 53.91367
1090.683, 52.18579
1091.166, 63.32614
1091.648, 69.82343
1092.130, 71.29315
1092.612, 69.33646
1093.094, 63.48672
1093.576, 58.66638
1094.058, 58.85947
1094.540, 60.45062
1095.023, 55.76660
1095.505, 45.82373
1095.987, 39.57809
1096.469, 37.08179
1096.951, 40.50568
1097.433, 49.49835
1097.915, 52.60352
1098.397, 44.70770
1098.880, 35.35056
1099.362, 37.42883
1099.844, 44.65121
1100.326, 42.14059
1100.808, 34.19025
1101.290, 32.96219
1101.772, 37.13660
1102.254, 36.76779
1102.736, 29.35294
1103.219, 22.42123
1103.701, 21.52283
1104.183, 23.14017
1104.665, 24.95465
1105.147, 26.00598
1105.629, 23.65823
1106.111, 20.42822
1106.593, 23.17584
1107.075, 30.43475
1107.558, 29.42230
1108.040, 11.03073
1108.522, 2.001343
1109.004, 7.173370
1109.486, 18.15039
1109.968, 18.86780
1110.450, 15.23615
1110.932, 14.89093
1111.415, 15.61578
1111.897, 7.735962
1112.379, 13.77927
1112.861, 22.18295
1113.343, 5.097076
1113.825, 12.66556
1114.307, 32.05408
1114.789, 43.88785
1115.271, 39.01682
1115.754, 27.01721
1116.236, 21.81244
1116.718, 23.07254
1117.200, 22.87180
1117.682, 21.00632
1118.164, 18.28683
1118.646, 14.48975
1119.128, 10.20810
1119.610, 4.542358
1120.093, 2.737854
1120.575, 10.73209
1121.057, 23.55515
1121.539, 26.98874
1122.021, 21.81390
1122.503, 16.92416
1122.985, 12.80762
1123.467, 13.29336
1123.950, 18.89191
1124.432, 21.99722
1124.914, 17.90393
1125.396, 11.52707
1125.878, 7.889954
1126.360, 6.889130
1126.842, 11.76575
1127.324, 17.56738
1127.807, 9.141052
1128.289, 7.880493
1128.771, 8.528564
1129.253, 13.47061
1129.735, 29.53479
1130.217, 14.52759
1130.699, 0.8797610
1131.181, 6.399689
1131.663, 20.16113
1132.146, 31.39871
1132.628, 36.70950
1133.110, 27.88943
1133.592, 8.271149
1134.074, 2.095490
1134.556, 3.863220
1135.038, 12.58975
1135.520, 28.16025
1136.002, 37.14038
1136.485, 28.61346
1136.967, 17.97925
1137.449, 16.83743
1137.931, 21.76443
1138.413, 26.26801
1138.895, 30.60791
1139.377, 30.82544
1139.859, 25.28943
1140.342, 21.42761
1140.824, 20.47903
1141.306, 19.35599
1141.788, 15.92776
1142.270, 14.99289
1142.752, 23.23361
1143.234, 35.73257
1143.716, 35.11475
1144.198, 24.02222
1144.681, 21.12546
1145.163, 26.33722
1145.645, 33.72064
1146.127, 41.14749
1146.609, 44.56195
1147.091, 41.11774
1147.573, 36.59039
1148.055, 39.20645
1148.537, 43.14340
1149.020, 38.25864
1149.502, 30.67542
1149.984, 31.21942
1150.466, 37.76651
1150.948, 41.59827
1151.430, 40.52814
1151.912, 40.47876
1152.394, 48.34824
1152.877, 51.75101
1153.359, 41.50491
1153.841, 29.83594
1154.323, 20.34863
1154.805, 16.74423
1155.287, 27.39001
1155.769, 48.43478
1156.251, 58.79602
1156.734, 56.24573
1157.216, 48.22217
1157.698, 29.84045
1158.180, 16.52960
1158.662, 10.22034
1159.144, 14.09882
1159.626, 33.74323
1160.108, 55.66107
1160.590, 57.97601
1161.073, 44.59793
1161.555, 38.88007
1162.037, 40.25626
1162.519, 40.45804
1163.001, 38.86578
1163.483, 37.27115
1163.965, 36.31317
1164.447, 36.59622
1164.929, 38.93253
1165.412, 40.78433
1165.894, 37.78693
1166.376, 32.69199
1166.858, 30.11453
1167.340, 29.36087
1167.822, 27.53543
1168.304, 26.33176
1168.786, 33.29800
1169.269, 50.76648
1169.751, 63.14536
1170.233, 58.41284
1170.715, 52.48526
1171.197, 55.10739
1171.679, 57.11743
1172.161, 47.82117
1172.643, 37.33600
1173.125, 42.74719
1173.608, 59.81534
1174.090, 63.96005
1174.572, 49.65869
1175.054, 40.64551
1175.536, 38.02853
1176.018, 37.54868
1176.500, 39.38568
1176.982, 39.03278
1177.464, 32.95453
1177.947, 24.16660
1178.429, 16.25647
1178.911, 10.48599
1179.393, 12.91861
1179.875, 21.54874
1180.357, 25.79291
1180.839, 26.89832
1181.321, 37.88577
1181.804, 59.62949
1182.286, 70.42548
1182.768, 54.34100
1183.250, 36.60681
1183.732, 41.85025
1184.214, 53.83795
1184.696, 63.73663
1185.178, 67.35950
1185.661, 53.01169
1186.143, 30.55225
1186.625, 26.66827
1187.107, 46.84985
1187.589, 61.10907
1188.071, 62.31512
1188.553, 59.40878
1189.035, 49.00571
1189.517, 42.32947
1190.000, 44.81546
1190.482, 50.06824
1190.964, 53.75443
1191.446, 54.27475
1191.928, 45.07446
1192.410, 26.73077
1192.892, 25.10071
1193.374, 39.75317
1193.856, 52.15314
1194.339, 59.21460
1194.821, 59.33655
1195.303, 52.19791
1195.785, 46.08731
1196.267, 48.67377
1196.749, 55.55292
1197.231, 64.77435
1197.713, 71.84430
1198.196, 67.11960
1198.678, 57.71170
1199.160, 57.31580
1199.642, 64.30646
1200.124, 66.80118
1200.606, 61.17929
1201.088, 54.08578
1201.570, 45.67984
1202.052, 39.23468
1202.535, 34.40973
1203.017, 34.02170
1203.499, 44.60226
1203.981, 54.60345
1204.463, 49.25235
1204.945, 33.34476
1205.427, 27.67093
1205.909, 33.95419
1206.391, 32.68137
1206.874, 23.03815
1207.356, 24.65250
1207.838, 40.88153
1208.320, 52.14108
1208.802, 48.44455
1209.284, 38.88968
1209.766, 30.61368
1210.248, 25.50140
1210.731, 30.10336
1211.213, 37.25302
1211.695, 33.90570
1212.177, 25.91425
1212.659, 26.67404
1213.141, 35.54239
1213.623, 41.06042
1214.105, 39.44971
1214.588, 36.76672
1215.070, 32.73303
1215.552, 30.99860
1216.034, 35.01877
1216.516, 38.70227
1216.998, 37.67038
1217.480, 36.05206
1217.962, 39.09061
1218.444, 45.49854
1218.927, 49.14935
1219.409, 50.01294
1219.891, 55.29688
1220.373, 64.84381
1220.855, 61.57678
1221.337, 43.47241
1221.819, 30.24542
1222.301, 31.61810
1222.783, 38.09680
1223.266, 42.63159
1223.748, 43.69183
1224.230, 33.08093
1224.712, 23.39514
1225.194, 36.47107
1225.676, 57.80719
1226.158, 62.40558
1226.640, 51.02264
1227.122, 39.24762
1227.605, 29.80444
1228.087, 23.33344
1228.569, 19.58618
1229.051, 19.56726
1229.533, 24.56104
1230.015, 31.92963
1230.497, 43.74139
1230.979, 49.87122
1231.462, 37.14807
1231.944, 15.05621
1232.426, 14.09381
1232.908, 30.12787
1233.390, 26.31403
1233.872, 7.066711
1234.354, 2.159851
1234.836, 0.4817500
1235.318, 0.3836670
1235.801, 7.449890
1236.283, 11.72873
1236.765, 3.181824
1237.247, 8.843811
1237.729, 21.50293
1238.211, 30.46918
1238.693, 29.44244
1239.175, 25.36896
1239.657, 24.58472
1240.140, 27.59235
1240.622, 35.69885
1241.104, 49.67371
1241.586, 56.22241
1242.068, 52.95819
1242.550, 50.29291
1243.032, 49.43176
1243.514, 46.47418
1243.997, 39.71460
1244.479, 33.76550
1244.961, 31.44592
1245.443, 32.53253
1245.925, 38.96637
1246.407, 47.53174
1246.889, 53.83783
1247.371, 54.13062
1247.854, 35.58746
1248.336, 15.20721
1248.818, 5.639709
1249.300, 8.626282
1249.782, 13.13647
1250.264, 16.07617
1250.746, 18.00067
1251.228, 17.82690
1251.710, 18.46167
1252.193, 24.02637
1252.675, 25.17096
1253.157, 13.51160
1253.639, 1.779053
1254.121, 5.714233
1254.603, 21.26965
1255.085, 24.43268
1255.567, 16.23932
1256.049, 8.353271
1256.532, 0.2356570
1257.014, 1.718079
1257.496, 10.50177
1257.978, 7.881226
1258.460, 0.0000000E+00
##END=



