##NAMES=Geikielite
##RRUFFID=R070479
##IDEAL CHEMISTRY=MgTiO_3_
##LOCALITY=Colombo, Sri Lanka
##OWNER=RRUFF
##SOURCE=Royal Ontario Museum
##DESCRIPTION=Dark red fragment
##STATUS=The identification of this mineral has been confirmed only by single crystal X-ray diffraction.
##URL=rruff.info/R070479
157.8676, 0.0000000E+00
158.3497, 0.1167620
158.8318, 0.2171990
159.3139, 0.2752020
159.7961, 0.3417450
160.2782, 0.2052610
160.7603, 7.2154999E-02
161.2424, 1.3220001E-03
161.7245, 1.7991999E-02
162.2066, 8.6409003E-02
162.6888, 0.2088030
163.1709, 0.3473030
163.6530, 0.4209730
164.1351, 0.3365140
164.6172, 0.2170200
165.0993, 0.1403690
165.5815, 0.1915550
166.0636, 0.3574070
166.5457, 0.4750710
167.0278, 0.5829050
167.5099, 0.6729430
167.9921, 0.7270320
168.4742, 0.7453160
168.9563, 0.7190800
169.4384, 0.5901550
169.9205, 0.4908410
170.4026, 0.5861970
170.8848, 0.8201640
171.3669, 0.9507370
171.8490, 0.7361410
172.3311, 0.3684480
172.8132, 7.3523000E-02
173.2953, 8.0458000E-02
173.7775, 0.1414180
174.2596, 0.1305900
174.7417, 5.4228000E-02
175.2238, 4.2015001E-02
175.7059, 0.1531640
176.1880, 0.2575650
176.6702, 0.3151040
177.1523, 0.2606300
177.6344, 0.1908170
178.1165, 0.2507630
178.5986, 0.4352570
179.0807, 0.6145290
179.5629, 0.6706180
180.0450, 0.6374300
180.5271, 0.5966380
181.0092, 0.5700680
181.4913, 0.5557630
181.9734, 0.5291610
182.4556, 0.4876840
182.9377, 0.5022850
183.4198, 0.6984750
183.9019, 1.024069
184.3840, 1.287535
184.8661, 1.342762
185.3483, 1.299751
185.8304, 1.474260
186.3125, 1.892405
186.7946, 2.300907
187.2767, 2.344351
187.7588, 2.089968
188.2409, 1.926533
188.7231, 2.106775
189.2052, 2.512022
189.6873, 2.665392
190.1694, 2.525986
190.6515, 2.343870
191.1336, 2.486420
191.6158, 2.928680
192.0979, 3.312674
192.5800, 3.445900
193.0621, 3.371813
193.5442, 3.379599
194.0263, 3.476618
194.5085, 3.634424
194.9906, 3.807451
195.4727, 3.994970
195.9548, 4.229649
196.4369, 4.573856
196.9190, 5.016575
197.4012, 5.330015
197.8833, 5.480921
198.3654, 5.537865
198.8475, 5.603138
199.3296, 5.659805
199.8117, 5.802296
200.2939, 6.100691
200.7760, 6.480328
201.2581, 6.780685
201.7402, 7.016445
202.2223, 7.212208
202.7044, 7.422777
203.1866, 7.660923
203.6687, 7.832457
204.1508, 7.854128
204.6329, 7.703316
205.1150, 7.659992
205.5971, 7.737087
206.0793, 7.910534
206.5614, 8.159496
207.0435, 8.506283
207.5256, 8.831882
208.0077, 9.094109
208.4898, 9.297596
208.9720, 9.399094
209.4541, 9.371719
209.9362, 9.266232
210.4183, 9.188509
210.9004, 9.148811
211.3825, 9.106216
211.8647, 9.054317
212.3468, 9.007116
212.8289, 8.870514
213.3110, 8.596630
213.7931, 8.264801
214.2752, 8.082951
214.7574, 8.125769
215.2395, 8.134935
215.7216, 7.985088
216.2037, 7.645250
216.6858, 7.269394
217.1679, 6.824312
217.6501, 6.362349
218.1322, 6.031029
218.6143, 5.894821
219.0964, 5.747635
219.5785, 5.494680
220.0606, 5.090696
220.5428, 4.712261
221.0249, 4.344540
221.5070, 4.011995
221.9891, 3.804361
222.4712, 3.808296
222.9533, 3.771406
223.4355, 3.557659
223.9176, 3.052523
224.3997, 2.696144
224.8818, 2.533438
225.3639, 2.497097
225.8460, 2.433214
226.3282, 2.338810
226.8103, 2.222431
227.2924, 2.092476
227.7745, 1.957775
228.2566, 1.775618
228.7387, 1.512936
229.2209, 1.216354
229.7030, 1.008381
230.1851, 0.9426670
230.6672, 0.8744410
231.1493, 0.7243560
231.6314, 0.4274790
232.1136, 0.2492900
232.5957, 0.2410140
233.0778, 0.3341870
233.5599, 0.3790380
234.0420, 0.3666920
234.5241, 0.3165170
235.0063, 0.2279130
235.4884, 7.9763003E-02
235.9705, 4.5572001E-02
236.4526, 0.1519850
236.9347, 0.2352500
237.4168, 0.2819750
237.8990, 0.2641370
238.3811, 0.2557070
238.8632, 0.2897150
239.3453, 0.3889240
239.8274, 0.4603160
240.3095, 0.4838220
240.7917, 0.4902360
241.2738, 0.5523320
241.7559, 0.7539230
242.2380, 0.8725410
242.7201, 0.8049490
243.2022, 0.4709990
243.6844, 0.2191070
244.1665, 6.6134997E-02
244.6486, 1.7766999E-02
245.1307, 7.2847001E-02
245.6128, 5.3192001E-02
246.0949, 8.2909003E-02
246.5771, 0.2173420
247.0592, 0.4960920
247.5413, 0.7178480
248.0234, 0.8479160
248.5055, 0.9426310
248.9876, 1.084295
249.4697, 1.283205
249.9519, 1.511320
250.4340, 1.763756
250.9161, 2.043886
251.3982, 2.337603
251.8803, 2.669117
252.3624, 2.992657
252.8446, 3.227875
253.3267, 3.320072
253.8088, 3.437590
254.2909, 3.638540
254.7730, 3.940512
255.2551, 4.184416
255.7373, 4.311127
256.2194, 4.439522
256.7015, 4.732513
257.1836, 5.295940
257.6657, 5.788746
258.1479, 6.092978
258.6300, 6.186989
259.1121, 6.424480
259.5942, 6.885098
260.0763, 7.396549
260.5584, 7.775852
261.0406, 7.958004
261.5227, 8.165148
262.0048, 8.462776
262.4869, 8.845629
262.9690, 9.170837
263.4511, 9.437073
263.9333, 9.644840
264.4154, 9.780746
264.8975, 9.816616
265.3796, 9.877476
265.8617, 10.01522
266.3438, 10.21268
266.8260, 10.27915
267.3081, 10.16899
267.7902, 10.01111
268.2723, 9.935127
268.7544, 9.985153
269.2365, 9.941795
269.7187, 9.756256
270.2008, 9.448868
270.6829, 9.142971
271.1650, 8.848022
271.6471, 8.531448
272.1292, 8.154964
272.6114, 7.694351
273.0935, 7.311678
273.5756, 7.063015
274.0577, 6.895237
274.5398, 6.601967
275.0219, 6.149855
275.5041, 5.679121
275.9862, 5.276379
276.4683, 4.946133
276.9504, 4.642340
277.4325, 4.360001
277.9146, 4.102423
278.3968, 3.891735
278.8788, 3.740864
279.3610, 3.576843
279.8431, 3.341619
280.3252, 3.033955
280.8073, 2.772316
281.2894, 2.567429
281.7715, 2.407440
282.2537, 2.290150
282.7358, 2.223576
283.2179, 2.124500
283.7000, 1.911327
284.1821, 1.592621
284.6642, 1.399834
285.1464, 1.360760
285.6285, 1.387623
286.1106, 1.327097
286.5927, 1.177881
287.0748, 1.083715
287.5569, 1.125572
288.0391, 1.285297
288.5212, 1.457903
289.0033, 1.654896
289.4854, 1.818251
289.9675, 1.853737
290.4496, 1.771326
290.9318, 1.690306
291.4139, 1.673504
291.8960, 1.689932
292.3781, 1.620247
292.8602, 1.456049
293.3423, 1.285589
293.8245, 1.169788
294.3066, 1.111780
294.7887, 1.138283
295.2708, 1.288841
295.7529, 1.514147
296.2350, 1.723150
296.7172, 1.912909
297.1993, 2.061152
297.6814, 2.124033
298.1635, 2.133347
298.6456, 2.176777
299.1277, 2.287781
299.6099, 2.419039
300.0920, 2.507578
300.5741, 2.567268
301.0562, 2.634123
301.5383, 2.679508
302.0204, 2.742619
302.5026, 2.920286
302.9847, 3.276255
303.4668, 3.655037
303.9489, 3.867729
304.4310, 3.946720
304.9131, 4.027267
305.3953, 4.173290
305.8774, 4.371943
306.3595, 4.615517
306.8416, 4.911945
307.3237, 5.211906
307.8058, 5.469778
308.2880, 5.695154
308.7701, 5.909357
309.2522, 6.130751
309.7343, 6.343357
310.2164, 6.526356
310.6985, 6.676775
311.1807, 6.829470
311.6628, 6.994331
312.1449, 7.181696
312.6270, 7.402142
313.1091, 7.660606
313.5912, 7.954845
314.0734, 8.333872
314.5555, 8.795219
315.0376, 9.160889
315.5197, 9.243683
316.0018, 9.220495
316.4839, 9.273506
316.9661, 9.555071
317.4482, 9.836388
317.9303, 9.996504
318.4124, 10.05542
318.8945, 10.14996
319.3766, 10.39301
319.8588, 10.65524
320.3409, 10.83692
320.8230, 10.83303
321.3051, 10.85829
321.7872, 11.00251
322.2693, 11.22549
322.7515, 11.40449
323.2336, 11.45704
323.7157, 11.49885
324.1978, 11.58650
324.6799, 11.74322
325.1620, 11.91225
325.6442, 12.11876
326.1263, 12.32893
326.6084, 12.48275
327.0905, 12.50815
327.5726, 12.53727
328.0547, 12.59768
328.5369, 12.67401
329.0190, 12.83865
329.5011, 13.21300
329.9832, 13.62275
330.4653, 13.86917
330.9474, 13.83954
331.4296, 13.78551
331.9117, 13.72366
332.3938, 13.64952
332.8759, 13.69281
333.3580, 13.96227
333.8401, 14.24753
334.3223, 14.37395
334.8044, 14.27077
335.2865, 14.15083
335.7686, 14.03231
336.2507, 13.91556
336.7328, 13.81686
337.2150, 13.75023
337.6971, 13.67238
338.1792, 13.54842
338.6613, 13.36273
339.1434, 13.20554
339.6255, 13.11100
340.1077, 13.02392
340.5898, 12.80119
341.0719, 12.42473
341.5540, 12.00839
342.0361, 11.61254
342.5182, 11.23777
343.0004, 10.80655
343.4825, 10.29356
343.9646, 9.798252
344.4467, 9.522078
344.9288, 9.468422
345.4109, 9.300425
345.8931, 8.859104
346.3752, 8.227255
346.8573, 7.716415
347.3394, 7.316193
347.8215, 6.981621
348.3036, 6.711725
348.7858, 6.496082
349.2679, 6.259756
349.7500, 5.968393
350.2321, 5.640604
350.7142, 5.345810
351.1964, 5.087954
351.6785, 4.811319
352.1606, 4.410982
352.6427, 3.962400
353.1248, 3.627211
353.6069, 3.456236
354.0891, 3.328798
354.5712, 3.098816
355.0533, 2.807756
355.5354, 2.556444
356.0175, 2.432894
356.4996, 2.347700
356.9818, 2.198002
357.4639, 1.967678
357.9460, 1.743967
358.4281, 1.615303
358.9102, 1.539652
359.3923, 1.449532
359.8745, 1.239220
360.3566, 1.040112
360.8387, 0.9720000
361.3208, 1.030134
361.8029, 1.056543
362.2850, 0.8976670
362.7672, 0.7098100
363.2493, 0.6285820
363.7314, 0.7925870
364.2135, 0.9482940
364.6956, 1.036600
365.1777, 1.052361
365.6599, 0.9922070
366.1420, 0.7557350
366.6241, 0.5221200
367.1062, 0.3769870
367.5883, 0.3390600
368.0704, 0.3623980
368.5526, 0.4429420
369.0347, 0.5832580
369.5168, 0.7857530
369.9989, 1.202461
370.4810, 1.519308
370.9631, 1.641573
371.4453, 1.539576
371.9274, 1.476873
372.4095, 1.466000
372.8916, 1.484735
373.3737, 1.506613
373.8558, 1.488636
374.3380, 1.566912
374.8201, 1.803005
375.3022, 2.157341
375.7843, 2.396357
376.2664, 2.487549
376.7485, 2.536980
377.2307, 2.449162
377.7128, 2.778358
378.1949, 3.024698
378.6770, 3.192213
379.1591, 3.067825
379.6412, 3.302757
380.1234, 3.382938
380.6055, 3.449373
381.0876, 3.712868
381.5697, 3.591370
382.0518, 3.836229
382.5339, 3.924070
383.0161, 4.072559
383.4982, 4.065344
383.9803, 4.096142
384.4624, 4.267265
384.9445, 4.348700
385.4266, 4.293633
385.9088, 4.400198
386.3909, 4.196466
386.8730, 4.250553
387.3551, 4.411486
387.8372, 4.325283
388.3193, 4.395975
388.8015, 4.396240
389.2836, 4.296328
389.7657, 4.186954
390.2478, 3.963442
390.7299, 3.706291
391.2120, 3.421806
391.6942, 3.142012
392.1763, 2.907951
392.6584, 2.727737
393.1405, 2.530958
393.6226, 2.241806
394.1047, 1.931004
394.5869, 1.678492
395.0690, 1.557217
395.5511, 1.450377
396.0332, 1.309689
396.5153, 1.144220
396.9974, 1.004257
397.4796, 0.8813630
397.9617, 0.8029040
398.4438, 0.8005850
398.9259, 1.010279
399.4080, 1.060757
399.8901, 0.7933140
400.3723, 0.3633560
400.8544, 6.2429000E-02
401.3365, 5.2834999E-02
401.8186, 0.1057680
402.3007, 9.8715000E-02
402.7828, 1.4549000E-02
403.2649, 3.2301001E-02
403.7470, 0.2309460
404.2292, 0.4476340
404.7113, 0.5210760
405.1934, 0.3924030
405.6755, 0.3002070
406.1576, 0.2974360
406.6397, 0.3489060
407.1219, 0.3090130
407.6040, 0.1474090
408.0861, 1.3266000E-02
408.5682, 2.0324999E-02
409.0503, 0.1649320
409.5324, 0.2463460
410.0146, 0.2467770
410.4967, 0.2112260
410.9788, 0.1917860
411.4609, 0.1890470
411.9430, 0.2133330
412.4251, 0.3042090
412.9073, 0.4102880
413.3894, 0.4110720
413.8715, 0.3080520
414.3536, 0.1762940
414.8357, 2.8917000E-02
415.3178, 9.8003000E-02
415.8000, 0.1187040
416.2821, 3.6345001E-02
416.7642, 0.2025030
417.2463, 0.1998540
417.7284, 7.9995997E-02
418.2105, 2.0678001E-02
418.6927, 7.1660001E-03
419.1748, 3.5135001E-02
419.6569, 3.7367001E-02
420.1390, 1.1795000E-02
420.6211, 5.4997999E-02
421.1032, 3.7399001E-02
421.5854, 1.0769000E-02
422.0675, 3.0832000E-02
422.5496, 0.1656820
423.0317, 0.2939930
423.5138, 0.3817270
423.9959, 0.4322220
424.4781, 0.4740310
424.9602, 0.5207460
425.4423, 0.5520590
425.9244, 0.5520880
426.4065, 0.4724640
426.8886, 0.4539700
427.3708, 0.5332780
427.8529, 0.6576500
428.3350, 0.7426870
428.8171, 0.7604100
429.2992, 0.7912920
429.7813, 0.8693520
430.2635, 0.9914380
430.7456, 1.045126
431.2277, 1.005022
431.7098, 0.9513870
432.1919, 0.9526410
432.6740, 1.013378
433.1562, 1.071817
433.6383, 1.118307
434.1204, 1.162014
434.6025, 1.241570
435.0846, 1.355043
435.5667, 1.418699
436.0489, 1.352249
436.5310, 1.201250
437.0131, 1.098513
437.4952, 1.045191
437.9773, 1.047289
438.4594, 1.153358
438.9416, 1.316978
439.4237, 1.435944
439.9058, 1.448277
440.3879, 1.442240
440.8700, 1.526417
441.3521, 1.671227
441.8343, 1.771925
442.3164, 1.670404
442.7985, 1.566696
443.2806, 1.656223
443.7627, 2.023079
444.2448, 2.312845
444.7270, 2.306505
445.2091, 2.165417
445.6912, 2.079885
446.1733, 2.118711
446.6554, 2.194000
447.1375, 2.295267
447.6197, 2.419264
448.1018, 2.536970
448.5839, 2.659204
449.0660, 2.763315
449.5481, 2.831114
450.0302, 2.810802
450.5124, 2.866085
450.9945, 3.040373
451.4766, 3.260818
451.9587, 3.405191
452.4408, 3.449669
452.9229, 3.489311
453.4051, 3.563259
453.8872, 3.661514
454.3693, 3.681480
454.8514, 3.602299
455.3335, 3.527336
455.8156, 3.557173
456.2978, 3.681055
456.7799, 3.777735
457.2620, 3.820717
457.7441, 3.859022
458.2262, 4.010374
458.7083, 4.238916
459.1905, 4.384016
459.6726, 4.281761
460.1547, 4.090612
460.6368, 4.030207
461.1189, 4.094021
461.6010, 4.193371
462.0832, 4.329622
462.5653, 4.455421
463.0474, 4.512110
463.5295, 4.446096
464.0116, 4.352499
464.4937, 4.262432
464.9759, 4.190401
465.4580, 4.163353
465.9401, 4.195160
466.4222, 4.254364
466.9043, 4.351887
467.3864, 4.511175
467.8686, 4.569929
468.3507, 4.408234
468.8328, 4.205143
469.3149, 4.089912
469.7970, 4.110275
470.2791, 4.135448
470.7613, 4.183731
471.2434, 4.230383
471.7255, 4.181097
472.2076, 3.987593
472.6897, 3.822731
473.1718, 3.773735
473.6540, 3.836103
474.1361, 3.768259
474.6182, 3.538702
475.1003, 3.293558
475.5824, 3.194658
476.0645, 3.221636
476.5467, 3.218100
477.0288, 3.143814
477.5109, 3.048050
477.9930, 3.021194
478.4751, 3.042538
478.9572, 3.026161
479.4394, 2.894770
479.9215, 2.720720
480.4036, 2.584919
480.8857, 2.485926
481.3678, 2.425838
481.8499, 2.439899
482.3321, 2.484575
482.8142, 2.511301
483.2963, 2.508724
483.7784, 2.481033
484.2605, 2.414421
484.7426, 2.324478
485.2248, 2.247992
485.7069, 2.186308
486.1890, 2.142281
486.6711, 2.128092
487.1532, 2.159870
487.6353, 2.156675
488.1175, 2.091043
488.5996, 2.006853
489.0817, 1.938019
489.5638, 1.877342
490.0459, 1.864292
490.5280, 1.933798
491.0102, 2.034906
491.4923, 2.022131
491.9744, 1.875090
492.4565, 1.732006
492.9386, 1.679907
493.4207, 1.698071
493.9029, 1.626392
494.3850, 1.444460
494.8671, 1.269197
495.3492, 1.222746
495.8313, 1.261576
496.3134, 1.287033
496.7956, 1.261717
497.2777, 1.216793
497.7598, 1.168497
498.2419, 1.124128
498.7240, 1.095387
499.2061, 1.119728
499.6883, 1.134699
500.1704, 1.068853
500.6525, 0.9208220
501.1346, 0.8301560
501.6167, 0.9102610
502.0988, 1.018654
502.5810, 1.055380
503.0631, 0.9503610
503.5452, 0.8498340
504.0273, 0.7734550
504.5094, 0.7073960
504.9915, 0.6588210
505.4737, 0.6434540
505.9558, 0.6230810
506.4379, 0.5876030
506.9200, 0.5388030
507.4021, 0.5425410
507.8842, 0.6119380
508.3664, 0.7111570
508.8485, 0.8642240
509.3306, 1.076024
509.8127, 1.113800
510.2948, 0.9404300
510.7769, 0.6679520
511.2591, 0.4416930
511.7412, 0.2670800
512.2233, 0.2026000
512.7054, 0.3338850
513.1875, 0.5317860
513.6696, 0.6172140
514.1517, 0.5963540
514.6339, 0.5661220
515.1160, 0.5904700
515.5981, 0.6382470
516.0802, 0.6559410
516.5623, 0.6306130
517.0444, 0.5957010
517.5266, 0.5544920
518.0087, 0.5177090
518.4908, 0.4853050
518.9729, 0.4916110
519.4550, 0.4666400
519.9371, 0.3443890
520.4193, 0.1664650
520.9014, 0.1156640
521.3835, 0.3071400
521.8656, 0.4767230
522.3477, 0.5226650
522.8298, 0.4285350
523.3120, 0.3434300
523.7941, 0.2645080
524.2762, 0.2027210
524.7583, 0.1712960
525.2404, 0.1738880
525.7225, 0.1944100
526.2047, 0.2335380
526.6868, 0.2757000
527.1689, 0.2933790
527.6510, 0.2865110
528.1331, 0.2687060
528.6152, 0.2261820
529.0974, 0.1887680
529.5795, 0.2184190
530.0616, 0.3146070
530.5437, 0.3941090
531.0258, 0.3905500
531.5079, 0.3431200
531.9901, 0.2773850
532.4722, 0.1742970
532.9543, 0.1088360
533.4364, 0.1641650
533.9185, 0.2635300
534.4006, 0.3029380
534.8828, 0.1665410
535.3649, 7.4474998E-02
535.8470, 0.1108160
536.3291, 0.2467080
536.8112, 0.3010190
537.2933, 0.2060930
537.7755, 0.1280040
538.2576, 0.1551270
538.7397, 0.3120680
539.2218, 0.3991420
539.7039, 0.3996180
540.1860, 0.3629070
540.6682, 0.3451610
541.1503, 0.3439590
541.6324, 0.3164570
542.1145, 0.2486840
542.5966, 0.1806150
543.0787, 0.1841130
543.5609, 0.2430130
544.0430, 0.2794490
544.5251, 0.1999260
545.0072, 0.1106430
545.4893, 0.1436980
545.9714, 0.2908230
546.4536, 0.4119980
546.9357, 0.4266610
547.4178, 0.3893330
547.8999, 0.3364960
548.3820, 0.2630790
548.8641, 0.2006800
549.3463, 2.2098999E-02
549.8284, 0.1952950
550.3105, 0.2926830
550.7926, 0.3178770
551.2747, 5.8380000E-02
551.7568, 0.1657980
552.2390, 0.1260780
552.7211, 8.0251999E-02
553.2032, 0.2391010
553.6853, 2.0601001E-02
554.1674, 0.1760600
554.6495, 0.1821500
555.1317, 0.2624190
555.6138, 0.2015590
556.0959, 0.1849820
556.5780, 0.3049830
557.0601, 0.3429910
557.5422, 0.2521720
558.0244, 0.3306730
558.5065, 0.1064050
558.9886, 0.1470360
559.4707, 0.3025340
559.9528, 0.2189690
560.4349, 0.3000010
560.9171, 0.3181480
561.3992, 5.0932001E-02
561.8813, 0.2788680
562.3634, 0.2926330
562.8455, 8.9631997E-02
563.3276, 0.3039490
563.8098, 0.1281590
564.2919, 8.9203000E-02
564.7740, 0.1553040
565.2561, 0.1160810
565.7382, 0.2479800
566.2203, 0.2119370
566.7025, 0.1614110
567.1846, 0.1754700
567.6667, 7.6350002E-03
568.1488, 0.1770990
568.6309, 0.1149310
569.1130, 0.1656780
569.5952, 0.2404520
570.0773, 0.1154670
570.5594, 0.2028200
571.0415, 3.4348998E-02
571.5236, 2.1800001E-03
572.0057, 9.1359997E-03
572.4879, 0.1904010
572.9700, 4.4828001E-02
573.4521, 1.5919000E-02
573.9342, 0.1254160
574.4163, 0.1093980
574.8984, 0.1590230
575.3806, 1.3702000E-02
575.8627, 5.1509999E-02
576.3448, 0.1282830
576.8269, 0.1977100
577.3090, 0.2631110
577.7911, 0.3099440
578.2733, 0.3070700
578.7554, 0.2372590
579.2375, 0.1709860
579.7196, 0.1228070
580.2017, 9.2205003E-02
580.6838, 0.1002750
581.1660, 0.1568580
581.6481, 0.1937660
582.1302, 0.1408960
582.6123, 2.2624999E-02
583.0944, 6.5352999E-02
583.5765, 0.1173780
584.0587, 0.1303880
584.5408, 7.7040002E-02
585.0229, 1.2508000E-02
585.5050, 9.1243997E-02
585.9871, 0.1688040
586.4692, 0.1944680
586.9514, 9.8485999E-02
587.4335, 6.7179002E-02
587.9156, 0.1952270
588.3977, 0.2719550
588.8798, 0.2894590
589.3619, 0.2224660
589.8441, 7.2182000E-02
590.3262, 5.2530002E-02
590.8083, 0.1657510
591.2904, 0.2366890
591.7725, 0.2438410
592.2546, 0.1771200
592.7368, 7.8364998E-02
593.2189, 7.5379997E-02
593.7010, 0.1979330
594.1831, 0.1510120
594.6652, 3.4552000E-02
595.1473, 0.1303830
595.6295, 7.1629003E-02
596.1116, 3.6678001E-02
596.5937, 6.2726997E-02
597.0758, 2.7473001E-02
597.5579, 1.8003000E-02
598.0400, 9.2147999E-02
598.5222, 0.1313400
599.0043, 3.3911001E-02
599.4864, 0.1607820
599.9685, 0.2580320
600.4506, 6.2483002E-02
600.9327, 0.1474880
601.4149, 0.2227900
601.8970, 0.1078990
602.3791, 3.7227999E-02
602.8612, 2.4840999E-02
603.3433, 4.7006998E-02
603.8254, 9.7177997E-02
604.3076, 0.1963180
604.7897, 0.2285330
605.2718, 0.1705400
605.7539, 7.1984999E-02
606.2360, 5.7509998E-03
606.7181, 2.9712999E-02
607.2003, 4.7409002E-02
607.6824, 3.2382999E-02
608.1645, 1.2780000E-03
608.6466, 2.9369000E-02
609.1287, 5.1587999E-02
609.6108, 6.7032002E-02
610.0930, 6.1632000E-02
610.5751, 4.7006998E-02
611.0572, 4.9511001E-02
611.5393, 5.7186000E-02
612.0214, 2.9591000E-02
612.5035, 0.1708870
612.9857, 0.3328570
613.4678, 0.3060680
613.9499, 7.4074000E-02
614.4320, 0.2789590
614.9141, 0.2173400
615.3962, 6.0658999E-02
615.8784, 3.0439999E-03
616.3605, 4.4342000E-02
616.8426, 7.2906002E-02
617.3247, 5.9262998E-02
617.8068, 2.4557000E-02
618.2889, 3.4124002E-02
618.7711, 7.8685999E-02
619.2532, 7.9245001E-02
619.7353, 2.2341000E-02
620.2174, 0.1474930
620.6995, 0.1515880
621.1816, 5.1562998E-02
621.6638, 1.6556000E-02
622.1459, 7.5994000E-02
622.6280, 0.1773070
623.1101, 0.1694890
623.5922, 2.8069999E-02
624.0743, 9.2793003E-02
624.5565, 0.1530480
625.0386, 0.1793860
625.5207, 0.1796130
626.0028, 0.1558550
626.4849, 0.1362690
626.9670, 0.1238400
627.4492, 0.1176200
627.9313, 0.1100270
628.4134, 0.1010060
628.8955, 0.1197430
629.3776, 0.2010710
629.8597, 0.2967070
630.3419, 0.3151400
630.8240, 0.2579570
631.3061, 0.2106630
631.7882, 0.2305550
632.2703, 0.2647360
632.7524, 0.2803380
633.2346, 0.2669790
633.7167, 0.2064530
634.1988, 1.8141000E-02
634.6809, 0.2094690
635.1630, 0.2146190
635.6451, 2.3623999E-02
636.1273, 0.1544990
636.6094, 4.4521000E-02
637.0915, 0.1016270
637.5736, 0.1571120
638.0557, 9.6802004E-02
638.5378, 1.4555000E-02
639.0200, 0.1083160
639.5021, 0.2166630
639.9842, 0.2111570
640.4663, 9.8677002E-02
640.9484, 3.3211000E-02
641.4305, 6.0906999E-02
641.9127, 0.1374150
642.3948, 0.2286110
642.8769, 0.3225960
643.3590, 0.3832840
643.8411, 0.3313160
644.3232, 0.2890280
644.8054, 0.3802490
645.2875, 0.5618970
645.7696, 0.6621340
646.2517, 0.5573520
646.7338, 0.4312230
647.2159, 0.3632140
647.6981, 0.3610460
648.1802, 0.3838120
648.6623, 0.4331910
649.1444, 0.4933070
649.6265, 0.5343210
650.1086, 0.5488830
650.5908, 0.7218780
651.0729, 1.104443
651.5550, 1.435806
652.0371, 1.324158
652.5192, 0.9300750
653.0013, 0.7353150
653.4835, 0.9138070
653.9656, 1.134460
654.4477, 1.078201
654.9298, 0.8711340
655.4119, 0.7189310
655.8940, 0.7137370
656.3762, 0.7562410
656.8583, 0.8178690
657.3404, 0.8924540
657.8225, 0.9981980
658.3046, 1.220551
658.7867, 1.373571
659.2689, 1.371075
659.7510, 1.234911
660.2331, 1.187319
660.7152, 1.233704
661.1973, 1.337841
661.6794, 1.516890
662.1616, 1.737913
662.6437, 1.872623
663.1258, 1.916441
663.6079, 1.923771
664.0900, 1.911312
664.5721, 1.900688
665.0543, 1.913439
665.5364, 1.946848
666.0185, 2.036819
666.5006, 2.250183
666.9827, 2.503525
667.4648, 2.710545
667.9470, 2.873714
668.4291, 2.965698
668.9112, 2.952557
669.3933, 2.888750
669.8754, 2.863937
670.3575, 2.871515
670.8397, 2.915913
671.3218, 3.019711
671.8039, 3.165403
672.2860, 3.291460
672.7681, 3.392639
673.2502, 3.451847
673.7324, 3.369297
674.2145, 3.297144
674.6966, 3.462816
675.1787, 3.821062
675.6608, 4.109198
676.1429, 4.117695
676.6251, 4.084860
677.1072, 4.135088
677.5893, 4.285860
678.0714, 4.479218
678.5535, 4.800003
679.0356, 5.075859
679.5178, 5.163851
679.9999, 4.998915
680.4820, 4.987455
680.9641, 5.166359
681.4462, 5.404566
681.9283, 5.565506
682.4105, 5.661518
682.8926, 5.745287
683.3747, 5.835529
683.8568, 5.888474
684.3389, 5.788193
684.8210, 5.642450
685.3032, 5.620186
685.7853, 5.900967
686.2674, 6.172014
686.7495, 6.317741
687.2316, 6.380997
687.7137, 6.462051
688.1959, 6.574421
688.6780, 6.690144
689.1601, 6.801111
689.6422, 6.911652
690.1243, 7.054695
690.6064, 7.240179
691.0886, 7.387062
691.5707, 7.450140
692.0528, 7.449390
692.5349, 7.416384
693.0170, 7.360067
693.4991, 7.325594
693.9813, 7.348690
694.4634, 7.393803
694.9455, 7.423811
695.4276, 7.435062
695.9097, 7.466343
696.3918, 7.524096
696.8740, 7.608704
697.3561, 7.729548
697.8382, 7.908417
698.3203, 8.052147
698.8024, 8.170521
699.2845, 8.237549
699.7667, 8.206373
700.2488, 8.077660
700.7309, 7.988647
701.2130, 7.964792
701.6951, 7.938730
702.1772, 7.776112
702.6594, 7.553715
703.1415, 7.449553
703.6236, 7.553989
704.1057, 7.707321
704.5878, 7.859503
705.0699, 7.982210
705.5521, 8.029478
706.0342, 7.916561
706.5163, 7.814247
706.9984, 7.745949
707.4805, 7.709415
707.9626, 7.719534
708.4448, 7.820637
708.9269, 7.802191
709.4090, 7.535751
709.8911, 7.142641
710.3732, 7.023445
710.8553, 7.152948
711.3374, 7.272316
711.8195, 7.162342
712.3016, 7.007729
712.7838, 7.071169
713.2659, 7.317869
713.7480, 7.474083
714.2301, 7.322432
714.7122, 7.121429
715.1943, 7.026320
715.6765, 7.072500
716.1586, 7.015608
716.6407, 6.780647
717.1228, 6.545086
717.6049, 6.418766
718.0870, 6.411940
718.5692, 6.379236
719.0513, 6.311171
719.5334, 6.272833
720.0155, 6.399889
720.4976, 6.590267
720.9797, 6.589087
721.4619, 6.334215
721.9440, 6.064230
722.4261, 5.955317
722.9082, 5.926476
723.3903, 5.901237
723.8724, 5.913488
724.3546, 5.841209
724.8367, 5.598644
725.3188, 5.305559
725.8009, 5.081577
726.2830, 4.926958
726.7651, 4.856436
727.2473, 4.895803
727.7294, 4.973330
728.2115, 4.955927
728.6936, 4.860628
729.1757, 4.789820
729.6578, 4.804224
730.1400, 4.811079
730.6221, 4.680109
731.1042, 4.470428
731.5863, 4.308241
732.0684, 4.282124
732.5505, 4.269342
733.0327, 4.236719
733.5148, 4.184162
733.9969, 4.119364
734.4790, 4.049042
734.9611, 3.954800
735.4432, 3.815098
735.9254, 3.651440
736.4075, 3.549644
736.8896, 3.507467
737.3717, 3.511723
737.8538, 3.619276
738.3359, 3.735792
738.8181, 3.678661
739.3002, 3.476557
739.7823, 3.307606
740.2644, 3.312307
740.7465, 3.347420
741.2286, 3.328094
741.7108, 3.239576
742.1929, 3.124268
742.6750, 2.948513
743.1571, 2.799501
743.6392, 2.732126
744.1213, 2.745222
744.6035, 2.659948
745.0856, 2.461493
745.5677, 2.288813
746.0498, 2.308067
746.5319, 2.431551
747.0140, 2.452480
747.4962, 2.345446
747.9783, 2.226263
748.4604, 2.155251
748.9425, 2.117159
749.4246, 2.105865
749.9067, 2.136971
750.3889, 2.155678
750.8710, 2.142475
751.3531, 2.112030
751.8352, 2.073742
752.3173, 2.023602
752.7994, 1.965353
753.2816, 1.896818
753.7637, 1.833508
754.2458, 1.783091
754.7279, 1.744003
755.2100, 1.728975
755.6921, 1.752241
756.1743, 1.765030
756.6564, 1.702539
757.1385, 1.616632
757.6206, 1.566595
758.1027, 1.617407
758.5848, 1.609962
759.0670, 1.472084
759.5491, 1.301285
760.0312, 1.208702
760.5133, 1.218489
760.9954, 1.209261
761.4775, 1.160643
761.9597, 1.100672
762.4418, 1.079184
762.9239, 1.091053
763.4060, 1.095970
763.8881, 1.063807
764.3702, 1.033615
764.8524, 1.042656
765.3345, 1.077097
765.8166, 1.113472
766.2987, 1.191036
766.7808, 1.213938
767.2629, 1.110235
767.7451, 0.9585250
768.2272, 0.9024680
768.7093, 0.9668980
769.1914, 1.030922
769.6735, 1.080383
770.1556, 1.100384
770.6378, 1.038748
771.1199, 0.9121400
771.6020, 0.7912600
772.0841, 0.7048300
772.5662, 0.6338880
773.0483, 0.5369820
773.5305, 0.4447840
774.0126, 0.4257140
774.4947, 0.6207540
774.9768, 0.7556740
775.4589, 0.7108190
775.9410, 0.5454220
776.4232, 0.4764040
776.9053, 0.5385990
777.3874, 0.5649050
777.8695, 0.4771540
778.3516, 0.3303890
778.8337, 0.2766510
779.3159, 0.3050670
779.7980, 0.3519250
780.2801, 0.4005430
780.7622, 0.4384020
781.2443, 0.4548280
781.7264, 0.4523870
782.2086, 0.4356290
782.6907, 0.3884390
783.1728, 0.3450810
783.6549, 0.3264730
784.1370, 0.3252090
784.6191, 0.2792760
785.1013, 0.1703970
785.5834, 0.1021270
786.0655, 0.1471790
786.5476, 0.2580870
787.0297, 0.2802140
787.5118, 0.2268890
787.9940, 0.1722490
788.4761, 0.1492630
788.9582, 0.1452960
789.4403, 0.1705380
789.9224, 0.2165470
790.4045, 0.2208310
790.8867, 0.1251750
791.3688, 3.0286999E-02
791.8509, 3.1431001E-02
792.3330, 6.4020000E-02
792.8151, 8.8816002E-02
793.2972, 0.1087280
793.7794, 9.6368998E-02
794.2615, 3.3360000E-03
794.7436, 0.1239070
795.2257, 0.1614860
795.7078, 0.1202600
796.1899, 6.6706002E-02
796.6721, 3.8068999E-02
797.1542, 1.1515000E-02
797.6363, 4.8859000E-02
798.1184, 0.1405680
798.6005, 0.1540530
799.0826, 1.6447000E-02
799.5648, 0.1377410
800.0469, 9.5164999E-02
800.5290, 8.7507002E-02
801.0111, 0.1481840
801.4932, 7.8824997E-02
801.9753, 6.8319999E-03
802.4575, 4.8466001E-02
802.9396, 5.5367999E-02
803.4217, 1.9753000E-02
803.9038, 4.7573000E-02
804.3859, 7.5369000E-02
804.8680, 1.2114000E-02
805.3502, 0.1148720
805.8323, 0.2019500
806.3144, 0.2672330
806.7965, 0.2281150
807.2786, 2.2892000E-02
807.7607, 0.1692780
808.2429, 0.2727870
808.7250, 0.2963210
809.2071, 0.2793180
809.6892, 0.2228680
810.1713, 0.1670140
810.6534, 0.1550180
811.1356, 0.1463940
811.6177, 6.9278002E-02
812.0998, 6.1654001E-02
812.5819, 0.1312740
813.0640, 5.7445001E-02
813.5461, 5.1270001E-02
814.0283, 0.1742070
814.5104, 0.3037660
814.9925, 0.3277030
815.4746, 0.2139050
815.9567, 0.1046450
816.4388, 7.9673000E-02
816.9210, 0.1083300
817.4031, 8.7591998E-02
817.8852, 2.3306999E-02
818.3673, 4.1113000E-02
818.8494, 9.8511003E-02
819.3315, 0.1293140
819.8137, 8.4186003E-02
820.2958, 1.8765001E-02
820.7779, 4.6078000E-02
821.2600, 0.1197760
821.7421, 0.2613210
822.2242, 0.3107460
822.7064, 0.2825250
823.1885, 0.2644250
823.6706, 0.2601430
824.1527, 0.2283110
824.6348, 0.1061740
825.1169, 2.9905001E-02
825.5991, 2.8068000E-02
826.0812, 8.3601996E-02
826.5633, 0.1929330
827.0454, 0.2733250
827.5275, 0.3088800
828.0096, 0.2553010
828.4918, 0.1390300
828.9739, 0.1128300
829.4560, 0.2409180
829.9381, 0.3188540
830.4202, 0.2600670
830.9023, 0.1250110
831.3845, 0.1097700
831.8666, 0.1987470
832.3487, 0.2703500
832.8308, 0.2381440
833.3129, 0.1896480
833.7950, 0.2196890
834.2772, 0.2990340
834.7593, 0.3526150
835.2414, 0.3367390
835.7235, 0.3175790
836.2056, 0.3015160
836.6877, 0.2956280
837.1699, 0.3333400
837.6520, 0.4269420
838.1341, 0.4661990
838.6162, 0.3944960
839.0983, 0.2893000
839.5804, 0.3011040
840.0626, 0.3902440
840.5447, 0.4529200
841.0268, 0.4349750
841.5089, 0.3962670
841.9910, 0.3241790
842.4731, 0.2576440
842.9553, 0.2834810
843.4374, 0.5024650
843.9195, 0.6036790
844.4016, 0.5076220
844.8837, 0.3317850
845.3658, 0.2856990
845.8480, 0.3513410
846.3301, 0.4258480
846.8122, 0.4942720
847.2943, 0.5364900
847.7764, 0.5064690
848.2585, 0.4426370
848.7407, 0.4014950
849.2228, 0.3811630
849.7049, 0.4144900
850.1870, 0.5635850
850.6691, 0.7183050
851.1512, 0.7455670
851.6334, 0.6267160
852.1155, 0.5432160
852.5976, 0.5150910
853.0797, 0.5093240
853.5618, 0.4811530
854.0439, 0.4475240
854.5261, 0.4394700
855.0082, 0.4633970
855.4903, 0.5172530
855.9724, 0.6203440
856.4545, 0.7351340
856.9366, 0.8381510
857.4188, 0.9271470
857.9009, 0.9918560
858.3830, 1.037130
858.8651, 1.032271
859.3472, 0.9075150
859.8293, 0.7120900
860.3115, 0.6564040
860.7936, 0.7524530
861.2757, 0.8522900
861.7578, 0.8381430
862.2399, 0.7868220
862.7220, 0.7613330
863.2042, 0.7653870
863.6863, 0.7763160
864.1684, 0.7901940
864.6505, 0.8151530
865.1326, 0.8780910
865.6147, 0.9599210
866.0969, 0.9104790
866.5790, 0.7309670
867.0611, 0.5731410
867.5432, 0.5467820
868.0253, 0.5888650
868.5074, 0.6455200
868.9896, 0.7064440
869.4717, 0.7515330
869.9538, 0.7598290
870.4359, 0.7637470
870.9180, 0.7816510
871.4001, 0.7994750
871.8823, 0.7585550
872.3644, 0.6491930
872.8465, 0.5639060
873.3286, 0.5637960
873.8107, 0.5943610
874.2928, 0.5389690
874.7750, 0.4258460
875.2571, 0.3446970
875.7392, 0.3474890
876.2213, 0.3791080
876.7034, 0.4240950
877.1855, 0.4761730
877.6677, 0.5268570
878.1498, 0.5894210
878.6319, 0.5877240
879.1140, 0.4927330
879.5961, 0.3762290
880.0782, 0.3904950
880.5604, 0.4898630
881.0425, 0.5156370
881.5246, 0.3921680
882.0067, 0.2805400
882.4888, 0.3271110
882.9709, 0.4229030
883.4531, 0.4540930
883.9352, 0.3328230
884.4173, 0.2939370
884.8994, 0.3739310
885.3815, 0.4726340
885.8636, 0.4837880
886.3458, 0.4168580
886.8279, 0.3589600
887.3100, 0.3215770
887.7921, 0.3203130
888.2742, 0.4206120
888.7563, 0.5262290
889.2385, 0.5373430
889.7206, 0.4320770
890.2027, 0.3466600
890.6848, 0.2923300
891.1669, 0.2666070
891.6490, 0.2797150
892.1312, 0.3290140
892.6133, 0.3690710
893.0954, 0.3986130
893.5775, 0.4033610
894.0596, 0.3635590
894.5417, 0.3015410
895.0239, 0.2221410
895.5060, 0.1367970
895.9881, 9.4824001E-02
896.4702, 0.1418390
896.9523, 0.2004830
897.4344, 0.2668690
897.9166, 0.3315860
898.3987, 0.3249860
898.8808, 0.2375110
899.3629, 0.1983050
899.8450, 0.2661700
900.3271, 0.3701330
900.8093, 0.4338990
901.2914, 0.4615270
901.7735, 0.4530160
902.2556, 0.3799610
902.7377, 0.3071010
903.2198, 0.2581610
903.7020, 0.2205300
904.1841, 0.1636620
904.6662, 6.8015002E-02
905.1483, 7.3221996E-02
905.6304, 0.2141700
906.1125, 0.3715760
906.5947, 0.3847480
907.0768, 0.3261910
907.5589, 0.3407380
908.0410, 0.4673780
908.5231, 0.5598950
909.0052, 0.5525350
909.4874, 0.4827610
909.9695, 0.3606620
910.4516, 0.1731000
910.9337, 7.2709002E-02
911.4158, 7.6182000E-02
911.8979, 9.4944000E-02
912.3801, 5.5943001E-02
912.8622, 5.8960002E-03
913.3443, 8.6190002E-03
913.8264, 4.0980998E-02
914.3085, 9.5654003E-02
914.7906, 0.1238090
915.2728, 0.1582470
915.7549, 0.2445250
916.2370, 0.3555730
916.7191, 0.3633390
917.2012, 0.2332970
917.6833, 0.1312880
918.1655, 0.1152870
918.6476, 0.1403510
919.1297, 0.1141610
919.6118, 5.7975002E-02
920.0939, 3.0990001E-02
920.5760, 7.3354997E-02
921.0582, 0.1209080
921.5403, 2.8440000E-03
922.0224, 0.1704980
922.5045, 0.2685990
922.9866, 0.2956930
923.4688, 3.8497001E-02
923.9509, 0.1481740
924.4330, 0.1107880
924.9151, 6.7071997E-02
925.3972, 0.2279990
925.8793, 1.2019000E-02
926.3615, 0.1700850
926.8436, 0.1788190
927.3257, 0.2558630
927.8078, 0.1848640
928.2899, 0.1595420
928.7720, 0.2822530
929.2542, 0.3231220
929.7363, 0.2352640
930.2184, 0.3167420
930.7005, 9.5578998E-02
931.1826, 0.1401180
931.6647, 0.3000360
932.1469, 0.2206460
932.6290, 0.3045220
933.1111, 0.3248000
933.5932, 6.0403001E-02
934.0753, 0.2922730
934.5574, 0.3099930
935.0396, 0.1073740
935.5217, 0.3221030
936.0038, 0.1497670
936.4859, 0.1155810
936.9680, 0.1852980
937.4501, 0.1460660
937.9323, 0.2777490
938.4144, 0.2451890
938.8965, 0.1978810
939.3786, 0.2142700
939.8607, 4.7665998E-02
940.3428, 0.2189810
940.8250, 0.1605970
941.3071, 0.2169480
941.7892, 0.2985210
942.2713, 0.1809000
942.7534, 0.2744000
943.2355, 4.1795999E-02
943.7177, 8.2291000E-02
944.1998, 0.2121890
944.6819, 0.1994190
945.1640, 0.1715070
945.6461, 0.1189790
946.1282, 7.6384999E-02
946.6104, 5.7801999E-02
947.0925, 6.1434001E-02
947.5746, 9.1574997E-02
948.0567, 0.1557480
948.5388, 0.1972630
949.0209, 0.1920700
949.5031, 0.1669120
949.9852, 0.1499400
950.4673, 0.1471920
950.9494, 0.1755500
951.4315, 0.2690340
951.9136, 0.3486690
952.3958, 0.4140250
952.8779, 0.4363140
953.3600, 0.3766090
953.8421, 0.2216220
954.3242, 8.6097002E-02
954.8063, 2.7228000E-02
955.2885, 9.4970003E-02
955.7706, 6.9393001E-02
956.2527, 7.9999998E-04
956.7348, 5.1297002E-02
957.2169, 7.7206999E-02
957.6990, 0.1049440
958.1811, 0.1585640
958.6632, 0.1960350
959.1453, 0.1935920
959.6274, 0.1623240
960.1096, 0.1704480
960.5917, 0.2175870
961.0738, 0.2395640
961.5559, 0.1890390
962.0380, 0.1287100
962.5201, 0.1386820
963.0023, 0.1874570
963.4844, 0.2162600
963.9665, 0.1908940
964.4486, 0.1654820
964.9307, 0.1462470
965.4128, 0.1264510
965.8950, 8.3973996E-02
966.3771, 2.5744000E-02
966.8592, 3.8350001E-02
967.3413, 0.1346430
967.8234, 0.2240780
968.3055, 0.2169140
968.7877, 0.1767100
969.2698, 0.1611610
969.7519, 0.1781450
970.2340, 0.1858560
970.7161, 0.1830170
971.1982, 0.1669160
971.6804, 0.1303100
972.1625, 8.4119998E-02
972.6446, 6.6463999E-02
973.1267, 7.2535001E-02
973.6088, 8.0136999E-02
974.0909, 7.0543997E-02
974.5731, 6.8875998E-02
975.0552, 0.1129770
975.5373, 0.1650070
976.0194, 0.1556600
976.5015, 3.9301999E-02
976.9836, 1.2693000E-02
977.4658, 1.9912001E-02
977.9479, 9.4356999E-02
978.4300, 0.1999520
978.9121, 0.3016990
979.3942, 0.3037220
979.8763, 0.1957980
980.3585, 0.1072230
980.8406, 0.1198090
981.3227, 0.1529110
981.8048, 0.1675080
982.2869, 0.1643930
982.7690, 0.1784130
983.2512, 0.2143830
983.7333, 0.2315420
984.2154, 0.2093990
984.6975, 0.1706530
985.1796, 0.1473700
985.6617, 0.1329610
986.1439, 0.1159480
986.6260, 8.1017002E-02
987.1081, 6.1910000E-02
987.5902, 7.8101002E-02
988.0723, 9.6150003E-02
988.5544, 5.9838999E-02
989.0366, 2.4597000E-02
989.5187, 2.8856000E-02
990.0008, 6.1776999E-02
990.4829, 0.1407900
990.9650, 7.7979997E-02
991.4471, 8.8269999E-03
991.9293, 4.0409998E-03
992.4114, 0.1252100
992.8935, 0.2006440
993.3756, 0.2000210
993.8577, 0.2026220
994.3398, 0.2477810
994.8220, 0.3060210
995.3041, 0.2780000
995.7862, 0.1911920
996.2683, 0.1441310
996.7504, 0.2011120
997.2325, 0.2627750
997.7147, 0.2826080
998.1968, 0.2750700
998.6789, 0.2543470
999.1610, 0.2151610
999.6431, 0.1849140
1000.125, 0.1644420
1000.607, 0.1519740
1001.089, 0.1346290
1001.572, 0.1284070
1002.054, 0.1811610
1002.536, 0.2832570
1003.018, 0.3328350
1003.500, 0.2312710
1003.982, 0.1360550
1004.464, 0.1003440
1004.946, 0.1067840
1005.429, 0.1018630
1005.911, 8.6626001E-02
1006.393, 9.4963998E-02
1006.875, 0.1549810
1007.357, 0.1921020
1007.839, 9.9890999E-02
1008.321, 3.9664999E-02
1008.803, 0.1278260
1009.285, 0.1280090
1009.768, 0.1107230
1010.250, 6.9697000E-02
1010.732, 2.5402000E-02
1011.214, 2.5950000E-03
1011.696, 1.1262000E-02
1012.178, 8.4230997E-02
1012.660, 0.2009760
1013.142, 0.2676710
1013.625, 0.1960870
1014.107, 0.1117030
1014.589, 5.6343000E-02
1015.071, 3.4274999E-02
1015.553, 6.9793999E-02
1016.035, 0.1813260
1016.517, 0.2320930
1016.999, 0.1851990
1017.481, 0.1188940
1017.964, 0.1462320
1018.446, 0.2090880
1018.928, 0.2124580
1019.410, 0.1238820
1019.892, 8.1643000E-02
1020.374, 0.1592930
1020.856, 0.2319340
1021.338, 0.2239710
1021.820, 0.1607920
1022.303, 0.2021390
1022.785, 0.3290640
1023.267, 0.4049170
1023.749, 0.3039820
1024.231, 0.1931190
1024.713, 0.2070550
1025.195, 0.2788080
1025.677, 0.2821930
1026.160, 0.1640200
1026.642, 0.1246490
1027.124, 0.1982180
1027.606, 0.2767600
1028.088, 0.2048630
1028.570, 7.4064001E-02
1029.052, 8.7808996E-02
1029.534, 0.2509090
1030.016, 0.3470890
1030.499, 0.1948240
1030.981, 6.6441998E-02
1031.463, 7.4908003E-02
1031.945, 0.1747880
1032.427, 0.2138920
1032.909, 0.1947560
1033.391, 0.1607960
1033.873, 0.1144450
1034.356, 8.4857002E-02
1034.838, 0.1171000
1035.320, 0.1727720
1035.802, 0.2027620
1036.284, 0.1882900
1036.766, 0.1868580
1037.248, 0.2050460
1037.730, 0.2184250
1038.213, 0.1997910
1038.695, 0.1667330
1039.177, 0.1763260
1039.659, 0.2153500
1040.141, 0.2279250
1040.623, 0.1321350
1041.105, 7.4584000E-02
1041.587, 0.1212200
1042.069, 0.2190780
1042.552, 0.3036470
1043.034, 0.3748060
1043.516, 0.3736960
1043.998, 0.2828300
1044.480, 0.1992100
1044.962, 0.2322020
1045.444, 0.3016020
1045.926, 0.3287100
1046.408, 0.3094460
1046.891, 0.2886510
1047.373, 0.2675740
1047.855, 0.2512580
1048.337, 0.2428530
1048.819, 0.2362970
1049.301, 0.2016940
1049.783, 0.1612400
1050.265, 0.1752180
1050.748, 0.3136790
1051.230, 0.4102300
1051.712, 0.3711610
1052.194, 0.2957730
1052.676, 0.2563550
1053.158, 0.2545980
1053.640, 0.2468880
1054.122, 0.2329990
1054.604, 0.2066510
1055.087, 0.1346610
1055.569, 7.3885001E-02
1056.051, 7.7352002E-02
1056.533, 0.1273720
1057.015, 0.1921490
1057.497, 0.2960320
1057.979, 0.3372570
1058.461, 0.2861900
1058.943, 0.2111840
1059.426, 0.2161420
1059.908, 0.2564480
1060.390, 0.2275050
1060.872, 0.1090500
1061.354, 4.7458999E-02
1061.836, 0.1867670
1062.318, 0.2958170
1062.800, 0.2608500
1063.283, 0.1295070
1063.765, 0.1093300
1064.247, 0.1875600
1064.729, 0.2467290
1065.211, 0.2237990
1065.693, 0.2151980
1066.175, 0.3513640
1066.657, 0.5048650
1067.140, 0.5205810
1067.622, 0.3471180
1068.104, 0.2444850
1068.586, 0.2245340
1069.068, 0.2151580
1069.550, 0.1523190
1070.032, 7.6629996E-02
1070.514, 5.3258002E-02
1070.996, 7.1277998E-02
1071.479, 9.3011998E-02
1071.961, 0.1181410
1072.443, 0.1277550
1072.925, 0.1055590
1073.407, 8.6733997E-02
1073.889, 0.1445280
1074.371, 0.2487250
1074.853, 0.2601530
1075.335, 0.1627990
1075.818, 7.7853002E-02
1076.300, 0.1160960
1076.782, 0.1541940
1077.264, 9.5710002E-02
1077.746, 2.5801999E-02
1078.228, 4.7293000E-02
1078.710, 3.6079999E-02
1079.192, 0.1095460
1079.675, 0.1328870
1080.157, 0.1328170
1080.639, 0.1338450
1081.121, 0.1292680
1081.603, 0.1104410
1082.085, 6.0614999E-02
1082.567, 5.9027001E-02
1083.049, 0.1241240
1083.531, 0.1876980
1084.014, 0.2122550
1084.496, 0.2075530
1084.978, 0.1793580
1085.460, 0.1418100
1085.942, 0.1337180
1086.424, 0.1861600
1086.906, 0.2517670
1087.388, 0.3528740
1087.870, 0.4293940
1088.353, 0.3920670
1088.835, 0.2571850
1089.317, 0.2025680
1089.799, 0.2334310
1090.281, 0.2805700
1090.763, 0.3445190
1091.245, 0.3643390
1091.727, 0.2466750
1092.209, 6.0240000E-02
1092.692, 1.3407000E-02
1093.174, 0.1265020
1093.656, 0.2212560
1094.138, 0.2652680
1094.620, 0.2814630
1095.102, 0.2770370
1095.584, 0.2695830
1096.066, 0.2821160
1096.549, 0.3191120
1097.031, 0.3476390
1097.513, 0.3738410
1097.995, 0.3710170
1098.477, 0.3222950
1098.959, 0.2476730
1099.441, 0.1650070
1099.923, 9.2030004E-02
1100.406, 8.2737997E-02
1100.888, 0.2093190
1101.370, 0.2578050
1101.852, 8.9368999E-02
1102.334, 7.8079000E-02
1102.816, 9.4002999E-02
1103.298, 1.8805001E-02
1103.780, 8.3866999E-02
1104.262, 0.1027280
1104.745, 0.1112830
1105.227, 0.1388390
1105.709, 0.1488670
1106.191, 9.5642999E-02
1106.673, 2.7190000E-02
1107.155, 1.4804000E-02
1107.637, 6.6001996E-02
1108.119, 0.1160630
1108.601, 0.1630480
1109.084, 0.1954090
1109.566, 0.1920900
1110.048, 0.1804750
1110.530, 0.1885390
1111.012, 0.2123130
1111.494, 0.2300620
1111.976, 0.2540210
1112.458, 0.2152180
1112.941, 7.5957999E-02
1113.423, 5.2459002E-02
1113.905, 2.0595999E-02
1114.387, 0.1826230
1114.869, 0.2474630
1115.351, 0.1881510
1115.833, 0.1226990
1116.315, 4.1531999E-02
1116.797, 1.9792000E-02
1117.280, 0.1082760
1117.762, 0.2477450
1118.244, 0.2878870
1118.726, 0.2509100
1119.208, 0.1878460
1119.690, 9.9077001E-02
1120.172, 3.2271001E-02
1120.654, 1.7463000E-02
1121.136, 2.7860999E-02
1121.619, 3.8105000E-02
1122.101, 5.1619001E-02
1122.583, 8.7924004E-02
1123.065, 0.1418600
1123.547, 0.1652520
1124.029, 8.7656997E-02
1124.511, 3.5328999E-02
1124.993, 0.1332830
1125.476, 0.2756680
1125.958, 0.3234540
1126.440, 0.2595200
1126.922, 0.1834820
1127.404, 9.3947001E-02
1127.886, 3.5408001E-02
1128.368, 4.9438000E-02
1128.850, 0.1021560
1129.333, 0.1915670
1129.815, 0.2912380
1130.297, 0.3278770
1130.779, 0.2760320
1131.261, 0.2261450
1131.743, 0.1825020
1132.225, 0.1614990
1132.707, 0.2140550
1133.189, 0.2832110
1133.672, 0.2796420
1134.154, 0.2051610
1134.636, 0.1421030
1135.118, 0.1218480
1135.600, 8.4343001E-02
1136.082, 7.1749999E-03
1136.564, 7.1475998E-02
1137.046, 0.1017630
1137.528, 9.0751998E-02
1138.011, 4.7839999E-02
1138.493, 2.8538000E-02
1138.975, 0.1014810
1139.457, 0.1836700
1139.939, 0.2231220
1140.421, 0.1821440
1140.903, 9.9127002E-02
1141.385, 7.7302001E-02
1141.868, 0.1076710
1142.350, 0.1458640
1142.832, 0.1864250
1143.314, 0.2085520
1143.796, 0.1952840
1144.278, 0.1632900
1144.760, 0.1180170
1145.242, 6.2461998E-02
1145.724, 4.0135000E-02
1146.207, 4.8494000E-02
1146.689, 5.7433002E-02
1147.171, 3.8750000E-02
1147.653, 4.0111002E-02
1148.135, 0.1243230
1148.617, 0.2263360
1149.099, 0.2730860
1149.581, 0.2585380
1150.063, 0.2114700
1150.546, 0.1304570
1151.028, 7.5060003E-02
1151.510, 0.1204840
1151.992, 0.1756080
1152.474, 0.1502590
1152.956, 8.2592003E-02
1153.438, 5.4079000E-02
1153.920, 7.6935001E-02
1154.403, 0.1108540
1154.885, 0.1572920
1155.367, 0.1920710
1155.849, 0.1784110
1156.331, 0.1510900
1156.813, 8.2200002E-03
1157.295, 0.1796280
1157.777, 0.2759290
1158.260, 0.3009870
1158.742, 4.1832000E-02
1159.224, 0.1496520
1159.706, 0.1103860
1160.188, 6.1884001E-02
1160.670, 0.2156810
1161.152, 2.2130001E-03
1161.634, 0.1542810
1162.116, 0.1614510
1162.599, 0.2368250
1163.081, 0.1639670
1163.563, 0.1368030
1164.045, 0.2576520
1164.527, 0.2962890
1165.009, 0.2060490
1165.491, 0.2853720
1165.973, 6.2160000E-02
1166.455, 0.1045890
1166.938, 0.2619200
1167.420, 0.1795710
1167.902, 0.2617010
1168.384, 0.2816060
1168.866, 2.1295000E-02
1169.348, 0.2559060
1169.830, 0.2726020
1170.312, 6.8428002E-02
1170.795, 0.2814170
1171.277, 0.1037670
1171.759, 6.7415997E-02
1172.241, 0.1353140
1172.723, 9.4818003E-02
1173.205, 0.2251780
1173.687, 0.1909090
1174.169, 0.1417050
1174.651, 0.1565740
1175.134, 9.0089999E-03
1175.616, 0.1652480
1176.098, 0.1060490
1176.580, 0.1609310
1177.062, 0.2416140
1177.544, 0.1287570
1178.026, 1.7673001E-02
1178.508, 5.5580001E-02
1178.990, 6.5159998E-03
1179.473, 7.9829000E-02
1179.955, 0.1291890
1180.437, 0.1502390
1180.919, 0.1243310
1181.401, 5.3024001E-02
1181.883, 4.3768000E-02
1182.365, 9.1020003E-02
1182.847, 0.1344550
1183.330, 0.1167200
1183.812, 0.1098890
1184.294, 0.1857350
1184.776, 0.2721430
1185.258, 0.2709580
1185.740, 0.1793870
1186.222, 0.1219430
1186.704, 0.1036190
1187.187, 9.8852001E-02
1187.669, 0.1024370
1188.151, 0.1014910
1188.633, 6.1664000E-02
1189.115, 2.3668000E-02
1189.597, 7.7279001E-02
1190.079, 0.2293570
1190.561, 0.2979560
1191.043, 0.2648640
1191.526, 0.2196400
1192.008, 0.2510700
1192.490, 0.2775340
1192.972, 0.2223710
1193.454, 0.1204900
1193.936, 6.2660001E-02
1194.418, 4.5529000E-02
1194.900, 6.2724002E-02
1195.382, 0.1182830
1195.865, 0.1808000
1196.347, 0.2643690
1196.829, 0.3046280
1197.311, 0.2001130
1197.793, 8.5180001E-03
1198.275, 2.8642001E-02
1198.757, 0.1005830
1199.239, 7.6746002E-02
1199.722, 0.2465540
1200.204, 0.3412650
1200.686, 0.3648220
1201.168, 0.1041570
1201.650, 0.2104760
1202.132, 0.1697060
1202.614, 0.1228370
1203.096, 0.2804810
1203.578, 6.0704999E-02
1204.061, 0.2150020
1204.543, 0.2199740
1205.025, 0.2931500
1205.507, 0.2183330
1205.989, 0.1895610
1206.471, 0.3088510
1206.953, 0.3461620
1207.435, 0.2546530
1207.917, 0.3324580
1208.400, 0.1076180
1208.882, 0.1480730
1209.364, 0.3032670
1209.846, 0.2190960
1210.328, 0.2995380
1210.810, 0.3170380
1211.292, 4.9644999E-02
1211.774, 0.2776920
1212.257, 0.2915550
1212.739, 8.5484996E-02
1213.221, 0.2967730
1213.703, 0.1210140
1214.185, 8.3454996E-02
1214.667, 0.1486820
1215.149, 0.1066170
1215.631, 0.2354150
1216.114, 0.1995740
1216.596, 0.1486680
1217.078, 0.1623640
1217.560, 6.0100001E-03
1218.042, 0.1081720
1218.524, 6.4448997E-02
1219.006, 4.0096998E-02
1219.488, 3.7758000E-02
1219.970, 6.5001003E-02
1220.453, 0.1225720
1220.935, 0.1720070
1221.417, 0.1841690
1221.899, 0.1946890
1222.381, 0.2694270
1222.863, 0.3339080
1223.345, 0.2819810
1223.827, 9.2381001E-02
1224.309, 2.0431001E-02
1224.792, 6.5568000E-02
1225.274, 9.7837999E-02
1225.756, 1.3830000E-02
1226.238, 6.8268001E-02
1226.720, 5.8848001E-02
1227.202, 1.5820001E-03
1227.684, 4.3214999E-02
1228.166, 7.2517000E-02
1228.649, 0.1186500
1229.131, 0.1808000
1229.613, 0.2439370
1230.095, 0.3284570
1230.577, 0.3751980
1231.059, 0.3323030
1231.541, 0.2385990
1232.023, 0.1285820
1232.505, 1.9700001E-03
1232.988, 4.1549001E-02
1233.470, 9.8540001E-03
1233.952, 7.8061000E-02
1234.434, 0.1194170
1234.916, 0.1670220
1235.398, 0.2828220
1235.880, 0.3816150
1236.362, 0.3445900
1236.844, 0.1836790
1237.327, 9.8686002E-02
1237.809, 8.8005997E-02
1238.291, 9.6585996E-02
1238.773, 0.1008940
1239.255, 0.1065120
1239.737, 0.1194690
1240.219, 0.1345300
1240.701, 0.1369390
1241.184, 0.1308760
1241.666, 0.1631930
1242.148, 0.2278900
1242.630, 0.2651410
1243.112, 0.2071580
1243.594, 0.1610090
1244.076, 0.1677580
1244.558, 0.1956860
1245.041, 0.2127000
1245.523, 0.2214500
1246.005, 0.2476160
1246.487, 0.2855610
1246.969, 0.2845420
1247.451, 0.1451950
1247.933, 6.8180002E-02
1248.415, 0.1357770
1248.897, 0.2357930
1249.380, 0.2336100
1249.862, 0.1642380
1250.344, 0.1347570
1250.826, 0.1427760
1251.308, 0.1464410
1251.790, 0.1240060
1252.272, 9.9008001E-02
1252.754, 6.6806003E-02
1253.236, 5.0009999E-02
1253.719, 9.7987004E-02
1254.201, 0.1707010
1254.683, 0.1624750
1255.165, 9.4589002E-02
1255.647, 9.1141000E-02
1256.129, 0.2641940
1256.611, 0.3673720
1257.093, 0.3690680
1257.576, 0.3128350
1258.058, 0.2118330
1258.540, 0.1105800
1259.022, 9.5200002E-02
1259.504, 0.1487440
1259.986, 0.1773410
1260.468, 0.1598240
1260.950, 0.1404130
1261.432, 0.1227320
1261.915, 0.1088540
1262.397, 0.1296770
1262.879, 0.1699230
1263.361, 0.1979220
1263.843, 0.2127810
1264.325, 0.2192480
1264.807, 0.2139960
1265.289, 0.2074030
1265.771, 0.2160220
1266.254, 0.2391440
1266.736, 0.3301210
1267.218, 0.3893760
1267.700, 0.2814530
1268.182, 8.4034003E-02
1268.664, 2.5118001E-02
1269.146, 0.1166730
1269.628, 0.1638300
1270.111, 0.1480420
1270.593, 0.1157300
1271.075, 6.9752000E-02
1271.557, 5.0868999E-02
1272.039, 0.1278070
1272.521, 0.2269630
1273.003, 0.2172450
1273.485, 0.1105060
1273.968, 5.0062999E-02
1274.450, 4.6153001E-02
1274.932, 5.6869999E-02
1275.414, 6.9757000E-02
1275.896, 7.4680999E-02
1276.378, 5.2754998E-02
1276.860, 3.5209000E-02
1277.342, 6.8317004E-02
1277.824, 0.1430810
1278.307, 0.2517470
1278.789, 0.3812300
1279.271, 0.4385500
1279.753, 0.3246970
1280.235, 0.2083100
1280.717, 0.1068710
1281.199, 4.5033999E-02
1281.681, 7.5397000E-02
1282.163, 0.1572840
1282.646, 0.2198890
1283.128, 0.2537640
1283.610, 0.2433020
1284.092, 0.1243870
1284.574, 8.5446998E-02
1285.056, 0.1714520
1285.538, 0.2541280
1286.020, 0.1612120
1286.503, 1.7896000E-02
1286.985, 1.3288000E-02
1287.467, 4.9720999E-02
1287.949, 0.1238650
1288.431, 0.2138150
1288.913, 0.2612180
1289.395, 0.2588710
1289.877, 0.2320590
1290.359, 0.1726110
1290.842, 0.1248680
1291.324, 0.1549720
1291.806, 0.2163280
1292.288, 0.1823990
1292.770, 6.8916999E-02
1293.252, 4.2659999E-03
1293.734, 3.7819999E-03
1294.216, 6.2270002E-03
1294.698, 1.0487000E-02
1295.181, 2.5491999E-02
1295.663, 2.6929000E-02
1296.145, 2.9754000E-02
1296.627, 1.5850000E-02
1297.109, 0.0000000E+00
##END=



