##NAMES=Gillespite
##RRUFFID=R061031
##IDEAL CHEMISTRY=BaFe^2+^Si_4_O_10_
##LOCALITY=La Madrelena mine, Tres Pozos, Municipio de Tecate, Baja California Norte, Mexico
##OWNER=RRUFF
##SOURCE=Michael Scott
##DESCRIPTION=Rose-red cleavage fragment embedded in white sanbornite
##STATUS=The identification of this mineral has been confirmed by X-ray diffraction and chemical analysis
##URL=rruff.info/R061031
##MEASURED CHEMISTRY=Ba_1.00_Fe^2+^_1.00_(Si_3.97_Ti_0.03_)_Σ=4_O_10_ ; = host gray phase : (Ba_0.99_K_0.01_)(Al_0.97_Fe^3+^_0.02_Ti_0.01_)_Σ=2_Si_2.00_O_8_ ; = lighter gray inclusion = celsian ; Ba_1.00_CO_3_ = lightest areas = witherite 
111.3986, 0.0000000E+00
111.8807, 19.70886
112.3628, 0.2673340
112.8449, 10.95044
113.3271, 5.337646
113.8092, 44.77362
114.2913, 104.9968
114.7734, 193.5239
115.2555, 314.3140
115.7376, 461.0914
116.2198, 625.4415
116.7019, 814.9291
117.1840, 1011.910
117.6661, 1214.161
118.1482, 1422.395
118.6303, 1623.095
119.1124, 1819.012
119.5946, 2000.960
120.0767, 2150.672
120.5588, 2249.077
121.0409, 2316.413
121.5230, 2369.883
122.0051, 2412.209
122.4873, 2439.973
122.9694, 2450.013
123.4515, 2442.822
123.9336, 2419.815
124.4157, 2379.083
124.8979, 2323.624
125.3800, 2257.149
125.8621, 2175.689
126.3442, 2088.280
126.8263, 2006.381
127.3084, 1930.541
127.7905, 1855.696
128.2727, 1778.878
128.7548, 1700.255
129.2369, 1621.138
129.7190, 1536.246
130.2011, 1451.646
130.6832, 1386.028
131.1654, 1341.378
131.6475, 1305.130
132.1296, 1257.876
132.6117, 1200.598
133.0938, 1154.039
133.5759, 1127.803
134.0581, 1121.104
134.5402, 1128.009
135.0223, 1150.784
135.5044, 1183.102
135.9865, 1210.348
136.4686, 1230.554
136.9508, 1256.738
137.4329, 1301.560
137.9150, 1368.233
138.3971, 1422.500
138.8792, 1459.660
139.3613, 1482.553
139.8434, 1506.012
140.3256, 1537.351
140.8077, 1554.452
141.2898, 1537.104
141.7719, 1473.865
142.2540, 1409.500
142.7361, 1351.962
143.2183, 1300.590
143.7004, 1243.732
144.1825, 1175.931
144.6646, 1107.769
145.1467, 1051.403
145.6288, 1011.224
146.1110, 975.3291
146.5931, 942.8461
147.0752, 915.7329
147.5573, 881.3190
148.0394, 835.9108
148.5215, 784.7195
149.0037, 733.8474
149.4858, 679.9852
149.9679, 634.1121
150.4500, 597.9773
150.9321, 576.4938
151.4142, 554.9681
151.8964, 535.5511
152.3785, 519.2509
152.8606, 501.0969
153.3427, 474.1618
153.8248, 450.7936
154.3069, 436.1816
154.7890, 445.7294
155.2712, 446.2583
155.7533, 429.7979
156.2354, 402.2277
156.7175, 375.2695
157.1996, 347.0250
157.6817, 322.2178
158.1639, 303.7938
158.6460, 298.1577
159.1281, 292.0646
159.6102, 279.2393
160.0923, 260.7325
160.5744, 247.7574
161.0566, 249.7376
161.5387, 256.5807
162.0208, 259.1984
162.5029, 254.3286
162.9850, 244.8870
163.4671, 229.9932
163.9493, 209.5826
164.4314, 191.0220
164.9135, 181.1308
165.3956, 174.5605
165.8777, 164.8809
166.3598, 143.2645
166.8420, 121.8159
167.3241, 109.1393
167.8062, 105.8040
168.2883, 104.7791
168.7704, 104.4922
169.2525, 100.6166
169.7346, 95.73938
170.2168, 89.59442
170.6989, 82.42908
171.1810, 73.62994
171.6631, 61.48895
172.1452, 51.09247
172.6273, 49.04431
173.1095, 52.66870
173.5916, 53.61945
174.0737, 43.31921
174.5558, 28.53778
175.0379, 18.88257
175.5201, 17.16083
176.0022, 18.75208
176.4843, 18.94226
176.9664, 18.05707
177.4485, 17.57587
177.9306, 20.81189
178.4128, 24.95221
178.8949, 24.07446
179.3770, 14.35809
179.8591, 1.678223
180.3412, 5.426636
180.8233, 7.260986
181.3055, 7.240479
181.7876, 7.488525
182.2697, 7.968384
182.7518, 8.847900
183.2339, 10.22174
183.7160, 11.99579
184.1982, 14.93268
184.6803, 19.19946
185.1624, 21.36920
185.6445, 14.53601
186.1266, 1.063843
186.6087, 6.523254
187.0908, 0.3421020
187.5730, 14.89929
188.0551, 23.92914
188.5372, 26.34692
189.0193, 25.40710
189.5014, 24.37994
189.9835, 23.25250
190.4657, 21.94220
190.9478, 18.60211
191.4299, 14.28345
191.9120, 17.19293
192.3941, 29.13708
192.8762, 42.91705
193.3584, 47.57458
193.8405, 42.90997
194.3226, 37.40253
194.8047, 35.30872
195.2868, 36.35193
195.7689, 34.94928
196.2511, 30.05634
196.7332, 24.62756
197.2153, 25.94586
197.6974, 35.09888
198.1795, 40.62762
198.6616, 33.55145
199.1438, 13.00085
199.6259, 0.2758180
200.1080, 3.297852
200.5901, 0.1833500
201.0722, 1.678467
201.5543, 0.7365720
202.0364, 1.533386
202.5186, 5.758179
203.0007, 12.77203
203.4828, 15.56250
203.9649, 11.29517
204.4470, 3.470032
204.9291, 4.045166
205.4113, 14.91132
205.8934, 26.52533
206.3755, 33.20160
206.8576, 34.85590
207.3397, 34.21039
207.8218, 29.52362
208.3040, 23.03711
208.7861, 26.05219
209.2682, 42.77124
209.7503, 59.00623
210.2324, 62.71344
210.7145, 49.45593
211.1967, 41.43091
211.6788, 43.03778
212.1609, 52.74750
212.6430, 59.95013
213.1251, 62.94556
213.6072, 66.53333
214.0894, 76.28302
214.5715, 96.75446
215.0536, 108.3759
215.5357, 105.7268
216.0178, 90.31586
216.4999, 78.74017
216.9820, 72.38824
217.4642, 68.00024
217.9463, 62.79053
218.4284, 56.64368
218.9105, 49.99652
219.3926, 42.42679
219.8747, 34.06842
220.3569, 27.67441
220.8390, 24.16568
221.3211, 21.52609
221.8032, 17.46765
222.2853, 10.85056
222.7674, 5.479279
223.2496, 1.979370
223.7317, 0.3132630
224.2138, 1.185059
224.6959, 6.142944
225.1780, 12.03210
225.6601, 15.70685
226.1423, 16.67340
226.6244, 16.36041
227.1065, 14.81946
227.5886, 11.88651
228.0707, 8.988739
228.5528, 4.735657
229.0350, 1.673920
229.5171, 3.575714
229.9992, 14.79242
230.4813, 22.72958
230.9634, 22.69791
231.4455, 12.74863
231.9276, 9.954590
232.4098, 17.71695
232.8919, 29.96228
233.3740, 38.74408
233.8561, 42.81927
234.3382, 45.73038
234.8203, 47.75012
235.3025, 48.24814
235.7846, 51.97357
236.2667, 61.53885
236.7488, 72.44241
237.2309, 77.91953
237.7130, 73.73798
238.1952, 71.30176
238.6773, 74.71716
239.1594, 85.88873
239.6415, 92.81613
240.1236, 93.60568
240.6057, 91.45294
241.0879, 91.41254
241.5700, 96.47797
242.0521, 98.45572
242.5342, 93.73059
243.0163, 79.93890
243.4984, 71.23358
243.9806, 69.48303
244.4627, 71.49365
244.9448, 72.87860
245.4269, 73.22528
245.9090, 72.89398
246.3911, 72.38153
246.8732, 72.19751
247.3554, 70.01401
247.8375, 65.34088
248.3196, 58.97620
248.8017, 51.77866
249.2838, 42.09320
249.7659, 34.45911
250.2481, 30.54996
250.7302, 31.53204
251.2123, 30.36707
251.6944, 26.84442
252.1765, 22.15009
252.6586, 17.63342
253.1408, 12.56671
253.6229, 8.818481
254.1050, 7.537109
254.5871, 9.510315
255.0692, 9.902405
255.5513, 8.358765
256.0334, 5.011719
256.5156, 0.2913210
256.9977, 9.915100
257.4798, 15.54260
257.9619, 13.64703
258.4440, 2.314697
258.9261, 5.416260
259.4083, 9.672119
259.8904, 10.48407
260.3725, 6.974976
260.8546, 3.649109
261.3367, 12.85046
261.8188, 18.19177
262.3010, 19.72198
262.7831, 17.46246
263.2652, 8.953552
263.7473, 1.019104
264.2294, 5.404602
264.7115, 2.071167
265.1937, 1.536499
265.6758, 3.236877
266.1579, 2.967896
266.6400, 1.586365
267.1221, 1.030090
267.6042, 4.592773
268.0864, 9.175354
268.5685, 15.85797
269.0506, 20.39154
269.5327, 20.95911
270.0148, 17.33392
270.4969, 13.97449
270.9791, 10.25714
271.4612, 7.806946
271.9433, 9.503357
272.4254, 16.43799
272.9075, 22.82092
273.3896, 26.22693
273.8718, 26.65485
274.3539, 29.96106
274.8360, 37.03510
275.3181, 45.36218
275.8002, 51.39984
276.2823, 54.53455
276.7645, 59.12964
277.2466, 67.15204
277.7287, 78.16345
278.2108, 87.17200
278.6929, 94.23840
279.1750, 99.55804
279.6572, 101.7145
280.1393, 99.98285
280.6214, 101.9150
281.1035, 110.3953
281.5856, 124.6855
282.0677, 141.0303
282.5499, 160.7751
283.0320, 178.5117
283.5141, 186.2968
283.9962, 183.9109
284.4783, 183.5414
284.9604, 187.4208
285.4425, 195.9227
285.9247, 212.8757
286.4068, 239.3032
286.8889, 265.9164
287.3710, 282.6959
287.8531, 291.0121
288.3352, 300.5456
288.8174, 312.5524
289.2995, 327.1605
289.7816, 347.9562
290.2637, 375.2683
290.7458, 404.0818
291.2279, 429.6190
291.7101, 452.5858
292.1922, 475.8912
292.6743, 498.7291
293.1564, 522.5004
293.6385, 551.9517
294.1206, 586.8798
294.6028, 621.0071
295.0849, 648.3786
295.5670, 670.8101
296.0491, 695.1245
296.5312, 724.2784
297.0133, 753.9693
297.4955, 778.3140
297.9776, 797.0007
298.4597, 810.9128
298.9418, 817.7906
299.4239, 820.3366
299.9060, 824.6524
300.3882, 833.3215
300.8703, 841.1976
301.3524, 842.4285
301.8345, 837.2339
302.3166, 826.6293
302.7987, 809.4233
303.2809, 787.5461
303.7630, 763.9993
304.2451, 740.1326
304.7272, 712.5346
305.2093, 677.7401
305.6914, 636.1647
306.1736, 591.1848
306.6557, 540.1470
307.1378, 487.7612
307.6199, 439.0562
308.1020, 394.4259
308.5841, 353.6818
309.0663, 316.7498
309.5484, 283.0166
310.0305, 252.5288
310.5126, 225.9219
310.9947, 201.7383
311.4768, 178.9067
311.9590, 157.2708
312.4411, 138.5724
312.9232, 125.8199
313.4053, 116.2569
313.8874, 105.7899
314.3695, 89.36255
314.8517, 73.49432
315.3337, 61.19232
315.8159, 52.92572
316.2980, 52.01886
316.7801, 62.78021
317.2622, 79.96686
317.7443, 97.77411
318.2264, 112.4754
318.7086, 128.1469
319.1907, 145.5986
319.6728, 165.1561
320.1549, 189.6882
320.6370, 217.9166
321.1191, 253.2141
321.6013, 298.4089
322.0834, 362.8005
322.5655, 426.2538
323.0476, 482.3302
323.5297, 532.0021
324.0118, 585.9924
324.4940, 654.2927
324.9761, 722.3760
325.4582, 781.1842
325.9403, 839.0074
326.4224, 876.9280
326.9045, 899.5070
327.3867, 903.2781
327.8688, 870.5154
328.3509, 771.6957
328.8330, 659.3358
329.3151, 555.0765
329.7972, 457.0212
330.2794, 370.3801
330.7615, 294.6785
331.2436, 229.6458
331.7257, 175.8430
332.2078, 133.5972
332.6899, 101.6244
333.1721, 80.88098
333.6542, 76.34229
334.1363, 68.96716
334.6184, 55.47144
335.1005, 41.21667
335.5826, 35.95874
336.0648, 42.71411
336.5469, 52.08862
337.0290, 61.70801
337.5111, 71.82520
337.9932, 80.02014
338.4753, 85.67029
338.9575, 90.24878
339.4396, 95.96350
339.9217, 103.3046
340.4038, 109.5291
340.8859, 114.4579
341.3680, 117.8116
341.8502, 117.5276
342.3323, 113.4390
342.8144, 106.2661
343.2965, 96.07642
343.7786, 82.84058
344.2607, 69.25391
344.7429, 55.78650
345.2250, 42.41309
345.7071, 28.14746
346.1892, 12.69727
346.6713, 0.7629390
347.1534, 7.163086
347.6355, 8.791016
348.1176, 17.20654
348.5998, 37.20825
349.0819, 60.43323
349.5640, 73.66272
350.0461, 77.69592
350.5282, 77.59998
351.0103, 77.38293
351.4925, 75.26355
351.9746, 66.59875
352.4567, 49.50244
352.9388, 30.77100
353.4209, 19.34607
353.9030, 12.32556
354.3852, 1.801758
354.8673, 19.46997
355.3494, 44.66504
355.8315, 64.69690
356.3136, 78.02966
356.7957, 96.20349
357.2779, 128.9276
357.7600, 171.6650
358.2421, 216.9250
358.7242, 261.8688
359.2063, 308.8262
359.6884, 358.6313
360.1706, 411.3802
360.6527, 468.3630
361.1348, 533.1527
361.6169, 601.3695
362.0990, 668.1726
362.5811, 717.7310
363.0633, 781.1088
363.5454, 874.5225
364.0275, 992.5402
364.5096, 1108.500
364.9917, 1215.170
365.4738, 1318.151
365.9560, 1420.450
366.4381, 1516.064
366.9202, 1619.075
367.4023, 1735.465
367.8844, 1860.945
368.3665, 1984.773
368.8487, 2109.917
369.3308, 2230.797
369.8129, 2344.568
370.2950, 2449.321
370.7771, 2551.960
371.2592, 2660.564
371.7414, 2762.535
372.2235, 2840.844
372.7056, 2884.545
373.1877, 2923.847
373.6698, 2968.352
374.1519, 3018.333
374.6341, 3052.544
375.1162, 3074.333
375.5983, 3074.197
376.0804, 3039.260
376.5625, 2964.305
377.0446, 2879.925
377.5267, 2792.584
378.0089, 2699.895
378.4910, 2592.992
378.9731, 2470.303
379.4552, 2344.635
379.9373, 2228.953
380.4194, 2121.412
380.9016, 2005.189
381.3837, 1873.342
381.8658, 1739.502
382.3479, 1630.192
382.8300, 1543.807
383.3121, 1457.437
383.7943, 1353.424
384.2764, 1241.482
384.7585, 1144.831
385.2406, 1066.537
385.7227, 995.6121
386.2048, 923.6023
386.6870, 851.5577
387.1691, 781.5264
387.6512, 711.9052
388.1333, 647.0588
388.6154, 591.1116
389.0975, 544.2085
389.5797, 503.6696
390.0618, 473.1860
390.5439, 446.3418
391.0260, 415.9648
391.5081, 374.1218
391.9902, 335.9275
392.4724, 312.5970
392.9545, 300.4773
393.4366, 286.3698
393.9187, 262.6088
394.4008, 236.8771
394.8829, 212.7686
395.3651, 189.9651
395.8472, 171.4784
396.3293, 157.8928
396.8114, 149.1178
397.2935, 145.0107
397.7756, 147.2574
398.2578, 152.5140
398.7399, 160.1467
399.2220, 170.3965
399.7041, 181.5784
400.1862, 194.1758
400.6683, 207.3391
401.1505, 219.7362
401.6326, 225.7108
402.1147, 240.1510
402.5968, 265.1179
403.0789, 300.3079
403.5610, 344.5601
404.0432, 401.2510
404.5253, 460.9524
405.0074, 515.2944
405.4895, 560.2980
405.9716, 621.3256
406.4537, 701.2529
406.9359, 794.7185
407.4180, 890.1776
407.9001, 987.4802
408.3822, 1095.552
408.8643, 1223.494
409.3464, 1368.628
409.8285, 1506.668
410.3106, 1634.040
410.7928, 1771.205
411.2749, 1942.693
411.7570, 2145.557
412.2391, 2362.721
412.7212, 2592.362
413.2033, 2833.189
413.6855, 3077.307
414.1676, 3324.984
414.6497, 3589.790
415.1318, 3874.456
415.6139, 4182.462
416.0960, 4513.120
416.5782, 4868.824
417.0603, 5247.905
417.5424, 5654.736
418.0245, 6081.729
418.5066, 6510.149
418.9887, 6960.906
419.4709, 7391.745
419.9530, 7793.007
420.4351, 8164.975
420.9172, 8468.908
421.3993, 8719.004
421.8814, 8879.973
422.3636, 8915.092
422.8457, 8798.929
423.3278, 8576.688
423.8099, 8228.101
424.2920, 7759.204
424.7741, 7286.878
425.2563, 6811.267
425.7384, 6335.154
426.2205, 5866.530
426.7026, 5385.906
427.1847, 4942.617
427.6668, 4538.803
428.1490, 4174.551
428.6311, 3851.898
429.1132, 3571.841
429.5953, 3323.511
430.0774, 3105.858
430.5595, 2918.597
431.0417, 2758.130
431.5238, 2627.929
432.0059, 2518.707
432.4880, 2422.117
432.9701, 2338.079
433.4522, 2264.672
433.9344, 2200.433
434.4165, 2146.630
434.8986, 2102.228
435.3807, 2067.396
435.8628, 2047.984
436.3449, 2054.007
436.8271, 2078.042
437.3092, 2105.005
437.7913, 2133.429
438.2734, 2160.591
438.7555, 2178.609
439.2376, 2193.178
439.7197, 2217.003
440.2018, 2257.150
440.6840, 2308.379
441.1661, 2373.735
441.6482, 2451.771
442.1303, 2518.983
442.6124, 2557.921
443.0945, 2583.165
443.5767, 2607.922
444.0588, 2643.311
444.5409, 2669.561
445.0230, 2685.986
445.5051, 2690.045
445.9872, 2673.828
446.4694, 2620.202
446.9515, 2559.874
447.4336, 2506.004
447.9157, 2467.889
448.3978, 2410.059
448.8799, 2324.964
449.3621, 2225.657
449.8442, 2128.001
450.3263, 2032.714
450.8084, 1939.472
451.2905, 1849.996
451.7726, 1763.386
452.2548, 1666.850
452.7369, 1556.495
453.2190, 1447.517
453.7011, 1348.083
454.1832, 1258.628
454.6653, 1178.481
455.1475, 1108.411
455.6296, 1043.408
456.1117, 971.6684
456.5938, 895.5401
457.0759, 826.4139
457.5580, 776.1145
458.0402, 735.3748
458.5223, 684.9582
459.0044, 624.4963
459.4865, 568.0286
459.9686, 529.0377
460.4507, 499.8268
460.9329, 468.2811
461.4150, 429.6899
461.8971, 391.1890
462.3792, 355.5641
462.8613, 323.6490
463.3434, 296.3499
463.8256, 275.6533
464.3077, 258.6563
464.7898, 244.7420
465.2719, 235.4208
465.7540, 222.8212
466.2361, 200.8526
466.7183, 176.6965
467.2004, 158.0399
467.6825, 149.7273
468.1646, 141.7086
468.6467, 132.5027
469.1288, 122.4106
469.6110, 113.8318
470.0930, 108.1594
470.5752, 101.6771
471.0573, 91.95514
471.5394, 78.10864
472.0215, 64.98828
472.5036, 52.16443
472.9857, 40.89679
473.4679, 33.88733
473.9500, 31.33392
474.4321, 28.27759
474.9142, 22.16632
475.3963, 14.78766
475.8784, 11.46356
476.3606, 12.15851
476.8427, 14.15863
477.3248, 16.52081
477.8069, 18.51514
478.2890, 18.68298
478.7711, 16.63281
479.2533, 13.20703
479.7354, 8.317627
480.2175, 2.632202
480.6996, 2.492371
481.1817, 6.429199
481.6638, 9.535645
482.1460, 12.34698
482.6281, 14.82550
483.1102, 15.63757
483.5923, 13.85809
484.0744, 10.54077
484.5565, 6.397217
485.0387, 2.452515
485.5208, 7.021851
486.0029, 3.902649
486.4850, 3.792664
486.9671, 9.346313
487.4492, 11.05737
487.9314, 12.95935
488.4135, 16.89471
488.8956, 23.18463
489.3777, 25.82922
489.8598, 23.69482
490.3419, 20.22247
490.8241, 19.32349
491.3062, 21.34027
491.7883, 19.69702
492.2704, 11.50366
492.7525, 1.647461
493.2346, 1.831299
493.7168, 11.11273
494.1989, 19.54834
494.6810, 21.67999
495.1631, 19.18073
495.6452, 13.92737
496.1273, 5.857910
496.6095, 0.6098020
497.0916, 1.411072
497.5737, 1.615112
498.0558, 6.444702
498.5379, 16.47906
499.0201, 22.93457
499.5022, 17.22784
499.9843, 3.522705
500.4664, 6.351379
500.9485, 6.199524
501.4306, 3.058655
501.9127, 0.3890380
502.3948, 4.130798
502.8770, 7.195984
503.3591, 11.14890
503.8412, 13.37155
504.3233, 11.03049
504.8054, 0.9478450
505.2875, 7.794006
505.7697, 5.488281
506.2518, 2.568329
506.7339, 3.462646
507.2160, 4.905670
507.6981, 12.92181
508.1802, 14.93588
508.6624, 11.37921
509.1445, 11.10745
509.6266, 14.74066
510.1087, 18.38492
510.5908, 16.88837
511.0729, 11.69501
511.5551, 7.715393
512.0372, 5.893280
512.5193, 6.439758
513.0014, 10.66611
513.4835, 17.74847
513.9656, 24.91251
514.4478, 32.83032
514.9299, 38.73886
515.4120, 39.43860
515.8941, 34.06552
516.3762, 29.20621
516.8583, 27.02658
517.3405, 26.91760
517.8226, 28.35492
518.3047, 30.94662
518.7868, 35.41638
519.2689, 45.81696
519.7510, 58.53018
520.2332, 61.71796
520.7153, 46.97391
521.1974, 35.29218
521.6795, 35.26276
522.1616, 48.19299
522.6437, 57.99277
523.1259, 64.26337
523.6080, 68.26947
524.0901, 70.75885
524.5722, 71.73380
525.0543, 72.38431
525.5364, 72.56543
526.0186, 73.07294
526.5007, 75.68369
526.9828, 80.07272
527.4649, 84.49585
527.9470, 87.68307
528.4291, 90.52359
528.9113, 94.90317
529.3934, 100.7753
529.8755, 105.0335
530.3576, 104.3002
530.8397, 101.5979
531.3218, 99.63120
531.8040, 97.80658
532.2861, 98.98636
532.7682, 107.5951
533.2503, 119.4447
533.7324, 126.3545
534.2145, 121.0415
534.6967, 117.1870
535.1788, 118.1356
535.6609, 123.9411
536.1430, 131.7093
536.6251, 143.6877
537.1072, 154.0179
537.5894, 156.7471
538.0715, 149.7485
538.5536, 150.6547
539.0357, 162.4522
539.5178, 178.3755
539.9999, 186.6050
540.4821, 187.9926
540.9642, 192.7997
541.4463, 206.2559
541.9284, 224.6347
542.4105, 242.0549
542.8926, 258.6074
543.3748, 274.1963
543.8569, 288.6895
544.3390, 301.9341
544.8211, 312.9017
545.3032, 320.4145
545.7853, 332.3386
546.2675, 356.0152
546.7495, 384.6874
547.2316, 410.7559
547.7137, 425.4242
548.1959, 445.6308
548.6780, 478.6339
549.1601, 521.1168
549.6422, 558.5848
550.1243, 591.8184
550.6064, 619.9296
551.0886, 640.3435
551.5707, 651.0289
552.0528, 666.7315
552.5349, 690.4319
553.0170, 713.2363
553.4991, 727.7780
553.9813, 734.1080
554.4634, 728.0422
554.9455, 706.8842
555.4276, 675.5315
555.9097, 641.2360
556.3918, 603.6561
556.8740, 562.2072
557.3561, 513.5881
557.8382, 464.5166
558.3203, 419.7365
558.8024, 378.8186
559.2845, 343.7982
559.7667, 320.4817
560.2488, 300.2123
560.7309, 275.4053
561.2130, 239.7161
561.6951, 209.1607
562.1772, 188.6989
562.6594, 175.3709
563.1415, 163.1074
563.6236, 149.5448
564.1057, 139.4810
564.5878, 136.2141
565.0699, 138.4683
565.5521, 134.6646
566.0342, 122.5939
566.5163, 110.3692
566.9984, 103.1992
567.4805, 100.7839
567.9626, 97.28650
568.4448, 92.22916
568.9269, 86.90347
569.4090, 82.97711
569.8911, 80.01999
570.3732, 76.73383
570.8553, 72.64508
571.3375, 68.80170
571.8196, 65.98477
572.3017, 64.08359
572.7838, 62.92410
573.2659, 62.08417
573.7480, 61.97025
574.2302, 64.25284
574.7123, 69.12891
575.1944, 69.80872
575.6765, 61.21390
576.1586, 51.17618
576.6407, 44.09296
