##NAMES=Gillespite
##RRUFFID=R061031
##IDEAL CHEMISTRY=BaFe^2+^Si_4_O_10_
##LOCALITY=La Madrelena mine, Tres Pozos, Municipio de Tecate, Baja California Norte, Mexico
##OWNER=RRUFF
##SOURCE=Michael Scott
##DESCRIPTION=Rose-red cleavage fragment embedded in white sanbornite
##STATUS=The identification of this mineral has been confirmed by X-ray diffraction and chemical analysis
##URL=rruff.info/R061031
##MEASURED CHEMISTRY=Ba_1.00_Fe^2+^_1.00_(Si_3.97_Ti_0.03_)_Σ=4_O_10_ ; = host gray phase : (Ba_0.99_K_0.01_)(Al_0.97_Fe^3+^_0.02_Ti_0.01_)_Σ=2_Si_2.00_O_8_ ; = lighter gray inclusion = celsian ; Ba_1.00_CO_3_ = lightest areas = witherite 
122.0099, 0.0000000E+00
122.4920, 11.39291
122.9741, 9.066589
123.4562, 2.106537
123.9384, 4.098145
124.4205, 5.499390
124.9026, 21.32364
125.3847, 36.49646
125.8668, 49.62604
126.3489, 65.96588
126.8311, 86.85815
127.3132, 113.2656
127.7953, 150.1196
128.2774, 202.5007
128.7595, 266.1277
129.2416, 332.1375
129.7238, 401.3002
130.2059, 470.4535
130.6880, 542.0439
131.1701, 612.9814
131.6522, 673.2581
132.1344, 714.7686
132.6165, 740.3879
133.0986, 763.1810
133.5807, 786.1125
134.0628, 801.7043
134.5449, 806.2653
135.0271, 800.8561
135.5092, 789.5195
135.9913, 770.0048
136.4734, 742.8580
136.9555, 728.6375
137.4376, 745.3116
137.9198, 759.0438
138.4019, 748.7529
138.8840, 718.1962
139.3661, 687.6130
139.8482, 677.7111
140.3303, 691.5919
140.8125, 701.8325
141.2946, 700.5754
141.7767, 700.6365
142.2588, 707.3797
142.7409, 721.2068
143.2230, 739.5677
143.7052, 756.7301
144.1873, 767.0866
144.6694, 797.5609
145.1515, 863.3633
145.6336, 937.5941
146.1157, 1011.990
146.5979, 1082.726
147.0800, 1144.310
147.5621, 1187.836
148.0442, 1205.863
148.5263, 1223.475
149.0084, 1250.082
149.4906, 1270.804
149.9727, 1275.944
150.4548, 1263.379
150.9369, 1237.447
151.4190, 1205.469
151.9011, 1173.347
152.3833, 1122.118
152.8654, 1036.414
153.3475, 943.6937
153.8296, 865.4664
154.3117, 808.0046
154.7938, 763.0703
155.2760, 716.0914
155.7581, 660.5433
156.2402, 613.4199
156.7223, 575.6356
157.2044, 545.3269
157.6865, 521.7424
158.1687, 504.5771
158.6508, 491.9814
159.1329, 480.4111
159.6150, 469.5525
160.0971, 460.2175
160.5792, 456.3771
161.0614, 452.3755
161.5435, 441.2143
162.0256, 420.3066
162.5077, 394.1509
162.9898, 373.1575
163.4719, 361.6584
163.9541, 350.6791
164.4362, 339.8746
164.9183, 329.5525
165.4004, 319.6152
165.8825, 309.8863
166.3646, 301.6063
166.8468, 298.0367
167.3289, 304.0561
167.8110, 308.7004
168.2931, 311.0750
168.7752, 311.5214
169.2573, 310.3433
169.7395, 307.6208
170.2216, 303.6126
170.7037, 299.0128
171.1858, 298.0765
171.6679, 291.1073
172.1500, 270.6695
172.6322, 244.6440
173.1143, 225.4390
173.5964, 218.6550
174.0785, 220.2217
174.5606, 219.9191
175.0427, 217.7681
175.5249, 213.8680
176.0070, 207.4116
176.4891, 199.4673
176.9712, 190.0618
177.4533, 179.8785
177.9354, 170.4665
178.4176, 166.3865
178.8997, 172.6456
179.3818, 174.9557
179.8639, 166.0982
180.3460, 151.4638
180.8281, 138.5299
181.3103, 130.3937
181.7924, 126.0286
182.2745, 122.9084
182.7566, 122.9789
183.2387, 120.7844
183.7208, 112.3474
184.2030, 100.7228
184.6851, 92.34167
185.1672, 90.47760
185.6493, 92.02850
186.1314, 88.51514
186.6135, 76.69373
187.0957, 66.97906
187.5778, 64.28021
188.0599, 65.94843
188.5420, 66.49255
189.0241, 63.51526
189.5062, 58.00769
189.9884, 52.49023
190.4705, 47.75488
190.9526, 41.92133
191.4347, 31.79718
191.9168, 20.34192
192.3989, 13.78802
192.8811, 15.20850
193.3632, 21.89038
193.8453, 28.84912
194.3274, 38.10596
194.8095, 42.91504
195.2916, 36.66949
195.7738, 25.05072
196.2559, 19.80200
196.7380, 25.90167
197.2201, 36.77313
197.7022, 38.79102
198.1843, 29.99194
198.6665, 22.24878
199.1486, 18.85852
199.6307, 18.30322
200.1128, 18.51819
200.5949, 19.07385
201.0770, 20.49622
201.5592, 24.19727
202.0413, 30.65112
202.5234, 36.96478
203.0055, 42.59576
203.4876, 47.01379
203.9697, 49.99591
204.4519, 51.46930
204.9340, 50.42480
205.4161, 43.53625
205.8982, 29.15149
206.3803, 19.00128
206.8624, 17.03247
207.3446, 20.21497
207.8267, 25.58856
208.3088, 33.42987
208.7909, 40.97589
209.2730, 43.26617
209.7551, 39.57111
210.2373, 35.87885
210.7194, 32.08820
211.2015, 29.95099
211.6836, 31.98676
212.1657, 38.58936
212.6479, 46.79431
213.1300, 53.27893
213.6121, 58.08362
214.0942, 62.33105
214.5763, 67.10278
215.0584, 70.82971
215.5406, 71.80762
216.0227, 69.71967
216.5048, 64.78839
216.9869, 56.31390
217.4690, 43.73944
217.9511, 33.13025
218.4333, 23.73120
218.9154, 17.27106
219.3975, 17.37775
219.8796, 24.38562
220.3617, 31.33899
220.8438, 30.98010
221.3260, 22.26727
221.8081, 15.60187
222.2902, 13.06873
222.7723, 11.55255
223.2544, 8.197693
223.7365, 2.896423
224.2187, 2.181702
224.7008, 5.177307
225.1829, 5.884216
225.6650, 6.538452
226.1471, 6.917053
226.6292, 7.430908
227.1114, 8.918762
227.5935, 11.10364
228.0756, 12.24780
228.5577, 10.78394
229.0398, 6.821777
229.5219, 3.926331
230.0041, 4.785217
230.4862, 4.157471
230.9683, 2.445679
231.4504, 13.38446
231.9325, 22.81177
232.4146, 27.04028
232.8968, 26.45764
233.3789, 25.05267
233.8610, 20.99841
234.3431, 18.19287
234.8252, 16.85596
235.3073, 17.80054
235.7895, 24.16382
236.2716, 39.04083
236.7537, 58.67102
237.2358, 65.99713
237.7179, 48.96173
238.2000, 35.66541
238.6822, 33.47357
239.1643, 38.72949
239.6464, 46.64117
240.1285, 55.40454
240.6106, 63.60895
241.0927, 67.19489
241.5749, 61.84747
242.0570, 57.21356
242.5391, 55.67181
243.0212, 54.57343
243.5033, 50.49860
243.9854, 42.28198
244.4676, 31.89062
244.9497, 22.83521
245.4318, 13.63379
245.9139, 8.644348
246.3960, 11.38470
246.8781, 16.24408
247.3603, 18.65460
247.8424, 17.47021
248.3245, 14.16901
248.8066, 10.73303
249.2887, 7.440430
249.7708, 3.227966
250.2530, 3.605286
250.7351, 9.991943
251.2172, 13.71173
251.6993, 14.71497
252.1814, 14.62738
252.6635, 15.42261
253.1457, 17.91516
253.6278, 17.17444
254.1099, 8.653748
254.5920, 1.471252
255.0741, 0.9465940
255.5562, 5.693237
256.0384, 10.36218
256.5205, 10.18408
257.0026, 5.038269
257.4847, 2.630493
257.9668, 4.542786
258.4489, 7.795532
258.9311, 13.49664
259.4132, 19.88232
259.8953, 24.10760
260.3774, 24.28967
260.8595, 20.88977
261.3416, 16.05225
261.8238, 5.978088
262.3059, 0.2354130
262.7880, 2.106934
263.2701, 8.224121
263.7522, 11.90955
264.2343, 10.02301
264.7165, 5.386169
265.1986, 5.370850
265.6807, 13.69684
266.1628, 18.70587
266.6449, 14.97339
267.1270, 8.991638
267.6092, 7.136902
268.0913, 11.40479
268.5734, 16.74298
269.0555, 14.94019
269.5376, 3.759644
270.0197, 4.338745
270.5019, 4.213196
270.9840, 2.018127
271.4661, 0.5921020
271.9482, 0.4389650
272.4303, 1.716431
272.9124, 5.266785
273.3946, 11.04346
273.8767, 15.53278
274.3588, 17.03003
274.8409, 18.60547
275.3230, 21.62317
275.8051, 26.26080
276.2873, 33.19611
276.7694, 45.47681
277.2515, 60.69342
277.7336, 69.30139
278.2157, 66.84973
278.6978, 66.14618
279.1800, 79.04614
279.6621, 100.5335
280.1442, 119.0536
280.6263, 129.5263
281.1084, 135.2162
281.5905, 139.1908
282.0727, 140.7051
282.5548, 146.1501
283.0369, 162.9523
283.5190, 186.0504
284.0011, 203.6230
284.4832, 211.6938
284.9654, 216.8220
285.4475, 222.3622
285.9296, 228.7632
286.4117, 238.5308
286.8938, 252.5114
287.3759, 271.1346
287.8581, 295.0255
288.3402, 327.0399
288.8223, 358.3171
289.3044, 382.9624
289.7865, 404.1017
290.2686, 428.4867
290.7508, 458.7231
291.2329, 491.7020
291.7150, 522.3411
292.1971, 549.3494
292.6792, 578.4016
293.1613, 609.8076
293.6435, 644.0387
294.1256, 682.7569
294.6077, 725.3132
295.0898, 766.9134
295.5719, 802.5587
296.0540, 830.6826
296.5362, 860.2516
297.0183, 894.9788
297.5004, 927.5366
297.9825, 953.4769
298.4646, 973.3718
298.9467, 991.0455
299.4289, 1010.006
299.9110, 1029.711
300.3931, 1041.029
300.8752, 1042.824
301.3573, 1037.894
301.8394, 1027.514
302.3216, 1010.525
302.8037, 984.2747
303.2858, 947.1638
303.7679, 902.0630
304.2500, 857.0591
304.7321, 812.2275
305.2143, 767.1227
305.6964, 722.4524
306.1785, 676.9984
306.6606, 629.1668
307.1427, 578.5302
307.6248, 526.7960
308.1070, 475.3660
308.5891, 422.7915
309.0712, 375.9285
309.5533, 339.8765
310.0354, 306.2588
310.5175, 270.9628
310.9997, 234.1262
311.4818, 198.6936
311.9639, 166.0502
312.4460, 136.5452
312.9281, 112.9686
313.4102, 96.28918
313.8924, 83.87988
314.3745, 73.54883
314.8566, 66.55298
315.3387, 64.62030
315.8208, 68.63745
316.3029, 77.58539
316.7851, 90.26758
317.2672, 106.8887
317.7493, 125.7060
318.2314, 144.7903
318.7135, 167.1287
319.1956, 195.7667
319.6778, 230.3153
320.1599, 273.9507
320.6420, 332.1091
321.1241, 402.1854
321.6062, 472.8280
322.0883, 539.5629
322.5705, 608.0526
323.0526, 688.5051
323.5347, 783.1709
324.0168, 870.9460
324.4989, 951.5884
324.9810, 1020.394
325.4632, 1074.285
325.9453, 1112.498
326.4274, 1125.350
326.9095, 1102.561
327.3916, 1040.235
327.8737, 960.8882
328.3559, 853.2816
328.8380, 738.9911
329.3201, 625.2328
329.8022, 515.1295
330.2843, 412.5851
330.7664, 319.4346
331.2486, 237.6136
331.7307, 178.7583
332.2128, 161.1580
332.6949, 145.0587
333.1770, 122.6807
333.6591, 100.1260
334.1413, 85.39258
334.6234, 81.22620
335.1055, 83.39868
335.5876, 83.87402
336.0698, 78.13464
336.5519, 81.40063
337.0340, 102.7313
337.5161, 125.0623
337.9982, 137.9467
338.4803, 141.4166
338.9625, 142.3661
339.4446, 146.6614
339.9267, 154.2245
340.4088, 161.9594
340.8909, 173.0155
341.3730, 179.6084
341.8552, 178.2715
342.3373, 170.8949
342.8194, 160.8247
343.3015, 149.7524
343.7836, 136.5476
344.2657, 117.8333
344.7479, 92.29749
345.2300, 69.14380
345.7121, 53.27576
346.1942, 41.05432
346.6763, 28.12415
347.1584, 13.80945
347.6406, 4.2847000E-02
348.1227, 11.99243
348.6048, 22.50708
349.0869, 32.24390
349.5690, 41.38879
350.0511, 49.76294
350.5333, 58.49316
351.0154, 67.86023
351.4975, 70.35876
351.9796, 59.47021
352.4617, 44.58984
352.9438, 36.15430
353.4260, 33.65613
353.9081, 27.07153
354.3902, 8.409668
354.8723, 21.00256
355.3544, 46.28247
355.8365, 59.77832
356.3187, 78.71936
356.8008, 112.4474
357.2829, 153.5271
357.7650, 188.9143
358.2471, 213.3921
358.7292, 236.1256
359.2114, 276.3350
359.6935, 347.0554
360.1756, 411.7043
360.6577, 461.9397
361.1398, 513.6492
361.6219, 577.9021
362.1041, 654.4937
362.5862, 734.8939
363.0683, 809.1372
363.5504, 878.1552
364.0325, 963.5016
364.5146, 1076.977
364.9968, 1192.114
365.4789, 1294.950
365.9610, 1394.286
366.4431, 1502.565
366.9252, 1626.597
367.4073, 1759.882
367.8895, 1894.532
368.3716, 2029.727
368.8537, 2167.123
369.3358, 2308.294
369.8179, 2449.755
370.3000, 2589.513
370.7822, 2728.024
371.2643, 2855.326
371.7464, 2963.890
372.2285, 3056.698
372.7106, 3143.802
373.1927, 3229.051
373.6749, 3292.922
374.1570, 3313.931
374.6391, 3291.056
375.1212, 3261.191
375.6033, 3233.581
376.0854, 3192.262
376.5676, 3126.125
377.0497, 3037.699
377.5318, 2934.670
378.0139, 2819.721
378.4960, 2695.083
378.9781, 2568.879
379.4603, 2437.763
379.9424, 2307.626
380.4245, 2177.413
380.9066, 2048.679
381.3887, 1920.505
381.8708, 1793.383
382.3530, 1671.706
382.8351, 1560.418
383.3172, 1461.171
383.7993, 1360.810
384.2814, 1255.759
384.7635, 1153.425
385.2457, 1053.313
385.7278, 958.3914
386.2099, 874.1396
386.6920, 803.9576
387.1741, 743.8379
387.6563, 685.8770
388.1384, 629.8331
388.6205, 577.0354
389.1026, 529.7155
389.5847, 485.0282
390.0668, 439.4010
390.5490, 392.2391
391.0311, 349.9110
391.5132, 317.9714
391.9953, 293.6445
392.4774, 271.7357
392.9595, 252.0011
393.4417, 231.5308
393.9238, 206.2268
394.4059, 176.7487
394.8880, 153.2990
395.3701, 137.4688
395.8522, 126.8163
396.3344, 120.8248
396.8165, 118.9193
397.2986, 120.5012
397.7807, 125.6093
398.2628, 132.5466
398.7449, 137.1489
399.2271, 134.9440
399.7092, 137.0414
400.1913, 145.7941
400.6734, 156.9868
401.1555, 166.4902
401.6376, 174.6604
402.1198, 185.3667
402.6019, 201.2198
403.0840, 222.4457
403.5661, 254.3173
404.0482, 304.8645
404.5303, 355.8585
405.0125, 396.9755
405.4946, 436.6083
405.9767, 485.7050
406.4588, 548.9813
406.9409, 619.9916
407.4230, 688.0532
407.9052, 753.4430
408.3873, 831.8137
408.8694, 924.9531
409.3515, 1035.510
409.8336, 1165.840
410.3157, 1315.188
410.7979, 1478.038
411.2800, 1646.628
411.7621, 1830.988
412.2442, 2042.507
412.7263, 2280.733
413.2084, 2542.692
413.6906, 2827.801
414.1727, 3135.316
414.6548, 3473.792
415.1369, 3846.999
415.6190, 4238.179
416.1011, 4637.133
416.5833, 5055.897
417.0654, 5516.114
417.5475, 6020.148
418.0296, 6536.943
418.5117, 7034.871
418.9938, 7520.847
419.4760, 7958.066
419.9581, 8381.604
420.4402, 8717.986
420.9223, 8950.407
421.4044, 9074.449
421.8865, 9084.204
422.3687, 8975.480
422.8508, 8754.442
423.3329, 8421.196
423.8150, 7965.575
424.2971, 7459.244
424.7792, 6878.259
425.2614, 6293.780
425.7435, 5769.446
426.2256, 5310.859
426.7077, 4891.178
427.1898, 4510.463
427.6719, 4159.987
428.1541, 3817.868
428.6362, 3483.054
429.1183, 3187.281
429.6004, 2954.155
430.0825, 2779.160
430.5646, 2615.120
431.0468, 2457.653
431.5289, 2315.318
432.0110, 2188.479
432.4931, 2078.824
432.9752, 1990.989
433.4573, 1925.788
433.9395, 1876.223
434.4216, 1832.187
434.9037, 1791.651
435.3858, 1766.848
435.8679, 1756.541
436.3500, 1763.361
436.8322, 1799.426
437.3143, 1852.164
437.7964, 1896.774
438.2785, 1917.944
438.7606, 1931.788
439.2427, 1971.320
439.7249, 2040.799
440.2070, 2108.335
440.6891, 2171.292
441.1712, 2223.726
441.6533, 2255.485
442.1354, 2266.924
442.6176, 2284.937
443.0997, 2334.540
443.5818, 2391.038
444.0639, 2419.838
444.5460, 2419.212
445.0281, 2407.148
445.5103, 2394.347
445.9924, 2379.554
446.4745, 2356.208
446.9566, 2331.507
447.4387, 2291.173
447.9208, 2227.095
448.4030, 2149.131
448.8851, 2065.298
449.3672, 1978.678
449.8493, 1890.257
450.3314, 1801.975
450.8135, 1714.278
451.2957, 1618.903
451.7778, 1505.263
452.2599, 1396.401
452.7420, 1296.339
453.2241, 1206.273
453.7062, 1129.071
454.1884, 1067.474
454.6705, 1010.558
455.1526, 942.9958
455.6347, 865.8596
456.1168, 798.1724
456.5989, 745.7393
457.0811, 700.4146
457.5632, 654.3146
458.0453, 607.5551
458.5274, 564.7255
459.0095, 525.8876
459.4916, 491.6015
459.9738, 465.7567
460.4559, 445.4996
460.9380, 422.0314
461.4201, 390.9382
461.9022, 355.0090
462.3843, 319.5603
462.8665, 279.2716
463.3486, 249.8286
463.8307, 238.0754
464.3128, 230.7825
464.7949, 221.3564
465.2770, 208.9069
465.7592, 193.9180
466.2413, 175.5820
466.7234, 156.0620
467.2055, 144.1794
467.6876, 143.3644
468.1697, 140.1970
468.6519, 128.8025
469.1340, 113.9282
469.6161, 98.47894
470.0982, 82.52673
470.5803, 69.32391
471.0624, 62.38086
471.5446, 58.78259
472.0267, 53.47485
472.5088, 45.93549
472.9909, 38.38550
473.4730, 32.04602
473.9551, 27.00226
474.4373, 23.72711
474.9194, 27.03101
475.4015, 25.42615
475.8836, 12.49817
476.3657, 4.142944
476.8478, 17.57739
477.3300, 25.94409
477.8121, 29.21014
478.2942, 26.28577
478.7763, 17.00623
479.2584, 9.681641
479.7405, 3.690186
480.2227, 0.7483520
480.7048, 2.583069
481.1869, 6.931335
481.6690, 10.81494
482.1511, 13.30640
482.6332, 16.04742
483.1154, 22.33289
483.5975, 30.45117
484.0796, 32.75989
484.5617, 26.88025
485.0438, 19.46808
485.5259, 16.64539
486.0081, 18.07861
486.4902, 16.94598
486.9723, 7.992676
487.4544, 2.027588
487.9365, 7.002014
488.4186, 17.11578
488.9008, 23.02283
489.3829, 21.63739
489.8650, 16.47882
490.3471, 12.23755
490.8292, 9.063049
491.3113, 6.076111
491.7935, 1.889648
492.2756, 0.5769040
492.7577, 1.264771
493.2398, 5.113525
493.7219, 7.039429
494.2040, 5.225159
494.6862, 2.028748
495.1683, 0.5683590
495.6504, 0.5362550
496.1325, 1.304749
496.6146, 6.707581
497.0967, 11.53888
497.5789, 9.676147
498.0610, 1.899780
498.5431, 3.8268998E-02
499.0252, 13.14923
499.5073, 24.63080
499.9895, 23.25061
500.4716, 13.62872
500.9537, 4.892456
501.4358, 0.5407100
501.9179, 0.8073120
502.4001, 1.259888
502.8822, 0.8343510
503.3643, 0.5960080
503.8464, 4.265808
504.3285, 7.746094
504.8106, 8.679932
505.2928, 9.039917
505.7749, 13.45435
506.2570, 25.51740
506.7391, 37.58319
507.2212, 38.60614
507.7033, 29.57306
508.1855, 20.15649
508.6676, 10.79279
509.1497, 5.340210
509.6318, 11.18024
510.1139, 27.55792
510.5960, 36.00952
511.0782, 27.22119
511.5603, 17.76892
512.0424, 16.96747
512.5245, 21.98755
513.0066, 27.23578
513.4887, 30.57269
513.9708, 32.82233
514.4529, 35.18817
514.9351, 37.76965
515.4172, 40.00214
515.8993, 40.81293
516.3814, 42.41962
516.8635, 47.11987
517.3456, 52.87970
517.8278, 55.83881
518.3099, 53.95343
518.7920, 50.60571
519.2741, 48.95706
519.7562, 48.96063
520.2383, 50.25092
520.7205, 52.96069
521.2026, 56.04852
521.6847, 58.66110
522.1668, 60.78864
522.6489, 62.64633
523.1310, 63.29865
523.6132, 64.68921
524.0953, 69.25522
524.5774, 74.46973
525.0595, 76.45822
525.5416, 74.14600
526.0237, 69.77637
526.5059, 65.52496
526.9880, 61.16956
527.4701, 59.66391
527.9522, 62.07806
528.4343, 65.92825
528.9164, 71.24658
529.3986, 76.90414
529.8807, 81.75482
530.3628, 86.03165
530.8449, 87.45157
531.3270, 80.19363
531.8091, 69.59668
532.2913, 69.51627
532.7734, 82.26907
533.2555, 94.76459
533.7376, 95.53400
534.2197, 86.22595
534.7018, 84.12048
535.1840, 96.55377
535.6661, 106.8492
536.1482, 110.5988
536.6303, 112.9644
537.1124, 119.3070
537.5945, 129.6638
538.0767, 138.4809
538.5588, 139.1124
539.0409, 133.8662
539.5230, 136.1592
540.0051, 148.5829
540.4872, 160.1842
540.9694, 166.3263
541.4515, 169.1889
541.9336, 170.9485
542.4157, 171.4200
542.8978, 176.2720
543.3799, 187.6642
543.8621, 203.7227
544.3442, 224.7502
544.8263, 249.9622
545.3084, 274.6864
545.7905, 295.6452
546.2726, 313.5985
546.7548, 330.8459
547.2369, 343.9536
547.7190, 364.9269
548.2011, 398.4760
548.6832, 435.3044
549.1653, 471.1815
549.6475, 505.9632
550.1296, 540.6636
550.6117, 577.0897
551.0938, 610.7302
551.5759, 634.4305
552.0580, 649.0974
552.5402, 661.0601
553.0223, 673.2361
553.5044, 679.1878
553.9865, 670.9933
554.4686, 647.1317
554.9507, 621.0186
555.4329, 592.2693
555.9150, 561.0388
556.3971, 527.2945
556.8792, 492.2011
557.3613, 455.0833
557.8434, 415.8150
558.3256, 376.8494
558.8077, 341.4542
559.2898, 309.7786
559.7719, 279.1730
560.2540, 248.1798
560.7361, 221.1702
561.2183, 202.4085
561.7004, 188.3715
562.1825, 174.8203
562.6646, 160.6303
563.1467, 148.2496
563.6288, 141.2405
564.1110, 135.8886
564.5931, 125.8314
565.0752, 110.8924
565.5573, 96.15573
566.0394, 84.94092
566.5215, 76.88342
567.0037, 71.36551
567.4858, 72.30038
567.9679, 70.47214
568.4500, 60.29761
568.9321, 50.75235
569.4142, 49.58817
569.8964, 54.92892
570.3785, 58.09399
570.8606, 52.48990
571.3427, 44.50461
571.8248, 44.40765
572.3069, 50.95648
572.7891, 55.27698
573.2712, 54.82800
573.7533, 51.24347
574.2354, 45.31461
574.7175, 36.30118
575.1996, 32.99026
575.6818, 43.05829
576.1639, 49.59842
576.6460, 42.34586
577.1281, 29.90634
577.6102, 24.49814
578.0923, 29.08945
578.5745, 36.16751
579.0566, 37.34964
579.5387, 33.43243
580.0208, 31.63086
580.5029, 32.79788
580.9850, 33.18365
581.4672, 30.68304
581.9493, 26.49557
582.4315, 22.65753
582.9136, 18.85315
583.3957, 16.45258
583.8778, 15.26266
584.3599, 16.06345
584.8420, 21.29556
585.3242, 29.40057
585.8063, 35.45627
586.2884, 36.74600
586.7705, 34.90125
587.2526, 33.88550
