##NAMES=Gmelinite-Na
##RRUFFID=R060168
##IDEAL CHEMISTRY=Na_4_(Si_8_Al_4_)O_24_&#183;11H_2_O
##LOCALITY=Five Islands, Nova Scotia, Canada
##OWNER=RRUFF
##SOURCE=Guy Ouellet
##DESCRIPTION=Salmon-red interpenetrating prismatic rhombohedral crystals
##STATUS=The identification of this mineral has been confirmed by X-ray diffraction and chemical analysis
##URL=rruff.info/R060168
##MEASURED CHEMISTRY=(Na_3.90_Ca_0.10_)_Σ=4_(Si_7.90_Al_4.10_)_Σ=12_O_24_·8.98H_2_O
200.2485, 0.0000000E+00
200.7306, 0.2600820
201.2127, 0.1650050
201.6948, 7.9577997E-02
202.1769, 0.2985730
202.6591, 0.3104670
203.1412, 0.2038000
203.6233, 4.6528000E-02
204.1054, 4.2015001E-02
204.5875, 0.1144260
205.0696, 0.4736560
205.5518, 0.5983660
206.0339, 0.3881340
206.5160, 0.1587220
206.9981, 0.3098220
207.4802, 0.9601520
207.9623, 1.432289
208.4445, 1.515503
208.9266, 1.234581
209.4087, 1.086021
209.8908, 1.111027
210.3729, 1.203297
210.8550, 1.206444
211.3372, 1.096725
211.8193, 1.023369
212.3014, 1.030823
212.7835, 1.121239
213.2656, 1.211609
213.7477, 1.329025
214.2299, 1.432922
214.7120, 1.450302
215.1941, 1.309673
215.6762, 1.238571
216.1583, 1.343201
216.6404, 1.661095
217.1226, 1.893787
217.6047, 1.913315
218.0868, 1.816525
218.5689, 1.649403
219.0510, 1.336548
219.5331, 1.091331
220.0153, 0.9510840
220.4974, 0.9254000
220.9795, 1.100353
221.4616, 1.550415
221.9437, 2.059059
222.4258, 2.325382
222.9080, 2.222843
223.3901, 2.119316
223.8722, 2.114220
224.3543, 2.197334
224.8364, 2.187618
225.3185, 2.036770
225.8007, 1.757519
226.2828, 1.475330
226.7649, 1.233723
227.2470, 0.9955180
227.7291, 0.7988950
228.2112, 0.6379090
228.6934, 0.5665610
229.1755, 0.6473540
229.6576, 0.7860740
230.1397, 0.8638990
230.6218, 0.8909660
231.1039, 0.8372750
231.5861, 0.6778160
232.0682, 0.3824840
232.5503, 0.1541960
233.0324, 6.2259999E-03
233.5145, 8.5005000E-02
233.9966, 0.1008150
234.4788, 3.5976000E-02
234.9609, 0.1724830
235.4430, 0.2317810
235.9251, 0.1805630
236.4072, 0.1522660
236.8893, 0.1207770
237.3715, 0.1089900
237.8536, 0.1350940
238.3357, 0.2158950
238.8178, 0.3123040
239.2999, 0.4314820
239.7820, 0.5920560
240.2642, 0.6249070
240.7463, 0.4278760
241.2284, 0.1772980
241.7105, 0.1195950
242.1926, 0.4087850
242.6747, 0.6204190
243.1569, 0.6104740
243.6390, 0.3367460
244.1211, 0.2106610
244.6032, 0.3291230
245.0853, 0.5073410
245.5674, 0.5156760
246.0496, 0.2314400
246.5317, 6.1070002E-03
247.0138, 6.0495000E-02
247.4959, 5.1212002E-02
247.9780, 9.5468998E-02
248.4601, 4.4114999E-02
248.9423, 4.4674002E-02
249.4244, 0.1143070
249.9065, 0.1825280
250.3886, 0.1915650
250.8707, 9.6458003E-02
251.3528, 0.1109500
251.8350, 0.2002890
252.3171, 9.9228002E-02
252.7992, 4.1342001E-02
253.2813, 5.1126000E-02
253.7634, 0.1583900
254.2455, 0.3008040
254.7277, 0.2881300
255.2098, 0.1156120
255.6919, 4.9458999E-02
256.1740, 0.1356070
256.6561, 0.2699070
257.1382, 0.3539560
257.6204, 0.3728520
258.1025, 0.4118940
258.5846, 0.4342290
259.0667, 0.4411680
259.5488, 0.4725210
260.0309, 0.5494440
260.5131, 0.6235770
260.9952, 0.6529390
261.4773, 0.6326370
261.9594, 0.5723500
262.4415, 0.4629760
262.9236, 0.3114760
263.4058, 0.2363220
263.8879, 0.2691290
264.3700, 0.3191550
264.8521, 0.2951470
265.3342, 0.1454320
265.8163, 0.1071890
266.2985, 0.2546630
266.7806, 0.5458280
267.2627, 0.7589440
267.7448, 0.9090190
268.2269, 0.9456770
268.7090, 0.7781120
269.1912, 0.3194220
269.6733, 3.0560000E-02
270.1554, 1.2522000E-02
270.6375, 0.1929470
271.1196, 0.2707080
271.6017, 0.2018870
272.0839, 0.1507030
272.5660, 0.2558120
273.0481, 0.5526920
273.5302, 0.7745550
274.0123, 0.8944890
274.4944, 0.9264550
274.9766, 0.8981170
275.4587, 0.7964970
275.9408, 0.6884990
276.4229, 0.6087800
276.9050, 0.5556870
277.3871, 0.5512500
277.8693, 0.6151700
278.3514, 0.7097780
278.8335, 0.7440850
279.3156, 0.7092440
279.7977, 0.6706660
280.2798, 0.6371500
280.7620, 0.6083490
281.2441, 0.7115210
281.7262, 0.9898300
282.2083, 1.334484
282.6904, 1.562277
283.1725, 1.669901
283.6547, 1.704777
284.1368, 1.616961
284.6189, 1.430002
285.1010, 1.454453
285.5831, 1.733971
286.0652, 2.121147
286.5474, 2.429491
287.0295, 2.660536
287.5116, 2.823431
287.9937, 2.917189
288.4758, 2.944235
288.9579, 2.881756
289.4401, 2.704861
289.9222, 2.556681
290.4043, 2.630676
290.8864, 2.906601
291.3685, 3.227839
291.8506, 3.575918
292.3328, 3.934669
292.8149, 4.225716
293.2970, 4.450562
293.7791, 4.589867
294.2612, 4.512093
294.7433, 4.297691
295.2255, 4.287430
295.7076, 4.738323
296.1897, 5.383358
296.6718, 5.653868
297.1539, 5.557272
297.6360, 5.392908
298.1182, 5.339136
298.6003, 5.407097
299.0824, 5.652258
299.5645, 6.206888
300.0466, 6.838100
300.5287, 7.136766
301.0109, 7.141628
301.4930, 7.178673
301.9751, 7.575100
302.4572, 8.175055
302.9393, 8.679428
303.4214, 9.016376
303.9036, 9.280230
304.3857, 9.520588
304.8678, 9.759062
305.3499, 10.09414
305.8320, 10.58918
306.3141, 11.17923
306.7963, 11.77207
307.2784, 12.39342
307.7605, 12.97187
308.2426, 13.39327
308.7247, 13.73139
309.2068, 14.14551
309.6890, 14.80760
310.1711, 15.53086
310.6532, 16.13768
311.1353, 16.57061
311.6174, 17.04488
312.0995, 17.72985
312.5817, 18.51866
313.0638, 19.24781
313.5459, 19.84413
314.0280, 20.37621
314.5101, 20.85642
314.9922, 21.28485
315.4744, 21.76874
315.9565, 22.38185
316.4386, 23.06192
316.9207, 23.72787
317.4028, 24.49285
317.8849, 25.13327
318.3671, 25.48342
318.8492, 25.56252
319.3313, 25.71094
319.8134, 26.25595
320.2955, 26.80665
320.7776, 27.04609
321.2598, 26.54411
321.7419, 26.11478
322.2240, 26.04072
322.7061, 26.23684
323.1882, 26.25862
323.6703, 25.91547
324.1525, 25.45287
324.6346, 25.00773
325.1167, 24.65895
325.5988, 24.23094
326.0809, 23.66653
326.5630, 23.00733
327.0452, 22.36333
327.5273, 21.75668
328.0094, 21.16125
328.4915, 20.58731
328.9736, 20.10919
329.4557, 19.48151
329.9379, 18.61597
330.4200, 17.62877
330.9021, 16.70812
331.3842, 15.81430
331.8663, 15.02485
332.3484, 14.39018
332.8306, 13.95907
333.3127, 13.42063
333.7948, 12.68796
334.2769, 11.92241
334.7590, 11.32847
335.2411, 11.00640
335.7233, 10.62020
336.2054, 10.07822
336.6875, 9.390381
337.1696, 8.807501
337.6517, 8.376760
338.1339, 7.963554
338.6160, 7.431185
339.0981, 6.725864
339.5802, 6.169855
340.0623, 5.843784
340.5444, 5.683357
341.0266, 5.497826
341.5087, 5.281952
341.9908, 5.052692
342.4729, 4.828365
342.9550, 4.610647
343.4371, 4.320293
343.9193, 3.926085
344.4014, 3.506453
344.8835, 3.202925
345.3656, 3.015198
345.8477, 2.899679
346.3298, 2.890158
346.8120, 2.947754
347.2941, 2.877508
347.7762, 2.655159
348.2583, 2.412508
348.7404, 2.356691
349.2225, 2.433990
349.7047, 2.409843
350.1868, 2.081190
350.6689, 1.646542
351.1510, 1.495829
351.6331, 1.624659
352.1152, 1.775970
352.5974, 1.706638
353.0795, 1.511713
353.5616, 1.372244
354.0437, 1.371195
354.5258, 1.402285
355.0079, 1.389538
355.4901, 1.325855
355.9722, 1.181231
356.4543, 0.8759460
356.9364, 0.5099470
357.4185, 0.1511420
357.9006, 0.2426570
358.3828, 0.4767950
358.8649, 0.2476710
359.3470, 0.2243120
359.8291, 0.4949230
360.3112, 0.1316010
360.7933, 0.3124790
361.2755, 0.4646420
361.7576, 0.2391030
362.2397, 0.1066610
362.7218, 0.4272990
363.2039, 0.8714710
363.6860, 1.071346
364.1682, 0.6144010
364.6503, 0.2063850
365.1324, 0.1331630
365.6145, 0.3809190
366.0966, 0.5274790
366.5787, 0.3429110
367.0609, 0.1359270
367.5430, 0.1042020
368.0251, 0.5228960
368.5072, 0.8118270
368.9893, 0.8828960
369.4714, 0.7884140
369.9536, 0.6915760
370.4357, 0.5955350
370.9178, 0.4923780
371.3999, 0.3681560
371.8820, 0.1715660
372.3641, 9.4221003E-02
372.8463, 0.2219350
373.3284, 0.4135760
373.8105, 0.4430430
374.2926, 0.2508140
374.7747, 2.9031999E-02
375.2568, 0.1690960
375.7390, 0.3439520
376.2211, 0.5721950
376.7032, 0.9139840
377.1853, 1.188068
377.6674, 1.135681
378.1495, 0.6937160
378.6317, 0.5131380
379.1138, 0.7993680
379.5959, 1.378132
380.0780, 1.723028
380.5601, 1.819199
381.0422, 1.823801
381.5244, 1.784748
382.0065, 1.726858
382.4886, 1.809202
382.9707, 2.078836
383.4528, 2.404867
383.9349, 2.588823
384.4171, 2.657284
384.8992, 2.752111
385.3813, 2.993620
385.8634, 3.292868
386.3455, 3.500582
386.8276, 3.609190
387.3098, 3.671318
387.7919, 3.696230
388.2740, 3.711563
388.7561, 3.762672
389.2382, 3.822178
389.7203, 3.964155
390.2025, 4.334286
390.6846, 4.873981
391.1667, 5.317654
391.6488, 5.394855
392.1309, 5.373173
392.6130, 5.483698
393.0952, 5.813868
393.5773, 6.181124
394.0594, 6.536863
394.5415, 6.872368
395.0236, 7.171383
395.5057, 7.314928
395.9879, 7.521671
396.4700, 7.909258
396.9521, 8.518833
397.4342, 9.092945
397.9163, 9.506840
398.3984, 9.908930
398.8806, 10.43463
399.3627, 11.19980
399.8448, 11.96725
400.3269, 12.70522
400.8090, 13.42316
401.2911, 14.16014
401.7733, 14.90907
402.2554, 15.69178
402.7375, 16.52066
403.2196, 17.40327
403.7017, 18.32818
404.1838, 19.33048
404.6660, 20.34183
405.1481, 21.16893
405.6302, 21.74133
406.1123, 22.41213
406.5944, 23.37459
407.0765, 24.60946
407.5587, 25.60344
408.0408, 26.34602
408.5229, 26.91207
409.0050, 27.33802
409.4871, 27.62954
409.9692, 27.91729
410.4514, 28.27132
410.9335, 28.59371
411.4156, 28.65969
411.8977, 28.48176
412.3798, 28.21665
412.8619, 27.97494
413.3441, 27.72102
413.8262, 27.39486
414.3083, 26.99628
414.7904, 26.48812
415.2725, 25.77383
415.7546, 24.90190
416.2368, 23.98805
416.7189, 23.10061
417.2010, 22.25014
417.6831, 21.43021
418.1652, 20.62639
418.6473, 19.73452
419.1295, 18.68135
419.6116, 17.58590
420.0937, 16.54311
420.5758, 15.56473
421.0579, 14.56814
421.5400, 13.49223
422.0222, 12.42781
422.5043, 11.46477
422.9864, 10.61554
423.4685, 9.835880
423.9506, 9.100666
424.4327, 8.401031
424.9149, 7.880627
425.3970, 7.725437
425.8791, 7.609619
426.3612, 7.226810
426.8433, 6.379925
427.3254, 5.627155
427.8076, 5.070801
428.2897, 4.680332
428.7718, 4.264343
429.2539, 3.795223
429.7360, 3.370396
430.2181, 3.077740
430.7003, 2.943977
431.1824, 2.644398
431.6645, 2.109802
432.1466, 1.537731
432.6287, 1.264488
433.1108, 1.288815
433.5930, 1.390350
434.0751, 1.564659
434.5572, 1.744118
435.0393, 1.649216
435.5214, 1.274815
436.0035, 0.8699300
436.4857, 0.5972980
436.9678, 0.4684300
437.4499, 0.5393980
437.9320, 0.9086340
438.4141, 1.307205
438.8962, 1.427025
439.3784, 1.330296
439.8605, 1.199959
440.3426, 1.074284
440.8247, 0.9947700
441.3068, 1.000881
441.7889, 1.099041
442.2711, 1.241898
442.7532, 1.406567
443.2353, 1.603153
443.7174, 1.842079
444.1995, 2.281124
444.6816, 2.599449
445.1638, 2.639107
445.6459, 2.460873
446.1280, 2.347946
446.6101, 2.331390
447.0922, 2.396801
447.5743, 2.551399
448.0565, 2.838261
448.5386, 3.104252
449.0207, 3.392700
449.5028, 3.631584
449.9849, 3.692451
450.4670, 3.433208
450.9492, 3.320042
451.4313, 3.479820
451.9134, 3.878708
452.3955, 4.296978
452.8776, 4.749607
453.3597, 5.146515
453.8419, 5.378246
454.3240, 5.449409
454.8061, 5.635178
455.2882, 5.976009
455.7703, 6.386974
456.2524, 6.731617
456.7346, 7.024647
457.2167, 7.331558
457.6988, 7.678490
458.1809, 8.061893
458.6630, 8.520454
459.1451, 9.042545
459.6273, 9.510181
460.1094, 9.697002
460.5915, 9.818359
461.0736, 10.17786
461.5557, 10.94187
462.0378, 11.74134
462.5200, 12.32932
463.0021, 12.78600
463.4842, 13.25537
463.9663, 13.83344
464.4484, 14.40632
464.9305, 14.88974
465.4127, 15.27333
465.8948, 15.70948
466.3769, 16.21451
466.8590, 16.78925
467.3411, 17.43187
467.8232, 18.12727
468.3054, 18.92621
468.7875, 19.84898
469.2696, 20.86410
469.7517, 21.91625
470.2338, 23.04714
470.7159, 24.12294
471.1981, 25.07964
471.6802, 25.91106
472.1623, 26.76785
472.6444, 27.62227
473.1265, 28.54763
473.6086, 29.60235
474.0908, 30.78570
474.5729, 32.06308
475.0550, 33.43180
475.5371, 34.88450
476.0192, 36.44278
476.5013, 38.09898
476.9835, 39.73472
477.4656, 41.29355
477.9477, 42.80173
478.4298, 44.28963
478.9119, 45.75738
479.3940, 47.23977
479.8762, 48.72847
480.3583, 50.26110
480.8404, 51.89712
481.3225, 53.75493
481.8046, 55.60069
482.2867, 57.20115
482.7689, 58.69080
483.2510, 60.41248
483.7331, 62.78082
484.2152, 65.16513
484.6973, 67.22754
485.1794, 68.85040
485.6616, 70.66299
486.1437, 73.04973
486.6258, 75.44530
487.1079, 77.42545
487.5900, 78.71397
488.0721, 80.05677
488.5543, 81.50593
489.0364, 83.06529
489.5185, 84.78391
490.0006, 86.75758
490.4827, 88.50251
490.9648, 89.68991
491.4470, 90.36155
491.9291, 91.30283
492.4112, 92.56321
492.8933, 93.79175
493.3754, 94.67493
493.8575, 95.25356
494.3397, 95.62261
494.8218, 95.76755
495.3039, 95.73649
495.7860, 95.66576
496.2681, 95.50892
496.7502, 95.09687
497.2324, 94.25850
497.7145, 93.16993
498.1966, 91.93640
498.6787, 90.55128
499.1608, 89.18950
499.6429, 88.12200
500.1251, 87.03349
500.6072, 85.59412
501.0893, 83.56846
501.5714, 81.37785
502.0535, 78.99628
502.5356, 76.52013
503.0178, 74.16290
503.4999, 72.02725
503.9820, 69.85902
504.4641, 67.61646
504.9462, 65.28874
505.4283, 62.89147
505.9105, 60.40837
506.3926, 57.93210
506.8747, 55.51577
507.3568, 53.16085
507.8389, 50.90169
508.3210, 48.81293
508.8032, 46.77615
509.2853, 44.55465
509.7674, 42.15897
510.2495, 39.84515
510.7316, 37.68997
511.2137, 35.67024
511.6959, 33.72600
512.1780, 31.87511
512.6601, 30.09309
513.1422, 28.35275
513.6243, 26.68010
514.1064, 25.12235
514.5886, 23.71527
515.0707, 22.36387
515.5528, 20.93443
516.0349, 19.52001
516.5170, 18.24896
516.9991, 17.27617
517.4813, 16.36650
517.9634, 15.44633
518.4455, 14.51020
518.9276, 13.56267
519.4097, 12.53718
519.8918, 11.58890
520.3740, 10.78558
520.8561, 10.13311
521.3382, 9.531853
521.8203, 8.972198
522.3024, 8.482983
522.7845, 8.107149
523.2667, 7.866991
523.7488, 7.609575
524.2309, 7.312645
524.7130, 6.976938
525.1951, 6.578047
525.6772, 6.116846
526.1594, 5.679119
526.6415, 5.339481
527.1236, 5.043715
527.6057, 4.636826
528.0878, 4.114965
528.5699, 3.654222
529.0521, 3.464077
529.5342, 3.408251
530.0163, 3.305765
530.4984, 3.085968
530.9805, 2.860888
531.4626, 2.686644
531.9448, 2.550167
532.4269, 2.426702
532.9090, 2.383577
533.3911, 2.279589
533.8732, 2.030079
534.3553, 1.628578
534.8375, 1.280312
535.3196, 0.9497720
535.8017, 0.7173500
536.2838, 0.6489350
536.7659, 0.8371390
537.2480, 0.9297050
537.7302, 0.9246200
538.2123, 0.8235720
538.6944, 0.5804020
539.1765, 0.1751190
539.6586, 0.1130680
540.1407, 0.1711560
540.6229, 9.4026998E-02
541.1050, 0.1205920
541.5871, 0.2357830
542.0692, 0.2896000
542.5513, 7.6774999E-02
543.0334, 0.2142540
543.5156, 0.2560670
543.9977, 1.8539000E-02
544.4798, 0.2170750
544.9619, 0.2016350
545.4440, 9.7446002E-02
545.9261, 8.7154001E-02
546.4083, 0.3077600
546.8904, 0.5017570
547.3725, 0.5717200
547.8546, 0.5539990
548.3367, 0.5292340
548.8188, 0.5439990
549.3010, 0.5130650
549.7831, 0.3735160
550.2652, 0.1288510
550.7473, 5.1180001E-02
551.2294, 0.2375160
551.7115, 0.4269240
552.1937, 0.4400690
552.6758, 0.2531110
553.1579, 0.1130710
553.6400, 3.1925000E-02
554.1221, 8.0070002E-03
554.6042, 1.5926000E-02
555.0864, 2.3230000E-03
555.5685, 5.8080000E-03
556.0506, 4.1758001E-02
556.5327, 7.9810999E-02
557.0148, 4.2918999E-02
557.4969, 0.2693420
557.9791, 0.3842600
558.4612, 0.1061330
558.9433, 0.2263110
559.4254, 0.3070070
559.9075, 0.1117210
560.3896, 7.5268000E-02
560.8718, 0.1730800
561.3539, 0.1947170
561.8360, 0.1421620
562.3181, 0.1054230
562.8002, 0.2414380
563.2823, 0.1957720
563.7645, 5.6274001E-02
564.2466, 4.6068002E-02
564.7287, 9.5003001E-02
565.2108, 0.1413880
565.6929, 0.2068690
566.1750, 0.2769110
566.6572, 0.2896690
567.1393, 0.2422280
567.6214, 0.1560170
568.1035, 1.1627000E-02
568.5856, 0.1645930
569.0677, 0.2708820
569.5499, 0.3013950
570.0320, 0.2918010
570.5141, 0.2815590
570.9962, 0.2518980
571.4783, 0.1550710
571.9604, 8.4395997E-02
572.4426, 0.2619000
572.9247, 0.1757980
573.4068, 5.2003998E-02
573.8889, 0.2034930
574.3710, 5.6203999E-02
574.8531, 2.6936000E-02
575.3353, 0.1716100
575.8174, 0.6184390
576.2995, 0.8035700
576.7816, 0.4921400
577.2637, 0.1801780
577.7458, 0.1013620
578.2280, 0.3161410
578.7101, 0.4435920
579.1922, 0.4639300
579.6743, 0.4403380
580.1564, 0.4320660
580.6385, 0.4388120
581.1207, 0.4556260
581.6028, 0.4862900
582.0849, 0.5164810
582.5670, 0.4868720
583.0491, 0.4316060
583.5313, 0.4590090
584.0134, 0.7134910
584.4955, 1.007637
584.9776, 1.177891
585.4597, 1.234802
585.9418, 1.244198
586.4240, 1.217554
586.9061, 1.167738
587.3882, 1.076294
587.8703, 0.9020880
588.3524, 0.8470330
588.8345, 1.077991
589.3167, 1.343740
589.7988, 1.436373
590.2809, 1.238644
590.7630, 1.144180
591.2451, 1.218281
591.7272, 1.370289
592.2094, 1.406814
592.6915, 1.316756
593.1736, 1.294169
593.6557, 1.440007
594.1378, 1.672650
594.6199, 1.803328
595.1021, 1.837640
595.5842, 1.827750
596.0663, 1.781781
596.5484, 1.723479
597.0305, 1.677289
597.5126, 1.643438
597.9948, 1.619514
598.4769, 1.585718
598.9590, 1.574611
599.4411, 1.614341
599.9232, 1.731773
600.4053, 1.877266
600.8875, 2.099083
601.3696, 2.316195
601.8517, 2.409372
602.3338, 2.313517
602.8159, 2.208447
603.2980, 2.120238
603.7802, 2.047677
604.2623, 1.974640
604.7444, 1.894902
605.2265, 1.862913
605.7086, 1.955422
606.1907, 2.121664
606.6729, 2.170959
607.1550, 2.107663
607.6371, 2.027660
608.1192, 2.000808
608.6013, 1.998128
609.0834, 1.983776
609.5656, 1.946533
610.0477, 1.921906
610.5298, 1.946548
611.0119, 1.995949
611.4940, 2.043398
611.9761, 2.079058
612.4583, 2.112493
612.9404, 2.154424
613.4225, 2.193821
613.9046, 2.204212
614.3867, 2.171121
614.8688, 2.129635
615.3510, 2.080516
615.8331, 2.031141
616.3152, 1.992564
616.7973, 1.954468
617.2794, 1.972742
617.7615, 2.166973
618.2437, 2.436477
618.7258, 2.500624
619.2079, 2.342825
619.6900, 2.173879
620.1721, 2.194448
620.6542, 2.301708
621.1364, 2.369741
621.6185, 2.347552
622.1006, 2.323147
622.5827, 2.353551
623.0648, 2.414026
623.5469, 2.456008
624.0291, 2.485270
624.5112, 2.460482
624.9933, 2.369465
625.4754, 2.229861
625.9575, 2.083264
626.4396, 1.905077
626.9218, 1.787530
627.4039, 1.801954
627.8860, 1.911034
628.3681, 1.857432
628.8502, 1.630161
629.3323, 1.421040
629.8145, 1.408860
630.2966, 1.500766
630.7787, 1.523374
631.2608, 1.462609
631.7429, 1.397945
632.2250, 1.394283
632.7072, 1.400970
633.1893, 1.365818
633.6714, 1.183858
634.1535, 1.107497
634.6356, 1.294555
635.1177, 1.592997
635.5999, 1.780341
636.0820, 1.803885
636.5641, 1.764318
637.0462, 1.657003
637.5283, 1.505950
638.0104, 1.388329
638.4926, 1.302906
638.9747, 1.257138
639.4568, 1.251347
639.9389, 1.289375
640.4210, 1.418500
640.9031, 1.625436
641.3853, 1.776649
641.8674, 1.727410
642.3495, 1.599043
642.8316, 1.523991
643.3137, 1.514824
643.7958, 1.566308
644.2780, 1.780189
644.7601, 1.995355
645.2422, 2.059651
645.7243, 1.726492
646.2064, 1.593030
646.6885, 1.858812
647.1707, 2.239764
647.6528, 2.328722
648.1349, 1.991494
648.6170, 1.747850
649.0991, 1.703989
649.5812, 1.801819
650.0634, 1.909919
650.5455, 2.029261
651.0276, 2.170487
651.5097, 2.418292
651.9918, 2.646822
652.4739, 2.595929
652.9561, 2.317940
653.4382, 2.084504
653.9203, 2.094584
654.4024, 2.181135
654.8845, 2.242861
655.3666, 2.275560
655.8488, 2.232426
656.3309, 2.019138
656.8130, 1.790133
657.2951, 1.635851
657.7772, 1.566139
658.2593, 1.556120
658.7415, 1.637017
659.2236, 1.726488
659.7057, 1.709607
660.1878, 1.589660
660.6699, 1.526032
661.1520, 1.568267
661.6342, 1.625960
662.1163, 1.533300
662.5984, 1.350878
663.0805, 1.243525
663.5626, 1.405526
664.0447, 1.534019
664.5269, 1.296974
665.0090, 0.8428350
665.4911, 0.5996630
665.9732, 0.9454890
666.4553, 1.282452
666.9374, 1.374539
667.4196, 1.238997
667.9017, 1.125338
668.3838, 1.017951
668.8659, 0.9614160
669.3480, 1.014838
669.8301, 1.175123
670.3123, 1.173990
670.7944, 0.9925790
671.2765, 0.7923310
671.7586, 0.7198190
672.2407, 0.7322890
672.7228, 0.7401470
673.2050, 0.7321330
673.6871, 0.7116150
674.1692, 0.6567310
674.6513, 0.6001280
675.1334, 0.5833780
675.6155, 0.6634290
676.0977, 0.7127740
676.5798, 0.6485720
677.0619, 0.5549140
677.5440, 0.5772570
678.0261, 0.8556530
678.5082, 0.9390140
678.9904, 0.6839900
679.4725, 0.2348540
679.9546, 7.3097996E-02
680.4367, 0.2351880
680.9188, 0.2433260
681.4009, 1.0017000E-02
681.8831, 0.3531380
682.3652, 0.4331320
682.8473, 0.2956350
683.3294, 0.1638130
683.8115, 0.2073360
684.2936, 0.2750410
684.7758, 0.2367690
685.2579, 8.5963003E-02
685.7400, 1.8869000E-02
686.2221, 5.7279998E-03
686.7042, 3.9662998E-02
687.1863, 6.9862999E-02
687.6685, 7.4331000E-02
688.1506, 0.1187290
688.6327, 0.2235490
689.1148, 0.3266110
689.5969, 0.3564970
690.0790, 0.3202850
690.5612, 0.3534980
691.0433, 0.4927930
691.5254, 0.5828860
692.0075, 0.3318550
692.4896, 7.4891999E-02
692.9717, 0.2845940
693.4539, 0.1271700
693.9360, 0.1012530
694.4181, 0.2786330
694.9002, 0.4050080
695.3823, 0.4807870
695.8644, 0.5286530
696.3466, 0.4901980
696.8287, 0.3002920
697.3108, 3.5463002E-02
697.7929, 9.2652000E-02
698.2750, 5.3172000E-02
698.7571, 1.0482000E-02
699.2393, 6.0825001E-02
699.7214, 9.8562002E-02
700.2035, 0.1238570
700.6856, 0.1372550
701.1677, 0.1420960
701.6498, 0.1012120
702.1320, 7.6701999E-02
702.6141, 0.2022220
703.0962, 0.4501090
703.5783, 0.5681190
704.0604, 0.2882690
704.5425, 3.1327002E-02
705.0247, 0.1823620
705.5068, 0.1192670
705.9889, 4.6815999E-02
706.4710, 4.1235998E-02
706.9531, 0.1285140
707.4352, 0.2162110
707.9174, 0.3105320
708.3995, 0.3141260
708.8816, 0.2072490
709.3637, 9.7815998E-02
709.8458, 0.1466790
710.3279, 0.2772700
710.8101, 0.2690630
711.2922, 4.5265000E-02
711.7743, 0.1474520
712.2564, 6.6724002E-02
712.7385, 0.1292230
713.2206, 0.2510560
713.7028, 0.1957990
714.1849, 0.1357330
714.6670, 6.3557997E-02
715.1491, 1.9632000E-02
715.6312, 7.6921999E-02
716.1133, 0.2956900
716.5955, 0.4433060
717.0776, 0.4674900
717.5597, 0.4131760
718.0418, 0.3610240
718.5239, 0.3120030
719.0060, 0.2819360
719.4882, 0.2826580
719.9703, 0.2985950
720.4524, 0.2984180
720.9345, 0.2957340
721.4166, 0.3310830
721.8987, 0.4664070
722.3809, 0.6032640
722.8630, 0.7109530
723.3451, 0.7826690
723.8272, 0.7809030
724.3093, 0.6263960
724.7914, 0.5162250
725.2736, 0.5433660
725.7557, 0.6924260
726.2378, 0.7469350
726.7199, 0.6921100
727.2020, 0.6767300
727.6841, 0.8919670
728.1663, 1.196880
728.6484, 1.240192
729.1305, 1.019179
729.6126, 0.7739870
730.0947, 0.6147830
730.5768, 0.5344430
731.0590, 0.5368600
731.5411, 0.6328240
732.0232, 0.7549970
732.5053, 0.9827380
732.9874, 1.157171
733.4695, 1.165670
733.9517, 0.9438010
734.4338, 0.7669320
734.9159, 0.6227820
735.3980, 0.5538970
735.8801, 0.6741290
736.3622, 0.9219940
736.8444, 1.026222
737.3265, 0.9260410
737.8086, 0.7604230
738.2907, 0.5990110
738.7728, 0.4879490
739.2549, 0.5029260
739.7371, 0.7399230
740.2192, 0.9274380
740.7013, 0.9636730
741.1834, 0.9180680
741.6655, 0.8792590
742.1476, 0.8210290
742.6298, 0.8413330
743.1119, 0.9787580
743.5940, 1.160698
744.0761, 1.255989
744.5582, 1.271629
745.0403, 1.294765
745.5225, 1.369544
746.0046, 1.430426
746.4867, 1.360721
746.9688, 1.217719
747.4509, 1.125347
747.9330, 1.233395
748.4152, 1.297683
748.8973, 1.149716
749.3794, 0.8762270
749.8615, 0.7711360
750.3436, 0.9196430
750.8257, 1.072279
751.3079, 1.206804
751.7900, 1.317550
752.2721, 1.383630
752.7542, 1.405380
753.2363, 1.380024
753.7184, 1.224383
754.2006, 1.074846
754.6827, 1.215468
755.1648, 1.575308
755.6469, 1.854241
756.1290, 1.840570
756.6111, 1.771416
757.0933, 1.777559
757.5754, 1.858508
758.0575, 1.887935
758.5396, 1.777298
759.0217, 1.737742
759.5038, 1.875707
759.9860, 2.170527
760.4681, 2.390424
760.9502, 2.528093
761.4323, 2.660932
761.9144, 2.911767
762.3965, 3.164101
762.8787, 3.135996
763.3608, 2.857889
763.8429, 2.643012
764.3250, 2.735052
764.8071, 2.911046
765.2892, 3.041462
765.7714, 3.119720
766.2535, 3.100972
766.7356, 2.888263
767.2177, 2.706105
767.6998, 2.703888
768.1819, 2.897189
768.6641, 2.993162
769.1462, 2.982696
769.6283, 2.931294
770.1104, 2.898814
770.5925, 2.874996
771.0746, 2.814639
771.5568, 2.709772
772.0389, 2.685140
772.5210, 2.959673
773.0031, 3.250126
773.4852, 3.317114
773.9673, 3.037935
774.4495, 2.825159
774.9316, 2.716120
775.4137, 2.650371
775.8958, 2.586479
776.3779, 2.521417
776.8600, 2.482176
777.3422, 2.467902
777.8243, 2.463440
778.3064, 2.482279
778.7885, 2.489501
779.2706, 2.389585
779.7527, 2.143742
780.2349, 1.951551
780.7170, 2.002564
781.1991, 2.124628
781.6812, 2.155091
782.1633, 2.004923
782.6454, 1.907287
783.1276, 1.896745
783.6097, 1.898229
784.0918, 1.837407
784.5739, 1.714547
785.0560, 1.556082
785.5381, 1.356414
786.0203, 1.172332
786.5024, 1.044875
786.9845, 0.9837900
787.4666, 1.021257
787.9487, 1.205750
788.4308, 1.368321
788.9130, 1.457988
789.3951, 1.474182
789.8772, 1.404546
790.3593, 1.136727
790.8414, 0.9936420
791.3235, 1.002776
791.8057, 1.102994
792.2878, 1.283314
792.7699, 1.529980
793.2520, 1.544873
793.7341, 1.240670
794.2162, 0.9091670
794.6984, 0.8848760
795.1805, 1.038231
795.6626, 1.171784
796.1447, 1.252974
796.6268, 1.276187
797.1089, 1.225332
797.5911, 1.121656
798.0732, 0.9837800
798.5553, 0.7630830
799.0374, 0.6317670
799.5195, 0.6278490
800.0016, 0.6729830
800.4838, 0.6222840
800.9659, 0.5084110
801.4480, 0.4863950
801.9301, 0.6038330
802.4122, 0.7384610
802.8943, 0.7956640
803.3765, 0.7904790
803.8586, 0.7260200
804.3407, 0.5529240
804.8228, 0.4260900
805.3049, 0.4409710
805.7870, 0.4859760
806.2692, 0.4295770
806.7513, 0.2389790
807.2334, 0.1383360
807.7155, 0.1569710
808.1976, 0.2448450
808.6797, 0.3766470
809.1619, 0.5259330
809.6440, 0.6151700
810.1261, 0.6249410
810.6082, 0.5845620
811.0903, 0.4723120
811.5724, 0.3420680
812.0546, 0.2533770
812.5367, 0.2400040
813.0188, 0.2378460
813.5009, 0.2517330
813.9830, 0.2677530
814.4651, 0.2724910
814.9473, 0.2661510
815.4294, 0.2446930
815.9115, 0.2033680
816.3936, 0.1666000
816.8757, 0.1864780
817.3578, 0.2246620
817.8400, 0.1987080
818.3221, 5.9457000E-02
818.8042, 3.2001998E-02
819.2863, 6.0360000E-02
819.7684, 0.1999450
820.2505, 0.2519420
820.7327, 0.1259220
821.2148, 0.1257500
821.6969, 0.3125760
822.1790, 0.5135720
822.6611, 0.5238520
823.1432, 0.3727610
823.6254, 0.2396180
824.1075, 0.1429480
824.5896, 7.3927000E-02
825.0717, 2.5694000E-02
825.5538, 1.5420000E-03
826.0359, 8.5300002E-03
826.5181, 5.3185999E-02
827.0002, 0.1104110
827.4823, 0.2002840
827.9644, 0.2827010
828.4465, 0.3390460
828.9286, 0.3433950
829.4108, 0.3364150
829.8929, 0.3188610
830.3750, 0.2983900
830.8571, 0.3024180
831.3392, 0.3028480
831.8214, 0.2396070
832.3035, 0.1068320
832.7856, 1.9878000E-02
833.2677, 0.1239540
833.7498, 0.1808440
834.2319, 0.1578090
834.7141, 1.9610001E-02
835.1962, 9.6538998E-02
835.6783, 0.2050590
836.1604, 0.2686980
836.6425, 0.2488800
837.1246, 0.1512620
837.6068, 4.3742001E-02
838.0889, 7.3682003E-02
838.5710, 0.1341100
839.0531, 1.5999001E-02
839.5352, 0.1427390
840.0173, 0.1673840
840.4995, 5.0067000E-02
840.9816, 1.4507000E-02
841.4637, 8.3600998E-02
841.9458, 0.2077740
842.4279, 0.3088690
842.9100, 0.3843470
843.3922, 0.4076240
843.8743, 0.3788640
844.3564, 0.3026940
844.8385, 0.1064880
845.3206, 0.1148130
845.8027, 7.8630999E-02
846.2849, 0.1642780
846.7670, 0.3403960
847.2491, 0.2112930
847.7312, 5.2457999E-02
848.2133, 2.6361000E-02
848.6954, 0.1256030
849.1776, 0.2065770
849.6597, 0.2818880
850.1418, 0.2993510
850.6239, 0.1999470
851.1060, 5.1376998E-02
851.5881, 0.1420220
852.0703, 0.4376390
852.5524, 0.6457820
853.0345, 0.5518020
853.5166, 0.3690820
853.9987, 0.2473570
854.4808, 0.1872110
854.9630, 0.1951740
855.4451, 0.4397830
855.9272, 0.5398480
856.4093, 0.3288940
856.8914, 2.7984001E-02
857.3735, 0.1365320
857.8557, 2.5010001E-02
858.3378, 0.1761140
858.8199, 0.2533950
859.3020, 0.2657310
859.7841, 0.1693220
860.2662, 2.2852000E-02
860.7484, 4.4565000E-02
861.2305, 0.1026630
861.7126, 0.1990740
862.1947, 5.7854000E-02
862.6768, 0.1539900
863.1589, 0.1931110
863.6411, 1.4497000E-02
864.1232, 0.1931290
864.6053, 0.3282120
865.0874, 0.4043390
865.5695, 0.3743120
866.0516, 0.2672070
866.5338, 0.1730060
867.0159, 0.1074020
867.4980, 5.8231998E-02
867.9801, 9.9849999E-03
868.4622, 2.2975000E-02
868.9443, 2.7695000E-02
869.4265, 3.2410000E-03
869.9086, 6.6766001E-02
870.3907, 0.1726910
870.8728, 0.2765030
871.3549, 0.3570890
871.8370, 0.4129620
872.3192, 0.3892200
872.8013, 0.2818070
873.2834, 0.1868580
873.7655, 0.2101990
874.2476, 0.2674180
874.7297, 0.2743810
875.2119, 0.2221430
875.6940, 0.1578360
876.1761, 4.1312002E-02
876.6582, 2.7892999E-02
877.1403, 3.6050000E-03
877.6224, 0.1273480
878.1046, 0.2209820
878.5867, 0.2813030
879.0688, 0.3732550
879.5509, 0.6403680
880.0330, 0.8989360
880.5151, 0.8092980
880.9973, 0.4611360
881.4794, 0.1984860
881.9615, 0.2122870
882.4436, 0.2781930
882.9257, 0.3376470
883.4078, 0.3852610
883.8900, 0.4186350
884.3721, 0.4481530
884.8542, 0.3859000
885.3363, 0.1408010
885.8184, 9.2087999E-02
886.3005, 0.1507100
886.7827, 0.6640190
887.2648, 0.9158570
887.7469, 0.4743100
888.2290, 8.5331000E-02
888.7111, 0.2041820
889.1932, 0.5227240
889.6754, 0.5713830
890.1575, 0.1788830
890.6396, 3.8892001E-02
891.1217, 1.9530000E-02
891.6038, 0.1260340
892.0859, 0.3235870
892.5681, 0.5464570
893.0502, 0.6766700
893.5323, 0.6870500
894.0144, 0.6697330
894.4965, 0.6900300
894.9786, 0.7040860
895.4608, 0.6660390
895.9429, 0.5425560
896.4250, 0.4838430
896.9071, 0.5205660
897.3892, 0.5630050
897.8713, 0.5568000
898.3535, 0.5069240
898.8356, 0.4194990
899.3177, 0.3006240
899.7998, 0.2195200
900.2819, 0.2717420
900.7640, 0.3430890
901.2462, 0.3370810
901.7283, 0.2586460
902.2104, 0.1987750
902.6925, 0.1451700
903.1746, 0.1451340
903.6567, 0.2408130
904.1389, 0.3991280
904.6210, 0.5140650
905.1031, 0.5959220
905.5852, 0.6486100
906.0673, 0.6390830
906.5494, 0.6433780
907.0316, 0.7787050
907.5137, 0.9584670
907.9958, 1.026679
908.4779, 0.8628250
908.9600, 0.6916080
909.4421, 0.5160880
909.9243, 0.3629740
910.4064, 0.2497920
910.8885, 0.1801890
911.3706, 0.2387360
911.8527, 0.4614300
912.3348, 0.6602720
912.8170, 0.5907280
913.2991, 0.4316100
913.7812, 0.4044910
914.2633, 0.5970300
914.7454, 0.6969030
915.2275, 0.6009830
915.7097, 0.4757550
916.1918, 0.3751720
916.6739, 0.3002930
917.1560, 0.3935110
917.6381, 0.6555400
918.1202, 0.8445650
918.6024, 0.6998080
919.0845, 0.4613240
919.5666, 0.3840640
920.0487, 0.4476410
920.5308, 0.4789580
921.0129, 0.4169430
921.4951, 0.3651730
921.9772, 0.3222620
922.4593, 0.2977120
922.9414, 0.3349320
923.4235, 0.4320760
923.9056, 0.5132610
924.3878, 0.5525900
924.8699, 0.5677650
925.3520, 0.6095880
925.8341, 0.6318000
926.3162, 0.5579220
926.7983, 0.2242790
927.2805, 1.9915000E-02
927.7626, 1.7286001E-02
928.2447, 0.1190230
928.7268, 0.2499070
929.2089, 0.4101040
929.6910, 0.5085230
930.1732, 0.5309580
930.6553, 0.5719310
931.1374, 0.8261820
931.6195, 1.082187
932.1016, 1.053267
932.5837, 0.6942780
933.0659, 0.4174360
933.5480, 0.3326660
934.0301, 0.3334150
934.5122, 0.4102130
934.9943, 0.5480570
935.4764, 0.5894600
935.9586, 0.5347860
936.4407, 0.4838260
936.9228, 0.5232900
937.4049, 0.5561330
937.8870, 0.4362550
938.3691, 0.2342270
938.8513, 0.1158540
939.3334, 0.1656640
939.8155, 0.2579380
940.2976, 0.4061070
940.7797, 0.5554890
941.2618, 0.6312180
941.7440, 0.6321130
942.2261, 0.5145650
942.7082, 0.2484180
943.1903, 1.5880000E-02
943.6724, 0.1712100
944.1545, 0.2181780
944.6367, 0.1630140
945.1188, 3.4380998E-02
945.6009, 0.1567860
946.0830, 0.1683020
946.5651, 0.1309100
947.0472, 5.0756000E-02
947.5294, 6.0874000E-02
948.0115, 8.0601998E-02
948.4936, 2.0765999E-02
948.9757, 6.4452998E-02
949.4578, 0.1918840
949.9399, 0.2847920
950.4221, 0.2533730
950.9042, 0.1314070
951.3863, 6.0088001E-02
951.8684, 0.1033440
952.3505, 9.8415002E-02
952.8326, 7.0580002E-03
953.3148, 0.1427260
953.7969, 0.1685910
954.2790, 0.1059180
954.7611, 4.2157002E-02
955.2432, 3.4930001E-03
955.7253, 3.5174001E-02
956.2075, 2.4088001E-02
956.6896, 1.8309001E-02
957.1717, 7.3287003E-02
957.6538, 0.2220680
958.1359, 0.3418690
958.6180, 0.4383470
959.1002, 0.4898860
959.5823, 0.4337490
960.0644, 0.3253550
960.5465, 0.4014170
961.0286, 0.6289990
961.5107, 0.7216700
961.9929, 0.3075690
962.4750, 7.8557998E-02
962.9571, 8.6997002E-02
963.4392, 0.1725250
963.9213, 0.2595110
964.4034, 0.1123500
964.8856, 4.5956001E-02
965.3677, 0.1641540
965.8498, 0.3408360
966.3319, 0.3721220
966.8140, 0.3104270
967.2961, 0.2611920
967.7783, 0.2520500
968.2604, 0.2567000
968.7425, 0.2619840
969.2246, 0.2838120
969.7067, 0.3443280
970.1888, 0.4536790
970.6710, 0.4952440
971.1531, 0.4619870
971.6352, 0.4168270
972.1173, 0.3987780
972.5994, 0.4029760
973.0815, 0.4321010
973.5637, 0.4810340
974.0458, 0.5257710
974.5279, 0.5645490
975.0100, 0.5897820
975.4921, 0.5918810
975.9742, 0.5832550
976.4564, 0.5851070
976.9385, 0.5994180
977.4206, 0.6787450
977.9027, 0.8617520
978.3848, 1.035058
978.8669, 1.091862
979.3491, 1.076137
979.8312, 1.030420
980.3133, 0.9201610
980.7954, 0.9042200
981.2775, 1.031359
981.7596, 1.174957
982.2418, 1.237876
982.7239, 1.238440
983.2060, 1.282520
983.6881, 1.364353
984.1702, 1.429911
984.6523, 1.360406
985.1345, 1.339311
985.6166, 1.583005
986.0987, 1.980347
986.5808, 2.131965
987.0629, 1.962192
987.5450, 1.768449
988.0272, 1.585115
988.5093, 1.456453
988.9914, 1.512998
989.4735, 1.661554
989.9556, 1.704516
990.4377, 1.583811
990.9199, 1.454406
991.4020, 1.296869
991.8841, 1.215455
992.3662, 1.295675
992.8483, 1.548884
993.3304, 1.684543
993.8126, 1.682599
994.2947, 1.662680
994.7768, 1.701111
995.2589, 1.761291
995.7410, 1.825154
996.2231, 1.874146
996.7053, 1.862306
997.1874, 1.686190
997.6695, 1.583577
998.1516, 1.568487
998.6337, 1.633945
999.1158, 1.794352
999.5980, 2.031402
1000.080, 2.164762
1000.562, 2.159099
1001.044, 2.133170
1001.526, 2.178287
1002.009, 2.253200
1002.491, 2.339818
1002.973, 2.450356
1003.455, 2.493190
1003.937, 2.460865
1004.419, 2.364878
1004.901, 2.176362
1005.383, 1.950714
1005.865, 1.776027
1006.348, 1.679613
1006.830, 1.721819
1007.312, 2.147290
1007.794, 2.439443
1008.276, 2.314837
1008.758, 2.057167
1009.240, 1.965205
1009.722, 2.060483
1010.205, 2.156138
1010.687, 2.241701
1011.169, 2.276546
1011.651, 2.229189
1012.133, 2.132499
1012.615, 1.973464
1013.097, 1.762071
1013.579, 1.676628
1014.061, 1.846877
1014.544, 1.965425
1015.026, 1.927012
1015.508, 1.801786
1015.990, 1.756617
1016.472, 1.776173
1016.954, 1.799055
1017.436, 1.809167
1017.918, 1.812197
1018.401, 1.789610
1018.883, 1.776436
1019.365, 1.822577
1019.847, 1.962916
1020.329, 1.964727
1020.811, 1.812218
1021.293, 1.674151
1021.775, 1.695004
1022.257, 1.769994
1022.740, 1.721427
1023.222, 1.579596
1023.704, 1.455228
1024.186, 1.344984
1024.668, 1.322425
1025.150, 1.445233
1025.632, 1.616603
1026.114, 1.656452
1026.596, 1.581957
1027.079, 1.580411
1027.561, 1.696319
1028.043, 1.760515
1028.525, 1.530635
1029.007, 1.264858
1029.489, 1.219796
1029.971, 1.431458
1030.453, 1.520333
1030.936, 1.448371
1031.418, 1.386856
1031.900, 1.442801
1032.382, 1.515722
1032.864, 1.367631
1033.346, 1.079478
1033.828, 0.8448950
1034.310, 0.7359630
1034.792, 0.6864720
1035.275, 0.7435950
1035.757, 0.7978740
1036.239, 0.7289850
1036.721, 0.5374810
1037.203, 0.4457730
1037.685, 0.4616150
1038.167, 0.5145380
1038.649, 0.6044090
1039.132, 0.6669190
1039.614, 0.6070750
1040.096, 0.4627000
1040.578, 0.4499930
1041.060, 0.6960860
1041.542, 0.7385990
1042.024, 0.4271220
1042.506, 1.9815000E-02
1042.989, 0.1048770
1043.471, 3.2742999E-02
1043.953, 6.8838000E-02
1044.435, 0.1767290
1044.917, 0.2646470
1045.399, 0.3587170
1045.881, 0.3902950
1046.363, 0.3125890
1046.845, 0.1391310
1047.328, 7.7411003E-02
1047.810, 0.3262200
1048.292, 0.3782590
1048.774, 6.9693998E-02
1049.256, 0.4790790
1049.738, 0.3087350
1050.220, 0.1479950
1050.702, 0.4156950
1051.184, 0.3801950
1051.667, 0.3327470
1052.149, 0.2757430
1052.631, 0.2180600
1053.113, 0.1394230
1053.595, 7.5548001E-02
1054.077, 0.1510080
1054.559, 0.3345920
1055.041, 0.3976830
1055.523, 5.7333998E-02
1056.006, 0.1748960
1056.488, 0.1008660
1056.970, 0.1092850
1057.452, 8.2548998E-02
1057.934, 0.1504930
1058.416, 0.3003400
1058.898, 0.3033170
1059.380, 0.2733950
1059.863, 0.3005960
1060.345, 0.3354480
1060.827, 0.3296790
1061.309, 0.2795110
1061.791, 0.2500470
1062.273, 0.2411670
1062.755, 0.2544150
1063.237, 0.2987980
1063.719, 0.3539590
1064.202, 0.3696570
1064.684, 0.3770070
1065.166, 0.4400980
1065.648, 0.6532780
1066.130, 0.7778760
1066.612, 0.7150980
1067.094, 0.6725780
1067.576, 0.8921350
1068.059, 1.298545
1068.541, 1.400944
1069.023, 1.229100
1069.505, 1.074159
1069.987, 1.132362
1070.469, 1.227649
1070.951, 1.247952
1071.433, 1.250239
1071.916, 1.360676
1072.398, 1.597281
1072.880, 1.764116
1073.362, 1.825214
1073.844, 1.869508
1074.326, 2.025823
1074.808, 2.185443
1075.290, 2.202688
1075.772, 2.065321
1076.255, 2.017441
1076.737, 2.103235
1077.219, 2.206717
1077.701, 2.279654
1078.183, 2.364647
1078.665, 2.597096
1079.147, 2.900238
1079.629, 3.083170
1080.111, 3.051693
1080.594, 3.033501
1081.076, 3.113142
1081.558, 3.225788
1082.040, 3.346222
1082.522, 3.470402
1083.004, 3.531189
1083.486, 3.538553
1083.968, 3.583932
1084.450, 3.760838
1084.933, 3.944112
1085.415, 4.049841
1085.897, 4.111408
1086.379, 4.190542
1086.861, 4.300385
1087.343, 4.355983
1087.825, 4.335848
1088.307, 4.380736
1088.790, 4.732109
1089.272, 5.138441
1089.754, 5.276418
1090.236, 5.176363
1090.718, 5.080843
1091.200, 5.022614
1091.682, 4.987183
1092.164, 4.952971
1092.646, 4.976305
1093.129, 5.186218
1093.611, 5.514003
1094.093, 5.831142
1094.575, 6.126684
1095.057, 6.260938
1095.539, 5.941239
1096.021, 5.698689
1096.503, 5.793181
1096.986, 6.128603
1097.468, 6.345068
1097.950, 6.456764
1098.432, 6.590677
1098.914, 6.828642
1099.396, 6.990793
1099.878, 6.857637
1100.360, 6.643497
1100.843, 6.558093
1101.325, 6.623137
1101.807, 6.718065
1102.289, 6.848370
1102.771, 6.936895
1103.253, 6.866806
1103.735, 6.803406
1104.217, 7.047961
1104.699, 7.417924
1105.182, 7.556530
1105.664, 7.156579
1106.146, 6.968914
1106.628, 7.084883
1107.110, 7.266140
1107.592, 7.325741
1108.074, 7.297371
1108.556, 7.230669
1109.038, 7.153986
1109.521, 7.126039
1110.003, 7.168900
1110.485, 7.280369
1110.967, 7.535151
1111.449, 7.765398
1111.931, 7.597480
1112.413, 7.155087
1112.895, 7.109221
1113.377, 7.562019
1113.860, 7.922788
1114.342, 7.709448
1114.824, 7.431517
1115.306, 7.381641
1115.788, 7.494810
1116.270, 7.569798
1116.752, 7.606457
1117.234, 7.540415
1117.717, 7.316082
1118.199, 7.148997
1118.681, 7.336155
1119.163, 7.598202
1119.645, 7.641726
1120.127, 7.441807
1120.609, 7.364985
1121.091, 7.442467
1121.573, 7.429447
1122.056, 7.140573
1122.538, 6.842361
1123.020, 6.954958
1123.502, 7.259415
1123.984, 7.410324
1124.466, 7.251520
1124.948, 7.111921
1125.430, 6.976025
1125.913, 6.914326
1126.395, 7.068419
1126.877, 7.284678
1127.359, 7.154667
1127.841, 6.792549
1128.323, 6.516007
1128.805, 6.543653
1129.287, 6.518892
1129.770, 6.337234
1130.252, 6.165535
1130.734, 6.263947
1131.216, 6.522099
1131.698, 6.402524
1132.180, 5.957392
1132.662, 5.640122
1133.144, 5.854416
1133.626, 6.040739
1134.109, 5.964244
1134.591, 5.772551
1135.073, 5.685778
1135.555, 5.696428
1136.037, 5.721207
1136.519, 5.754519
1137.001, 5.755976
1137.483, 5.735565
1137.965, 5.644300
1138.448, 5.372297
1138.930, 5.008310
1139.412, 4.839254
1139.894, 4.873297
1140.376, 4.923830
1140.858, 4.960041
1141.340, 4.968353
1141.822, 4.932802
1142.304, 4.871971
1142.787, 4.796078
1143.269, 4.707222
1143.751, 4.627937
1144.233, 4.561708
1144.715, 4.485971
1145.197, 4.389997
1145.679, 4.295490
1146.161, 4.258611
1146.644, 4.216549
1147.126, 4.082874
1147.608, 3.806612
1148.090, 3.613835
1148.572, 3.507724
1149.054, 3.416713
1149.536, 3.301777
1150.018, 3.217205
1150.500, 3.300275
1150.983, 3.456962
1151.465, 3.492426
1151.947, 3.230068
1152.429, 3.097827
1152.911, 3.190932
1153.393, 3.289139
1153.875, 3.230822
1154.357, 3.068008
1154.840, 2.908040
1155.322, 2.758682
1155.804, 2.659817
1156.286, 2.658927
1156.768, 2.674160
1157.250, 2.730325
1157.732, 2.745667
1158.214, 2.605267
1158.697, 2.360352
1159.179, 2.222605
1159.661, 2.184772
1160.143, 2.189496
1160.625, 2.257253
1161.107, 2.305416
1161.589, 2.306587
1162.071, 2.278592
1162.553, 2.237558
1163.036, 2.180487
1163.518, 2.113852
1164.000, 2.038950
1164.482, 1.955864
1164.964, 1.881005
1165.446, 1.777611
1165.928, 1.576739
1166.410, 1.366883
1166.892, 1.371685
1167.375, 1.565941
1167.857, 1.542337
1168.339, 1.238596
1168.821, 0.9540750
1169.303, 0.8953530
1169.785, 0.9276640
1170.267, 1.009171
1170.749, 1.107103
1171.231, 1.144422
1171.714, 1.122152
1172.196, 1.007523
1172.678, 0.7750720
1173.160, 0.5685620
1173.642, 0.4877390
1174.124, 0.5073390
1174.606, 0.6745400
1175.088, 0.9407680
1175.571, 1.002430
1176.053, 0.8515500
1176.535, 0.8123780
1177.017, 0.9928010
1177.499, 1.169611
1177.981, 1.099801
1178.463, 0.9677040
1178.945, 0.9951720
1179.427, 1.189089
1179.910, 1.123817
1180.392, 0.7668700
1180.874, 0.4871520
1181.356, 0.4373900
1181.838, 0.4727930
1182.320, 0.4480980
1182.802, 0.4203840
1183.284, 0.4891470
1183.767, 0.6945120
1184.249, 0.6776210
1184.731, 0.4029530
1185.213, 0.1399900
1185.695, 1.8719999E-02
1186.177, 2.8937001E-02
1186.659, 9.5022000E-02
1187.141, 0.1305760
1187.624, 3.3039998E-02
1188.106, 0.3030650
1188.588, 0.3504120
1189.070, 5.4857999E-02
1189.552, 0.2144420
1190.034, 0.2197600
1190.516, 0.1110310
1190.998, 4.7454000E-02
1191.480, 1.1180000E-02
1191.963, 2.7474999E-02
1192.445, 0.1045960
1192.927, 6.9730997E-02
1193.409, 0.1077750
1193.891, 0.2503810
1194.373, 0.2032740
1194.855, 7.7855997E-02
1195.337, 2.6116000E-02
1195.819, 7.9990001E-03
1196.302, 7.2590001E-02
1196.784, 0.3315660
1197.266, 0.3876840
1197.748, 0.1870930
1198.230, 1.0653000E-02
1198.712, 4.2135999E-02
1199.194, 0.1910630
1199.676, 0.2180660
1200.158, 0.1700420
1200.641, 0.1922030
1201.123, 0.3976870
1201.605, 0.4464460
1202.087, 0.2889610
1202.569, 9.3139999E-02
1203.051, 1.2136000E-02
1203.533, 4.7166999E-02
1204.015, 1.7863000E-02
1204.498, 0.1321090
1204.980, 0.1028500
1205.462, 0.2398450
1205.944, 0.3510740
1206.426, 0.1399910
1206.908, 0.1264830
1207.390, 0.1998470
1207.872, 0.1618890
1208.354, 7.5854003E-02
1208.837, 3.1481002E-02
1209.319, 5.8906000E-02
1209.801, 4.3237001E-02
1210.283, 0.1115150
1210.765, 0.1258310
1211.247, 0.1076530
1211.729, 4.8877999E-02
1212.211, 8.3379997E-03
1212.694, 5.6929998E-03
1213.176, 5.2345999E-02
1213.658, 0.1291120
1214.140, 0.2526550
1214.622, 0.2910740
1215.104, 0.2143830
1215.586, 9.9258997E-02
1216.068, 2.0800000E-04
1216.551, 7.1087003E-02
1217.033, 9.1650002E-02
1217.515, 6.7617998E-02
1217.997, 5.1996000E-02
1218.479, 5.4678999E-02
1218.961, 5.2359998E-02
1219.443, 4.8873000E-02
1219.925, 5.6309998E-03
1220.407, 0.1745400
1220.890, 0.3808140
1221.372, 0.4942050
1221.854, 0.5046930
1222.336, 0.4557350
1222.818, 0.3291630
1223.300, 0.2316450
1223.782, 0.1864600
1224.264, 0.1643080
1224.746, 0.1458110
1225.229, 0.1261460
1225.711, 8.4587000E-02
1226.193, 2.9141000E-02
1226.675, 3.9825000E-02
1227.157, 0.1315540
1227.639, 0.2163930
1228.121, 0.2808120
1228.603, 0.3086460
1229.085, 0.2438320
1229.568, 0.1635670
1230.050, 0.1525140
1230.532, 0.2060370
1231.014, 0.2242740
1231.496, 0.2028430
1231.978, 0.1931070
1232.460, 0.2154130
1232.942, 0.2077050
1233.425, 1.5201000E-02
1233.907, 0.1582470
1234.389, 7.3362999E-02
1234.871, 0.2172510
1235.353, 0.3374930
1235.835, 0.2749460
1236.317, 0.2584030
1236.799, 0.3570250
1237.281, 0.4370990
1237.764, 0.3247010
1238.246, 0.1999850
1238.728, 0.2493080
1239.210, 0.4148680
1239.692, 0.4281980
1240.174, 0.2961010
1240.656, 0.2035000
1241.138, 0.1967540
1241.621, 0.2339470
1242.103, 0.3329990
1242.585, 0.4225560
1243.067, 0.4584580
1243.549, 0.4453210
1244.031, 0.3661050
1244.513, 0.2349440
1244.995, 0.2154870
1245.478, 0.3536740
1245.960, 0.4844360
1246.442, 0.5667480
1246.924, 0.5881560
1247.406, 0.5080770
1247.888, 0.3532300
1248.370, 0.1848020
1248.852, 6.4852998E-02
1249.334, 6.7636997E-02
1249.817, 0.2280330
1250.299, 0.3724650
1250.781, 0.3992680
1251.263, 0.4238090
1251.745, 0.5088340
1252.227, 0.6075310
1252.709, 0.5645560
1253.191, 0.4370280
1253.673, 0.4312630
1254.156, 0.5485710
1254.638, 0.6181140
1255.120, 0.4462680
1255.602, 0.3054270
1256.084, 0.3123790
1256.566, 0.4067410
1257.048, 0.4456200
1257.530, 0.4286450
1258.012, 0.3600650
1258.495, 0.2169670
1258.977, 0.2077730
1259.459, 0.4332300
1259.941, 0.5644680
1260.423, 0.4616570
1260.905, 0.3138440
1261.387, 0.5157790
1261.869, 0.8523250
1262.352, 0.9834110
1262.834, 0.8449200
1263.316, 0.7251520
1263.798, 0.6345840
1264.280, 0.5984820
1264.762, 0.6637070
1265.244, 0.7202650
1265.726, 0.5406030
1266.208, 0.3049040
1266.691, 0.2476630
1267.173, 0.3837210
1267.655, 0.4929710
1268.137, 0.5384300
1268.619, 0.5495190
1269.101, 0.5170150
1269.583, 0.4582490
1270.065, 0.3850550
1270.548, 0.3205500
1271.030, 0.3082990
1271.512, 0.3299150
1271.994, 0.4097580
1272.476, 0.5539970
1272.958, 0.5752800
1273.440, 0.4053020
1273.922, 0.2631860
1274.405, 0.3248120
1274.887, 0.4579980
1275.369, 0.6158520
1275.851, 0.7477250
1276.333, 0.7380160
1276.815, 0.6119080
1277.297, 0.5964030
1277.779, 0.7405120
1278.261, 0.8193160
1278.744, 0.6356360
1279.226, 0.4571480
1279.708, 0.4047680
1280.190, 0.4068690
1280.672, 0.2760490
1281.154, 0.1170880
1281.636, 0.1758610
1282.118, 0.4930130
1282.600, 0.6917890
1283.083, 0.5892280
1283.565, 0.4811850
1284.047, 0.4270980
1284.529, 0.3983770
1285.011, 0.3837060
1285.493, 0.3849210
1285.975, 0.4073620
1286.457, 0.4465950
1286.939, 0.4787960
1287.422, 0.5093820
1287.904, 0.5179320
1288.386, 0.4886600
1288.868, 0.4809150
1289.350, 0.6044580
1289.832, 0.7263250
1290.314, 0.7022590
1290.796, 0.5454240
1291.279, 0.3720660
1291.761, 0.1661890
1292.243, 3.1102000E-02
1292.725, 2.1606000E-02
1293.207, 9.7129997E-03
1293.689, 0.1701150
1294.171, 0.3764090
1294.653, 0.6606630
1295.135, 0.9063260
1295.618, 0.8458510
1296.100, 0.5207830
1296.582, 0.3617570
1297.064, 0.3978340
1297.546, 0.3715550
1298.028, 0.1377250
1298.510, 1.1597000E-02
1298.992, 1.3576000E-02
1299.475, 0.1090810
1299.957, 0.1451250
1300.439, 7.6903000E-02
1300.921, 4.9793001E-02
1301.403, 5.9138000E-02
1301.885, 0.0000000E+00
##END=



