##NAMES=Gotzenite
##RRUFFID=R070449
##IDEAL CHEMISTRY=NaCa_6_Ti^4+^(Si_2_O_7_)_2_OF_3_
##LOCALITY=Mont Saint-Hilaire, Rouville County, Quebec, Canada
##OWNER=RRUFF
##SOURCE=Michael Scott
##DESCRIPTION=Sprays of yellowish bladed crystals with green or colorless vesuvianite, white thick prismatic pectolite and brown phlogopite mica.
##STATUS=The identification of this mineral has been confirmed by single-crystal X-ray diffraction.
##URL=rruff.info/R070449
103.6128, 0.0000000E+00
104.0950, 2.440796
104.5771, 6.627197
105.0592, 9.374756
105.5413, 10.68555
106.0234, 11.71204
106.5055, 11.21289
106.9877, 9.701294
107.4698, 7.472168
107.9519, 2.260742
108.4340, 0.7427980
108.9161, 0.2762450
109.3982, 4.626099
109.8804, 9.976685
110.3625, 15.26367
110.8446, 20.59143
111.3267, 22.00293
111.8088, 15.00659
112.2909, 7.859009
112.7731, 4.283203
113.2552, 5.087646
113.7373, 8.462036
114.2194, 12.93872
114.7015, 22.12708
115.1836, 26.39795
115.6658, 21.93933
116.1479, 14.69641
116.6300, 10.00879
117.1121, 9.663818
117.5942, 12.14917
118.0763, 13.97839
118.5584, 14.83337
119.0406, 15.77100
119.5227, 17.46680
120.0048, 19.81433
120.4869, 21.88257
120.9690, 23.32092
121.4511, 24.14282
121.9333, 24.09082
122.4154, 21.62488
122.8975, 20.26819
123.3796, 25.06311
123.8617, 36.85327
124.3438, 44.71704
124.8260, 37.86414
125.3081, 26.48596
125.7902, 19.76587
126.2723, 21.50793
126.7544, 28.12231
127.2365, 31.68359
127.7187, 30.70459
128.2008, 28.91663
128.6829, 27.14465
129.1650, 26.28638
129.6471, 25.96155
130.1292, 26.88989
130.6114, 29.76489
131.0935, 33.03223
131.5756, 33.16357
132.0577, 32.44934
132.5398, 31.68848
133.0219, 31.65454
133.5041, 31.31970
133.9862, 32.70630
134.4683, 37.56689
134.9504, 41.10352
135.4325, 42.92798
135.9146, 42.83374
136.3968, 41.52026
136.8789, 40.80347
137.3610, 40.00378
137.8431, 39.09033
138.3252, 38.75159
138.8073, 39.26514
139.2895, 37.94067
139.7716, 36.47388
140.2537, 38.44141
140.7358, 44.92383
141.2179, 51.91870
141.7000, 52.45923
142.1821, 46.74414
142.6643, 41.96777
143.1464, 42.32178
143.6285, 46.51611
144.1106, 49.42139
144.5927, 49.56055
145.0748, 47.69849
145.5570, 44.34937
146.0391, 39.40015
146.5212, 34.46143
147.0033, 30.19019
147.4854, 26.50610
147.9675, 24.40601
148.4497, 25.66187
148.9318, 27.20654
149.4139, 27.63086
149.8960, 26.65210
150.3781, 24.81128
150.8602, 22.35693
151.3424, 18.39258
151.8245, 15.95239
152.3066, 16.96875
152.7887, 18.21167
153.2708, 16.63599
153.7529, 11.11279
154.2351, 3.643799
154.7172, 0.8078610
155.1993, 1.364014
155.6814, 2.496338
156.1635, 1.942871
156.6456, 0.2556150
157.1278, 2.347656
157.6099, 5.876465
158.0920, 9.666016
158.5741, 10.67920
159.0562, 5.821045
159.5383, 2.082764
160.0205, 1.404297
160.5026, 3.150635
160.9847, 6.132568
161.4668, 8.856445
161.9489, 11.92798
162.4310, 12.28052
162.9131, 8.100830
163.3953, 3.237793
163.8774, 0.8876950
164.3595, 4.187500
164.8416, 5.396240
165.3237, 2.651367
165.8058, 2.623535
166.2880, 7.095215
166.7701, 11.26733
167.2522, 13.73413
167.7343, 11.70581
168.2164, 4.015137
168.6985, 2.566406
169.1807, 2.299316
169.6628, 1.085693
170.1449, 3.015137
170.6270, 0.9462890
171.1091, 3.093994
171.5912, 4.255127
172.0734, 1.196777
172.5555, 2.482178
173.0376, 6.433838
173.5197, 9.798096
174.0018, 11.09058
174.4839, 8.917725
174.9661, 4.030029
175.4482, 1.247803
175.9303, 2.524414
176.4124, 3.875000
176.8945, 4.188477
177.3766, 3.801270
177.8588, 3.607910
178.3409, 4.408447
178.8230, 6.216797
179.3051, 6.093506
179.7872, 2.438965
180.2693, 1.531250
180.7515, 5.478760
181.2336, 9.051514
181.7157, 11.57324
182.1978, 12.40381
182.6799, 11.35742
183.1620, 10.05444
183.6441, 6.295166
184.1263, 4.174316
184.6084, 7.449707
185.0905, 15.13696
185.5726, 21.97021
186.0547, 22.75195
186.5368, 16.39014
187.0190, 11.93213
187.5011, 10.65381
187.9832, 10.28418
188.4653, 8.742676
188.9474, 5.864746
189.4296, 3.856201
189.9117, 5.708984
190.3938, 11.23340
190.8759, 14.47827
191.3580, 12.45874
191.8401, 8.932617
192.3223, 8.479492
192.8044, 12.01562
193.2865, 16.48389
193.7686, 19.37891
194.2507, 20.98926
194.7328, 21.58032
195.2150, 20.86646
195.6971, 19.25879
196.1792, 17.21631
196.6613, 14.04517
197.1434, 12.09204
197.6255, 14.09155
198.1077, 18.73828
198.5898, 22.56152
199.0719, 22.80957
199.5540, 20.52490
200.0361, 20.42090
200.5182, 24.17822
201.0004, 28.08203
201.4825, 29.63208
201.9646, 29.64844
202.4467, 30.10498
202.9288, 32.60742
203.4109, 37.02930
203.8930, 40.98120
204.3752, 44.57471
204.8573, 47.44800
205.3394, 49.20020
205.8215, 50.08862
206.3036, 50.68774
206.7857, 51.08936
207.2679, 51.18311
207.7500, 53.13672
208.2321, 60.59839
208.7142, 66.65137
209.1963, 66.76245
209.6784, 63.07031
210.1606, 61.67603
210.6427, 68.90186
211.1248, 86.35693
211.6069, 96.90088
212.0890, 94.55664
212.5711, 91.44360
213.0533, 92.76025
213.5354, 97.94629
214.0175, 103.5356
214.4996, 106.0439
214.9817, 104.4419
215.4638, 106.8286
215.9460, 117.7798
216.4281, 127.8350
216.9102, 131.2561
217.3923, 128.8438
217.8744, 126.5400
218.3565, 129.9797
218.8387, 140.0283
219.3208, 147.8132
219.8029, 152.4919
220.2850, 156.0522
220.7671, 159.5439
221.2492, 163.1099
221.7314, 166.8484
222.2135, 170.7588
222.6956, 174.8508
223.1777, 179.5903
223.6598, 186.3083
224.1419, 192.4910
224.6240, 195.0039
225.1062, 194.0811
225.5883, 194.9121
226.0704, 203.4351
226.5525, 217.9951
227.0346, 227.3474
227.5167, 225.1816
227.9989, 220.8977
228.4810, 224.6128
228.9631, 237.0359
229.4452, 248.4175
229.9273, 249.2366
230.4094, 243.3625
230.8916, 241.7808
231.3737, 249.6001
231.8558, 260.7180
232.3379, 269.0864
232.8200, 274.8093
233.3021, 277.6160
233.7843, 273.6724
234.2664, 267.1965
234.7485, 265.0767
235.2306, 270.8752
235.7127, 280.2400
236.1948, 287.6555
236.6770, 293.0054
237.1591, 297.0979
237.6412, 301.6848
238.1233, 304.9646
238.6054, 304.0522
239.0875, 296.4570
239.5697, 286.6802
240.0518, 282.3003
240.5339, 284.9243
241.0160, 287.6814
241.4981, 287.6536
241.9802, 286.6626
242.4624, 286.3730
242.9445, 287.3708
243.4266, 289.0176
243.9087, 290.2888
244.3908, 291.0869
244.8729, 291.4590
245.3550, 291.5620
245.8372, 291.3301
246.3193, 290.4348
246.8014, 288.7048
247.2835, 286.6736
247.7656, 285.9243
248.2477, 288.2126
248.7299, 287.4031
249.2120, 280.0952
249.6941, 270.7805
250.1762, 262.8035
250.6583, 257.4158
251.1404, 253.9512
251.6226, 251.5488
252.1047, 251.3914
252.5868, 249.0806
253.0689, 242.8491
253.5510, 235.6665
254.0331, 229.5015
254.5153, 224.9546
254.9974, 221.4009
255.4795, 217.8828
255.9616, 214.4119
256.4437, 211.0989
256.9258, 208.4053
257.4080, 205.7356
257.8901, 202.8276
258.3722, 199.6726
258.8543, 196.1699
259.3364, 191.7844
259.8185, 185.2039
260.3007, 181.4302
260.7828, 183.3735
261.2649, 185.6628
261.7470, 184.5696
262.2291, 179.6184
262.7112, 172.8606
263.1934, 166.3691
263.6755, 159.5549
264.1576, 155.6646
264.6397, 155.8806
265.1218, 157.3330
265.6039, 159.1411
266.0861, 160.8127
266.5682, 161.6106
267.0503, 160.6343
267.5324, 157.3240
268.0145, 155.5427
268.4966, 156.5229
268.9788, 157.4749
269.4609, 157.1589
269.9430, 155.6042
270.4251, 153.4810
270.9072, 151.3828
271.3893, 149.2998
271.8715, 146.2373
272.3536, 140.6450
272.8357, 135.7566
273.3178, 132.9917
273.7999, 132.0818
274.2820, 132.1543
274.7642, 132.7419
275.2463, 133.7886
275.7284, 134.4678
276.2105, 135.1631
276.6926, 135.2070
277.1747, 133.7388
277.6568, 131.4551
278.1389, 130.1130
278.6211, 130.9382
279.1032, 133.0332
279.5853, 132.4343
280.0674, 124.1106
280.5495, 119.4868
281.0316, 125.1279
281.5138, 135.9749
281.9959, 143.0645
282.4780, 142.4399
282.9601, 136.2847
283.4422, 129.3057
283.9243, 118.7563
284.4065, 112.4465
284.8886, 115.3386
285.3707, 122.5725
285.8528, 126.8706
286.3349, 125.7268
286.8170, 121.8894
287.2992, 120.1396
287.7813, 121.4097
288.2634, 121.3516
288.7455, 118.2761
289.2276, 113.8823
289.7097, 109.5576
290.1919, 105.5356
290.6740, 103.1792
291.1561, 105.2317
291.6382, 112.5552
292.1203, 117.0381
292.6024, 116.6570
293.0846, 113.7683
293.5667, 110.1096
294.0488, 105.9648
294.5309, 102.0681
295.0130, 99.36377
295.4951, 97.83301
295.9773, 95.19336
296.4594, 88.87354
296.9415, 83.30273
297.4236, 83.59570
297.9057, 89.18604
298.3878, 93.03516
298.8700, 89.43750
299.3521, 79.73340
299.8342, 73.56934
300.3163, 72.52100
300.7984, 73.35254
301.2805, 75.64209
301.7627, 78.59375
302.2448, 79.14062
302.7269, 75.26855
303.2090, 68.42139
303.6911, 62.97656
304.1732, 59.71143
304.6554, 56.64893
305.1375, 51.51660
305.6196, 45.80566
306.1017, 44.34131
306.5838, 50.36865
307.0659, 58.90381
307.5481, 59.06543
308.0302, 48.69141
308.5123, 40.22314
308.9944, 38.65967
309.4765, 41.21973
309.9586, 43.66748
310.4408, 45.11182
310.9229, 45.89551
311.4050, 45.24512
311.8871, 42.80615
312.3692, 44.27734
312.8513, 54.85107
313.3335, 68.26953
313.8156, 76.88477
314.2977, 79.22266
314.7798, 78.15088
315.2619, 74.77197
315.7440, 69.74268
316.2262, 69.33594
316.7083, 79.71973
317.1904, 91.46826
317.6725, 93.80615
318.1546, 86.87891
318.6367, 82.83691
319.1188, 91.40381
319.6010, 110.1455
320.0831, 124.1348
320.5652, 130.5078
321.0473, 134.5117
321.5294, 138.4443
322.0115, 142.3003
322.4937, 146.5884
322.9758, 152.0630
323.4579, 157.8213
323.9400, 160.6631
324.4221, 158.7646
324.9042, 157.7246
325.3864, 160.4653
325.8685, 165.7368
326.3506, 171.3882
326.8327, 177.0596
327.3148, 181.6934
327.7969, 183.1050
328.2791, 180.7568
328.7612, 179.3813
329.2433, 180.2476
329.7254, 182.3262
330.2075, 184.5396
330.6896, 186.7036
331.1718, 188.9448
331.6539, 191.5576
332.1360, 194.5635
332.6181, 197.0830
333.1002, 197.0977
333.5823, 198.0425
334.0645, 204.0034
334.5466, 214.1870
335.0287, 222.9673
335.5108, 226.1602
335.9929, 224.3921
336.4750, 223.0806
336.9572, 222.5566
337.4393, 222.1133
337.9214, 220.7466
338.4035, 219.2085
338.8856, 220.0649
339.3677, 225.2627
339.8499, 231.7529
340.3320, 230.3618
340.8141, 215.5479
341.2962, 204.0718
341.7783, 201.0068
342.2604, 202.3105
342.7426, 203.2256
343.2247, 202.3452
343.7068, 200.2783
344.1889, 197.7080
344.6710, 194.2900
345.1531, 191.5063
345.6353, 191.5361
346.1174, 190.6782
346.5995, 185.5786
347.0816, 176.2676
347.5637, 165.3818
348.0458, 154.9268
348.5280, 144.8896
349.0101, 137.0200
349.4922, 133.5688
349.9743, 129.6797
350.4564, 122.1694
350.9385, 112.5459
351.4207, 104.5752
351.9028, 100.5645
352.3849, 99.58691
352.8670, 97.74414
353.3491, 97.63623
353.8312, 93.47021
354.3134, 79.72119
354.7955, 63.40527
355.2776, 53.55029
355.7597, 53.18799
356.2418, 57.17773
356.7239, 56.77930
357.2061, 48.87695
357.6882, 42.58154
358.1703, 37.58057
358.6524, 34.28271
359.1345, 34.42676
359.6166, 37.23340
360.0987, 38.88379
360.5808, 35.47705
361.0630, 26.37402
361.5451, 17.59961
362.0272, 8.744141
362.5093, 0.6069340
362.9914, 6.333008
363.4735, 12.43262
363.9557, 18.45557
364.4378, 24.83936
364.9199, 31.14209
365.4020, 35.78760
365.8841, 38.44531
366.3662, 40.10791
366.8484, 39.39502
367.3305, 38.26855
367.8126, 38.73926
368.2947, 41.49854
368.7768, 45.66016
369.2589, 49.81689
369.7411, 53.65625
370.2232, 58.53662
370.7053, 67.03223
371.1874, 73.93896
371.6695, 75.44922
372.1516, 72.53809
372.6338, 69.42334
373.1159, 69.52637
373.5980, 72.89355
374.0801, 78.85596
374.5622, 92.13623
375.0443, 101.3833
375.5265, 100.6982
376.0086, 94.81445
376.4907, 91.01270
376.9728, 92.93213
377.4549, 97.17529
377.9370, 96.58740
378.4192, 89.91260
378.9013, 82.53271
379.3834, 74.56934
379.8655, 67.23291
380.3476, 62.30762
380.8297, 60.05420
381.3119, 57.10986
381.7940, 49.12891
382.2761, 36.27295
382.7582, 26.19141
383.2403, 21.82910
383.7224, 17.91650
384.2046, 10.91699
384.6867, 1.429199
385.1688, 8.904297
385.6509, 18.60693
386.1330, 28.38672
386.6151, 40.89355
387.0973, 57.22119
387.5794, 72.06104
388.0615, 80.13574
388.5436, 85.42725
389.0257, 93.61035
389.5078, 106.1338
389.9900, 120.9312
390.4721, 136.7734
390.9542, 153.5981
391.4363, 169.9961
391.9184, 184.6279
392.4005, 199.7910
392.8827, 220.0981
393.3648, 246.2578
393.8469, 268.6611
394.3290, 280.8960
394.8111, 287.8936
395.2932, 296.8071
395.7754, 308.8516
396.2575, 322.7661
396.7396, 338.1343
397.2217, 354.8696
397.7038, 371.3667
398.1859, 386.6860
398.6681, 402.8335
399.1501, 421.7720
399.6323, 442.8599
400.1144, 463.8970
400.5965, 483.9053
401.0786, 502.8965
401.5607, 520.2627
402.0428, 534.4536
402.5250, 549.9487
403.0071, 565.9551
403.4892, 584.3564
403.9713, 609.4858
404.4534, 641.5645
404.9355, 673.0034
405.4177, 694.0981
405.8998, 701.3652
406.3819, 714.7642
406.8640, 738.7334
407.3461, 763.6904
407.8282, 784.8311
408.3104, 803.1289
408.7925, 822.2734
409.2746, 845.0562
409.7567, 870.1875
410.2388, 892.1191
410.7209, 904.4458
411.2031, 921.9365
411.6852, 948.5181
412.1673, 979.0854
412.6494, 1010.076
413.1315, 1040.135
413.6136, 1067.969
414.0958, 1090.813
414.5779, 1106.862
415.0600, 1125.044
415.5421, 1146.513
416.0242, 1169.117
416.5063, 1191.198
416.9885, 1214.032
417.4706, 1240.297
417.9527, 1272.904
418.4348, 1309.122
418.9169, 1339.820
419.3990, 1361.446
419.8812, 1384.920
420.3633, 1416.138
420.8454, 1449.045
421.3275, 1477.047
421.8096, 1498.354
422.2917, 1519.007
422.7739, 1545.035
423.2560, 1576.269
423.7381, 1609.955
424.2202, 1649.069
424.7023, 1685.774
425.1844, 1712.515
425.6666, 1731.663
426.1487, 1752.377
426.6308, 1779.190
427.1129, 1809.441
427.5950, 1839.738
428.0771, 1870.349
428.5593, 1898.921
429.0414, 1923.587
429.5235, 1946.017
430.0056, 1969.859
430.4877, 1996.308
430.9698, 2021.565
431.4520, 2041.943
431.9341, 2059.725
432.4162, 2080.264
432.8983, 2105.430
433.3804, 2131.430
433.8625, 2153.246
434.3447, 2169.950
434.8268, 2187.866
435.3089, 2208.909
435.7910, 2229.774
436.2731, 2247.837
436.7552, 2263.722
437.2374, 2280.128
437.7195, 2298.700
438.2016, 2318.484
438.6837, 2335.893
439.1658, 2350.228
439.6479, 2363.313
440.1301, 2373.375
440.6122, 2383.334
441.0943, 2396.791
441.5764, 2413.908
442.0585, 2431.032
442.5406, 2444.135
443.0227, 2453.276
443.5049, 2457.698
443.9870, 2452.698
444.4691, 2447.840
444.9512, 2448.232
445.4333, 2450.313
445.9154, 2446.949
446.3976, 2433.820
446.8797, 2416.709
447.3618, 2410.548
447.8439, 2422.112
448.3260, 2424.264
448.8081, 2405.063
449.2903, 2379.785
449.7724, 2356.995
450.2545, 2337.405
450.7366, 2317.562
451.2187, 2295.162
451.7008, 2270.357
452.1830, 2244.695
452.6651, 2219.062
453.1472, 2190.617
453.6293, 2152.550
454.1114, 2111.803
454.5935, 2079.478
455.0757, 2061.755
455.5578, 2045.580
456.0399, 2020.316
456.5220, 1987.371
457.0041, 1951.543
457.4862, 1912.711
457.9684, 1874.506
458.4505, 1842.877
458.9326, 1817.803
459.4147, 1791.020
459.8968, 1761.736
460.3789, 1729.863
460.8611, 1694.797
461.3432, 1656.884
461.8253, 1617.323
462.3074, 1575.940
462.7895, 1534.113
463.2716, 1496.563
463.7538, 1461.073
464.2359, 1432.397
464.7180, 1416.433
465.2001, 1404.344
465.6822, 1385.412
466.1643, 1358.383
466.6465, 1332.593
467.1286, 1319.472
467.6107, 1321.072
468.0928, 1313.803
468.5749, 1286.054
469.0570, 1261.615
469.5392, 1247.684
470.0213, 1240.877
470.5034, 1236.025
470.9855, 1230.860
471.4676, 1226.381
471.9497, 1224.707
472.4319, 1226.577
472.9140, 1228.069
473.3961, 1226.313
473.8782, 1226.241
474.3603, 1231.674
474.8424, 1241.683
475.3246, 1251.872
475.8067, 1258.628
476.2888, 1264.200
476.7709, 1274.299
477.2530, 1289.763
477.7351, 1304.177
478.2173, 1311.088
478.6994, 1317.299
479.1815, 1333.595
479.6636, 1362.372
480.1457, 1393.854
480.6278, 1424.356
481.1100, 1453.940
481.5920, 1481.916
482.0742, 1507.989
482.5563, 1535.759
483.0384, 1569.365
483.5205, 1608.591
484.0026, 1644.548
484.4847, 1674.930
484.9669, 1704.645
485.4490, 1735.717
485.9311, 1767.564
486.4132, 1797.992
486.8953, 1826.298
487.3774, 1856.018
487.8596, 1893.706
488.3417, 1945.933
488.8238, 1988.431
489.3059, 2013.179
489.7880, 2037.555
490.2701, 2070.158
490.7523, 2109.194
491.2344, 2149.189
491.7165, 2187.037
492.1986, 2222.872
492.6807, 2256.722
493.1628, 2287.705
493.6450, 2319.048
494.1271, 2347.818
494.6092, 2379.693
495.0913, 2423.864
495.5734, 2478.224
496.0555, 2524.512
496.5377, 2544.611
497.0198, 2547.258
497.5019, 2555.647
497.9840, 2570.734
498.4661, 2589.634
498.9482, 2614.960
499.4304, 2641.583
499.9125, 2659.301
500.3946, 2664.285
500.8767, 2668.444
501.3588, 2678.111
501.8409, 2690.745
502.3231, 2702.719
502.8052, 2713.406
503.2873, 2720.877
503.7694, 2723.082
504.2515, 2719.612
504.7336, 2714.064
505.2158, 2703.319
505.6979, 2694.174
506.1800, 2692.582
506.6621, 2693.180
507.1442, 2687.540
507.6263, 2672.602
508.1085, 2652.493
508.5906, 2634.219
509.0727, 2619.638
509.5548, 2600.727
510.0369, 2573.750
510.5190, 2546.175
511.0012, 2521.990
511.4833, 2498.657
511.9654, 2470.852
512.4475, 2435.497
512.9296, 2397.318
513.4117, 2364.728
513.8939, 2337.803
514.3760, 2308.908
514.8581, 2277.798
515.3402, 2242.645
515.8223, 2201.195
516.3044, 2154.828
516.7866, 2110.131
517.2687, 2069.168
517.7508, 2030.529
518.2329, 1993.140
518.7150, 1957.021
519.1971, 1921.049
519.6793, 1885.313
520.1614, 1848.686
520.6435, 1809.828
521.1256, 1769.810
521.6077, 1725.668
522.0898, 1671.829
522.5720, 1616.808
523.0541, 1568.458
523.5362, 1527.474
524.0183, 1490.345
524.5004, 1454.908
524.9825, 1420.612
525.4647, 1384.655
525.9468, 1347.401
526.4289, 1308.953
526.9110, 1268.127
527.3931, 1226.609
527.8752, 1186.035
528.3574, 1146.938
528.8395, 1109.041
529.3216, 1071.690
529.8037, 1034.827
530.2858, 998.9312
530.7679, 963.6362
531.2501, 930.9365
531.7322, 905.9736
532.2143, 882.0977
532.6964, 850.5566
533.1785, 808.9106
533.6606, 767.4395
534.1428, 732.1655
534.6249, 701.9404
535.1070, 674.2676
535.5891, 648.9443
536.0712, 624.1318
536.5533, 598.2036
537.0355, 571.7334
537.5176, 548.7329
537.9997, 533.7114
538.4818, 516.3604
538.9639, 492.8853
539.4460, 465.4902
539.9282, 435.4023
540.4103, 403.7285
540.8924, 373.8296
541.3745, 349.7026
541.8566, 331.4932
542.3387, 313.4653
542.8209, 294.1318
543.3029, 277.1050
543.7850, 265.8389
544.2672, 255.9409
544.7493, 242.5488
545.2314, 224.5098
545.7135, 204.6890
546.1956, 186.3945
546.6777, 169.2793
547.1599, 151.2686
547.6420, 131.2388
548.1241, 112.4810
548.6062, 95.77930
549.0883, 82.22998
549.5704, 74.29639
550.0526, 74.33838
550.5347, 75.97705
551.0168, 77.11035
551.4989, 76.60547
551.9810, 71.44336
552.4631, 60.91553
552.9453, 47.97949
553.4274, 34.85400
553.9095, 21.45801
554.3916, 10.95459
554.8737, 4.807617
555.3558, 0.7836910
555.8380, 6.402344
556.3201, 12.54541
556.8022, 20.41748
557.2843, 29.91846
557.7664, 37.47705
558.2485, 38.21436
558.7307, 31.67725
559.2128, 28.82812
559.6949, 30.72754
560.1770, 34.88965
560.6591, 42.50830
561.1412, 50.75391
561.6234, 56.15967
562.1055, 57.65088
562.5876, 57.86523
563.0697, 58.40088
563.5518, 59.44336
564.0339, 62.39209
564.5161, 68.18164
564.9982, 72.37402
565.4803, 70.87085
565.9624, 65.05249
566.4445, 61.66309
566.9266, 62.34497
567.4088, 63.14087
567.8909, 63.71240
568.3730, 63.16431
568.8551, 58.55933
569.3372, 50.29224
569.8193, 45.27417
570.3015, 51.01025
570.7836, 66.59644
571.2657, 72.79370
571.7478, 61.90942
572.2299, 51.64771
572.7120, 42.52734
573.1942, 36.60620
573.6763, 38.12695
574.1584, 46.55835
574.6405, 53.27759
575.1226, 49.23950
575.6047, 37.08374
576.0869, 27.62305
576.5690, 21.11963
577.0511, 16.17212
577.5332, 11.78955
578.0153, 8.847900
578.4974, 9.195313
578.9796, 14.00806
579.4617, 16.87158
579.9438, 13.40601
580.4259, 7.873291
580.9080, 6.079590
581.3901, 7.683350
581.8723, 7.546387
582.3544, 2.167236
582.8365, 6.885010
583.3186, 14.19971
583.8007, 18.31958
584.2828, 22.89355
584.7650, 30.43213
585.2471, 36.37354
585.7292, 35.76733
586.2113, 30.62427
586.6934, 27.63647
587.1755, 31.36548
587.6577, 39.15381
588.1398, 45.18848
588.6219, 49.24048
589.1040, 52.90820
589.5861, 55.92212
590.0682, 59.34863
590.5504, 64.58789
591.0325, 71.30591
591.5146, 77.40186
591.9967, 81.68091
592.4788, 85.56226
592.9609, 90.54834
593.4431, 96.21973
593.9252, 101.3655
594.4073, 105.6042
594.8894, 108.7659
595.3715, 110.2595
595.8536, 109.1479
596.3358, 110.6628
596.8179, 116.8066
597.3000, 122.9473
597.7821, 127.3218
598.2642, 130.7012
598.7463, 134.1833
599.2285, 138.1504
599.7106, 142.5623
600.1927, 147.2781
600.6748, 152.2837
601.1569, 158.3381
601.6390, 166.7661
602.1212, 173.4800
602.6033, 173.9731
603.0854, 171.8909
603.5675, 172.9111
604.0496, 178.0996
604.5317, 185.0691
605.0139, 194.6265
605.4960, 204.3184
605.9781, 209.8333
606.4602, 211.0647
606.9423, 212.0161
607.4244, 215.6204
607.9066, 221.2654
608.3887, 226.0916
608.8708, 229.6296
609.3529, 233.0320
609.8350, 237.0618
610.3171, 240.4211
610.7993, 241.3489
611.2814, 240.6362
611.7635, 240.7786
612.2456, 242.9783
612.7277, 247.6028
613.2098, 256.6633
613.6920, 270.7466
614.1741, 281.7998
614.6562, 287.0168
615.1383, 289.4531
615.6204, 291.9233
616.1025, 294.4849
616.5847, 296.7163
617.0668, 297.4822
617.5489, 298.5437
618.0310, 301.0171
618.5131, 304.4573
618.9952, 308.3955
619.4774, 312.7424
619.9595, 316.7925
620.4416, 319.2710
620.9237, 319.8577
621.4058, 323.4236
621.8879, 335.3059
622.3701, 343.2224
622.8522, 341.9368
623.3343, 337.4998
623.8164, 335.9478
624.2985, 338.2954
624.7806, 341.8086
625.2628, 344.7900
625.7448, 347.3865
626.2269, 350.0933
626.7090, 353.1689
627.1912, 356.2629
627.6733, 359.2190
628.1554, 360.9805
628.6375, 359.6326
629.1196, 355.0859
629.6017, 352.4167
630.0839, 353.2126
630.5660, 355.0637
631.0481, 356.3430
631.5302, 356.6709
632.0123, 356.2148
632.4944, 355.3425
632.9766, 354.2131
633.4587, 352.2095
633.9408, 348.5972
634.4229, 346.5713
634.9050, 346.2344
635.3871, 347.3582
635.8693, 351.4624
636.3514, 355.9976
636.8335, 356.6750
637.3156, 352.0310
637.7977, 346.9412
638.2798, 344.2051
638.7620, 343.3240
639.2441, 344.0557
639.7262, 346.4541
640.2083, 349.0696
640.6904, 351.0930
641.1725, 352.2590
641.6547, 352.1213
642.1368, 349.9846
642.6189, 347.7185
643.1010, 343.4563
643.5831, 340.2312
644.0652, 341.6345
644.5474, 345.6675
645.0295, 346.9106
645.5116, 342.1321
645.9937, 335.2129
646.4758, 333.0820
646.9579, 335.6348
647.4401, 335.9771
647.9222, 332.4038
648.4043, 328.3608
648.8864, 326.7498
649.3685, 326.5793
649.8506, 325.0840
650.3328, 320.6438
650.8149, 317.2178
651.2970, 318.1643
651.7791, 320.0369
652.2612, 317.3689
652.7433, 310.4250
653.2255, 305.2971
653.7076, 306.8730
654.1897, 313.0474
654.6718, 315.2893
655.1539, 311.1436
655.6360, 308.7278
656.1182, 312.7812
656.6003, 315.6904
657.0824, 311.7834
657.5645, 303.0818
658.0466, 296.0930
658.5287, 292.9968
659.0109, 292.6104
659.4930, 296.1699
659.9751, 301.5415
660.4572, 302.5149
660.9393, 297.6445
661.4214, 289.7065
661.9036, 280.2263
662.3857, 269.8218
662.8678, 264.4229
663.3499, 268.5479
663.8320, 271.4771
664.3141, 272.5635
664.7963, 272.1111
665.2784, 270.0046
665.7605, 266.4905
666.2426, 262.3342
666.7247, 257.6643
667.2068, 252.7302
667.6890, 247.8201
668.1711, 243.2812
668.6532, 239.6702
669.1353, 237.2327
669.6174, 234.2014
670.0995, 228.6926
670.5817, 221.1279
671.0638, 215.3560
671.5459, 212.7869
672.0280, 209.9663
672.5101, 205.5208
672.9922, 200.6692
673.4744, 196.5251
673.9565, 193.2769
674.4386, 190.5840
674.9207, 188.2615
675.4028, 186.1011
675.8849, 183.4167
676.3671, 180.1875
676.8492, 176.5300
677.3313, 172.2798
677.8134, 167.8608
678.2955, 163.4634
678.7776, 159.1099
679.2598, 154.9917
679.7419, 150.9705
680.2240, 147.4976
680.7061, 144.9529
681.1882, 143.0540
681.6703, 142.0684
682.1525, 141.7007
682.6346, 139.4646
683.1167, 132.8740
683.5988, 123.2705
684.0809, 117.2332
684.5630, 115.7632
685.0452, 115.7024
685.5273, 118.3201
686.0094, 120.7773
686.4915, 122.2502
686.9736, 122.2236
687.4557, 119.3330
687.9379, 111.9238
688.4200, 103.4900
688.9021, 96.45215
689.3842, 90.87500
689.8663, 87.12866
690.3484, 85.22998
690.8306, 84.81616
691.3127, 86.04517
691.7948, 88.15845
692.2769, 87.21460
692.7590, 80.68188
693.2411, 75.10132
693.7233, 71.20239
694.2054, 67.97656
694.6875, 64.83862
695.1696, 61.86816
695.6517, 59.60938
696.1339, 58.66284
696.6160, 57.41699
697.0981, 52.63940
697.5802, 45.95410
698.0623, 43.81299
698.5444, 47.48706
699.0266, 51.43726
699.5087, 51.87671
699.9908, 49.52612
700.4729, 47.18359
700.9550, 44.99463
701.4371, 42.54663
701.9193, 39.45239
702.4014, 36.42993
702.8835, 33.33911
703.3656, 30.76392
703.8477, 30.30273
704.3298, 32.94360
704.8120, 35.31519
705.2941, 31.79004
705.7762, 24.04956
706.2583, 20.91577
706.7404, 23.85254
707.2225, 27.04712
707.7046, 27.30566
708.1867, 25.42188
708.6688, 23.10889
709.1509, 19.27686
709.6331, 17.76416
710.1152, 21.91870
710.5973, 25.39209
711.0794, 23.12549
711.5615, 17.82080
712.0436, 14.96655
712.5258, 16.47485
713.0079, 18.84009
713.4900, 18.03418
713.9721, 14.50684
714.4542, 10.27124
714.9363, 5.095215
715.4185, 1.251465
715.9006, 4.5653999E-02
716.3827, 0.5390630
716.8648, 1.206543
717.3469, 1.944824
717.8290, 3.450684
718.3112, 8.182617
718.7933, 11.14575
719.2754, 7.769287
719.7575, 1.931641
720.2396, 6.0302999E-02
720.7217, 3.021484
721.2039, 6.187988
721.6860, 4.097168
722.1681, 1.757080
722.6502, 5.721924
723.1323, 7.829590
723.6144, 7.649414
724.0966, 3.477539
724.5787, 0.7089840
725.0608, 0.7521970
725.5429, 7.707031
726.0250, 11.60718
726.5071, 9.163574
726.9893, 6.993896
727.4714, 8.459229
727.9535, 10.86279
728.4356, 11.53516
728.9177, 9.893066
729.3998, 5.868652
729.8820, 1.423584
730.3641, 9.582764
730.8462, 12.67065
731.3283, 10.50293
731.8104, 7.591797
732.2925, 3.812988
732.7747, 1.850098
733.2568, 5.691895
733.7389, 13.48120
734.2210, 15.51538
734.7031, 6.097168
735.1852, 0.3090820
735.6674, 0.8720700
736.1495, 4.810303
736.6316, 8.302002
737.1137, 10.94165
737.5958, 12.96973
738.0779, 14.45679
738.5601, 16.04004
739.0422, 19.17212
739.5243, 23.55884
740.0064, 25.86499
740.4885, 25.20532
740.9706, 25.33228
741.4528, 29.17529
741.9349, 34.54346
742.4170, 36.12915
742.8991, 32.23193
743.3812, 30.57837
743.8633, 34.14282
744.3455, 37.75806
744.8276, 38.26904
745.3097, 37.07397
745.7918, 36.56714
746.2739, 37.47363
746.7560, 39.10327
747.2382, 40.91504
747.7203, 42.92310
748.2024, 45.22266
748.6845, 47.83887
749.1666, 50.62329
749.6487, 54.12476
750.1309, 56.13647
750.6130, 52.57275
751.0951, 42.79395
751.5772, 40.89014
752.0593, 54.94238
752.5414, 65.65894
753.0236, 65.64722
753.5057, 62.78638
753.9878, 64.53760
754.4699, 70.68335
754.9520, 76.49463
755.4341, 79.70166
755.9163, 80.47119
756.3984, 77.21484
756.8805, 71.40552
757.3626, 70.48560
757.8447, 75.95410
758.3268, 81.39771
758.8090, 82.43945
759.2911, 79.93970
759.7732, 76.64648
760.2553, 70.85742
760.7374, 67.51025
761.2195, 68.05273
761.7017, 69.46289
762.1838, 70.65747
762.6659, 71.72314
763.1480, 73.15283
763.6301, 75.08936
764.1122, 76.22021
764.5944, 74.78320
765.0765, 72.42139
765.5586, 72.00195
766.0407, 73.18042
766.5228, 73.63745
767.0049, 72.42969
767.4871, 70.33569
767.9692, 68.13525
768.4513, 65.67554
768.9334, 65.71069
769.4155, 70.37793
769.8976, 73.90820
770.3798, 74.17334
770.8619, 73.64038
771.3440, 75.07642
771.8261, 77.67773
772.3082, 76.98975
772.7903, 67.61499
773.2725, 59.58887
773.7546, 63.11304
774.2367, 71.32471
774.7188, 72.33618
775.2009, 65.64087
775.6830, 59.64893
776.1652, 60.08643
776.6473, 63.99683
777.1294, 64.16260
777.6115, 59.82837
778.0936, 56.47900
778.5757, 54.62744
779.0579, 53.88574
779.5400, 55.31592
780.0221, 56.99170
780.5042, 55.85107
780.9863, 51.63647
781.4684, 46.29590
781.9506, 37.98389
782.4327, 31.36694
782.9148, 30.32837
783.3969, 32.13428
783.8790, 33.07959
784.3611, 32.43530
784.8433, 30.94458
785.3254, 28.64404
785.8075, 26.00293
786.2896, 25.19971
786.7717, 26.41895
787.2538, 26.83252
787.7360, 25.74780
788.2181, 23.22583
788.7002, 19.01025
789.1823, 13.37036
789.6644, 8.936523
790.1465, 6.330078
790.6286, 3.954590
791.1107, 0.7712400
791.5928, 1.291260
792.0750, 0.2065430
792.5571, 2.730225
793.0392, 4.693604
793.5213, 4.602295
794.0034, 4.463867
794.4855, 6.845703
794.9677, 10.03638
795.4498, 10.70630
795.9319, 8.898193
796.4140, 5.777832
796.8961, 1.603760
797.3782, 1.277344
797.8604, 1.171631
798.3425, 9.386230
798.8246, 11.29028
799.3067, 2.050049
799.7888, 4.776367
800.2709, 3.285889
800.7531, 0.1975100
801.2352, 1.107910
801.7173, 5.081299
802.1994, 6.681152
802.6815, 2.650879
803.1636, 1.349609
803.6458, 1.491455
804.1279, 0.5676270
804.6100, 2.448486
805.0921, 6.619873
805.5742, 9.574463
806.0563, 9.326660
806.5385, 8.094727
807.0206, 9.857910
807.5027, 14.31177
807.9848, 16.72485
808.4669, 16.39209
808.9490, 16.99365
809.4312, 21.14111
809.9133, 25.71387
810.3954, 25.71436
810.8775, 20.24878
811.3596, 15.88208
811.8417, 13.48682
812.3239, 11.09814
812.8060, 5.909180
813.2881, 2.139893
813.7702, 5.083252
814.2523, 13.67554
814.7344, 21.86621
815.2166, 26.92310
815.6987, 29.81909
816.1808, 31.30054
816.6629, 31.38525
817.1450, 29.02051
817.6271, 24.63330
818.1093, 22.28491
818.5914, 24.32153
819.0735, 29.52686
819.5556, 36.40112
820.0377, 45.96826
820.5198, 50.33594
821.0020, 47.40039
821.4841, 43.14990
821.9662, 37.57788
822.4483, 33.37769
822.9304, 34.83813
823.4125, 41.69824
823.8947, 45.79712
824.3768, 43.55029
824.8589, 40.64087
825.3410, 38.08203
825.8231, 37.13013
826.3052, 40.52368
826.7874, 47.08252
827.2695, 51.89844
827.7516, 51.99414
828.2337, 50.37744
828.7158, 51.78760
829.1979, 55.21729
829.6801, 56.11841
830.1622, 54.08740
830.6443, 51.76074
831.1264, 50.22314
831.6085, 49.71655
832.0906, 50.71899
832.5728, 53.38086
833.0549, 56.38794
833.5370, 61.26123
834.0191, 64.16846
834.5012, 64.10498
834.9833, 61.99243
835.4655, 57.08765
835.9476, 50.45508
836.4297, 46.56616
836.9118, 47.31177
837.3939, 50.21606
837.8760, 56.55908
838.3582, 62.62524
838.8403, 63.41504
839.3224, 59.76855
839.8045, 55.37671
840.2866, 51.97290
840.7687, 50.21021
841.2509, 51.89404
841.7330, 56.26855
842.2151, 58.86353
842.6972, 59.51929
843.1793, 59.55371
843.6614, 59.14355
844.1436, 59.18213
844.6257, 61.22778
845.1078, 65.15210
845.5899, 65.77393
846.0720, 59.23975
846.5541, 54.99683
847.0363, 55.02002
847.5184, 56.36621
848.0005, 57.84351
848.4826, 59.07935
848.9647, 59.12671
849.4468, 57.05518
849.9290, 56.87500
850.4111, 62.97900
850.8932, 70.23682
851.3753, 74.31079
851.8574, 75.08154
852.3395, 71.87378
852.8217, 65.11694
853.3038, 59.45483
853.7859, 60.13818
854.2680, 64.92017
854.7501, 66.61304
855.2322, 65.22070
855.7144, 64.17725
856.1965, 64.18384
856.6786, 64.33716
857.1607, 63.44458
857.6428, 62.53223
858.1249, 65.48755
858.6071, 76.45459
859.0892, 82.17700
859.5713, 78.78564
860.0534, 74.73657
860.5355, 72.19141
861.0176, 71.10498
861.4998, 71.98413
861.9819, 74.66431
862.4640, 76.15234
862.9461, 74.49463
863.4282, 72.04761
863.9103, 69.22095
864.3925, 67.27808
864.8746, 69.03857
865.3567, 73.75220
865.8388, 77.18140
866.3209, 76.81201
866.8030, 74.54736
867.2852, 72.54761
867.7673, 71.09448
868.2494, 72.24951
868.7315, 76.23950
869.2136, 79.56274
869.6957, 80.63403
870.1779, 80.61279
870.6600, 80.97852
871.1421, 81.75464
871.6242, 82.70630
872.1063, 85.19238
872.5884, 85.27588
873.0705, 77.87671
873.5526, 72.18066
874.0347, 76.08496
874.5168, 85.68335
874.9990, 90.96582
875.4811, 88.78931
875.9632, 87.15112
876.4453, 91.31421
876.9274, 94.49634
877.4095, 89.91479
877.8917, 81.77832
878.3738, 76.66528
878.8559, 76.11328
879.3380, 78.52539
879.8201, 84.12354
880.3022, 90.36206
880.7844, 92.15601
881.2665, 90.90991
881.7486, 92.56836
882.2307, 97.86938
882.7128, 101.5974
883.1949, 100.2693
883.6771, 96.05737
884.1592, 93.18066
884.6413, 91.73975
885.1234, 91.65723
885.6055, 93.78247
886.0876, 94.77783
886.5698, 92.39502
887.0519, 89.61279
887.5340, 90.39941
888.0161, 94.19238
888.4982, 95.68774
888.9803, 93.19019
889.4625, 90.97876
889.9446, 89.77783
890.4267, 89.33276
890.9088, 89.67725
891.3909, 90.57642
891.8730, 91.75464
892.3552, 93.06274
892.8373, 94.28784
893.3194, 96.26978
893.8015, 97.63647
894.2836, 95.44214
894.7657, 91.88696
895.2479, 92.72217
895.7300, 98.14990
896.2121, 101.3315
896.6942, 96.77808
897.1763, 88.63232
897.6584, 85.87720
898.1406, 87.91382
898.6227, 87.77881
899.1048, 84.65088
899.5869, 82.87256
900.0690, 84.94604
900.5511, 87.84668
901.0333, 86.69922
901.5154, 81.27783
901.9975, 79.10303
902.4796, 83.24365
902.9617, 84.58301
903.4438, 78.20410
903.9260, 71.62085
904.4081, 70.55322
904.8902, 73.26758
905.3723, 75.17896
905.8544, 75.34717
906.3365, 76.05347
906.8187, 79.60083
907.3008, 81.89282
907.7829, 79.49756
908.2650, 74.83423
908.7471, 70.77954
909.2292, 68.11304
909.7114, 67.09888
910.1935, 69.05518
910.6756, 70.86743
911.1577, 68.73633
911.6398, 64.46045
912.1219, 60.84082
912.6041, 58.38428
913.0862, 58.05371
913.5683, 60.35132
914.0504, 61.72339
914.5325, 55.45410
915.0146, 43.82422
915.4968, 41.72070
915.9789, 49.61377
916.4610, 52.72705
916.9431, 46.43188
917.4252, 38.94849
917.9073, 37.07886
918.3895, 39.31445
918.8716, 40.18774
919.3537, 39.26172
919.8358, 38.08691
920.3179, 37.36255
920.8000, 35.33643
921.2822, 29.46338
921.7643, 23.08521
922.2464, 20.43774
922.7285, 21.38367
923.2106, 21.13831
923.6927, 17.16528
924.1749, 14.38806
924.6570, 15.86938
925.1391, 17.58752
925.6212, 15.60535
926.1033, 11.55261
926.5854, 9.515381
927.0676, 10.76111
927.5497, 12.05518
928.0318, 11.05493
928.5139, 9.296387
928.9960, 7.153076
929.4781, 5.838135
929.9603, 9.056763
930.4424, 16.14844
930.9245, 20.66431
931.4066, 18.32373
931.8887, 12.41614
932.3708, 6.766235
932.8530, 1.918335
933.3351, 1.504761
933.8172, 5.315186
934.2993, 6.088013
934.7814, 0.8343510
935.2635, 5.106689
935.7457, 5.697998
936.2278, 2.034302
936.7099, 0.7808840
937.1920, 2.876099
937.6741, 3.265015
938.1563, 0.4813230
938.6384, 2.084106
939.1205, 2.162842
939.6026, 1.210205
940.0847, 2.198608
940.5668, 5.905762
941.0490, 7.008057
941.5311, 4.214600
942.0132, 0.7238770
942.4953, 4.087280
942.9774, 8.290649
943.4595, 9.203613
943.9417, 8.549072
944.4238, 11.72437
944.9059, 22.07385
945.3880, 27.27405
945.8701, 17.70300
946.3522, 7.234741
946.8344, 5.558228
947.3165, 8.380737
947.7986, 9.297119
948.2807, 7.741333
948.7628, 7.523560
949.2449, 11.58557
949.7271, 15.39673
950.2092, 12.98804
950.6913, 8.452148
951.1734, 8.627075
951.6555, 12.64453
952.1376, 16.60754
952.6198, 18.95166
953.1019, 18.57275
953.5840, 13.66736
954.0661, 6.197632
954.5482, 0.3149410
955.0303, 5.359619
955.5124, 4.110718
955.9945, 4.080200
956.4766, 10.74402
956.9587, 11.25806
957.4409, 8.363647
957.9230, 6.074341
958.4051, 4.387939
958.8872, 4.496216
959.3693, 7.122803
959.8514, 8.459839
960.3336, 7.473999
960.8157, 5.379639
961.2978, 2.404785
961.7799, 0.6063230
962.2620, 1.058838
962.7441, 2.241943
963.2263, 4.481689
963.7084, 5.503662
964.1905, 5.615234
964.6726, 4.569336
965.1547, 2.935303
965.6368, 0.8076170
966.1190, 1.539063
966.6011, 2.921997
967.0832, 2.450806
967.5653, 2.552612
968.0474, 4.873169
968.5295, 6.738159
969.0117, 4.932983
969.4938, 2.665405
969.9759, 5.913452
970.4580, 14.13000
970.9401, 18.01660
971.4222, 10.14539
971.9044, 2.376465
972.3865, 2.526611
972.8686, 6.279663
973.3507, 10.31238
973.8328, 13.74609
974.3149, 15.44263
974.7971, 15.26550
975.2792, 15.35718
975.7613, 17.72095
976.2434, 20.90979
976.7255, 23.14319
977.2076, 24.66333
977.6898, 25.80481
978.1719, 26.75854
978.6540, 28.39734
979.1361, 31.14233
979.6182, 32.89453
980.1003, 29.95923
980.5825, 24.37427
981.0646, 23.45264
981.5467, 26.60156
982.0288, 28.92456
982.5109, 29.46021
982.9930, 30.96094
983.4752, 35.38867
983.9573, 40.92529
984.4394, 43.98511
984.9215, 44.58130
985.4036, 45.43579
985.8857, 46.51245
986.3679, 48.08862
986.8500, 50.49878
987.3321, 52.63721
987.8142, 53.80127
988.2963, 53.96997
988.7784, 52.90698
989.2606, 49.42188
989.7427, 48.92480
990.2248, 52.99487
990.7069, 56.78052
991.1890, 59.37793
991.6711, 61.02637
992.1533, 61.15674
992.6354, 59.91577
993.1175, 59.40576
993.5996, 59.28076
994.0817, 61.40869
994.5638, 68.64893
995.0460, 74.39673
995.5281, 74.85645
996.0102, 73.77271
996.4923, 75.16479
996.9744, 78.74170
997.4565, 81.48340
997.9387, 82.61499
998.4208, 83.53149
998.9029, 83.92529
999.3850, 84.57886
999.8671, 85.88721
1000.349, 87.60181
1000.831, 90.10986
1001.313, 93.30957
1001.796, 94.69604
1002.278, 90.46631
1002.760, 87.31177
1003.242, 91.18408
1003.724, 97.39380
1004.206, 101.9995
1004.688, 104.1533
1005.170, 103.0093
1005.653, 99.04541
1006.135, 96.80713
1006.617, 100.3865
1007.099, 104.7380
1007.581, 105.2600
1008.063, 104.0706
1008.545, 103.2512
1009.027, 103.0051
1009.509, 103.6401
1009.992, 105.1882
1010.474, 106.6157
1010.956, 106.9219
1011.438, 107.1865
1011.920, 108.9812
1012.402, 111.6028
1012.884, 112.9661
1013.366, 113.2498
1013.849, 114.5422
1014.331, 117.7385
1014.813, 121.1118
1015.295, 122.0015
1015.777, 121.9500
1016.259, 125.5354
1016.741, 131.8076
1017.223, 137.1326
1017.705, 140.7083
1018.188, 139.9912
1018.670, 133.4849
1019.152, 126.0061
1019.634, 124.3645
1020.116, 127.2310
1020.598, 128.7358
1021.080, 128.8669
1021.562, 127.3984
1022.044, 124.1516
1022.527, 122.4790
1023.009, 124.2703
1023.491, 128.8447
1023.973, 136.2307
1024.455, 145.9617
1024.937, 148.4578
1025.419, 142.6963
1025.901, 137.3750
1026.384, 133.6101
1026.866, 133.0725
1027.348, 137.6333
1027.830, 144.2971
1028.312, 147.3445
1028.794, 146.6550
1029.276, 146.1877
1029.758, 145.3501
1030.240, 147.3413
1030.723, 154.4365
1031.205, 160.3535
1031.687, 159.8723
1032.169, 156.9077
1032.651, 160.1284
1033.133, 170.9272
1033.615, 175.2061
1034.097, 168.1877
1034.579, 165.1326
1035.062, 170.5737
1035.544, 178.1973
1036.026, 185.0383
1036.508, 190.4404
1036.990, 192.7017
1037.472, 191.1868
1037.954, 189.7434
1038.436, 188.6370
1038.919, 187.1379
1039.401, 183.5999
1039.883, 181.2451
1040.365, 184.1504
1040.847, 189.1716
1041.329, 188.6187
1041.811, 180.5103
1042.293, 177.4634
1042.776, 184.0686
1043.258, 189.5754
1043.740, 193.2222
1044.222, 194.1519
1044.704, 189.0383
1045.186, 181.6584
1045.668, 179.6836
1046.150, 184.4001
1046.632, 188.7329
1047.115, 192.4180
1047.597, 194.9167
1048.079, 196.3633
1048.561, 196.2986
1049.043, 193.7793
1049.525, 189.6741
1050.007, 184.8374
1050.489, 178.9873
1050.971, 177.2922
1051.454, 185.4629
1051.936, 191.4556
1052.418, 189.4583
1052.900, 186.2476
1053.382, 186.3447
1053.864, 188.9434
1054.346, 192.3591
1054.828, 196.4231
1055.311, 199.9380
1055.793, 204.4780
1056.275, 205.8503
1056.757, 198.9526
1057.239, 191.9241
1057.721, 192.5481
1058.203, 196.6750
1058.685, 195.4602
1059.167, 187.7478
1059.650, 183.7859
1060.132, 189.4126
1060.614, 195.9590
1061.096, 202.3877
1061.578, 206.4636
1062.060, 204.8743
1062.542, 200.5322
1063.024, 198.2866
1063.506, 198.7703
1063.989, 199.0818
1064.471, 197.5898
1064.953, 196.5813
1065.435, 198.3088
1065.917, 199.5386
1066.399, 195.5488
1066.881, 190.6050
1067.363, 193.0164
1067.846, 202.7046
1068.328, 208.4944
1068.810, 203.7917
1069.292, 198.7332
1069.774, 197.8779
1070.256, 198.2939
1070.738, 198.5183
1071.220, 198.1887
1071.703, 196.8264
1072.185, 194.6633
1072.667, 193.3171
1073.149, 193.9968
1073.631, 194.0125
1074.113, 189.0613
1074.595, 186.1985
1075.077, 194.3132
1075.559, 205.2324
1076.042, 207.4265
1076.524, 201.2151
1077.006, 195.3413
1077.488, 192.7188
1077.970, 191.0513
1078.452, 188.9075
1078.934, 187.7795
1079.416, 187.9905
1079.898, 190.2993
1080.380, 198.2815
1080.863, 209.2383
1081.345, 213.2422
1081.827, 205.3523
1082.309, 200.1597
1082.791, 206.9001
1083.273, 215.2537
1083.755, 219.0698
1084.237, 221.3142
1084.720, 225.2690
1085.202, 230.6863
1085.684, 235.5703
1086.166, 238.8865
1086.648, 243.1365
1087.130, 249.6914
1087.612, 258.2949
1088.094, 271.4563
1088.577, 281.6245
1089.059, 280.8542
1089.541, 274.5334
1090.023, 273.1597
1090.505, 279.2737
1090.987, 288.3696
1091.469, 302.7017
1091.951, 314.1787
1092.433, 318.9385
1092.916, 319.1514
1093.398, 313.3655
1093.880, 305.2554
1094.362, 301.9641
1094.844, 304.3320
1095.326, 305.1948
1095.808, 299.4885
1096.290, 296.6143
1096.772, 304.0286
1097.255, 310.1406
1097.737, 305.6880
1098.219, 296.9988
1098.701, 291.3020
1099.183, 289.9207
1099.665, 294.6182
1100.147, 311.1138
1100.629, 321.8325
1101.112, 316.5498
1101.594, 311.2917
1102.076, 316.2524
1102.558, 323.5513
1103.040, 324.2908
1103.522, 319.4800
1104.004, 315.1250
1104.486, 312.0439
1104.969, 309.4648
1105.451, 303.1667
1105.933, 302.9307
1106.415, 319.0103
1106.897, 335.8953
1107.379, 341.3655
1107.861, 338.1265
1108.343, 333.3687
1108.825, 327.4692
1109.307, 321.5562
1109.790, 315.2354
1110.272, 309.3945
1110.754, 304.2673
1111.236, 299.3765
1111.718, 294.3682
1112.200, 289.7849
1112.682, 286.3679
1113.164, 284.1377
1113.647, 282.4800
1114.129, 282.5386
1114.611, 280.9780
1115.093, 275.4619
1115.575, 271.1299
1116.057, 270.5713
1116.539, 272.0649
1117.021, 274.7114
1117.504, 277.8252
1117.986, 276.1709
1118.468, 266.4014
1118.950, 259.7393
1119.432, 259.2598
1119.914, 255.3633
1120.396, 242.3525
1120.878, 229.4800
1121.360, 224.8047
1121.843, 226.4302
1122.325, 229.5620
1122.807, 235.7485
1123.289, 233.0269
1123.771, 217.2271
1124.253, 208.0420
1124.735, 212.5859
1125.217, 215.4932
1125.699, 205.9531
1126.182, 191.1001
1126.664, 182.8135
1127.146, 180.8066
1127.628, 180.4873
1128.110, 182.0537
1128.592, 183.3252
1129.074, 183.9336
1129.556, 180.9526
1130.039, 172.4580
1130.521, 162.9009
1131.003, 157.2075
1131.485, 154.5376
1131.967, 152.0366
1132.449, 149.7236
1132.931, 148.4399
1133.413, 148.2402
1133.896, 142.2412
1134.378, 128.4204
1134.860, 113.9502
1135.342, 104.3423
1135.824, 97.59912
1136.306, 90.17969
1136.788, 82.53369
1137.270, 76.70117
1137.752, 72.34961
1138.234, 68.08008
1138.717, 63.43213
1139.199, 56.97607
1139.681, 48.12549
1140.163, 37.27002
1140.645, 24.44043
1141.127, 10.98926
1141.609, 0.2900390
1142.091, 10.22021
1142.574, 21.38477
1143.056, 33.11182
1143.538, 41.03760
1144.020, 44.54590
1144.502, 51.11816
1144.984, 68.56396
1145.466, 84.57617
1145.948, 62.36816
1146.431, 35.61035
1146.913, 21.79492
1147.395, 18.38232
1147.877, 21.06641
1148.359, 27.36230
1148.841, 33.09961
1149.323, 36.85498
1149.805, 36.04541
1150.287, 28.04883
1150.770, 15.73975
1151.252, 1.622070
1151.734, 20.13379
1152.216, 37.66992
1152.698, 51.90967
1153.180, 58.11035
1153.662, 55.18604
1154.144, 55.08398
1154.626, 65.16943
1155.109, 74.56836
1155.591, 80.43994
1156.073, 83.14941
1156.555, 78.32129
1157.037, 73.79541
1157.519, 81.79639
1158.001, 100.9067
1158.483, 116.0337
1158.966, 125.4263
1159.448, 132.4297
1159.930, 135.3521
1160.412, 138.9639
1160.894, 143.2983
1161.376, 150.2515
1161.858, 164.1475
1162.340, 179.6865
1162.822, 184.3843
1163.305, 176.5459
1163.787, 178.0747
1164.269, 193.7861
1164.751, 205.8794
1165.233, 211.6401
1165.715, 213.9697
1166.197, 212.8203
1166.679, 212.3320
1167.161, 217.2739
1167.644, 227.5073
1168.126, 244.2891
1168.608, 268.0820
1169.090, 282.9590
1169.572, 287.8564
1170.054, 288.6426
1170.536, 286.6045
1171.018, 287.7441
1171.500, 296.0498
1171.983, 306.9990
1172.465, 315.7549
1172.947, 317.7793
1173.429, 300.9521
1173.911, 271.9893
1174.393, 242.8506
1174.875, 228.2109
1175.357, 223.2129
1175.840, 217.4766
1176.322, 206.4902
1176.804, 191.5010
1177.286, 181.3604
1177.768, 178.4961
1178.250, 179.9189
1178.732, 188.2246
1179.214, 199.4170
1179.697, 202.5791
1180.179, 196.5596
1180.661, 190.9180
1181.143, 190.2344
1181.625, 186.0195
1182.107, 167.7129
1182.589, 150.5635
1183.071, 143.3770
1183.553, 141.5752
1184.036, 150.7354
1184.518, 160.2852
1185.000, 146.3506
1185.482, 108.4863
1185.964, 90.42383
1186.446, 120.6641
1186.928, 139.2559
1187.410, 127.6309
1187.892, 114.6133
1188.375, 114.7041
1188.857, 115.9912
1189.339, 104.9375
1189.821, 88.30664
1190.303, 84.14160
1190.785, 95.36230
1191.267, 96.90430
1191.749, 82.68652
1192.232, 73.44922
1192.714, 72.59082
1193.196, 74.32031
1193.678, 78.90918
1194.160, 82.12305
1194.642, 73.51367
1195.124, 60.58301
1195.606, 52.00684
1196.089, 47.96094
1196.571, 46.42285
1197.053, 46.88672
1197.535, 41.56055
1198.017, 27.07910
1198.499, 17.66699
1198.981, 21.42090
1199.463, 27.28223
1199.945, 23.62598
1200.427, 16.94043
1200.910, 19.15234
1201.392, 26.24023
1201.874, 18.59570
1202.356, 2.738281
1202.838, 0.0000000E+00
##END=



