##NAMES=Gowerite
##RRUFFID=R050673
##IDEAL CHEMISTRY=Ca[B_5_O_8_(OH)][B(OH)_3_]&#183;3H_2_O
##LOCALITY=Death Valley, California, USA
##OWNER=RRUFF
##SOURCE=University of Arizona Mineral Museum
##DESCRIPTION=Colorless bladed crystals associated with gypsum and priceite
##STATUS=The identification of this mineral is confirmed by single-crystal X-ray diffraction and chemical analysis.
##URL=rruff.info/R050673
##MEASURED CHEMISTRY=(Ca_0.98_Sr_0.02_)_Σ=1_[B_5_O_8_(OH)][B(OH)_3_]·3H_2_O ; B not measured but estimated by stoichiometry
145.7072, 0.0000000E+00
146.1893, 0.2514340
146.6714, 0.6633910
147.1535, 3.118744
147.6356, 6.550598
148.1178, 10.74698
148.5999, 15.10391
149.0820, 18.67111
149.5641, 22.57745
150.0462, 28.14172
150.5283, 37.48819
151.0105, 46.18399
151.4926, 48.37659
151.9747, 47.16235
152.4568, 46.68378
152.9389, 47.65915
153.4210, 49.24542
153.9032, 50.30133
154.3853, 49.94415
154.8674, 49.68903
155.3495, 50.34000
155.8316, 53.22491
156.3138, 54.06992
156.7959, 50.88681
157.2780, 45.35315
157.7601, 40.63675
158.2422, 37.68677
158.7243, 35.44452
159.2065, 33.37567
159.6886, 31.36148
160.1707, 29.53787
160.6528, 28.18021
161.1349, 27.05930
161.6170, 25.58099
162.0992, 22.58038
162.5813, 19.71298
163.0634, 18.13965
163.5455, 18.92908
164.0276, 19.91397
164.5097, 20.02872
164.9919, 19.50174
165.4740, 19.19446
165.9561, 19.36685
166.4382, 20.02551
166.9203, 21.21716
167.4025, 23.63690
167.8846, 25.89874
168.3667, 26.97372
168.8488, 27.02527
169.3309, 27.08752
169.8130, 27.56946
170.2952, 28.47974
170.7773, 29.82468
171.2594, 32.02136
171.7415, 34.33664
172.2236, 36.15710
172.7057, 37.50244
173.1879, 38.70929
173.6700, 39.95428
174.1521, 41.22842
174.6342, 42.52136
175.1163, 43.91071
175.5984, 45.27930
176.0806, 46.44247
176.5627, 47.40390
177.0448, 48.30530
177.5269, 49.66827
178.0090, 51.12274
178.4911, 51.83548
178.9733, 51.52472
179.4554, 50.46164
179.9375, 48.95911
180.4196, 46.99930
180.9017, 44.80267
181.3839, 42.33218
181.8660, 39.75452
182.3481, 37.71503
182.8302, 36.49493
183.3123, 35.86865
183.7944, 35.47058
184.2766, 35.26950
184.7587, 34.70294
185.2408, 33.18555
185.7229, 31.15857
186.2050, 29.79852
186.6871, 29.72363
187.1693, 30.50513
187.6514, 30.35315
188.1335, 29.09500
188.6156, 27.46820
189.0977, 26.59811
189.5798, 26.47336
190.0620, 26.24442
190.5441, 25.43365
191.0262, 24.10770
191.5083, 22.62915
191.9904, 21.00571
192.4725, 19.20227
192.9547, 16.94095
193.4368, 14.17899
193.9189, 11.78754
194.4010, 10.32950
194.8831, 9.760284
195.3652, 9.373505
195.8474, 9.154572
196.3295, 9.056000
196.8116, 9.075317
197.2937, 9.248840
197.7758, 9.219360
198.2579, 8.633209
198.7401, 7.471558
199.2222, 6.553040
199.7043, 5.867249
200.1864, 5.522675
200.6685, 6.021210
201.1507, 7.573303
201.6328, 8.928528
202.1149, 9.245087
202.5970, 8.421844
203.0791, 7.581909
203.5612, 6.605011
204.0434, 5.685852
204.5255, 4.697845
205.0076, 3.567383
205.4897, 2.560974
205.9718, 1.880798
206.4539, 1.582184
206.9361, 1.305786
207.4182, 1.075012
207.9003, 0.8254700
208.3824, 0.2375490
208.8645, 0.8969420
209.3466, 1.822754
209.8288, 2.021545
210.3109, 1.336884
210.7930, 0.5684810
211.2751, 0.3601070
211.7572, 1.284668
212.2393, 1.541107
212.7215, 0.8685000
213.2036, 8.6150996E-02
213.6857, 0.2709050
214.1678, 7.2783999E-02
214.6499, 8.2672000E-02
215.1321, 7.8491002E-02
215.6142, 6.4389999E-03
216.0963, 0.2821040
216.5784, 1.264404
217.0605, 2.006592
217.5426, 1.765808
218.0248, 6.8389997E-02
218.5069, 1.193329
218.9890, 1.746796
219.4711, 1.727875
219.9532, 1.785034
220.4353, 1.932495
220.9175, 2.122040
221.3996, 2.385681
221.8817, 2.910522
222.3638, 2.977875
222.8459, 2.331482
223.3280, 1.147186
223.8102, 0.3561100
224.2923, 6.6895001E-02
224.7744, 8.4960997E-02
225.2565, 0.4761660
225.7386, 2.155396
226.2208, 3.095398
226.7029, 2.911713
227.1850, 1.830872
227.6671, 1.000183
228.1492, 0.4071660
228.6313, 8.1482001E-02
229.1135, 8.7738000E-02
229.5956, 0.6303710
230.0777, 1.044830
230.5598, 1.302826
231.0419, 1.392548
231.5240, 1.240540
232.0062, 0.6758730
232.4883, 8.9446999E-02
232.9704, 0.2658390
233.4525, 0.2353820
233.9346, 0.3385930
234.4167, 0.7126770
234.8989, 1.262238
235.3810, 1.494659
235.8631, 1.137268
236.3452, 0.8184810
236.8273, 0.9215090
237.3095, 1.674072
237.7916, 2.325439
238.2737, 2.789795
238.7558, 3.113464
239.2379, 3.530151
239.7200, 4.135315
240.2022, 4.694092
240.6843, 5.045105
241.1664, 4.955688
241.6485, 5.196228
242.1306, 6.008667
242.6127, 7.185791
243.0949, 7.855164
243.5770, 7.716919
244.0591, 7.509338
244.5412, 7.634766
245.0233, 8.321655
245.5054, 8.845947
245.9876, 9.046936
246.4697, 9.096619
246.9518, 9.582886
247.4339, 10.77557
247.9160, 12.01678
248.3981, 12.94635
248.8803, 13.32458
249.3624, 14.02655
249.8445, 15.25439
250.3266, 16.70447
250.8087, 17.50006
251.2909, 17.22888
251.7730, 17.10315
252.2551, 17.58197
252.7372, 18.82300
253.2193, 20.08771
253.7014, 21.59674
254.1836, 23.11517
254.6657, 23.95685
255.1478, 23.71423
255.6299, 23.57300
256.1120, 24.01831
256.5941, 25.35760
257.0763, 26.09631
257.5584, 26.16418
258.0405, 25.79504
258.5226, 25.42139
259.0047, 25.05817
259.4868, 24.65338
259.9690, 24.08038
260.4511, 23.22253
260.9332, 22.92999
261.4153, 23.50415
261.8974, 24.39783
262.3795, 24.58112
262.8617, 23.72772
263.3438, 22.86017
263.8259, 22.21722
264.3080, 21.75464
264.7901, 22.07819
265.2722, 23.60437
265.7544, 25.41498
266.2365, 26.03809
266.7186, 25.04565
267.2007, 24.09515
267.6829, 23.73566
268.1650, 24.02911
268.6471, 24.39062
269.1292, 24.84180
269.6113, 25.30908
270.0934, 25.64117
270.5756, 25.72992
271.0577, 26.13934
271.5398, 27.12665
272.0219, 28.68573
272.5040, 29.88824
272.9861, 30.54218
273.4683, 31.21228
273.9504, 32.77704
274.4325, 35.53290
274.9146, 37.37714
275.3967, 37.39667
275.8788, 35.94299
276.3610, 35.94788
276.8431, 37.74036
277.3252, 40.06201
277.8073, 41.76208
278.2894, 42.79358
278.7715, 43.73743
279.2537, 44.73352
279.7358, 45.72833
280.2179, 46.50525
280.7000, 47.04181
281.1821, 47.69794
281.6642, 48.66455
282.1464, 49.92688
282.6285, 51.65521
283.1106, 53.97162
283.5927, 56.60620
284.0748, 58.99585
284.5569, 61.18170
285.0391, 63.34204
285.5212, 65.57214
286.0033, 67.85059
286.4854, 70.10876
286.9675, 72.30835
287.4496, 74.45776
287.9318, 76.80652
288.4139, 79.38568
288.8960, 81.47046
289.3781, 82.74402
289.8602, 83.24310
290.3424, 83.07916
290.8245, 82.28973
291.3066, 80.73401
291.7887, 78.06866
292.2708, 74.36584
292.7530, 70.24768
293.2351, 65.84717
293.7172, 61.28589
294.1993, 57.18433
294.6814, 53.64581
295.1635, 50.11230
295.6457, 45.66980
296.1278, 40.54938
296.6099, 35.79565
297.0920, 32.03418
297.5741, 28.99603
298.0562, 26.35938
298.5384, 24.16730
299.0205, 22.02246
299.5026, 19.43597
299.9847, 16.59338
300.4668, 13.89429
300.9489, 11.41998
301.4311, 9.269409
301.9132, 7.761719
302.3953, 6.869080
302.8774, 6.147766
303.3595, 5.230652
303.8416, 4.250366
304.3238, 3.393433
304.8059, 2.804626
305.2880, 2.310425
305.7701, 1.628296
306.2522, 0.8219600
306.7343, 0.3137210
307.2165, 0.8562010
307.6986, 1.685181
308.1807, 1.719116
308.6628, 0.1988530
309.1449, 1.329834
309.6270, 1.462402
310.1092, 0.5698240
310.5913, 0.1641850
311.0734, 5.2429002E-02
311.5555, 0.4871830
312.0376, 1.308716
312.5197, 2.711792
313.0019, 3.463745
313.4840, 2.230164
313.9661, 0.1470340
314.4482, 1.942261
314.9304, 2.055237
315.4125, 1.626892
315.8946, 1.202026
316.3767, 0.7641600
316.8588, 0.7679440
317.3409, 2.084290
317.8231, 3.781799
318.3052, 4.627686
318.7873, 3.258789
319.2694, 1.844910
319.7515, 1.248474
320.2336, 1.552063
320.7158, 2.229797
321.1979, 3.598267
321.6800, 5.054871
322.1621, 6.048523
322.6442, 6.067322
323.1263, 6.020691
323.6085, 6.067871
324.0906, 6.213562
324.5727, 6.465454
325.0548, 6.880249
325.5369, 7.367249
326.0190, 7.872620
326.5012, 8.429382
326.9833, 8.974915
327.4654, 9.396606
327.9475, 9.777771
328.4296, 10.44055
328.9117, 11.86218
329.3939, 13.14246
329.8760, 13.90625
330.3581, 13.83820
330.8402, 13.78711
331.3223, 13.42657
331.8044, 13.15546
332.2866, 13.85413
332.7687, 16.10657
333.2508, 18.43481
333.7329, 20.38959
334.2150, 21.90295
334.6971, 23.40833
335.1793, 25.15668
335.6614, 26.67633
336.1435, 27.13959
336.6256, 25.92322
337.1077, 25.37878
337.5899, 26.31250
338.0720, 28.65051
338.5541, 30.44098
339.0362, 31.61212
339.5183, 32.47974
340.0005, 33.35297
340.4826, 34.29639
340.9647, 34.89319
341.4468, 34.99854
341.9289, 34.75372
342.4110, 34.60437
342.8932, 34.55542
343.3753, 34.52515
343.8574, 34.33209
344.3395, 34.00153
344.8216, 34.12634
345.3037, 34.86255
345.7859, 35.84662
346.2680, 36.49493
346.7501, 36.81543
347.2322, 36.93756
347.7143, 36.69574
348.1964, 36.29071
348.6786, 36.55615
349.1607, 37.64777
349.6428, 38.68390
350.1249, 38.70490
350.6070, 37.87305
351.0891, 36.67505
351.5713, 35.17566
352.0534, 33.51270
352.5355, 31.81097
353.0176, 30.09839
353.4997, 28.46613
353.9818, 27.36755
354.4640, 26.32916
354.9461, 24.50183
355.4282, 21.01880
355.9103, 17.49921
356.3924, 15.75623
356.8745, 15.33643
357.3567, 14.47632
357.8388, 11.34662
358.3209, 7.803345
358.8030, 5.556885
359.2851, 5.346252
359.7672, 5.318176
360.2494, 4.300476
360.7315, 2.784668
361.2136, 1.690613
361.6957, 1.741577
362.1779, 1.979431
362.6600, 1.953552
363.1421, 1.504150
363.6242, 1.020325
364.1063, 0.3895870
364.5884, 0.1503300
365.0706, 0.3013920
365.5527, 0.2834470
366.0348, 0.8788450
366.5169, 1.409180
366.9990, 1.806030
367.4811, 1.787476
367.9633, 0.8078000
368.4454, 3.9429002E-02
368.9275, 0.2754520
369.4096, 0.2366330
369.8917, 0.7342530
370.3738, 1.350586
370.8560, 2.073059
371.3381, 2.570496
371.8202, 2.163879
372.3023, 2.448608
372.7844, 3.695679
373.2665, 4.848083
373.7487, 5.742493
374.2308, 6.388672
374.7129, 6.105164
375.1950, 7.053528
375.6771, 7.535583
376.1592, 7.997986
376.6414, 9.129456
377.1235, 9.009155
377.6056, 10.09717
378.0877, 10.70477
378.5698, 11.54950
379.0519, 11.92188
379.5341, 12.44379
380.0162, 13.44952
380.4983, 14.18732
380.9804, 14.50403
381.4625, 15.37439
381.9446, 16.97845
382.4268, 19.21143
382.9089, 21.33929
383.3910, 23.28864
383.8731, 24.86932
384.3553, 26.02783
384.8374, 26.93671
385.3195, 27.85034
385.8016, 28.68445
386.2837, 29.20947
386.7658, 29.18726
387.2480, 28.85638
387.7301, 28.53668
388.2122, 28.22137
388.6943, 27.73450
389.1764, 27.19678
389.6585, 26.33386
390.1407, 24.70087
390.6228, 21.51062
391.1049, 18.47888
391.5870, 16.97961
392.0691, 16.61676
392.5512, 16.19696
393.0334, 15.25543
393.5155, 14.02551
393.9976, 12.50836
394.4797, 10.47247
394.9618, 8.968384
395.4439, 8.760010
395.9261, 9.156433
396.4082, 9.239380
396.8903, 8.457336
397.3724, 7.702576
397.8545, 7.122314
398.3366, 6.717896
398.8188, 6.735596
399.3009, 7.553894
399.7830, 8.561218
400.2651, 9.380371
400.7472, 10.01886
401.2293, 10.43933
401.7115, 10.49524
402.1936, 10.34393
402.6757, 10.47437
403.1578, 10.98193
403.6399, 11.60797
404.1220, 12.30933
404.6042, 13.16693
405.0863, 13.52753
405.5684, 13.08600
406.0505, 12.62506
406.5326, 13.33295
407.0147, 15.38934
407.4969, 17.31891
407.9790, 18.84131
408.4611, 19.92902
408.9432, 20.17896
409.4254, 19.48889
409.9075, 19.05005
410.3896, 20.29474
410.8717, 22.73407
411.3538, 24.14148
411.8359, 24.07251
412.3181, 23.13391
412.8002, 22.00897
413.2823, 20.70679
413.7644, 19.19507
414.2465, 17.17572
414.7286, 15.06274
415.2108, 13.45135
415.6929, 12.39148
416.1750, 11.37640
416.6571, 9.956543
417.1392, 8.373413
417.6213, 6.918396
418.1035, 5.914551
418.5856, 4.835815
419.0677, 2.912903
419.5498, 0.5343630
420.0319, 0.8235470
420.5140, 0.6410520
420.9962, 2.431580
421.4783, 2.877197
421.9604, 1.059082
422.4425, 0.2568970
422.9246, 3.0517999E-02
423.4067, 0.9655150
423.8889, 1.620300
424.3710, 2.039856
424.8531, 1.833923
425.3352, 0.4346920
425.8173, 2.185059
426.2994, 3.463318
426.7816, 2.463684
427.2637, 1.017395
427.7458, 0.3908690
428.2279, 1.057861
428.7100, 1.360657
429.1921, 1.087524
429.6743, 0.4779660
430.1564, 0.1108400
430.6385, 4.5531999E-02
431.1206, 5.7370001E-03
431.6028, 0.1257930
432.0849, 0.3209840
432.5670, 0.7454830
433.0491, 1.473389
433.5312, 2.139343
434.0133, 2.263245
434.4955, 1.932251
434.9776, 1.701721
435.4597, 1.662781
435.9418, 1.859924
436.4239, 2.340881
436.9060, 3.110474
437.3882, 4.226685
437.8703, 6.237244
438.3524, 8.429138
438.8345, 9.657898
439.3166, 9.694885
439.7987, 9.476685
440.2809, 9.568604
440.7630, 9.921448
441.2451, 10.45782
441.7272, 11.35504
442.2093, 12.23212
442.6914, 12.81305
443.1736, 13.15039
443.6557, 13.60413
444.1378, 14.28436
444.6199, 15.14868
445.1020, 16.20062
445.5841, 17.61786
446.0663, 18.88928
446.5484, 19.82928
447.0305, 20.61847
447.5126, 21.55322
447.9947, 22.54175
448.4768, 23.78351
448.9590, 25.39917
449.4411, 27.38849
449.9232, 29.28064
450.4053, 31.08551
450.8874, 32.79059
451.3695, 34.34711
451.8517, 35.72913
452.3338, 37.16162
452.8159, 38.84369
453.2980, 40.34204
453.7801, 40.61096
454.2622, 39.56909
454.7444, 38.42114
455.2265, 37.81598
455.7086, 37.56537
456.1907, 37.00751
456.6729, 36.15918
457.1550, 34.73175
457.6371, 31.75970
458.1192, 28.00696
458.6013, 25.33649
459.0834, 24.53687
459.5656, 24.40588
460.0477, 23.54889
460.5298, 22.27856
461.0119, 21.55151
461.4940, 22.16223
461.9761, 23.29480
462.4583, 24.30316
462.9404, 25.13379
463.4225, 26.17139
463.9046, 27.67670
464.3867, 29.44495
464.8688, 31.13171
465.3510, 32.26178
465.8331, 33.80573
466.3152, 36.47156
466.7973, 39.80127
467.2794, 42.13611
467.7615, 42.42395
468.2437, 42.73944
468.7258, 43.78564
469.2079, 45.69592
469.6900, 47.76056
470.1721, 49.72760
470.6542, 51.93134
471.1364, 54.88440
471.6185, 58.86304
472.1006, 62.82520
472.5827, 66.55475
473.0648, 70.18427
473.5469, 74.02448
474.0291, 78.05939
474.5112, 82.45728
474.9933, 87.36810
475.4754, 92.71637
475.9575, 98.39294
476.4396, 104.4614
476.9218, 110.3642
477.4039, 115.3804
477.8860, 119.6938
478.3681, 123.9462
478.8503, 129.0050
479.3324, 133.1299
479.8145, 134.6978
480.2966, 133.8607
480.7787, 131.3259
481.2608, 126.8151
481.7430, 121.2210
482.2251, 115.0241
482.7072, 108.1799
483.1893, 101.0975
483.6714, 93.28497
484.1535, 85.43774
484.6357, 78.35889
485.1178, 71.96149
485.5999, 66.49768
486.0820, 61.99152
486.5641, 58.43750
487.0462, 55.74146
487.5284, 54.11383
488.0105, 53.10419
488.4926, 52.55328
488.9747, 52.47546
489.4568, 52.86224
489.9389, 53.84430
490.4211, 55.04944
490.9032, 55.98846
491.3853, 56.63293
491.8674, 57.49854
492.3495, 58.62830
492.8316, 60.08875
493.3138, 62.25885
493.7959, 65.06665
494.2780, 67.65546
494.7601, 69.62750
495.2422, 70.99237
495.7243, 71.61426
496.2065, 71.47693
496.6886, 71.02264
497.1707, 70.56445
497.6528, 70.02435
498.1349, 69.29523
498.6170, 68.30640
499.0992, 67.17169
499.5813, 66.28320
500.0634, 65.30243
500.5455, 63.40106
501.0276, 59.48975
501.5097, 55.35095
501.9919, 51.68451
502.4740, 48.63403
502.9561, 45.52319
503.4382, 41.92834
503.9203, 38.49139
504.4025, 35.66150
504.8846, 33.79340
505.3667, 31.85901
505.8488, 29.72198
506.3309, 27.55444
506.8130, 25.84290
507.2952, 24.76538
507.7773, 23.36652
508.2594, 21.10681
508.7415, 18.21924
509.2236, 15.97845
509.7057, 14.42151
510.1879, 13.06281
510.6700, 11.39587
511.1521, 9.594849
511.6342, 7.990356
512.1163, 6.474304
512.5984, 5.929932
513.0806, 6.069214
513.5627, 5.962769
514.0448, 5.623596
514.5269, 4.355286
515.0090, 4.286621
515.4911, 3.737000
515.9733, 3.167542
516.4554, 3.267578
516.9375, 2.133850
517.4196, 2.222961
517.9017, 1.823914
518.3839, 1.648193
518.8660, 0.9885250
519.3481, 0.4783940
519.8302, 0.4519650
520.3123, 0.1575320
520.7944, 0.5581670
521.2766, 0.7207030
521.7587, 1.873230
522.2408, 2.158875
522.7229, 3.278442
523.2050, 2.953308
523.6871, 2.360901
524.1693, 1.681152
524.6514, 0.9525760
525.1335, 0.5848390
525.6156, 0.5919800
526.0977, 0.8421020
526.5798, 1.520142
527.0620, 2.361755
527.5441, 2.477234
528.0262, 1.390320
528.5083, 7.9833999E-02
528.9904, 0.4103390
529.4725, 0.2864990
529.9547, 5.0415002E-02
530.4368, 0.2044070
530.9189, 0.3888550
531.4010, 0.5028690
531.8831, 0.5437010
532.3652, 0.3304440
532.8474, 0.5111080
533.3295, 1.405334
533.8116, 2.001038
534.2937, 2.158386
534.7758, 2.177795
535.2579, 2.111450
535.7401, 1.902100
536.2222, 1.406799
536.7043, 0.3687740
537.1865, 0.3135380
537.6686, 0.3232420
538.1507, 0.1680910
538.6328, 0.1903690
539.1149, 0.3812870
539.5970, 0.5804440
540.0792, 0.5640870
540.5613, 2.680664
541.0434, 3.859436
541.5255, 3.972351
542.0076, 3.713074
542.4897, 3.580444
542.9719, 3.589172
543.4540, 3.767761
543.9361, 4.089478
544.4182, 4.614319
544.9003, 5.613403
545.3824, 6.836304
545.8646, 7.733093
546.3467, 7.424316
546.8288, 7.318909
547.3109, 8.307495
547.7930, 10.43457
548.2751, 12.06689
548.7573, 12.52472
549.2394, 12.76160
549.7215, 13.32422
550.2036, 14.57397
550.6857, 15.31500
551.1678, 15.32776
551.6500, 15.07239
552.1321, 15.13953
552.6142, 15.54053
553.0963, 16.23035
553.5784, 17.21753
554.0605, 18.48029
554.5427, 20.14056
555.0248, 22.16553
555.5069, 23.92340
555.9890, 24.55188
556.4711, 24.80127
556.9532, 26.16803
557.4354, 28.70056
557.9175, 31.28937
558.3996, 32.98260
558.8817, 34.30200
559.3638, 35.76636
559.8459, 37.33807
560.3281, 39.35931
560.8102, 42.54718
561.2923, 46.12805
561.7744, 48.86194
562.2565, 49.84503
562.7386, 50.70715
563.2208, 51.95996
563.7029, 53.46509
564.1850, 54.24561
564.6671, 53.94214
565.1492, 53.54858
565.6313, 53.65100
566.1135, 54.32574
566.5956, 54.40063
567.0777, 53.79797
567.5598, 52.85516
568.0419, 51.77460
568.5240, 50.61279
569.0062, 49.70862
569.4883, 49.28381
569.9704, 48.77228
570.4525, 47.36023
570.9346, 45.27826
571.4167, 43.18652
571.8989, 41.25452
572.3810, 39.49457
572.8631, 37.94141
573.3452, 36.58282
573.8273, 35.24902
574.3094, 34.09442
574.7916, 32.79395
575.2737, 31.08960
575.7558, 28.71954
576.2379, 26.75031
576.7200, 25.56311
577.2021, 24.50385
577.6843, 22.80817
578.1664, 19.85846
578.6485, 18.17224
579.1306, 18.40576
579.6127, 19.57428
580.0948, 19.87708
580.5770, 19.25732
581.0591, 18.60675
581.5412, 18.10217
582.0233, 17.88287
582.5054, 18.43494
582.9875, 19.63531
583.4697, 20.78717
583.9518, 21.17194
584.4340, 21.34576
584.9161, 21.98083
585.3982, 23.24542
585.8803, 24.65143
586.3624, 26.28052
586.8445, 27.69257
587.3267, 28.51569
587.8088, 27.51996
588.2909, 27.40363
588.7730, 28.93103
589.2551, 31.40869
589.7372, 33.71820
590.2194, 35.80585
590.7015, 37.86194
591.1836, 39.75513
591.6657, 41.60846
592.1478, 44.20618
592.6299, 47.63171
593.1121, 50.95929
593.5942, 53.34534
594.0763, 55.14130
594.5584, 57.80188
595.0405, 61.35931
595.5226, 64.99463
596.0048, 68.25604
596.4869, 71.02869
596.9690, 73.17584
597.4511, 74.59430
597.9332, 75.66968
598.4153, 76.84833
598.8975, 77.72211
599.3796, 77.72321
599.8617, 76.24890
600.3438, 74.39813
600.8259, 72.58124
601.3080, 70.63708
601.7902, 67.79443
602.2723, 63.34735
602.7544, 59.21753
603.2365, 56.18079
603.7186, 54.22797
604.2007, 51.86749
604.6829, 48.98492
605.1650, 46.25946
605.6471, 44.27350
606.1292, 42.92914
606.6113, 41.88715
607.0934, 41.19769
607.5756, 40.35730
608.0577, 38.42853
608.5398, 36.09021
609.0219, 34.55524
609.5040, 34.56073
609.9861, 34.96527
610.4683, 35.17999
610.9504, 35.34521
611.4325, 35.76147
611.9146, 37.17511
612.3967, 38.18457
612.8788, 38.26746
613.3610, 37.51349
613.8431, 36.76660
614.3252, 35.94244
614.8073, 35.29248
615.2894, 34.96478
615.7715, 34.97455
616.2537, 34.90405
616.7358, 34.66687
617.2179, 34.70233
617.7000, 35.82147
618.1821, 37.62140
618.6642, 38.50745
619.1464, 37.96368
619.6285, 37.37219
620.1106, 38.38538
620.5927, 40.27295
621.0748, 41.77759
621.5569, 42.53986
622.0391, 42.71112
622.5212, 42.13544
623.0033, 41.01105
623.4854, 39.93506
623.9675, 38.88519
624.4496, 38.07013
624.9318, 37.70667
625.4139, 37.78662
625.8960, 37.34955
626.3781, 36.24634
626.8602, 34.99023
627.3423, 34.01483
627.8245, 33.29669
628.3066, 31.69873
628.7887, 29.02228
629.2708, 26.78064
629.7529, 27.00629
630.2350, 28.58026
630.7172, 28.93799
631.1993, 26.97125
631.6815, 25.20630
632.1636, 26.15991
632.6457, 28.61206
633.1278, 30.62671
633.6099, 31.33484
634.0920, 31.78094
634.5742, 32.43243
635.0563, 33.03735
635.5384, 32.78687
636.0205, 31.54089
636.5026, 29.64331
636.9847, 27.02765
637.4669, 23.75134
637.9490, 20.66626
638.4311, 17.83527
638.9132, 14.94696
639.3953, 11.33563
639.8774, 7.361572
640.3596, 4.909973
640.8417, 4.109619
641.3238, 3.861816
641.8059, 3.323730
642.2880, 2.636169
642.7701, 1.940125
643.2523, 1.103943
643.7344, 0.6787720
644.2165, 1.406738
644.6986, 2.553345
645.1807, 3.135010
645.6628, 2.497192
646.1450, 1.813049
646.6271, 1.131531
647.1092, 0.5327150
647.5913, 0.2735600
648.0734, 0.4822390
648.5555, 0.6651610
649.0377, 0.6154170
649.5198, 0.4272460
650.0019, 0.6333010
650.4840, 1.297241
650.9661, 1.802795
651.4482, 1.433777
651.9304, 0.6646730
652.4125, 0.4012450
652.8946, 0.6925660
653.3767, 1.209595
653.8588, 2.250732
654.3409, 3.161072
654.8231, 3.112427
655.3052, 1.468445
655.7873, 0.5280150
656.2694, 1.335754
656.7515, 2.848694
657.2336, 3.857788
657.7158, 4.204041
658.1979, 4.560730
658.6800, 4.938660
659.1621, 5.368164
659.6442, 6.058899
660.1263, 7.008911
660.6085, 7.383423
661.0906, 6.576904
661.5727, 5.457520
662.0548, 5.842529
662.5369, 7.339050
663.0190, 8.457275
663.5012, 8.269348
663.9833, 7.507690
664.4654, 6.444031
664.9475, 5.205139
665.4296, 4.481750
665.9117, 4.841492
666.3939, 5.504883
666.8760, 6.223389
667.3581, 7.084534
667.8402, 7.397888
668.3223, 6.868286
668.8044, 6.277588
669.2866, 6.378052
669.7687, 7.224792
670.2508, 7.232666
670.7329, 6.190918
671.2150, 4.821350
671.6971, 3.541504
672.1793, 2.562378
672.6614, 2.678101
673.1435, 4.584656
673.6256, 6.225403
674.1077, 5.477295
674.5898, 3.506531
675.0720, 2.131104
675.5541, 2.230713
676.0362, 2.637451
676.5183, 3.359375
677.0004, 4.165527
677.4825, 4.383789
677.9647, 3.553040
678.4468, 3.087341
678.9290, 3.616028
679.4111, 4.803711
679.8932, 4.908203
680.3753, 3.872681
680.8574, 2.731262
681.3395, 2.054749
681.8217, 1.690857
682.3038, 1.260071
682.7859, 0.7792970
683.2680, 0.6002200
683.7501, 1.345215
684.2322, 2.222839
684.7144, 2.636475
685.1965, 2.499390
685.6786, 1.891235
686.1607, 8.6425997E-02
686.6428, 1.663330
687.1249, 2.453735
687.6071, 1.802429
688.0892, 1.235718
688.5713, 0.6948240
689.0534, 0.3173220
689.5355, 0.2619630
690.0176, 0.5186770
690.4998, 1.107300
690.9819, 2.152222
691.4640, 3.158447
691.9461, 3.408142
692.4282, 3.094177
692.9103, 2.637451
693.3925, 2.213684
693.8746, 1.679688
694.3567, 0.7715450
694.8388, 0.2927860
695.3209, 1.008728
695.8030, 0.8729250
696.2852, 0.7890630
696.7673, 0.9623410
697.2494, 1.349060
697.7315, 1.752686
698.2136, 2.199524
698.6957, 2.567383
699.1779, 2.801575
699.6600, 2.916748
700.1421, 2.917053
700.6242, 2.815857
701.1063, 2.793884
701.5884, 3.266052
702.0706, 3.744568
702.5527, 3.452576
703.0348, 2.344543
703.5169, 1.452759
703.9990, 1.518738
704.4811, 1.827637
704.9633, 1.870911
705.4454, 1.444092
705.9275, 1.212646
706.4096, 1.422485
706.8917, 1.552246
707.3738, 0.9615480
707.8560, 0.5002440
708.3381, 1.093445
708.8202, 0.5478520
709.3023, 0.3969730
709.7844, 0.9774780
710.2665, 1.206421
710.7487, 1.022461
711.2308, 0.1486820
711.7129, 0.4624630
712.1950, 0.5023190
712.6771, 2.069763
713.1592, 2.770996
713.6414, 0.5908200
714.1235, 0.7001340
714.6056, 0.5766600
715.0877, 3.137146
715.5698, 4.377808
716.0519, 3.735474
716.5341, 3.238831
717.0162, 3.424438
717.4983, 4.035461
717.9804, 4.432861
718.4625, 4.611633
718.9446, 4.463501
719.4268, 3.620239
719.9089, 2.634583
720.3910, 2.306335
720.8731, 2.505249
721.3552, 2.669312
721.8373, 2.276062
722.3195, 1.992432
722.8016, 2.368591
723.2837, 3.427673
723.7658, 3.893188
724.2479, 3.105530
724.7300, 2.572876
725.2122, 3.196167
725.6943, 5.004578
726.1765, 5.785522
726.6586, 5.416260
727.1407, 4.854126
727.6228, 4.883179
728.1049, 5.278931
728.5870, 5.453613
729.0692, 5.350647
729.5513, 5.395630
730.0334, 6.110229
730.5155, 6.989685
730.9976, 7.595642
731.4797, 7.923889
731.9619, 7.782532
732.4440, 6.426880
732.9261, 5.103516
733.4082, 4.807617
733.8903, 5.857849
734.3724, 6.897644
734.8546, 7.828735
735.3367, 8.804138
735.8188, 10.33582
736.3009, 12.16290
736.7830, 12.82379
737.2651, 11.59967
737.7473, 10.52698
738.2294, 11.67987
738.7115, 14.28534
739.1936, 17.22363
739.6757, 21.05505
740.1578, 23.98773
740.6400, 24.94403
741.1221, 24.81848
741.6042, 25.23267
742.0863, 26.46063
742.5684, 27.54462
743.0505, 28.15479
743.5327, 28.71924
744.0148, 30.29871
744.4969, 32.72241
744.9790, 35.20428
745.4611, 37.49316
745.9432, 39.82086
746.4254, 42.45355
746.9075, 45.37634
747.3896, 48.52661
747.8717, 51.78418
748.3538, 55.33044
748.8359, 59.52686
749.3181, 64.20245
749.8002, 68.36786
750.2823, 71.62457
750.7644, 75.18036
751.2465, 79.65051
751.7286, 84.68439
752.2108, 88.07874
752.6929, 89.82654
753.1750, 91.63629
753.6571, 93.90454
754.1392, 97.07635
754.6213, 102.1454
755.1035, 108.9456
755.5856, 116.2527
756.0677, 123.4613
756.5498, 130.9900
757.0319, 139.1229
757.5140, 147.8401
757.9962, 157.2593
758.4783, 167.9379
758.9604, 178.4138
759.4425, 188.0941
759.9246, 196.9122
760.4067, 205.8408
760.8889, 214.8997
761.3710, 223.4537
761.8531, 231.8344
762.3352, 239.1358
762.8173, 244.1177
763.2994, 246.6296
763.7816, 245.5311
764.2637, 239.5821
764.7458, 230.0867
765.2279, 217.7889
765.7100, 202.2302
766.1921, 185.4720
766.6743, 166.6439
767.1564, 148.1140
767.6385, 131.4634
768.1206, 116.3256
768.6027, 102.4606
769.0848, 89.85083
769.5670, 78.29028
770.0491, 67.05951
770.5312, 56.71893
771.0133, 48.62146
771.4954, 43.01434
771.9775, 38.33203
772.4597, 33.95996
772.9418, 30.05652
773.4240, 26.78101
773.9061, 24.33990
774.3882, 22.11993
774.8703, 20.25330
775.3524, 18.42371
775.8345, 16.34332
776.3167, 13.99158
776.7988, 11.59125
777.2809, 9.078064
777.7630, 7.047119
778.2451, 6.645203
778.7272, 7.100525
779.2094, 6.712708
779.6915, 4.900696
780.1736, 3.417053
780.6557, 3.556946
781.1378, 4.412598
781.6199, 5.119263
782.1021, 5.480103
782.5842, 5.768555
783.0663, 6.052185
783.5484, 6.172791
784.0305, 5.920532
784.5126, 5.281006
784.9948, 4.543457
785.4769, 3.721497
785.9590, 2.911133
786.4411, 2.128235
786.9232, 1.467712
787.4053, 1.133667
787.8875, 1.304199
788.3696, 1.455261
788.8517, 1.033203
789.3338, 0.5985720
789.8159, 0.8424070
790.2980, 2.691162
790.7802, 3.576416
791.2623, 3.063477
791.7444, 2.043823
792.2265, 1.488220
792.7086, 1.407349
793.1907, 2.364685
793.6729, 4.756714
794.1550, 7.018982
794.6371, 6.932251
795.1192, 5.677368
795.6013, 5.261719
796.0834, 6.862854
796.5656, 8.095825
797.0477, 7.447632
797.5298, 6.305115
798.0119, 6.436951
798.4940, 8.727783
798.9761, 10.22852
799.4583, 10.51337
799.9404, 10.34888
800.4225, 10.64984
800.9046, 11.40918
801.3867, 12.77112
801.8688, 14.98871
802.3510, 16.94031
802.8331, 16.73730
803.3152, 15.82703
803.7973, 16.27948
804.2794, 19.65881
804.7615, 22.70892
805.2437, 24.54089
805.7258, 25.85840
806.2079, 27.47040
806.6900, 29.63171
807.1721, 31.08191
807.6542, 31.64453
808.1364, 31.57471
808.6185, 30.79376
809.1006, 29.63904
809.5827, 29.22186
810.0648, 30.00433
810.5469, 30.82294
811.0291, 31.16687
811.5112, 30.90314
811.9933, 29.86316
812.4754, 27.33221
812.9575, 25.09338
813.4396, 23.55518
813.9218, 22.02142
814.4039, 19.56897
814.8860, 16.09473
815.3681, 13.12061
815.8502, 10.81256
816.3323, 8.986938
816.8145, 7.635559
817.2966, 6.569641
817.7787, 5.427490
818.2608, 4.110596
818.7429, 2.781555
819.2251, 1.252319
819.7072, 9.9609002E-02
820.1893, 0.8621830
820.6714, 0.8046260
821.1536, 0.6309810
821.6357, 0.2487180
822.1178, 7.4828997E-02
822.5999, 0.1133420
823.0820, 0.6948240
823.5641, 0.7944340
824.0463, 0.2753910
824.5284, 0.3750610
825.0105, 3.929016
825.4926, 2.744385
825.9747, 1.806519
826.4568, 1.101196
826.9390, 1.324829
827.4211, 0.3487550
827.9032, 0.1468510
828.3853, 0.6232300
828.8674, 1.769287
829.3495, 1.682251
829.8317, 2.819031
830.3138, 8.994751
830.7959, 10.16608
831.2780, 10.32538
831.7601, 11.17810
832.2422, 12.94031
832.7244, 14.34424
833.2065, 14.16187
833.6886, 13.60736
834.1707, 13.57751
834.6528, 14.27148
835.1349, 15.26019
835.6171, 16.94287
836.0992, 18.25000
836.5813, 18.33435
837.0634, 17.27545
837.5455, 16.15503
838.0276, 14.95905
838.5098, 14.08856
838.9919, 14.22699
839.4740, 14.58997
839.9561, 14.32806
840.4382, 13.37726
840.9203, 12.19208
841.4025, 10.56262
841.8846, 9.073547
842.3667, 7.973511
842.8488, 7.258789
843.3309, 6.692322
843.8130, 6.295166
844.2952, 5.963074
844.7773, 5.901428
845.2594, 5.789124
845.7415, 4.590759
846.2236, 2.532715
846.7057, 0.8293460
847.1879, 0.3015140
847.6700, 0.1942750
848.1521, 0.2086180
848.6342, 0.3068240
849.1163, 0.3023070
849.5984, 3.2410000E-02
850.0806, 1.5198000E-02
850.5627, 0.4239500
851.0448, 1.130920
851.5269, 1.220581
852.0090, 0.7938840
852.4911, 0.7313840
852.9733, 1.958618
853.4554, 3.248840
853.9375, 3.304749
854.4196, 2.546936
854.9017, 2.018250
855.3839, 2.191101
855.8660, 2.421143
856.3481, 2.580994
856.8302, 2.717590
857.3123, 2.981812
857.7944, 3.401611
858.2766, 3.635681
858.7587, 3.550354
859.2408, 3.366577
859.7229, 3.448792
860.2050, 3.672852
860.6871, 3.761658
861.1693, 3.434021
861.6514, 3.319763
862.1335, 3.562378
862.6156, 4.127808
863.0977, 4.993530
863.5798, 6.294373
864.0620, 7.586060
864.5441, 8.891846
865.0262, 10.06830
865.5083, 11.13135
865.9904, 11.94769
866.4726, 11.83557
866.9547, 10.41223
867.4368, 9.600586
867.9189, 11.19342
868.4011, 13.67773
868.8832, 15.69904
869.3653, 16.94165
869.8474, 18.26440
870.3295, 19.61981
870.8116, 20.97467
871.2938, 22.16089
871.7759, 23.24609
872.2580, 25.01868
872.7401, 27.53357
873.2222, 29.99286
873.7043, 31.11987
874.1865, 32.31720
874.6686, 35.22699
875.1507, 40.01410
875.6328, 44.48151
876.1149, 47.01300
876.5970, 50.27454
877.0792, 55.39606
877.5613, 62.20483
878.0434, 68.92157
878.5255, 75.52972
879.0076, 82.58990
879.4897, 90.32776
879.9719, 98.60394
880.4540, 107.2039
880.9361, 116.1251
881.4182, 125.4251
881.9003, 135.1396
882.3824, 145.2577
882.8646, 155.7091
883.3467, 166.6119
883.8288, 177.6667
884.3109, 188.8325
884.7930, 200.4321
885.2751, 212.4957
885.7573, 225.2579
886.2394, 238.9174
886.7215, 253.6859
887.2036, 269.9727
887.6857, 288.5851
888.1678, 307.5229
888.6500, 325.8997
889.1321, 344.0737
889.6142, 362.6998
890.0963, 382.1011
890.5784, 400.9636
891.0605, 419.9502
891.5427, 436.7599
892.0248, 450.2706
892.5069, 459.8257
892.9890, 463.2478
893.4711, 460.0810
893.9532, 452.0675
894.4354, 440.7141
894.9175, 424.8616
895.3996, 402.7424
895.8817, 373.1061
896.3638, 342.1793
896.8459, 309.3644
897.3281, 276.9704
897.8102, 246.4832
898.2923, 217.7233
898.7744, 190.9956
899.2565, 166.3469
899.7386, 144.4398
900.2208, 126.2040
900.7029, 110.2016
901.1850, 95.04053
901.6671, 80.94507
902.1492, 68.99585
902.6313, 59.66992
903.1135, 52.07721
903.5956, 46.26001
904.0777, 41.79865
904.5598, 37.41339
905.0419, 33.16089
905.5240, 29.29980
906.0062, 25.98267
906.4883, 23.02399
906.9704, 20.20105
907.4525, 17.65430
907.9346, 15.57166
908.4167, 14.61993
908.8989, 13.27081
909.3810, 11.11133
909.8631, 8.879700
910.3452, 7.608215
910.8273, 7.224060
911.3094, 6.628845
911.7916, 5.646301
912.2737, 4.778137
912.7558, 4.741760
913.2380, 4.920532
913.7201, 4.513794
914.2022, 3.197632
914.6843, 2.511658
915.1664, 3.410889
915.6486, 4.069153
916.1307, 3.277771
916.6128, 1.176697
917.0949, 0.3176270
917.5770, 0.7789920
918.0591, 1.167542
918.5413, 0.4051510
919.0234, 0.6076660
919.5055, 0.8734740
919.9876, 0.5737300
920.4697, 0.2488400
920.9518, 4.0160999E-02
921.4340, 0.1149290
921.9161, 0.3531490
922.3982, 0.5195310
922.8803, 0.4263310
923.3624, 7.1227998E-02
923.8445, 0.3884890
924.3267, 1.023010
924.8088, 1.499634
925.2909, 1.195251
925.7730, 0.5609740
926.2551, 0.3110960
926.7372, 1.204407
927.2194, 1.364197
927.7015, 0.1834110
928.1836, 1.363953
928.6657, 2.359985
929.1478, 2.811951
929.6299, 3.470947
930.1121, 4.358154
930.5942, 5.291382
931.0763, 5.901001
931.5584, 6.597839
932.0405, 7.913757
932.5226, 9.865356
933.0048, 11.90967
933.4869, 13.84387
933.9690, 15.92163
934.4511, 18.22632
934.9332, 20.72778
935.4153, 23.09845
935.8975, 25.37054
936.3796, 28.01868
936.8617, 31.68402
937.3438, 35.32007
937.8259, 37.40900
938.3080, 38.75061
938.7902, 40.89587
939.2723, 45.35339
939.7544, 49.13019
940.2365, 51.44995
940.7186, 53.46112
941.2007, 56.87640
941.6829, 61.55597
942.1650, 65.80481
942.6471, 69.43066
943.1292, 72.67029
943.6113, 75.73279
944.0934, 78.52991
944.5756, 80.96680
945.0577, 82.92859
945.5398, 85.10291
946.0219, 87.72424
946.5040, 90.28204
946.9861, 92.62836
947.4683, 94.71570
947.9504, 96.12305
948.4325, 96.85645
948.9146, 96.88239
949.3967, 95.42920
949.8788, 93.95154
950.3610, 94.01453
950.8431, 94.92896
951.3252, 94.56567
951.8073, 92.17072
952.2894, 89.63458
952.7715, 87.22815
953.2537, 84.79596
953.7358, 82.29510
954.2179, 79.57983
954.7000, 75.86224
955.1821, 70.80157
955.6642, 65.81555
956.1464, 62.20746
956.6285, 58.94647
957.1106, 54.90979
957.5927, 49.65271
958.0748, 45.30292
958.5569, 41.92114
959.0391, 39.23517
959.5212, 37.60510
960.0033, 36.42267
960.4855, 33.52295
960.9676, 29.22302
961.4497, 25.44348
961.9318, 23.73071
962.4139, 22.19885
962.8961, 19.75964
963.3782, 16.82245
963.8603, 14.46930
964.3424, 12.75787
964.8245, 11.63477
965.3066, 11.31805
965.7888, 11.03223
966.2709, 9.036865
966.7530, 6.399109
967.2351, 5.435425
967.7172, 7.258484
968.1993, 8.614319
968.6815, 7.985596
969.1636, 6.662048
969.6457, 5.457642
970.1278, 4.359009
970.6099, 3.405579
971.0920, 2.537537
971.5742, 1.845642
972.0563, 1.198608
972.5384, 0.8680420
973.0205, 1.679138
973.5026, 3.200012
973.9847, 3.773499
974.4669, 1.250610
974.9490, 0.9300540
975.4311, 0.2821660
975.9132, 0.1074830
976.3953, 0.2558590
976.8774, 0.5671390
977.3596, 0.2103880
977.8417, 0.3190920
978.3238, 0.4235840
978.8059, 0.1444700
979.2880, 0.5144040
979.7701, 5.7068001E-02
980.2523, 0.1380000
980.7344, 0.4414670
981.2165, 0.2517700
981.6986, 0.1885380
982.1807, 0.5721440
982.6628, 0.6547850
983.1450, 0.3330690
983.6271, 0.6022950
984.1092, 0.1032710
984.5913, 4.4559999E-03
985.0734, 0.4777830
985.5555, 0.2389530
986.0377, 0.5639650
986.5198, 0.6838380
987.0019, 0.1280520
987.4840, 0.6798100
987.9661, 0.7869870
988.4482, 0.1746220
988.9304, 0.9265750
989.4125, 0.4130860
989.8946, 0.3510740
990.3767, 0.6286620
990.8588, 1.149719
991.3409, 1.679932
991.8231, 2.003723
992.3052, 1.726807
992.7873, 0.8917240
993.2694, 0.5081180
993.7515, 0.5822140
994.2336, 0.8647460
994.7158, 1.315186
995.1979, 1.799072
995.6800, 2.003845
996.1621, 2.127502
996.6442, 2.638428
997.1263, 4.312073
997.6085, 5.412354
998.0906, 5.594788
998.5727, 5.370911
999.0548, 5.240417
999.5369, 5.253906
1000.019, 5.950256
1000.501, 7.449585
1000.983, 8.546387
1001.465, 8.076843
1001.948, 7.105774
1002.430, 6.321106
1002.912, 5.789734
1003.394, 5.691040
1003.876, 6.177429
1004.358, 6.583374
1004.840, 6.443909
1005.322, 6.336731
1005.804, 7.846130
1006.287, 10.28192
1006.769, 11.97113
1007.251, 11.87677
1007.733, 11.57245
1008.215, 11.39716
1008.697, 11.33331
1009.179, 11.44556
1009.661, 11.77496
1010.144, 11.69910
1010.626, 11.17578
1011.108, 10.51483
1011.590, 9.996704
1012.072, 9.440735
1012.554, 8.489807
1013.036, 7.237793
1013.518, 6.487183
1014.000, 6.723816
1014.483, 6.845886
1014.965, 6.624695
1015.447, 6.127563
1015.929, 5.341309
1016.411, 4.380188
1016.893, 3.515747
1017.375, 2.117310
1017.857, 2.448486
1018.340, 2.533508
1018.822, 2.386047
1019.304, 1.309265
1019.786, 1.432373
1020.268, 1.074524
1020.750, 0.6965330
1021.232, 1.673584
1021.714, 1.845825
1022.196, 1.661743
1022.679, 1.029358
1023.161, 0.2617800
1023.643, 0.5341190
1024.125, 0.9047850
1024.607, 1.043945
1025.089, 0.9689940
1025.571, 3.6254998E-02
1026.053, 0.3810420
1026.536, 0.2775880
1027.018, 8.7523997E-02
1027.500, 0.5132450
1027.982, 0.2847900
1028.464, 0.1519170
1028.946, 0.1150510
1029.428, 0.3501590
1029.910, 0.1184690
1030.392, 8.0570001E-03
1030.875, 0.3939820
1031.357, 0.5245970
1031.839, 0.2478640
1032.321, 0.5413820
1032.803, 0.1975100
1033.285, 1.0380000E-03
1033.767, 0.5785520
1034.249, 0.3789060
1034.732, 0.6829830
1035.214, 0.8169560
1035.696, 2.7161000E-02
1036.178, 0.8643190
1036.660, 1.047852
1037.142, 0.4858400
1037.624, 1.337097
1038.106, 1.478333
1038.589, 1.036682
1039.071, 0.2476810
1039.553, 0.1905520
1040.035, 0.6522220
1040.517, 1.095215
1040.999, 1.597534
1041.481, 1.757813
1041.963, 1.382568
1042.445, 0.9773560
1042.927, 1.119873
1043.410, 1.701904
1043.892, 2.683167
1044.374, 4.121338
1044.856, 5.171753
1045.338, 4.928833
1045.820, 4.928894
1046.302, 6.082214
1046.784, 8.006897
1047.267, 8.452393
1047.749, 7.563721
1048.231, 7.083557
1048.713, 8.052185
1049.195, 9.056519
1049.677, 8.732361
1050.159, 7.890137
1050.641, 7.683350
1051.124, 8.528198
1051.606, 9.183838
1052.088, 9.749268
1052.570, 9.810608
1053.052, 8.490601
1053.534, 6.712341
1054.016, 6.348083
1054.498, 7.175293
1054.980, 7.948120
1055.463, 8.243713
1055.945, 8.329895
1056.427, 8.266052
1056.909, 8.047424
1057.391, 7.469971
1057.873, 6.636292
1058.355, 6.669434
1058.837, 7.856812
1059.319, 8.571594
1059.802, 6.651428
1060.284, 4.495850
1060.766, 4.070190
1061.248, 5.341675
1061.730, 6.528137
1062.212, 7.688904
1062.694, 8.493225
1063.176, 8.816956
1063.659, 8.719604
1064.141, 7.938477
1064.623, 6.899170
1065.105, 6.319641
1065.587, 6.461670
1066.069, 6.944519
1066.551, 7.895264
1067.033, 8.837585
1067.516, 9.593994
1067.998, 10.06281
1068.480, 9.379578
1068.962, 7.766174
1069.444, 6.509827
1069.926, 6.709106
1070.408, 7.000183
1070.890, 6.973083
1071.372, 6.535217
1071.854, 5.293457
1072.337, 3.080872
1072.819, 2.096863
1073.301, 2.685425
1073.783, 3.483276
1074.265, 3.050842
1074.747, 2.324097
1075.229, 2.431580
1075.711, 3.344543
1076.194, 3.463928
1076.676, 2.265442
1077.158, 1.382263
1077.640, 1.353149
1078.122, 1.650024
1078.604, 1.270752
1079.086, 0.5355220
1079.568, 0.1220700
1080.051, 0.2239990
1080.533, 0.4352420
1081.015, 0.9146120
1081.497, 1.148438
1081.979, 0.8155520
1082.461, 6.9579999E-03
1082.943, 0.9586790
1083.425, 1.990295
1083.907, 2.304443
1084.390, 1.030640
1084.872, 0.3505860
1085.354, 1.131470
1085.836, 1.318054
1086.318, 0.9124760
1086.800, 0.5210570
1087.282, 0.5882570
1087.764, 0.9174800
1088.247, 2.313171
1088.729, 2.105347
1089.211, 1.176636
1089.693, 0.2837520
1090.175, 0.4544680
1090.657, 0.7288820
1091.139, 0.2155760
1091.621, 0.3316650
1092.104, 0.8028560
1092.586, 1.285950
1093.068, 2.049561
1093.550, 2.867676
1094.032, 3.228821
1094.514, 3.066772
1094.996, 2.736511
1095.478, 2.452637
1095.960, 1.915588
1096.443, 0.6443480
1096.925, 0.7487180
1097.407, 4.0038999E-02
1097.889, 2.438782
1098.371, 4.136047
1098.853, 4.203857
1099.335, 3.988647
1099.817, 4.626953
1100.299, 5.260193
1100.782, 5.055298
1101.264, 3.984924
1101.746, 2.918030
1102.228, 1.823669
1102.710, 1.092346
1103.192, 0.9324950
1103.674, 1.220337
1104.156, 2.201843
1104.639, 3.412231
1105.121, 4.086487
1105.603, 3.835449
1106.085, 3.524963
1106.567, 3.120300
1107.049, 2.780518
1107.531, 2.586121
1108.013, 2.572144
1108.495, 2.916504
1108.978, 3.519287
1109.460, 3.983276
1109.942, 4.220947
1110.424, 4.180054
1110.906, 3.719788
1111.388, 3.155640
1111.870, 2.769531
1112.352, 2.619141
1112.834, 3.119324
1113.317, 4.280151
1113.799, 5.380554
1114.281, 6.082825
1114.763, 6.525024
1115.245, 6.774048
1115.727, 6.819824
1116.209, 6.526672
1116.691, 5.913208
1117.174, 5.393066
1117.656, 5.065674
1118.138, 4.843262
1118.620, 4.360229
1119.102, 4.179321
1119.584, 5.106262
1120.066, 7.090454
1120.548, 8.102295
1121.031, 8.032227
1121.513, 7.656250
1121.995, 7.016296
1122.477, 6.677063
1122.959, 7.713684
1123.441, 9.312927
1123.923, 10.25867
1124.405, 9.886475
1124.887, 10.26331
1125.370, 11.74194
1125.852, 13.04401
1126.334, 13.31445
1126.816, 12.98767
1127.298, 12.92102
1127.780, 13.01202
1128.262, 13.00952
1128.744, 12.74451
1129.227, 12.47888
1129.709, 12.08545
1130.191, 11.92200
1130.673, 12.50183
1131.155, 13.56299
1131.637, 14.04260
1132.119, 14.00873
1132.601, 14.01758
1133.083, 14.53644
1133.566, 14.88684
1134.048, 14.76471
1134.530, 14.44293
1135.012, 14.40607
1135.494, 14.58142
1135.976, 13.85431
1136.458, 12.14423
1136.940, 11.03888
1137.422, 12.77954
1137.905, 14.35748
1138.387, 13.35443
1138.869, 10.91766
1139.351, 9.980835
1139.833, 10.61121
1140.315, 11.06970
1140.797, 10.97577
1141.279, 10.75964
1141.762, 11.08038
1142.244, 11.40955
1142.726, 11.17432
1143.208, 10.29303
1143.690, 8.989258
1144.172, 7.046631
1144.654, 5.949707
1145.136, 6.263611
1145.619, 7.475098
1146.101, 9.630920
1146.583, 11.79791
1147.065, 12.82330
1147.547, 12.27295
1148.029, 11.55487
1148.511, 10.55414
1148.993, 9.995911
1149.475, 10.47589
1149.958, 11.08490
1150.440, 10.09821
1150.922, 8.316772
1151.404, 7.268921
1151.886, 7.972107
1152.368, 7.795959
1152.850, 6.125732
1153.332, 4.546814
1153.814, 4.398010
1154.297, 5.053101
1154.779, 4.906982
1155.261, 4.236938
1155.743, 3.530457
1156.225, 3.047974
1156.707, 2.371399
1157.189, 1.191162
1157.671, 0.2291870
1158.154, 0.1051640
1158.636, 0.6023560
1159.118, 1.497253
1159.600, 2.682983
1160.082, 3.509521
1160.564, 3.400024
1161.046, 3.219788
1161.528, 3.301392
1162.010, 3.336670
1162.493, 2.782104
1162.975, 1.800842
1163.457, 1.662109
1163.939, 2.343201
1164.421, 2.779968
1164.903, 1.637024
1165.385, 0.9407350
1165.867, 2.137024
1166.349, 3.968445
1166.832, 4.086548
1167.314, 2.681946
1167.796, 2.580078
1168.278, 4.109924
1168.760, 5.324402
1169.242, 4.266296
1169.724, 3.005798
1170.206, 3.035767
1170.689, 3.792297
1171.171, 3.814697
1171.653, 3.135132
1172.135, 2.477295
1172.617, 1.933228
1173.099, 1.624329
1173.581, 1.831360
1174.063, 2.226563
1174.546, 2.565369
1175.028, 2.866699
1175.510, 3.389587
1175.992, 4.165588
1176.474, 4.368103
1176.956, 3.619385
1177.438, 2.972229
1177.920, 4.106750
1178.402, 5.302673
1178.885, 4.492798
1179.367, 1.756104
1179.849, 0.8161620
1180.331, 1.864563
1180.813, 2.583069
1181.295, 2.043884
1181.777, 1.232117
1182.259, 1.074158
1182.742, 1.280212
1183.224, 1.596863
1183.706, 2.021179
1184.188, 2.313416
1184.670, 2.507141
1185.152, 2.304626
1185.634, 1.310364
1186.116, 0.3145750
1186.599, 0.1754760
1187.081, 0.6122440
1187.563, 1.378296
1188.045, 2.661682
1188.527, 3.109741
1189.009, 2.602356
1189.491, 1.852356
1189.973, 0.8667600
1190.455, 0.2929080
1190.938, 1.494934
1191.420, 3.462036
1191.902, 4.554016
1192.384, 4.343079
1192.866, 3.698181
1193.348, 2.538269
1193.830, 1.369080
1194.312, 0.3408200
1194.794, 0.3622440
1195.277, 0.5385740
1195.759, 0.1984860
1196.241, 0.7224730
1196.723, 3.053040
1197.205, 3.889282
1197.687, 2.943848
1198.169, 1.605896
1198.651, 0.6456910
1199.134, 0.1437380
1199.616, 0.4577030
1200.098, 1.299683
1200.580, 1.981201
1201.062, 2.503052
1201.544, 2.534363
1202.026, 1.978821
1202.508, 1.250305
1202.990, 0.4105830
1203.473, 0.1795650
1203.955, 0.1958010
1204.437, 1.238281
1204.919, 1.966797
1205.401, 2.358276
1205.883, 2.045959
1206.365, 0.7948610
1206.847, 0.3098140
1207.329, 7.3850001E-03
1207.812, 0.9207760
1208.294, 1.660889
1208.776, 2.087830
1209.258, 1.662048
1209.740, 0.3740840
1210.222, 1.149780
1210.704, 9.2224002E-02
1211.186, 1.237305
1211.669, 1.162109
1212.151, 0.5064090
1212.633, 0.2433470
1213.115, 0.3641970
1213.597, 0.5133670
1214.079, 0.7960820
1214.561, 0.5531010
1215.043, 0.4796140
1215.526, 1.335144
1216.008, 0.6085820
1216.490, 0.6356200
1216.972, 1.072327
1217.454, 0.7341920
1217.936, 0.5076290
1218.418, 0.3669430
1218.900, 0.5805050
1219.382, 1.152893
1219.865, 1.479736
1220.347, 1.573425
1220.829, 0.7378540
1221.311, 1.101929
1221.793, 0.9849240
1222.275, 0.8480220
1222.757, 1.380371
1223.239, 1.046082
1223.722, 0.9266360
1224.204, 0.6450810
1224.686, 0.5957030
1225.168, 0.5899660
1225.650, 0.3439330
1226.132, 6.5186001E-02
1226.614, 6.7099999E-04
1227.096, 0.7237550
1227.578, 1.064209
1228.061, 0.7420650
1228.543, 0.2353520
1229.025, 0.1928710
1229.507, 0.3782960
1229.989, 0.2323610
1230.471, 0.4625850
1230.953, 0.9111940
1231.435, 1.127075
1231.917, 0.4136350
1232.400, 0.9006350
1232.882, 0.9059450
1233.364, 0.8915410
1233.846, 1.546204
1234.328, 0.9689330
1234.810, 1.627258
1235.292, 1.790100
1235.774, 2.168274
1236.257, 2.060425
1236.739, 2.101135
1237.221, 2.625488
1237.703, 2.878845
1238.185, 2.713379
1238.667, 3.105835
1239.149, 2.529541
1239.631, 2.794373
1240.114, 3.432434
1240.596, 3.286865
1241.078, 3.679993
1241.560, 3.867371
1242.042, 3.122314
1242.524, 3.994385
1243.006, 3.062805
1243.488, 3.089966
1243.970, 3.599915
1244.453, 4.506042
1244.935, 4.989563
1245.417, 4.775452
1245.899, 4.809326
1246.381, 5.987183
1246.863, 7.285522
1247.345, 8.080627
1247.827, 8.587463
1248.309, 9.560608
1248.792, 10.83252
1249.274, 11.79926
1249.756, 12.35309
1250.238, 12.90320
1250.720, 14.42664
1251.202, 14.96289
1251.684, 13.28479
1252.166, 10.51434
1252.649, 9.774109
1253.131, 10.34570
1253.613, 10.01483
1254.095, 8.045410
1254.577, 6.897949
1255.059, 8.263184
1255.541, 9.135132
1256.023, 8.116882
1256.505, 6.168884
1256.988, 5.840759
1257.470, 6.507568
1257.952, 7.238098
1258.434, 7.987671
1258.916, 7.738342
1259.398, 5.587830
1259.880, 4.431458
1260.362, 5.284546
1260.844, 6.735352
1261.327, 6.317200
1261.809, 5.003723
1262.291, 4.280029
1262.773, 4.429688
1263.255, 4.726074
1263.737, 5.335022
1264.219, 5.150757
1264.701, 3.448547
1265.184, 1.763794
1265.666, 1.424954
1266.148, 2.319813
1266.630, 2.820390
1267.112, 2.947873
1267.594, 1.584806
1268.076, 2.146476
1268.558, 1.936800
1269.041, 1.695481
1269.523, 2.528050
1270.005, 1.381780
1270.487, 2.197318
1270.969, 2.229739
1271.451, 2.620573
1271.933, 2.235297
1272.415, 2.089736
1272.897, 2.720536
1273.380, 2.921446
1273.862, 2.446826
1274.344, 2.860444
1274.826, 1.687063
1275.308, 1.906296
1275.790, 2.726377
1276.272, 2.290781
1276.754, 2.718588
1277.237, 2.817551
1277.719, 1.422124
1278.201, 2.625613
1278.683, 2.705156
1279.165, 1.630651
1279.647, 2.745091
1280.129, 1.829684
1280.611, 1.172974
1281.094, 0.6004640
1281.576, 0.5679320
1282.058, 1.159546
1282.540, 1.279480
1283.022, 4.1747998E-02
1283.504, 0.7264400
1283.986, 6.9458000E-02
1284.468, 1.082153
1284.950, 1.404785
1285.432, 1.314270
1285.915, 1.539673
1286.397, 2.141724
1286.879, 2.303406
##END=



