##NAMES=Graemite
##RRUFFID=R100207
##IDEAL CHEMISTRY=Cu^2+^Te^4+^O_3_&#183;H_2_O
##LOCALITY=Cole shaft, Bisbee, Cochise County, Arizona, USA
##OWNER=RRUFF
##SOURCE=Rob Lavinsky/Evan Jones 
##DESCRIPTION=Green platy, bladed crystals intimately associated with blue teineite, R100206, on cuprite
##STATUS=The identification of this mineral has been confirmed by single-crystal X-ray diffraction.
##URL=rruff.info/R100207
165.7633, 0.0000000E+00
166.2454, 1.882996
166.7276, 2.489212
167.2097, 1.043625
167.6918, 0.1990660
168.1739, 0.5067440
168.6560, 0.1089170
169.1381, 1.859711
169.6203, 4.367905
170.1024, 5.968201
170.5845, 7.563400
171.0666, 9.328232
171.5487, 10.84195
172.0309, 12.11365
172.5130, 13.35951
172.9951, 15.29095
173.4772, 17.21736
173.9593, 18.05266
174.4414, 16.58061
174.9236, 14.25122
175.4057, 12.47092
175.8878, 11.22253
176.3699, 10.50549
176.8520, 10.50697
177.3341, 11.02065
177.8163, 11.61185
178.2984, 11.87924
178.7805, 12.16924
179.2626, 12.99017
179.7447, 14.33041
180.2268, 16.11676
180.7090, 18.34402
181.1911, 20.95480
181.6732, 23.76512
182.1553, 26.86055
182.6374, 30.06879
183.1195, 32.87477
183.6017, 35.25571
184.0838, 37.51294
184.5659, 40.02992
185.0480, 42.76659
185.5301, 45.66377
186.0123, 48.52058
186.4944, 51.48846
186.9765, 54.87440
187.4586, 58.66188
187.9407, 63.05612
188.4228, 68.59985
188.9050, 75.17509
189.3871, 81.91203
189.8692, 88.77446
190.3513, 95.50647
190.8334, 100.9554
191.3155, 105.0202
191.7977, 107.8549
192.2798, 109.7036
192.7619, 110.5783
193.2440, 110.3600
193.7261, 109.0009
194.2082, 106.5165
194.6904, 102.7101
195.1725, 97.29671
195.6546, 91.09586
196.1367, 85.69843
196.6188, 81.08804
197.1009, 76.99458
197.5831, 73.36578
198.0652, 70.16220
198.5473, 67.16321
199.0294, 64.39774
199.5115, 61.76042
199.9937, 58.88487
200.4758, 55.70102
200.9579, 52.91502
201.4400, 51.13274
201.9221, 50.44139
202.4042, 49.39528
202.8864, 47.70726
203.3685, 45.82202
203.8506, 44.76825
204.3327, 44.61052
204.8148, 45.03763
205.2969, 45.96500
205.7791, 47.43861
206.2612, 49.04445
206.7433, 50.70670
207.2254, 52.52296
207.7075, 54.78027
208.1896, 57.56895
208.6718, 60.55278
209.1539, 63.61366
209.6360, 66.73985
210.1181, 69.93951
210.6002, 73.42001
211.0823, 76.87009
211.5645, 79.31413
212.0466, 80.48544
212.5287, 81.32079
213.0108, 82.36606
213.4929, 83.78342
213.9750, 84.81253
214.4572, 85.37038
214.9393, 85.53508
215.4214, 85.49620
215.9035, 85.15240
216.3856, 84.80453
216.8678, 84.77032
217.3499, 85.42157
217.8320, 85.14423
218.3141, 83.76212
218.7962, 81.43329
219.2783, 78.56570
219.7605, 74.95578
220.2426, 71.20865
220.7247, 67.67685
221.2068, 64.45773
221.6889, 61.17567
222.1710, 57.77391
222.6532, 54.62070
223.1353, 51.79358
223.6174, 49.38924
224.0995, 47.09648
224.5816, 44.69962
225.0637, 42.29018
225.5459, 39.53410
226.0280, 35.96509
226.5101, 31.98369
226.9922, 29.28308
227.4743, 28.55321
227.9564, 28.18681
228.4386, 27.35774
228.9207, 25.90279
229.4028, 24.33128
229.8849, 22.34744
230.3670, 20.15509
230.8492, 18.55891
231.3313, 17.98984
231.8134, 17.63243
232.2955, 17.05232
232.7776, 16.02269
233.2597, 15.26489
233.7419, 14.97963
234.2240, 14.93134
234.7061, 14.48416
235.1882, 13.43074
235.6703, 12.31509
236.1524, 11.27284
236.6346, 10.00655
237.1167, 9.573532
237.5988, 10.38531
238.0809, 11.87900
238.5630, 12.68845
239.0451, 12.28467
239.5273, 11.97772
240.0094, 12.31458
240.4915, 13.52916
240.9736, 14.80301
241.4557, 16.29128
241.9378, 17.77205
242.4200, 18.73831
242.9021, 18.87357
243.3842, 18.99525
243.8663, 19.44713
244.3484, 20.42378
244.8306, 21.16956
245.3127, 21.77602
245.7948, 22.10202
246.2769, 21.83684
246.7590, 20.74878
247.2411, 19.47762
247.7233, 18.23602
248.2054, 17.05519
248.6875, 15.71834
249.1696, 13.85564
249.6517, 12.09863
250.1338, 11.66684
250.6160, 13.55313
251.0981, 14.96454
251.5802, 14.75243
252.0623, 12.36713
252.5444, 11.28386
253.0265, 12.15822
253.5087, 13.80688
253.9908, 14.46170
254.4729, 13.52957
254.9550, 12.81671
255.4371, 12.84692
255.9192, 13.69328
256.4014, 14.71577
256.8835, 16.04811
257.3656, 17.42363
257.8477, 18.48012
258.3298, 18.93961
258.8120, 19.72609
259.2941, 21.22397
259.7762, 23.51054
260.2583, 25.19394
260.7404, 25.98744
261.2225, 26.54596
261.7047, 27.63583
262.1868, 29.49904
262.6689, 31.27522
263.1510, 32.89175
263.6331, 34.32535
264.1152, 35.12051
264.5974, 35.06645
265.0795, 34.69003
265.5616, 34.55246
266.0437, 34.82486
266.5258, 34.74268
267.0079, 34.05786
267.4901, 32.85524
267.9722, 31.99454
268.4543, 31.63626
268.9364, 31.28851
269.4185, 30.64223
269.9006, 29.77846
270.3828, 28.22772
270.8649, 25.65831
271.3470, 22.35846
271.8291, 19.63266
272.3112, 17.50549
272.7933, 15.79112
273.2755, 14.50128
273.7576, 13.72923
274.2397, 12.62820
274.7218, 10.90274
275.2039, 8.902985
275.6860, 7.881378
276.1682, 8.101746
276.6503, 8.266846
277.1324, 7.530991
277.6145, 5.853058
278.0966, 3.860367
278.5787, 1.322449
279.0609, 1.159760
279.5430, 2.037216
280.0251, 1.054092
280.5072, 1.5137000E-02
280.9893, 0.2494200
281.4715, 0.3445890
281.9536, 1.323181
282.4357, 2.882584
282.9178, 4.409958
283.3999, 4.612701
283.8820, 3.413269
284.3642, 2.342743
284.8463, 2.272217
285.3284, 3.101410
285.8105, 3.703018
286.2926, 4.143753
286.7747, 4.154388
287.2569, 2.982376
287.7390, 0.6898040
288.2211, 1.098572
288.7032, 1.411575
289.1853, 0.6317290
289.6674, 0.4971920
290.1496, 1.061340
290.6317, 1.908127
291.1138, 2.681808
291.5959, 3.375031
292.0780, 3.888992
292.5602, 4.067291
293.0423, 4.098511
293.5244, 4.538391
294.0065, 5.403687
294.4886, 6.286057
294.9707, 6.680145
295.4529, 6.756546
295.9350, 7.132416
296.4171, 8.049164
296.8992, 9.281540
297.3813, 10.53741
297.8634, 11.79601
298.3456, 12.87318
298.8277, 13.07254
299.3098, 12.99985
299.7919, 14.23413
300.2740, 17.69247
300.7561, 21.51006
301.2383, 23.01427
301.7204, 22.59093
302.2025, 21.88040
302.6846, 21.35202
303.1667, 21.36681
303.6488, 22.75026
304.1310, 26.03069
304.6131, 29.35146
305.0952, 30.37180
305.5773, 29.85619
306.0594, 29.85886
306.5415, 32.18393
307.0237, 35.27380
307.5058, 37.46239
307.9879, 38.42148
308.4700, 39.12575
308.9521, 40.19986
309.4343, 41.57831
309.9164, 43.19438
310.3985, 45.27910
310.8806, 47.30162
311.3627, 48.66994
311.8448, 49.39130
312.3270, 50.32397
312.8091, 52.41507
313.2912, 54.82442
313.7733, 56.52531
314.2554, 57.08081
314.7375, 57.04449
315.2197, 56.36569
315.7018, 55.12366
316.1839, 54.24210
316.6660, 54.67758
317.1481, 55.43373
317.6302, 55.70660
318.1124, 55.03828
318.5945, 54.16386
319.0766, 53.25406
319.5587, 52.28096
320.0408, 51.19312
320.5229, 49.53108
321.0051, 48.12479
321.4872, 47.54265
321.9693, 48.52176
322.4514, 49.10721
322.9335, 48.56021
323.4156, 47.35776
323.8978, 46.44016
324.3799, 46.63033
324.8620, 46.54303
325.3441, 45.49516
325.8262, 42.92250
326.3083, 41.15405
326.7905, 40.66154
327.2726, 40.97325
327.7547, 41.51109
328.2368, 42.37369
328.7189, 43.33557
329.2010, 44.32785
329.6832, 45.30586
330.1653, 46.46393
330.6474, 47.99268
331.1295, 49.59917
331.6116, 51.03375
332.0938, 52.01111
332.5759, 53.27599
333.0580, 54.93152
333.5401, 56.96277
334.0222, 59.12660
334.5043, 61.39676
334.9865, 63.85831
335.4686, 66.63530
335.9507, 69.91370
336.4328, 72.97665
336.9149, 75.66418
337.3970, 78.13586
337.8792, 80.68477
338.3613, 83.35893
338.8434, 86.05669
339.3255, 88.90860
339.8076, 92.04680
340.2898, 94.21404
340.7719, 95.51532
341.2540, 95.80914
341.7361, 94.60638
342.2182, 91.77859
342.7003, 88.69830
343.1825, 85.84691
343.6646, 83.13861
344.1467, 80.08968
344.6288, 76.69724
345.1109, 73.10196
345.5930, 69.12981
346.0752, 64.86104
346.5573, 61.09006
347.0394, 58.07300
347.5215, 55.56880
348.0036, 53.09215
348.4857, 50.64394
348.9679, 47.98814
349.4500, 44.39565
349.9321, 40.39046
350.4142, 37.65201
350.8963, 36.68582
351.3784, 36.37196
351.8606, 35.36923
352.3427, 33.81328
352.8248, 32.17926
353.3069, 30.91092
353.7890, 29.67325
354.2711, 27.90425
354.7533, 25.51764
355.2354, 23.04285
355.7175, 20.86185
356.1996, 18.93237
356.6817, 17.17993
357.1638, 15.78172
357.6460, 14.39854
358.1281, 12.74464
358.6102, 10.83760
359.0923, 8.848236
359.5744, 6.549850
360.0565, 4.377350
360.5387, 2.762436
361.0208, 2.016800
361.5029, 1.606201
361.9850, 1.471710
362.4671, 1.520767
362.9492, 1.468216
363.4314, 1.439728
363.9135, 1.121262
364.3956, 0.1938480
364.8777, 1.899994
365.3598, 3.364731
365.8419, 3.296692
366.3241, 2.490814
366.8062, 2.138931
367.2883, 3.173920
367.7704, 3.939285
368.2526, 3.828171
368.7347, 2.601105
369.2168, 1.823456
369.6989, 1.974899
370.1810, 2.298676
370.6631, 2.141602
371.1453, 0.8589320
371.6274, 7.0952997E-02
372.1095, 0.2063900
372.5916, 1.074219
373.0737, 1.351700
373.5558, 0.6399230
374.0380, 6.7824997E-02
374.5201, 0.1843870
375.0022, 0.5124970
375.4843, 1.095139
375.9664, 1.584946
376.4485, 1.902542
376.9307, 1.787292
377.4128, 1.103806
377.8949, 0.5762630
378.3770, 0.5509490
378.8591, 1.001709
379.3412, 1.438629
379.8234, 1.892319
380.3055, 2.220215
380.7876, 2.232773
381.2697, 1.939377
381.7518, 1.511200
382.2339, 0.8668370
382.7161, 0.2123410
383.1982, 9.6465997E-02
383.6803, 0.5067900
384.1624, 1.018265
384.6445, 1.357529
385.1266, 1.555771
385.6088, 1.723358
386.0909, 1.920258
386.5730, 1.953262
387.0551, 1.465790
387.5372, 0.6114040
388.0193, 0.1851350
388.5015, 0.6175230
388.9836, 0.9133450
389.4657, 1.313385
389.9478, 1.832565
390.4299, 2.374344
390.9120, 2.772980
391.3942, 3.188126
391.8763, 3.814224
392.3584, 5.231186
392.8405, 6.385193
393.3226, 6.395004
393.8047, 5.550171
394.2869, 5.173477
394.7690, 6.342041
395.2511, 7.757446
395.7332, 8.584457
396.2154, 8.377441
396.6975, 8.239136
397.1796, 8.467621
397.6617, 8.903107
398.1438, 9.266434
398.6259, 9.231323
399.1081, 9.405472
399.5902, 10.03577
400.0723, 11.20821
400.5544, 12.24844
401.0365, 13.39938
401.5186, 14.23508
402.0008, 14.27208
402.4829, 12.56062
402.9650, 11.86282
403.4471, 12.68619
403.9292, 14.75345
404.4113, 17.01947
404.8935, 19.81403
405.3756, 22.09007
405.8577, 22.92668
406.3398, 21.94391
406.8219, 22.51762
407.3040, 25.16669
407.7862, 28.46248
408.2683, 30.16344
408.7504, 30.21428
409.2325, 30.61391
409.7146, 32.11731
410.1967, 34.46017
410.6789, 36.89452
411.1610, 39.41945
411.6431, 42.14081
412.1252, 45.41287
412.6073, 48.95760
413.0894, 51.87123
413.5716, 53.73515
414.0537, 55.30443
414.5358, 57.46700
415.0179, 60.07361
415.5000, 62.72449
415.9821, 65.32175
416.4643, 67.74466
416.9464, 69.73410
417.4285, 71.22273
417.9106, 72.82616
418.3927, 74.56744
418.8748, 76.75140
419.3570, 79.71353
419.8391, 84.90634
420.3212, 89.65643
420.8033, 92.36838
421.2854, 93.51228
421.7675, 95.34860
422.2497, 99.11047
422.7318, 103.2090
423.2139, 106.9586
423.6960, 110.6135
424.1781, 113.5316
424.6602, 114.8726
425.1424, 115.5048
425.6245, 116.8382
426.1066, 119.7501
426.5887, 122.4312
427.0709, 124.4561
427.5530, 125.7656
428.0351, 126.7190
428.5172, 127.4340
428.9993, 127.7841
429.4814, 127.3891
429.9636, 125.7721
430.4457, 124.9721
430.9278, 125.4073
431.4099, 126.6367
431.8920, 127.5713
432.3741, 128.1387
432.8563, 128.6563
433.3384, 129.1222
433.8205, 129.6366
434.3026, 130.7325
434.7847, 132.4171
435.2668, 134.9139
435.7490, 138.7700
436.2311, 143.6507
436.7132, 148.2614
437.1953, 152.0966
437.6774, 155.7665
438.1595, 160.4382
438.6417, 165.8573
439.1238, 170.9047
439.6059, 174.4055
440.0880, 177.4551
440.5701, 181.1887
441.0522, 185.7706
441.5344, 190.7254
442.0165, 196.3665
442.4986, 202.0196
442.9807, 206.8237
443.4628, 209.6199
443.9449, 212.3709
444.4271, 215.8021
444.9092, 219.8669
445.3913, 224.1659
445.8734, 229.3172
446.3555, 233.9874
446.8376, 237.3910
447.3198, 238.6069
447.8019, 240.2825
448.2840, 242.8906
448.7661, 245.7966
449.2482, 248.0717
449.7303, 249.1872
450.2125, 250.5360
450.6946, 252.4439
451.1767, 254.8921
451.6588, 257.6076
452.1409, 261.0017
452.6230, 263.7714
453.1052, 264.8245
453.5873, 264.0634
454.0694, 262.9973
454.5515, 261.7429
455.0337, 260.2356
455.5158, 258.3920
455.9979, 256.2004
456.4800, 253.7474
456.9621, 251.1340
457.4442, 248.2418
457.9264, 244.8242
458.4085, 240.8981
458.8906, 236.3540
459.3727, 230.9657
459.8548, 224.9689
460.3369, 218.8087
460.8191, 212.4353
461.3012, 206.1062
461.7833, 200.3786
462.2654, 194.8265
462.7475, 188.5879
463.2296, 180.2986
463.7118, 171.9482
464.1939, 164.6705
464.6760, 158.4773
465.1581, 152.5569
465.6402, 147.2085
466.1223, 141.7422
466.6045, 135.7388
467.0866, 128.5207
467.5687, 121.5436
468.0508, 114.5383
468.5329, 107.8157
469.0150, 102.0223
469.4972, 97.64032
469.9793, 93.56516
470.4614, 89.53589
470.9435, 85.55200
471.4256, 81.63412
471.9077, 77.70239
472.3899, 74.00635
472.8720, 70.94955
473.3541, 68.58136
473.8362, 65.73296
474.3183, 62.04764
474.8004, 58.07446
475.2826, 54.92888
475.7647, 52.56598
476.2468, 50.36697
476.7289, 47.89835
477.2110, 45.38190
477.6931, 43.42252
478.1753, 42.01172
478.6574, 40.73935
479.1395, 39.16017
479.6216, 37.53255
480.1037, 36.25430
480.5858, 35.51277
481.0680, 34.97937
481.5501, 34.70943
482.0322, 34.47488
482.5143, 33.79730
482.9964, 31.81396
483.4786, 29.93425
483.9607, 28.94437
484.4428, 28.97089
484.9249, 28.86223
485.4070, 28.11575
485.8892, 27.34888
486.3713, 27.02419
486.8534, 27.47977
487.3355, 27.79955
487.8176, 27.93549
488.2997, 27.95732
488.7819, 27.91814
489.2640, 27.57466
489.7461, 27.69853
490.2282, 28.59940
490.7103, 30.27069
491.1924, 32.26051
491.6746, 34.69260
492.1567, 36.72670
492.6388, 37.33134
493.1209, 36.75029
493.6030, 36.70158
494.0851, 37.36279
494.5673, 38.48959
495.0494, 40.25330
495.5315, 42.46481
496.0136, 44.16093
496.4957, 44.10364
496.9778, 43.64731
497.4600, 44.75572
497.9421, 47.26808
498.4242, 49.27364
498.9063, 49.04839
499.3884, 48.09657
499.8705, 47.80664
500.3527, 48.81378
500.8348, 49.62820
501.3169, 49.52299
501.7990, 48.98820
502.2811, 48.68764
502.7632, 49.23206
503.2454, 49.43726
503.7275, 48.79530
504.2096, 47.45648
504.6917, 46.82069
505.1738, 47.45372
505.6559, 48.09267
506.1381, 48.05588
506.6202, 47.17403
507.1023, 45.75951
507.5844, 43.47952
508.0665, 41.34267
508.5486, 40.99690
509.0308, 42.52423
509.5129, 43.99403
509.9950, 45.04955
510.4771, 45.49689
510.9592, 44.65112
511.4413, 42.65179
511.9235, 40.73541
512.4056, 39.78493
512.8877, 39.43088
513.3698, 39.12495
513.8519, 38.82613
514.3340, 38.46361
514.8162, 37.92801
515.2983, 37.22363
515.7804, 36.36096
516.2625, 34.81668
516.7446, 33.80098
517.2267, 34.22316
517.7089, 35.61554
518.1910, 36.75914
518.6731, 37.40549
519.1552, 37.70923
519.6373, 37.61325
520.1194, 37.07768
520.6016, 36.85417
521.0837, 37.08298
521.5658, 37.25667
522.0479, 36.98723
522.5300, 36.08771
523.0121, 35.64388
523.4943, 35.92140
523.9764, 36.44365
524.4585, 36.30669
524.9406, 35.51146
525.4227, 34.64949
525.9048, 33.88152
526.3870, 33.18466
526.8691, 32.55913
527.3513, 31.98328
527.8334, 31.26811
528.3155, 30.41158
528.7976, 29.28542
529.2797, 27.50443
529.7618, 24.86803
530.2440, 22.50963
530.7261, 21.76743
531.2082, 21.59984
531.6903, 20.70541
532.1724, 17.37057
532.6545, 14.64880
533.1367, 13.79138
533.6188, 14.32222
534.1009, 14.51401
534.5830, 14.03101
535.0651, 13.26282
535.5472, 12.33818
536.0294, 11.25250
536.5115, 9.924591
536.9936, 8.105515
537.4757, 6.393631
537.9578, 5.403961
538.4399, 5.288971
538.9221, 4.803452
539.4042, 3.620224
539.8863, 2.333389
540.3684, 2.256638
540.8505, 3.277176
541.3326, 3.920486
541.8148, 3.479111
542.2969, 2.358917
542.7790, 0.9736630
543.2611, 0.5881350
543.7432, 1.686096
544.2253, 1.493576
544.7075, 0.8259430
545.1896, 0.5485380
545.6717, 0.8437650
546.1538, 1.158768
546.6359, 1.169159
547.1180, 1.080765
547.6002, 1.110611
548.0823, 1.668884
548.5644, 1.935303
549.0465, 1.435760
549.5286, 0.5248410
550.0107, 0.2718960
550.4929, 1.266479
550.9750, 2.022064
551.4571, 1.908981
551.9392, 0.9209900
552.4213, 0.7063600
552.9034, 1.494766
553.3856, 2.337158
553.8677, 2.348633
554.3498, 1.614395
554.8319, 1.205597
555.3140, 1.288040
555.7961, 1.491119
556.2783, 1.295929
556.7604, 0.8239440
557.2425, 0.4140780
557.7246, 0.1558990
558.2067, 4.7455002E-02
558.6888, 0.1969760
559.1710, 0.5192570
559.6531, 0.7240300
560.1352, 0.4402310
560.6173, 0.1730190
561.0994, 0.2323000
561.5815, 0.6714480
562.0637, 1.190048
562.5458, 2.148315
563.0279, 2.887680
563.5100, 2.923920
563.9921, 1.694092
564.4742, 0.7359160
564.9564, 6.9031000E-02
565.4385, 0.2978670
565.9206, 0.2131200
566.4027, 0.4741670
566.8848, 0.8449550
567.3669, 0.5582890
567.8491, 0.1905670
568.3312, 0.9508360
568.8133, 1.705566
569.2954, 2.023621
569.7775, 1.382156
570.2596, 0.1804050
570.7418, 0.9965520
571.2239, 2.137543
571.7060, 2.830734
572.1881, 2.535736
572.6702, 1.729004
573.1523, 0.8856510
573.6345, 7.3073998E-02
574.1166, 0.6842040
574.5987, 0.5391080
575.0808, 2.3300000E-02
575.5629, 0.4454350
576.0450, 0.3584290
576.5272, 0.4478300
577.0093, 1.151718
577.4914, 2.252975
577.9735, 2.167694
578.4556, 0.3031460
578.9377, 1.528732
579.4199, 2.446976
579.9020, 2.427719
580.3841, 2.233170
580.8662, 1.851379
581.3483, 1.376083
581.8304, 0.7954560
582.3126, 0.1882320
582.7947, 0.1710360
583.2768, 0.2218020
583.7589, 4.3258999E-02
584.2410, 0.4301760
584.7231, 1.057404
585.2053, 1.559753
585.6874, 1.799973
586.1696, 1.896561
586.6517, 1.776062
587.1338, 1.518509
587.6159, 1.481827
588.0980, 2.242615
588.5801, 2.805481
589.0623, 2.498932
589.5444, 1.042847
590.0265, 0.6226350
590.5086, 1.699753
590.9907, 3.224304
591.4728, 4.521408
591.9550, 5.641724
592.4371, 6.081055
592.9192, 5.657715
593.4013, 4.892975
593.8834, 4.572571
594.3655, 4.621292
594.8477, 4.535553
595.3298, 4.068054
595.8119, 3.501602
596.2940, 3.093811
596.7761, 2.887375
597.2582, 3.013611
597.7404, 3.633682
598.2225, 4.537598
598.7046, 5.746902
599.1867, 7.240555
599.6688, 8.401443
600.1509, 8.833496
600.6331, 9.036850
601.1152, 9.281464
601.5973, 9.514709
602.0794, 9.944443
602.5615, 10.79799
603.0436, 11.63649
603.5258, 11.80705
604.0079, 11.08200
604.4900, 10.93526
604.9721, 11.68971
605.4542, 13.01270
605.9363, 14.42297
606.4185, 15.87189
606.9006, 17.02197
607.3827, 17.47682
607.8648, 17.62926
608.3469, 17.93111
608.8290, 18.38081
609.3112, 19.06824
609.7933, 20.35043
610.2754, 21.69241
610.7575, 22.61351
611.2396, 22.97778
611.7217, 23.50194
612.2039, 24.56117
612.6860, 25.76712
613.1681, 26.80925
613.6502, 27.35741
614.1323, 28.31233
614.6144, 29.96475
615.0966, 31.79984
615.5787, 32.99126
616.0608, 33.34753
616.5429, 33.96964
617.0250, 35.13675
617.5071, 36.74229
617.9893, 38.68851
618.4714, 40.86441
618.9535, 42.60742
619.4356, 43.38193
619.9177, 43.66985
620.3998, 43.92827
620.8820, 44.21928
621.3641, 44.79352
621.8462, 46.12701
622.3283, 47.62102
622.8104, 48.82925
623.2925, 49.61726
623.7747, 50.46667
624.2568, 51.36143
624.7389, 52.28880
625.2210, 53.33907
625.7031, 54.72009
626.1852, 55.89253
626.6674, 56.90315
627.1495, 57.54741
627.6316, 57.18697
628.1137, 55.71977
628.5958, 54.79965
629.0779, 55.07162
629.5601, 56.01630
630.0422, 56.78928
630.5243, 57.41203
631.0064, 57.87752
631.4885, 57.70595
631.9706, 57.68448
632.4528, 58.86050
632.9349, 61.08749
633.4170, 62.84161
633.8991, 63.09569
634.3812, 62.98473
634.8633, 63.16724
635.3455, 63.80350
635.8276, 64.39665
636.3097, 64.92035
636.7918, 65.59557
637.2739, 66.69862
637.7560, 68.47543
638.2382, 69.39302
638.7203, 69.11748
639.2024, 68.29759
639.6845, 67.99185
640.1666, 68.09494
640.6487, 67.81239
641.1309, 66.76175
641.6130, 65.45480
642.0951, 64.79547
642.5772, 64.50006
643.0594, 63.76695
643.5415, 61.55389
644.0236, 59.32471
644.5057, 57.97534
644.9879, 57.45003
645.4700, 57.02873
645.9521, 56.41801
646.4342, 56.05013
646.9163, 56.13264
647.3984, 56.70590
647.8806, 57.17276
648.3627, 57.60561
648.8448, 58.03166
649.3269, 58.27246
649.8090, 58.32684
650.2911, 59.16315
650.7733, 60.95772
651.2554, 63.13835
651.7375, 65.26385
652.2196, 67.25720
652.7017, 68.94003
653.1838, 70.20659
653.6660, 71.24965
654.1481, 72.28571
654.6302, 73.18054
655.1123, 73.71631
655.5944, 73.83295
656.0765, 73.54309
656.5587, 72.61967
657.0408, 71.22340
657.5229, 70.18741
658.0050, 70.23476
658.4871, 69.40204
658.9692, 66.79956
659.4514, 62.59473
659.9335, 58.63602
660.4156, 54.96379
660.8977, 51.32201
661.3798, 47.49695
661.8619, 43.61508
662.3441, 39.92847
662.8262, 36.45728
663.3083, 33.08313
663.7904, 29.55219
664.2725, 26.14835
664.7546, 23.17432
665.2368, 20.68782
665.7189, 18.63725
666.2010, 17.41324
666.6831, 16.42000
667.1652, 14.94221
667.6473, 12.30998
668.1295, 10.29538
668.6116, 9.284119
669.0937, 8.743866
669.5758, 7.594437
670.0579, 5.756378
670.5400, 4.019119
671.0222, 2.584869
671.5043, 1.418961
671.9864, 0.3423160
672.4685, 0.5916290
672.9506, 1.111206
673.4327, 0.5068510
673.9149, 0.1746220
674.3970, 0.2545930
674.8791, 1.629333
675.3612, 2.606079
675.8433, 2.333588
676.3254, 1.802734
676.8076, 1.473801
677.2897, 1.379547
677.7718, 1.492874
678.2539, 2.026505
678.7360, 2.461060
679.2181, 2.316177
679.7003, 1.488129
680.1824, 1.323975
680.6645, 2.039108
681.1466, 2.663071
681.6287, 1.941299
682.1108, 0.2759090
682.5930, 1.266693
683.0751, 2.560623
683.5572, 3.430115
684.0393, 3.237885
684.5214, 2.679779
685.0035, 2.752274
685.4857, 4.028748
685.9678, 5.665665
686.4499, 7.686050
686.9320, 9.885834
687.4141, 11.82700
687.8962, 13.28078
688.3784, 14.87245
688.8605, 16.69865
689.3426, 18.77753
689.8247, 21.27403
690.3068, 24.23015
690.7889, 27.07718
691.2711, 29.19080
691.7532, 31.18158
692.2353, 34.44664
692.7174, 38.78595
693.1995, 43.11679
693.6816, 46.47032
694.1638, 49.78668
694.6459, 53.72891
695.1280, 58.36571
695.6101, 63.28235
696.0922, 68.60046
696.5743, 73.98996
697.0565, 79.18918
697.5386, 84.00294
698.0207, 89.74533
698.5028, 96.65396
698.9849, 103.9987
699.4670, 111.0419
699.9492, 117.8488
700.4313, 125.1125
700.9135, 132.8540
701.3956, 140.9882
701.8777, 149.9556
702.3598, 159.0911
702.8419, 167.1638
703.3240, 173.3363
703.8062, 179.4165
704.2883, 186.7609
704.7704, 194.4323
705.2525, 200.9250
705.7346, 205.4430
706.2167, 209.5222
706.6989, 213.5027
707.1810, 217.0477
707.6631, 219.5389
708.1452, 221.0236
708.6273, 220.9112
709.1094, 218.6458
709.5916, 215.0503
710.0737, 211.9162
710.5558, 209.1689
711.0379, 206.2619
711.5200, 202.5280
712.0021, 198.7974
712.4843, 195.4888
712.9664, 192.6826
713.4485, 190.7363
713.9306, 190.5143
714.4127, 190.5306
714.8948, 189.7306
715.3770, 188.0496
715.8591, 188.3516
716.3412, 191.4989
716.8233, 194.9193
717.3054, 196.8245
717.7875, 197.3413
718.2697, 199.4024
718.7518, 203.0828
719.2339, 207.5505
719.7160, 212.4223
720.1981, 217.4833
720.6802, 222.2490
721.1624, 226.5341
721.6445, 231.5651
722.1266, 238.4684
722.6087, 246.1564
723.0908, 253.6699
723.5729, 260.6555
724.0551, 267.6653
724.5372, 274.4089
725.0193, 281.4093
725.5014, 289.0475
725.9835, 297.2962
726.4656, 306.2968
726.9478, 316.1116
727.4299, 326.8473
727.9120, 338.7691
728.3941, 351.7544
728.8762, 364.9371
729.3583, 378.0920
729.8405, 391.3694
730.3226, 404.6051
730.8047, 418.1914
731.2868, 432.3786
731.7689, 449.0054
732.2510, 464.3327
732.7332, 477.4563
733.2153, 488.6509
733.6974, 498.6656
734.1795, 507.5962
734.6616, 515.2629
735.1437, 522.3710
735.6259, 527.4185
736.1080, 525.8495
736.5901, 518.0704
737.0722, 507.6640
737.5543, 496.3949
738.0364, 483.3339
738.5186, 466.6970
739.0007, 447.2458
739.4828, 427.2542
739.9649, 407.8213
740.4470, 387.9759
740.9291, 366.7339
741.4113, 344.4616
741.8934, 323.6189
742.3755, 304.3397
742.8576, 285.9657
743.3397, 268.0154
743.8218, 250.6034
744.3040, 234.5782
744.7861, 220.0930
745.2682, 206.7496
745.7503, 194.3292
746.2324, 182.8085
746.7145, 172.6558
747.1967, 163.7463
747.6788, 155.4000
748.1609, 146.8925
748.6430, 139.0593
749.1251, 132.5205
749.6072, 127.5723
750.0894, 122.4863
750.5715, 117.0045
751.0536, 111.7355
751.5357, 107.0036
752.0178, 102.7310
752.4999, 99.04926
752.9821, 96.03598
753.4642, 93.16281
753.9463, 89.77998
754.4284, 86.28079
754.9105, 83.42004
755.3926, 81.17706
755.8748, 79.26407
756.3569, 77.99503
756.8390, 76.74747
757.3211, 74.77701
757.8032, 71.10957
758.2853, 68.76294
758.7675, 68.58072
759.2496, 68.89519
759.7318, 68.31607
760.2139, 66.81506
760.6960, 65.07277
761.1781, 63.08377
761.6602, 60.85562
762.1423, 58.17612
762.6245, 55.32318
763.1066, 53.09052
763.5887, 51.92642
764.0708, 50.46822
764.5529, 47.48692
765.0350, 43.80698
765.5172, 40.40475
765.9993, 37.78670
766.4814, 35.02951
766.9635, 31.59709
767.4456, 28.38176
767.9277, 26.78418
768.4099, 27.11182
768.8920, 26.79022
769.3741, 25.34213
769.8562, 23.29854
770.3383, 21.10492
770.8204, 18.91721
771.3026, 17.23347
771.7847, 16.51717
772.2668, 15.77911
772.7489, 14.36105
773.2310, 12.47462
773.7131, 10.47961
774.1953, 7.526093
774.6774, 5.745728
775.1595, 5.678680
775.6416, 6.647110
776.1237, 7.653915
776.6058, 8.823105
777.0880, 8.998169
777.5701, 7.593979
778.0522, 5.606903
778.5343, 4.629257
779.0164, 4.457214
779.4985, 4.505417
779.9807, 4.827911
780.4628, 4.918564
780.9449, 4.265198
781.4270, 3.192764
781.9091, 2.332153
782.3912, 1.906754
782.8734, 1.593842
783.3555, 1.324158
783.8376, 1.210464
784.3197, 1.529877
784.8018, 2.340271
785.2839, 2.960236
785.7661, 3.185959
786.2482, 3.112595
786.7303, 2.770050
787.2124, 2.248520
787.6945, 1.790787
788.1766, 1.690994
788.6588, 1.501984
789.1409, 0.7584840
789.6230, 0.2630770
790.1051, 0.7760930
790.5872, 0.3088070
791.0693, 5.9067000E-02
791.5515, 0.1038360
792.0336, 6.9626004E-02
792.5157, 0.1700130
792.9978, 0.1993260
793.4799, 0.2409820
793.9620, 0.3556980
794.4442, 0.4591980
794.9263, 0.4402310
795.4084, 0.3120570
795.8905, 0.1140590
796.3726, 0.3993530
796.8547, 0.6905820
797.3369, 0.4918820
797.8190, 0.1210020
798.3011, 0.9083400
798.7832, 2.260834
799.2653, 2.988708
799.7474, 2.668716
800.2296, 1.641663
800.7117, 0.7314910
801.1938, 5.6258999E-02
801.6759, 0.6192930
802.1580, 0.8530430
802.6401, 0.9096830
803.1223, 0.9752200
803.6044, 1.002274
804.0865, 0.8686980
804.5686, 0.3118290
805.0507, 0.1603850
805.5328, 0.4144440
806.0150, 0.4556270
806.4971, 0.2183380
806.9792, 0.4812930
807.4613, 0.7692410
807.9434, 0.2047420
808.4255, 0.6743470
808.9077, 0.4509120
809.3898, 0.6130980
809.8719, 1.334610
810.3540, 1.066315
810.8361, 0.3762660
811.3182, 0.7086330
811.8004, 1.850708
812.2825, 2.283157
812.7646, 0.9116670
813.2467, 9.5596001E-02
813.7288, 0.2802730
814.2109, 0.1291050
814.6931, 0.7105870
815.1752, 1.546173
815.6573, 1.731400
816.1394, 0.7239690
816.6215, 0.6042020
817.1037, 0.6101530
817.5858, 0.2588960
818.0679, 0.8306880
818.5500, 0.5728610
819.0322, 6.9077000E-02
819.5143, 1.242111
819.9964, 2.587021
820.4785, 3.302673
820.9606, 2.993362
821.4427, 2.731995
821.9249, 2.651535
822.4070, 2.724838
822.8891, 3.062836
823.3712, 3.606628
823.8533, 3.643219
824.3354, 2.775467
824.8176, 1.741882
825.2997, 1.397263
825.7818, 1.478226
826.2639, 1.541687
826.7460, 1.206406
827.2281, 1.121841
827.7103, 1.572250
828.1924, 2.291138
828.6745, 2.986496
829.1566, 3.704071
829.6387, 4.219589
830.1208, 4.538559
830.6030, 4.533127
831.0851, 3.634109
831.5672, 2.256744
832.0493, 1.646912
832.5314, 2.419174
833.0135, 3.272675
833.4957, 3.171219
833.9778, 2.708496
834.4599, 2.579849
834.9420, 3.525864
835.4241, 3.911942
835.9063, 3.493912
836.3884, 2.813156
836.8705, 2.370316
837.3526, 2.169434
837.8347, 2.733154
838.3168, 4.288315
838.7990, 5.771729
839.2811, 6.232071
839.7632, 5.872482
840.2453, 4.720932
840.7274, 2.284241
841.2095, 0.7817080
841.6917, 1.811813
842.1738, 3.479034
842.6559, 4.296021
843.1380, 3.988083
843.6201, 3.759613
844.1022, 3.608597
844.5844, 3.543686
845.0665, 3.621231
845.5486, 3.788284
846.0307, 3.859329
846.5128, 3.815674
846.9949, 3.882996
847.4771, 4.524307
847.9592, 5.063309
848.4413, 4.894699
848.9234, 3.706284
849.4055, 3.127121
849.8876, 3.395645
850.3698, 3.953751
850.8519, 4.622452
851.3340, 5.359726
851.8161, 5.544205
852.2982, 5.179138
852.7803, 4.724487
853.2625, 4.219910
853.7446, 3.930832
854.2267, 4.494507
854.7088, 5.808746
855.1909, 6.680130
855.6730, 6.506897
856.1552, 5.930267
856.6373, 4.939423
857.1194, 3.700531
857.6015, 3.466858
858.0836, 4.432678
858.5657, 5.318008
859.0479, 5.464691
859.5300, 5.150879
860.0121, 4.795349
860.4942, 4.448441
860.9763, 4.300873
861.4584, 4.907791
861.9406, 5.272705
862.4227, 4.670471
862.9048, 3.391342
863.3869, 2.537613
863.8690, 2.069016
864.3511, 2.265656
864.8333, 3.501160
865.3154, 5.063507
865.7975, 5.401245
866.2796, 4.709747
866.7617, 4.042236
867.2438, 3.661011
867.7260, 3.623383
868.2081, 4.335495
868.6902, 5.288712
869.1723, 5.691330
869.6544, 4.917130
870.1365, 4.258606
870.6187, 3.869843
871.1008, 3.737991
871.5829, 3.849365
872.0650, 4.167847
872.5471, 4.674332
873.0292, 5.437134
873.5114, 5.971024
873.9935, 5.672302
874.4756, 4.972977
874.9577, 4.303589
875.4399, 3.691391
875.9220, 3.141678
876.4041, 2.597809
876.8862, 2.294586
877.3683, 2.440063
877.8505, 3.093628
878.3326, 3.640137
878.8147, 4.057068
879.2968, 4.290787
879.7789, 4.217972
880.2610, 3.952164
880.7432, 3.606781
881.2253, 3.201462
881.7074, 2.962250
882.1895, 3.053391
882.6716, 3.227768
883.1537, 3.424347
883.6359, 3.654984
884.1180, 3.661255
884.6001, 3.383362
885.0822, 3.050430
885.5643, 2.749802
886.0464, 2.500488
886.5286, 2.284470
887.0107, 2.129639
887.4928, 2.163666
887.9749, 2.851532
888.4570, 3.341599
888.9391, 2.941132
889.4213, 1.963211
889.9034, 1.502197
890.3855, 1.789810
890.8676, 2.236542
891.3497, 2.807053
891.8318, 3.312576
892.3140, 3.452759
892.7961, 3.272583
893.2782, 2.794739
893.7603, 1.773499
894.2424, 1.043594
894.7245, 1.541534
895.2067, 2.568436
895.6888, 3.286469
896.1709, 3.328796
896.6530, 3.422852
897.1351, 3.624847
897.6172, 3.782516
898.0994, 3.749619
898.5815, 3.503616
899.0636, 2.922165
899.5457, 2.043457
900.0278, 1.493912
900.5099, 2.150558
900.9921, 3.086578
901.4742, 3.417313
901.9563, 2.953506
902.4384, 2.580811
902.9205, 2.560928
903.4026, 2.412476
903.8848, 1.667572
904.3669, 0.5123140
904.8490, 0.8718110
905.3311, 2.678589
905.8132, 4.036575
906.2953, 3.324554
906.7775, 1.964569
907.2596, 1.221405
907.7417, 1.046616
908.2238, 1.143524
908.7059, 2.148865
909.1880, 2.455750
909.6702, 1.333099
910.1523, 0.4337310
910.6344, 0.8632200
911.1165, 1.5900001E-02
911.5986, 0.9266050
912.0807, 1.598862
912.5629, 2.000946
913.0450, 1.854584
913.5271, 1.487579
914.0092, 1.417908
914.4913, 2.157059
914.9734, 2.500275
915.4556, 1.961700
915.9377, 1.275665
916.4198, 1.144333
916.9019, 1.607971
917.3840, 1.869049
917.8661, 1.888779
918.3483, 1.667282
918.8304, 0.8999020
919.3125, 6.5903001E-02
919.7946, 0.1752780
920.2767, 0.2463990
920.7589, 0.6347200
921.2410, 0.6735990
921.7231, 0.7593080
922.2052, 1.107910
922.6873, 1.678818
923.1694, 2.009659
923.6516, 2.084137
924.1337, 2.111450
924.6158, 2.134964
925.0979, 2.218369
925.5800, 2.710190
926.0621, 3.326599
926.5443, 3.355301
927.0264, 1.752502
927.5085, 0.5347290
927.9906, 0.1130220
928.4727, 0.2593990
928.9548, 0.7644500
929.4370, 1.654495
929.9191, 2.123398
930.4012, 1.968781
930.8833, 1.618774
931.3654, 1.426712
931.8475, 1.390930
932.3297, 1.515060
932.8118, 1.817459
933.2939, 2.220596
933.7761, 3.266083
934.2582, 3.822845
934.7403, 2.888931
935.2224, 0.3941960
935.7045, 0.5591580
936.1866, 6.1707001E-02
936.6688, 0.9974820
937.1509, 1.691208
937.6330, 1.995956
938.1151, 1.428085
938.5972, 0.2116550
939.0793, 0.5110780
939.5615, 0.2463230
940.0436, 0.7317960
940.5257, 0.3003230
941.0078, 0.5696870
941.4899, 0.4885100
941.9720, 0.5068360
942.4542, 1.458923
942.9363, 2.187668
943.4184, 2.560822
943.9005, 2.078461
944.3826, 1.289642
944.8647, 0.9676360
945.3469, 1.594009
945.8290, 2.173035
946.3111, 2.849930
946.7932, 3.159012
947.2753, 2.433884
947.7574, 0.7493290
948.2396, 0.1381230
948.7217, 0.1696320
949.2038, 0.2313690
949.6859, 1.289536
950.1680, 2.217606
950.6501, 2.093597
951.1323, 0.9527280
951.6144, 0.2574620
952.0965, 0.4391170
952.5786, 0.6321560
953.0607, 0.4945980
953.5428, 0.2383120
954.0250, 0.6812590
954.5071, 1.675537
954.9892, 2.336548
955.4713, 2.153687
955.9534, 1.803955
956.4355, 1.879593
956.9177, 2.073669
957.3998, 1.911270
957.8819, 0.8242030
958.3640, 0.3984680
958.8461, 0.8425750
959.3282, 1.593109
959.8104, 2.159409
960.2925, 2.532089
960.7746, 2.678345
961.2567, 2.556091
961.7388, 2.200485
962.2209, 1.132965
962.7031, 0.3727260
963.1852, 0.8584590
963.6673, 2.524078
964.1494, 3.703949
964.6315, 4.320343
965.1136, 4.694839
965.5958, 5.040970
966.0779, 5.112595
966.5600, 4.016739
967.0421, 2.228149
967.5242, 1.076950
968.0063, 0.9438020
968.4885, 1.531494
968.9706, 3.679276
969.4527, 6.008713
969.9348, 6.930450
970.4169, 6.209564
970.8990, 5.176956
971.3812, 3.860382
971.8633, 2.534775
972.3454, 1.166824
972.8275, 0.1317600
973.3096, 0.2472840
973.7917, 1.559586
974.2739, 2.531631
974.7560, 2.132355
975.2381, 1.835510
975.7202, 2.411621
976.2023, 3.546829
976.6844, 3.459625
977.1666, 2.165771
977.6487, 1.175186
978.1308, 1.164459
978.6129, 1.650177
979.0950, 2.454071
979.5771, 3.317612
980.0593, 3.819458
980.5414, 3.682312
981.0235, 3.373428
981.5056, 2.740631
981.9877, 2.184555
982.4698, 2.246140
982.9520, 2.787292
983.4341, 2.831741
983.9162, 2.323837
984.3983, 1.962006
984.8804, 2.450943
985.3625, 3.103165
985.8447, 3.513367
986.3268, 3.631927
986.8089, 3.344772
987.2910, 2.407562
987.7731, 1.681808
988.2552, 1.491364
988.7374, 1.604980
989.2195, 1.498520
989.7016, 1.311646
990.1837, 1.436569
990.6658, 2.217499
991.1479, 2.899460
991.6301, 3.046341
992.1122, 3.022522
992.5944, 3.239380
993.0765, 3.823120
993.5586, 3.813248
994.0407, 3.149918
994.5228, 2.525986
995.0049, 2.597610
995.4871, 3.000092
995.9692, 3.368042
996.4513, 3.648621
996.9334, 3.653198
997.4155, 2.874527
997.8976, 2.436340
998.3798, 2.727844
998.8619, 3.424774
999.3440, 3.896805
999.8261, 4.144409
1000.308, 4.000137
1000.790, 3.315170
1001.272, 2.600143
1001.755, 2.240250
1002.237, 2.095169
1002.719, 2.033630
1003.201, 2.063431
1003.683, 2.093246
1004.165, 2.120056
1004.647, 2.159988
1005.129, 2.305786
1005.612, 2.459976
1006.094, 2.287125
1006.576, 1.845963
1007.058, 1.392014
1007.540, 0.8579860
1008.022, 0.5546880
1008.504, 0.7328030
1008.986, 1.177124
1009.468, 1.622971
1009.951, 2.120682
1010.433, 2.091003
1010.915, 1.347061
1011.397, 0.5157010
1011.879, 0.3140720
1012.361, 0.4376530
1012.843, 0.5094450
1013.325, 0.4546360
1013.807, 0.5156560
1014.290, 0.7598880
1014.772, 1.080124
1015.254, 1.441193
1015.736, 1.837051
1016.218, 2.514404
1016.700, 3.318268
1017.182, 3.307175
1017.664, 1.180466
1018.147, 0.7384190
1018.629, 0.7857670
1019.111, 0.2506100
1019.593, 1.178665
1020.075, 1.990265
1020.557, 2.565781
1021.039, 2.912201
1021.521, 2.977615
1022.003, 2.545547
1022.486, 1.866547
1022.968, 1.460068
1023.450, 1.313797
1023.932, 0.9598390
1024.414, 0.1943510
1024.896, 1.103516
1025.378, 1.437500
1025.860, 1.303253
1026.343, 0.8949740
1026.825, 0.2452240
1027.307, 0.2286830
1027.789, 0.3007050
1028.271, 0.5290990
1028.753, 1.907471
1029.235, 3.447540
1029.717, 3.951385
1030.199, 2.904053
1030.682, 2.028900
1031.164, 1.212524
1031.646, 0.8757480
1032.128, 1.632507
1032.610, 2.961273
1033.092, 3.407242
1033.574, 3.144608
1034.056, 2.723221
1034.539, 2.347748
1035.021, 1.897385
1035.503, 1.012238
1035.985, 0.2402650
1036.467, 0.6035000
1036.949, 2.153732
1037.431, 2.525620
1037.913, 1.348389
1038.396, 0.1203310
1038.878, 0.3462980
1039.360, 1.030121
1039.842, 1.140991
1040.324, 0.5996860
1040.806, 0.5926060
1041.288, 1.470108
1041.770, 2.221390
1042.252, 2.602844
1042.734, 2.596634
1043.217, 1.755341
1043.699, 0.4624790
1044.181, 0.1185760
1044.663, 0.6568300
1045.145, 1.477798
1045.627, 2.115952
1046.109, 2.350525
1046.591, 1.807297
1047.074, 0.4215550
1047.556, 0.1680450
1048.038, 1.048889
1048.520, 1.797516
1049.002, 1.082413
1049.484, 0.2965390
1049.966, 1.014023
1050.448, 2.634186
1050.931, 3.364502
1051.413, 2.505341
1051.895, 1.971283
1052.377, 2.026627
1052.859, 2.313278
1053.341, 2.487961
1053.823, 2.539856
1054.305, 2.470154
1054.787, 2.215591
1055.270, 1.864212
1055.752, 0.9562680
1056.234, 0.5939030
1056.716, 1.474533
1057.198, 3.167099
1057.680, 3.972900
1058.162, 3.933060
1058.644, 3.683090
1059.126, 3.402039
1059.609, 3.035355
1060.091, 2.445847
1060.573, 1.800964
1061.055, 1.252441
1061.537, 0.7115780
1062.019, 0.7713470
1062.501, 1.558624
1062.983, 2.382675
1063.466, 3.101410
1063.948, 3.603088
1064.430, 3.405716
1064.912, 2.795898
1065.394, 2.630020
1065.876, 4.211594
1066.358, 4.884689
1066.840, 3.838150
1067.323, 2.195938
1067.805, 1.225677
1068.287, 0.8832550
1068.769, 1.037689
1069.251, 1.669144
1069.733, 2.294434
1070.215, 2.593872
1070.697, 2.748047
1071.179, 2.849365
1071.661, 2.897720
1072.144, 2.850616
1072.626, 2.691742
1073.108, 2.572006
1073.590, 2.576309
1074.072, 2.500854
1074.554, 1.846130
1075.036, 1.077942
1075.518, 0.8270870
1076.001, 1.249237
1076.483, 1.891708
1076.965, 3.015182
1077.447, 3.810791
1077.929, 3.775818
1078.411, 3.185608
1078.893, 2.718231
1079.375, 2.375793
1079.858, 2.167694
1080.340, 2.095749
1080.822, 2.150543
1081.304, 2.547882
1081.786, 2.900726
1082.268, 2.694382
1082.750, 1.865952
1083.232, 1.808975
1083.714, 2.577271
1084.197, 3.356461
1084.679, 3.852814
1085.161, 3.857605
1085.643, 2.674164
1086.125, 0.8897550
1086.607, 0.4070430
1087.089, 1.784073
1087.571, 2.702972
1088.054, 2.780609
1088.536, 2.321716
1089.018, 1.199814
1089.500, 2.9372999E-02
1089.982, 0.4656680
1090.464, 7.5380001E-03
1090.946, 0.4472660
1091.428, 0.6181790
1091.911, 0.9657590
1092.393, 1.830902
1092.875, 2.748306
1093.357, 2.310745
1093.839, 0.9715880
1094.321, 0.1908110
1094.803, 0.5343320
1095.285, 0.9474640
1095.767, 1.030945
1096.250, 0.9548950
1096.732, 0.7061460
1097.214, 0.3369900
1097.696, 0.3729710
1098.178, 0.7886810
1098.660, 1.041916
1099.142, 0.7213130
1099.624, 0.2905120
1100.106, 0.1128390
1100.589, 0.3039700
1101.071, 7.4997000E-02
1101.553, 1.374008
1102.035, 2.013733
1102.517, 1.919647
1102.999, 1.585495
1103.481, 1.232285
1103.963, 1.021103
1104.446, 1.224533
1104.928, 1.776459
1105.410, 2.406250
1105.892, 3.377090
1106.374, 3.838745
1106.856, 3.591766
1107.338, 2.956070
1107.820, 2.192078
1108.302, 1.420807
1108.785, 0.8732910
1109.267, 0.5815890
1109.749, 0.5945590
1110.231, 1.582413
1110.713, 2.059525
1111.195, 1.111099
1111.677, 0.4640960
1112.159, 0.1505890
1112.641, 1.708206
1113.124, 2.959808
1113.606, 3.018768
1114.088, 2.634644
1114.570, 1.684692
1115.052, 1.032654
1115.534, 1.696472
1116.016, 3.557816
1116.498, 3.775482
1116.981, 2.285339
1117.463, 1.229202
1117.945, 2.000198
1118.427, 2.874954
1118.909, 1.576721
1119.391, 0.4765010
1119.873, 1.167175
1120.355, 0.2559660
1120.838, 1.469513
1121.320, 2.545944
1121.802, 3.090485
1122.284, 2.400970
1122.766, 1.282303
1123.248, 1.000610
1123.730, 1.303238
1124.212, 1.486694
1124.694, 1.109283
1125.177, 0.9697110
1125.659, 1.158234
1126.141, 1.530029
1126.623, 2.118683
1127.105, 2.732376
1127.587, 2.747208
1128.069, 2.218689
1128.551, 1.788864
1129.033, 1.883133
1129.516, 1.902725
1129.998, 1.451782
1130.480, 1.062149
1130.962, 2.000992
1131.444, 3.893677
1131.926, 4.706635
1132.408, 4.117798
1132.890, 3.368622
1133.373, 3.352371
1133.855, 3.273483
1134.337, 2.509628
1134.819, 1.359802
1135.301, 0.8989410
1135.783, 1.114090
1136.265, 1.569992
1136.747, 2.253326
1137.229, 2.753021
1137.712, 2.715942
1138.194, 2.341812
1138.676, 1.665436
1139.158, 0.7049100
1139.640, 0.1559910
1140.122, 2.7358999E-02
1140.604, 0.2131040
1141.086, 0.8016050
1141.569, 1.437988
1142.051, 1.862030
1142.533, 2.037308
1143.015, 1.879013
1143.497, 1.254379
1143.979, 0.6295780
1144.461, 0.1207890
1144.943, 0.3413240
1145.426, 0.8039700
1145.908, 2.355331
1146.390, 2.694748
1146.872, 2.244690
1147.354, 1.884827
1147.836, 1.787292
1148.318, 2.026001
1148.800, 2.828857
1149.282, 3.352982
1149.765, 2.407410
1150.247, 0.8426670
1150.729, 0.8934780
1151.211, 2.166031
1151.693, 2.849457
1152.175, 1.679276
1152.657, 0.6042020
1153.139, 0.2039640
1153.621, 0.5776670
1154.104, 1.5838999E-02
1154.586, 1.167603
1155.068, 1.542404
1155.550, 1.129105
1156.032, 0.7519680
1156.514, 0.9445190
1156.996, 1.064575
1157.478, 0.8524630
1157.961, 0.4940190
1158.443, 0.3065640
1158.925, 0.3195500
1159.407, 0.5982360
1159.889, 1.159500
1160.371, 1.548630
1160.853, 1.369003
1161.335, 1.053635
1161.818, 0.7441560
1162.300, 0.4946750
1162.782, 0.7017210
1163.264, 1.345917
1163.746, 2.100769
1164.228, 2.977905
1164.710, 3.449326
1165.192, 2.510605
1165.674, 1.574036
1166.156, 1.958023
1166.639, 3.348831
1167.121, 3.571198
1167.603, 2.634537
1168.085, 1.964478
1168.567, 2.123260
1169.049, 2.423782
1169.531, 2.495895
1170.013, 2.409760
1170.496, 2.103073
1170.978, 1.561234
1171.460, 1.169250
1171.942, 0.9237060
1172.424, 0.8309020
1172.906, 0.9361270
1173.388, 1.119919
1173.870, 1.314346
1174.353, 1.488037
1174.835, 1.581573
1175.317, 1.568863
1175.799, 1.620575
1176.281, 1.732239
1176.763, 1.965561
1177.245, 2.438019
1177.727, 2.880203
1178.209, 3.273895
1178.692, 3.421722
1179.174, 3.042969
1179.656, 1.776901
1180.138, 0.9492950
1180.620, 0.5878140
1181.102, 0.4830170
1181.584, 0.6237790
1182.066, 0.8242340
1182.548, 0.7492370
1183.031, 0.5655360
1183.513, 0.7028050
1183.995, 1.558624
1184.477, 1.897919
1184.959, 1.566849
1185.441, 1.133942
1185.923, 1.173874
1186.405, 1.369858
1186.888, 1.143707
1187.370, 0.6721800
1187.852, 0.6616210
1188.334, 1.683243
1188.816, 2.149765
1189.298, 1.799454
1189.780, 1.295944
1190.262, 1.295303
1190.745, 1.570938
1191.227, 1.803818
1191.709, 1.982651
1192.191, 2.168915
1192.673, 2.328873
1193.155, 2.651169
1193.637, 3.303223
1194.119, 3.736664
1194.601, 2.899170
1195.084, 1.614777
1195.566, 1.406616
1196.048, 2.250137
1196.530, 2.576035
1197.012, 1.748734
1197.494, 1.029099
1197.976, 0.5838930
1198.458, 0.5016170
1198.941, 1.073944
1199.423, 2.005249
1199.905, 2.831299
1200.387, 3.501801
1200.869, 4.052490
1201.351, 4.644379
1201.833, 4.774628
1202.315, 4.181458
1202.797, 3.334579
1203.280, 2.854507
1203.762, 2.708282
1204.244, 3.110733
1204.726, 4.150955
1205.208, 4.205963
1205.690, 2.367416
1206.172, 0.8605960
1206.654, 0.3273010
1207.136, 0.4850160
1207.619, 1.130280
1208.101, 1.986359
1208.583, 2.609238
1209.065, 2.932587
1209.547, 2.879395
1210.029, 2.353989
1210.511, 1.641495
1210.993, 0.6159060
1211.476, 0.2436830
1211.958, 0.2450260
1212.440, 1.468567
1212.922, 2.436584
1213.404, 3.002014
1213.886, 3.012192
1214.368, 2.297729
1214.850, 1.484619
1215.333, 0.6994320
1215.815, 0.1656490
1216.297, 0.4724730
1216.779, 1.272903
1217.261, 2.049957
1217.743, 2.895859
1218.225, 2.698502
1218.707, 0.8503270
1219.189, 0.5163880
1219.672, 0.1760410
1220.154, 0.9181980
1220.636, 0.9803620
1221.118, 0.5251460
1221.600, 0.5118870
1222.082, 1.406967
1222.564, 1.912476
1223.046, 1.813263
1223.528, 1.828201
1224.011, 2.624313
1224.493, 3.401566
1224.975, 2.300354
1225.457, 0.3566130
1225.939, 0.6297000
1226.421, 4.4479001E-02
1226.903, 1.150513
1227.385, 3.009369
1227.868, 4.149658
1228.350, 3.379578
1228.832, 1.960953
1229.314, 1.938828
1229.796, 2.608856
1230.278, 2.720444
1230.760, 1.618958
1231.242, 1.251572
1231.724, 1.761017
1232.207, 2.313263
1232.689, 2.398880
1233.171, 2.272339
1233.653, 2.307861
1234.135, 2.351028
1234.617, 2.097565
1235.099, 1.340302
1235.581, 0.8661350
1236.063, 0.6751860
1236.546, 0.7944640
1237.028, 1.639954
1237.510, 2.396194
1237.992, 1.873718
1238.474, 0.8001860
1238.956, 0.4673160
1239.438, 1.222931
1239.920, 1.312668
1240.403, 0.6533810
1240.885, 0.4293820
1241.367, 1.990952
1241.849, 3.696198
1242.331, 4.082062
1242.813, 3.672165
1243.295, 3.277466
1243.777, 2.987885
1244.260, 2.238022
1244.742, 1.020691
1245.224, 8.1023999E-02
1245.706, 0.1334530
1246.188, 0.3544010
1246.670, 0.1803280
1247.152, 0.1502530
1247.634, 0.3446960
1248.116, 0.4140630
1248.599, 0.1536410
1249.081, 0.4222110
1249.563, 1.101807
1250.045, 2.034470
1250.527, 2.707321
1251.009, 2.725113
1251.491, 2.421692
1251.973, 1.994461
1252.455, 1.469162
1252.938, 1.767441
1253.420, 2.753647
1253.902, 3.323608
1254.384, 2.371384
1254.866, 1.534576
1255.348, 1.517792
1255.830, 1.767212
1256.313, 1.801102
1256.795, 1.673569
1257.277, 1.800385
1257.759, 2.139618
1258.241, 2.189453
1258.723, 1.430374
1259.205, 0.7422030
1259.687, 9.3750000E-02
1260.169, 0.1369170
1260.651, 0.6875000
1261.134, 2.067505
1261.616, 2.709488
1262.098, 2.692032
1262.580, 2.380463
1263.062, 1.619766
1263.544, 0.9934840
1264.026, 0.4701390
1264.508, 0.1909330
1264.991, 0.7773740
1265.473, 1.639481
1265.955, 1.567078
1266.437, 0.9175110
1266.919, 0.6559300
1267.401, 1.424683
1267.883, 1.857559
1268.365, 1.878571
1268.848, 1.796799
1269.330, 1.959427
1269.812, 2.069061
1270.294, 1.449829
1270.776, 1.757446
1271.258, 1.798416
1271.740, 1.626465
1272.222, 2.035934
1272.704, 1.537094
1273.187, 1.140564
1273.669, 2.001678
1274.151, 2.811111
1274.633, 1.924866
1275.115, 0.4474790
1275.597, 0.2210690
1276.079, 1.745804
1276.561, 2.578873
1277.043, 2.683212
1277.526, 2.567215
1278.008, 2.496567
1278.490, 2.349396
1278.972, 1.907333
1279.454, 1.470520
1279.936, 1.374466
1280.418, 1.606842
1280.900, 1.762665
1281.383, 1.824921
1281.865, 1.777313
1282.347, 1.706940
1282.829, 1.557770
1283.311, 1.325714
1283.793, 0.9912720
1284.275, 0.3083340
1284.757, 0.4440610
1285.240, 0.3474430
1285.722, 2.179520
1286.204, 3.385620
1286.686, 3.106644
1287.168, 2.460831
1287.650, 1.318390
1288.132, 0.5241550
1288.614, 0.9421690
1289.096, 1.906891
1289.578, 2.028229
1290.061, 1.667252
1290.543, 1.570389
1291.025, 2.274063
1291.507, 2.266907
1291.989, 1.385086
1292.471, 0.5383910
1292.953, 0.1908260
1293.435, 0.2150270
1293.918, 0.3145750
1294.400, 0.8514710
1294.882, 1.708389
1295.364, 2.995972
1295.846, 3.235611
1296.328, 2.409927
1296.810, 1.834763
1297.292, 2.446625
1297.775, 2.905762
1298.257, 1.735535
1298.739, 0.3575440
1299.221, 3.4317002E-02
1299.703, 0.6210480
1300.185, 0.6374360
1300.667, 0.2035830
1301.149, 1.4252000E-02
1301.631, 0.4988400
1302.114, 0.4449160
1302.596, 0.0000000E+00
##END=



