##NAMES=Grandidierite
##RRUFFID=R050196
##IDEAL CHEMISTRY=MgAl_3_O_2_(BO_3_)SiO_4_
##LOCALITY=Madagascar
##OWNER=RRUFF
##SOURCE=Marcus Origlieri
##DESCRIPTION=Aggregate of anhedral blue-green crystals
##STATUS=The identification of this mineral has been confirmed by X-ray diffraction and chemical analysis
##URL=rruff.info/R050196
##MEASURED CHEMISTRY=(Mg_0.829_Fe^2+^_0.169_Mn_0.002_)Al_3_(BO_3_)(SiO_4_)O_2_
144.8797, 0.0000000E+00
145.3619, 0.1963500
145.8440, 0.1802980
146.3261, 0.3052370
146.8082, 1.312866
147.2903, 3.004883
147.7724, 4.812134
148.2546, 6.361694
148.7367, 6.910461
149.2188, 8.262085
149.7009, 10.85486
150.1830, 14.58752
150.6651, 17.89307
151.1473, 20.57928
151.6294, 23.00409
152.1115, 25.38519
152.5936, 27.30902
153.0757, 29.58691
153.5578, 32.09259
154.0400, 34.76044
154.5221, 38.44543
155.0042, 43.41937
155.4863, 49.31940
155.9684, 55.81256
156.4505, 62.12073
156.9327, 69.86884
157.4148, 79.32672
157.8969, 90.18701
158.3790, 103.1445
158.8611, 120.8185
159.3432, 140.0156
159.8254, 157.2174
160.3075, 177.8673
160.7896, 191.2025
161.2717, 192.1996
161.7538, 179.4142
162.2359, 161.1006
162.7181, 135.3354
163.2002, 106.6069
163.6823, 81.32281
164.1644, 61.96826
164.6465, 46.52753
165.1286, 34.18420
165.6108, 24.96893
166.0929, 18.13440
166.5750, 13.99255
167.0571, 11.91156
167.5392, 10.68372
168.0213, 9.990601
168.5035, 9.962341
168.9856, 10.71173
169.4677, 11.62091
169.9498, 12.51337
170.4319, 14.75806
170.9140, 16.96240
171.3962, 17.65631
171.8783, 15.52954
172.3604, 12.32532
172.8425, 9.992615
173.3246, 8.964661
173.8067, 8.601868
174.2889, 8.739075
174.7710, 9.255310
175.2531, 9.662903
175.7352, 9.468018
176.2173, 9.045532
176.6994, 8.961731
177.1816, 9.500122
177.6637, 10.09155
178.1458, 10.05414
178.6279, 9.477295
179.1100, 8.800232
179.5921, 8.085449
180.0743, 7.487244
180.5564, 7.382935
181.0385, 8.048889
181.5206, 8.934814
182.0027, 9.215210
182.4848, 8.934143
182.9670, 8.526733
183.4491, 8.374939
183.9312, 8.349670
184.4133, 8.076965
184.8954, 7.394348
185.3775, 6.506653
185.8597, 5.726074
186.3418, 5.055115
186.8239, 4.491211
187.3060, 4.158142
187.7881, 3.972107
188.2702, 3.556824
188.7523, 2.749084
189.2345, 1.719238
189.7166, 0.8759160
190.1987, 0.2290650
190.6808, 0.3884280
191.1629, 1.101196
191.6451, 1.897583
192.1272, 2.791016
192.6093, 3.951599
193.0914, 5.127808
193.5735, 5.435608
194.0556, 4.781067
194.5378, 3.880676
195.0199, 3.587952
195.5020, 3.861328
195.9841, 3.578064
196.4662, 2.215210
196.9483, 0.1218870
197.4305, 1.118896
197.9126, 1.343262
198.3947, 1.337036
198.8768, 1.918396
199.3589, 3.101440
199.8410, 4.178833
200.3232, 4.827148
200.8053, 5.181702
201.2874, 6.205383
201.7695, 8.012512
202.2516, 10.11340
202.7337, 12.36780
203.2159, 14.59351
203.6980, 16.33234
204.1801, 17.22717
204.6622, 17.43250
205.1443, 18.62640
205.6264, 21.16931
206.1086, 23.87701
206.5907, 25.25043
207.0728, 24.91351
207.5549, 25.22705
208.0370, 26.98303
208.5191, 30.07166
209.0013, 32.54004
209.4834, 34.21899
209.9655, 35.60370
210.4476, 37.15588
210.9297, 38.82367
211.4118, 40.87341
211.8940, 43.65845
212.3761, 47.14240
212.8582, 49.47693
213.3403, 50.42438
213.8224, 50.62183
214.3045, 50.65710
214.7867, 50.43860
215.2688, 50.35132
215.7509, 50.49341
216.2330, 50.85968
216.7151, 51.27051
217.1972, 51.66211
217.6794, 52.17090
218.1615, 52.91113
218.6436, 53.84998
219.1257, 55.12561
219.6078, 56.94922
220.0899, 59.33844
220.5721, 60.78345
221.0542, 60.80023
221.5363, 60.44116
222.0184, 60.80353
222.5005, 62.14069
222.9826, 63.62811
223.4648, 65.12177
223.9469, 66.64618
224.4290, 68.03430
224.9111, 69.29883
225.3932, 70.43793
225.8753, 71.38818
226.3575, 71.83258
226.8396, 72.82263
227.3217, 74.97156
227.8038, 78.35339
228.2859, 79.86542
228.7680, 78.63098
229.2502, 76.54083
229.7323, 75.56744
230.2144, 76.80609
230.6965, 76.89447
231.1786, 74.97546
231.6607, 71.06116
232.1429, 67.31281
232.6250, 63.69489
233.1071, 60.31653
233.5892, 57.23566
234.0713, 54.25281
234.5534, 51.91711
235.0356, 50.46448
235.5177, 49.87622
235.9998, 49.33838
236.4819, 48.53143
236.9640, 48.10516
237.4461, 48.64105
237.9283, 50.44519
238.4104, 52.60144
238.8925, 55.07861
239.3746, 57.86572
239.8567, 60.51074
240.3388, 63.11627
240.8210, 65.47357
241.3031, 67.55383
241.7852, 69.93774
242.2673, 70.87781
242.7494, 70.18677
243.2315, 67.84955
243.7137, 63.67871
244.1958, 56.50897
244.6779, 48.91064
245.1600, 42.68353
245.6421, 38.17212
246.1242, 34.33826
246.6064, 31.14526
247.0885, 28.55054
247.5706, 26.30109
248.0527, 24.36957
248.5348, 22.84106
249.0169, 21.78967
249.4990, 21.24280
249.9812, 21.13336
250.4633, 21.70972
250.9454, 22.74048
251.4275, 23.08051
251.9096, 22.28589
252.3917, 21.60645
252.8739, 21.86047
253.3560, 23.76337
253.8381, 24.69452
254.3202, 24.01544
254.8023, 22.41089
255.2844, 22.24030
255.7666, 24.04144
256.2487, 26.30487
256.7308, 28.10492
257.2129, 29.19342
257.6950, 30.28589
258.1772, 31.39447
258.6593, 32.62775
259.1414, 34.24597
259.6235, 36.39966
260.1056, 38.46057
260.5877, 40.17365
261.0699, 41.34650
261.5520, 42.70398
262.0341, 44.20233
262.5162, 45.92450
262.9983, 48.25177
263.4804, 51.62738
263.9626, 54.59100
264.4447, 56.32092
264.9268, 56.36749
265.4089, 57.39417
265.8910, 59.85425
266.3731, 62.88409
266.8553, 64.98596
267.3374, 65.85291
267.8195, 66.63843
268.3016, 68.03088
268.7837, 70.32190
269.2658, 70.70392
269.7480, 68.62366
270.2301, 65.40643
270.7122, 63.20081
271.1943, 62.55634
271.6764, 60.84650
272.1585, 56.79163
272.6407, 50.38354
273.1228, 45.29254
273.6049, 41.70233
274.0870, 39.13245
274.5691, 37.20532
275.0512, 36.08539
275.5334, 34.73785
276.0155, 32.73322
276.4976, 30.17139
276.9797, 28.25873
277.4618, 27.15692
277.9439, 26.26776
278.4261, 24.99078
278.9081, 23.30267
279.3903, 21.60870
279.8724, 20.10193
280.3545, 18.68164
280.8366, 16.58002
281.3187, 13.60199
281.8008, 10.84552
282.2830, 9.476196
282.7651, 9.527466
283.2472, 9.302734
283.7293, 8.515930
284.2114, 7.250854
284.6935, 5.527771
285.1757, 3.247009
285.6578, 1.343628
286.1399, 0.7210080
286.6220, 1.271179
287.1041, 1.619141
287.5862, 1.575317
288.0684, 1.251648
288.5505, 0.8153080
289.0326, 0.2600710
289.5147, 0.2617800
289.9968, 0.7971800
290.4789, 1.275879
290.9611, 1.196594
291.4432, 0.4114990
291.9253, 0.6525880
292.4074, 1.422852
292.8895, 1.905823
293.3716, 2.085144
293.8538, 1.797607
294.3359, 1.194641
294.8180, 0.7169190
295.3001, 0.3750000
295.7822, 0.2324220
296.2643, 0.4585570
296.7465, 0.9931640
297.2286, 1.548645
297.7107, 1.731628
298.1928, 1.911377
298.6749, 3.030090
299.1570, 5.143066
299.6392, 7.423218
300.1213, 9.176575
300.6034, 10.45007
301.0855, 11.25470
301.5676, 11.34607
302.0497, 11.14514
302.5319, 11.26855
303.0140, 11.70001
303.4961, 12.15466
303.9782, 12.44336
304.4603, 12.59210
304.9424, 12.67432
305.4246, 12.73370
305.9067, 12.69165
306.3888, 12.28284
306.8709, 11.61072
307.3530, 11.19305
307.8351, 11.51031
308.3173, 12.21851
308.7994, 13.04065
309.2815, 14.26556
309.7636, 14.88281
310.2457, 13.78552
310.7278, 11.40204
311.2100, 8.904114
311.6921, 6.936096
312.1742, 5.106934
312.6563, 2.935974
313.1384, 9.1370001E-02
313.6205, 2.068359
314.1027, 2.166931
314.5848, 1.106445
315.0669, 0.4627080
315.5490, 1.616089
316.0311, 2.838928
316.5132, 2.940979
316.9954, 1.721008
317.4775, 0.5563960
317.9596, 0.2073360
318.4417, 0.1928710
318.9238, 3.7415002E-02
319.4059, 0.7506710
319.8881, 1.599670
320.3702, 2.454773
320.8523, 3.307007
321.3344, 4.167480
321.8165, 5.145691
322.2986, 6.062378
322.7808, 6.782104
323.2629, 6.921204
323.7450, 7.248718
324.2271, 7.857239
324.7092, 8.764404
325.1913, 10.06024
325.6735, 12.07935
326.1556, 14.29456
326.6377, 16.54883
327.1198, 19.28918
327.6019, 21.33588
328.0840, 22.02893
328.5662, 21.87268
329.0483, 22.28748
329.5304, 23.66235
330.0125, 25.48041
330.4946, 27.66327
330.9767, 30.37140
331.4589, 32.61926
331.9410, 33.88800
332.4231, 34.93463
332.9052, 36.82678
333.3873, 40.08179
333.8694, 43.39429
334.3516, 46.25751
334.8337, 48.60217
335.3158, 51.87048
335.7979, 56.18909
336.2800, 61.10895
336.7621, 66.08301
337.2443, 70.62012
337.7264, 76.68677
338.2085, 84.96783
338.6906, 95.07672
339.1727, 105.2657
339.6548, 115.6035
340.1370, 125.9341
340.6191, 136.6443
341.1012, 147.7796
341.5833, 157.9385
342.0654, 167.6329
342.5475, 175.4813
343.0297, 178.4688
343.5118, 176.5941
343.9939, 169.7551
344.4760, 156.1599
344.9581, 136.5410
345.4402, 117.7592
345.9224, 100.0118
346.4045, 83.55939
346.8866, 68.72717
347.3687, 55.46680
347.8508, 44.88385
348.3329, 38.08002
348.8151, 34.15668
349.2972, 30.75293
349.7793, 27.87122
350.2614, 25.30280
350.7435, 22.66284
351.2256, 20.19885
351.7078, 18.65277
352.1899, 18.56921
352.6720, 19.14825
353.1541, 19.20050
353.6362, 18.84375
354.1183, 18.77582
354.6005, 19.51489
355.0826, 20.81689
355.5647, 22.38977
356.0468, 24.21716
356.5289, 26.18787
357.0110, 27.90948
357.4932, 29.69299
357.9753, 32.27228
358.4574, 36.99573
358.9395, 42.03931
359.4216, 45.80231
359.9037, 48.05927
360.3859, 50.00385
360.8680, 52.30554
361.3501, 54.66174
361.8322, 56.69049
362.3143, 59.41125
362.7964, 60.72028
363.2786, 59.24908
363.7607, 55.18658
364.2428, 50.71820
364.7249, 46.09772
365.2070, 41.65497
365.6891, 37.62323
366.1713, 33.91986
366.6534, 30.77740
367.1355, 28.37433
367.6176, 26.59167
368.0997, 25.12671
368.5818, 23.46039
369.0640, 22.53455
369.5461, 22.82599
370.0282, 24.98358
370.5103, 26.85248
370.9924, 28.05841
371.4745, 29.07477
371.9567, 30.75690
372.4388, 33.55292
372.9209, 36.46118
373.4030, 39.20117
373.8851, 41.75153
374.3672, 44.68353
374.8494, 49.09015
375.3315, 52.59821
375.8136, 53.02216
376.2957, 49.61737
376.7778, 45.42053
377.2599, 40.50830
377.7421, 35.16217
378.2242, 30.36597
378.7063, 26.21130
379.1884, 22.34058
379.6705, 18.60376
380.1526, 14.96906
380.6348, 11.49634
381.1169, 8.094666
381.5990, 5.114502
382.0811, 3.251526
382.5632, 2.461060
383.0453, 1.673157
383.5275, 0.3421020
384.0096, 1.258118
384.4917, 2.389893
384.9738, 3.045105
385.4559, 3.187012
385.9380, 2.180115
386.4202, 0.6070560
386.9023, 7.6843001E-02
387.3844, 1.458069
387.8665, 3.314758
388.3486, 3.864929
388.8307, 3.337646
389.3129, 2.645508
389.7950, 2.266235
390.2771, 2.049988
390.7592, 1.865112
391.2413, 1.712585
391.7234, 1.533569
392.2056, 1.644104
392.6877, 1.649597
393.1698, -0.4245291
393.6519, 0.7202210
394.1340, 1.295491
394.6161, 1.341002
395.0983, -1.235779
395.5804, -3.9455384E-02
396.0625, -0.1186803
396.5446, -8.8277280E-02
397.0267, 2.121934
397.5089, 0.7956794
397.9910, 3.311721
398.4731, 4.530252
398.9552, 6.588727
399.4373, 7.362737
399.9194, 7.163025
400.4016, 7.002075
400.8837, 7.038879
401.3658, 7.253845
401.8479, 7.739990
402.3300, 8.764648
402.8121, 9.891418
403.2942, 10.48163
403.7763, 9.793152
404.2585, 10.05054
404.7406, 12.08685
405.2227, 15.66467
405.7048, 18.01569
406.1869, 18.62634
406.6690, 19.12207
407.1512, 20.97803
407.6333, 24.50275
408.1154, 26.64636
408.5975, 26.74335
409.0796, 25.87006
409.5617, 26.18091
410.0439, 27.69806
410.5260, 29.31775
411.0081, 30.63086
411.4902, 31.61664
411.9723, 32.00256
412.4544, 31.67578
412.9366, 31.67090
413.4187, 33.06219
413.9008, 35.62140
414.3829, 38.71820
414.8650, 42.50507
415.3471, 46.38788
415.8293, 48.86346
416.3114, 50.44171
416.7935, 53.40771
417.2756, 60.13544
417.7577, 68.54065
418.2398, 76.21234
418.7220, 82.62921
419.2041, 89.46014
419.6862, 97.70209
420.1683, 107.1825
420.6504, 117.3544
421.1325, 128.9401
421.6147, 140.6183
422.0968, 152.2917
422.5789, 163.9774
423.0610, 174.0066
423.5431, 183.7102
424.0252, 190.5755
424.5074, 193.0755
424.9895, 189.7184
425.4716, 183.5119
425.9537, 173.7300
426.4358, 161.2100
426.9179, 147.6926
427.4001, 131.4256
427.8822, 116.0780
428.3643, 102.4547
428.8464, 90.42023
429.3285, 81.19995
429.8106, 75.52661
430.2928, 71.71875
430.7749, 68.05566
431.2570, 64.34473
431.7391, 61.76294
432.2212, 60.73938
432.7033, 60.85321
433.1855, 60.74036
433.6676, 60.34314
434.1497, 60.23083
434.6318, 60.52155
435.1139, 61.31378
435.5960, 63.36786
436.0782, 66.87909
436.5603, 70.99438
437.0424, 74.53583
437.5245, 77.76019
438.0066, 81.52252
438.4887, 86.47760
438.9709, 91.86737
439.4530, 96.90460
439.9351, 101.5764
440.4172, 105.6105
440.8993, 109.5240
441.3814, 112.4294
441.8636, 113.3961
442.3457, 112.3572
442.8278, 109.2414
443.3099, 103.6453
443.7920, 96.10913
444.2741, 87.31793
444.7563, 75.87317
445.2384, 64.60345
445.7205, 54.42035
446.2026, 45.44946
446.6847, 37.81732
447.1668, 32.07324
447.6490, 27.38733
448.1311, 23.25287
448.6132, 19.39441
449.0953, 16.46899
449.5774, 14.87903
450.0595, 14.12708
450.5417, 13.22552
451.0238, 12.15460
451.5059, 11.13226
451.9880, 10.10266
452.4701, 9.050476
452.9522, 8.206299
453.4344, 7.587158
453.9165, 7.104187
454.3986, 6.637451
454.8807, 6.174133
455.3628, 5.994751
455.8449, 6.265808
456.3271, 6.656006
456.8092, 6.446106
457.2913, 5.669373
457.7734, 4.801819
458.2555, 3.881714
458.7376, 3.090210
459.2198, 2.881531
459.7019, 3.293640
460.1840, 3.938354
460.6661, 4.628235
461.1482, 5.300720
461.6303, 5.901184
462.1125, 6.486206
462.5946, 6.946472
463.0767, 6.831421
463.5588, 6.381653
464.0409, 6.378967
464.5230, 7.665222
465.0052, 9.257996
465.4873, 10.58307
465.9694, 11.51373
466.4515, 12.40271
466.9336, 13.19586
467.4157, 13.99677
467.8979, 14.90790
468.3800, 15.97589
468.8621, 17.13995
469.3442, 18.50128
469.8263, 19.90698
470.3084, 20.96082
470.7906, 21.25385
471.2727, 21.82306
471.7548, 23.21527
472.2369, 25.63153
472.7190, 27.64276
473.2011, 29.13861
473.6833, 30.53906
474.1654, 32.50775
474.6475, 35.09283
475.1296, 37.20044
475.6117, 38.59320
476.0938, 39.34698
476.5760, 39.41772
477.0581, 38.84814
477.5402, 38.27875
478.0223, 38.26849
478.5044, 38.48248
478.9865, 38.12946
479.4687, 37.09253
479.9508, 36.18054
480.4329, 35.88354
480.9150, 36.23413
481.3971, 37.31824
481.8792, 39.66052
482.3614, 42.22260
482.8435, 44.25800
483.3256, 45.98346
483.8077, 48.03845
484.2898, 50.93481
484.7719, 53.99451
485.2541, 56.78339
485.7362, 59.03967
486.2183, 61.87799
486.7004, 66.20074
487.1825, 70.76483
487.6646, 74.48621
488.1468, 77.37476
488.6289, 79.27631
489.1110, 80.23511
489.5931, 80.17401
490.0752, 78.80676
490.5573, 75.96509
491.0395, 72.19324
491.5216, 67.49878
492.0037, 61.81744
492.4858, 56.29346
492.9679, 50.85040
493.4500, 45.62195
493.9322, 40.76422
494.4143, 36.25024
494.8964, 32.20135
495.3785, 28.62036
495.8606, 25.46075
496.3427, 22.72894
496.8249, 20.36963
497.3070, 18.12915
497.7891, 15.72223
498.2712, 13.45599
498.7533, 11.65204
499.2354, 10.30951
499.7176, 7.255615
500.1997, 7.659058
500.6818, 7.717102
501.1639, 7.450867
501.6460, 5.735962
502.1281, 6.008362
502.6103, 5.555359
503.0924, 5.121338
503.5745, 5.819214
504.0566, 4.577454
504.5387, 5.361084
505.0208, 5.407837
505.5030, 5.866455
505.9851, 5.595093
506.4672, 5.615784
506.9493, 6.468750
507.4314, 6.940002
507.9135, 9.333069
508.3957, 11.14941
508.8778, 11.95111
509.3599, 12.23486
509.8420, 13.01471
510.3241, 14.26361
510.8062, 14.86749
511.2884, 14.07428
511.7705, 12.49683
512.2526, 11.59418
512.7347, 11.32733
513.2168, 11.31421
513.6989, 11.75263
514.1810, 12.10132
514.6631, 11.45276
515.1453, 9.502869
515.6274, 7.435852
516.1095, 5.997559
516.5916, 4.942383
517.0737, 3.940308
517.5558, 3.033630
518.0380, 2.010803
518.5201, 0.6854250
519.0022, 0.8585820
519.4843, 2.228027
519.9664, 3.702820
520.4485, 4.657349
520.9307, 4.705627
521.4128, 3.504272
521.8949, 2.847595
522.3770, 2.990356
522.8591, 3.401672
523.3412, 3.604553
523.8234, 3.596191
524.3055, 3.371704
524.7876, 2.873108
525.2697, 2.215515
525.7518, 1.759033
526.2339, 1.497437
526.7161, 0.9779660
527.1982, 0.4170530
527.6803, 2.182495
528.1624, 2.815247
528.6445, 2.350586
529.1266, 1.840820
529.6088, 1.981567
530.0909, 2.637878
530.5730, 3.738403
531.0551, 5.532288
531.5372, 7.035278
532.0193, 7.235962
532.5015, 6.857361
532.9836, 7.019531
533.4657, 8.688599
533.9478, 10.32904
534.4299, 11.35822
534.9120, 11.82898
535.3942, 12.48596
535.8763, 13.65076
536.3584, 14.75256
536.8405, 15.53754
537.3226, 15.93542
537.8047, 16.26593
538.2869, 16.39569
538.7690, 16.65771
539.2511, 17.68536
539.7332, 19.62793
540.2153, 20.65625
540.6974, 20.16138
541.1796, 18.93994
541.6617, 18.53961
542.1438, 18.92163
542.6259, 19.64899
543.1080, 20.43542
543.5901, 21.43658
544.0723, 23.10779
544.5544, 25.39673
545.0365, 27.53375
545.5186, 28.73743
546.0007, 29.59656
546.4828, 30.77283
546.9650, 32.60168
547.4471, 34.21588
547.9292, 35.40234
548.4113, 36.12384
548.8934, 36.32843
549.3755, 35.23511
549.8577, 34.49585
550.3398, 34.89429
550.8219, 36.06256
551.3040, 35.92023
551.7861, 33.51447
552.2682, 31.35730
552.7504, 30.79279
553.2325, 32.03833
553.7146, 32.05518
554.1967, 30.48767
554.6788, 28.75940
555.1609, 28.40454
555.6431, 29.27869
556.1252, 30.27728
556.6073, 31.22095
557.0894, 32.18591
557.5715, 33.34491
558.0536, 34.62732
558.5358, 35.82025
559.0179, 36.47589
559.5000, 37.25305
559.9821, 38.71198
560.4642, 40.80585
560.9464, 43.17426
561.4285, 45.82208
561.9106, 48.56696
562.3927, 51.22552
562.8748, 53.68555
563.3569, 56.37634
563.8391, 59.58093
564.3212, 62.89777
564.8033, 65.99054
565.2854, 68.68103
565.7675, 71.45813
566.2496, 74.21619
566.7318, 77.24005
567.2139, 81.15057
567.6960, 86.04272
568.1781, 91.45660
568.6602, 97.20990
569.1423, 103.3529
569.6245, 109.8021
570.1066, 116.6501
570.5887, 123.8308
571.0708, 131.3716
571.5529, 139.3793
572.0350, 148.0450
572.5172, 157.5537
572.9993, 167.3627
573.4814, 177.4537
573.9635, 187.4665
574.4456, 196.8331
574.9277, 205.6780
575.4099, 213.5730
575.8920, 221.1813
576.3741, 227.8209
576.8562, 231.6337
577.3383, 231.7616
577.8204, 229.9123
578.3026, 226.7882
578.7847, 222.4738
579.2668, 214.8629
579.7489, 203.1365
580.2310, 189.6704
580.7131, 175.9640
581.1953, 162.1215
581.6774, 148.6742
582.1595, 135.6852
582.6416, 123.2800
583.1237, 111.6943
583.6058, 100.9218
584.0880, 90.92108
584.5701, 81.78772
585.0522, 73.47919
585.5343, 65.78735
586.0164, 58.75427
586.4985, 52.61389
586.9807, 47.70416
587.4628, 43.40936
587.9449, 39.52832
588.4270, 36.04810
588.9091, 32.91437
589.3912, 30.38300
589.8734, 27.99158
590.3555, 25.40112
590.8376, 22.28918
591.3197, 20.23511
591.8018, 19.70233
592.2839, 19.61407
592.7661, 18.74554
593.2482, 16.98706
593.7303, 15.57159
594.2124, 14.73523
594.6945, 14.23694
595.1766, 13.67822
595.6588, 13.06427
596.1409, 12.43683
596.6230, 11.64893
597.1051, 10.96124
597.5872, 10.84088
598.0693, 11.17413
598.5515, 11.38318
599.0336, 10.92755
599.5157, 10.40149
599.9978, 10.21454
600.4799, 10.44971
600.9620, 10.79254
601.4442, 11.48010
601.9263, 12.05621
602.4084, 12.16571
602.8905, 11.50909
603.3726, 10.95471
603.8547, 10.50751
604.3369, 10.20264
604.8190, 10.07373
605.3011, 10.10492
605.7832, 10.49737
606.2653, 11.47107
606.7474, 12.67657
607.2296, 13.12817
607.7117, 12.92230
608.1938, 12.79083
608.6759, 13.21594
609.1580, 13.92761
609.6401, 14.56091
610.1223, 15.10724
610.6044, 15.73291
611.0865, 16.82568
611.5686, 17.84772
612.0507, 18.35211
612.5328, 18.13892
613.0150, 17.79871
613.4971, 17.58325
613.9792, 17.21783
614.4613, 16.34332
614.9434, 14.18146
615.4255, 13.15051
615.9077, 13.98590
616.3898, 15.70898
616.8719, 16.01880
617.3540, 14.77576
617.8361, 13.67554
618.3182, 13.56787
618.8004, 13.90424
619.2825, 13.13000
619.7646, 11.36804
620.2467, 9.711121
620.7288, 9.090454
621.2109, 8.825073
621.6931, 8.161560
622.1752, 7.029846
622.6573, 5.700806
623.1394, 3.652100
623.6215, 1.856079
624.1036, 1.178345
624.5858, 2.593323
625.0679, 3.484497
625.5500, 3.417786
626.0321, 2.816040
626.5142, 2.061584
626.9963, 0.8997190
627.4785, 0.3303830
627.9606, 0.8300780
628.4427, 1.721497
628.9248, 1.109680
629.4069, 1.008606
629.8890, 2.802856
630.3712, 3.504761
630.8533, 3.390869
631.3354, 2.702820
631.8175, 1.547913
632.2996, 0.6371460
632.7817, 0.6095580
633.2639, 0.9004520
633.7460, 1.054077
634.2281, 1.020325
634.7102, 0.8848270
635.1923, 0.3818360
635.6744, 2.2095000E-02
636.1566, 9.3139999E-02
636.6387, 1.675232
637.1208, 1.987427
637.6029, 0.2930300
638.0850, 2.006714
638.5671, 2.993652
639.0493, 2.455322
639.5314, 2.500549
640.0135, 3.461121
640.4956, 4.907471
640.9777, 6.256287
641.4598, 7.510010
641.9420, 8.547485
642.4241, 9.040283
642.9062, 9.519470
643.3883, 10.70361
643.8704, 12.48755
644.3525, 14.34845
644.8347, 15.77252
645.3168, 17.41724
645.7989, 19.94189
646.2810, 23.49939
646.7631, 26.49176
647.2452, 27.87677
647.7274, 29.28339
648.2095, 31.65472
648.6916, 35.55811
649.1737, 38.56598
649.6558, 40.23694
650.1379, 41.89209
650.6201, 45.08978
651.1022, 49.76562
651.5843, 54.63074
652.0664, 59.36804
652.5485, 64.42218
653.0306, 70.20795
653.5128, 76.65131
653.9949, 83.65747
654.4770, 91.50677
654.9591, 99.49152
655.4412, 107.5685
655.9233, 115.5212
656.4055, 122.8248
656.8876, 129.1623
657.3697, 134.8896
657.8518, 140.5416
658.3339, 146.0247
658.8160, 149.6444
659.2982, 151.8782
659.7803, 151.3160
660.2624, 146.8523
660.7445, 138.4932
661.2266, 128.6428
661.7087, 117.1897
662.1909, 104.9999
662.6730, 92.07812
663.1551, 79.11005
663.6372, 67.63513
664.1193, 57.88043
664.6014, 49.52698
665.0836, 42.63245
665.5657, 36.77045
666.0478, 31.43408
666.5299, 26.73401
667.0120, 22.23389
667.4941, 17.28522
667.9763, 12.62384
668.4584, 9.649231
668.9405, 9.402161
669.4226, 8.792725
669.9047, 7.000732
670.3868, 4.569946
670.8690, 3.252014
671.3511, 3.084778
671.8332, 3.377563
672.3153, 4.130188
672.7974, 4.971497
673.2795, 4.997620
673.7617, 4.299194
674.2438, 3.540771
674.7259, 2.934753
675.2080, 2.609253
675.6901, 2.793457
676.1722, 3.537231
676.6544, 4.189453
677.1365, 4.359009
677.6186, 4.520508
678.1007, 5.031494
678.5828, 6.173401
679.0649, 6.892090
679.5471, 7.016968
680.0292, 6.967407
680.5113, 7.069702
680.9934, 7.320496
681.4755, 8.035461
681.9576, 9.274780
682.4398, 10.94208
682.9219, 13.34204
683.4040, 16.07684
683.8861, 17.95935
684.3682, 18.31549
684.8503, 18.18774
685.3325, 18.48517
685.8146, 18.84540
686.2967, 18.52509
686.7788, 16.85291
687.2609, 14.87170
687.7430, 12.85968
688.2252, 10.82581
688.7073, 8.337463
689.1894, 4.539734
689.6715, 2.399536
690.1536, 3.907227
690.6357, 8.125183
691.1179, 8.574890
691.6000, 5.157593
692.0821, 1.641235
692.5642, 0.7562260
693.0463, 1.379028
693.5284, 1.587708
694.0106, 1.255249
694.4927, 0.8482060
694.9748, 1.240723
695.4569, 1.596680
695.9390, 0.8533330
696.4211, 1.840698
696.9033, 3.484436
697.3854, 3.045593
697.8675, 1.902100
698.3496, 1.094482
698.8317, 0.7401120
699.3138, 0.3856810
699.7960, 5.8655001E-02
700.2781, 0.3593140
700.7602, 0.9590450
701.2423, 1.763184
701.7244, 3.039185
702.2065, 5.096252
702.6887, 7.069458
703.1708, 7.765991
703.6529, 7.670349
704.1350, 7.688171
704.6171, 8.465759
705.0992, 9.140198
705.5814, 9.219055
706.0635, 8.935547
706.5456, 8.982483
707.0277, 9.709656
707.5098, 10.30157
707.9919, 10.30597
708.4741, 10.02612
708.9562, 11.35907
709.4383, 14.55304
709.9204, 17.16840
710.4025, 17.37769
710.8846, 16.23828
711.3667, 16.63239
711.8488, 18.39539
712.3309, 20.24829
712.8130, 21.73334
713.2952, 22.66699
713.7773, 22.68481
714.2594, 21.72034
714.7415, 21.00732
715.2236, 21.16022
715.7057, 21.46069
716.1879, 21.58783
716.6700, 21.68536
717.1521, 20.92999
717.6342, 18.91461
718.1163, 16.89923
718.5984, 16.42999
719.0806, 17.26709
719.5627, 16.75311
720.0448, 14.42035
720.5269, 12.00409
721.0090, 11.48541
721.4911, 12.01123
721.9733, 12.24182
722.4554, 11.81750
722.9375, 11.02722
723.4196, 9.624329
723.9017, 8.074158
724.3839, 6.951416
724.8660, 6.699890
725.3481, 6.376465
725.8302, 5.998840
726.3123, 5.519043
726.7944, 4.683472
727.2766, 3.341492
727.7587, 2.351563
728.2408, 2.075989
728.7229, 2.204163
729.2050, 2.077759
729.6871, 1.844666
730.1693, 2.022034
730.6514, 3.493591
731.1335, 4.888489
731.6156, 4.972168
732.0977, 4.159912
732.5798, 3.748169
733.0620, 4.178955
733.5441, 4.933167
734.0262, 5.997131
734.5083, 7.259155
734.9904, 8.074707
735.4725, 8.280212
735.9547, 8.538818
736.4368, 9.194946
736.9189, 10.14801
737.4010, 11.00586
737.8831, 11.76886
738.3652, 12.55713
738.8474, 13.43604
739.3295, 14.46252
739.8116, 15.79877
740.2937, 17.34192
740.7758, 18.43732
741.2579, 18.51031
741.7401, 18.35815
742.2222, 18.48468
742.7043, 18.99988
743.1864, 18.96179
743.6685, 18.12262
744.1506, 17.24396
744.6328, 17.07916
745.1149, 17.49902
745.5970, 16.88708
746.0791, 15.09711
746.5612, 13.38501
747.0433, 13.44385
747.5255, 14.11285
748.0076, 13.51349
748.4897, 11.08911
748.9718, 8.897705
749.4539, 7.795532
749.9360, 7.400574
750.4182, 7.493774
750.9003, 8.509521
751.3824, 9.205872
751.8645, 9.583069
752.3466, 9.660950
752.8287, 9.317688
753.3109, 8.518127
753.7930, 8.047241
754.2751, 8.031860
754.7572, 7.971191
755.2393, 6.993835
755.7214, 5.708740
756.2036, 5.277771
756.6857, 6.304260
757.1678, 7.672302
757.6499, 9.251709
758.1320, 10.63641
758.6141, 11.23163
759.0963, 9.937134
759.5784, 9.388794
760.0605, 9.881409
760.5426, 10.97015
761.0247, 12.02960
761.5068, 13.06952
761.9890, 14.03601
762.4711, 14.98846
762.9532, 15.70135
763.4353, 15.79504
763.9174, 15.35028
764.3995, 14.54938
764.8817, 12.82812
765.3638, 11.48944
765.8459, 11.72644
766.3280, 12.86444
766.8101, 13.28540
767.2922, 12.27856
767.7744, 11.10364
768.2565, 9.797241
768.7386, 8.535583
769.2207, 7.892151
769.7028, 7.933105
770.1849, 7.810852
770.6671, 7.031189
771.1492, 6.113281
771.6313, 6.140930
772.1134, 6.839050
772.5955, 7.307190
773.0776, 6.696228
773.5598, 6.077942
774.0419, 6.213196
774.5240, 6.907593
775.0061, 7.259644
775.4882, 7.072632
775.9703, 6.605286
776.4525, 5.855164
776.9346, 4.873291
777.4167, 3.948608
777.8988, 3.084473
778.3809, 2.251282
778.8630, 1.265747
779.3452, 0.4058840
779.8273, 0.4268190
780.3094, 1.145874
780.7915, 1.677612
781.2736, 1.330933
781.7557, 0.8452760
782.2379, 0.7485960
782.7200, 1.007202
783.2021, 0.8397220
783.6842, 0.4417110
784.1663, 1.206421
784.6484, 0.6224980
785.1306, 1.055237
785.6127, 1.588867
786.0948, 0.9018550
786.5769, 1.4414003E-03
787.0590, 0.4811518
787.5411, 0.7561154
788.0233, 0.8373401
788.5054, 0.1445344
788.9875, 0.4512242
789.4696, 0.3573622
789.9517, 0.2470756
790.4338, 0.6944385
790.9160, 0.1142180
791.3981, 0.5527377
791.8802, 0.5845945
792.3623, 0.8025716
792.8444, 0.6175231
793.3265, 1.067688
793.8087, 1.107544
794.2908, 0.6577760
794.7729, 0.2030640
795.2550, 0.2053220
795.7371, 0.3397830
796.2192, 2.4410000E-03
796.7014, 0.7601930
797.1835, 1.080872
797.6656, 1.3245000E-02
798.1477, 1.123840
798.6298, 1.267334
799.1119, -1.1022992E-02
799.5941, 0.4785242
800.0762, 0.7633178
800.5583, 0.8543706
801.0404, 0.1713974
801.5225, 0.4879182
802.0046, 0.4038843
802.4868, 0.3034340
802.9689, 0.7606264
803.4510, 0.1902335
803.9331, 0.6385852
804.4152, 0.6802725
804.8973, 0.9080772
805.3795, 0.7328645
805.8616, 0.6821253
806.3437, 0.9237060
806.8258, 0.5966800
807.3079, 0.3176880
807.7900, 0.6586300
808.2722, 0.3171390
808.7543, 0.1609500
809.2364, 0.5627440
809.7185, 0.8434450
810.2006, 0.7501220
810.6827, 0.3310550
811.1649, 2.1240000E-02
811.6470, 0.1541140
812.1291, 0.3602290
812.6112, 0.1411740
813.0933, 0.5081180
813.5754, 0.9251710
814.0576, 0.6254880
814.5397, 0.1698247
815.0218, 0.5772315
815.5039, 0.7798930
815.9860, 0.7888112
816.4681, 2.3711143E-02
816.9503, 0.2580823
817.4324, 9.1924608E-02
817.9145, -9.0665355E-02
818.3966, 0.2843958
818.8787, 0.1262820
819.3608, 0.3198240
819.8430, 0.6353760
820.3251, 0.9473270
820.8072, 1.140869
821.2893, 1.218811
821.7714, 1.496582
822.2535, 2.217163
822.7357, 2.554321
823.2178, 1.826660
823.6999, -0.6738479
824.1820, 0.6933655
824.6641, 1.445949
825.1462, 1.616935
825.6284, -0.5356587
826.1105, 0.3121648
826.5926, -4.2441607E-02
827.0747, -0.4463538
827.5568, 0.8237594
828.0389, -0.9908623
828.5211, 0.2526947
829.0032, 0.3382570
829.4853, 1.302612
829.9674, 1.627319
830.4495, 1.171753
830.9316, 0.9189450
831.4138, 1.436462
831.8959, 2.312317
832.3780, 2.613098
832.8601, 2.454956
833.3422, 2.316284
833.8243, 2.352295
834.3065, 2.557190
834.7886, 3.063660
835.2707, 3.753357
835.7528, 4.169678
836.2349, 4.232727
836.7170, 4.055298
837.1992, 3.457092
837.6813, 2.758850
838.1634, 2.972534
838.6455, 4.038269
839.1276, 5.077332
839.6097, 5.698608
840.0919, 6.201172
840.5740, 7.179993
841.0561, 8.296082
841.5382, 8.742188
842.0203, 7.337524
842.5024, 6.381714
842.9846, 6.633423
843.4667, 7.601257
843.9488, 8.547180
844.4309, 9.501770
844.9130, 10.29584
845.3951, 10.87506
845.8773, 11.32776
846.3594, 11.67609
846.8415, 12.17401
847.3236, 13.59241
847.8057, 16.70740
848.2878, 19.61414
848.7700, 20.85168
849.2521, 21.34180
849.7342, 22.35760
850.2163, 24.36945
850.6984, 26.15271
851.1805, 27.44519
851.6627, 28.83319
852.1448, 31.28394
852.6269, 34.68665
853.1090, 37.94873
853.5911, 40.84357
854.0732, 43.64954
854.5554, 46.83331
855.0375, 50.08820
855.5196, 52.94128
856.0017, 54.52197
856.4838, 57.32666
856.9659, 62.48615
857.4481, 68.45105
857.9302, 74.20825
858.4123, 79.71564
858.8944, 84.57983
859.3765, 88.71338
859.8586, 92.82745
860.3408, 97.48175
860.8229, 102.6270
861.3050, 108.5310
861.7871, 115.3453
862.2692, 121.2378
862.7513, 125.5609
863.2335, 128.4888
863.7156, 129.9454
864.1977, 129.8947
864.6798, 129.6439
865.1619, 129.5338
865.6440, 128.3184
866.1262, 124.8036
866.6083, 119.4746
867.0904, 114.5246
867.5725, 109.8245
868.0546, 104.5572
868.5367, 98.09320
869.0189, 90.87091
869.5010, 82.46936
869.9831, 73.04883
870.4652, 65.99170
870.9473, 62.87201
871.4294, 59.86847
871.9116, 55.62158
872.3937, 50.55298
872.8758, 46.36017
873.3579, 42.99371
873.8400, 40.15759
874.3221, 38.14130
874.8043, 36.10022
875.2864, 33.00177
875.7685, 29.33667
876.2506, 26.28339
876.7327, 24.46094
877.2148, 23.02936
877.6970, 22.07190
878.1791, 21.25098
878.6612, 19.60657
879.1433, 16.99530
879.6254, 15.20392
880.1075, 14.74854
880.5897, 14.99536
881.0718, 15.51782
881.5539, 15.99939
882.0360, 15.82220
882.5181, 14.20020
883.0002, 12.97717
883.4824, 13.26245
883.9645, 13.97192
884.4466, 13.79346
884.9287, 12.18457
885.4108, 11.80200
885.8929, 13.12781
886.3751, 14.44684
886.8572, 13.57556
887.3393, 11.36908
887.8214, 9.639038
888.3035, 8.617859
888.7856, 8.146362
889.2678, 8.912537
889.7499, 9.656250
890.2320, 9.196594
890.7141, 7.159424
891.1962, 6.267578
891.6783, 7.041809
892.1605, 7.705994
892.6426, 6.637024
893.1247, 4.505432
893.6068, 3.028770
894.0889, 4.413484
894.5710, 5.183569
895.0532, 5.372045
895.5353, 3.236962
896.0174, 4.102279
896.4995, 3.765171
896.9816, 3.378757
897.4637, 4.666371
897.9459, 2.869238
898.4280, 3.031634
898.9101, 4.217218
899.3922, 4.788170
899.8743, 4.777519
900.3564, 2.443327
900.8386, 3.109455
901.3207, 2.573238
901.8028, 1.987686
902.2849, 3.076158
902.7670, 1.079888
903.2491, 2.141837
903.7313, 1.982927
904.2134, 2.382816
904.6955, 1.572824
905.1776, 1.837708
905.6597, 1.665955
906.1418, 1.482300
906.6240, 1.426453
907.1061, 1.230530
907.5882, 0.3199460
908.0703, 0.7042850
908.5524, 1.118835
909.0345, 0.6030880
909.5167, 8.6608998E-02
909.9988, 0.4763790
910.4809, 0.7972410
910.9630, 0.4932860
911.4451, 0.4570310
911.9272, 0.4215090
912.4094, 0.6271970
912.8915, 1.765076
913.3736, 2.376587
913.8557, 2.659363
914.3378, 2.804199
914.8199, 2.817749
915.3021, 2.643616
915.7842, 1.998474
916.2663, 1.489197
916.7484, 1.434631
917.2305, 1.631104
917.7126, 1.084351
918.1948, 0.2185060
918.6769, 1.075195
919.1590, 0.8064580
919.6411, 0.2112430
920.1232, 0.2718510
920.6053, 0.7602540
921.0875, 1.215576
921.5696, 1.366333
922.0517, 1.647705
922.5338, 2.172729
923.0159, 2.825439
923.4980, 3.433899
923.9802, 3.981812
924.4623, 4.774170
924.9444, 5.843323
925.4265, 7.065552
925.9086, 8.371094
926.3907, 9.717957
926.8729, 11.05255
927.3550, 12.38721
927.8371, 13.61316
928.3192, 14.57562
928.8013, 15.50916
929.2834, 16.50287
929.7656, 17.55768
930.2477, 18.65564
930.7298, 19.77362
931.2119, 21.39215
931.6940, 23.85712
932.1761, 26.95178
932.6583, 30.86169
933.1404, 35.27997
933.6225, 38.88916
934.1046, 39.95679
934.5867, 41.85419
935.0688, 45.95557
935.5510, 51.17865
936.0331, 54.32355
936.5152, 55.40283
936.9973, 57.64032
937.4794, 61.99567
937.9615, 67.49249
938.4437, 73.47339
938.9258, 79.62292
939.4079, 85.27802
939.8900, 89.37695
940.3721, 94.75067
940.8542, 102.4068
941.3364, 110.7049
941.8185, 118.4256
942.3006, 125.4887
942.7827, 132.8080
943.2648, 140.4844
943.7469, 148.3643
944.2291, 157.1796
944.7112, 165.6583
945.1933, 172.3819
945.6754, 177.3284
946.1575, 182.0522
946.6396, 187.2329
947.1218, 191.9524
947.6039, 196.2795
948.0860, 199.8710
948.5681, 201.3033
949.0502, 200.6559
949.5323, 198.7274
950.0145, 195.7119
950.4966, 191.7237
950.9787, 186.9114
951.4608, 181.2195
951.9429, 174.5800
952.4250, 165.7366
952.9072, 157.7396
953.3893, 151.1664
953.8714, 144.7975
954.3535, 136.9681
954.8356, 127.9944
955.3177, 119.6671
955.7999, 112.1767
956.2820, 105.0701
956.7641, 97.60107
957.2462, 90.64648
957.7283, 85.12024
958.2104, 81.20221
958.6925, 77.36365
959.1746, 73.64508
959.6567, 69.67175
960.1389, 65.12482
960.6210, 60.23547
961.1031, 55.70636
961.5852, 51.62781
962.0673, 48.74023
962.5494, 48.31464
963.0316, 48.12622
963.5137, 46.96570
963.9958, 45.19946
964.4779, 43.48853
964.9600, 41.59760
965.4421, 40.55865
965.9243, 40.62756
966.4064, 41.07184
966.8885, 40.95502
967.3706, 40.52734
967.8527, 40.36029
968.3348, 40.54083
968.8170, 41.11719
969.2991, 42.08533
969.7812, 43.47607
970.2633, 45.54468
970.7454, 48.28693
971.2275, 49.94910
971.7097, 50.50049
972.1918, 50.33704
972.6739, 48.85620
973.1560, 47.42603
973.6381, 49.00812
974.1202, 52.65210
974.6024, 55.67218
975.0845, 56.45239
975.5666, 57.21814
976.0487, 58.64185
976.5308, 60.28815
977.0129, 61.55164
977.4951, 62.38812
977.9772, 63.72125
978.4593, 65.81030
978.9414, 67.52643
979.4235, 67.47314
979.9056, 66.56232
980.3878, 65.81409
980.8699, 65.38947
981.3520, 65.17181
981.8341, 65.62891
982.3162, 65.60004
982.7983, 64.35846
983.2805, 62.18958
983.7626, 60.58820
984.2447, 59.52698
984.7268, 58.79150
985.2089, 59.01190
985.6910, 58.78046
986.1732, 56.04816
986.6553, 52.28772
987.1374, 50.84277
987.6195, 53.52905
988.1016, 54.89655
988.5837, 53.96130
989.0659, 52.64447
989.5480, 54.01178
990.0301, 56.90698
990.5122, 57.79059
990.9943, 56.12097
991.4764, 54.34985
991.9586, 54.13873
992.4407, 54.04932
992.9228, 53.16095
993.4049, 51.50549
993.8870, 49.61932
994.3691, 47.52905
994.8513, 45.17004
995.3334, 42.32373
995.8155, 39.41949
996.2976, 37.25861
996.7797, 35.52130
997.2618, 33.44440
997.7440, 29.93304
998.2261, 27.20734
998.7082, 26.16785
999.1903, 25.48431
999.6724, 23.34161
1000.155, 19.83038
1000.637, 17.65283
1001.119, 17.08887
1001.601, 16.78595
1002.083, 15.41943
1002.565, 13.91943
1003.047, 13.33923
1003.529, 13.74451
1004.011, 13.31567
1004.494, 11.58087
1004.976, 9.833923
1005.458, 8.486023
1005.940, 7.469116
1006.422, 6.734558
1006.904, 6.219604
1007.386, 5.730408
1007.868, 5.198059
1008.351, 4.679749
1008.833, 4.075500
1009.315, 3.591675
1009.797, 3.434265
1010.279, 3.652649
1010.761, 4.039307
1011.243, 4.666260
1011.725, 5.259216
1012.207, 5.436279
1012.690, 5.481812
1013.172, 5.864746
1013.654, 6.554688
1014.136, 6.805237
1014.618, 5.798462
1015.100, 4.849548
1015.582, 4.213196
1016.064, 3.926453
1016.547, 4.119812
1017.029, 4.720276
1017.511, 5.108459
1017.993, 5.131348
1018.475, 5.163757
1018.957, 5.637146
1019.439, 6.150940
1019.921, 6.223572
1020.403, 5.651794
1020.886, 5.557495
1021.368, 6.096558
1021.850, 6.709290
1022.332, 7.072266
1022.814, 7.212036
1023.296, 6.869873
1023.778, 6.344604
1024.260, 6.637634
1024.743, 9.371338
1025.225, 11.57648
1025.707, 11.93060
1026.189, 11.39752
1026.671, 10.98370
1027.153, 10.68890
1027.635, 11.53430
1028.117, 13.79077
1028.599, 16.00275
1029.082, 16.39075
1029.564, 16.38629
1030.046, 17.73663
1030.528, 20.76495
1031.010, 22.62579
1031.492, 22.75153
1031.974, 22.74670
1032.456, 23.10138
1032.938, 23.76984
1033.421, 24.74817
1033.903, 25.92084
1034.385, 26.91113
1034.867, 27.46075
1035.349, 28.01239
1035.831, 26.64355
1036.313, 29.33667
1036.795, 31.01501
1037.278, 31.75055
1037.760, 28.88342
1038.242, 30.53998
1038.724, 30.30579
1039.206, 29.94061
1039.688, 32.07440
1040.170, 29.44458
1040.652, 31.42651
1041.135, 31.48926
1041.617, 32.34918
1042.099, 31.30682
1042.581, 30.78448
1043.063, 32.04791
1043.545, 32.23273
1044.027, 30.75470
1044.509, 31.33484
1044.991, 28.08270
1045.474, 28.57080
1045.956, 29.12775
1046.438, 29.45435
1046.920, 28.50299
1047.402, 26.29602
1047.884, 25.98761
1048.366, 27.76453
1048.848, 28.66504
1049.330, 26.66876
1049.813, 23.78394
1050.295, 22.36884
1050.777, 21.79254
1051.259, 20.86902
1051.741, 18.54114
1052.223, 17.08521
1052.705, 16.87463
1053.187, 16.96692
1053.670, 16.47357
1054.152, 15.52881
1054.634, 14.53625
1055.116, 13.46649
1055.598, 12.56195
1056.080, 12.39319
1056.562, 11.91864
1057.044, 10.21393
1057.526, 7.993591
1058.009, 7.198425
1058.491, 7.942871
1058.973, 8.635437
1059.455, 9.050293
1059.937, 8.889160
1060.419, 7.204834
1060.901, 5.197144
1061.383, 4.036682
1061.865, 4.232849
1062.348, 4.249329
1062.830, 3.979248
1063.312, 3.657654
1063.794, 3.480652
1064.276, 3.339233
1064.758, 2.699341
1065.240, 1.724304
1065.722, 1.141235
1066.205, 1.675415
1066.687, 2.117126
1067.169, 2.312134
1067.651, 2.051514
1068.133, 0.8209840
1068.615, 1.393616
1069.097, 1.656616
1069.579, 0.1574710
1070.062, 1.624023
1070.544, 0.2600100
1071.026, 1.601440
1071.508, 2.276306
1071.990, 1.840271
1072.472, 1.104492
1072.954, 0.1347660
1073.436, 0.9944460
1073.918, 1.309875
1074.401, 1.101685
1074.883, 1.0254000E-02
1075.365, 1.397278
1075.847, 2.001953
1076.329, 1.578552
1076.811, 1.097900
1077.293, 0.4893800
1077.775, 0.3098750
1078.257, 1.041931
1078.740, 2.231567
1079.222, 2.299683
1079.704, 1.515991
1080.186, 0.6603390
1080.668, 0.2306520
1081.150, 0.6047970
1081.632, 0.6240840
1082.114, 2.058472
1082.596, 2.038757
1083.079, 0.1577150
1083.561, 0.5949710
1084.043, 0.1452030
1084.525, 0.4371950
1085.007, 0.5137940
1085.489, 0.2339480
1085.971, 0.6519780
1086.453, 1.780334
1086.936, 1.928101
1087.418, 3.8086001E-02
1087.900, 0.7346190
1088.382, 0.7082520
1088.864, 2.356079
1089.346, 4.4677999E-02
1089.828, 1.921082
1090.310, 3.027039
1090.792, 3.322632
1091.275, 0.3707280
1091.757, 1.613220
1092.239, 1.171326
1092.721, 0.6587520
1093.203, 2.487427
1093.685, 1.0380000E-03
1094.167, 1.791870
1094.649, 1.874939
1095.131, 2.742798
1095.614, 1.966125
1096.096, 1.677734
1096.578, 3.064514
1097.060, 3.513794
1097.542, 2.489990
1098.024, 3.404541
1098.506, 0.8610840
1098.988, 1.355469
1099.471, 3.156067
1099.953, 0.5812990
1100.435, 2.524292
1100.917, 3.607361
1101.399, 3.876648
1101.881, 0.8957520
1102.363, 2.111023
1102.845, 1.644287
1103.328, 1.108093
1103.810, 2.913086
1104.292, 0.4031370
1104.774, 2.170349
1105.256, 2.229553
1105.738, 3.071167
1106.220, 2.222839
1106.702, 1.898132
1107.184, 3.265381
1107.667, 3.692444
1108.149, 2.644165
1108.631, 3.532043
1109.113, 0.9593510
1109.595, 1.422729
1110.077, 3.195740
1110.559, 2.240051
1111.041, 3.200073
1111.523, 3.413879
1112.006, 0.3555910
1112.488, 2.962280
1112.970, 3.117981
1113.452, 0.7572630
1113.934, 3.173889
1114.416, 1.170776
1114.898, 0.7457280
1115.380, 1.504150
1115.863, 1.019592
1116.345, 2.485718
1116.827, 2.069092
1117.309, 1.483704
1117.791, 1.631897
1118.273, 0.3002320
1118.755, 1.624939
1119.237, 2.518311
1119.719, 3.903259
1120.202, 4.223083
1120.684, 2.120850
1121.166, 0.6416630
1121.648, 0.1461790
1122.130, 0.2188720
1122.612, 1.070374
1123.094, 3.013489
1123.576, 3.003723
1124.058, 1.528687
1124.541, 0.6507570
1125.023, 2.066284
1125.505, 3.171326
1125.987, 3.281189
1126.469, 2.791443
1126.951, 2.151001
1127.433, 1.503540
1127.915, 1.306152
1128.398, 1.591431
1128.880, 1.779907
1129.362, 1.582275
1129.844, 1.271606
1130.326, 0.7930300
1130.808, 0.3658450
1131.290, 0.6630860
1131.772, 1.697815
1132.255, 2.150391
1132.737, 1.654419
1133.219, 1.056580
1133.701, 1.276733
1134.183, 1.777283
1134.665, 2.145813
1135.147, 2.344177
1135.629, 1.799744
1136.111, 0.1620480
1136.594, 0.2707520
1137.076, 2.031799
1137.558, 4.622864
1138.040, 3.643982
1138.522, 1.267090
1139.004, 0.5126340
1139.486, 2.745178
1139.968, 3.679504
1140.450, 2.918030
1140.933, 2.324646
1141.415, 2.966248
1141.897, 4.117737
1142.379, 4.630432
1142.861, 4.572998
1143.343, 4.066223
1143.825, 2.366211
1144.307, 1.460693
1144.790, 1.739868
1145.272, 2.428040
1145.754, 3.082642
1146.236, 3.674438
1146.718, 3.657715
1147.200, 3.105835
1147.682, 2.506653
1148.164, 1.725708
1148.646, 1.355469
1149.129, 1.611023
1149.611, 2.174927
1150.093, 2.710449
1150.575, 3.211426
1151.057, 3.893555
1151.539, 4.684143
1152.021, 4.669678
1152.503, 1.799500
1152.985, 0.3576660
1153.468, 0.4796140
1153.950, 2.809082
1154.432, 3.608765
1154.914, 2.968628
1155.396, 2.263733
1155.878, 1.693542
1156.360, 1.500916
1156.842, 2.142883
1157.325, 2.982361
1157.807, 3.660889
1158.289, 4.142578
1158.771, 4.110107
1159.253, 3.526917
1159.735, 3.264526
1160.217, 3.622131
1160.699, 4.054321
1161.182, 4.116882
1161.664, 3.946533
1162.146, 3.621582
1162.628, 3.185974
1163.110, 2.679504
1163.592, 2.055664
1164.074, 1.739258
1164.556, 1.890564
1165.038, 2.457886
1165.521, 3.979126
1166.003, 5.607910
1166.485, 6.142395
1166.967, 5.241089
1167.449, 3.735229
1167.931, 1.281433
1168.413, 0.2312620
1168.895, 0.8343510
1169.377, 2.860779
1169.860, 3.748596
1170.342, 3.796082
1170.824, 3.340820
1171.306, 1.769592
1171.788, 1.006897
1172.270, 1.147400
1172.752, 1.690491
1173.234, 2.393799
1173.717, 3.173096
1174.199, 4.301575
1174.681, 5.479675
1175.163, 5.878418
1175.645, 4.564148
1176.127, 3.391968
1176.609, 2.631836
1177.091, 2.137207
1177.573, 1.881775
1178.056, 1.779602
1178.538, 2.033264
1179.020, 2.451172
1179.502, 2.199524
1179.984, 0.3500980
1180.466, 1.365662
1180.948, 0.1909790
1181.430, 2.447205
1181.912, 2.957336
1182.395, 2.439270
1182.877, 3.017700
1183.359, 4.697876
1183.841, 5.775635
1184.323, 4.731812
1184.805, 4.073669
1185.287, 4.643738
1185.769, 5.571350
1186.252, 5.110413
1186.734, 3.791077
1187.216, 3.336243
1187.698, 3.990906
1188.180, 4.383423
1188.662, 3.386292
1189.144, 2.681885
1189.626, 2.890320
1190.109, 3.680725
1190.591, 4.701721
1191.073, 5.693176
1191.555, 5.443604
1192.037, 3.491821
1192.519, 2.004822
1193.001, 2.596863
1193.483, 3.207581
1193.965, 2.809875
1194.448, 1.776978
1194.930, 1.164551
1195.412, 0.9666750
1195.894, 1.590149
1196.376, 3.517212
1196.858, 4.804565
1197.340, 4.094116
1197.822, 2.940674
1198.304, 2.133667
1198.787, 1.618774
1199.269, 1.159912
1199.751, 0.7615360
1200.233, 0.3678590
1200.715, 0.2960210
1201.197, 0.3247070
1201.679, 1.675598
1202.161, 3.521118
1202.644, 3.532349
1203.126, 2.078247
1203.608, 1.688904
1204.090, 2.227356
1204.572, 3.020325
1205.054, 4.313965
1205.536, 4.899475
1206.018, 3.076904
1206.500, 1.298584
1206.983, 1.762878
1207.465, 4.196960
1207.947, 5.461914
1208.429, 5.661316
1208.911, 5.496460
1209.393, 5.348877
1209.875, 4.883179
1210.357, 3.663391
1210.839, 2.253784
1211.322, 1.102478
1211.804, 0.2277220
1212.286, 0.5206300
1212.768, 1.865784
1213.250, 3.106995
1213.732, 3.272522
1214.214, 3.512390
1214.696, 4.511536
1215.179, 5.639465
1215.661, 6.372437
1216.143, 6.692749
1216.625, 6.051453
1217.107, 4.551270
1217.589, 3.376282
1218.071, 3.152710
1218.553, 3.432739
1219.036, 4.370728
1219.518, 5.433411
1220.000, 6.000549
1220.482, 6.110046
1220.964, 5.982056
1221.446, 5.664001
1221.928, 5.555603
1222.410, 6.100830
1222.892, 6.621521
1223.375, 6.898926
1223.857, 6.966675
1224.339, 6.781921
1224.821, 6.411194
1225.303, 6.325439
1225.785, 6.513855
1226.267, 6.453186
1226.749, 5.417236
1227.231, 4.895935
1227.714, 5.763672
1228.196, 6.914124
1228.678, 6.408630
1229.160, 4.662354
1229.642, 3.076294
1230.124, 1.839172
1230.606, 1.477356
1231.088, 3.366455
1231.571, 4.714478
1232.053, 4.460510
1232.535, 3.496582
1233.017, 3.460815
1233.499, 3.914124
1233.981, 3.164917
1234.463, 1.066589
1234.945, 0.3491210
1235.427, 0.2166750
1235.910, 1.227112
1236.392, 2.658203
1236.874, 3.788269
1237.356, 2.646667
1237.838, 0.2953490
1238.320, 0.3118900
1238.802, 1.372742
1239.284, 2.658081
1239.766, 2.258118
1240.249, 1.848816
1240.731, 1.813171
1241.213, 1.979065
1241.695, 1.999878
1242.177, 2.005859
1242.659, 2.407532
1243.141, 3.273499
1243.623, 3.590210
1244.106, 2.666931
1244.588, 2.063354
1245.070, 2.159668
1245.552, 2.798279
1246.034, 4.457703
1246.516, 6.170593
1246.998, 6.081360
1247.480, 3.831970
1247.963, 2.168396
1248.445, 1.444153
1248.927, 1.248718
1249.409, 1.583557
1249.891, 2.162781
1250.373, 2.805603
1250.855, 3.270752
1251.337, 3.145020
1251.819, 2.320679
1252.302, 1.637390
1252.784, 1.130432
1253.266, 0.7282710
1253.748, 0.3880620
1254.230, 0.4230960
1254.712, 1.419739
1255.194, 2.742065
1255.676, 3.747253
1256.158, 4.313293
1256.641, 4.249695
1257.123, 3.452393
1257.605, 2.600342
1258.087, 1.783447
1258.569, 1.344482
1259.051, 1.953552
1259.533, 2.932068
1260.015, 3.584534
1260.498, 3.892517
1260.980, 3.968933
1261.462, 3.819092
1261.944, 3.373840
1262.426, 2.487305
1262.908, 1.783875
1263.390, 1.495850
1263.872, 1.884766
1264.354, 3.578857
1264.837, 6.156616
1265.319, 6.852600
1265.801, 5.853333
1266.283, 4.901245
1266.765, 4.521973
1267.247, 4.223022
1267.729, 3.937012
1268.211, 3.355042
1268.693, 2.279602
1269.176, 0.8721310
1269.658, 0.5181270
1270.140, 1.707031
1270.622, 1.772095
1271.104, 1.7517000E-02
1271.586, 1.787842
1272.068, 3.140808
1272.550, 3.684326
1273.033, 2.720459
1273.515, 1.031067
1273.997, 0.6563720
1274.479, 1.212646
1274.961, 1.762817
1275.443, 2.131714
1275.925, 2.141846
1276.407, 1.373230
1276.890, 0.9915160
1277.372, 1.587036
1277.854, 2.586792
1278.336, 3.059204
1278.818, 3.075989
1279.300, 2.654297
1279.782, 1.657227
1280.264, 1.341309
1280.746, 2.083374
1281.229, 2.498840
1281.711, 1.991699
1282.193, 1.181091
1282.675, 0.9884030
1283.157, 1.040771
1283.639, 0.7614750
1284.121, 5.8533002E-02
1284.603, 4.9500000E-02
1285.085, 0.8688350
1285.568, 1.512146
1286.050, 1.606079
1286.532, 1.501709
1287.014, 1.297974
1287.496, 1.199646
1287.978, 1.068787
1288.460, 1.412292
1288.942, 1.295776
1289.425, 0.2893070
1289.907, 0.1489260
1290.389, 0.6412350
1290.871, 1.678345
1291.353, 2.573547
1291.835, 3.207520
1292.317, 3.534851
1292.799, 3.469116
1293.281, 2.418457
1293.764, 0.8037110
1294.246, 0.1698000
1294.728, 1.119324
1295.210, 1.710632
1295.692, 1.844360
1296.174, 1.590820
1296.656, 0.7709350
1297.138, 6.7261003E-02
1297.620, 1.8921001E-02
1298.103, 0.4788820
1298.585, 0.6807250
1299.067, 0.1973880
1299.549, 6.1035000E-02
1300.031, 0.5531010
1300.513, 1.137634
1300.995, 1.276062
1301.477, 1.146179
1301.960, 1.589294
1302.442, 2.238647
1302.924, 2.519104
1303.406, 2.351868
1303.888, 2.228760
1304.370, 2.015564
1304.852, 1.577820
1305.334, 0.0000000E+00
##END=



