##NAMES=Greifensteinite
##RRUFFID=R060588
##IDEAL CHEMISTRY=Ca_2_Fe^2+^_5_Be_4_(PO_4_)_6_(OH)_4_&#183;6H_2_O
##LOCALITY=Linopolis, Minas Gerais, Brazil
##OWNER=RRUFF
##SOURCE=Michael Scott
##DESCRIPTION=Light brown elongated prismatic crystals, associated with elongated brown eosphorite, and radiating green gormanite, R080075
##STATUS=The identification of this mineral has been confirmed only by single crystal X-ray diffraction.
##URL=rruff.info/R060588
132.5391, 0.0000000E+00
133.0212, 8.4435001E-02
133.5034, 2.1060000E-03
133.9855, 1.0643000E-02
134.4676, 4.6317998E-02
134.9497, 0.1974330
135.4318, 0.4319530
135.9139, 0.7496720
136.3960, 1.194229
136.8782, 1.875542
137.3603, 2.840286
137.8424, 3.657234
138.3245, 4.327576
138.8066, 4.830040
139.2887, 5.089691
139.7709, 5.055939
140.2530, 4.906197
140.7351, 4.999458
141.2172, 5.286057
141.6993, 5.275146
142.1814, 4.968269
142.6636, 4.437912
143.1457, 3.925476
143.6278, 3.493088
144.1099, 3.082123
144.5920, 2.620651
145.0741, 2.111992
145.5563, 1.630608
146.0384, 1.255936
146.5205, 1.001717
147.0026, 0.7419890
147.4847, 0.4066240
147.9668, 9.1407999E-02
148.4490, 0.1739960
148.9311, 0.3756790
149.4132, 0.4831090
149.8953, 0.4231640
150.3774, 6.6826001E-02
150.8595, 0.1941680
151.3417, 0.2268600
151.8238, 0.2241970
152.3059, 0.3589170
152.7880, 0.6904070
153.2701, 1.131927
153.7522, 1.461143
154.2344, 1.659355
154.7165, 1.738014
155.1986, 1.665413
155.6807, 1.482330
156.1628, 1.196899
156.6449, 0.7980800
157.1271, 0.3562240
157.6092, 0.1798100
158.0913, 0.3279880
158.5734, 0.6086580
159.0555, 1.053543
159.5376, 1.604721
160.0198, 2.121635
160.5019, 2.544518
160.9840, 2.853569
161.4661, 3.026459
161.9482, 2.908974
162.4303, 2.819672
162.9125, 3.012367
163.3946, 3.475327
163.8767, 3.940857
164.3588, 4.225861
164.8409, 4.417366
165.3230, 4.672684
165.8052, 5.070900
166.2873, 5.493317
166.7694, 5.736519
167.2515, 5.723663
167.7336, 5.801613
168.2157, 6.225998
168.6979, 6.810699
169.1800, 7.343056
169.6621, 7.708710
170.1442, 7.982353
170.6263, 8.391449
171.1084, 9.053215
171.5906, 9.665924
172.0727, 10.16059
172.5548, 10.55109
173.0369, 10.86158
173.5190, 11.10840
174.0011, 11.28774
174.4833, 11.36444
174.9654, 11.03249
175.4475, 10.91006
175.9296, 11.21194
176.4117, 11.81916
176.8938, 12.53020
177.3760, 13.21907
177.8581, 13.89144
178.3402, 14.30145
178.8223, 14.29011
179.3044, 14.20901
179.7865, 14.19463
180.2687, 14.22386
180.7508, 14.18626
181.2329, 13.98182
181.7150, 13.59125
182.1971, 13.22715
182.6792, 12.85681
183.1614, 12.53300
183.6435, 12.14092
184.1256, 11.01628
184.6077, 11.93450
185.0898, 12.42105
185.5719, 12.49915
186.0541, 10.94539
186.5362, 11.49910
187.0183, 11.20822
187.5004, 10.88280
187.9825, 11.73312
188.4646, 10.41698
188.9468, 11.24866
189.4289, 11.22307
189.9110, 11.58993
190.3931, 10.74322
190.8752, 10.75166
191.3573, 10.84077
191.8395, 11.05351
192.3216, 11.20808
192.8037, 11.05338
193.2858, 10.72486
193.7679, 9.767166
194.2500, 10.74049
194.7322, 11.28261
195.2143, 11.41658
195.6964, 9.918930
196.1785, 10.52905
196.6606, 10.29494
197.1427, 10.02661
197.6249, 10.93434
198.1070, 9.675949
198.5891, 11.16892
199.0712, 11.56372
199.5533, 11.44347
200.0354, 11.15422
200.5176, 10.74632
200.9997, 10.27660
201.4818, 9.832428
201.9639, 9.454277
202.4460, 9.136681
202.9281, 9.058990
203.4103, 9.644394
203.8924, 10.09431
204.3745, 10.05192
204.8566, 9.647499
205.3387, 9.250160
205.8208, 9.190376
206.3030, 9.507088
206.7851, 9.760155
207.2672, 10.03783
207.7493, 10.19440
208.2314, 10.03186
208.7135, 9.649422
209.1957, 9.392006
209.6778, 9.611282
210.1599, 10.41209
210.6420, 10.84680
211.1241, 10.71491
211.6062, 10.46922
212.0884, 10.34431
212.5705, 10.33678
213.0526, 10.30005
213.5347, 10.09499
214.0168, 9.695709
214.4989, 9.327980
214.9811, 9.004921
215.4632, 8.698631
215.9453, 8.388977
216.4274, 8.075279
216.9095, 7.777924
217.3916, 7.534401
217.8737, 7.338821
218.3559, 7.047859
218.8380, 6.443115
219.3201, 5.879288
219.8022, 5.746185
220.2843, 6.072403
220.7664, 6.405739
221.2486, 6.320473
221.7307, 5.922928
222.2128, 5.684296
222.6949, 5.814003
223.1770, 6.058495
223.6591, 6.140480
224.1413, 6.043663
224.6234, 5.884323
225.1055, 5.616310
225.5876, 5.322655
226.0697, 5.214783
226.5518, 5.524254
227.0340, 6.012291
227.5161, 6.217361
227.9982, 5.976204
228.4803, 5.769005
228.9624, 6.036682
229.4445, 6.537033
229.9267, 6.940041
230.4088, 7.114456
230.8909, 7.140869
231.3730, 7.114929
231.8551, 6.944260
232.3372, 6.856895
232.8194, 7.130463
233.3015, 7.512886
233.7836, 7.652046
234.2657, 7.322517
234.7478, 6.809097
235.2299, 6.812408
235.7121, 7.721939
236.1942, 8.340950
236.6763, 8.184364
237.1584, 7.661827
237.6405, 7.202667
238.1227, 6.996681
238.6048, 6.918106
239.0869, 6.626190
239.5690, 5.924004
240.0511, 5.352165
240.5332, 4.970802
241.0154, 4.763268
241.4975, 4.772789
241.9796, 5.021240
242.4617, 5.379227
242.9438, 5.496841
243.4259, 5.072578
243.9081, 4.890053
244.3902, 5.267769
244.8723, 5.790291
245.3544, 6.002945
245.8365, 5.738029
246.3186, 5.262932
246.8008, 5.213264
247.2829, 6.166718
247.7650, 6.705193
248.2471, 6.463470
248.7292, 5.964264
249.2113, 5.727646
249.6935, 5.921242
250.1756, 6.281624
250.6577, 6.288490
251.1398, 5.617653
251.6219, 5.033295
252.1040, 4.342812
252.5862, 3.837318
253.0683, 3.903183
253.5504, 4.618523
254.0325, 5.580338
254.5146, 6.137619
254.9967, 6.117371
255.4789, 5.930077
255.9610, 5.379250
256.4431, 4.778587
256.9252, 4.436882
257.4073, 4.416443
257.8894, 4.499153
258.3716, 4.373619
258.8537, 3.874641
259.3358, 3.630119
259.8179, 3.853836
260.3000, 4.203201
260.7821, 4.417923
261.2643, 4.445473
261.7464, 4.314575
262.2285, 4.014427
262.7106, 3.477310
263.1927, 3.131126
263.6748, 3.095573
264.1570, 3.181480
264.6391, 3.248161
265.1212, 3.277031
265.6033, 3.297394
266.0854, 3.334984
266.5675, 3.390800
267.0497, 3.450241
267.5318, 3.506012
268.0139, 3.569382
268.4960, 3.687485
268.9781, 3.853905
269.4602, 3.946938
269.9424, 3.873390
270.4245, 3.630959
270.9066, 3.324333
271.3887, 2.724129
271.8708, 2.235313
272.3529, 2.324425
272.8351, 2.937042
273.3172, 3.397667
273.7993, 3.264893
274.2814, 2.657417
274.7635, 2.078156
275.2456, 1.463882
275.7278, 0.9632260
276.2099, 0.6869660
276.6920, 0.6249010
277.1741, 0.7245330
277.6562, 1.089272
278.1383, 1.514900
278.6205, 1.588425
279.1026, 1.160835
279.5847, 0.7032550
280.0668, 0.5932690
280.5489, 0.7610470
281.0310, 0.7817310
281.5132, 0.4319080
281.9953, 6.3072003E-02
282.4774, 0.3442840
282.9595, 0.3680950
283.4416, 0.4406050
283.9237, 0.9220730
284.4059, 1.657532
284.8880, 1.940590
285.3701, 1.383774
285.8522, 0.6090160
286.3343, 0.2649000
286.8164, 0.3306580
287.2986, 0.5107120
287.7807, 0.7766570
288.2628, 1.050751
288.7449, 1.032921
289.2270, 0.5487670
289.7091, 7.0340000E-03
290.1913, 0.2716670
290.6734, 0.3315580
291.1555, 0.3126680
291.6376, 0.1801610
292.1197, 2.3026001E-02
292.6018, 9.9074997E-02
293.0840, 0.5338360
293.5661, 0.9302520
294.0482, 0.9597470
294.5303, 0.8021010
295.0124, 0.7179570
295.4945, 0.8107150
295.9767, 1.007401
296.4588, 1.185059
296.9409, 1.330482
297.4230, 1.560081
297.9051, 2.023048
298.3872, 2.559669
298.8694, 2.998474
299.3515, 3.310165
299.8336, 3.527328
300.3157, 3.707458
300.7978, 3.865959
301.2799, 3.891830
301.7621, 3.491783
302.2442, 3.070396
302.7263, 3.061584
303.2084, 3.600960
303.6905, 4.207397
304.1726, 4.339012
304.6548, 3.972313
305.1369, 3.684998
305.6190, 3.578453
306.1011, 3.643890
306.5832, 3.968414
307.0653, 4.540314
307.5475, 5.022194
308.0296, 5.072563
308.5117, 4.731812
308.9938, 4.483841
309.4759, 4.405357
309.9580, 4.423264
310.4402, 4.492554
310.9223, 4.607132
311.4044, 4.750092
311.8865, 4.986839
312.3686, 5.260788
312.8507, 5.280411
313.3329, 4.844131
313.8150, 4.497742
314.2971, 4.650230
314.7792, 5.074921
315.2613, 5.346786
315.7434, 5.201454
316.2256, 4.831421
316.7077, 4.661171
317.1898, 4.750313
317.6719, 4.870354
318.1540, 4.974594
318.6361, 5.034233
319.1183, 4.994461
319.6004, 4.814087
320.0825, 4.597717
320.5646, 4.527039
321.0467, 4.644562
321.5288, 4.632179
322.0110, 4.207413
322.4931, 3.721741
322.9752, 3.456970
323.4573, 3.460403
323.9394, 3.567833
324.4215, 3.655075
324.9037, 3.721909
325.3858, 3.757263
325.8679, 3.737518
326.3500, 3.705887
326.8321, 3.716156
327.3142, 3.755638
327.7964, 3.744423
328.2785, 3.567932
328.7606, 3.277840
329.2427, 3.150269
329.7248, 3.319313
330.2069, 3.443367
330.6891, 3.293137
331.1712, 2.953728
331.6533, 2.588425
332.1354, 2.195160
332.6175, 1.860306
333.0996, 1.767067
333.5818, 1.944763
334.0639, 2.271759
334.5460, 2.960503
335.0281, 3.670265
335.5102, 3.939644
335.9923, 3.524055
336.4745, 2.932510
336.9566, 2.768875
337.4387, 3.056770
337.9208, 3.391663
338.4029, 3.785324
338.8850, 4.057114
339.3671, 3.942665
339.8492, 3.372253
340.3314, 2.852768
340.8135, 2.905151
341.2956, 3.413300
341.7777, 3.637917
342.2598, 3.401421
342.7419, 2.898842
343.2241, 2.203018
343.7062, 1.397079
344.1883, 0.8408130
344.6704, 0.8469010
345.1525, 1.172600
345.6346, 1.291824
346.1168, 1.134605
346.5989, 0.9269710
347.0810, 0.8446270
347.5631, 0.8486020
348.0452, 0.8411030
348.5273, 0.7374040
349.0095, 0.6484910
349.4916, 0.8128200
349.9737, 1.238182
350.4558, 1.379662
350.9379, 0.8011320
351.4200, 0.1189040
351.9022, 0.7554470
352.3843, 1.052429
352.8664, 1.139183
353.3485, 0.9811400
353.8306, 0.6506500
354.3127, 0.4669190
354.7949, 0.6006320
355.2770, 0.7700270
355.7591, 0.5961380
356.2412, 9.3285002E-02
356.7233, 0.4493790
357.2054, 1.079956
357.6876, 1.638885
358.1697, 1.759674
358.6518, 1.330513
359.1339, 0.9350050
359.6160, 1.161362
360.0981, 1.895477
360.5803, 2.498291
361.0624, 2.847534
361.5445, 3.072845
362.0266, 3.192970
362.5087, 3.238823
362.9908, 3.434158
363.4730, 3.960144
363.9551, 4.691528
364.4372, 5.219933
364.9193, 5.325073
365.4014, 5.601616
365.8835, 6.539330
366.3657, 7.794708
366.8478, 8.595078
367.3299, 8.615646
367.8120, 8.377411
368.2941, 8.735756
368.7762, 9.822899
369.2584, 10.86063
369.7405, 11.83614
370.2226, 12.65946
370.7047, 13.12527
371.1868, 13.24599
371.6689, 13.41929
372.1511, 14.04479
372.6332, 15.14999
373.1153, 15.98970
373.5974, 16.19532
374.0795, 16.53024
374.5616, 17.57886
375.0438, 19.06898
375.5259, 20.27272
376.0080, 20.75906
376.4901, 20.74130
376.9722, 20.96497
377.4543, 21.57314
377.9365, 22.23003
378.4186, 23.11633
378.9007, 23.93815
379.3828, 24.29977
379.8649, 24.11211
380.3470, 23.69176
380.8292, 23.48986
381.3113, 23.64395
381.7934, 23.59496
382.2755, 23.38879
382.7576, 22.97285
383.2397, 22.09213
383.7219, 20.92624
384.2040, 20.06828
384.6861, 20.06981
385.1682, 20.83521
385.6503, 20.81712
386.1324, 19.23953
386.6146, 17.69810
387.0967, 16.30048
387.5788, 15.15440
388.0609, 14.48336
388.5430, 14.37974
389.0251, 14.45995
389.5073, 13.86729
389.9894, 12.01698
390.4715, 10.72640
390.9536, 10.51214
391.4357, 10.47843
391.9178, 10.04155
392.4000, 9.168213
392.8821, 8.196518
393.3642, 7.400047
393.8463, 6.774727
394.3284, 6.453140
394.8105, 6.876991
395.2927, 7.087898
395.7748, 6.589340
396.2569, 5.699432
396.7390, 4.929863
397.2211, 4.518967
397.7032, 4.411125
398.1854, 4.537727
398.6675, 5.000275
399.1496, 5.391968
399.6317, 5.570160
400.1138, 5.653946
400.5959, 5.698982
401.0781, 5.717743
401.5602, 5.764923
402.0423, 5.888138
402.5244, 6.084694
403.0065, 6.349037
403.4886, 6.773842
403.9708, 7.123688
404.4529, 7.236450
404.9350, 7.154907
405.4171, 6.987831
405.8992, 6.723961
406.3813, 6.430679
406.8635, 6.196869
407.3456, 6.019180
407.8277, 5.938843
408.3098, 6.075935
408.7919, 6.273781
409.2740, 6.243095
409.7562, 5.844688
410.2383, 5.463097
410.7204, 5.432564
411.2025, 5.632217
411.6846, 5.597519
412.1667, 5.106728
412.6489, 4.605751
413.1310, 4.797096
413.6131, 5.671120
414.0952, 6.258606
414.5773, 6.182945
415.0594, 5.851784
415.5416, 5.575256
416.0237, 5.390915
416.5058, 5.375252
416.9879, 5.638817
417.4700, 6.095474
417.9521, 6.276283
418.4343, 5.957939
418.9164, 5.712593
419.3985, 5.678314
419.8806, 5.729347
420.3627, 5.831863
420.8448, 5.975960
421.3270, 6.075920
421.8091, 5.999817
422.2912, 5.643074
422.7733, 5.423485
423.2554, 5.275497
423.7375, 5.306534
424.2197, 5.721100
424.7018, 6.399681
425.1839, 6.964317
425.6660, 7.125404
426.1481, 6.951523
426.6302, 6.908096
427.1124, 6.900902
427.5945, 7.174042
428.0766, 7.966942
428.5587, 8.941826
429.0408, 9.725266
429.5229, 10.21822
430.0051, 10.67605
430.4872, 11.50550
430.9693, 12.82960
431.4514, 13.99411
431.9335, 15.04356
432.4156, 15.86731
432.8978, 16.26579
433.3799, 16.38950
433.8620, 16.61250
434.3441, 17.20785
434.8262, 18.02671
435.3083, 18.61869
435.7905, 18.89388
436.2726, 19.18568
436.7547, 19.69861
437.2368, 20.23855
437.7189, 20.63459
438.2010, 20.85345
438.6832, 20.96132
439.1653, 21.03280
439.6474, 21.04939
440.1295, 20.90839
440.6116, 20.58729
441.0938, 20.11440
441.5759, 19.46211
442.0580, 18.67634
442.5401, 17.87956
443.0222, 17.07758
443.5043, 16.30251
443.9865, 15.60803
444.4686, 14.98486
444.9507, 14.32059
445.4328, 13.55701
445.9149, 12.72493
446.3970, 11.90224
446.8792, 11.10926
447.3613, 10.27634
447.8434, 9.289032
448.3255, 8.295715
448.8076, 7.490891
449.2897, 6.900047
449.7719, 6.404991
450.2540, 5.891823
450.7361, 5.354538
451.2182, 4.926537
451.7003, 4.617218
452.1824, 4.387878
452.6646, 4.336433
453.1467, 4.330055
453.6288, 4.124275
454.1109, 3.610420
454.5930, 2.955177
455.0751, 2.494835
455.5573, 2.372025
456.0394, 2.170509
456.5215, 1.830925
457.0036, 1.476273
457.4857, 1.133194
457.9678, 0.8343730
458.4500, 0.6427760
458.9321, 0.6207890
459.4142, 0.7379840
459.8963, 0.8352430
460.3784, 0.9290540
460.8605, 0.9721150
461.3427, 0.8998790
461.8248, 0.8056260
462.3069, 0.8065340
462.7890, 0.9325260
463.2711, 1.039680
463.7532, 0.9017790
464.2354, 0.5494310
464.7175, 0.4789660
465.1996, 0.9514010
465.6817, 1.382545
466.1638, 1.294586
466.6459, 0.8483730
467.1281, 0.4329220
467.6102, 0.1709210
468.0923, 3.7999998E-05
468.5744, 0.1243970
469.0565, 0.2079240
469.5386, 0.2979130
470.0208, 0.4340670
470.5029, 0.5598220
470.9850, 0.5753170
471.4671, 0.4868320
471.9492, 0.3166050
472.4313, 7.1892001E-02
472.9135, 0.4561770
473.3956, 0.5741420
473.8777, 0.4220960
474.3598, 0.1901700
474.8419, 1.7090000E-03
475.3240, 0.1544420
475.8062, 0.3410030
476.2883, 0.8549730
476.7704, 1.025795
477.2525, 0.2973630
477.7346, 0.6697690
478.2167, 1.010689
478.6989, 0.5251160
479.1810, 0.2402950
479.6631, 0.5950320
480.1452, 0.4555590
480.6273, 0.2887950
481.1094, 0.1594620
481.5916, 5.5603001E-02
482.0737, 0.4533160
482.5558, 0.9177400
483.0379, 1.278374
483.5200, 1.447449
484.0021, 1.440849
484.4843, 1.222687
484.9664, 0.7054290
485.4485, 0.3784870
485.9306, 0.4516530
486.4127, 0.6715850
486.8948, 0.9033810
487.3770, 1.118889
487.8591, 1.271645
488.3412, 1.283646
488.8233, 1.234245
489.3054, 1.309448
489.7875, 1.530731
490.2697, 1.662521
490.7518, 1.476959
491.2339, 1.190239
491.7160, 1.258453
492.1981, 1.833244
492.6802, 2.317841
493.1624, 2.358406
493.6445, 2.189926
494.1266, 2.159874
494.6087, 2.326561
495.0908, 2.573784
495.5729, 2.828537
496.0551, 3.086510
496.5372, 3.182220
497.0193, 2.879799
497.5014, 2.713516
497.9835, 2.969933
498.4656, 3.418098
498.9478, 3.734215
499.4299, 3.811707
499.9120, 3.764305
500.3941, 3.760132
500.8762, 3.831627
501.3583, 3.812706
501.8405, 3.715294
502.3226, 3.514603
502.8047, 3.026482
503.2868, 2.454605
503.7689, 2.201797
504.2510, 2.502678
504.7331, 3.043518
505.2152, 3.253403
505.6974, 3.093155
506.1795, 2.842590
506.6616, 2.466209
507.1437, 2.103348
507.6258, 1.849823
508.1079, 1.698227
508.5901, 1.607796
509.0722, 1.636139
509.5543, 1.675926
510.0364, 1.522766
510.5185, 1.180420
511.0006, 0.8987960
511.4828, 0.7853240
511.9649, 0.8153310
512.4470, 0.9555590
512.9291, 1.242302
513.4113, 1.493782
513.8934, 1.757576
514.3755, 1.905594
514.8576, 1.695297
515.3397, 1.169006
515.8218, 0.7082750
516.3040, 0.5961990
516.7861, 0.7948990
517.2682, 1.031494
517.7503, 1.468575
518.2324, 1.734795
518.7145, 1.675751
519.1967, 1.504410
519.6788, 1.383141
520.1609, 0.8752290
520.6430, 1.401649
521.1251, 1.712097
521.6072, 1.818176
522.0894, 1.108170
522.5715, 1.451698
523.0536, 1.372826
523.5357, 1.276527
524.0178, 1.767944
524.4999, 1.175987
524.9821, 1.657829
525.4642, 1.710854
525.9463, 1.959633
526.4284, 1.780319
526.9105, 1.646805
527.3926, 1.430237
527.8748, 1.206627
528.3569, 1.010094
528.8390, 0.8597640
529.3211, 0.8080900
529.8032, 1.031815
530.2853, 1.172043
530.7675, 0.8956150
531.2496, 0.4049910
531.7317, 0.1150130
532.2138, 0.1468890
532.6959, 0.3055340
533.1780, 0.3535840
533.6602, 0.2717740
534.1423, 0.1444090
534.6244, 4.7263999E-02
535.1065, 0.1669240
535.5886, 0.1745300
536.0707, 0.1457370
536.5529, 0.1795960
537.0350, 0.3263320
537.5171, 0.5504910
537.9992, 0.8070830
538.4813, 1.168892
538.9634, 1.168488
539.4456, 0.4000470
539.9277, 0.3180240
540.4098, 0.5729370
540.8919, 0.5084150
541.3740, 0.4341200
541.8561, 0.4890440
542.3383, 0.5434190
542.8204, 0.3737260
543.3025, 1.5861999E-02
543.7846, 0.1792070
544.2667, 0.1105120
544.7488, 0.1155170
545.2310, 0.4508210
545.7131, 0.8776020
546.1952, 1.210945
546.6773, 1.381813
547.1594, 1.487656
547.6415, 1.598351
548.1237, 1.694641
548.6058, 1.676445
549.0879, 1.494499
549.5700, 1.339684
550.0521, 1.569374
550.5342, 2.441269
551.0164, 2.897400
551.4985, 2.460793
551.9806, 2.157745
552.4627, 2.592072
552.9448, 3.465004
553.4269, 4.172134
553.9091, 4.422951
554.3912, 4.423676
554.8733, 4.534782
555.3554, 4.783600
555.8375, 4.940720
556.3196, 4.829788
556.8018, 4.795654
557.2839, 5.142502
557.7660, 5.736923
558.2481, 6.192780
558.7302, 6.275597
559.2123, 6.278389
559.6945, 6.601967
560.1766, 7.136581
560.6587, 7.355118
561.1408, 7.057419
561.6229, 6.519127
562.1050, 6.002823
562.5872, 5.482819
563.0693, 5.326691
563.5514, 6.038017
564.0335, 6.612953
564.5156, 6.417664
564.9977, 5.746956
565.4799, 5.140198
565.9620, 4.816490
566.4441, 4.673264
566.9262, 4.555565
567.4083, 4.459290
567.8904, 4.404961
568.3726, 4.508698
568.8547, 4.530518
569.3368, 4.276016
569.8189, 3.912842
570.3010, 3.736015
570.7831, 3.874245
571.2653, 4.105713
571.7474, 4.156906
572.2295, 4.053566
572.7116, 4.018860
573.1937, 4.120209
573.6758, 4.211868
574.1580, 4.096130
574.6401, 3.861397
575.1222, 3.850319
575.6043, 4.385689
576.0864, 4.819214
576.5685, 4.691368
577.0507, 4.289841
577.5328, 4.094109
578.0149, 4.220680
578.4970, 4.498192
578.9791, 4.770050
579.4612, 5.044716
579.9434, 5.105247
580.4255, 4.603836
580.9076, 4.298683
581.3897, 4.520523
581.8718, 4.906700
582.3539, 5.046852
582.8361, 4.856972
583.3182, 4.569672
583.8003, 4.377670
584.2824, 4.280273
584.7645, 4.305290
585.2466, 4.517525
585.7288, 4.661751
586.2108, 4.511276
586.6929, 4.263672
587.1750, 4.218536
587.6572, 4.438660
588.1393, 4.679535
588.6214, 4.970268
589.1035, 5.140121
589.5856, 4.857933
590.0677, 4.159286
590.5499, 3.486732
591.0320, 3.110710
591.5141, 2.976318
591.9962, 2.896744
592.4783, 2.818954
592.9604, 2.871811
593.4426, 3.269043
593.9247, 3.635773
594.4068, 3.615898
594.8889, 3.301498
595.3710, 3.090912
595.8531, 3.278610
596.3353, 3.649261
596.8174, 3.708580
597.2995, 3.443909
597.7816, 3.235069
598.2637, 3.047829
598.7458, 3.012207
599.2280, 3.338799
599.7101, 3.944008
600.1922, 4.366585
600.6743, 4.288498
601.1564, 4.107872
601.6385, 4.138863
602.1207, 4.359550
602.6028, 4.703545
603.0849, 5.164268
603.5670, 5.587990
604.0491, 5.752388
604.5313, 5.609894
605.0134, 5.451286
605.4955, 5.204895
605.9776, 5.035835
606.4597, 5.149185
606.9418, 5.304161
607.4240, 5.114090
607.9061, 4.506393
608.3882, 3.895790
608.8703, 3.866875
609.3524, 4.355438
609.8345, 4.455566
610.3167, 4.033623
610.7988, 3.551056
611.2809, 3.245392
611.7630, 2.979256
612.2451, 2.507301
612.7272, 1.738625
613.2094, 1.267982
613.6915, 1.611748
614.1736, 2.264771
614.6557, 2.574402
615.1378, 2.530861
615.6199, 2.480446
616.1021, 2.630928
616.5842, 2.921143
617.0663, 3.176659
617.5484, 3.368782
618.0305, 3.591049
618.5126, 3.830772
618.9948, 4.071342
619.4769, 4.373108
619.9590, 4.693405
620.4411, 4.910454
620.9232, 4.937683
621.4053, 4.949913
621.8875, 5.242813
622.3696, 5.805672
622.8517, 6.343292
623.3338, 6.820656
623.8159, 7.251007
624.2980, 7.532829
624.7802, 7.762787
625.2623, 8.290543
625.7444, 9.563866
626.2265, 10.60994
626.7086, 10.74834
627.1907, 10.49991
627.6729, 10.60735
628.1550, 11.19826
628.6371, 11.95708
629.1192, 12.62586
629.6013, 13.20412
630.0834, 13.67291
630.5656, 13.96825
631.0477, 14.26132
631.5298, 14.65620
632.0119, 14.98753
632.4940, 15.14568
632.9761, 15.15329
633.4583, 15.17737
633.9404, 15.33099
634.4225, 15.49023
634.9046, 15.56196
635.3867, 15.54269
635.8688, 15.32153
636.3510, 14.79570
636.8331, 14.22548
637.3152, 13.97662
637.7973, 14.09764
638.2794, 13.92423
638.7615, 13.32652
639.2437, 12.56590
639.7258, 11.61516
640.2079, 10.62145
640.6900, 9.790039
641.1721, 9.164177
641.6542, 8.639626
642.1364, 8.124352
642.6185, 7.613579
643.1006, 7.029449
643.5827, 6.288055
644.0648, 5.666489
644.5469, 5.324821
645.0291, 5.111710
645.5112, 4.904526
645.9933, 4.694839
646.4754, 4.515793
646.9575, 4.446007
647.4396, 4.370491
647.9218, 4.189293
648.4039, 3.893387
648.8860, 3.435905
649.3681, 2.779892
649.8502, 2.074501
650.3323, 1.522842
650.8145, 1.102997
651.2966, 0.9477160
651.7787, 1.361008
652.2608, 1.676865
652.7429, 1.652321
653.2250, 1.434868
653.7072, 1.199791
654.1893, 0.9961780
654.6714, 0.8112560
655.1535, 0.6066820
655.6356, 0.4107210
656.1177, 0.3319550
656.5999, 0.3841930
657.0820, 0.4665910
657.5641, 0.5416640
658.0462, 0.6121290
658.5283, 0.7218400
659.0104, 0.9284970
659.4926, 0.9046780
659.9747, 0.3345260
660.4568, 0.2235340
660.9389, 0.4105610
661.4210, 0.3147050
661.9031, 0.1171570
662.3853, 0.1033330
662.8674, 0.2718660
663.3495, 0.2172090
663.8316, 9.3307003E-02
664.3137, 7.1998999E-02
664.7958, 0.5219420
665.2780, 1.008179
665.7601, 1.023949
666.2422, 0.7982330
666.7243, 0.5683360
667.2064, 0.3620910
667.6885, 0.1392210
668.1707, 0.2569350
668.6528, 0.5878600
669.1349, 0.4755170
669.6170, 1.3275000E-02
670.0991, 0.3303830
670.5812, 0.3287050
671.0634, 0.1786880
671.5455, 0.2400360
672.0276, 0.6150670
672.5097, 0.8120570
672.9918, 0.7203750
673.4739, 0.5669400
673.9561, 0.3714370
674.4382, 0.1706470
674.9203, 3.1562999E-02
675.4024, 0.2321930
675.8845, 0.2995830
676.3666, 2.6931999E-02
676.8488, 0.5205990
677.3309, 0.6455760
677.8130, 0.3826450
678.2951, 8.5083000E-02
678.7772, 0.1040650
679.2593, 0.1765820
679.7415, 0.1759030
680.2236, 5.0322998E-02
680.7057, 6.0295001E-02
681.1878, 0.2095030
681.6699, 0.2943040
682.1520, 0.1770100
682.6342, 1.6945001E-02
683.1163, 9.9022001E-02
683.5984, 1.6632000E-02
684.0805, 0.1231310
684.5626, 0.2310710
685.0447, 0.3019560
685.5269, 0.3040010
686.0090, 0.1571880
686.4911, 0.1077500
686.9732, 0.3502960
687.4553, 0.6690220
687.9374, 0.5814210
688.4196, 3.9909001E-02
688.9017, 0.2409520
689.3838, 0.1318660
689.8659, 0.5098190
690.3480, 0.2982940
690.8301, 0.1749730
691.3123, 0.3119810
691.7944, 5.8113001E-02
692.2765, 0.5409320
692.7586, 0.6623610
693.2407, 0.4552000
693.7228, 0.4071730
694.2050, 0.6105190
694.6871, 0.7226560
695.1692, 0.4748080
695.6513, 0.1707690
696.1334, 0.1464610
696.6155, 0.4036410
697.0977, 0.6706010
697.5798, 1.003868
698.0619, 1.190735
698.5440, 0.9410480
699.0261, 0.4643480
699.5082, 0.1296230
699.9904, 4.9575999E-02
700.4725, 0.1916580
700.9546, 0.5675960
701.4367, 1.145081
701.9188, 1.401741
702.4009, 1.128166
702.8831, 0.9500500
703.3652, 1.180092
703.8473, 1.473663
704.3294, 1.478386
704.8115, 1.265495
705.2936, 1.154655
705.7758, 1.398376
706.2579, 1.668846
706.7400, 1.665161
707.2221, 1.487968
707.7042, 1.331192
708.1863, 1.247307
708.6685, 1.278473
709.1506, 1.490227
709.6327, 1.840393
710.1148, 1.996834
710.5969, 1.810600
711.0790, 1.702568
711.5612, 1.851006
712.0433, 1.981110
712.5254, 1.857582
713.0075, 1.562393
713.4896, 1.385490
713.9717, 1.512177
714.4539, 1.653870
714.9360, 1.451622
715.4181, 1.090195
715.9002, 1.065063
716.3823, 1.433609
716.8644, 1.731964
717.3466, 1.591888
717.8287, 1.165169
718.3108, 1.005356
718.7929, 1.278824
719.2750, 1.528877
719.7571, 1.841644
720.2393, 2.035553
720.7214, 1.870537
721.2035, 1.549332
721.6856, 1.491737
722.1677, 1.893745
722.6498, 2.305458
723.1320, 2.260857
723.6141, 1.977264
724.0962, 1.956505
724.5783, 2.210785
725.0604, 2.330734
725.5425, 2.080734
726.0247, 1.589394
726.5068, 1.118835
726.9889, 0.6328810
727.4710, 0.4175030
727.9531, 0.6779020
728.4352, 0.9129330
728.9174, 0.9879610
729.3995, 0.9290310
729.8816, 0.6846620
730.3637, 0.2611010
730.8458, 3.3394001E-02
731.3279, 0.4938050
731.8101, 1.198616
732.2922, 1.355560
732.7743, 1.034302
733.2564, 0.8000790
733.7385, 0.8805540
734.2206, 1.083687
734.7028, 1.134933
735.1849, 1.031090
735.6670, 0.7975460
736.1491, 0.1033170
736.6312, 0.2950130
737.1133, 1.6998000E-02
737.5955, 0.4637450
738.0776, 0.4918060
738.5597, 0.1308900
739.0418, 0.1391070
739.5239, 6.6760001E-03
740.0060, 0.2525940
740.4882, 0.3327710
740.9703, 0.2723080
741.4524, 0.1742170
741.9345, 5.6419000E-02
742.4166, 2.7969001E-02
742.8987, 0.4264450
743.3809, 0.2328870
743.8630, 0.6038360
744.3451, 0.7022400
744.8272, 0.2862850
745.3093, 0.1300660
745.7914, 1.6594000E-02
746.2736, 0.1882100
746.7557, 0.4065550
747.2378, 0.4249420
747.7199, 0.1764140
748.2020, 0.2056660
748.6841, 0.4812010
749.1663, 0.1816410
749.6484, 7.9581998E-02
750.1305, 0.5461430
750.6126, 0.6989210
751.0947, 0.3586650
751.5768, 0.6666640
752.0590, 0.1836470
752.5411, 1.7509000E-02
753.0232, 0.3511580
753.5053, 0.5854570
753.9874, 0.7720030
754.4695, 0.9578480
754.9517, 1.031570
755.4338, 0.7752000
755.9159, 0.1901250
756.3980, 0.2294010
756.8801, 0.1869130
757.3622, 6.7374997E-02
757.8444, 0.3648830
758.3265, 0.6754990
758.8086, 1.004120
759.2907, 1.326881
759.7728, 1.359589
760.2549, 0.7287370
760.7371, 0.3719410
761.2192, 0.6376190
761.7013, 0.3573680
762.1834, 1.033012
762.6655, 0.8685840
763.1476, 0.5692900
763.6298, 0.6242370
764.1119, 0.9225010
764.5940, 1.154488
765.0761, 1.287758
765.5582, 1.285332
766.0403, 1.043800
766.5225, 0.7143020
767.0046, 0.3911900
767.4867, 0.1344910
767.9688, 0.1179500
768.4509, 0.4375920
768.9330, 0.8342290
769.4152, 0.7970960
769.8973, 0.2974550
770.3794, 0.1642680
770.8615, 0.5585780
771.3436, 0.9225460
771.8257, 1.007210
772.3079, 0.9313890
772.7900, 0.8340230
773.2721, 0.7031170
773.7542, 0.7001800
774.2363, 1.042206
774.7184, 1.306595
775.2006, 1.173233
775.6827, 0.8885730
776.1648, 0.7895810
776.6469, 0.9242550
777.1290, 1.117294
777.6111, 1.234253
778.0933, 1.316864
778.5754, 1.504631
779.0575, 1.788338
779.5396, 1.870354
780.0217, 1.647942
780.5038, 1.378853
780.9860, 1.248825
781.4681, 1.237053
781.9502, 1.254250
782.4323, 1.361847
782.9144, 1.395432
783.3965, 1.255165
783.8787, 1.131599
784.3608, 1.065567
784.8429, 1.114075
785.3250, 1.447433
785.8071, 2.122490
786.2892, 2.663292
786.7714, 2.503502
787.2535, 2.005623
787.7356, 1.855736
788.2177, 2.033600
788.6998, 2.238914
789.1819, 2.372536
789.6641, 2.421410
790.1462, 2.344276
790.6283, 2.142601
791.1104, 2.125977
791.5925, 2.458443
792.0746, 2.699287
792.5568, 2.686440
793.0389, 2.635353
793.5210, 2.744766
794.0031, 2.947975
794.4852, 2.963341
794.9673, 2.601761
795.4495, 2.341843
795.9316, 2.639954
796.4137, 3.130455
796.8958, 3.304550
797.3779, 3.193405
797.8600, 3.115486
798.3422, 3.238731
798.8243, 3.432442
799.3064, 3.487984
799.7885, 3.403198
800.2706, 3.200157
800.7527, 2.830498
801.2349, 3.202095
801.7170, 3.429649
802.1991, 3.521126
802.6812, 3.053535
803.1633, 3.304153
803.6454, 3.271477
804.1276, 3.219788
804.6097, 3.568932
805.0918, 2.749908
805.5739, 2.379135
806.0560, 2.358299
806.5381, 2.668564
807.0203, 2.982956
807.5024, 3.127304
807.9845, 3.140808
808.4666, 2.985832
808.9487, 2.738228
809.4308, 2.761635
809.9130, 3.096451
810.3951, 3.327911
810.8772, 3.176018
811.3593, 2.836777
811.8414, 2.711639
812.3235, 2.860138
812.8057, 2.998764
813.2878, 3.153809
813.7699, 3.261429
814.2520, 3.289101
814.7341, 3.269699
815.2162, 3.211700
815.6984, 3.117462
816.1805, 3.046593
816.6626, 3.008514
817.1447, 3.015541
817.6268, 3.111343
818.1089, 3.250603
818.5911, 3.381233
819.0732, 3.472832
819.5553, 3.491661
820.0374, 3.303047
820.5195, 3.005592
821.0016, 2.742310
821.4838, 2.518074
821.9659, 2.472404
822.4480, 2.680305
822.9301, 2.886261
823.4122, 2.916893
823.8943, 2.910316
824.3765, 3.104843
824.8586, 3.602562
825.3407, 3.823792
825.8228, 3.500259
826.3049, 3.201187
826.7870, 3.156494
827.2692, 3.208084
827.7513, 2.799103
828.2334, 3.268555
828.7155, 3.519333
829.1976, 3.564621
829.6797, 2.793846
830.1619, 3.076584
830.6440, 2.937004
831.1261, 2.782608
831.6082, 3.222771
832.0903, 2.585434
832.5724, 3.023407
833.0546, 3.027321
833.5367, 3.221565
834.0188, 2.985199
834.5009, 2.879852
834.9830, 3.199387
835.4651, 3.287140
835.9473, 3.013084
836.4294, 3.220695
836.9115, 2.556168
837.3936, 2.612457
837.8757, 2.634537
838.3578, 2.950020
838.8400, 3.171799
839.3221, 3.127014
839.8042, 2.939606
840.2863, 2.622673
840.7684, 2.286171
841.2505, 2.211571
841.7327, 2.556999
842.2148, 2.966805
842.6969, 3.000137
843.1790, 2.788300
843.6611, 2.697205
844.1432, 2.722916
844.6254, 2.609680
845.1075, 2.224205
845.5896, 1.872566
846.0717, 1.958130
846.5538, 2.452293
847.0359, 2.742081
847.5181, 2.801903
848.0002, 2.745621
848.4823, 2.525574
848.9644, 2.223152
849.4465, 1.755783
849.9286, 1.257355
850.4108, 1.147171
850.8929, 1.692802
851.3750, 2.160728
851.8571, 2.320244
852.3392, 2.304237
852.8214, 2.063339
853.3035, 1.742996
853.7856, 1.705681
854.2677, 2.035164
854.7498, 2.268677
855.2319, 1.806946
855.7141, 1.030502
856.1962, 0.8756790
856.6783, 1.245949
857.1604, 1.424187
857.6425, 1.210625
858.1246, 1.041885
858.6068, 1.339020
859.0889, 1.927193
859.5710, 2.083611
860.0531, 1.537743
860.5352, 1.288322
861.0173, 1.652664
861.4995, 1.929420
861.9816, 1.611313
862.4637, 1.134621
862.9458, 1.148102
863.4279, 1.739487
863.9100, 2.143295
864.3922, 1.977676
864.8743, 1.774887
865.3564, 1.837677
865.8385, 2.039261
866.3206, 2.240944
866.8027, 2.376541
867.2849, 2.347046
867.7670, 2.053413
868.2491, 1.686157
868.7312, 1.505196
869.2133, 1.448807
869.6954, 1.302742
870.1776, 1.067131
870.6597, 0.9658810
871.1418, 1.104759
871.6239, 1.392075
872.1060, 1.753036
872.5881, 2.183670
873.0703, 2.159645
873.5524, 1.367508
874.0345, 0.9379580
874.5166, 1.356079
874.9987, 1.937416
875.4808, 2.235352
875.9630, 2.260147
876.4451, 1.969711
876.9272, 0.2669830
877.4093, 1.246758
877.8914, 1.800453
878.3735, 1.950943
878.8557, 0.4913640
879.3378, 1.110191
879.8199, 0.8956910
880.3020, 0.6467440
880.7841, 1.557304
881.2662, 0.3304440
881.7484, 1.221992
882.2305, 1.267509
882.7126, 1.699860
883.1947, 1.293732
883.6768, 1.146255
884.1589, 1.837006
884.6411, 0.9511950
885.1232, 0.6714170
885.6053, 0.6941150
886.0874, 1.027367
886.5695, 1.375839
887.0516, 1.804344
887.5338, 1.914436
888.0159, 1.434074
888.4980, 0.7594680
888.9801, 0.3299560
889.4622, 0.1451490
889.9443, 0.1064910
890.4265, 0.2363280
890.9086, 0.4784850
891.3907, 1.143898
891.8728, 1.614349
892.3549, 1.303673
892.8370, 0.5777280
893.3192, 0.1915590
893.8013, 0.3457570
894.2834, 0.5128780
894.7655, 0.4175800
895.2476, 0.2462390
895.7297, 0.1296390
896.2119, 5.7877000E-02
896.6940, 1.2894000E-02
897.1761, 1.6791999E-02
897.6582, 6.3675001E-02
898.1403, 0.1638720
898.6224, 0.2538680
899.1046, 0.1937100
899.5867, 2.7984999E-02
900.0688, 1.7402999E-02
900.5509, 7.3661998E-02
901.0330, 7.0037998E-02
901.5151, 0.1607890
901.9973, 0.4033660
902.4794, 0.3002620
902.9615, 0.1491240
903.4436, 0.2762450
903.9257, 0.1051790
904.4078, 0.3125990
904.8900, 9.5062003E-02
905.3721, 0.1921160
905.8542, 0.2847670
906.3363, 0.2314830
906.8184, 0.1805040
907.3005, 0.1382980
907.7827, 8.7325998E-02
908.2648, 5.2406002E-02
908.7469, 0.1146930
909.2290, 7.9848997E-02
909.7111, 0.3404920
910.1932, 0.4137950
910.6754, 0.2873080
911.1575, 0.1557240
911.6396, 8.0665998E-02
912.1217, 8.4633000E-02
912.6038, 0.2414780
913.0859, 0.4566570
913.5681, 0.6351390
914.0502, 0.7442020
914.5323, 0.7072980
915.0144, 0.4963990
915.4965, 0.2607500
915.9786, 0.1776660
916.4607, 0.2128220
916.9428, 0.2757340
917.4249, 0.3607180
917.9070, 0.3783110
918.3892, 0.3019260
918.8713, 0.2089160
919.3534, 0.1564560
919.8355, 0.1448750
920.3176, 0.1942060
920.7997, 0.3481220
921.2819, 0.3735120
921.7640, 0.1548840
922.2461, 4.2358000E-02
922.7282, 0.3528590
923.2103, 0.6892170
923.6924, 0.4579700
924.1746, 0.2993850
924.6567, 0.7898790
925.1388, 0.8564610
925.6209, 0.8271100
926.1030, 0.7176670
926.5851, 0.5681230
927.0673, 0.3344800
927.5494, 0.1038440
928.0315, 2.3094000E-02
928.5136, 0.1293720
928.9957, 0.3415530
929.4778, 0.6230770
929.9600, 0.9857030
930.4421, 1.677872
930.9242, 2.343445
931.4063, 2.250633
931.8884, 1.509644
932.3705, 1.041771
932.8527, 1.387299
933.3348, 1.993759
933.8169, 2.124466
934.2990, 1.955856
934.7811, 1.905876
935.2632, 2.029533
935.7454, 2.366982
936.2275, 2.935669
936.7096, 3.545135
937.1917, 4.054726
937.6738, 4.434982
938.1559, 4.553246
938.6381, 4.366859
939.1202, 4.341454
939.6023, 4.607758
940.0844, 4.834488
940.5665, 4.807671
941.0486, 4.719276
941.5308, 4.881500
942.0129, 5.320198
942.4950, 5.744560
942.9771, 6.099869
943.4592, 6.527313
943.9413, 7.141403
944.4235, 7.740227
944.9056, 8.190437
945.3877, 8.536903
945.8698, 8.897018
946.3519, 9.313271
946.8340, 9.589920
947.3162, 9.445282
947.7983, 9.423264
948.2804, 9.940933
948.7625, 10.65572
949.2446, 11.19458
949.7267, 11.52560
950.2089, 11.77523
950.6910, 11.95281
951.1731, 12.19939
951.6552, 12.75720
952.1373, 13.37592
952.6194, 13.74743
953.1016, 13.90356
953.5837, 13.90662
954.0658, 13.81943
954.5479, 13.91835
955.0300, 14.51417
955.5121, 15.26754
955.9943, 15.43562
956.4764, 15.20803
956.9585, 15.42205
957.4406, 16.13696
957.9227, 16.73163
958.4048, 16.90573
958.8870, 16.96946
959.3691, 17.35393
959.8512, 18.00359
960.3333, 18.51697
960.8154, 18.85836
961.2975, 19.14243
961.7797, 19.36504
962.2618, 19.71723
962.7439, 20.33602
963.2260, 21.13139
963.7081, 21.96103
964.1902, 22.85725
964.6724, 23.66975
965.1545, 24.14892
965.6366, 24.96146
966.1187, 26.55241
966.6008, 28.25432
967.0829, 29.45240
967.5651, 30.34369
968.0472, 31.56299
968.5293, 33.24487
969.0114, 35.04115
969.4935, 36.99734
969.9756, 38.94874
970.4578, 40.76807
970.9399, 42.57588
971.4220, 44.54160
971.9041, 46.65221
972.3862, 48.76319
972.8683, 50.82287
973.3505, 52.89193
973.8326, 54.81909
974.3147, 56.91987
974.7968, 59.66710
975.2789, 62.71773
975.7610, 65.41938
976.2432, 67.67149
976.7253, 69.93819
977.2074, 72.55745
977.6895, 75.21972
978.1716, 77.73370
978.6537, 79.97031
979.1359, 81.80022
979.6180, 83.20423
980.1001, 84.08836
980.5822, 84.42125
981.0643, 84.41936
981.5464, 84.34566
982.0286, 84.13120
982.5107, 83.69691
982.9928, 82.96347
983.4749, 81.41700
983.9570, 79.03122
984.4391, 76.45974
984.9213, 74.05647
985.4034, 71.58232
985.8855, 68.63000
986.3676, 65.27255
986.8497, 62.23627
987.3318, 59.53208
987.8140, 57.02431
988.2961, 54.69313
988.7782, 52.55268
989.2603, 50.65077
989.7424, 48.85179
990.2245, 46.84003
990.7067, 44.57990
991.1888, 42.33998
991.6709, 39.94181
992.1530, 37.99605
992.6351, 36.92401
993.1172, 35.90469
993.5994, 34.13352
994.0815, 31.96577
994.5636, 30.55331
995.0457, 30.30383
995.5278, 29.65820
996.0099, 28.16451
996.4921, 26.86080
996.9742, 26.20271
997.4563, 25.67281
997.9384, 24.69524
998.4205, 23.46552
998.9026, 22.77451
999.3848, 23.06474
999.8669, 23.00136
1000.349, 21.99371
1000.831, 20.96777
1001.313, 20.32674
1001.795, 19.92802
1002.277, 19.67745
1002.760, 19.50377
1003.242, 19.20264
1003.724, 18.67540
1004.206, 18.10795
1004.688, 17.53225
1005.170, 17.00092
1005.652, 16.43762
1006.134, 16.00298
1006.617, 16.05318
1007.099, 16.52340
1007.581, 16.80586
1008.063, 16.49950
1008.545, 16.17464
1009.027, 16.47807
1009.509, 16.85012
1009.991, 16.55241
1010.473, 15.82026
1010.956, 15.19250
1011.438, 14.82822
1011.920, 14.72291
1012.402, 14.96331
1012.884, 15.24406
1013.366, 15.12090
1013.848, 14.80074
1014.330, 14.60247
1014.813, 14.55043
1015.295, 14.73997
1015.777, 15.17297
1016.259, 15.51080
1016.741, 15.44495
1017.223, 15.14581
1017.705, 14.86884
1018.187, 14.58694
1018.669, 14.31047
1019.152, 14.05840
1019.634, 13.82838
1020.116, 13.60854
1020.598, 13.45783
1021.080, 13.50424
1021.562, 13.58210
1022.044, 13.07988
1022.526, 12.09044
1023.008, 11.59682
1023.491, 11.68270
1023.973, 11.75440
1024.455, 11.56548
1024.937, 11.19541
1025.419, 10.68098
1025.901, 10.08655
1026.383, 9.705750
1026.865, 9.543861
1027.348, 9.572876
1027.830, 9.865601
1028.312, 9.846344
1028.794, 9.192574
1029.276, 8.306892
1029.758, 7.657806
1030.240, 7.245667
1030.722, 7.187622
1031.204, 7.658997
1031.687, 7.634125
1032.169, 6.805862
1032.651, 6.101112
1033.133, 5.989914
1033.615, 6.150230
1034.097, 6.181870
1034.579, 6.093010
1035.061, 6.012009
1035.544, 5.961159
1036.026, 5.854416
1036.508, 5.641426
1036.990, 5.454796
1037.472, 5.383408
1037.954, 5.341187
1038.436, 5.196136
1038.918, 4.955162
1039.401, 4.823936
1039.883, 4.909691
1040.365, 4.905464
1040.847, 4.736053
1041.329, 4.550468
1041.811, 4.412125
1042.293, 4.292328
1042.775, 4.132751
1043.257, 3.937614
1043.740, 3.848061
1044.222, 4.006142
1044.704, 4.050850
1045.186, 3.864319
1045.668, 3.677086
1046.150, 3.375473
1046.632, 3.464401
1047.114, 3.977531
1047.596, 4.275154
1048.079, 4.368843
1048.561, 3.646935
1049.043, 3.978981
1049.525, 3.889069
1050.007, 3.782166
1050.489, 4.263481
1050.971, 3.661850
1051.453, 4.134468
1051.936, 3.343979
1052.418, 3.185509
1052.900, 2.980232
1053.382, 2.734367
1053.864, 2.388138
1054.346, 2.067787
1054.828, 1.898438
1055.310, 1.751007
1055.792, 1.379478
1056.275, 0.8485110
1056.757, 0.6353530
1057.239, 1.078850
1057.721, 1.357994
1058.203, 1.080704
1058.685, 0.7744370
1059.167, 0.7338560
1059.649, 0.8215030
1060.131, 0.9012070
1060.614, 0.9424130
1061.096, 0.9017870
1061.578, 0.7394560
1062.060, 0.5714870
1062.542, 0.3932950
1063.024, 0.2715680
1063.506, 0.3119130
1063.988, 0.3815230
1064.471, 0.3173140
1064.953, 0.1382600
1065.435, 3.7528999E-02
1065.917, 0.2126540
1066.399, 0.2626340
1066.881, 7.9570003E-03
1067.363, 0.2482070
1067.845, 0.2221220
1068.328, 8.1313998E-02
1068.810, 1.7010000E-03
1069.292, 3.8010001E-02
1069.774, 0.1334300
1070.256, 0.3253860
1070.738, 0.5258940
1071.220, 0.7986640
1071.702, 0.9470250
1072.184, 0.7260550
1072.667, 0.4236910
1073.149, 0.3287580
1073.631, 0.4190030
1074.113, 0.6018940
1074.595, 0.8765110
1075.077, 0.9487950
1075.559, 0.4450800
1076.041, 6.0649998E-03
1076.523, 4.8283000E-02
1077.006, 0.2317160
1077.488, 0.1549870
1077.970, 7.5263999E-02
1078.452, 0.1438750
1078.934, 2.5962999E-02
1079.416, 0.2585640
1079.898, 0.5907710
1080.380, 0.7951200
1080.862, 0.7288360
1081.345, 0.4846500
1081.827, 1.0269000E-02
1082.309, 0.4770050
1082.791, 0.5811270
1083.273, 0.2965700
1083.755, 0.1133270
1084.237, 0.3184590
1084.719, 0.5540770
1085.202, 0.6627810
1085.684, 0.7360840
1086.166, 0.8050580
1086.648, 0.8913840
1087.130, 0.7985080
1087.612, 1.338692
1088.094, 1.652969
1088.576, 1.759075
1089.058, 1.048706
1089.541, 1.392712
1090.023, 1.317688
1090.505, 1.226868
1090.987, 1.716106
1091.469, 1.122135
1091.951, 1.602150
1092.433, 1.657410
1092.915, 1.912056
1093.397, 1.734806
1093.880, 1.688751
1094.362, 2.067768
1094.844, 2.211483
1095.326, 1.993950
1095.808, 2.279655
1096.290, 1.680344
1096.772, 1.834141
1097.254, 2.316868
1097.737, 2.115810
1098.219, 2.390759
1098.701, 2.177288
1099.183, 2.440498
1099.665, 2.577225
1100.147, 2.482132
1100.629, 2.221134
1101.111, 1.899998
1101.594, 1.521549
1102.076, 1.313606
1102.558, 1.390610
1103.040, 1.552155
1103.522, 1.862808
1104.004, 2.113251
1104.486, 2.106762
1104.968, 1.971104
1105.450, 1.878418
1105.932, 1.835979
1106.415, 1.948494
1106.897, 2.457142
1107.379, 2.810196
1107.861, 2.793121
1108.343, 2.704746
1108.825, 2.666393
1109.307, 2.677147
1109.789, 2.688000
1110.272, 2.717068
1110.754, 2.932274
1111.236, 3.616001
1111.718, 3.971371
1112.200, 3.606186
1112.682, 3.300423
1113.164, 3.387100
1113.646, 3.595108
1114.129, 3.658924
1114.611, 3.640091
1115.093, 3.772877
1115.575, 4.150570
1116.057, 4.397778
1116.539, 4.439880
1117.021, 4.474789
1117.503, 4.634258
1117.985, 4.679405
1118.468, 4.343376
1118.950, 3.839527
1119.432, 3.592484
1119.914, 3.630131
1120.396, 3.637257
1120.878, 3.630802
1121.360, 3.554016
1121.842, 3.380722
1122.324, 3.164631
1122.807, 2.872673
1123.289, 2.637882
1123.771, 2.671085
1124.253, 2.918415
1124.735, 2.907269
1125.217, 2.516953
1125.699, 2.295368
1126.181, 2.367008
1126.664, 2.263168
1127.146, 1.722038
1127.628, 1.225693
1128.110, 1.258457
1128.592, 1.612267
1129.074, 1.667049
1129.556, 1.397453
1130.038, 1.155491
1130.521, 0.9268610
1131.003, 0.8587950
1131.485, 0.9877970
1131.967, 1.252956
1132.449, 1.671799
1132.931, 1.958408
1133.413, 1.553429
1133.895, 0.6063160
1134.377, 0.2722430
1134.859, 0.5177960
1135.342, 0.5111350
1135.824, 0.1504710
1136.306, 5.4770999E-02
1136.788, 0.1232300
1137.270, 0.3513490
1137.752, 0.2808760
1138.234, 5.4549999E-03
1138.716, 0.3670650
1139.199, 0.7303730
1139.681, 0.4999050
1140.163, 0.2041660
1140.645, 0.5606880
1141.127, 0.3736230
1141.609, 0.1105160
1142.091, 9.6419998E-02
1142.573, 0.1452790
1143.056, 6.5757997E-02
1143.538, 0.3631710
1144.020, 0.3880460
1144.502, 0.2077830
1144.984, 3.4958001E-02
1145.466, 0.2841490
1145.948, 0.4459110
1146.430, 0.4804530
1146.912, 0.4533310
1147.395, 0.3294140
1147.877, 0.2839280
1148.359, 0.7160990
1148.841, 1.213554
1149.323, 1.030148
1149.805, 0.4616390
1150.287, 0.3337330
1150.769, 0.7659720
1151.251, 1.117092
1151.734, 1.057453
1152.216, 0.8193240
1152.698, 0.3028600
1153.180, 6.6940002E-02
1153.662, 0.2861210
1154.144, 0.8569830
1154.626, 0.9064370
1155.108, 0.5400010
1155.591, 0.3874590
1156.073, 0.6550790
1156.555, 0.8806340
1157.037, 0.8884390
1157.519, 0.8419080
1158.001, 0.8078120
1158.483, 0.7434540
1158.965, 0.5336910
1159.448, 0.3081670
1159.930, 0.3080020
1160.412, 0.5488090
1160.894, 0.7762340
1161.376, 1.125233
1161.858, 1.201534
1162.340, 0.6118280
1162.822, 0.2068180
1163.304, 0.5045890
1163.786, 0.9130020
1164.269, 0.8304370
1164.751, 0.4218710
1165.233, 0.2678490
1165.715, 0.4510460
1166.197, 0.5199810
1166.679, 0.4137270
1167.161, 0.3749160
1167.643, 0.4952280
1168.126, 0.5642700
1168.608, 0.4268720
1169.090, 0.2398380
1169.572, 0.2403140
1170.054, 0.4236640
1170.536, 0.7959560
1171.018, 1.378944
1171.500, 1.628769
1171.983, 1.488914
1172.465, 1.372322
1172.947, 1.427338
1173.429, 1.387703
1173.911, 1.007942
1174.393, 0.4946520
1174.875, 0.1831210
1175.357, 7.7450000E-02
1175.839, 0.2312660
1176.322, 0.5993960
1176.804, 1.094322
1177.286, 1.645168
1177.768, 1.944492
1178.250, 1.859562
1178.732, 1.664566
1179.214, 1.643749
1179.696, 1.623848
1180.178, 1.278378
1180.661, 0.8405040
1181.143, 0.6308210
1181.625, 0.6502910
1182.107, 0.9416240
1182.589, 1.417923
1183.071, 1.660347
1183.553, 1.375916
1184.035, 1.097507
1184.518, 1.222759
1185.000, 1.427399
1185.482, 1.524548
1185.964, 1.545956
1186.446, 1.508808
1186.928, 1.440220
1187.410, 1.377888
1187.892, 1.327713
1188.375, 1.319710
1188.857, 1.416569
1189.339, 1.475071
1189.821, 1.432583
1190.303, 1.381672
1190.785, 1.359398
1191.267, 1.361652
1191.749, 1.402096
1192.231, 1.442875
1192.714, 1.431126
1193.196, 1.351402
1193.678, 1.236355
1194.160, 1.050526
1194.642, 0.9471360
1195.124, 0.9703250
1195.606, 1.017864
1196.088, 1.037720
1196.570, 1.001232
1197.053, 0.8621060
1197.535, 0.6977010
1198.017, 0.7593540
1198.499, 1.009243
1198.981, 1.272522
1199.463, 1.522556
1199.945, 1.517563
1200.427, 1.201508
1200.910, 0.9423220
1201.392, 1.006886
1201.874, 1.152775
1202.356, 0.9823190
1202.838, 0.6645360
1203.320, 0.5007930
1203.802, 0.4817620
1204.284, 0.7045710
1204.766, 1.048306
1205.249, 1.054478
1205.731, 0.6406860
1206.213, 0.4063760
1206.695, 0.8124120
1207.177, 1.254135
1207.659, 1.193584
1208.141, 1.034912
1208.623, 1.191105
1209.105, 1.430744
1209.588, 1.465023
1210.070, 1.304153
1210.552, 1.027435
1211.034, 0.6108590
1211.516, 0.4469180
1211.998, 0.8122600
1212.480, 1.127949
1212.962, 1.308140
1213.445, 1.338692
1213.927, 1.082336
1214.409, 0.7885670
1214.891, 0.7132530
1215.373, 0.8343320
1215.855, 1.088493
1216.337, 1.580547
1216.819, 1.719028
1217.302, 1.430935
1217.784, 1.021767
1218.266, 0.4950900
1218.748, 0.1684530
1219.230, 0.2348020
1219.712, 0.4871250
1220.194, 0.6675530
1220.676, 0.7937850
1221.158, 1.017834
1221.641, 1.279095
1222.123, 1.178864
1222.605, 0.7796750
1223.087, 0.5421490
1223.569, 0.5706250
1224.051, 0.7040670
1224.533, 0.8614430
1225.015, 0.8872870
1225.497, 0.4314000
1225.980, 4.7440000E-02
1226.462, 7.5069003E-02
1226.944, 0.4315760
1227.426, 0.5614590
1227.908, 0.5194210
1228.390, 0.4782030
1228.872, 0.4750140
1229.354, 0.5142590
1229.837, 0.5984500
1230.319, 0.6766010
1230.801, 0.6841620
1231.283, 0.7085760
1231.765, 0.9675330
1232.247, 1.126671
1232.729, 0.7191620
1233.211, 0.1445660
1233.693, 0.1980320
1234.176, 0.8432160
1234.658, 1.126667
1235.140, 0.8440820
1235.622, 0.8243600
1236.104, 1.223640
1236.586, 1.448723
1237.068, 1.297245
1237.550, 1.078609
1238.032, 1.025238
1238.515, 1.002563
1238.997, 0.7699090
1239.479, 0.3885960
1239.961, 3.0586001E-02
1240.443, 0.2579610
1240.925, 0.1930850
1241.407, 0.1777460
1241.889, 0.5410540
1242.372, 0.7938770
1242.854, 0.9748150
1243.336, 1.108154
1243.818, 1.121593
1244.300, 0.8350330
1244.782, 0.5201640
1245.264, 0.4822390
1245.746, 0.5460590
1246.229, 0.4380800
1246.711, 0.2511220
1247.193, 0.2898750
1247.675, 0.5566180
1248.157, 0.6111640
1248.639, 0.1152690
1249.121, 0.1366920
1249.603, 0.2858050
1250.085, 0.5887830
1250.568, 0.3956570
1251.050, 0.1636310
1251.532, 0.1918600
1252.014, 0.3770410
1252.496, 0.5713650
1252.978, 0.7534100
1253.460, 0.7908900
1253.942, 0.6504140
1254.424, 0.7027050
1254.907, 0.9791640
1255.389, 1.006893
1255.871, 0.6642230
1256.353, 0.4053840
1256.835, 0.5720290
1257.317, 0.8199120
1257.799, 0.6136440
1258.281, 0.2610090
1258.764, 0.3426280
1259.246, 0.6640210
1259.728, 0.9761540
1260.210, 1.176235
1260.692, 1.138203
1261.174, 0.8666190
1261.656, 0.5550000
1262.138, 0.2537960
1262.620, 6.1562002E-02
1263.103, 1.2520000E-02
1263.585, 4.7268000E-02
1264.067, 0.4203070
1264.549, 0.7488170
1265.031, 0.6093060
1265.513, 0.2860980
1265.995, 0.1634410
1266.477, 0.2253420
1266.959, 0.3839340
1267.442, 0.7286110
1267.924, 0.8033330
1268.406, 0.6070710
1268.888, 0.4251520
1269.370, 0.3140340
1269.852, 0.2919120
1270.334, 0.3668790
1270.816, 0.4548300
1271.299, 0.4654160
1271.781, 0.4324260
1272.263, 0.4090840
1272.745, 0.3994980
1273.227, 0.4616580
1273.709, 0.5512960
1274.191, 0.5636140
1274.673, 0.4900970
1275.156, 0.3802070
1275.638, 0.2827910
1276.120, 0.2833250
1276.602, 0.5204050
1277.084, 0.7248650
1277.566, 0.7490270
1278.048, 0.6987880
1278.530, 0.5820770
1279.012, 0.4690550
1279.495, 0.4243010
1279.977, 0.4377140
1280.459, 0.5008580
1280.941, 0.6161610
1281.423, 0.5409010
1281.905, 0.1633680
1282.387, 9.5931999E-02
1282.869, 0.4658010
1283.351, 0.5972630
1283.834, 0.2612270
1284.316, 1.5057000E-02
1284.798, 0.1346970
1285.280, 0.4738770
1285.762, 0.2958030
1286.244, 0.0000000E+00
##END=



