##NAMES=Greifensteinite
##RRUFFID=R100221
##IDEAL CHEMISTRY=Ca_2_Fe^2+^_5_Be_4_(PO_4_)_6_(OH)_4_&#183;6H_2_O
##LOCALITY=Xanda mine, Virgem da Lapa, Minas Gerais, Brazil
##OWNER=RRUFF
##SOURCE=Luiz Menezes
##DESCRIPTION=Rosettes of green platy crystals on microcline and muscovite
##STATUS=The identification of this mineral has been confirmed only by single crystal X-ray diffraction.
##URL=rruff.info/R100221
177.3341, 0.0000000E+00
177.8163, 0.7780840
178.2984, 1.137009
178.7805, 1.221664
179.2626, 1.182816
179.7447, 0.9516980
180.2268, 0.7885890
180.7090, 0.8802340
181.1911, 1.383568
181.6732, 2.035004
182.1553, 1.893440
182.6374, 2.168114
183.1195, 2.555641
183.6017, 2.409752
184.0838, 2.210739
184.5659, 1.483032
185.0480, 0.4463580
185.5301, 7.2075002E-02
186.0123, 0.9998170
186.4944, 3.039398
186.9765, 3.439865
187.4586, 1.773888
187.9407, 0.2252960
188.4228, 0.3845600
188.9050, 1.207100
189.3871, 2.901260
189.8692, 3.973793
190.3513, 4.405281
190.8334, 4.290504
191.3155, 3.542290
191.7977, 2.583153
192.2798, 1.988647
192.7619, 1.775871
193.2440, 1.811333
193.7261, 2.098488
194.2082, 2.618385
194.6904, 2.689384
195.1725, 2.153900
195.6546, 1.527664
196.1367, 1.708771
196.6188, 2.630142
197.1009, 3.370476
197.5831, 2.932823
198.0652, 1.280876
198.5473, 0.8287350
199.0294, 2.113358
199.5115, 4.228615
199.9937, 5.003815
200.4758, 4.104126
200.9579, 2.875473
201.4400, 1.936211
201.9221, 1.354843
202.4042, 1.053711
202.8864, 1.079910
203.3685, 1.375992
203.8506, 1.751175
204.3327, 2.245781
204.8148, 2.643806
205.2969, 2.794609
205.7791, 2.658844
206.2612, 2.561218
206.7433, 2.570122
207.2254, 2.592804
207.7075, 2.314651
208.1896, 1.587402
208.6718, 0.9878230
209.1539, 0.9006350
209.6360, 1.461403
210.1181, 1.823395
210.6002, 1.849525
211.0823, 1.701920
211.5645, 1.956253
212.0466, 2.920715
212.5287, 3.566124
213.0108, 3.146690
213.4929, 1.223244
213.9750, 6.4010001E-03
214.4572, 0.2260510
214.9393, 0.2431560
215.4214, 0.4376220
215.9035, 0.2388920
216.3856, 5.7910001E-03
216.8678, 8.3449997E-02
217.3499, 3.2471001E-02
217.8320, 0.1732940
218.3141, 0.5890430
218.7962, 1.139381
219.2783, 1.639702
219.7605, 2.221451
220.2426, 2.503235
220.7247, 2.152634
221.2068, 0.7600480
221.6889, 9.3787998E-02
222.1710, 0.2796170
222.6532, 0.1036150
223.1353, 0.8667140
223.6174, 2.439064
224.0995, 3.691475
224.5816, 3.979019
225.0637, 2.863876
225.5459, 1.851929
226.0280, 0.7607420
226.5101, 0.1516650
226.9922, 4.9019001E-02
227.4743, 2.002129
227.9564, 4.061104
228.4386, 5.449539
228.9207, 5.911812
229.4028, 6.296700
229.8849, 6.737526
230.3670, 7.093201
230.8492, 6.807251
231.3313, 5.361771
231.8134, 4.081406
232.2955, 3.764618
232.7776, 4.750793
233.2597, 5.223854
233.7419, 5.083069
234.2240, 4.531418
234.7061, 4.040276
235.1882, 3.468575
235.6703, 3.259148
236.1524, 3.738655
236.6346, 5.499802
237.1167, 6.548393
237.5988, 6.554230
238.0809, 5.973183
238.5630, 5.907425
239.0451, 6.692726
239.5273, 7.482521
240.0094, 7.913216
240.4915, 7.794807
240.9736, 7.806190
241.4557, 7.981766
241.9378, 8.271347
242.4200, 8.579834
242.9021, 8.943573
243.3842, 9.248283
243.8663, 9.538986
244.3484, 9.918526
244.8306, 9.865967
245.3127, 9.152489
245.7948, 8.175224
246.2769, 7.554817
246.7590, 7.363007
247.2411, 7.268799
247.7233, 7.126595
248.2054, 6.835487
248.6875, 6.915092
249.1696, 7.541573
249.6517, 8.408394
250.1338, 9.023537
250.6160, 9.366531
251.0981, 9.499542
251.5802, 9.416969
252.0623, 9.035637
252.5444, 8.713181
253.0265, 8.449753
253.5087, 8.260155
253.9908, 8.144119
254.4729, 7.994339
254.9550, 8.160690
255.4371, 8.930756
255.9192, 10.46401
256.4014, 11.12392
256.8835, 10.46145
257.3656, 9.390160
257.8477, 9.077736
258.3298, 9.954483
258.8120, 10.63090
259.2941, 10.73219
259.7762, 10.22405
260.2583, 9.750740
260.7404, 9.219421
261.2225, 8.838936
261.7047, 8.872467
262.1868, 9.499710
262.6689, 10.08770
263.1510, 10.62248
263.6331, 11.08404
264.1152, 10.78913
264.5974, 9.370537
265.0795, 7.765182
265.5616, 6.914825
266.0437, 6.975098
266.5258, 7.245644
267.0079, 7.711922
267.4901, 8.330147
267.9722, 8.587311
268.4543, 8.382896
268.9364, 8.023735
269.4185, 7.767128
269.9006, 7.666870
270.3828, 7.524445
270.8649, 7.342377
271.3470, 7.056496
271.8291, 6.394005
272.3112, 5.212479
272.7933, 4.043457
273.2755, 3.227226
273.7576, 2.777931
274.2397, 2.511620
274.7218, 2.451187
275.2039, 2.544312
275.6860, 2.623962
276.1682, 2.695015
276.6503, 2.735985
277.1324, 2.684608
277.6145, 2.522797
278.0966, 2.594498
278.5787, 3.070709
279.0609, 3.618080
279.5430, 3.402206
280.0251, 2.275307
280.5072, 1.212059
280.9893, 0.8325880
281.4715, 1.174431
281.9536, 1.212708
282.4357, 0.8109970
282.9178, 0.2704470
283.3999, 0.1228560
283.8820, 0.3822480
284.3642, 0.7005230
284.8463, 1.098717
285.3284, 1.537277
285.8105, 1.364990
286.2926, 0.4224400
286.7747, 0.6481170
287.2569, 0.9716190
287.7390, 0.5662380
288.2211, 0.1189650
288.7032, 1.161491
289.1853, 2.376038
289.6674, 2.873062
290.1496, 2.623802
290.6317, 2.108513
291.1138, 1.741005
291.5959, 1.545113
292.0780, 1.495346
292.5602, 1.583290
293.0423, 1.807144
293.5244, 2.346947
294.0065, 3.226578
294.4886, 3.804222
294.9707, 3.169617
295.4529, 1.680573
295.9350, 0.5920330
296.4171, 0.3000560
296.8992, 0.5332720
297.3813, 0.9571080
297.8634, 1.548386
298.3456, 2.065376
298.8277, 2.370621
299.3098, 2.464073
299.7919, 2.258965
300.2740, 1.596329
300.7561, 0.8973920
301.2383, 0.9576570
301.7204, 1.582130
302.2025, 1.875015
302.6846, 0.5902480
303.1667, 1.187576
303.6488, 1.639549
304.1310, 0.1452560
304.6131, 1.630287
305.0952, 1.661537
305.5773, 0.5809860
306.0594, 9.9220000E-02
306.5415, 2.294365
307.0237, 4.962395
307.5058, 5.458862
307.9879, 3.256462
308.4700, 0.8043290
308.9521, 0.1522670
309.4343, 7.0183001E-02
309.9164, 0.2103040
310.3985, 0.5002520
310.8806, 0.7353820
311.3627, 0.8069760
311.8448, 0.7087940
312.3270, 0.7002110
312.8091, 1.175743
313.2912, 1.752769
313.7733, 1.979408
314.2554, 1.317574
314.7375, 0.5919340
315.2197, 9.9097997E-02
315.7018, 0.1417540
316.1839, 2.9503001E-02
316.6660, 1.382996
317.1481, 2.819633
317.6302, 3.399017
318.1124, 2.153603
318.5945, 0.9587550
319.0766, 0.3867340
319.5587, 0.3547820
320.0408, 0.5591200
320.5229, 1.197701
321.0051, 1.840714
321.4872, 2.235634
321.9693, 2.202965
322.4514, 2.177711
322.9335, 2.387634
323.4156, 2.653030
323.8978, 2.627373
324.3799, 1.898285
324.8620, 1.175743
325.3441, 0.7381590
325.8262, 0.7255780
326.3083, 0.6299970
326.7905, 0.2375950
327.2726, 0.2023390
327.7547, 0.3791280
328.2368, 0.3124690
328.7189, 4.8492000E-02
329.2010, 0.8680880
329.6832, 2.212692
330.1653, 3.197021
330.6474, 3.643280
331.1295, 3.856445
331.6116, 4.084435
332.0938, 4.360489
332.5759, 4.603188
333.0580, 4.834137
333.5401, 5.036469
334.0222, 5.104332
334.5043, 5.199074
334.9865, 4.939728
335.4686, 3.968468
335.9507, 1.808739
336.4328, 0.2040100
336.9149, 0.7949370
337.3970, 1.177238
337.8792, 0.7944490
338.3613, 0.5891270
338.8434, 2.077087
339.3255, 3.427559
339.8076, 4.721291
340.2898, 5.183548
340.7719, 4.635803
341.2540, 3.569565
341.7361, 2.535667
342.2182, 1.499260
342.7003, 0.9806290
343.1825, 1.454849
343.6646, 2.689613
344.1467, 2.979111
344.6288, 2.134850
345.1109, 1.053200
345.5930, 0.7957230
346.0752, 1.275864
346.5573, 1.331627
347.0394, 0.4312670
347.5215, 0.8504030
348.0036, 1.108727
348.4857, 0.3641740
348.9679, 0.4616390
349.4500, 0.5414430
349.9321, 0.1587140
350.4142, 0.2389980
350.8963, 1.104637
351.3784, 2.010712
351.8606, 1.696098
352.3427, 0.4916690
352.8248, 0.3859100
353.3069, 0.1562960
353.7890, 1.280197
354.2711, 1.866318
354.7533, 1.806458
355.2354, 1.454742
355.7175, 0.8296130
356.1996, 0.1469270
356.6817, 0.2140660
357.1638, 0.1450810
357.6460, 0.7123260
358.1281, 1.161552
358.6102, 1.483604
359.0923, 1.683891
359.5744, 1.480270
360.0565, 1.278282
360.5387, 1.485168
361.0208, 2.399803
361.5029, 3.384178
361.9850, 4.322876
362.4671, 5.147507
362.9492, 5.832458
363.4314, 6.336113
363.9135, 6.725166
364.3956, 6.998314
364.8777, 6.999535
365.3598, 7.245667
365.8419, 7.954407
366.3241, 8.947632
366.8062, 9.937996
367.2883, 10.95963
367.7704, 11.95734
368.2526, 12.87008
368.7347, 13.66383
369.2168, 14.58788
369.6989, 15.94009
370.1810, 17.24522
370.6631, 18.09296
371.1453, 17.88530
371.6274, 18.11848
372.1095, 19.10390
372.5916, 20.72819
373.0737, 22.21291
373.5558, 23.58040
374.0380, 24.79166
374.5201, 25.83392
375.0022, 26.71587
375.4843, 27.35130
375.9664, 27.73370
376.4485, 27.87058
376.9307, 27.70454
377.4128, 27.14498
377.8949, 26.68012
378.3770, 26.60640
378.8591, 26.88953
379.3412, 26.79464
379.8234, 26.27657
380.3055, 25.54240
380.7876, 24.81790
381.2697, 24.09303
381.7518, 23.31080
382.2339, 22.51006
382.7161, 21.60626
383.1982, 20.03561
383.6803, 17.85289
384.1624, 16.27780
384.6445, 16.99769
385.1266, 19.00291
385.6088, 19.70687
386.0909, 18.53683
386.5730, 16.65870
387.0551, 15.16229
387.5372, 14.01128
388.0193, 13.07833
388.5015, 12.26023
388.9836, 11.65925
389.4657, 11.58032
389.9478, 12.06206
390.4299, 12.27467
390.9120, 11.32892
391.3942, 9.884666
391.8763, 8.770538
392.3584, 8.603218
392.8405, 8.517204
393.3226, 8.018997
393.8047, 7.202156
394.2869, 6.494446
394.7690, 6.006905
395.2511, 5.666542
395.7332, 5.480331
396.2154, 5.511154
396.6975, 5.560013
397.1796, 5.768044
397.6617, 5.946220
398.1438, 5.773773
398.6259, 4.415009
399.1081, 3.471916
399.5902, 3.572845
400.0723, 4.925537
400.5544, 5.888496
401.0365, 6.488235
401.5186, 6.675743
402.0008, 6.350365
402.4829, 5.089554
402.9650, 4.110596
403.4471, 3.575554
403.9292, 3.420235
404.4113, 3.427780
404.8935, 3.695152
405.3756, 3.869835
405.8577, 3.732513
406.3398, 3.262993
406.8219, 3.083359
407.3040, 3.226997
407.7862, 3.584961
408.2683, 4.227005
408.7504, 5.182053
409.2325, 5.462982
409.7146, 4.275261
410.1967, 2.297981
410.6789, 1.770760
411.1610, 2.786896
411.6431, 4.031891
412.1252, 4.362854
412.6073, 4.025291
413.0894, 3.650711
413.5716, 3.319305
414.0537, 3.116493
414.5358, 3.285126
415.0179, 3.709976
415.5000, 3.992813
415.9821, 3.983704
416.4643, 3.802368
416.9464, 3.281059
417.4285, 2.325623
417.9106, 1.867897
418.3927, 3.146095
418.8748, 5.034172
419.3570, 6.173538
419.8391, 5.236366
420.3212, 4.403427
420.8033, 4.833122
421.2854, 6.284340
421.7675, 7.454590
422.2497, 7.628532
422.7318, 7.645309
423.2139, 7.991760
423.6960, 8.838463
424.1781, 9.670197
424.6602, 10.43965
425.1424, 11.13226
425.6245, 11.74491
426.1066, 12.22615
426.5887, 12.67721
427.0709, 13.01160
427.5530, 13.22921
428.0351, 13.94543
428.5172, 15.49280
428.9993, 17.09328
429.4814, 18.12285
429.9636, 18.36647
430.4457, 18.89406
430.9278, 19.89033
431.4099, 21.11943
431.8920, 22.08355
432.3741, 22.77807
432.8563, 23.30180
433.3384, 23.61262
433.8205, 23.76163
434.3026, 24.10503
434.7847, 24.65953
435.2668, 25.28301
435.7490, 25.88630
436.2311, 26.45171
436.7132, 26.92308
437.1953, 27.38086
437.6774, 27.60423
438.1595, 27.12652
438.6417, 26.09441
439.1238, 25.11459
439.6059, 24.74638
440.0880, 24.51842
440.5701, 23.89391
441.0522, 22.76844
441.5344, 21.55408
442.0165, 20.36250
442.4986, 19.27827
442.9807, 18.41251
443.4628, 18.12392
443.9449, 17.74490
444.4271, 16.97440
444.9092, 15.86604
445.3913, 14.73631
445.8734, 13.51694
446.3555, 12.43121
446.8376, 11.62476
447.3198, 11.32607
447.8019, 10.86273
448.2840, 9.959038
448.7661, 8.996422
449.2482, 8.534355
449.7303, 8.890289
450.2125, 9.238342
450.6946, 9.553276
451.1767, 9.790077
451.6588, 9.112396
452.1409, 7.054886
452.6230, 5.150536
453.1052, 4.704086
453.5873, 5.851379
454.0694, 6.569748
454.5515, 6.637184
455.0337, 6.352898
455.5158, 6.198792
455.9979, 6.160339
456.4800, 6.043671
456.9621, 5.642075
457.4442, 5.139503
457.9264, 5.079681
458.4085, 5.443703
458.8906, 5.708450
459.3727, 5.361565
459.8548, 4.655594
460.3369, 3.944321
460.8191, 3.185875
461.3012, 2.703880
461.7833, 3.124130
462.2654, 4.002121
462.7475, 4.412231
463.2296, 3.465408
463.7118, 2.344757
464.1939, 1.667130
464.6760, 1.467415
465.1581, 1.490097
465.6402, 2.111160
466.1223, 2.649353
466.6045, 2.613976
467.0866, 0.8213810
467.5687, 0.1595380
468.0508, 0.4559630
468.5329, 1.904655
469.0150, 2.439087
469.4972, 1.257088
469.9793, 0.3819120
470.4614, 0.6254350
470.9435, 2.079071
471.4256, 2.815735
471.9077, 2.753845
472.3899, 2.141617
472.8720, 0.9772490
473.3541, 0.8430630
473.8362, 2.119057
474.3183, 2.662666
474.8004, 2.642456
475.2826, 2.256454
475.7647, 1.527016
476.2468, 0.7709580
476.7289, 8.2291000E-02
477.2110, 0.8046720
477.6931, 0.6781850
478.1753, 0.2967610
478.6574, 1.234787
479.1395, 1.231659
479.6216, 0.7747730
480.1037, 0.6379010
480.5858, 1.281525
481.0680, 1.792564
481.5501, 1.446381
482.0322, 0.5132220
482.5143, 0.4440230
482.9964, 1.456635
483.4786, 2.228432
483.9607, 2.548462
484.4428, 2.374016
484.9249, 2.186005
485.4070, 1.993950
485.8892, 1.872696
486.3713, 1.879822
486.8534, 2.066093
487.3355, 2.298370
487.8176, 2.538765
488.2997, 2.833969
488.7819, 3.277031
489.2640, 3.841454
489.7461, 4.663536
490.2282, 6.088448
490.7103, 8.016449
491.1924, 8.202049
491.6746, 6.238815
492.1567, 4.211876
492.6388, 4.303970
493.1209, 6.220245
493.6030, 7.280098
494.0851, 7.001221
494.5673, 6.141731
495.0494, 5.591103
495.5315, 5.344635
496.0136, 5.404419
496.4957, 6.041992
496.9778, 6.823021
497.4600, 7.348579
497.9421, 7.609421
498.4242, 7.587334
498.9063, 7.016151
499.3884, 6.304893
499.8705, 5.827965
500.3527, 5.782990
500.8348, 5.672653
501.3169, 5.231697
501.7990, 4.648743
502.2811, 4.186218
502.7632, 4.140961
503.2454, 3.956978
503.7275, 3.289474
504.2096, 2.232864
504.6917, 1.884674
505.1738, 2.883987
505.6559, 3.730820
506.1381, 3.433640
506.6202, 1.447037
507.1023, 0.6507030
507.5844, 1.379868
508.0665, 2.694878
508.5486, 3.326645
509.0308, 3.261047
509.5129, 3.169380
509.9950, 3.193497
510.4771, 3.329155
510.9592, 3.713097
511.4413, 4.294083
511.9235, 4.616524
512.4056, 4.080048
512.8877, 3.218513
513.3698, 2.859993
513.8519, 3.088264
514.3340, 3.461998
514.8162, 3.921280
515.2983, 4.245102
515.7804, 4.135887
516.2625, 2.917664
516.7446, 2.002617
517.2267, 2.224388
517.7089, 3.181900
518.1910, 3.889687
518.6731, 4.265953
519.1552, 4.241302
519.6373, 3.548111
520.1194, 2.060989
520.6016, 1.266632
521.0837, 1.432724
521.5658, 1.998215
522.0479, 2.605026
522.5300, 3.269310
523.0121, 3.938797
523.4943, 4.723000
523.9764, 5.357933
524.4585, 5.142189
524.9406, 4.052376
525.4227, 3.326813
525.9048, 3.684418
526.3870, 4.649948
526.8691, 5.093948
527.3513, 5.044594
527.8334, 4.901848
528.3155, 4.870193
528.7976, 4.965714
529.2797, 5.303467
529.7618, 5.971725
530.2440, 6.490387
530.7261, 6.308151
531.2082, 5.734680
531.6903, 5.254227
532.1724, 5.229546
532.6545, 5.230186
533.1367, 5.168221
533.6188, 5.063118
534.1009, 4.916855
534.5830, 4.065636
535.0651, 3.805267
535.5472, 4.828720
536.0294, 7.427124
536.5115, 8.882797
536.9936, 8.773766
537.4757, 8.282791
537.9578, 8.357635
538.4399, 9.049820
538.9221, 9.627365
539.4042, 10.04835
539.8863, 10.46426
540.3684, 11.00795
540.8505, 11.64365
541.3326, 12.51340
541.8148, 13.85311
542.2969, 15.35037
542.7790, 16.42328
543.2611, 17.11099
543.7432, 17.76435
544.2253, 18.62096
544.7075, 19.56380
545.1896, 20.51660
545.6717, 21.50164
546.1538, 22.30932
546.6359, 22.37805
547.1180, 22.40960
547.6002, 23.15041
548.0823, 25.73353
548.5644, 27.93496
549.0465, 28.97034
549.5286, 29.32858
550.0107, 30.47765
550.4929, 33.15913
550.9750, 35.49205
551.4571, 36.63162
551.9392, 36.57183
552.4213, 37.77288
552.9034, 40.65998
553.3856, 43.49586
553.8677, 44.68565
554.3498, 44.37550
554.8319, 44.33829
555.3140, 44.77423
555.7961, 45.42110
556.2783, 46.07344
556.7604, 46.67062
557.2425, 47.03833
557.7246, 47.17390
558.2067, 46.98870
558.6888, 46.33006
559.1710, 45.26587
559.6531, 44.02201
560.1352, 42.89651
560.6173, 41.48615
561.0994, 39.42894
561.5815, 36.59248
562.0637, 33.98087
562.5458, 31.79162
563.0279, 29.90412
563.5100, 28.20855
563.9921, 26.86166
564.4742, 25.39240
564.9564, 23.64528
565.4385, 21.88593
565.9206, 20.69199
566.4027, 20.24629
566.8848, 19.44949
567.3669, 17.80384
567.8491, 15.68645
568.3312, 14.44778
568.8133, 14.06248
569.2954, 13.75787
569.7775, 13.12012
570.2596, 12.20718
570.7418, 10.95327
571.2239, 9.323303
571.7060, 8.058510
572.1881, 7.958092
572.6702, 8.420357
573.1523, 8.853424
573.6345, 9.448532
574.1166, 9.372643
574.5987, 7.475739
575.0808, 4.876305
575.5629, 3.404648
576.0450, 4.619286
576.5272, 5.612137
577.0093, 5.762253
577.4914, 5.201958
577.9735, 4.802490
578.4556, 4.655449
578.9377, 4.486137
579.4199, 4.059135
579.9020, 3.368996
580.3841, 3.229210
580.8662, 3.736771
581.3483, 4.280396
581.8304, 4.104294
582.3126, 3.433083
582.7947, 3.128075
583.2768, 3.486694
583.7589, 3.825928
584.2410, 3.251205
584.7231, 2.135338
585.2053, 1.216682
585.6874, 1.056633
586.1696, 0.9427030
586.6517, 0.3023380
587.1338, 0.6830520
587.6159, 1.194008
588.0980, 0.6445080
588.5801, 8.9226000E-02
589.0623, 0.6331630
589.5444, 0.9369660
590.0265, 1.391479
590.5086, 2.313828
590.9907, 2.983017
591.4728, 2.587875
591.9550, 0.8228300
592.4371, 0.1435850
592.9192, 1.012924
593.4013, 2.353111
593.8834, 2.515419
594.3655, 1.720001
594.8477, 1.056564
595.3298, 0.8834530
595.8119, 0.8978650
596.2940, 0.7206420
596.7761, 0.4852370
597.2582, 0.6651920
597.7404, 1.876976
598.2225, 3.232117
598.7046, 4.221298
599.1867, 4.842316
599.6688, 5.257805
600.1509, 5.579048
600.6331, 5.683197
601.1152, 5.404953
601.5973, 4.299469
602.0794, 3.746605
602.5615, 3.943810
603.0436, 4.539490
603.5258, 5.239609
604.0079, 6.044746
604.4900, 6.753151
604.9721, 7.401909
605.4542, 7.763832
605.9363, 7.262817
606.4185, 6.042953
606.9006, 4.983711
607.3827, 4.485985
607.8648, 4.263039
608.3469, 4.078850
608.8290, 3.884834
609.3112, 3.544868
609.7933, 2.618454
610.2754, 1.823181
610.7575, 1.875122
611.2396, 2.998260
611.7217, 3.753273
612.2039, 3.477867
612.6860, 2.841034
613.1681, 2.328522
613.6502, 1.803474
614.1323, 1.714775
614.6144, 2.375938
615.0966, 3.203964
615.5787, 3.247566
616.0608, 2.342796
616.5429, 1.731888
617.0250, 1.812241
617.5071, 2.231903
617.9893, 2.032700
618.4714, 1.325615
618.9535, 0.9746400
619.4356, 1.754303
619.9177, 2.965286
620.3998, 3.768486
620.8820, 4.168816
621.3641, 4.361603
621.8462, 3.823471
622.3283, 3.558044
622.8104, 4.576767
623.2925, 7.542831
623.7747, 9.595276
624.2568, 9.186012
624.7389, 8.304955
625.2210, 8.627861
625.7031, 11.07817
626.1852, 12.66261
626.6674, 12.97346
627.1495, 12.62326
627.6316, 12.48679
628.1137, 12.55817
628.5958, 13.04593
629.0779, 14.17216
629.5601, 15.55926
630.0422, 16.48625
630.5243, 17.00186
631.0064, 17.37093
631.4885, 17.55843
631.9706, 17.79061
632.4528, 18.32275
632.9349, 19.13643
633.4170, 19.97832
633.8991, 20.97664
634.3812, 21.78768
634.8633, 22.22652
635.3455, 22.25321
635.8276, 21.90911
636.3097, 20.89459
636.7918, 19.79620
637.2739, 19.22010
637.7560, 19.46632
638.2382, 18.93505
638.7203, 17.26060
639.2024, 15.23599
639.6845, 14.01866
640.1666, 13.54509
640.6487, 13.41079
641.1309, 13.79571
641.6130, 14.01652
642.0951, 12.83471
642.5772, 10.67069
643.0594, 8.760933
643.5415, 7.732235
644.0236, 7.100643
644.5057, 6.781799
644.9879, 6.688377
645.4700, 6.238846
645.9521, 4.771626
646.4342, 3.446945
646.9163, 2.845032
647.3984, 3.127441
647.8806, 2.993874
648.3627, 2.131626
648.8448, 1.307274
649.3269, 1.318996
649.8090, 2.164814
650.2911, 2.217281
650.7733, 1.234303
651.2554, 7.1530002E-03
651.7375, 0.7978020
652.2196, 1.126678
652.7017, 0.8664630
653.1838, 0.4282760
653.6660, 1.507465
654.1481, 1.005402
654.6302, 0.3201410
655.1123, 1.137806
655.5944, 0.5151520
656.0765, 0.1654930
656.5587, 0.5472680
657.0408, 0.6437720
657.5229, 0.5470540
658.0050, 1.0311000E-02
658.4871, 0.2757150
658.9692, 0.1060750
659.4514, 1.040955
659.9335, 1.117496
660.4156, 0.2393460
660.8977, 0.6960330
661.3798, 1.084984
661.8619, 1.026134
662.3441, 0.6144980
662.8262, 0.1618270
663.3083, 0.6329270
663.7904, 0.1524700
664.2725, 1.328861
664.7546, 1.932236
665.2368, 1.642288
665.7189, 1.114559
666.2010, 0.2796750
666.6831, 0.5541500
667.1652, 1.003731
667.6473, 0.5956800
668.1295, 0.6082840
668.6116, 1.346241
669.0937, 2.394520
669.5758, 2.942039
670.0579, 2.962334
670.5400, 2.743919
671.0222, 2.254883
671.5043, 1.702675
671.9864, 1.522854
672.4685, 1.671421
672.9506, 1.934238
673.4327, 2.366184
673.9149, 2.728870
674.3970, 2.778206
674.8791, 2.539230
675.3612, 2.234325
675.8433, 1.890137
676.3254, 1.551579
676.8076, 1.193531
677.2897, 0.7710690
677.7718, 0.6735080
678.2539, 1.101799
678.7360, 1.578648
679.2181, 1.742786
679.7003, 1.545963
680.1824, 1.604622
680.6645, 2.005508
681.1466, 2.375683
681.6287, 1.947189
682.1108, 1.162445
682.5930, 1.513195
683.0751, 3.709171
683.5572, 5.638290
684.0393, 5.163685
684.5214, 3.401779
685.0035, 1.948704
685.4857, 1.218605
685.9678, 0.9623030
686.4499, 1.408737
686.9320, 2.264210
687.4141, 2.864513
687.8962, 3.009090
688.3784, 3.307671
688.8605, 4.080338
689.3426, 5.026199
689.8247, 4.937714
690.3068, 3.790436
690.7889, 2.701214
691.2711, 2.222168
691.7532, 2.210419
692.2353, 2.802570
692.7174, 3.762608
693.1995, 4.238529
693.6816, 3.746239
694.1638, 3.131710
694.6459, 3.003246
695.1280, 3.425995
695.6101, 3.969238
696.0922, 4.801140
696.5743, 5.499458
697.0565, 5.831074
697.5386, 5.721272
698.0207, 5.549648
698.5028, 5.278839
698.9849, 5.027447
699.4670, 4.958496
699.9492, 5.043774
700.4313, 4.971714
700.9135, 4.695503
701.3956, 4.328751
701.8777, 3.728916
702.3598, 3.184460
702.8419, 3.338913
703.3240, 5.031761
703.8062, 6.086658
704.2883, 4.410851
704.7704, 1.669338
705.2525, 0.3238790
705.7346, 2.250088
706.2167, 3.705444
706.6989, 4.158943
707.1810, 4.009857
707.6631, 4.195786
708.1452, 4.811104
708.6273, 5.162682
709.1094, 4.914551
709.5916, 4.340504
710.0737, 4.271866
710.5558, 4.640720
711.0379, 4.951843
711.5200, 4.707302
712.0021, 4.314320
712.4843, 4.066395
712.9664, 3.932621
713.4485, 3.907635
713.9306, 4.002510
714.4127, 4.124123
714.8948, 4.292419
715.3770, 4.512421
715.8591, 4.479195
716.3412, 4.103432
716.8233, 3.686493
717.3054, 3.289162
717.7875, 2.908939
718.2697, 2.985954
718.7518, 3.512955
719.2339, 3.902061
719.7160, 3.480339
720.1981, 2.684555
720.6802, 2.169712
721.1624, 1.986290
721.6445, 1.951054
722.1266, 2.058014
722.6087, 2.202538
723.0908, 2.305317
723.5729, 2.235458
724.0551, 2.425594
724.5372, 3.037403
725.0193, 3.715748
725.5014, 4.158375
725.9835, 4.363785
726.4656, 4.304531
726.9478, 3.899120
727.4299, 3.431065
727.9120, 3.452503
728.3941, 3.763237
728.8762, 3.673275
729.3583, 2.800182
729.8405, 1.886341
730.3226, 1.408482
730.8047, 1.338802
731.2868, 1.641636
731.7689, 3.153313
732.2510, 4.046032
732.7332, 3.464390
733.2153, 2.092575
733.6974, 1.244274
734.1795, 1.037052
734.6616, 1.058861
735.1437, 1.218460
735.6259, 1.530540
736.1080, 2.307777
736.5901, 3.436096
737.0722, 3.902042
737.5543, 2.369610
738.0364, 0.5824970
738.5186, 0.9558720
739.0007, 2.889538
739.4828, 4.311882
739.9649, 4.124348
740.4470, 3.430557
740.9291, 2.418480
741.4113, 1.185852
741.8934, 0.6318890
742.3755, 1.059258
742.8576, 1.631176
743.3397, 2.064926
743.8218, 2.359814
744.3040, 2.475159
744.7861, 2.404865
745.2682, 2.309673
745.7503, 2.495522
746.2324, 2.641758
746.7145, 1.988548
747.1967, 0.5873530
747.6788, 0.4167520
748.1609, 0.4765630
748.6430, 1.314735
749.1251, 0.2891240
749.6072, 3.566021
750.0894, 4.661217
750.5715, 0.8819620
751.0536, 3.093964
751.5357, 3.952290
752.0178, 1.324596
752.4999, 0.3307340
752.9821, 1.130424
753.4642, 2.511131
753.9463, 3.826389
754.4284, 4.774269
754.9105, 4.452473
755.3926, 2.600868
755.8748, 0.9850460
756.3569, 0.8175350
756.8390, 1.344784
757.3211, 1.933334
757.8032, 2.593475
758.2853, 3.038868
758.7675, 3.216415
759.2496, 3.222626
759.7318, 3.063412
760.2139, 2.676445
760.6960, 2.691139
761.1781, 3.255898
761.6602, 3.877441
762.1423, 3.799469
762.6245, 3.320847
763.1066, 3.188942
763.5887, 3.726372
764.0708, 4.324463
764.5529, 4.620739
765.0350, 4.728497
765.5172, 4.781567
765.9993, 4.690079
766.4814, 4.717342
766.9635, 5.019638
767.4456, 5.334869
767.9277, 5.266838
768.4099, 4.735664
768.8920, 4.378704
769.3741, 4.368591
769.8562, 4.382408
770.3383, 3.636375
770.8204, 2.521313
771.3026, 2.197624
771.7847, 3.548264
772.2668, 4.795689
772.7489, 4.390068
773.2310, 3.182220
773.7131, 2.513454
774.1953, 3.189713
774.6774, 3.764301
775.1595, 4.109451
775.6416, 4.253784
776.1237, 4.205265
776.6058, 3.933491
777.0880, 3.688416
777.5701, 3.493916
778.0522, 3.420914
778.5343, 3.610516
779.0164, 4.024139
779.4985, 4.591614
779.9807, 5.914669
780.4628, 6.598755
780.9449, 4.923771
781.4270, 2.086697
781.9091, 0.5451510
782.3912, 2.196583
782.8734, 3.421783
783.3555, 3.550468
783.8376, 3.036018
784.3197, 3.046032
784.8018, 3.636124
785.2839, 4.120899
785.7661, 4.374832
786.2482, 4.285782
786.7303, 3.331215
787.2124, 1.847656
787.6945, 0.7672270
788.1766, 0.5929180
788.6588, 0.8652610
789.1409, 1.792809
789.6230, 2.991425
790.1051, 3.356579
790.5872, 2.115345
791.0693, 1.087879
791.5515, 0.6285210
792.0336, 0.6207770
792.5157, 0.8837740
792.9978, 1.420311
793.4799, 1.665894
793.9620, 1.306137
794.4442, 0.6701010
794.9263, 6.0943998E-02
795.4084, 0.4390750
795.8905, 0.6134380
796.3726, 0.2493970
796.8547, 0.3438030
797.3369, 1.225254
797.8190, 2.250881
798.3011, 2.963478
798.7832, 3.328960
799.2653, 3.430012
799.7474, 3.198101
800.2296, 2.779243
800.7117, 2.513691
801.1938, 2.408127
801.6759, 2.545200
802.1580, 3.039066
802.6401, 3.709621
803.1223, 4.614655
803.6044, 5.538555
804.0865, 5.906174
804.5686, 4.826324
805.0507, 3.916832
805.5328, 3.941422
806.0150, 4.512402
806.4971, 4.420273
806.9792, 3.374672
807.4613, 2.409088
807.9434, 2.120777
808.4255, 2.451061
808.9077, 2.360229
809.3898, 1.909534
809.8719, 1.563946
810.3540, 1.531662
810.8361, 1.689030
811.3182, 2.130924
811.8004, 2.668152
812.2825, 2.853073
812.7646, 2.119343
813.2467, 1.644405
813.7288, 1.641541
814.2109, 2.033142
814.6931, 2.691055
815.1752, 3.658482
815.6573, 4.611439
816.1394, 5.618164
816.6215, 6.316177
817.1037, 5.828541
817.5858, 4.533085
818.0679, 3.396263
818.5500, 2.210831
819.0322, 1.978489
819.5143, 4.471607
819.9964, 8.082970
820.4785, 9.275654
820.9606, 6.347557
821.4427, 3.878735
821.9249, 2.404198
822.4070, 1.889065
822.8891, 2.794464
823.3712, 4.927109
823.8533, 6.088017
824.3354, 5.405483
824.8176, 4.055264
825.2997, 2.967758
825.7818, 2.237114
826.2639, 2.045269
826.7460, 3.124527
827.2281, 3.934090
827.7103, 3.825981
828.1924, 3.397358
828.6745, 3.548397
829.1566, 4.578968
829.6387, 4.961464
830.1208, 4.321064
830.6030, 3.310360
831.0851, 2.839138
831.5672, 2.824612
832.0493, 3.147457
832.5314, 4.015881
833.0135, 4.597778
833.4957, 3.772617
833.9778, 2.591583
834.4599, 2.252048
834.9420, 4.068081
835.4241, 5.018379
835.9063, 4.927589
836.3884, 4.317799
836.8705, 3.627670
837.3526, 2.787315
837.8347, 2.407314
838.3168, 2.651585
838.7990, 3.017357
839.2811, 2.782131
839.7632, 2.408363
840.2453, 2.666847
840.7274, 4.016754
841.2095, 4.860191
841.6917, 4.135246
842.1738, 3.080868
842.6559, 2.673710
843.1380, 3.124184
843.6201, 3.426414
844.1022, 3.587448
844.5844, 3.605755
845.0665, 3.400448
845.5486, 3.061794
846.0307, 2.802391
846.5128, 2.638630
846.9949, 2.624016
847.4771, 3.023418
847.9592, 3.438019
848.4413, 3.495781
848.9234, 3.041187
849.4055, 2.824131
849.8876, 2.986221
850.3698, 3.157818
850.8519, 3.090851
851.3340, 2.823406
851.8161, 2.788921
852.2982, 2.973904
852.7803, 3.235722
853.2625, 3.705151
853.7446, 4.101898
854.2267, 3.860893
854.7088, 3.059219
855.1909, 2.868340
855.6730, 4.622211
856.1552, 5.970871
856.6373, 5.820240
857.1194, 4.463951
857.6015, 4.055290
858.0836, 4.696922
858.5657, 5.092030
859.0479, 4.406467
859.5300, 3.312374
860.0121, 3.260864
860.4942, 3.944889
860.9763, 4.255203
861.4584, 2.960392
861.9406, 1.757687
862.4227, 1.559277
862.9048, 2.161552
863.3869, 2.797821
863.8690, 3.724041
864.3511, 4.049160
864.8333, 3.217587
865.3154, 1.958511
865.7975, 2.195290
866.2796, 3.560368
866.7617, 4.453991
867.2438, 4.218948
867.7260, 3.512699
868.2081, 2.243443
868.6902, 1.003342
869.1723, 0.6949580
869.6544, 2.678555
870.1365, 3.897694
870.6187, 3.925125
871.1008, 3.490269
871.5829, 3.523960
872.0650, 3.979572
872.5471, 4.498543
873.0292, 5.089626
873.5114, 5.373501
873.9935, 4.568314
874.4756, 3.401585
874.9577, 2.873074
875.4399, 3.433979
875.9220, 3.789803
876.4041, 3.350182
876.8862, 2.826244
877.3683, 2.706352
877.8505, 3.081326
878.3326, 3.212593
878.8147, 3.072338
879.2968, 2.886116
879.7789, 2.815525
880.2610, 2.842072
880.7432, 2.951031
881.2253, 3.138447
881.7074, 3.350677
882.1895, 3.617886
882.6716, 3.854950
883.1537, 4.144833
883.6359, 4.459381
884.1180, 3.967945
884.6001, 2.390327
885.0822, 1.188919
885.5643, 1.272503
886.0464, 2.098591
886.5286, 2.402725
887.0107, 2.281868
887.4928, 2.134285
887.9749, 2.189327
888.4570, 2.252399
888.9391, 2.360527
889.4213, 2.396027
889.9034, 1.975384
890.3855, 0.8115270
890.8676, 0.1614880
891.3497, 0.8523600
891.8318, 1.122543
892.3140, 0.3085980
892.7961, 1.219978
893.2782, 1.885742
893.7603, 0.7842450
894.2424, 0.2902150
894.7245, 0.2948990
895.2067, 1.548065
895.6888, 2.261078
896.1709, 1.873615
896.6530, 1.476707
897.1351, 0.9938700
897.6172, 0.6258430
898.0994, 0.6927070
898.5815, 1.113621
899.0636, 1.225475
899.5457, 0.9438320
900.0278, 0.7421070
900.5099, 1.163723
900.9921, 1.742802
901.4742, 2.082920
901.9563, 2.126419
902.4384, 1.950935
902.9205, 1.412266
903.4026, 0.8993530
903.8848, 0.6093750
904.3669, 0.5140530
904.8490, 0.3374440
905.3311, 8.5724004E-02
905.8132, 8.3145000E-02
906.2953, 0.1355320
906.7775, 1.0769000E-02
907.2596, 0.6147730
907.7417, 1.508102
908.2238, 1.875145
908.7059, 0.9090690
909.1880, 0.1106260
909.6702, 0.1349870
910.1523, 7.4867003E-02
910.6344, 0.3236890
911.1165, 0.8733220
911.5986, 1.364918
912.0807, 1.741657
912.5629, 1.920006
913.0450, 1.609558
913.5271, 1.103626
914.0092, 0.8628010
914.4913, 1.322784
914.9734, 1.488594
915.4556, 0.9628790
915.9377, 0.3274770
916.4198, 0.1190380
916.9019, 0.3625370
917.3840, 0.6710210
917.8661, 1.055172
918.3483, 1.193810
918.8304, 0.4574050
919.3125, 0.4905620
919.7946, 0.7967910
920.2767, 0.3756900
920.7589, 0.1380200
921.2410, 1.007072
921.7231, 1.433392
922.2052, 0.9277650
922.6873, 0.3511770
923.1694, 0.9862710
923.6516, 0.9691700
924.1337, 0.9074550
924.6158, 1.221428
925.0979, 1.532627
925.5800, 1.205147
926.0621, 0.4682310
926.5443, 0.1027830
927.0264, 6.7818001E-02
927.5085, 9.7011998E-02
927.9906, 0.5829050
928.4727, 1.089199
928.9548, 0.7705730
929.4370, 0.4075700
929.9191, 1.436691
930.4012, 2.143211
930.8833, 2.609024
931.3654, 2.781761
931.8475, 2.827393
932.3297, 2.934235
932.8118, 3.076614
933.2939, 3.538063
933.7761, 5.030594
934.2582, 6.193298
934.7403, 5.969841
935.2224, 4.308449
935.7045, 3.783463
936.1866, 4.423653
936.6688, 5.226318
937.1509, 5.374664
937.6330, 5.382210
938.1151, 5.895248
938.5972, 6.835052
939.0793, 7.678375
939.5615, 8.211716
940.0436, 8.707390
940.5257, 9.167351
941.0078, 9.667175
941.4899, 10.50159
941.9720, 11.64815
942.4542, 12.41041
942.9363, 12.38849
943.4184, 12.41917
943.9005, 13.62790
944.3826, 15.35863
944.8647, 16.71831
945.3469, 17.10975
945.8290, 17.85967
946.3111, 19.31728
946.7932, 20.83624
947.2753, 21.73067
947.7574, 22.05873
948.2396, 22.98572
948.7217, 24.53924
949.2038, 25.94906
949.6859, 26.47613
950.1680, 26.80934
950.6501, 27.66628
951.1323, 28.97507
951.6144, 29.58480
952.0965, 28.65466
952.5786, 28.28356
953.0607, 29.32416
953.5428, 31.15276
954.0250, 31.75252
954.5071, 31.36810
954.9892, 31.48730
955.4713, 32.95918
955.9534, 34.64971
956.4355, 35.72701
956.9177, 36.47118
957.3998, 37.31071
957.8819, 38.38052
958.3640, 39.38483
958.8461, 40.22812
959.3282, 41.18924
959.8104, 42.73416
960.2925, 44.62890
960.7746, 45.91087
961.2567, 46.50860
961.7388, 47.17097
962.2209, 48.57093
962.7031, 50.06489
963.1852, 51.13044
963.6673, 51.78059
964.1494, 52.68188
964.6315, 53.79301
965.1136, 55.32718
965.5958, 57.37117
966.0779, 59.83602
966.5600, 62.80969
967.0421, 66.08054
967.5242, 69.03242
968.0063, 71.09231
968.4885, 73.31895
968.9706, 76.28133
969.4527, 79.54249
969.9348, 82.52226
970.4169, 85.00511
970.8990, 88.40295
971.3812, 92.88349
971.8633, 97.76198
972.3454, 102.4441
972.8275, 106.9357
973.3096, 111.0221
973.7917, 114.6994
974.2739, 119.3395
974.7560, 126.3099
975.2381, 133.3101
975.7202, 139.3791
976.2023, 144.7946
976.6844, 151.1976
977.1666, 158.6236
977.6487, 165.7908
978.1308, 172.1314
978.6129, 177.9446
979.0950, 183.4314
979.5771, 188.6830
980.0593, 193.9019
980.5414, 199.9972
981.0235, 204.7102
981.5056, 207.8178
981.9877, 209.8334
982.4698, 211.3530
982.9520, 212.3059
983.4341, 212.0792
983.9162, 210.6432
984.3983, 208.8365
984.8804, 207.1710
985.3625, 205.4547
985.8447, 203.6348
986.3268, 201.6591
986.8089, 199.2919
987.2910, 196.6406
987.7731, 193.2937
988.2552, 188.9073
988.7374, 184.0501
989.2195, 179.9544
989.7016, 176.3842
990.1837, 172.7709
990.6658, 168.8908
991.1479, 165.0071
991.6301, 161.4557
992.1122, 157.7890
992.5944, 153.4028
993.0765, 148.0556
993.5586, 143.8409
994.0407, 140.8908
994.5228, 138.1593
995.0049, 134.9016
995.4871, 131.2887
995.9692, 127.4962
996.4513, 123.5069
996.9334, 119.2649
997.4155, 113.9525
997.8976, 109.4578
998.3798, 106.4576
998.8619, 104.3833
999.3440, 101.9176
999.8261, 99.08661
1000.308, 95.91682
1000.790, 92.21079
1001.272, 88.86629
1001.755, 87.16285
1002.237, 85.85009
1002.719, 83.56561
1003.201, 79.73534
1003.683, 76.02079
1004.165, 72.13943
1004.647, 69.07268
1005.129, 67.97038
1005.612, 68.00267
1006.094, 66.66600
1006.576, 64.14449
1007.058, 61.21946
1007.540, 57.43857
1008.022, 54.30524
1008.504, 52.77083
1008.986, 52.13663
1009.468, 51.22415
1009.951, 49.95573
1010.433, 49.01420
1010.915, 48.68250
1011.397, 48.04561
1011.879, 45.54987
1012.361, 42.43388
1012.843, 40.25012
1013.325, 39.33262
1013.807, 38.53655
1014.290, 37.74189
1014.772, 36.91134
1015.254, 36.04336
1015.736, 35.13174
1016.218, 33.91288
1016.700, 32.51606
1017.182, 31.71671
1017.664, 32.42527
1018.147, 33.09205
1018.629, 32.59944
1019.111, 31.48746
1019.593, 30.58031
1020.075, 29.97401
1020.557, 29.35162
1021.039, 28.65237
1021.521, 28.12632
1022.003, 28.52770
1022.486, 29.04878
1022.968, 27.79092
1023.450, 24.87535
1023.932, 22.79573
1024.414, 23.33113
1024.896, 23.95986
1025.378, 23.88609
1025.860, 23.30890
1026.343, 22.83195
1026.825, 22.43379
1027.307, 21.61254
1027.789, 20.04699
1028.271, 18.62370
1028.753, 18.21946
1029.235, 18.34418
1029.717, 18.50847
1030.199, 18.71765
1030.682, 18.72254
1031.164, 18.58229
1031.646, 18.06276
1032.128, 16.58736
1032.610, 14.77367
1033.092, 14.54436
1033.574, 15.46832
1034.056, 15.96790
1034.539, 14.72259
1035.021, 13.68418
1035.503, 13.72018
1035.985, 14.11989
1036.467, 14.01408
1036.949, 13.40329
1037.431, 12.12674
1037.913, 10.08197
1038.396, 8.311653
1038.878, 7.893753
1039.360, 8.072304
1039.842, 8.280785
1040.324, 8.450829
1040.806, 8.202461
1041.288, 7.234848
1041.770, 6.601791
1042.252, 6.904762
1042.734, 7.364677
1043.217, 5.889610
1043.699, 3.275490
1044.181, 1.690926
1044.663, 2.265076
1045.145, 2.772591
1045.627, 1.751251
1046.109, 0.8401790
1046.591, 1.556961
1047.074, 4.022400
1047.556, 4.730309
1048.038, 3.680809
1048.520, 2.452095
1049.002, 2.134132
1049.484, 2.070251
1049.966, 1.634964
1050.448, 0.9918290
1050.931, 0.6360240
1051.413, 0.7148280
1051.895, 0.8799510
1052.377, 1.175766
1052.859, 1.346954
1053.341, 0.9798890
1053.823, 0.2772900
1054.305, 0.3662110
1054.787, 0.9046940
1055.270, 1.255951
1055.752, 1.570290
1056.234, 1.426758
1056.716, 0.3688280
1057.198, 1.184677
1057.680, 1.367905
1058.162, 0.2828220
1058.644, 0.4958650
1059.126, 0.3962400
1059.609, 1.6560000E-03
1060.091, 0.5226060
1060.573, 0.8689420
1061.055, 0.5419620
1061.537, 0.8916780
1062.019, 1.245972
1062.501, 0.2050550
1062.983, 0.7574310
1063.466, 0.5234760
1063.948, 0.3408740
1064.430, 0.8898470
1064.912, 1.230911
1065.394, 1.628700
1065.876, 2.648094
1066.358, 3.074287
1066.840, 2.637299
1067.323, 1.663734
1067.805, 0.2194670
1068.287, 1.521248
1068.769, 1.959129
1069.251, 0.9800720
1069.733, 0.2007450
1070.215, 1.062729
1070.697, 2.222427
1071.179, 2.812057
1071.661, 2.923569
1072.144, 3.053993
1072.626, 3.250320
1073.108, 3.104065
1073.590, 2.330544
1074.072, 1.692757
1074.554, 2.550179
1075.036, 3.965591
1075.518, 4.668449
1076.001, 4.304611
1076.483, 3.967171
1076.965, 3.651978
1077.447, 3.410484
1077.929, 3.312279
1078.411, 3.330536
1078.893, 3.463104
1079.375, 3.652054
1079.858, 3.715729
1080.340, 3.174660
1080.822, 2.954758
1081.304, 3.666237
1081.786, 4.617912
1082.268, 5.231964
1082.750, 5.500839
1083.232, 5.600029
1083.714, 5.533119
1084.197, 5.275383
1084.679, 4.271523
1085.161, 3.565948
1085.643, 4.520393
1086.125, 6.418419
1086.607, 6.810249
1087.089, 5.023026
1087.571, 3.987007
1088.054, 4.254028
1088.536, 4.893616
1089.018, 4.732414
1089.500, 4.280251
1089.982, 4.392433
1090.464, 5.170670
1090.946, 5.565277
1091.428, 4.964951
1091.911, 4.641571
1092.393, 5.169327
1092.875, 6.097420
1093.357, 6.066254
1093.839, 5.281120
1094.321, 4.364685
1094.803, 3.205742
1095.285, 2.821739
1095.767, 4.657875
1096.250, 6.598114
1096.732, 7.085388
1097.214, 6.193459
1097.696, 5.931976
1098.178, 6.264267
1098.660, 6.422470
1099.142, 6.009918
1099.624, 5.384201
1100.106, 4.241066
1100.589, 3.157410
1101.071, 3.166313
1101.553, 4.798622
1102.035, 5.830742
1102.517, 6.190483
1102.999, 6.052788
1103.481, 5.098442
1103.963, 4.033638
1104.446, 4.183220
1104.928, 3.235817
1105.410, 5.169403
1105.892, 2.617783
1106.374, 1.258270
1106.856, 1.800453
1107.338, 3.164841
1107.820, 4.202042
1108.302, 4.865913
1108.785, 4.923325
1109.267, 4.357536
1109.749, 3.987183
1110.231, 4.304268
1110.713, 4.747681
1111.195, 5.209991
1111.677, 5.550552
1112.159, 5.315758
1112.641, 4.565865
1113.124, 3.620262
1113.606, 2.476456
1114.088, 1.474670
1114.570, 0.8548130
1115.052, 0.5262830
1115.534, 0.4170990
1116.016, 0.4924240
1116.498, 0.6852110
1116.981, 0.9974520
1117.463, 1.169991
1117.945, 0.8670270
1118.427, 0.7661440
1118.909, 2.206833
1119.391, 3.959465
1119.873, 4.153824
1120.355, 1.902962
1120.838, 0.5044780
1121.320, 1.6518001E-02
1121.802, 0.1026920
1122.284, 0.8695450
1122.766, 1.832787
1123.248, 2.161888
1123.730, 1.976158
1124.212, 1.684258
1124.694, 1.404259
1125.177, 1.120804
1125.659, 0.7870100
1126.141, 0.5342860
1126.623, 0.5874250
1127.105, 0.8455960
1127.587, 1.139526
1128.069, 1.426186
1128.551, 1.464432
1129.033, 0.8863450
1129.516, 0.3644790
1129.998, 5.0841998E-02
1130.480, 8.9148998E-02
1130.962, 5.4809999E-02
1131.444, 0.1147770
1131.926, 0.2060930
1132.408, 0.1916890
1132.890, 5.7746999E-02
1133.373, 0.6387180
1133.855, 0.9929730
1134.337, 0.2532500
1134.819, 1.171890
1135.301, 1.913139
1135.783, 1.978264
1136.265, 1.574432
1136.747, 0.5566790
1137.229, 0.1211320
1137.712, 0.6808780
1138.194, 1.961548
1138.676, 2.885849
1139.158, 3.429291
1139.640, 3.606781
1140.122, 3.378944
1140.604, 3.172409
1141.086, 3.198151
1141.569, 3.266541
1142.051, 3.283779
1142.533, 3.127285
1143.015, 2.539238
1143.497, 1.171310
1143.979, 0.6057510
1144.461, 0.9811940
1144.943, 1.662773
1145.426, 2.431599
1145.908, 3.107704
1146.390, 3.503464
1146.872, 3.573544
1147.354, 3.214508
1147.836, 1.668564
1148.318, 0.9074330
1148.800, 1.298748
1149.282, 1.726959
1149.765, 0.7924390
1150.247, 0.6210170
1150.729, 0.1884880
1151.211, 1.674774
1151.693, 3.054581
1152.175, 3.127110
1152.657, 2.667587
1153.139, 1.492546
1153.621, 0.3657420
1154.104, 0.4121250
1154.586, 1.256763
1155.068, 1.726700
1155.550, 1.738354
1156.032, 1.373276
1156.514, 0.1742630
1156.996, 0.9635160
1157.478, 4.8866000E-02
1157.961, 1.552143
1158.443, 1.901852
1158.925, 1.251022
1159.407, 1.069126
1159.889, 1.575062
1160.371, 2.039509
1160.853, 1.821194
1161.335, 1.667965
1161.818, 2.203949
1162.300, 1.638088
1162.782, 2.594250
1163.264, 1.104408
1163.746, 0.1606670
1164.228, 0.1578180
1164.710, 0.4552760
1165.192, 0.8578450
1165.674, 1.149025
1166.156, 1.137287
1166.639, 0.8673100
1167.121, 0.4859430
1167.603, 1.0830000E-03
1168.085, 9.9688999E-02
1168.567, 0.4869920
1169.049, 1.085777
1169.531, 0.9203640
1170.013, 0.6115000
1170.496, 0.9816510
1170.978, 2.067314
1171.460, 2.046253
1171.942, 0.8588640
1172.424, 0.2280310
1172.906, 0.7139240
1173.388, 0.8154450
1173.870, 0.6627500
1174.353, 0.2294080
1174.835, 0.6249660
1175.317, 2.050449
1175.799, 3.059399
1176.281, 3.679699
1176.763, 3.689243
1177.245, 2.654781
1177.727, 1.281582
1178.209, 6.0833000E-02
1178.692, 1.036793
1179.174, 0.9585460
1179.656, 0.9397620
1180.138, 1.869408
1180.620, 1.648968
1181.102, 1.340572
1181.584, 1.882881
1182.066, 2.656609
1182.548, 2.871685
1183.031, 2.644688
1183.513, 2.338932
1183.995, 1.815155
1184.477, 1.787590
1184.959, 2.427437
1185.441, 3.000820
1185.923, 2.635834
1186.405, 1.965538
1186.888, 1.844509
1187.370, 2.190186
1187.852, 2.651550
1188.334, 3.383930
1188.816, 3.714252
1189.298, 3.482231
1189.780, 3.209789
1190.262, 3.588989
1190.745, 4.151283
1191.227, 4.197639
1191.709, 3.763355
1192.191, 3.171265
1192.673, 2.141529
1193.155, 1.584976
1193.637, 1.682495
1194.119, 2.128090
1194.601, 2.879910
1195.084, 3.545650
1195.566, 3.251221
1196.048, 3.828388
1196.530, 4.345303
1197.012, 3.827465
1197.494, 4.876377
1197.976, 4.196671
1198.458, 2.852470
1198.941, 2.037987
1199.423, 1.752804
1199.905, 2.299248
1200.387, 3.662197
1200.869, 4.284172
1201.351, 3.477692
1201.833, 2.684181
1202.315, 2.174580
1202.797, 2.026466
1203.280, 2.692493
1203.762, 3.686321
1204.244, 3.978439
1204.726, 3.357124
1205.208, 3.539135
1205.690, 5.655636
1206.172, 6.778599
1206.654, 5.706352
1207.136, 3.818642
1207.619, 3.501583
1208.101, 4.050808
1208.583, 4.525002
1209.065, 4.796432
1209.547, 4.609573
1210.029, 3.503208
1210.511, 2.979858
1210.993, 3.869228
1211.476, 5.129284
1211.958, 4.479454
1212.440, 3.038963
1212.922, 3.002224
1213.404, 5.239113
1213.886, 6.408794
1214.368, 5.710159
1214.850, 4.890465
1215.333, 4.842644
1215.815, 5.092991
1216.297, 4.649204
1216.779, 3.855495
1217.261, 3.305031
1217.743, 3.098263
1218.225, 3.430153
1218.707, 4.649899
1219.189, 5.401840
1219.672, 4.777679
1220.154, 3.677773
1220.636, 3.968739
1221.118, 4.924179
1221.600, 5.212971
1222.082, 4.260418
1222.564, 3.614250
1223.046, 3.356499
1223.528, 3.395569
1224.011, 3.865456
1224.493, 4.349777
1224.975, 3.968800
1225.457, 3.132111
1225.939, 2.554214
1226.421, 2.385708
1226.903, 2.836456
1227.385, 4.196037
1227.868, 5.066074
1228.350, 4.443714
1228.832, 3.135864
1229.314, 1.800060
1229.796, 0.7578010
1230.278, 0.6988410
1230.760, 2.364929
1231.242, 3.375992
1231.724, 3.699409
1232.207, 3.646351
1232.689, 3.056393
1233.171, 2.562069
1233.653, 3.379715
1234.135, 4.691864
1234.617, 5.074696
1235.099, 4.058926
1235.581, 3.043995
1236.063, 1.952812
1236.546, 1.237679
1237.028, 1.508320
1237.510, 2.201626
1237.992, 2.945698
1238.474, 3.388645
1238.956, 2.770466
1239.438, 0.5533940
1239.920, 0.1572690
1240.403, 0.7417600
1240.885, 1.722507
1241.367, 1.721672
1241.849, 1.468479
1242.331, 1.475197
1242.813, 1.720806
1243.295, 2.231682
1243.777, 3.166939
1244.260, 3.234230
1244.742, 2.438641
1245.224, 1.715546
1245.706, 1.891853
1246.188, 2.082050
1246.670, 1.374569
1247.152, 0.5104030
1247.634, 0.4941140
1248.116, 1.357571
1248.599, 2.290398
1249.081, 3.283478
1249.563, 3.913498
1250.045, 3.597931
1250.527, 3.238174
1251.009, 3.484161
1251.491, 3.764526
1251.973, 3.320385
1252.455, 2.178101
1252.938, 2.454147
1253.420, 3.958023
1253.902, 4.691059
1254.384, 2.536922
1254.866, 0.7210460
1255.348, 0.4168780
1255.830, 0.9341620
1256.313, 2.103340
1256.795, 3.657608
1257.277, 3.644321
1257.759, 2.375008
1258.241, 1.563873
1258.723, 2.635757
1259.205, 3.344421
1259.687, 3.108532
1260.169, 2.621311
1260.651, 2.422924
1261.134, 2.483650
1261.616, 2.866829
1262.098, 3.409142
1262.580, 3.562180
1263.062, 2.563835
1263.544, 2.028980
1264.026, 2.174992
1264.508, 2.587887
1264.991, 3.140331
1265.473, 3.632607
1265.955, 3.626698
1266.437, 3.157486
1266.919, 2.503029
1267.401, 1.252350
1267.883, 0.8413510
1268.365, 1.458714
1268.848, 2.245953
1269.330, 2.612488
1269.812, 2.690079
1270.294, 2.658787
1270.776, 2.522507
1271.258, 2.214142
1271.740, 1.521015
1272.222, 1.407036
1272.704, 1.859261
1273.187, 2.368164
1273.669, 2.705517
1274.151, 2.794415
1274.633, 2.433510
1275.115, 1.813110
1275.597, 1.250771
1276.079, 0.7212980
1276.561, 0.8547020
1277.043, 1.629074
1277.526, 2.300991
1278.008, 2.395103
1278.490, 2.272095
1278.972, 2.137737
1279.454, 1.853283
1279.936, 1.174839
1280.418, 0.1181450
1280.900, 0.1431200
1281.383, 0.3141170
1281.865, 0.9827580
1282.347, 1.876301
1282.829, 2.584553
1283.311, 3.237415
1283.793, 3.332226
1284.275, 1.960754
1284.757, 0.2477680
1285.240, 0.4542240
1285.722, 0.8330880
1286.204, 2.005123
1286.686, 2.524075
1287.168, 2.705116
1287.650, 2.488575
1288.132, 2.237591
1288.614, 2.140461
1289.096, 2.226604
1289.578, 2.760479
1290.061, 3.475498
1290.543, 3.835556
1291.025, 3.696426
1291.507, 3.013691
1291.989, 1.532467
1292.471, 0.5629580
1292.953, 1.063591
1293.435, 2.050858
1293.918, 2.612717
1294.400, 2.650711
1294.882, 2.100994
1295.364, 0.6822810
1295.846, 0.2048110
1296.328, 0.6813770
1296.810, 1.459896
1297.292, 2.578243
1297.775, 3.261921
1298.257, 2.249432
1298.739, 1.094173
1299.221, 1.477142
1299.703, 3.119713
1300.185, 2.968391
1300.667, 1.339939
1301.149, 8.7288000E-02
1301.631, 1.2596000E-02
1302.114, 0.1648560
1302.596, 0.0000000E+00
##END=



