##NAMES=Grossular
##RRUFFID=R040065
##IDEAL CHEMISTRY=Ca_3_Al_2_(SiO_4_)_3_
##LOCALITY=Feng Tien mine, Taiwan
##OWNER=RRUFF
##SOURCE=University of Arizona Mineral Museum
##DESCRIPTION=Orange-brown trapezohedral crystals
##STATUS=The identification of this mineral has been confirmed by X-ray diffraction and chemical analysis
##URL=rruff.info/R040065
##MEASURED CHEMISTRY=(Ca_2.90_Fe^2+^_0.05_Mn_0.05_)_Σ=3_(Al_1.95_Fe^3+^_0.03_Ti_0.02_)_Σ=2_((Si_0.99_Al_0.01_)_Σ=1_O_4_)_3_
146.5922, 0.0000000E+00
147.0743, 2.345825
147.5564, 5.127563
148.0385, 0.7370610
148.5206, 1.635376
149.0028, 0.1140140
149.4849, 6.560425
149.9670, 16.00098
150.4491, 32.62195
150.9312, 54.12683
151.4133, 66.01685
151.8955, 54.52136
152.3776, 41.84399
152.8597, 40.78882
153.3418, 64.94141
153.8239, 87.40869
154.3060, 107.4833
154.7882, 125.0038
155.2703, 131.2218
155.7524, 115.3718
156.2345, 91.48816
156.7166, 72.76355
157.1987, 63.46973
157.6808, 58.05554
158.1630, 55.75146
158.6451, 57.26050
159.1272, 57.62097
159.6093, 54.75269
160.0914, 49.84131
160.5735, 44.73071
161.0557, 36.54553
161.5378, 30.64404
162.0199, 30.98926
162.5020, 41.76904
162.9841, 50.73962
163.4662, 49.22998
163.9484, 41.47913
164.4305, 38.59229
164.9126, 52.08398
165.3947, 69.00171
165.8768, 78.28564
166.3589, 69.18188
166.8411, 62.56250
167.3232, 71.51135
167.8053, 94.08740
168.2874, 120.8811
168.7695, 145.0438
169.2516, 170.9745
169.7338, 203.7134
170.2159, 247.5359
170.6980, 297.1326
171.1801, 349.0625
171.6622, 403.5110
172.1443, 459.2695
172.6265, 517.3137
173.1086, 576.1963
173.5907, 632.4429
174.0728, 673.6616
174.5549, 717.2443
175.0370, 783.1569
175.5192, 872.3433
176.0013, 976.9550
176.4834, 1091.419
176.9655, 1216.257
177.4476, 1350.655
177.9297, 1511.303
178.4118, 1680.897
178.8940, 1834.732
179.3761, 1983.053
179.8582, 2084.368
180.3403, 2077.669
180.8224, 1968.273
181.3046, 1809.216
181.7867, 1607.050
182.2688, 1375.426
182.7509, 1153.765
183.2330, 943.7460
183.7151, 756.4502
184.1973, 598.8961
184.6794, 476.3337
185.1615, 378.0680
185.6436, 303.2487
186.1257, 250.5525
186.6078, 211.2217
187.0900, 185.6223
187.5721, 170.1143
188.0542, 156.7542
188.5363, 145.4977
189.0184, 135.7659
189.5005, 128.3481
189.9827, 122.7894
190.4648, 114.4305
190.9469, 100.2562
191.4290, 82.64514
191.9111, 69.52808
192.3932, 61.07861
192.8754, 55.93408
193.3575, 53.87183
193.8396, 54.91870
194.3217, 54.74365
194.8038, 50.09460
195.2859, 42.13391
195.7681, 41.39917
196.2502, 49.54907
196.7323, 60.36340
197.2144, 63.39038
197.6965, 57.55481
198.1786, 55.87817
198.6607, 67.30505
199.1429, 92.44849
199.6250, 107.5986
200.1071, 111.5284
200.5892, 107.7227
201.0713, 100.1583
201.5534, 87.57104
202.0356, 77.72485
202.5177, 77.76917
202.9998, 89.94788
203.4819, 89.16052
203.9640, 69.38550
204.4461, 40.58044
204.9283, 27.96912
205.4104, 36.07410
205.8925, 45.57617
206.3746, 44.47607
206.8567, 30.42725
207.3388, 18.74683
207.8210, 11.09961
208.3031, 6.590332
208.7852, 2.353516
209.2673, 1.835571
209.7494, 5.026489
210.2315, 6.151367
210.7137, 4.377197
211.1958, 3.488281
211.6779, 4.178223
212.1600, 6.114624
212.6421, 8.337646
213.1242, 12.24121
213.6064, 13.91858
214.0885, 8.516113
214.5706, 8.540283
215.0527, 18.53064
215.5348, 16.15015
216.0169, 2.487671
216.4991, 7.260986
216.9812, 12.67444
217.4633, 14.87915
217.9454, 14.07178
218.4275, 7.914429
218.9096, 4.729126
219.3917, 7.811157
219.8739, 17.37378
220.3560, 20.06177
220.8381, 12.18335
221.3202, 1.541748
221.8023, 2.785767
222.2844, 3.505371
222.7666, 6.971558
223.2487, 4.525269
223.7308, 4.110840
224.2129, 16.59644
224.6950, 34.04736
225.1771, 54.37842
225.6593, 74.08179
226.1414, 91.24512
226.6235, 111.6652
227.1056, 137.4917
227.5877, 169.4778
228.0698, 203.0287
228.5520, 239.7705
229.0341, 277.3365
229.5162, 311.8910
229.9983, 337.4255
230.4804, 369.5450
230.9625, 414.7869
231.4447, 477.3174
231.9268, 537.9739
232.4089, 597.2344
232.8910, 655.3669
233.3731, 711.4839
233.8552, 756.1208
234.3374, 813.7754
234.8195, 894.1284
235.3016, 1003.611
235.7837, 1118.169
236.2658, 1241.242
236.7479, 1368.147
237.2301, 1491.406
237.7122, 1623.685
238.1943, 1734.133
238.6764, 1810.621
239.1585, 1843.443
239.6406, 1864.564
240.1227, 1868.730
240.6049, 1861.581
241.0870, 1856.262
241.5691, 1844.673
242.0512, 1845.645
242.5333, 1866.856
243.0154, 1908.207
243.4976, 1972.489
243.9797, 2059.427
244.4618, 2166.601
244.9439, 2301.938
245.4260, 2510.800
245.9081, 2685.985
246.3903, 2778.980
246.8724, 2790.863
247.3545, 2713.938
247.8366, 2522.798
248.3187, 2244.297
248.8008, 1958.631
249.2830, 1644.302
249.7651, 1353.523
250.2472, 1115.440
250.7293, 932.2339
251.2114, 793.9260
251.6935, 707.6812
252.1757, 666.2104
252.6578, 640.6605
253.1399, 636.5587
253.6220, 640.4612
254.1041, 646.0100
254.5862, 655.8115
255.0684, 661.1448
255.5505, 660.9038
256.0326, 655.7241
256.5147, 649.0342
256.9968, 642.2615
257.4789, 631.4836
257.9611, 614.2423
258.4432, 589.5131
258.9253, 560.1558
259.4074, 525.1816
259.8895, 485.5471
260.3716, 446.0525
260.8538, 403.2743
261.3359, 366.5051
261.8180, 343.6355
262.3001, 339.4131
262.7822, 334.0392
263.2643, 322.8657
263.7465, 309.0564
264.2286, 308.0605
264.7107, 322.7607
265.1928, 344.5753
265.6749, 366.5973
266.1570, 386.4570
266.6392, 415.9514
267.1213, 458.7170
267.6034, 512.1066
268.0855, 563.7640
268.5676, 610.8643
269.0497, 662.9832
269.5318, 729.7993
270.0139, 815.4021
270.4961, 895.4719
270.9782, 966.7612
271.4603, 1031.133
271.9424, 1093.400
272.4245, 1148.175
272.9066, 1216.941
273.3888, 1317.727
273.8709, 1453.399
274.3530, 1597.997
274.8351, 1751.170
275.3172, 1909.708
275.7993, 2065.785
276.2815, 2224.282
276.7636, 2364.494
277.2457, 2487.097
277.7278, 2597.944
278.2099, 2617.679
278.6920, 2525.936
279.1742, 2342.934
279.6563, 2116.900
280.1384, 1834.815
280.6205, 1553.192
281.1026, 1304.279
281.5847, 1088.571
282.0669, 901.1532
282.5490, 739.9546
283.0311, 607.5110
283.5132, 517.7031
283.9953, 474.1060
284.4774, 443.9949
284.9596, 405.8462
285.4417, 360.3002
285.9238, 318.5175
286.4059, 281.2009
286.8880, 249.3893
287.3701, 227.1576
287.8523, 214.9489
288.3344, 204.9923
288.8165, 192.1899
289.2986, 177.0020
289.7807, 162.9485
290.2628, 151.2838
290.7450, 139.5895
291.2271, 121.4154
291.7092, 97.08704
292.1913, 75.38672
292.6734, 66.28064
293.1555, 65.50879
293.6377, 55.32007
294.1198, 30.81079
294.6019, 2.015625
295.0840, 13.69385
295.5661, 17.89185
296.0482, 22.37744
296.5304, 37.62097
297.0125, 58.49182
297.4946, 73.09424
297.9767, 79.43152
298.4588, 80.40857
298.9409, 76.90649
299.4231, 70.18311
299.9052, 65.57483
300.3873, 72.97437
300.8694, 83.31250
301.3515, 78.34741
301.8336, 52.54688
302.3158, 24.42261
302.7979, 15.06763
303.2800, 20.22046
303.7621, 27.15259
304.2442, 33.93555
304.7263, 36.65869
305.2085, 28.24658
305.6906, 6.065918
306.1727, 17.28711
306.6548, 32.58789
307.1369, 41.21729
307.6190, 46.63696
308.1012, 43.86450
308.5833, 42.37939
309.0654, 54.19580
309.5475, 82.44019
310.0296, 107.6084
310.5117, 111.2314
310.9938, 103.7043
311.4760, 102.4414
311.9581, 118.9177
312.4402, 141.6282
312.9223, 163.3320
313.4044, 183.6147
313.8865, 202.6353
314.3687, 222.0703
314.8508, 239.6621
315.3329, 252.5061
315.8150, 257.0803
316.2971, 258.8083
316.7792, 260.7542
317.2614, 263.2070
317.7435, 262.1926
318.2256, 251.7595
318.7077, 238.9229
319.1898, 230.7070
319.6719, 231.5686
320.1541, 234.8909
320.6362, 237.4048
321.1183, 239.1572
321.6004, 245.6611
322.0825, 260.5815
322.5646, 279.5083
323.0468, 299.0159
323.5289, 316.0540
324.0110, 336.1614
324.4931, 362.7402
324.9752, 394.7590
325.4573, 423.2573
325.9395, 443.7161
326.4216, 462.5425
326.9037, 483.7830
327.3858, 503.3877
327.8679, 530.3923
328.3500, 574.3633
328.8322, 629.3420
329.3143, 667.0830
329.7964, 687.6216
330.2785, 690.6218
330.7606, 674.6365
331.2427, 624.3135
331.7249, 579.6284
332.2070, 542.2734
332.6891, 511.0200
333.1712, 482.9216
333.6533, 455.6572
334.1354, 434.6196
334.6176, 422.5317
335.0997, 421.9985
335.5818, 423.7029
336.0639, 427.9885
336.5460, 434.3093
337.0281, 441.3491
337.5103, 449.2302
337.9924, 457.5771
338.4745, 466.1965
338.9566, 475.2002
339.4387, 483.6243
339.9208, 490.7795
340.4030, 498.6162
340.8851, 509.5845
341.3672, 523.7153
341.8493, 541.8728
342.3314, 565.6611
342.8135, 594.4382
343.2957, 622.5562
343.7778, 649.2195
344.2599, 677.7854
344.7420, 711.4709
345.2241, 749.8479
345.7062, 796.5845
346.1884, 857.0322
346.6705, 925.2805
347.1526, 980.7224
347.6347, 1022.659
348.1168, 1059.652
348.5989, 1102.056
349.0811, 1145.708
349.5632, 1176.807
350.0453, 1182.951
350.5274, 1183.057
351.0095, 1205.011
351.4916, 1248.174
351.9737, 1306.498
352.4558, 1377.811
352.9380, 1460.101
353.4201, 1552.110
353.9022, 1654.827
354.3843, 1764.102
354.8664, 1868.985
355.3485, 1975.139
355.8307, 2103.339
356.3128, 2266.010
356.7949, 2455.657
357.2770, 2668.191
357.7591, 2904.447
358.2412, 3157.104
358.7234, 3418.344
359.2055, 3693.952
359.6876, 3994.427
360.1697, 4312.927
360.6518, 4662.624
361.1339, 5057.206
361.6161, 5496.601
362.0982, 5978.646
362.5803, 6499.448
363.0624, 7060.068
363.5445, 7659.315
364.0266, 8300.956
364.5088, 8978.159
364.9909, 9688.635
365.4730, 10436.38
365.9551, 11193.90
366.4372, 11991.43
366.9193, 12779.21
367.4015, 13520.57
367.8836, 14199.11
368.3657, 14837.78
368.8478, 15434.69
369.3299, 15992.23
369.8120, 16504.20
370.2942, 16913.76
370.7763, 17323.41
371.2584, 17788.55
371.7405, 18338.36
372.2226, 18900.14
372.7047, 19527.01
373.1869, 20154.62
373.6690, 20639.34
374.1511, 21056.01
374.6332, 21177.40
375.1153, 20883.44
375.5974, 20135.81
376.0796, 19135.54
376.5617, 17819.31
377.0438, 16326.34
377.5259, 14783.64
378.0080, 13181.75
378.4901, 11670.80
378.9723, 10314.51
379.4544, 9106.020
379.9365, 8041.025
380.4186, 7132.421
380.9007, 6350.010
381.3828, 5704.536
381.8650, 5179.405
382.3471, 4718.050
382.8292, 4311.216
383.3113, 3951.556
383.7934, 3639.545
384.2755, 3372.283
384.7577, 3132.375
385.2398, 2906.133
385.7219, 2694.436
386.2040, 2501.743
386.6861, 2326.769
387.1682, 2172.368
387.6504, 2044.741
388.1325, 1938.364
388.6146, 1843.632
389.0967, 1761.944
389.5788, 1686.420
390.0609, 1606.019
390.5431, 1513.996
391.0252, 1431.366
391.5073, 1378.549
391.9894, 1343.646
392.4715, 1304.616
392.9536, 1243.476
393.4357, 1184.321
393.9178, 1138.926
394.4000, 1108.540
394.8821, 1084.809
395.3642, 1075.498
395.8463, 1067.685
396.3284, 1048.743
396.8105, 1000.009
397.2927, 957.2324
397.7748, 927.8506
398.2569, 911.2588
398.7390, 899.9697
399.2211, 900.3193
399.7032, 902.1030
400.1854, 898.6912
400.6675, 879.1191
401.1496, 869.3315
401.6317, 873.3503
402.1138, 887.6716
402.5959, 902.1177
403.0781, 913.9905
403.5602, 930.2212
404.0423, 954.6675
404.5244, 989.2327
405.0065, 1023.987
405.4886, 1056.703
405.9708, 1091.602
406.4529, 1135.690
406.9350, 1189.505
407.4171, 1248.398
407.8992, 1314.281
408.3813, 1384.392
408.8635, 1435.839
409.3456, 1465.270
409.8277, 1500.554
410.3098, 1567.235
410.7919, 1663.052
411.2740, 1773.473
411.7562, 1898.680
412.2383, 2034.849
412.7204, 2171.529
413.2025, 2310.321
413.6846, 2454.962
414.1667, 2634.081
414.6489, 2811.084
415.1310, 2937.721
415.6131, 3011.253
416.0952, 3012.577
416.5773, 2904.272
417.0594, 2712.094
417.5416, 2487.897
418.0237, 2222.862
418.5058, 1954.439
418.9879, 1705.593
419.4700, 1475.413
419.9521, 1271.474
420.4343, 1094.707
420.9164, 945.0312
421.3985, 819.7224
421.8806, 723.6008
422.3627, 644.6907
422.8448, 586.7544
423.3270, 546.3840
423.8091, 501.9333
424.2912, 443.4661
424.7733, 386.6782
425.2554, 337.3193
425.7375, 294.5305
426.2197, 261.8665
426.7018, 244.3835
427.1839, 234.8362
427.6660, 219.7944
428.1481, 196.2239
428.6302, 172.1379
429.1124, 148.7048
429.5945, 125.9165
430.0766, 108.8501
430.5587, 98.27148
431.0408, 91.91016
431.5229, 88.59155
432.0051, 88.65137
432.4872, 86.98853
432.9693, 82.65698
433.4514, 75.90552
433.9335, 65.20337
434.4156, 50.53345
434.8977, 39.64307
435.3799, 43.20361
435.8620, 54.97803
436.3441, 55.40649
436.8262, 40.37769
437.3083, 20.80322
437.7904, 5.065430
438.2726, 5.885010
438.7547, 9.495605
439.2368, 5.027344
439.7189, 21.54468
440.2010, 23.48413
440.6831, 10.39746
441.1653, 6.111816
441.6474, 24.22217
442.1295, 40.18530
442.6116, 50.08618
443.0937, 46.87451
443.5758, 44.01514
444.0580, 48.46631
444.5401, 57.67944
445.0222, 62.40210
445.5043, 51.33374
445.9864, 42.60547
446.4685, 46.15894
446.9507, 73.19824
447.4328, 88.76562
447.9149, 86.95239
448.3970, 75.57886
448.8791, 64.46411
449.3612, 53.49902
449.8434, 43.36694
450.3255, 35.24121
450.8076, 28.99316
451.2897, 17.14258
451.7718, 3.794922
452.2539, 23.24316
452.7361, 32.36963
453.2182, 30.53906
453.7003, 25.87158
454.1824, 18.03589
454.6645, 9.654053
455.1466, 7.357178
455.6288, 11.00366
456.1109, 12.97437
456.5930, 5.896484
457.0751, 5.622070
457.5572, 8.130615
458.0393, 0.5351560
458.5215, 8.455322
459.0036, 10.09302
459.4857, 7.023926
459.9678, 4.413086
460.4499, 5.611328
460.9320, 6.351563
461.4142, 1.201416
461.8963, 8.257324
462.3784, 14.89941
462.8605, 12.78027
463.3426, 7.946289
463.8247, 5.105713
464.3069, 6.628418
464.7890, 6.078857
465.2711, 0.6762700
465.7532, 10.04614
466.2353, 16.89990
466.7174, 12.25830
467.1996, 13.21704
467.6817, 27.64893
468.1638, 56.65820
468.6459, 74.91235
469.1280, 76.49731
469.6101, 73.65845
470.0923, 73.23096
470.5744, 71.75122
471.0565, 83.62085
471.5386, 115.3618
472.0207, 157.0981
472.5028, 183.6389
472.9850, 193.0103
473.4671, 201.2529
473.9492, 216.2246
474.4313, 236.9800
474.9134, 254.3127
475.3955, 267.8655
475.8776, 281.2539
476.3597, 299.2356
476.8419, 320.2871
477.3240, 339.6819
477.8061, 358.1274
478.2882, 371.8674
478.7703, 380.3943
479.2524, 381.5679
479.7346, 366.4553
480.2167, 316.2090
480.6988, 255.5247
481.1809, 204.5835
481.6630, 166.2075
482.1451, 135.9717
482.6273, 116.1099
483.1094, 101.6189
483.5915, 86.41968
484.0736, 62.50366
484.5557, 44.25317
485.0378, 39.72266
485.5200, 47.47974
486.0021, 46.34839
486.4842, 20.77710
486.9663, 8.6425997E-02
487.4484, 0.3110350
487.9305, 35.48730
488.4127, 59.00439
488.8948, 67.62817
489.3769, 68.01978
489.8590, 70.11523
490.3411, 73.69312
490.8232, 80.67236
491.3054, 92.98218
491.7875, 109.3242
492.2696, 122.3169
492.7517, 131.6477
493.2338, 142.0046
493.7159, 158.6746
494.1981, 179.6023
494.6802, 198.2786
495.1623, 212.2451
495.6444, 226.4399
496.1265, 246.2432
496.6086, 271.3271
497.0908, 300.0964
497.5729, 334.6199
498.0550, 369.1399
498.5371, 400.5713
499.0192, 427.8540
499.5013, 449.8479
499.9835, 453.1738
500.4656, 458.2854
500.9477, 482.8804
501.4298, 551.3506
501.9119, 609.4062
502.3940, 638.1409
502.8762, 650.4956
503.3583, 678.8943
503.8404, 738.8318
504.3225, 795.3633
504.8046, 834.8394
505.2867, 855.7671
505.7689, 889.8032
506.2510, 942.8083
506.7331, 1000.334
507.2152, 1051.220
507.6973, 1095.534
508.1794, 1135.827
508.6616, 1180.090
509.1437, 1209.922
509.6258, 1179.376
510.1079, 1091.093
510.5900, 990.6558
511.0721, 897.7808
511.5543, 810.3203
512.0364, 721.2437
512.5185, 630.1492
513.0006, 548.3716
513.4827, 488.9348
513.9648, 443.3340
514.4470, 399.3203
514.9291, 349.2788
515.4112, 306.1968
515.8933, 277.0317
516.3754, 260.2734
516.8575, 251.8313
517.3397, 260.3174
517.8218, 267.8223
518.3039, 265.2585
518.7860, 249.1821
519.2681, 239.9624
519.7502, 240.8708
520.2324, 246.7546
520.7145, 254.5657
521.1966, 265.4851
521.6787, 276.0674
522.1608, 284.4214
522.6429, 293.0938
523.1251, 309.8838
523.6072, 336.3347
524.0893, 362.1519
524.5714, 383.9624
525.0535, 401.7988
525.5356, 417.0710
526.0178, 430.4792
526.4999, 433.4431
526.9820, 413.9827
527.4641, 378.2341
527.9462, 338.8289
528.4283, 296.0862
528.9105, 255.7551
529.3926, 221.3999
529.8747, 193.3748
530.3568, 171.7856
530.8389, 159.1218
531.3210, 151.0925
531.8032, 141.7625
532.2853, 130.6428
532.7674, 134.4763
533.2495, 166.4221
533.7316, 209.6116
534.2137, 252.1289
534.6959, 285.9272
535.1780, 329.6912
535.6601, 385.1963
536.1422, 450.6694
536.6243, 522.8308
537.1064, 602.2117
537.5885, 688.3530
538.0706, 780.1594
538.5527, 878.5137
539.0349, 993.4646
539.5170, 1124.690
539.9991, 1273.661
540.4812, 1445.750
540.9633, 1638.857
541.4454, 1830.976
541.9276, 2012.394
542.4097, 2212.898
542.8918, 2471.066
543.3739, 2774.688
543.8560, 3096.216
544.3381, 3413.700
544.8203, 3752.699
545.3024, 4150.250
545.7845, 4594.074
546.2666, 5005.886
546.7487, 5409.310
547.2308, 5728.579
547.7130, 5934.860
548.1951, 6043.395
548.6772, 5984.774
549.1593, 5703.654
549.6414, 5279.263
550.1235, 4781.979
550.6057, 4148.059
551.0878, 3566.611
551.5699, 3064.940
552.0520, 2634.887
552.5341, 2245.077
553.0162, 1894.694
553.4984, 1588.682
553.9805, 1334.567
554.4626, 1128.841
554.9447, 953.6240
555.4268, 810.8755
555.9089, 690.7747
556.3911, 584.2615
556.8732, 493.4355
557.3553, 425.5483
557.8374, 388.9441
558.3195, 363.6958
558.8016, 335.7141
559.2838, 306.9307
559.7659, 282.0811
560.2480, 264.4985
560.7301, 250.3357
561.2122, 240.0510
561.6943, 234.1790
562.1765, 222.3459
562.6586, 188.0498
563.1407, 158.3860
563.6228, 151.2361
564.1049, 182.6108
564.5870, 202.6260
565.0692, 209.4758
565.5513, 204.8271
566.0334, 186.7927
566.5155, 151.6494
566.9976, 128.6841
567.4797, 132.3816
567.9619, 151.6233
568.4440, 150.0979
568.9261, 128.8284
569.4082, 109.5652
569.8903, 113.1260
570.3724, 126.8201
570.8546, 129.0552
571.3367, 116.1016
571.8188, 102.6121
572.3009, 104.0693
572.7830, 109.4131
573.2651, 105.0635
573.7473, 74.79028
574.2294, 47.19507
574.7115, 17.39087
575.1936, 5.079590
575.6757, 13.22070
576.1578, 147.1838
576.6400, 241.4812
577.1221, 236.1582
577.6042, 123.4712
578.0863, 46.07544
578.5684, 10.98462
579.0505, 0.4975590
579.5327, 2.274414
580.0148, 19.58179
580.4969, 33.27002
580.9790, 41.39209
581.4611, 45.25610
581.9432, 41.73901
582.4254, 34.16821
582.9075, 35.71167
583.3896, 62.28418
583.8717, 91.76294
584.3538, 92.64062
584.8359, 71.86133
585.3181, 62.45142
585.8002, 96.93848
586.2823, 137.4211
586.7644, 156.9404
587.2465, 146.3008
587.7286, 143.1533
588.2108, 162.6191
588.6929, 188.1213
589.1750, 205.2649
589.6571, 212.7009
590.1392, 213.7063
590.6213, 205.7952
591.1035, 193.4849
591.5856, 188.8281
592.0677, 194.1157
592.5498, 192.9346
593.0319, 178.4377
593.5140, 152.8860
593.9962, 121.2329
594.4783, 84.01685
594.9604, 49.36230
595.4425, 21.35767
595.9246, 0.9069820
596.4067, 7.996094
596.8889, 1.886475
597.3710, 1.200439
597.8531, 22.28320
598.3352, 52.03320
598.8173, 64.20801
599.2994, 33.43237
599.7816, 5.051270
600.2637, 8.148926
600.7458, 10.64673
601.2279, 16.59985
601.7100, 25.37305
602.1921, 37.06909
602.6743, 53.81177
603.1564, 75.36890
603.6385, 93.01196
604.1206, 106.5288
604.6027, 117.4753
605.0848, 125.5693
605.5670, 130.5820
606.0491, 140.0710
606.5312, 155.8059
607.0133, 172.7542
607.4954, 186.0259
607.9775, 195.9844
608.4597, 203.1958
608.9418, 201.6611
609.4239, 204.5522
609.9060, 227.4426
610.3881, 262.6262
610.8702, 288.0408
611.3524, 284.2273
611.8345, 280.4844
612.3166, 289.7107
612.7987, 314.2207
613.2808, 334.5784
613.7629, 343.8633
614.2451, 357.3833
614.7272, 387.8018
615.2093, 440.4868
615.6914, 480.1704
616.1735, 503.1653
616.6556, 518.5742
617.1378, 536.9778
617.6199, 558.0305
618.1020, 581.9995
618.5840, 611.1685
619.0662, 638.2471
619.5483, 649.4900
620.0304, 651.5403
620.5125, 665.1389
620.9946, 706.6494
621.4767, 759.5293
621.9589, 814.2920
622.4410, 869.5425
622.9231, 921.6580
623.4052, 970.2307
623.8873, 1016.404
624.3694, 1060.092
624.8516, 1097.875
625.3337, 1143.960
625.8158, 1205.023
626.2979, 1266.704
626.7800, 1314.601
627.2621, 1349.186
627.7443, 1364.899
628.2264, 1356.614
628.7085, 1335.564
629.1906, 1327.263
629.6727, 1327.444
630.1548, 1314.496
630.6370, 1271.832
631.1191, 1214.182
631.6012, 1154.704
632.0833, 1094.070
632.5654, 1036.864
633.0475, 988.0239
633.5297, 942.0837
634.0118, 897.6743
634.4939, 858.4475
634.9760, 807.2473
635.4581, 719.5864
635.9402, 635.5015
636.4224, 591.7593
636.9045, 612.6531
637.3866, 603.1582
637.8687, 543.9856
638.3508, 465.8711
638.8329, 426.8706
639.3151, 425.8474
639.7972, 419.7739
640.2793, 391.8345
640.7614, 351.8208
641.2435, 312.6221
641.7256, 275.2441
642.2078, 244.5706
642.6899, 227.2070
643.1720, 215.5620
643.6541, 205.6606
644.1362, 197.1455
644.6183, 185.1914
645.1005, 158.3303
645.5826, 134.1887
646.0647, 126.0251
646.5468, 146.1450
647.0289, 155.8411
647.5110, 154.0183
647.9932, 142.2974
648.4753, 117.7356
648.9574, 77.22290
649.4395, 53.15161
649.9216, 57.17358
650.4037, 72.80957
650.8859, 65.11743
651.3680, 39.28223
651.8501, 19.76660
652.3322, 29.71191
652.8143, 44.67578
653.2964, 37.10742
653.7786, 10.72461
654.2607, 12.26562
654.7428, 21.96631
655.2249, 24.93555
655.7070, 23.93994
656.1891, 18.55078
656.6713, 13.18750
657.1534, 4.715332
657.6355, 1.750488
658.1176, 0.2465820
658.5997, 13.70898
659.0818, 15.85205
659.5640, 1.086914
660.0461, 18.47168
660.5282, 26.36377
661.0103, 23.39746
661.4924, 12.55908
661.9745, 10.51221
662.4567, 32.37061
662.9388, 33.33594
663.4209, 19.16699
663.9030, 5.843262
664.3851, 0.9814450
664.8672, 1.271484
665.3494, 2.495117
665.8315, 3.318848
666.3136, 7.606445
666.7957, 20.64600
667.2778, 31.53809
667.7599, 34.92773
668.2421, 29.29053
668.7242, 27.09619
669.2063, 29.32471
669.6884, 32.55420
670.1705, 33.91748
670.6526, 33.32715
671.1348, 30.87500
671.6169, 26.43994
672.0990, 22.63037
672.5811, 25.13818
673.0632, 29.45557
673.5453, 27.02393
674.0275, 10.09131
674.5096, 4.843262
674.9917, 12.46826
675.4738, 13.41406
675.9559, 8.926270
676.4380, 12.22021
676.9202, 27.35400
677.4023, 29.96924
677.8844, 21.33105
678.3665, 8.768555
678.8486, 11.85742
679.3307, 24.36670
679.8129, 18.63623
680.2950, 2.783691
680.7771, 26.05225
681.2592, 51.23291
681.7413, 72.55078
682.2234, 79.19922
682.7056, 80.53662
683.1877, 93.02393
683.6698, 121.0718
684.1519, 146.1748
684.6340, 155.0078
685.1161, 156.6118
685.5983, 160.8643
686.0804, 175.6211
686.5625, 185.4912
687.0446, 185.5186
687.5267, 180.5317
688.0089, 178.1636
688.4910, 178.6104
688.9731, 181.8892
689.4552, 187.8442
689.9373, 195.9634
690.4194, 207.3574
690.9016, 221.6802
691.3837, 231.9648
691.8658, 233.4761
692.3479, 230.8877
692.8300, 229.1025
693.3121, 228.5093
693.7943, 230.7446
694.2764, 235.9248
694.7585, 242.8428
695.2406, 250.4951
695.7227, 259.0938
696.2048, 269.2637
696.6870, 280.4331
697.1691, 292.9512
697.6512, 310.2622
698.1333, 336.6382
698.6154, 353.7222
699.0975, 360.2144
699.5797, 360.3506
700.0618, 355.0591
700.5438, 346.9893
701.0259, 345.7964
701.5081, 354.8018
701.9902, 367.4756
702.4723, 380.6265
702.9544, 392.4023
703.4365, 399.3418
703.9186, 400.5498
704.4008, 396.5254
704.8829, 381.7139
705.3650, 361.4639
705.8471, 352.2627
706.3292, 362.2046
706.8113, 368.3989
707.2935, 361.3052
707.7756, 345.9248
708.2577, 350.6938
708.7398, 377.1748
709.2219, 398.9048
709.7040, 397.2998
710.1862, 380.9893
710.6683, 362.7290
711.1504, 343.3511
711.6325, 331.6074
712.1146, 347.8315
712.5967, 363.6362
713.0789, 350.8413
713.5610, 297.3472
714.0431, 259.3438
714.5252, 255.9590
715.0073, 265.9497
715.4894, 277.9194
715.9716, 298.4585
716.4537, 296.0444
716.9358, 262.1724
717.4179, 222.5469
717.9000, 213.7109
718.3821, 230.1982
718.8643, 237.5601
719.3464, 226.5459
719.8285, 208.6470
720.3106, 193.8179
720.7927, 182.5415
721.2748, 174.2197
721.7570, 174.5864
722.2391, 170.2354
722.7212, 149.3438
723.2033, 119.5312
723.6854, 104.3027
724.1675, 112.9097
724.6497, 122.7861
725.1318, 130.3491
725.6139, 134.7056
726.0960, 130.6807
726.5781, 117.4966
727.0602, 107.1704
727.5424, 111.6318
728.0245, 121.8955
728.5066, 116.0903
728.9887, 96.14648
729.4708, 82.15088
729.9529, 98.94727
730.4351, 116.9292
730.9172, 106.7124
731.3993, 58.68213
731.8814, 32.76270
732.3635, 66.73535
732.8456, 106.0547
733.3278, 118.0190
733.8099, 92.69238
734.2920, 77.83984
734.7741, 76.67773
735.2562, 80.72607
735.7383, 78.39209
736.2205, 68.92188
736.7026, 60.44971
737.1847, 57.40967
737.6668, 55.11035
738.1489, 47.56543
738.6310, 36.71094
739.1132, 26.51074
739.5953, 19.45703
740.0774, 12.25488
740.5595, 0.1362300
741.0416, 11.22119
741.5237, 11.26758
742.0059, 11.01611
742.4880, 18.03271
742.9701, 3.180176
743.4522, 37.41797
743.9343, 46.61084
744.4164, 32.40430
744.8986, 17.98340
745.3807, 14.29443
745.8628, 14.49072
746.3449, 11.58057
746.8270, 5.224121
747.3091, 5.714355
747.7913, 32.44971
748.2734, 53.90381
748.7555, 60.04932
749.2376, 51.19482
749.7197, 33.31934
750.2018, 1.745117
750.6840, 31.93164
751.1661, 49.83203
751.6482, 55.38916
752.1303, 46.18115
752.6124, 21.01709
753.0945, 3.132324
753.5767, 5.863770
754.0588, 2.324707
754.5409, 29.24707
755.0230, 87.92725
755.5051, 130.1763
755.9872, 104.8833
756.4694, 66.68408
756.9515, 60.13184
757.4336, 102.9893
757.9157, 133.2002
758.3978, 142.2197
758.8799, 143.9629
759.3621, 148.0142
759.8442, 154.4004
760.3263, 166.3589
760.8084, 185.9692
761.2905, 205.9863
761.7726, 214.9014
762.2548, 218.6074
762.7369, 230.4600
763.2190, 253.7817
763.7011, 283.0356
764.1832, 321.1914
764.6653, 359.2944
765.1475, 386.2373
765.6296, 393.4844
766.1117, 396.7314
766.5938, 390.6147
767.0759, 385.1235
767.5580, 397.3760
768.0402, 429.9629
768.5223, 460.1694
769.0044, 484.9365
769.4865, 501.6143
769.9686, 499.0156
770.4507, 483.7988
770.9329, 477.9639
771.4150, 502.7075
771.8971, 524.1899
772.3792, 511.6279
772.8613, 479.2827
773.3434, 458.8887
773.8256, 475.8364
774.3077, 484.5049
774.7898, 474.2700
775.2719, 450.0239
775.7540, 426.7798
776.2361, 404.7568
776.7183, 383.9263
777.2004, 365.9712
777.6825, 347.7388
778.1646, 319.5737
778.6467, 283.5591
779.1288, 250.0181
779.6110, 220.7412
780.0931, 198.9106
780.5752, 193.6016
781.0573, 200.7642
781.5394, 194.1753
782.0215, 155.3794
782.5037, 116.6084
782.9857, 88.04443
783.4678, 68.81641
783.9500, 45.63281
784.4321, 16.57812
784.9142, 5.194336
785.3963, 1.9530000E-03
785.8784, 16.49561
786.3605, 2.243164
786.8427, 53.22461
787.3248, 100.4087
787.8069, 122.9370
788.2890, 130.0493
788.7711, 123.3589
789.2532, 102.2095
789.7354, 95.00732
790.2175, 118.6685
790.6996, 136.5493
791.1817, 125.3130
791.6638, 82.65869
792.1459, 79.16553
792.6281, 121.0293
793.1102, 155.9727
793.5923, 126.5591
794.0744, 63.85400
794.5565, 36.11768
795.0386, 48.85156
795.5208, 57.49512
796.0029, 35.78223
796.4850, 1.517578
796.9671, 45.54932
797.4492, 101.3433
797.9313, 146.4326
798.4135, 173.4102
798.8956, 197.4175
799.3777, 228.2759
799.8598, 267.3394
800.3419, 317.2378
800.8240, 378.0996
801.3062, 440.0601
801.7883, 496.1084
802.2704, 549.9136
802.7525, 608.5181
803.2346, 673.1030
803.7167, 734.7002
804.1989, 775.4028
804.6810, 820.0278
805.1631, 892.7021
805.6452, 1008.045
806.1273, 1120.619
806.6094, 1228.723
807.0916, 1334.688
807.5737, 1440.076
808.0558, 1544.052
808.5379, 1647.472
809.0200, 1750.381
809.5021, 1862.051
809.9843, 1996.971
810.4664, 2147.256
810.9485, 2300.230
811.4306, 2446.914
811.9127, 2605.858
812.3948, 2801.287
812.8770, 3003.456
813.3591, 3178.365
813.8412, 3312.078
814.3233, 3459.966
814.8054, 3624.873
815.2875, 3805.662
815.7697, 3997.084
816.2518, 4203.397
816.7339, 4441.930
817.2160, 4723.654
817.6981, 5004.085
818.1802, 5228.924
818.6624, 5439.516
819.1445, 5688.547
819.6266, 6015.909
820.1087, 6340.229
820.5908, 6665.261
821.0729, 6973.872
821.5551, 7241.086
822.0372, 7463.938
822.5193, 7670.711
823.0014, 7870.482
823.4835, 8035.436
823.9656, 8137.792
824.4478, 8180.533
824.9299, 8172.549
825.4120, 8118.832
825.8941, 8006.615
826.3762, 7800.671
826.8583, 7545.123
827.3405, 7289.578
827.8226, 7060.228
828.3047, 6790.484
828.7868, 6466.936
829.2689, 6121.396
829.7510, 5787.913
830.2332, 5468.901
830.7153, 5169.228
831.1974, 4891.185
831.6795, 4639.002
832.1616, 4431.429
832.6437, 4251.988
833.1259, 4072.488
833.6080, 3878.351
834.0901, 3701.028
834.5722, 3537.020
835.0543, 3398.575
835.5364, 3304.365
836.0186, 3266.000
836.5007, 3218.722
836.9828, 3156.007
837.4649, 3085.530
837.9470, 3009.631
838.4291, 2933.960
838.9113, 2875.580
839.3934, 2840.851
839.8755, 2814.053
840.3576, 2789.025
840.8397, 2764.799
841.3218, 2739.896
841.8040, 2703.568
842.2861, 2685.154
842.7682, 2689.255
843.2503, 2704.688
843.7324, 2722.406
844.2145, 2741.385
844.6967, 2747.679
845.1788, 2736.325
845.6609, 2730.074
846.1430, 2762.011
846.6251, 2809.223
847.1072, 2841.503
847.5894, 2848.919
848.0715, 2848.771
848.5536, 2849.623
849.0357, 2844.188
849.5178, 2825.422
849.9999, 2787.665
850.4821, 2752.776
850.9642, 2722.127
851.4463, 2695.346
851.9284, 2668.043
852.4105, 2642.351
852.8926, 2627.672
853.3748, 2626.450
853.8569, 2626.557
854.3390, 2618.936
854.8211, 2609.327
855.3032, 2598.474
855.7853, 2573.272
856.2675, 2592.839
856.7496, 2673.912
857.2317, 2769.409
857.7138, 2841.667
858.1959, 2892.911
858.6780, 2946.265
859.1602, 3001.546
859.6423, 3079.137
860.1244, 3210.222
860.6065, 3363.648
861.0886, 3508.366
861.5707, 3637.331
862.0529, 3779.115
862.5350, 3933.395
863.0171, 4107.658
863.4992, 4307.448
863.9813, 4532.069
864.4634, 4776.990
864.9456, 5043.204
865.4276, 5339.059
865.9097, 5677.687
866.3918, 6051.295
866.8740, 6445.396
867.3561, 6861.270
867.8382, 7314.467
868.3203, 7815.986
868.8024, 8360.434
869.2845, 8941.914
869.7667, 9564.585
870.2488, 10252.14
870.7309, 11002.18
871.2130, 11798.27
871.6951, 12624.27
872.1772, 13484.69
872.6594, 14385.41
873.1415, 15334.82
873.6236, 16341.05
874.1057, 17417.48
874.5878, 18531.99
875.0699, 19671.58
875.5521, 20837.59
876.0342, 21992.38
876.5163, 23185.10
876.9984, 24286.76
877.4805, 25274.12
877.9626, 26141.42
878.4448, 26883.46
878.9269, 27495.03
879.4090, 27884.87
879.8911, 28017.09
880.3732, 27903.51
880.8553, 27548.67
881.3375, 26958.65
881.8196, 26149.25
882.3017, 24971.52
882.7838, 23747.43
883.2659, 22521.87
883.7480, 21291.09
884.2302, 20040.51
884.7123, 18769.92
885.1944, 17521.97
885.6765, 16287.48
886.1586, 15099.63
886.6407, 13982.52
887.1229, 12938.82
887.6050, 11948.31
888.0871, 10984.87
888.5692, 10110.09
889.0513, 9381.719
889.5334, 8734.450
890.0156, 8073.933
890.4977, 7379.320
890.9798, 6764.849
891.4619, 6252.129
891.9440, 5794.695
892.4261, 5337.974
892.9083, 4900.093
893.3904, 4501.352
893.8725, 4146.393
894.3546, 3819.179
894.8367, 3508.916
895.3188, 3221.521
895.8010, 2958.296
896.2831, 2716.627
896.7652, 2506.839
897.2473, 2337.102
897.7294, 2177.638
898.2115, 1995.735
898.6937, 1808.884
899.1758, 1661.030
899.6579, 1551.993
900.1400, 1449.871
900.6221, 1329.950
901.1042, 1215.099
901.5864, 1125.037
902.0685, 1064.917
902.5506, 1008.718
903.0327, 956.7373
903.5148, 898.6592
903.9969, 828.3428
904.4791, 753.7041
904.9612, 705.3262
905.4433, 679.5410
905.9254, 655.6748
906.4075, 612.8477
906.8896, 573.6260
907.3718, 561.4365
907.8539, 568.4053
908.3360, 563.6318
908.8181, 530.2959
909.3002, 505.2432
909.7823, 498.7217
910.2645, 499.9912
910.7466, 485.0205
911.2287, 455.6133
911.7108, 423.3506
912.1929, 391.2949
912.6750, 358.1396
913.1572, 317.7666
913.6393, 277.5498
914.1214, 247.1699
914.6035, 233.6904
915.0856, 223.9385
915.5677, 222.1582
916.0499, 219.6445
916.5320, 203.3652
917.0141, 174.7568
917.4962, 153.9961
917.9783, 144.0234
918.4604, 138.9160
918.9426, 131.9238
919.4247, 127.6680
919.9068, 134.4951
920.3889, 158.5576
920.8710, 167.0010
921.3531, 143.4795
921.8353, 117.1885
922.3174, 102.8594
922.7995, 100.1416
923.2816, 110.1240
923.7637, 132.5273
924.2458, 147.3076
924.7280, 129.5566
925.2101, 104.5635
925.6922, 102.4893
926.1743, 120.1396
926.6564, 129.2158
927.1385, 109.9375
927.6207, 95.73340
928.1028, 100.0332
928.5849, 114.3975
929.0670, 105.0742
929.5491, 72.85352
930.0313, 47.87402
930.5134, 44.91602
930.9955, 49.22949
931.4776, 44.10156
931.9597, 34.38281
932.4418, 28.96484
932.9240, 48.14648
933.4061, 46.15625
933.8882, 5.512695
934.3703, 46.40332
934.8524, 72.14355
935.3345, 72.22461
935.8167, 76.11035
936.2988, 89.38184
936.7809, 97.64648
937.2630, 75.44043
937.7451, 45.90527
938.2272, 44.33789
938.7094, 91.91113
939.1915, 96.55566
939.6736, 4.994141
940.1557, 85.09473
940.6378, 120.5449
941.1199, 102.5654
941.6021, 45.12598
942.0842, 51.39355
942.5663, 119.6748
943.0484, 95.72949
943.5305, 34.20703
944.0126, 26.53809
944.4948, 80.14941
944.9769, 104.5088
945.4590, 59.59668
945.9411, 29.10156
946.4232, 36.15234
946.9053, 67.34863
947.3875, 90.26074
947.8695, 104.3379
948.3516, 96.84766
948.8337, 47.39160
949.3159, 4.937500
949.7980, 36.44824
950.2801, 99.12305
950.7622, 129.9199
951.2443, 79.85742
951.7264, 45.64648
952.2086, 31.26562
952.6907, 31.25488
953.1728, 45.00293
953.6549, 69.74023
954.1370, 90.43457
954.6191, 106.4590
955.1013, 104.3203
955.5834, 52.33984
956.0655, 7.672852
956.5476, 41.10645
957.0297, 41.66016
957.5118, 27.61523
957.9940, 16.56250
958.4761, 41.39551
958.9582, 10.00391
959.4403, 55.77930
959.9224, 63.53516
960.4045, 23.25195
960.8867, 4.924805
961.3688, 21.06445
961.8509, 58.24609
962.3330, 89.34277
962.8151, 111.1797
963.2972, 116.0518
963.7794, 93.71777
964.2615, 80.63867
964.7436, 85.05762
965.2257, 94.58301
965.7078, 93.09766
966.1899, 80.99609
966.6721, 56.80078
967.1542, 15.77344
967.6363, 19.91992
968.1184, 36.30566
968.6005, 43.71973
969.0826, 51.90234
969.5648, 63.41797
970.0469, 60.64551
970.5290, 38.92578
971.0111, 23.94043
971.4932, 36.36035
971.9753, 67.79297
972.4575, 106.8242
972.9396, 151.5771
973.4217, 191.4482
973.9038, 216.7686
974.3859, 241.4814
974.8680, 272.8770
975.3502, 306.9014
975.8323, 331.9883
976.3144, 347.6875
976.7965, 356.0576
977.2786, 353.5869
977.7607, 353.4775
978.2429, 375.1680
978.7250, 410.0469
979.2071, 446.1348
979.6892, 484.9521
980.1713, 512.8896
980.6534, 523.7969
981.1356, 528.2920
981.6177, 532.5654
982.0998, 536.9473
982.5819, 553.0283
983.0640, 581.7256
983.5461, 604.3623
984.0283, 595.1250
984.5104, 582.6260
984.9925, 597.3730
985.4746, 638.1270
985.9567, 666.4199
986.4388, 666.2686
986.9210, 676.8838
987.4031, 715.7949
987.8852, 766.3223
988.3673, 781.7461
988.8494, 769.5381
989.3315, 761.8857
989.8137, 771.3857
990.2958, 786.8838
990.7779, 797.8311
991.2600, 811.9346
991.7421, 841.8848
992.2242, 900.8564
992.7064, 933.5947
993.1885, 934.3711
993.6706, 926.6523
994.1527, 928.8496
994.6348, 940.1660
995.1169, 962.2354
995.5991, 994.9521
996.0812, 1031.231
996.5633, 1069.308
997.0454, 1104.719
997.5275, 1129.249
998.0096, 1148.502
998.4918, 1218.408
998.9739, 1343.514
999.4560, 1444.000
999.9381, 1480.509
1000.420, 1493.464
1000.902, 1534.457
1001.384, 1596.947
1001.867, 1663.450
1002.349, 1736.211
1002.831, 1800.376
1003.313, 1846.372
1003.795, 1893.126
1004.277, 1964.002
1004.759, 2055.280
1005.241, 2131.177
1005.724, 2189.771
1006.206, 2223.032
1006.688, 2213.382
1007.170, 2186.207
1007.652, 2169.342
1008.134, 2158.699
1008.616, 2096.314
1009.098, 1960.964
1009.580, 1833.734
1010.063, 1742.675
1010.545, 1670.630
1011.027, 1589.910
1011.509, 1500.122
1011.991, 1397.691
1012.473, 1261.164
1012.955, 1147.514
1013.437, 1107.312
1013.919, 1077.752
1014.402, 1000.330
1014.884, 866.5117
1015.366, 769.4346
1015.848, 714.5830
1016.330, 677.3711
1016.812, 641.9707
1017.294, 606.0742
1017.776, 576.4727
1018.259, 555.3057
1018.741, 529.5684
1019.223, 492.8633
1019.705, 448.0723
1020.187, 389.8828
1020.669, 331.8389
1021.151, 309.0762
1021.633, 315.6025
1022.115, 318.5654
1022.598, 306.4746
1023.080, 289.2539
1023.562, 267.6289
1024.044, 249.3047
1024.526, 240.4443
1025.008, 238.5801
1025.490, 269.5332
1025.972, 341.6611
1026.454, 396.1963
1026.937, 372.6543
1027.419, 312.8799
1027.901, 287.7764
1028.383, 291.3418
1028.865, 291.4775
1029.347, 264.1963
1029.829, 253.4883
1030.311, 281.2568
1030.794, 322.3848
1031.276, 324.1826
1031.758, 289.7832
1032.240, 255.3604
1032.722, 224.7803
1033.204, 213.0713
1033.686, 245.5596
1034.168, 294.8340
1034.651, 337.5820
1035.133, 371.2168
1035.615, 390.3428
1036.097, 391.0098
1036.579, 388.2178
1037.061, 394.8623
1037.543, 400.8506
1038.025, 372.3311
1038.507, 322.6523
1038.990, 294.4941
1039.472, 340.3203
1039.954, 367.2588
1040.436, 331.9473
1040.918, 279.1973
1041.400, 274.5596
1041.882, 319.1182
1042.364, 328.1973
1042.846, 291.4180
1043.329, 244.3682
1043.811, 209.0635
1044.293, 184.9902
1044.775, 174.3525
1045.257, 177.7520
1045.739, 179.6572
1046.221, 181.2705
1046.703, 175.0986
1047.186, 152.3164
1047.668, 127.6123
1048.150, 147.7363
1048.632, 191.0625
1049.114, 198.3887
1049.596, 119.0684
1050.078, 57.58691
1050.560, 64.32617
1051.042, 95.21582
1051.525, 120.8936
1052.007, 141.9268
1052.489, 134.7510
1052.971, 98.36328
1053.453, 77.18359
1053.935, 131.0312
1054.417, 192.1230
1054.899, 192.2734
1055.381, 139.5039
1055.864, 110.5674
1056.346, 128.5820
1056.828, 128.6348
1057.310, 90.40625
1057.792, 47.22363
1058.274, 64.79785
1058.756, 113.0166
1059.238, 121.9346
1059.721, 70.20312
1060.203, 30.38281
1060.685, 43.42578
1061.167, 65.01270
1061.649, 71.79199
1062.131, 66.63477
1062.613, 71.57422
1063.095, 85.89258
1063.578, 96.72266
1064.060, 98.28711
1064.542, 93.58984
1065.024, 79.84766
1065.506, 62.84863
1065.988, 53.02148
1066.470, 54.01270
1066.952, 54.44531
1067.434, 51.46680
1067.917, 48.18750
1068.399, 48.48633
1068.881, 50.27246
1069.363, 49.04395
1069.845, 44.83301
1070.327, 41.40918
1070.809, 27.93262
1071.291, 32.18945
1071.773, 72.00977
1072.255, 125.1504
1072.738, 133.3643
1073.220, 103.5000
1073.702, 70.78809
1074.184, 42.08008
1074.666, 19.06055
1075.148, 1.541992
1075.630, 11.95801
1076.112, 1.507813
1076.595, 42.18457
1077.077, 51.91406
1077.559, 27.27832
1078.041, 1.302734
1078.523, 8.497070
1079.005, 8.495117
1079.487, 7.265625
1079.969, 2.827148
1080.452, 9.052734
1080.934, 46.17676
1081.416, 63.35938
1081.898, 51.24707
1082.380, 31.58301
1082.862, 23.89746
1083.344, 27.47852
1083.826, 47.59570
1084.308, 82.30762
1084.791, 104.2051
1085.273, 79.19824
1085.755, 60.53711
1086.237, 80.10449
1086.719, 118.8555
1087.201, 115.2080
1087.683, 71.22852
1088.165, 48.69238
1088.647, 66.91504
1089.130, 92.06836
1089.612, 99.68164
1090.094, 95.89160
1090.576, 81.45020
1091.058, 52.87891
1091.540, 51.07227
1092.022, 81.62207
1092.504, 115.2139
1092.987, 144.7617
1093.469, 160.5469
1093.951, 126.0381
1094.433, 66.95605
1094.915, 41.74023
1095.397, 117.0996
1095.879, 152.0557
1096.361, 115.2236
1096.844, 68.94043
1097.326, 85.01270
1097.808, 143.5410
1098.290, 156.1582
1098.772, 124.4434
1099.254, 95.41699
1099.736, 92.90723
1100.218, 102.4990
1100.700, 130.3115
1101.182, 160.9473
1101.665, 154.7100
1102.147, 111.8320
1102.629, 85.44336
1103.111, 87.25391
1103.593, 92.75391
1104.075, 78.02148
1104.557, 57.74805
1105.039, 41.51758
1105.522, 30.31152
1106.004, 39.89160
1106.486, 74.65723
1106.968, 110.2393
1107.450, 136.6641
1107.932, 158.1475
1108.414, 193.8506
1108.896, 226.6846
1109.379, 220.8242
1109.861, 139.6387
1110.343, 76.79590
1110.825, 43.87402
1111.307, 20.17383
1111.789, 22.31055
1112.271, 66.40918
1112.753, 26.18555
1113.235, 75.27539
1113.718, 142.1582
1114.200, 89.14941
1114.682, 42.54395
1115.164, 49.00000
1115.646, 73.27637
1116.128, 66.06543
1116.610, 30.89062
1117.092, 27.50488
1117.574, 61.24219
1118.057, 82.19336
1118.539, 35.78027
1119.021, 16.76758
1119.503, 33.49512
1119.985, 20.81836
1120.467, 9.151367
1120.949, 2.384766
1121.431, 9.605469
1121.914, 11.52539
1122.396, 10.10352
1122.878, 5.227539
1123.360, 0.8671880
1123.842, 10.29492
1124.324, 26.83398
1124.806, 9.773438
1125.288, 54.96191
1125.771, 106.8477
1126.253, 113.0859
1126.735, 97.37891
1127.217, 94.37109
1127.699, 102.9482
1128.181, 122.8564
1128.663, 168.0508
1129.145, 194.9717
1129.627, 199.3145
1130.109, 186.2832
1130.592, 145.1240
1131.074, 90.09375
1131.556, 82.30273
1132.038, 114.7842
1132.520, 154.3574
1133.002, 214.3652
1133.484, 240.3066
1133.966, 198.2490
1134.449, 134.3574
1134.931, 103.5977
1135.413, 103.7656
1135.895, 117.5596
1136.377, 144.8799
1136.859, 161.2070
1137.341, 128.7119
1137.823, 99.97070
1138.306, 116.3994
1138.788, 159.6914
1139.270, 181.5996
1139.752, 181.1367
1140.234, 168.7520
1140.716, 143.4902
1141.198, 122.1436
1141.680, 125.5371
1142.162, 136.9688
1142.645, 143.0947
1143.127, 142.4600
1143.609, 129.0312
1144.091, 100.4775
1144.573, 76.61035
1145.055, 64.86621
1145.537, 61.67383
1146.019, 68.07422
1146.501, 78.48730
1146.984, 84.42969
1147.466, 83.25488
1147.948, 79.76074
1148.430, 71.35352
1148.912, 68.95117
1149.394, 75.11719
1149.876, 93.32715
1150.358, 150.7285
1150.841, 224.6504
1151.323, 260.8086
1151.805, 191.6475
1152.287, 156.6523
1152.769, 179.5830
1153.251, 215.2949
1153.733, 218.4463
1154.215, 200.8555
1154.697, 205.3760
1155.180, 230.1455
1155.662, 254.1680
1156.144, 265.3418
1156.626, 281.1377
1157.108, 320.2598
1157.590, 350.1631
1158.072, 308.0596
1158.554, 211.4482
1159.036, 162.5869
1159.519, 170.5029
1160.001, 193.5303
1160.483, 229.0020
1160.965, 248.1475
1161.447, 234.8975
1161.929, 199.4648
1162.411, 162.9150
1162.893, 123.0010
1163.375, 86.70801
1163.858, 56.00195
1164.340, 44.57910
1164.822, 99.10352
1165.304, 142.4619
1165.786, 99.32422
1166.268, 6.322266
1166.750, 18.51367
1167.232, 63.10254
1167.715, 128.4023
1168.197, 138.0762
1168.679, 129.3730
1169.161, 124.7578
1169.643, 122.2461
1170.125, 119.7402
1170.607, 121.9102
1171.089, 119.5371
1171.572, 108.6426
1172.054, 120.3086
1172.536, 190.5996
1173.018, 260.6523
1173.500, 263.4805
1173.982, 228.6094
1174.464, 197.8848
1174.946, 174.7871
1175.428, 155.6523
1175.911, 137.4805
1176.393, 143.3301
1176.875, 222.7891
1177.357, 307.6426
1177.839, 320.5840
1178.321, 277.5137
1178.803, 212.4824
1179.285, 94.36914
1179.767, 54.49023
1180.250, 115.5020
1180.732, 186.4609
1181.214, 179.5625
1181.696, 136.5859
1182.178, 104.5488
1182.660, 88.87695
1183.142, 96.47852
1183.624, 149.7871
1184.107, 175.4863
1184.589, 159.1641
1185.071, 129.7559
1185.553, 120.4062
1186.035, 121.3711
1186.517, 114.5996
1186.999, 100.4102
1187.481, 97.76562
1187.964, 124.6680
1188.446, 135.5508
1188.928, 116.9453
1189.410, 88.71289
1189.892, 84.32812
1190.374, 90.60938
1190.856, 80.86914
1191.338, 50.59180
1191.820, 30.11133
1192.302, 35.79492
1192.785, 32.29297
1193.267, 2.957031
1193.749, 32.60156
1194.231, 31.71289
1194.713, 8.695313
1195.195, 6.107422
1195.677, 4.093750
1196.159, 6.666016
1196.642, 19.37695
1197.124, 36.78125
1197.606, 60.52539
1198.088, 83.49219
1198.570, 88.85938
1199.052, 79.79883
1199.534, 61.15430
1200.016, 25.20508
1200.499, 8.212891
1200.981, 30.85352
1201.463, 51.51758
1201.945, 41.52539
1202.427, 15.59180
1202.909, 28.46289
1203.391, 64.97461
1203.873, 77.28516
1204.355, 17.41797
1204.838, 7.162109
1205.320, 41.83398
1205.802, 101.3848
1206.284, 129.0508
1206.766, 128.3789
1207.248, 113.2383
1207.730, 89.89453
1208.212, 79.18750
1208.694, 107.6289
1209.177, 127.8477
1209.659, 131.6934
1210.141, 119.0586
1210.623, 65.66211
1211.105, 5.220703
1211.587, 17.86133
1212.069, 114.0391
1212.551, 176.7012
1213.034, 131.9961
1213.516, 84.99609
1213.998, 54.58008
1214.480, 33.59570
1214.962, 9.708984
1215.444, 10.33008
1215.926, 8.210938
1216.408, 58.80859
1216.891, 87.88672
1217.373, 45.68359
1217.855, 16.64648
1218.337, 27.25391
1218.819, 46.29492
1219.301, 17.86328
1219.783, 33.26562
1220.265, 19.55273
1220.747, 57.58398
1221.229, 108.2188
1221.712, 51.52344
1222.194, 23.03516
1222.676, 67.44141
1223.158, 132.5410
1223.640, 136.1211
1224.122, 97.76758
1224.604, 66.89453
1225.086, 51.23047
1225.569, 46.72461
1226.051, 54.42969
1226.533, 74.14453
1227.015, 116.5371
1227.497, 154.2969
1227.979, 120.7656
1228.461, 51.71484
1228.943, 35.62891
1229.426, 86.83008
1229.908, 130.8867
1230.390, 141.1074
1230.872, 150.3730
1231.354, 170.6289
1231.836, 189.5684
1232.318, 177.3203
1232.800, 148.7090
1233.282, 123.9707
1233.765, 101.8418
1234.247, 147.4512
1234.729, 336.2168
1235.211, 462.3926
1235.693, 446.3594
1236.175, 353.5176
1236.657, 283.2285
1237.139, 230.8789
1237.621, 185.0586
1238.104, 141.9551
1238.586, 121.4551
1239.068, 132.3887
1239.550, 147.0723
1240.032, 157.7695
1240.514, 163.8594
1240.996, 160.6816
1241.478, 152.9668
1241.960, 148.3535
1242.443, 150.3438
1242.925, 139.0820
1243.407, 114.6406
1243.889, 108.8438
1244.371, 144.2773
1244.853, 191.9023
1245.335, 207.3691
1245.817, 206.0801
1246.300, 213.1309
1246.782, 237.3145
1247.264, 253.4785
1247.746, 263.6582
1248.228, 258.9805
1248.710, 233.4746
1249.192, 202.6973
1249.674, 192.7051
1250.156, 188.8926
1250.639, 166.3301
1251.121, 115.4434
1251.603, 95.87695
1252.085, 115.6309
1252.567, 131.8203
1253.049, 117.5391
1253.531, 98.27148
1254.013, 104.6602
1254.495, 125.2988
1254.978, 149.4883
1255.460, 179.0781
1255.942, 170.5781
1256.424, 137.0312
1256.906, 115.0820
1257.388, 141.5547
1257.870, 170.0000
1258.352, 154.9492
1258.835, 128.4395
1259.317, 134.5332
1259.799, 176.9414
1260.281, 169.5117
1260.763, 117.6934
1261.245, 77.96484
1261.727, 103.2051
1262.209, 119.2168
1262.692, 64.85352
1263.174, 2.675781
1263.656, 30.30273
1264.138, 19.31641
1264.620, 0.8632810
1265.102, 27.17188
1265.584, 38.16602
1266.066, 10.21094
1266.548, 30.11523
1267.031, 31.93359
1267.513, 110.9355
1267.995, 159.6992
1268.477, 180.2734
1268.959, 182.2188
1269.441, 168.4746
1269.923, 153.0020
1270.405, 121.1230
1270.887, 121.0469
1271.370, 180.7227
1271.852, 234.4238
1272.334, 211.6406
1272.816, 147.4160
1273.298, 161.1934
1273.780, 223.0605
1274.262, 241.8262
1274.744, 118.6992
1275.227, 68.39844
1275.709, 123.3008
1276.191, 192.2812
1276.673, 208.3613
1277.155, 187.9590
1277.637, 121.0566
1278.119, 46.18945
1278.601, 22.09570
1279.083, 61.70312
1279.566, 78.29688
1280.048, 42.99414
1280.530, 9.222656
1281.012, 25.33203
1281.494, 56.08008
1281.976, 68.82617
1282.458, 66.02344
1282.940, 52.03906
1283.422, 21.91797
1283.905, 4.876953
1284.387, 1.419922
1284.869, 8.613281
1285.351, 37.22266
1285.833, 60.71484
1286.315, 48.47461
1286.797, 22.24219
1287.279, 9.210938
1287.762, 9.406250
1288.244, 45.27930
1288.726, 112.2227
1289.208, 150.2676
1289.690, 99.92188
1290.172, 44.87695
1290.654, 13.37695
1291.136, 0.0000000E+00
##END=



