##NAMES=Grossular
##RRUFFID=R050036
##IDEAL CHEMISTRY=Ca_3_Al_2_(SiO_4_)_3_
##LOCALITY=Wah Wah Mountains, Utah, USA
##OWNER=RRUFF
##SOURCE=Eugene Schlepp
##DESCRIPTION=Colorless single crystal in rhyolite matrix
##STATUS=The identification of this mineral has been confirmed by X-ray diffraction and chemical analysis
##URL=rruff.info/R050036
##MEASURED CHEMISTRY=(Ca_2.95_Mg_0.05_)_Σ=3_(Al_1.70_Fe^3+^_0.30_)_Σ=2_(Si_1.00_O_4_)_3_; trace amounts of P
135.083, 0.000
136.470, 153.621
137.857, 158.158
139.243, 245.334
140.630, 209.765
142.016, 185.072
143.401, 315.838
144.787, 247.589
146.172, 247.809
147.557, 295.408
148.942, 131.491
150.327, 102.981
151.711, 93.731
153.096, 106.608
154.480, 47.672
155.863, 11.171
157.247, 60.196
158.630, 45.539
160.013, 5.021
161.396, 79.076
162.779, 38.786
164.161, 68.071
165.544, 17.897
166.926, 80.250
168.308, 16.075
169.689, 119.365
171.070, 142.100
172.452, 385.265
173.833, 507.873
175.213, 949.098
176.594, 1203.334
177.974, 1486.934
179.354, 1580.062
180.734, 1474.846
182.114, 1478.707
183.493, 1053.554
184.872, 656.668
186.251, 450.038
187.630, 313.656
189.008, 237.513
190.387, 92.604
191.765, 179.921
193.143, 41.461
194.520, 57.220
195.898, 7.193
197.275, 1.379
198.652, 29.773
200.029, 12.050
201.405, 22.524
202.782, 13.185
204.158, 37.392
205.534, 6.796
206.909, 32.396
208.285, 52.190
209.660, 3.179
211.035, 15.624
212.410, 54.228
213.784, 1.646
215.159, 9.881
216.533, 2.063
217.907, 27.147
219.281, 40.268
220.654, 57.607
222.027, 116.650
223.400, 103.922
224.773, 82.246
226.146, 131.631
227.518, 298.083
228.891, 474.562
230.263, 614.089
231.634, 963.695
233.006, 1318.386
234.377, 1648.164
235.748, 2145.033
237.119, 2701.994
238.490, 2966.050
239.860, 3228.203
241.231, 3271.457
242.601, 3553.811
243.970, 3839.267
245.340, 4089.831
246.709, 3696.501
248.079, 3011.277
249.448, 2350.164
250.816, 1444.160
252.185, 1198.270
253.553, 743.492
254.921, 494.828
256.289, 487.271
257.657, 299.821
259.024, 466.486
260.391, 354.270
261.758, 405.170
263.125, 372.185
264.492, 489.314
265.858, 522.560
267.224, 639.921
268.590, 851.396
269.956, 1045.985
271.321, 1662.688
272.687, 2159.506
274.052, 2703.434
275.416, 3247.474
276.781, 3554.624
278.146, 3147.885
279.510, 2553.255
280.874, 2138.732
282.237, 1614.316
283.601, 1402.188
284.964, 1123.404
286.327, 944.942
287.690, 950.111
289.053, 776.198
290.416, 725.450
291.778, 563.732
293.140, 368.113
294.502, 351.588
295.863, 274.158
297.225, 341.822
298.586, 435.576
299.947, 619.338
301.308, 481.372
302.668, 427.587
304.029, 267.944
305.389, 295.407
306.749, 423.960
308.108, 527.624
309.468, 613.407
310.827, 535.039
312.186, 443.790
313.545, 361.692
314.903, 461.737
316.262, 555.918
317.620, 489.232
318.978, 711.673
320.336, 730.083
321.693, 1036.422
323.051, 1221.218
324.408, 1628.621
325.765, 1737.640
327.121, 1987.767
328.478, 1928.997
329.834, 1680.330
331.190, 1635.762
332.546, 1471.291
333.902, 1386.831
335.257, 1204.672
336.612, 1309.516
337.967, 1318.458
339.322, 1402.487
340.677, 1508.647
342.031, 1786.930
343.385, 1916.305
344.739, 1990.764
346.093, 2047.333
347.446, 2016.993
348.799, 2000.743
350.153, 2136.605
351.505, 2420.599
352.858, 2664.703
354.210, 2892.887
355.563, 3378.166
356.915, 3758.542
358.267, 4486.996
359.618, 5490.560
360.969, 6892.242
362.321, 8630.009
363.672, 10731.854
365.022, 13166.827
366.373, 16201.917
367.723, 19283.098
369.073, 23118.357
370.423, 27537.721
371.773, 32760.174
373.122, 36958.719
374.471, 40025.191
375.821, 39456.059
377.169, 35228.816
378.518, 30002.654
379.866, 23819.639
381.215, 19074.734
382.563, 14918.905
383.910, 11521.178
385.258, 9164.515
386.605, 7197.906
387.952, 5956.361
389.299, 4680.874
390.646, 4119.473
391.992, 3430.129
393.339, 3080.859
394.685, 2624.704
396.031, 2448.607
397.376, 2378.588
398.722, 2059.624
400.067, 1983.730
401.412, 1847.894
402.757, 1698.134
404.101, 1835.443
405.446, 1855.804
406.790, 1837.240
408.134, 2041.729
409.478, 2126.270
410.821, 2281.863
412.165, 2287.512
413.508, 1973.209
414.851, 1799.999
416.193, 1284.837
417.536, 897.721
418.878, 577.661
420.220, 340.767
421.562, 262.681
422.904, 73.760
424.245, 81.883
425.586, 34.050
426.927, 62.259
428.268, 71.511
429.609, 22.196
430.949, 48.136
432.289, 43.492
433.629, 50.916
434.969, 59.637
436.309, 126.847
437.648, 22.635
438.987, 139.921
440.326, 10.512
441.665, 8.861
443.003, 31.800
444.342, 222.495
445.680, 159.225
447.018, 285.983
448.355, 390.772
449.693, 469.592
451.030, 610.442
452.367, 567.324
453.704, 865.235
455.041, 666.177
456.377, 816.148
457.713, 681.146
459.049, 750.175
460.385, 768.230
461.721, 728.330
463.056, 818.477
464.391, 642.666
465.726, 764.897
467.061, 862.171
468.395, 755.487
469.730, 690.845
471.064, 1026.242
472.398, 861.680
473.731, 976.157
475.065, 843.675
476.398, 845.230
477.731, 857.824
479.064, 857.454
480.397, 660.121
481.729, 741.829
483.062, 665.135
484.394, 612.376
485.725, 652.204
487.057, 699.086
488.389, 772.979
489.720, 934.904
491.051, 941.859
492.382, 1249.844
493.712, 1245.354
495.043, 1378.631
496.373, 1539.704
497.703, 1434.764
499.032, 1485.890
500.362, 1646.883
501.691, 1541.175
503.020, 1634.827
504.349, 1550.052
505.678, 1643.707
507.007, 1650.873
508.335, 1588.051
509.663, 1441.846
510.991, 1364.423
512.319, 1247.430
513.646, 1137.588
514.973, 1157.742
516.300, 1114.604
517.627, 1180.274
518.954, 1125.199
520.280, 1171.305
521.607, 1152.499
522.933, 1200.390
524.259, 1221.594
525.584, 1205.575
526.910, 1292.586
528.235, 1321.589
529.560, 1515.015
530.885, 1636.547
532.209, 1775.273
533.534, 2117.913
534.858, 2756.000
536.182, 3374.725
537.506, 4429.438
538.829, 5941.674
540.152, 7870.820
541.476, 9895.392
542.799, 11793.755
544.121, 12176.697
545.444, 11837.213
546.766, 9923.447
548.088, 7531.158
549.410, 5648.206
550.732, 4104.160
552.053, 3005.454
553.375, 2275.387
554.696, 1717.779
556.017, 1546.264
557.337, 1310.882
558.658, 1226.018
559.978, 1009.879
561.298, 971.876
562.618, 1076.732
563.938, 938.174
565.257, 952.967
566.576, 862.376
567.895, 857.863
569.214, 780.448
570.533, 897.077
571.851, 820.500
573.170, 917.023
574.488, 995.526
575.805, 806.832
577.123, 790.051
578.440, 704.379
579.758, 662.426
581.075, 687.768
582.391, 611.985
583.708, 725.518
585.024, 562.771
586.341, 478.967
587.657, 549.107
588.972, 638.063
590.288, 724.162
591.603, 465.853
592.918, 366.910
594.233, 327.349
595.548, 449.362
596.863, 601.186
598.177, 475.155
599.491, 609.104
600.805, 683.966
602.119, 691.867
603.432, 723.744
604.746, 774.178
606.059, 973.428
607.372, 921.233
608.685, 960.015
609.997, 1166.771
611.309, 958.501
612.621, 1062.205
613.933, 1197.885
615.245, 1259.537
616.557, 1352.164
617.868, 1428.766
619.179, 1540.340
620.490, 1666.886
621.801, 1660.404
623.111, 1986.896
624.421, 1932.359
625.731, 2121.793
627.041, 1934.199
628.351, 2011.576
629.660, 1654.922
630.970, 1306.240
632.279, 1268.528
633.588, 990.786
634.896, 799.012
636.205, 492.208
637.513, 556.372
638.821, 430.506
640.129, 420.606
641.437, 437.676
642.744, 165.713
644.051, 49.718
645.358, 95.689
646.665, 126.628
647.972, 161.533
649.278, 138.405
650.584, 29.244
651.890, 65.959
653.196, 84.748
654.502, 59.580
655.807, 102.003
657.113, 119.446
658.418, 91.019
659.722, 17.302
661.027, 117.573
662.331, 61.191
663.636, 11.950
664.940, 13.038
666.244, 75.930
667.547, 151.000
668.851, 77.212
670.154, 43.472
671.457, 29.890
672.760, 24.332
674.062, 33.149
675.365, 87.421
676.667, 131.101
677.969, 16.084
679.271, 11.210
680.572, 168.726
681.874, 116.816
683.175, 53.036
684.476, 11.648
685.777, 74.729
687.077, 28.214
688.378, 78.782
689.678, 46.540
690.978, 33.812
692.278, 61.969
693.577, 236.850
694.877, 10.075
696.176, 132.064
697.475, 11.342
698.774, 103.695
700.072, 84.827
701.371, 54.309
702.669, 66.743
703.967, 122.771
705.265, 51.518
706.562, 83.736
707.860, 8.050
709.157, 161.910
710.454, 58.075
711.751, 27.986
713.047, 137.870
714.344, 7.312
715.640, 87.434
716.936, 37.861
718.232, 4.244
719.527, 169.304
720.823, 36.186
722.118, 171.239
723.413, 46.628
724.708, 122.970
726.002, 39.271
727.297, 154.526
728.591, 115.257
729.885, 127.835
731.179, 195.890
732.472, 16.909
733.766, 156.872
735.059, 54.801
736.352, 144.686
737.645, 201.533
738.937, 89.348
740.230, 151.123
741.522, 159.862
742.814, 183.567
744.106, 216.239
745.397, 185.877
746.689, 329.480
747.980, 266.054
749.271, 305.592
750.562, 277.101
751.853, 349.575
753.143, 262.019
754.433, 364.436
755.723, 438.820
757.013, 208.172
758.303, 460.499
759.592, 323.793
760.881, 236.055
762.170, 362.285
763.459, 462.483
764.748, 459.651
766.036, 347.786
767.325, 613.891
768.613, 325.965
769.901, 384.008
771.188, 647.021
772.476, 524.002
773.763, 693.956
775.050, 455.883
776.337, 632.776
777.624, 653.642
778.910, 655.476
780.196, 710.281
781.482, 795.057
782.768, 686.807
784.054, 705.525
785.339, 772.217
786.625, 956.879
787.910, 862.516
789.195, 1097.125
790.479, 809.707
791.764, 930.264
793.048, 1028.803
794.332, 1088.320
795.616, 1199.812
796.900, 1402.293
798.183, 1502.791
799.467, 1497.238
800.750, 1803.686
802.033, 2009.113
803.316, 2235.527
804.598, 2808.918
805.880, 2901.812
807.163, 3584.980
808.445, 3971.365
809.726, 4459.795
811.008, 5077.158
812.289, 5763.680
813.570, 6421.947
814.851, 7200.865
816.132, 8429.215
817.413, 9336.160
818.693, 10637.605
819.973, 12289.057
821.253, 13151.926
822.533, 13898.020
823.813, 14103.678
825.092, 13575.186
826.371, 12958.699
827.650, 11911.520
828.929, 11018.535
830.208, 10392.293
831.486, 9625.262
832.764, 8636.361
834.042, 8120.152
835.320, 8025.631
836.598, 7419.338
837.875, 7380.012
839.152, 7047.703
840.429, 6929.965
841.706, 6983.125
842.983, 6665.086
844.259, 6513.133
845.536, 6710.729
846.812, 6487.689
848.088, 6701.658
849.363, 6470.100
850.639, 6662.629
851.914, 6711.730
853.189, 6597.035
854.464, 7079.760
855.739, 7131.902
857.013, 7532.316
858.288, 7711.254
859.562, 7956.846
860.836, 8573.523
862.110, 9304.859
863.383, 9943.551
864.656, 11405.773
865.930, 12607.902
867.203, 14317.887
868.475, 16688.350
869.748, 19317.080
871.020, 22153.668
872.292, 26198.389
873.564, 30024.518
874.836, 34220.289
876.108, 37226.434
877.379, 39261.492
878.650, 40136.441
879.922, 38650.348
881.192, 35541.457
882.463, 31587.469
883.733, 27414.482
885.004, 23424.705
886.274, 19745.008
887.544, 16684.182
888.813, 14276.641
890.083, 11940.797
891.352, 10338.070
892.621, 9286.012
893.890, 7911.230
895.159, 7091.492
896.427, 6257.805
897.695, 5611.129
898.964, 5420.465
900.232, 4860.812
901.499, 4609.174
902.767, 4217.549
904.034, 4031.934
905.301, 3684.332
906.568, 3640.254
907.835, 3533.682
909.102, 3125.123
910.368, 2909.791
911.634, 2747.254
912.900, 2614.729
914.166, 2436.219
915.432, 2523.719
916.697, 2177.234
917.962, 2012.760
919.227, 2152.303
920.492, 1964.033
921.757, 1842.602
923.021, 1715.180
924.285, 1836.773
925.550, 1822.762
926.813, 1723.383
928.077, 1686.018
929.341, 1535.715
930.604, 1610.379
931.867, 1489.055
933.130, 1535.746
934.393, 1509.557
935.655, 1609.273
936.918, 1424.006
938.180, 1764.750
939.442, 1455.510
940.703, 1666.891
941.965, 1696.867
943.226, 1877.668
944.488, 1891.691
945.749, 1767.762
947.009, 1823.604
948.270, 1749.822
949.530, 1546.582
950.791, 1700.492
952.051, 1496.393
953.311, 1329.199
954.570, 1118.184
955.830, 1229.625
957.089, 948.797
958.348, 957.457
959.607, 818.801
960.866, 972.539
962.124, 694.604
963.383, 770.600
964.641, 821.652
965.899, 790.314
967.156, 1037.412
968.414, 946.293
969.671, 1182.703
970.928, 1333.785
972.185, 1259.576
973.442, 1593.920
974.699, 1776.326
975.955, 1838.779
977.211, 2073.449
978.468, 1955.896
979.723, 2294.691
980.979, 2336.801
982.234, 2231.410
983.490, 2450.512
984.745, 2111.303
986.000, 2474.646
987.254, 2391.676
988.509, 2177.529
989.763, 2355.059
991.017, 2365.092
992.271, 2523.256
993.525, 2441.824
994.779, 2711.535
996.032, 2717.947
997.285, 2836.631
998.538, 2956.793
999.791, 2927.438
1001.044, 3307.191
1002.296, 3191.533
1003.548, 3457.594
1004.800, 3546.061
1006.052, 3465.537
1007.304, 3399.307
1008.555, 2933.781
1009.807, 2467.270
1011.058, 2318.094
1012.309, 1849.676
1013.559, 1582.330
1014.810, 1223.643
1016.060, 1099.457
1017.310, 1002.328
1018.560, 921.113
1019.810, 711.480
1021.060, 720.314
1022.309, 895.541
1023.558, 698.654
1024.807, 659.590
1026.056, 586.814
1027.305, 539.814
1028.553, 492.830
1029.801, 551.857
1031.049, 421.857
1032.297, 266.947
1033.545, 468.748
1034.793, 446.992
1036.040, 349.191
1037.287, 337.818
1038.534, 254.539
1039.781, 330.195
1041.027, 429.459
1042.274, 259.734
1043.520, 343.066
1044.766, 463.928
1046.012, 267.258
1047.257, 61.303
1048.503, 220.535
1049.748, 326.619
1050.993, 178.176
1052.238, 236.400
1053.483, 237.930
1054.727, 49.629
1055.971, 62.010
1057.216, 292.406
1058.459, 142.754
1059.703, 51.639
1060.947, 222.691
1062.190, 211.566
1063.433, 92.486
1064.676, 184.812
1065.919, 115.197
1067.162, 124.002
1068.404, 244.131
1069.646, 8.459
1070.888, 77.094
1072.130, 145.398
1073.372, 163.934
1074.613, 15.258
1075.855, 140.027
1077.096, 85.904
1078.337, 13.420
1079.578, 304.686
1080.818, 88.264
1082.059, 181.854
1083.299, 12.100
1084.539, 139.338
1085.779, 135.607
1087.018, 222.830
1088.258, 180.043
1089.497, 14.754
1090.736, 10.896
1091.975, 109.068
1093.213, 48.766
1094.452, 33.637
1095.690, 78.467
1096.928, 72.443
1098.166, 176.291
1099.404, 71.768
1100.642, 85.699
1101.879, 39.385
1103.116, 41.941
1104.353, 2.098
1105.590, 94.680
1106.827, 132.926
1108.063, 43.812
1109.299, 99.131
1110.536, 114.426
1111.771, 68.318
1113.007, 178.836
1114.243, 4.527
1115.478, 7.510
1116.713, 92.029
1117.948, 12.486
1119.183, 76.270
1120.418, 118.080
1121.652, 152.400
1122.886, 220.562
1124.120, 296.033
1125.354, 91.459
1126.588, 56.713
1127.821, 83.688
1129.055, 15.105
1130.288, 158.039
1131.521, 52.102
1132.753, 134.377
1133.986, 10.846
1135.218, 4.660
1136.450, 210.740
1137.682, 27.215
1138.914, 147.301
1140.146, 135.785
1141.377, 49.254
1142.609, 34.105
1143.840, 111.873
1145.071, 54.074
1146.301, 245.961
1147.532, 101.688
1148.762, 82.787
1149.992, 225.307
1151.222, 37.754
1152.452, 195.965
1153.682, 200.471
1154.911, 136.367
1156.140, 409.264
1157.369, 376.014
1158.598, 159.457
1159.827, 231.125
1161.055, 265.740
1162.284, 105.312
1163.512, 229.785
1164.740, 229.271
1165.967, 298.189
1167.195, 128.035
1168.422, 323.430
1169.650, 190.805
1170.877, 226.992
1172.103, 341.982
1173.330, 216.256
1174.557, 367.285
1175.783, 299.438
1177.009, 361.734
1178.235, 2.307
1179.461, 385.254
1180.686, 169.525
1181.912, 19.324
1183.137, 478.592
1184.362, 233.436
1185.587, 217.357
1186.811, 73.570
1188.036, 358.477
1189.260, 342.260
1190.484, 334.111
1191.708, 220.334
1192.932, 355.564
1194.155, 187.375
1195.378, 149.674
1196.602, 185.676
1197.825, 314.699
1199.047, 157.207
1200.270, 329.113
1201.492, 289.785
1202.715, 495.850
1203.937, 69.180
1205.159, 397.162
1206.380, 317.283
1207.602, 477.477
1208.823, 252.525
1210.044, 244.240
1211.265, 401.525
1212.486, 375.312
1213.707, 276.518
1214.927, 199.678
1216.147, 373.232
1217.367, 339.129
1218.587, 464.979
1219.807, 346.131
1221.027, 282.051
1222.246, 473.566
1223.465, 265.363
1224.684, 352.150
1225.903, 539.816
1227.121, 338.092
1228.340, 336.637
1229.558, 488.123
1230.776, 538.705
1231.994, 412.070
1233.212, 568.787
1234.429, 533.861
1235.646, 549.131
1236.864, 318.473
1238.081, 590.420
1239.297, 472.150
1240.514, 615.766
1241.730, 604.885
1242.947, 498.242
1244.163, 407.826
1245.378, 399.043
1246.594, 518.072
1247.810, 558.949
1249.025, 292.811
1250.240, 618.355
1251.455, 285.348
1252.670, 483.551
1253.885, 312.488
1255.099, 405.381
1256.313, 444.811
1257.527, 242.863
1258.741, 543.912
1259.955, 512.869
1261.168, 254.221
1262.382, 363.395
1263.595, 326.324
1264.808, 400.203
1266.021, 387.074
1267.233, 290.637
1268.446, 361.465
1269.658, 282.576
1270.870, 287.820
1272.082, 184.598
1273.294, 269.451
1274.505, 257.889
1275.716, 153.959
1276.928, 60.441
1278.139, 270.396
1279.349, 216.594
1280.560, 201.377
1281.770, 213.238
1282.981, 117.307
1284.191, 34.576
1285.401, 10.266
1286.610, 169.787
1287.820, 22.723
1289.029, 304.564
1290.239, 203.430
1291.448, 244.102
1292.656, 116.158
1293.865, 185.707
1295.073, 129.646
1296.282, 133.584
1297.490, 156.777
1298.698, 117.895
1299.906, 184.258
1301.113, 82.283
1302.320, 88.367
1303.528, 30.686
1304.735, 3.143
1305.942, 114.600
1307.148, 90.787
1308.355, 219.508
1309.561, 46.756
1310.767, 344.096
1311.973, 35.467
1313.179, 102.654
1314.384, 46.002
1315.590, 254.969
1316.795, 61.957
1318.000, 218.340
1319.205, 27.039
1320.410, 108.521
1321.614, 96.289
1322.819, 90.234
1324.023, 157.070
1325.227, 96.123
1326.431, 278.221
1327.634, 88.631
1328.838, 5.061
1330.041, 55.070
1331.244, 174.924
1332.447, 104.730
1333.650, 111.980
1334.852, 22.947
1336.055, 3.818
1337.257, 38.504
1338.459, 199.178
1339.661, 72.219
1340.862, 361.010
1342.064, 346.652
1343.265, 222.266
1344.466, 85.164
1345.667, 402.619
1346.868, 140.025
1348.068, 342.152
1349.269, 299.568
1350.469, 256.143
1351.669, 430.645
1352.869, 254.363
1354.069, 324.777
1355.268, 537.334
1356.468, 288.703
1357.667, 482.830
1358.866, 506.775
1360.065, 316.523
1361.263, 526.047
1362.462, 226.969
1363.660, 376.992
1364.858, 505.467
1366.056, 417.375
1367.254, 426.309
1368.451, 403.070
1369.649, 402.711
1370.846, 256.506
1372.043, 491.592
1373.240, 478.008
1374.436, 356.465
1375.633, 570.338
1376.829, 299.078
1378.025, 402.721
1379.221, 320.992
1380.417, 378.992
1381.613, 308.535
1382.808, 438.164
1384.003, 418.352
1385.199, 420.873
1386.393, 353.977
1387.588, 138.416
1388.783, 336.283
1389.977, 270.982
1391.171, 448.770
1392.365, 441.555
1393.559, 295.301
1394.753, 394.672
1395.946, 302.141
1397.140, 175.186
1398.333, 363.713
1399.526, 339.742
1400.719, 320.584
1401.911, 290.664
1403.104, 276.682
1404.296, 216.775
1405.488, 133.850
1406.680, 485.365
1407.872, 9.480
1409.063, 282.125
1410.255, 329.801
1411.446, 67.439
1412.637, 367.402
1413.828, 121.676
1415.018, 153.480
1416.209, 252.924
1417.399, 177.480
1418.589, 142.488
1419.779, 222.824
1420.969, 143.758
1422.159, 173.469
1423.348, 81.322
1424.537, 185.760
1425.726, 108.965
1426.915, 189.715
1428.104, 200.074
1429.293, 76.396
1430.481, 93.164
1431.669, 61.379
1432.857, 91.965
1434.045, 113.438
1435.233, 179.316
1436.420, 232.252
1437.608, 221.004
1438.795, 102.730
1439.982, 7.066
1441.169, 128.834
1442.355, 156.248
1443.542, 33.146
1444.728, 145.385
1445.914, 61.342
1447.100, 0.139
1448.286, 0.000
##END=



