##NAMES=Grossular
##RRUFFID=R050036
##IDEAL CHEMISTRY=Ca_3_Al_2_(SiO_4_)_3_
##LOCALITY=Wah Wah Mountains, Utah, USA
##OWNER=RRUFF
##SOURCE=Eugene Schlepp
##DESCRIPTION=Colorless single crystal in rhyolite matrix
##STATUS=The identification of this mineral has been confirmed by X-ray diffraction and chemical analysis
##URL=rruff.info/R050036
##MEASURED CHEMISTRY=(Ca_2.95_Mg_0.05_)_Σ=3_(Al_1.70_Fe^3+^_0.30_)_Σ=2_(Si_1.00_O_4_)_3_; trace amounts of P
140.5016, 0.0000000E+00
140.9837, 4.554077
141.4658, 6.674377
141.9480, 1.879578
142.4301, 1.127014
142.9122, 8.119324
143.3943, 8.974670
143.8764, 7.206177
144.3585, 0.7039790
144.8407, 1.971375
145.3228, 2.528687
145.8049, 8.253418
146.2870, 9.987671
146.7691, 2.163208
147.2512, 2.500671
147.7334, 3.8391002E-02
148.2155, 12.54773
148.6976, 18.96814
149.1797, 12.02478
149.6618, 1.050781
150.1439, 1.699097
150.6261, 11.68933
151.1082, 26.09888
151.5903, 38.08466
152.0724, 47.90955
152.5545, 54.31384
153.0366, 54.26404
153.5188, 50.74384
154.0009, 49.60950
154.4830, 54.14545
154.9651, 59.44763
155.4472, 63.54242
155.9293, 66.48810
156.4115, 67.86108
156.8936, 66.43713
157.3757, 63.06329
157.8578, 60.63422
158.3399, 56.97369
158.8221, 56.09167
159.3042, 60.54022
159.7863, 76.35162
160.2684, 92.27148
160.7505, 105.6431
161.2326, 116.5200
161.7148, 123.9738
162.1969, 120.5487
162.6790, 116.2856
163.1611, 120.8179
163.6432, 147.4536
164.1253, 175.6796
164.6075, 193.5907
165.0896, 200.7285
165.5717, 207.7852
166.0538, 221.5889
166.5359, 238.9473
167.0180, 255.3016
167.5002, 267.2272
167.9823, 278.5717
168.4644, 290.4615
168.9465, 302.1305
169.4286, 320.2470
169.9107, 354.4789
170.3929, 398.8208
170.8750, 441.6583
171.3571, 472.5116
171.8392, 503.7416
172.3213, 540.5055
172.8034, 581.9238
173.2856, 630.2160
173.7677, 677.7909
174.2498, 727.9330
174.7319, 791.3759
175.2140, 878.5648
175.6961, 977.7319
176.1783, 1072.877
176.6604, 1155.473
177.1425, 1245.235
177.6246, 1358.349
178.1067, 1497.136
178.5888, 1666.140
179.0710, 1929.180
179.5531, 2221.461
180.0352, 2397.543
180.5173, 2421.067
180.9994, 2311.131
181.4815, 2050.699
181.9637, 1641.989
182.4458, 1225.732
182.9279, 898.4434
183.4100, 655.6457
183.8921, 476.2955
184.3742, 371.6210
184.8564, 318.5411
185.3385, 268.1933
185.8206, 219.6200
186.3027, 180.6440
186.7848, 164.0868
187.2669, 167.1490
187.7491, 167.8817
188.2312, 156.2695
188.7133, 136.3097
189.1954, 123.8195
189.6775, 120.1874
190.1596, 118.2635
190.6418, 107.1680
191.1239, 87.27521
191.6060, 71.41797
192.0881, 66.89716
192.5702, 72.20074
193.0524, 74.64191
193.5345, 74.06201
194.0166, 70.99219
194.4987, 63.86963
194.9808, 52.12384
195.4629, 44.98505
195.9451, 50.71533
196.4272, 69.02521
196.9093, 77.00977
197.3914, 72.24707
197.8735, 59.83960
198.3556, 47.76013
198.8378, 35.83716
199.3199, 26.50854
199.8020, 21.94580
200.2841, 22.49683
200.7662, 23.51794
201.2483, 26.06519
201.7305, 27.64160
202.2126, 19.11572
202.6947, 3.383545
203.1768, 21.54553
203.6589, 20.73901
204.1410, 3.033203
204.6232, 16.28809
205.1053, 13.09290
205.5874, 1.167114
206.0695, 8.698364
206.5516, 7.487671
207.0337, 4.845581
207.5159, 5.936646
207.9980, 11.72046
208.4801, 17.18762
208.9622, 22.44519
209.4443, 26.93567
209.9264, 27.33105
210.4086, 22.12439
210.8907, 15.80896
211.3728, 11.98010
211.8549, 11.20703
212.3370, 11.14734
212.8191, 13.27649
213.3013, 16.50159
213.7834, 9.095459
214.2655, 15.93286
214.7476, 40.42285
215.2297, 46.47058
215.7118, 26.18140
216.1940, 9.335205
216.6761, 0.1905520
217.1582, 1.317993
217.6403, 6.259521
218.1224, 27.54871
218.6045, 51.55957
219.0867, 67.62915
219.5688, 73.15771
220.0509, 76.20264
220.5330, 76.37415
221.0151, 73.50647
221.4972, 78.05872
221.9794, 91.35535
222.4615, 110.6453
222.9436, 134.1787
223.4257, 165.1729
223.9078, 193.9778
224.3899, 216.4625
224.8721, 231.9943
225.3542, 253.8568
225.8363, 282.6486
226.3184, 317.3782
226.8005, 357.9801
227.2827, 405.9150
227.7648, 456.2343
228.2469, 505.8358
228.7290, 552.6439
229.2111, 613.6832
229.6932, 693.8531
230.1754, 783.4614
230.6575, 870.4684
231.1396, 949.0049
231.6217, 1034.335
232.1038, 1131.440
232.5859, 1242.154
233.0681, 1354.918
233.5502, 1470.080
234.0323, 1586.546
234.5144, 1704.423
234.9965, 1822.599
235.4786, 1942.987
235.9608, 2070.156
236.4429, 2208.159
236.9250, 2328.121
237.4071, 2434.788
237.8892, 2521.023
238.3713, 2572.787
238.8535, 2575.915
239.3356, 2564.770
239.8177, 2545.562
240.2998, 2510.907
240.7819, 2500.380
241.2640, 2512.094
241.7462, 2547.562
242.2283, 2608.969
242.7104, 2692.586
243.1925, 2809.179
243.6746, 2972.180
244.1567, 3207.569
244.6389, 3405.137
245.1210, 3595.877
245.6031, 3732.990
246.0852, 3727.901
246.5673, 3553.118
247.0494, 3281.504
247.5316, 2915.606
248.0137, 2405.051
248.4958, 1968.916
248.9779, 1620.750
249.4600, 1341.889
249.9421, 1108.057
250.4243, 925.0732
250.9064, 773.5962
251.3885, 647.7109
251.8706, 548.2059
252.3527, 472.4519
252.8348, 428.2716
253.3170, 403.0134
253.7991, 372.4694
254.2812, 331.3018
254.7633, 295.6052
255.2454, 271.8108
255.7275, 262.3170
256.2097, 257.0417
256.6918, 257.9617
257.1739, 261.7649
257.6560, 261.2668
258.1381, 252.2157
258.6202, 247.6746
259.1024, 252.9315
259.5845, 269.4268
260.0666, 289.6506
260.5487, 314.3033
261.0308, 340.7806
261.5129, 368.3649
261.9951, 399.5841
262.4772, 428.1959
262.9593, 450.9493
263.4414, 466.2092
263.9235, 481.6844
264.4056, 496.0513
264.8878, 513.1277
265.3699, 540.3458
265.8520, 579.9667
266.3341, 623.0427
266.8162, 665.9380
267.2983, 707.1299
267.7805, 755.3989
268.2626, 810.0364
268.7447, 872.8635
269.2268, 947.1677
269.7089, 1033.652
270.1910, 1127.885
270.6732, 1229.586
271.1553, 1338.469
271.6374, 1451.054
272.1195, 1562.879
272.6016, 1685.355
273.0837, 1833.203
273.5659, 2007.734
274.0480, 2204.011
274.5301, 2439.256
275.0122, 2715.818
275.4943, 2945.163
275.9764, 3140.686
276.4586, 3262.897
276.9407, 3244.338
277.4228, 3078.716
277.9049, 2833.647
278.3870, 2505.466
278.8691, 2099.857
279.3513, 1743.692
279.8334, 1435.622
280.3155, 1180.498
280.7976, 995.2842
281.2798, 883.5845
281.7619, 793.5610
282.2440, 707.3228
282.7261, 626.3988
283.2082, 564.8274
283.6903, 525.0830
284.1725, 495.5811
284.6546, 460.4709
285.1367, 420.5341
285.6188, 389.5170
286.1009, 378.2565
286.5830, 380.4658
287.0652, 367.2036
287.5473, 336.7902
288.0294, 301.5470
288.5115, 276.8466
288.9936, 260.9214
289.4757, 240.0333
289.9579, 206.5756
290.4400, 165.5211
290.9221, 128.0044
291.4042, 93.80908
291.8863, 65.86377
292.3684, 51.30933
292.8506, 46.99182
293.3327, 38.96326
293.8148, 21.36975
294.2969, 1.821655
294.7790, 25.89905
295.2611, 50.94678
295.7433, 70.22839
296.2254, 72.67322
296.7075, 64.28027
297.1896, 62.34058
297.6717, 75.81140
298.1538, 94.75635
298.6360, 104.6145
299.1181, 105.8541
299.6002, 103.1289
300.0823, 102.5129
300.5644, 100.1631
301.0465, 87.63989
301.5287, 56.79102
302.0108, 22.35437
302.4929, 1.502686
302.9750, 7.467896
303.4571, 12.95288
303.9392, 19.45459
304.4214, 26.35815
304.9035, 32.54456
305.3856, 35.68787
305.8677, 41.08911
306.3498, 54.39539
306.8319, 74.05078
307.3141, 94.99304
307.7962, 115.4056
308.2783, 134.7966
308.7604, 152.5823
309.2425, 167.1042
309.7246, 182.4852
310.2068, 203.2330
310.6889, 227.2041
311.1710, 249.0780
311.6531, 264.3630
312.1352, 277.7856
312.6173, 293.3768
313.0995, 313.3059
313.5816, 330.3838
314.0637, 339.0801
314.5458, 342.7852
315.0279, 347.9873
315.5100, 356.8696
315.9922, 368.1287
316.4743, 379.2114
316.9564, 387.3314
317.4385, 405.6653
317.9206, 444.5962
318.4027, 494.9713
318.8849, 544.0022
319.3670, 584.6852
319.8491, 626.5759
320.3312, 673.8367
320.8133, 727.9009
321.2954, 781.4998
321.7776, 832.8877
322.2597, 883.6377
322.7418, 935.4294
323.2239, 996.9077
323.7060, 1051.068
324.1881, 1087.177
324.6703, 1102.216
325.1524, 1135.477
325.6345, 1209.139
326.1166, 1291.344
326.5987, 1357.387
327.0808, 1416.488
327.5630, 1448.519
328.0451, 1453.149
328.5272, 1430.089
329.0093, 1370.696
329.4914, 1251.666
329.9735, 1119.036
330.4557, 1001.447
330.9378, 895.5245
331.4199, 811.0869
331.9020, 754.5083
332.3841, 720.5629
332.8662, 682.0620
333.3484, 629.7123
333.8305, 587.4661
334.3126, 570.2643
334.7947, 586.4971
335.2768, 602.5007
335.7589, 616.5439
336.2411, 629.4727
336.7232, 643.3992
337.2053, 657.7078
337.6874, 674.5405
338.1695, 694.7882
338.6516, 718.1577
339.1338, 746.5022
339.6159, 780.6223
340.0980, 818.1321
340.5801, 854.1914
341.0622, 889.0366
341.5443, 924.3958
342.0265, 962.3713
342.5086, 1002.238
342.9907, 1040.871
343.4728, 1078.161
343.9549, 1113.363
344.4370, 1150.666
344.9192, 1188.056
345.4013, 1206.093
345.8834, 1186.545
346.3655, 1145.599
346.8476, 1124.657
347.3297, 1123.894
347.8119, 1137.907
348.2940, 1162.313
348.7761, 1197.750
349.2582, 1245.480
349.7403, 1308.778
350.2225, 1382.661
350.7046, 1456.550
351.1867, 1532.750
351.6688, 1623.998
352.1509, 1742.861
352.6331, 1880.786
353.1152, 2026.773
353.5973, 2180.134
354.0794, 2339.420
354.5615, 2497.977
355.0436, 2659.861
355.5258, 2837.634
356.0079, 3031.870
356.4900, 3249.005
356.9721, 3496.213
357.4542, 3777.490
357.9363, 4079.680
358.4185, 4386.654
358.9006, 4711.178
359.3827, 5075.378
359.8648, 5507.855
360.3469, 5965.179
360.8290, 6419.721
361.3112, 6866.325
361.7933, 7343.520
362.2754, 7867.639
362.7575, 8430.677
363.2396, 9026.453
363.7217, 9646.805
364.2039, 10298.54
364.6860, 11011.54
365.1681, 11789.35
365.6502, 12499.07
366.1323, 13142.20
366.6144, 13709.11
367.0966, 14194.71
367.5787, 14614.74
368.0608, 14927.16
368.5429, 15082.23
369.0250, 15112.44
369.5071, 15178.08
369.9893, 15259.64
370.4714, 15398.69
370.9535, 15617.95
371.4356, 15930.58
371.9177, 16295.12
372.3998, 16749.37
372.8820, 17237.22
373.3641, 17658.55
373.8462, 18067.04
374.3283, 18269.76
374.8104, 18184.61
375.2925, 17802.23
375.7747, 17209.85
376.2568, 16381.12
376.7389, 15385.64
377.2210, 14280.78
377.7031, 13055.55
378.1852, 11878.06
378.6674, 10779.28
379.1495, 9768.699
379.6316, 8841.211
380.1137, 8005.872
380.5958, 7246.499
381.0779, 6565.821
381.5601, 5953.122
382.0422, 5408.646
382.5243, 4925.693
383.0064, 4501.205
383.4885, 4139.866
383.9706, 3835.450
384.4528, 3559.009
384.9349, 3279.537
385.4170, 3012.764
385.8991, 2782.624
386.3812, 2594.878
386.8633, 2433.472
387.3455, 2291.610
387.8276, 2164.677
388.3097, 2039.806
388.7918, 1899.193
389.2739, 1766.748
389.7560, 1666.051
390.2382, 1601.082
390.7203, 1541.363
391.2024, 1467.760
391.6845, 1391.551
392.1666, 1324.806
392.6487, 1276.631
393.1309, 1234.476
393.6130, 1193.949
394.0951, 1155.041
394.5772, 1121.194
395.0593, 1093.709
395.5414, 1071.228
396.0236, 1053.206
396.5057, 1041.969
396.9878, 1032.272
397.4699, 1022.562
397.9520, 1013.986
398.4341, 1010.162
398.9163, 1012.383
399.3984, 1018.034
399.8805, 1026.365
400.3626, 1037.705
400.8447, 1050.950
401.3268, 1067.388
401.8090, 1084.763
402.2911, 1098.574
402.7732, 1103.975
403.2553, 1118.396
403.7374, 1148.550
404.2195, 1193.496
404.7017, 1236.632
405.1838, 1278.407
405.6659, 1317.572
406.1480, 1350.085
406.6301, 1375.850
407.1122, 1409.465
407.5944, 1453.785
408.0765, 1507.439
408.5586, 1568.831
409.0407, 1638.055
409.5228, 1707.433
410.0049, 1770.328
410.4871, 1828.752
410.9692, 1896.998
411.4513, 1983.883
411.9334, 2051.036
412.4155, 2061.529
412.8976, 2017.974
413.3798, 1929.914
413.8619, 1776.067
414.3440, 1594.101
414.8261, 1416.232
415.3082, 1242.754
415.7903, 1077.619
416.2725, 915.9976
416.7546, 765.4354
417.2367, 630.8271
417.7188, 511.3076
418.2009, 414.6704
418.6830, 357.9227
419.1652, 331.0856
419.6473, 299.8439
420.1294, 242.7885
420.6115, 185.2354
421.0937, 140.8115
421.5758, 118.2886
422.0579, 95.84766
422.5400, 67.01184
423.0221, 37.27075
423.5042, 15.09583
423.9864, 6.651855
424.4685, 0.6481930
424.9506, 10.06653
425.4327, 21.84473
425.9148, 30.61169
426.3969, 34.62500
426.8791, 37.62305
427.3612, 43.10938
427.8433, 52.41223
428.3254, 59.99561
428.8075, 64.97864
429.2896, 67.73413
429.7718, 69.22058
430.2539, 69.32910
430.7360, 68.83459
431.2181, 68.76489
431.7002, 68.92236
432.1823, 65.96362
432.6645, 59.21436
433.1466, 51.00220
433.6287, 45.03284
434.1108, 40.71082
434.5929, 34.92200
435.0750, 24.60242
435.5572, 12.82947
436.0393, 4.311279
436.5214, 0.9372560
437.0035, 2.582764
437.4856, 2.775024
437.9677, 10.99023
438.4499, 16.14001
438.9320, 15.69104
439.4141, 13.58655
439.8962, 9.769531
440.3783, 6.217163
440.8604, 7.919678
441.3426, 28.75940
441.8247, 46.62866
442.3068, 46.35059
442.7889, 21.94800
443.2710, 0.3471680
443.7531, 7.287720
444.2353, 10.00671
444.7174, 17.94910
445.1995, 38.80737
445.6816, 57.98450
446.1637, 71.51453
446.6458, 80.08130
447.1280, 92.69714
447.6101, 112.3578
448.0922, 132.8375
448.5743, 150.6053
449.0564, 165.2070
449.5385, 178.7511
450.0207, 191.2974
450.5028, 202.7699
450.9849, 212.6786
451.4670, 220.6436
451.9491, 228.7310
452.4312, 240.3120
452.9134, 253.6245
453.3955, 253.1785
453.8776, 237.5311
454.3597, 218.5845
454.8418, 207.6685
455.3239, 203.3556
455.8061, 200.4182
456.2882, 198.2520
456.7703, 195.9585
457.2524, 191.6243
457.7345, 185.8248
458.2166, 180.8237
458.6988, 180.6891
459.1809, 180.7296
459.6630, 174.6196
460.1451, 160.7019
460.6272, 147.8016
461.1093, 141.0701
461.5915, 138.7673
462.0736, 138.9082
462.5557, 142.2208
463.0378, 146.4863
463.5199, 151.3339
464.0020, 156.5964
464.4842, 161.4001
464.9663, 165.8989
465.4484, 169.5847
465.9305, 171.6593
466.4126, 166.2140
466.8947, 169.8253
467.3769, 187.5483
467.8590, 212.0460
468.3411, 231.6431
468.8232, 244.3943
469.3053, 255.8199
469.7874, 267.0685
470.2696, 278.1877
470.7517, 289.4039
471.2338, 299.7688
471.7159, 312.9993
472.1980, 336.4187
472.6801, 369.5989
473.1623, 389.3087
473.6444, 389.5194
474.1265, 380.6763
474.6086, 381.6460
475.0907, 390.6438
475.5728, 396.1327
476.0550, 392.8602
476.5371, 381.8473
477.0192, 361.9976
477.5013, 333.0725
477.9834, 305.5999
478.4655, 291.0259
478.9477, 281.6798
479.4298, 267.2769
479.9119, 237.7340
480.3940, 211.0614
480.8761, 198.7312
481.3582, 196.7195
481.8404, 194.6281
482.3225, 186.4237
482.8046, 179.1250
483.2867, 177.0043
483.7688, 183.5424
484.2509, 185.5055
484.7331, 174.9193
485.2152, 162.7410
485.6973, 159.3047
486.1794, 170.1328
486.6615, 180.9248
487.1436, 190.5242
487.6258, 198.8763
488.1079, 203.9790
488.5900, 202.9230
489.0721, 206.7015
489.5542, 224.4644
490.0363, 256.6780
490.5185, 280.7922
491.0006, 294.6189
491.4827, 305.1707
491.9648, 322.1946
492.4470, 344.3890
492.9291, 364.0275
493.4112, 377.4401
493.8933, 387.1367
494.3754, 394.9641
494.8575, 401.3103
495.3397, 408.9807
495.8218, 425.0437
496.3039, 441.2466
496.7860, 447.3218
497.2681, 439.5598
497.7502, 431.4592
498.2324, 433.3625
498.7145, 437.9995
499.1966, 434.8479
499.6787, 404.2407
500.1608, 383.8585
500.6429, 392.3684
501.1251, 427.6340
501.6072, 454.5371
502.0893, 464.3334
502.5714, 470.7673
503.0535, 479.9973
503.5356, 492.7395
504.0178, 505.7888
504.4999, 518.8463
504.9820, 532.3876
505.4641, 549.4453
505.9462, 572.2815
506.4283, 586.6266
506.9105, 587.5146
507.3926, 576.8527
507.8747, 562.6917
508.3568, 545.1321
508.8389, 520.4934
509.3210, 479.2245
509.8032, 428.4188
510.2853, 388.7148
510.7674, 364.6245
511.2495, 343.3477
511.7316, 309.9474
512.2137, 269.6187
512.6959, 233.4861
513.1780, 201.9427
513.6601, 179.2384
514.1422, 172.3308
514.6243, 178.9836
515.1064, 184.0688
515.5886, 182.5497
516.0707, 176.9993
516.5528, 168.8629
517.0349, 157.8074
517.5170, 145.1077
517.9991, 125.3940
518.4813, 106.3229
518.9634, 98.20178
519.4455, 106.6340
519.9276, 116.7086
520.4097, 127.2878
520.8918, 137.3726
521.3740, 140.3231
521.8561, 134.2552
522.3382, 127.2833
522.8203, 124.2094
523.3024, 124.9484
523.7845, 128.5404
524.2667, 135.8936
524.7488, 142.4790
525.2309, 139.5748
525.7130, 130.6580
526.1951, 128.1056
526.6772, 139.7809
527.1594, 156.4716
527.6415, 163.6021
528.1236, 164.6946
528.6057, 175.5919
529.0878, 207.2594
529.5699, 250.8986
530.0521, 298.8682
530.5342, 349.2516
531.0163, 410.0454
531.4984, 489.4011
531.9805, 578.7732
532.4626, 669.4150
532.9448, 750.6587
533.4269, 844.9070
533.9090, 956.9119
534.3911, 1083.774
534.8732, 1210.196
535.3553, 1335.898
535.8375, 1465.525
536.3196, 1596.344
536.8017, 1728.838
537.2838, 1879.358
537.7659, 2052.547
538.2480, 2233.882
538.7302, 2403.343
539.2123, 2566.309
539.6944, 2747.846
540.1765, 2955.555
540.6586, 3178.066
541.1407, 3414.081
541.6229, 3658.456
542.1050, 3896.224
542.5871, 4148.341
543.0692, 4371.676
543.5513, 4541.938
544.0334, 4655.525
544.5156, 4666.967
544.9977, 4541.240
545.4798, 4312.180
545.9619, 4003.284
546.4440, 3565.876
546.9261, 3127.801
547.4083, 2684.000
547.8904, 2253.179
548.3725, 1875.206
548.8546, 1553.625
549.3367, 1274.721
549.8188, 1036.931
550.3010, 839.7070
550.7831, 681.2424
551.2652, 567.8354
551.7473, 471.7659
552.2294, 371.5652
552.7115, 269.3008
553.1937, 192.2876
553.6758, 144.6249
554.1579, 114.1947
554.6400, 90.41187
555.1221, 72.06152
555.6042, 56.05640
556.0864, 40.15796
556.5685, 26.94556
557.0506, 19.93408
557.5327, 18.07385
558.0148, 17.65173
558.4969, 15.43933
558.9791, 15.15894
559.4612, 19.52197
559.9433, 29.47766
560.4254, 40.43604
560.9075, 49.39526
561.3896, 60.29590
561.8718, 77.61731
562.3539, 115.3702
562.8360, 134.9012
563.3181, 127.3425
563.8002, 102.6350
564.2823, 82.23962
564.7645, 65.33130
565.2466, 57.39429
565.7287, 61.73157
566.2108, 76.95276
566.6929, 100.9294
567.1750, 134.1544
567.6572, 161.0950
568.1393, 162.4198
568.6214, 148.7859
569.1035, 141.6321
569.5856, 145.1385
570.0677, 151.5819
570.5499, 156.5481
571.0320, 159.7953
571.5141, 160.9728
571.9962, 157.5490
572.4783, 154.4250
572.9604, 154.6893
573.4426, 157.4205
573.9247, 157.6747
574.4068, 149.5970
574.8889, 143.6542
575.3710, 145.3026
575.8531, 157.3157
576.3353, 161.9440
576.8174, 156.2068
577.2995, 147.4808
577.7816, 143.7875
578.2637, 146.0889
578.7458, 142.7897
579.2280, 130.9830
579.7101, 115.1267
580.1922, 100.7518
580.6743, 88.50354
581.1564, 82.01648
581.6385, 90.02466
582.1207, 100.9657
582.6028, 96.66821
583.0849, 79.25171
583.5670, 64.78943
584.0491, 66.02893
584.5313, 71.94958
585.0134, 74.26953
585.4955, 71.34485
585.9776, 66.28381
586.4597, 60.97852
586.9418, 53.52014
587.4240, 41.55981
587.9061, 19.40625
588.3882, 2.216919
588.8703, 7.283691
589.3524, 11.11279
589.8345, 15.15686
590.3167, 20.60046
590.7988, 25.44788
591.2809, 26.34387
591.7630, 24.29199
592.2451, 31.31396
592.7272, 47.83911
593.2094, 60.90503
593.6915, 56.49744
594.1736, 41.38062
594.6557, 27.02051
595.1378, 14.19434
595.6199, 7.707642
596.1021, 20.39026
596.5842, 38.99902
597.0663, 44.57666
597.5485, 23.88782
598.0306, 2.833496
598.5127, 33.27625
598.9948, 65.35559
599.4769, 91.15015
599.9590, 108.9543
600.4412, 122.9186
600.9233, 132.6661
601.4054, 137.8020
601.8875, 150.5890
602.3696, 172.9614
602.8517, 196.3135
603.3339, 211.8951
603.8160, 221.0795
604.2981, 237.5559
604.7802, 264.3635
605.2623, 292.9684
605.7444, 311.8401
606.2266, 323.3235
606.7087, 333.2948
607.1908, 342.9648
607.6729, 353.4977
608.1550, 366.5593
608.6371, 381.4019
609.1193, 395.8741
609.6014, 403.7867
610.0835, 415.3912
610.5656, 438.9016
611.0477, 477.7439
611.5298, 505.1226
612.0120, 513.4186
612.4941, 516.5184
612.9762, 521.6409
613.4583, 525.9626
613.9404, 544.0240
614.4225, 580.2308
614.9047, 623.6073
615.3868, 659.9390
615.8689, 689.7247
616.3510, 715.2732
616.8331, 734.5658
617.3152, 753.5984
617.7974, 786.1061
618.2795, 827.5851
618.7616, 862.2428
619.2437, 869.3477
619.7258, 875.1964
620.2079, 903.3768
620.6901, 954.7041
621.1722, 1001.088
621.6543, 1029.883
622.1364, 1052.937
622.6185, 1077.376
623.1006, 1104.565
623.5828, 1132.195
624.0649, 1167.148
624.5470, 1196.278
625.0291, 1200.422
625.5112, 1174.163
625.9933, 1153.943
626.4755, 1151.783
626.9576, 1152.094
627.4397, 1119.999
627.9218, 1058.512
628.4039, 990.5544
628.8860, 923.6088
629.3682, 858.3514
629.8503, 797.4768
630.3324, 740.3022
630.8145, 683.3950
631.2966, 626.7373
631.7787, 568.9476
632.2609, 506.2159
632.7430, 433.0943
633.2251, 374.9043
633.7072, 345.1838
634.1893, 327.9067
634.6714, 310.0066
635.1536, 290.8721
635.6357, 272.9980
636.1178, 259.1154
636.5999, 244.2523
637.0820, 215.5050
637.5641, 172.1479
638.0463, 136.9653
638.5284, 118.4120
639.0105, 111.2245
639.4926, 107.5595
639.9747, 106.4686
640.4568, 102.9449
640.9390, 93.99396
641.4211, 81.20850
641.9032, 61.95923
642.3853, 36.19482
642.8674, 20.71301
643.3495, 34.76794
643.8317, 53.08643
644.3138, 57.77533
644.7959, 37.90326
645.2780, 21.21118
645.7601, 7.712585
646.2422, 2.662476
646.7244, 11.09003
647.2065, 18.49463
647.6886, 16.45160
648.1707, 0.1772460
648.6528, 21.30835
649.1349, 24.87451
649.6171, 13.32318
650.0992, 2.793091
650.5813, 2.056763
651.0634, 5.208740
651.5455, 6.228394
652.0276, 5.900208
652.5098, 5.749634
652.9919, 7.712708
653.4740, 8.607422
653.9561, 5.086182
654.4382, 4.590881
654.9203, 11.14624
655.4025, 11.69135
655.8846, 8.705688
656.3667, 3.681763
656.8488, 4.895813
657.3309, 11.52222
657.8130, 16.20239
658.2952, 18.08087
658.7773, 13.11157
659.2594, 2.393188
659.7415, 0.5388180
660.2236, 10.68304
660.7057, 26.36633
661.1879, 32.95642
661.6700, 32.70624
662.1521, 31.72034
662.6342, 30.63574
663.1163, 31.85596
663.5984, 39.23938
664.0806, 51.50269
664.5627, 59.00543
665.0448, 56.49860
665.5269, 51.41852
666.0090, 45.91901
666.4911, 39.43860
666.9733, 37.12982
667.4554, 40.66211
667.9375, 45.44586
668.4196, 46.88446
668.9017, 45.08234
669.3839, 46.16443
669.8660, 51.03979
670.3481, 57.29535
670.8302, 62.77527
671.3123, 67.60828
671.7944, 71.81903
672.2766, 75.19843
672.7587, 77.94446
673.2408, 81.40894
673.7229, 84.36859
674.2050, 84.34131
674.6871, 75.82922
675.1693, 69.22137
675.6514, 68.00262
676.1335, 71.21979
676.6156, 73.76959
677.0977, 74.52332
677.5798, 77.30743
678.0620, 85.69464
678.5441, 98.50513
679.0262, 101.8369
679.5083, 95.18585
679.9904, 88.69354
680.4725, 91.46021
680.9547, 99.38354
681.4368, 105.7654
681.9189, 109.9778
682.4010, 112.8191
682.8831, 113.3635
683.3652, 112.9287
683.8474, 112.8704
684.3295, 113.8044
684.8116, 114.9478
685.2937, 115.3419
685.7758, 116.5726
686.2579, 121.1981
686.7401, 131.1151
687.2222, 138.6254
687.7043, 141.4292
688.1864, 141.6299
688.6685, 145.5319
689.1506, 152.7360
689.6328, 156.4794
690.1149, 150.4989
690.5970, 141.4838
691.0791, 139.3755
691.5612, 143.4199
692.0433, 149.5082
692.5255, 158.9359
693.0076, 166.9108
693.4897, 169.7253
693.9718, 166.8069
694.4539, 163.9001
694.9360, 159.9570
695.4182, 157.5781
695.9003, 157.6131
696.3824, 160.0963
696.8645, 167.8835
697.3466, 183.8693
697.8287, 198.8043
698.3109, 201.6251
698.7930, 194.3319
699.2751, 186.9904
699.7572, 180.9019
700.2393, 176.5528
700.7214, 175.5309
701.2036, 176.7844
701.6857, 178.1911
702.1678, 176.5922
702.6499, 177.2532
703.1320, 186.4031
703.6141, 198.4405
704.0963, 199.7054
704.5784, 177.4955
705.0605, 164.5765
705.5426, 172.6345
706.0247, 196.1171
706.5068, 205.7241
706.9890, 198.9758
707.4711, 190.1422
707.9532, 189.3978
708.4353, 193.1408
708.9174, 187.5283
709.3995, 173.1905
709.8817, 161.9323
710.3638, 164.7061
710.8459, 173.4813
711.3280, 181.7250
711.8101, 187.4999
712.2922, 188.5251
712.7744, 187.1454
713.2565, 182.4296
713.7386, 172.7887
714.2207, 152.8546
714.7028, 145.2377
715.1849, 154.7547
715.6671, 168.0956
716.1492, 168.7218
716.6313, 157.8578
717.1134, 152.3942
717.5955, 156.4230
718.0776, 163.1432
718.5598, 164.3282
719.0419, 161.5288
719.5240, 157.7059
720.0061, 149.9723
720.4882, 145.5867
720.9703, 152.0378
721.4525, 164.3262
721.9346, 170.4983
722.4167, 159.6942
722.8988, 154.0912
723.3809, 161.2933
723.8630, 176.7522
724.3452, 179.5038
724.8273, 167.4640
725.3094, 158.2996
725.7915, 162.3745
726.2736, 174.0977
726.7557, 181.6157
727.2379, 185.0110
727.7200, 182.7689
728.2021, 167.1780
728.6842, 149.9694
729.1663, 142.5241
729.6484, 146.1249
730.1306, 147.0602
730.6127, 137.1735
731.0948, 127.1149
731.5769, 123.1390
732.0590, 127.3000
732.5411, 128.6923
733.0233, 126.7529
733.5054, 123.3332
733.9875, 119.3916
734.4696, 115.1992
734.9517, 113.5642
735.4338, 115.4308
735.9160, 116.3594
736.3981, 108.7393
736.8802, 98.13690
737.3623, 93.72540
737.8444, 103.6603
738.3266, 109.0743
738.8087, 96.72107
739.2908, 77.65533
739.7729, 68.27087
740.2551, 74.12445
740.7372, 80.81396
741.2193, 88.53766
741.7014, 94.71143
742.1835, 92.65540
742.6656, 82.26263
743.1478, 71.48346
743.6299, 61.82428
744.1120, 54.46619
744.5941, 52.34412
745.0762, 54.21967
745.5583, 56.39746
746.0405, 57.20935
746.5226, 57.61322
747.0047, 58.57446
747.4868, 59.74573
747.9689, 58.96191
748.4510, 55.75513
748.9332, 50.71545
749.4153, 42.86938
749.8974, 32.78735
750.3795, 28.11951
750.8616, 29.69067
751.3438, 30.16919
751.8259, 20.55371
752.3080, 7.307007
752.7901, 8.510376
753.2722, 23.77759
753.7543, 38.05090
754.2365, 44.72827
754.7186, 43.95142
755.2007, 32.30933
755.6828, 6.146851
756.1649, 10.66406
756.6470, 8.031372
757.1292, 0.5025630
757.6113, 4.275269
758.0934, 6.660034
758.5755, 3.728638
759.0576, 5.901245
759.5397, 16.09106
760.0219, 19.93945
760.5040, 19.06299
760.9861, 18.04675
761.4682, 17.27502
761.9503, 18.56860
762.4324, 27.67065
762.9146, 37.89246
763.3967, 41.00549
763.8788, 31.05774
764.3609, 20.34827
764.8430, 5.710083
765.3251, 5.550659
765.8073, 2.755249
766.2894, 19.99622
766.7715, 32.59558
767.2536, 28.38892
767.7357, 17.27649
768.2178, 21.86755
768.7000, 35.45447
769.1821, 27.30969
769.6642, 31.22778
770.1463, 84.63684
770.6284, 73.22290
771.1105, 23.72314
771.5927, 12.19824
772.0748, 4.602295
772.5569, 1.916992
773.0390, 3.103149
773.5211, 16.23291
774.0032, 30.53235
774.4854, 47.92432
774.9675, 59.18652
775.4496, 59.24866
775.9317, 53.30200
776.4138, 55.27563
776.8959, 63.77600
777.3781, 70.81213
777.8602, 70.86670
778.3423, 68.84583
778.8244, 69.61548
779.3065, 71.93335
779.7886, 70.76611
780.2708, 60.23694
780.7529, 50.79736
781.2350, 45.87646
781.7171, 44.87524
782.1992, 43.58069
782.6813, 42.81396
783.1635, 39.39783
783.6456, 29.01379
784.1277, 14.92200
784.6098, 9.576050
785.0919, 12.03198
785.5740, 12.16492
786.0562, 0.3298340
786.5383, 15.11963
787.0204, 23.04871
787.5025, 23.87366
787.9846, 25.18018
788.4667, 23.29236
788.9489, 27.60425
789.4310, 45.61121
789.9131, 78.68445
790.3952, 95.32983
790.8773, 91.16248
791.3594, 89.76599
791.8416, 111.3250
792.3237, 148.7255
792.8058, 184.8409
793.2879, 219.1837
793.7700, 250.0520
794.2521, 267.2286
794.7343, 286.3444
795.2164, 322.3247
795.6985, 382.6962
796.1806, 437.3237
796.6627, 477.5249
797.1448, 516.8514
797.6270, 562.4653
798.1091, 614.4083
798.5912, 678.2029
799.0733, 756.0601
799.5554, 837.7004
800.0375, 910.3403
800.5197, 979.1166
801.0018, 1052.166
801.4839, 1128.979
801.9660, 1220.894
802.4481, 1348.521
802.9302, 1486.152
803.4124, 1610.213
803.8945, 1701.751
804.3766, 1815.753
804.8587, 1956.948
805.3408, 2114.298
805.8229, 2275.843
806.3051, 2441.615
806.7872, 2632.181
807.2693, 2853.142
807.7514, 3078.777
808.2335, 3279.811
808.7156, 3472.761
809.1978, 3682.844
809.6799, 3917.726
810.1620, 4159.445
810.6441, 4394.752
811.1262, 4639.918
811.6083, 4908.259
812.0905, 5211.924
812.5726, 5512.819
813.0547, 5805.497
813.5368, 6096.580
814.0189, 6389.505
814.5010, 6687.449
814.9832, 7005.100
815.4653, 7344.851
815.9474, 7693.139
816.4295, 8042.674
816.9116, 8393.696
817.3937, 8749.250
817.8759, 9112.719
818.3580, 9470.693
818.8401, 9846.818
819.3222, 10194.20
819.8043, 10463.88
820.2864, 10639.91
820.7686, 10817.45
821.2507, 11015.85
821.7328, 11181.53
822.2149, 11240.88
822.6970, 11210.00
823.1791, 11128.66
823.6613, 11007.14
824.1434, 10828.93
824.6255, 10565.87
825.1076, 10251.21
825.5897, 9925.533
826.0718, 9576.478
826.5540, 9237.509
827.0361, 8910.246
827.5182, 8589.407
828.0003, 8256.478
828.4824, 7914.357
828.9645, 7583.765
829.4467, 7267.642
829.9288, 6970.398
830.4109, 6693.488
830.8930, 6439.332
831.3751, 6211.178
831.8572, 6022.701
832.3394, 5835.481
832.8215, 5621.236
833.3036, 5409.547
833.7857, 5232.486
834.2678, 5108.434
834.7499, 4966.449
835.2321, 4795.616
835.7142, 4624.537
836.1963, 4487.417
836.6784, 4379.354
837.1605, 4292.634
837.6426, 4232.753
838.1248, 4166.589
838.6069, 4050.847
839.0890, 3922.486
839.5711, 3824.130
840.0532, 3776.932
840.5353, 3739.209
841.0175, 3716.629
841.4996, 3693.363
841.9817, 3651.642
842.4638, 3590.293
842.9459, 3529.196
843.4280, 3469.280
843.9102, 3415.121
844.3923, 3371.312
844.8744, 3336.326
845.3565, 3310.355
845.8386, 3296.809
846.3207, 3278.629
846.8029, 3253.585
847.2850, 3217.541
847.7671, 3164.040
848.2492, 3075.226
848.7313, 3021.604
849.2134, 3013.640
849.6956, 3015.119
850.1777, 2986.064
850.6598, 2935.907
851.1419, 2897.489
851.6240, 2874.995
852.1061, 2860.243
852.5883, 2846.711
853.0704, 2837.893
853.5525, 2838.132
854.0346, 2852.262
854.5167, 2861.688
854.9988, 2858.265
855.4810, 2859.034
855.9631, 2875.473
856.4452, 2907.807
856.9273, 2952.974
857.4094, 3011.235
857.8915, 3074.962
858.3737, 3134.185
858.8558, 3195.657
859.3379, 3261.892
859.8200, 3330.986
860.3021, 3432.514
860.7842, 3600.022
861.2664, 3782.130
861.7485, 3940.166
862.2306, 4068.176
862.7127, 4251.823
863.1948, 4501.478
863.6769, 4767.596
864.1591, 5006.318
864.6412, 5239.307
865.1233, 5530.443
865.6054, 5880.976
866.0875, 6246.767
866.5696, 6598.838
867.0518, 6964.797
867.5339, 7357.751
868.0160, 7785.239
868.4981, 8250.499
868.9802, 8765.604
869.4623, 9297.210
869.9445, 9828.571
870.4266, 10358.28
870.9087, 10874.59
871.3908, 11387.24
871.8729, 11918.02
872.3550, 12522.85
872.8372, 13122.77
873.3193, 13648.69
873.8014, 14110.97
874.2835, 14553.04
874.7656, 15022.86
875.2477, 15428.05
875.7299, 15746.12
876.2120, 15979.94
876.6941, 16165.44
877.1762, 16301.90
877.6583, 16316.67
878.1404, 16158.91
878.6226, 15882.06
879.1047, 15548.65
879.5869, 15153.59
880.0690, 14677.75
880.5511, 14074.24
881.0332, 13433.95
881.5153, 12770.69
881.9974, 12093.41
882.4796, 11396.71
882.9617, 10672.17
883.4438, 9971.184
883.9259, 9308.491
884.4080, 8684.763
884.8901, 8116.203
885.3723, 7590.265
885.8544, 7073.937
886.3365, 6544.487
886.8186, 6049.513
887.3007, 5622.496
887.7828, 5244.116
888.2650, 4885.659
888.7471, 4547.583
889.2292, 4235.521
889.7113, 3951.024
890.1934, 3689.183
890.6755, 3436.952
891.1577, 3199.497
891.6398, 2987.262
892.1219, 2806.944
892.6040, 2637.999
893.0861, 2464.120
893.5682, 2298.740
894.0504, 2155.779
894.5325, 2044.718
895.0146, 1940.945
895.4967, 1848.178
895.9788, 1756.442
896.4609, 1651.240
896.9431, 1537.958
897.4252, 1458.086
897.9073, 1413.891
898.3894, 1374.361
898.8715, 1310.348
899.3536, 1244.979
899.8358, 1200.475
900.3179, 1181.646
900.8000, 1149.212
901.2821, 1085.535
901.7642, 1026.388
902.2463, 992.9644
902.7285, 982.0159
903.2106, 955.2158
903.6927, 912.2705
904.1748, 872.0232
904.6569, 850.6760
905.1390, 834.2900
905.6212, 806.4597
906.1033, 769.5945
906.5854, 736.1086
907.0675, 717.6196
907.5496, 694.8191
908.0317, 663.6038
908.5139, 625.1143
908.9960, 578.4524
909.4781, 523.7294
909.9602, 476.6753
910.4423, 445.3965
910.9244, 421.1052
911.4066, 395.6216
911.8887, 369.6257
912.3708, 343.4227
912.8529, 312.6798
913.3350, 288.0121
913.8171, 274.7069
914.2993, 265.9402
914.7814, 254.0350
915.2635, 239.1895
915.7456, 216.4366
916.2277, 182.8799
916.7098, 150.7546
917.1920, 138.9829
917.6741, 136.3527
918.1562, 125.0690
918.6383, 97.80225
919.1204, 76.01099
919.6025, 72.10083
920.0847, 71.10144
920.5668, 62.51318
921.0489, 44.60071
921.5310, 31.97583
922.0131, 25.41760
922.4952, 18.24683
922.9774, 0.6610110
923.4595, 18.76819
923.9416, 25.27222
924.4237, 18.84729
924.9058, 13.64880
925.3879, 12.05066
925.8701, 16.81018
926.3522, 33.09277
926.8343, 57.99512
927.3164, 63.87769
927.7985, 48.11340
928.2806, 38.57092
928.7628, 53.97046
929.2449, 77.28943
929.7270, 81.74255
930.2091, 72.10596
930.6912, 61.59668
931.1733, 50.68042
931.6555, 45.47168
932.1376, 51.50916
932.6197, 62.81665
933.1018, 70.65820
933.5839, 75.45776
934.0660, 73.65015
934.5482, 63.42468
935.0303, 50.20593
935.5124, 42.32043
935.9945, 35.93347
936.4766, 23.02246
936.9587, 3.171265
937.4409, 22.55798
937.9230, 17.36462
938.4051, 11.69263
938.8872, 26.38586
939.3693, 67.33984
939.8514, 93.35376
940.3336, 102.8231
940.8157, 107.2672
941.2978, 116.9105
941.7799, 127.2089
942.2620, 129.2511
942.7441, 123.2902
943.2263, 121.9637
943.7084, 136.6909
944.1905, 150.3298
944.6726, 155.6875
945.1547, 154.0320
945.6368, 152.8757
946.1190, 152.1451
946.6011, 152.5900
947.0832, 157.9264
947.5653, 160.8770
948.0474, 146.0457
948.5295, 121.4520
949.0117, 105.7543
949.4938, 122.2335
949.9759, 125.9407
950.4580, 99.45349
950.9401, 63.06030
951.4222, 50.10010
951.9044, 60.96948
952.3865, 64.95667
952.8686, 56.30640
953.3507, 44.09155
953.8328, 35.25720
954.3149, 29.90552
954.7971, 30.16687
955.2792, 40.67871
955.7613, 40.40344
956.2434, 20.17151
956.7255, 4.184814
957.2076, 26.56396
957.6898, 46.66492
958.1719, 44.92114
958.6540, 21.79871
959.1361, 6.532349
959.6182, 30.37756
960.1003, 62.51221
960.5825, 74.13135
961.0646, 67.59998
961.5467, 63.17920
962.0288, 71.82153
962.5109, 71.11682
962.9930, 52.59717
963.4752, 24.22986
963.9573, 5.347656
964.4394, 5.014160
964.9215, 13.17334
965.4036, 20.11792
965.8857, 27.75146
966.3679, 36.03992
966.8500, 46.57483
967.3321, 61.69238
967.8142, 83.11780
968.2963, 106.7544
968.7784, 133.3184
969.2606, 160.3242
969.7427, 185.3431
970.2248, 208.4832
970.7069, 228.7344
971.1890, 246.0347
971.6711, 266.5359
972.1533, 299.0359
972.6354, 331.9302
973.1175, 356.5356
973.5996, 372.7294
974.0817, 389.2957
974.5638, 406.2760
975.0460, 423.0946
975.5281, 437.6666
976.0102, 453.8315
976.4923, 483.4353
976.9744, 521.8716
977.4565, 555.6188
977.9387, 576.2566
978.4208, 594.1526
978.9029, 614.1077
979.3850, 632.7412
979.8671, 642.7372
980.3492, 640.1339
980.8314, 654.2700
981.3135, 691.2628
981.7956, 731.0699
982.2777, 752.2988
982.7598, 762.7667
983.2419, 773.4819
983.7241, 786.2583
984.2062, 795.4358
984.6883, 787.8590
985.1704, 788.9712
985.6525, 816.6080
986.1346, 865.9364
986.6168, 884.8645
987.0989, 873.9845
987.5810, 867.0312
988.0631, 888.6013
988.5452, 919.3754
989.0273, 942.8190
989.5095, 960.6885
989.9916, 977.1123
990.4737, 987.6803
990.9558, 1005.031
991.4379, 1034.383
991.9200, 1066.273
992.4022, 1082.014
992.8843, 1086.690
993.3664, 1101.973
993.8485, 1132.281
994.3306, 1169.618
994.8127, 1214.552
995.2949, 1259.308
995.7770, 1295.834
996.2591, 1321.799
996.7412, 1356.568
997.2233, 1402.464
997.7054, 1446.883
998.1876, 1478.134
998.6697, 1504.314
999.1518, 1544.428
999.6339, 1595.699
1000.116, 1648.257
1000.598, 1710.941
1001.080, 1759.298
1001.562, 1776.759
1002.044, 1779.213
1002.527, 1797.391
1003.009, 1832.859
1003.491, 1853.851
1003.973, 1854.793
1004.455, 1838.953
1004.937, 1803.186
1005.419, 1755.442
1005.901, 1707.109
1006.384, 1662.684
1006.866, 1607.408
1007.348, 1534.437
1007.830, 1458.921
1008.312, 1392.601
1008.794, 1331.904
1009.276, 1245.555
1009.758, 1137.819
1010.240, 1041.388
1010.723, 983.2974
1011.205, 935.5107
1011.687, 878.8452
1012.169, 817.5986
1012.651, 762.8202
1013.133, 715.3694
1013.615, 673.3534
1014.097, 636.9030
1014.580, 600.8738
1015.062, 556.9662
1015.544, 510.0192
1016.026, 470.3464
1016.508, 441.5275
1016.990, 418.8379
1017.472, 404.4861
1017.954, 386.7805
1018.436, 358.4420
1018.919, 321.7092
1019.401, 298.6189
1019.883, 288.3685
1020.365, 276.5259
1020.847, 250.7802
1021.329, 225.0419
1021.811, 214.5270
1022.293, 213.6198
1022.776, 207.9177
1023.258, 190.2211
1023.740, 174.5151
1024.222, 162.7075
1024.704, 152.4380
1025.186, 140.2720
1025.668, 127.0435
1026.150, 114.4092
1026.632, 101.9783
1027.115, 95.18506
1027.597, 103.1917
1028.079, 113.1663
1028.561, 114.8406
1029.043, 108.7231
1029.525, 111.8468
1030.007, 125.8087
1030.489, 135.3864
1030.972, 131.8884
1031.454, 122.0518
1031.936, 112.3916
1032.418, 103.9094
1032.900, 98.87048
1033.382, 101.5082
1033.864, 102.9932
1034.346, 102.6385
1034.828, 100.0466
1035.311, 94.46619
1035.793, 86.18726
1036.275, 76.20483
1036.757, 64.47510
1037.239, 55.63440
1037.721, 53.83533
1038.203, 55.38049
1038.685, 59.88257
1039.167, 66.33630
1039.650, 66.17261
1040.132, 57.35815
1040.614, 51.44067
1041.096, 54.36169
1041.578, 58.88745
1042.060, 50.32690
1042.542, 35.65161
1043.024, 28.04175
1043.507, 34.69287
1043.989, 42.46472
1044.471, 50.66809
1044.953, 57.29675
1045.435, 61.87903
1045.917, 64.09155
1046.399, 56.16211
1046.881, 38.71228
1047.364, 25.96582
1047.846, 30.50745
1048.328, 40.28650
1048.810, 51.09814
1049.292, 60.40527
1049.774, 59.74951
1050.256, 46.25525
1050.738, 33.60864
1051.220, 24.14087
1051.703, 18.44641
1052.185, 19.72009
1052.667, 24.50610
1053.149, 26.27124
1053.631, 22.27197
1054.113, 22.07788
1054.595, 35.70801
1055.077, 45.22705
1055.559, 38.05444
1056.042, 18.20300
1056.524, 15.41931
1057.006, 27.58765
1057.488, 37.52319
1057.970, 35.76953
1058.452, 28.96411
1058.934, 15.32678
1059.416, 1.314575
1059.899, 0.3214110
1060.381, 18.83264
1060.863, 26.34534
1061.345, 18.33667
1061.827, 8.159912
1062.309, 12.93311
1062.791, 23.06506
1063.273, 21.62842
1063.755, 7.644775
1064.238, 0.9649660
1064.720, 15.29456
1065.202, 26.83740
1065.684, 27.54736
1066.166, 21.55103
1066.648, 22.17981
1067.130, 27.05566
1067.612, 23.50940
1068.094, 1.122070
1068.577, 15.12500
1069.059, 1.247803
1069.541, 19.91101
1070.023, 25.03943
1070.505, 9.938354
1070.987, 2.088623
1071.469, 1.898315
1071.951, 3.923828
1072.434, 5.298462
1072.916, 6.153931
1073.398, 5.209717
1073.880, 3.745728
1074.362, 6.275757
1074.844, 19.91296
1075.326, 26.88879
1075.808, 23.26624
1076.291, 15.45544
1076.773, 12.04297
1077.255, 11.81580
1077.737, 12.32104
1078.219, 13.38904
1078.701, 11.38696
1079.183, 2.056641
1079.665, 12.21155
1080.147, 10.72437
1080.630, 0.1927490
1081.112, 8.093628
1081.594, 12.99304
1082.076, 15.27344
1082.558, 14.39209
1083.040, 12.26221
1083.522, 8.075684
1084.004, 4.793335
1084.486, 7.388306
1084.969, 21.48608
1085.451, 25.57520
1085.933, 17.11877
1086.415, 8.104004
1086.897, 9.644287
1087.379, 15.76477
1087.861, 15.22900
1088.343, 9.500977
1088.826, 5.723755
1089.308, 10.98975
1089.790, 11.92151
1090.272, 3.914307
1090.754, 6.667114
1091.236, 9.691772
1091.718, 6.434448
1092.200, 2.006226
1092.682, 3.003540
1093.165, 6.383423
1093.647, 2.289429
1094.129, 0.2926030
1094.611, 8.901489
1095.093, 25.70117
1095.575, 32.35596
1096.057, 28.44604
1096.539, 26.41394
1097.022, 33.05200
1097.504, 38.99670
1097.986, 31.70544
1098.468, 18.87708
1098.950, 11.41064
1099.432, 13.01685
1099.914, 14.39966
1100.396, 15.49463
1100.879, 16.06433
1101.361, 15.23828
1101.843, 14.35999
1102.325, 16.34717
1102.807, 20.65845
1103.289, 25.24048
1103.771, 32.28748
1104.253, 34.87659
1104.735, 29.31433
1105.218, 22.14612
1105.700, 27.03027
1106.182, 39.50842
1106.664, 33.56677
1107.146, 5.920166
1107.628, 15.74146
1108.110, 9.247192
1108.592, 2.580444
1109.074, 8.427979
1109.557, 8.886963
1110.039, 4.589600
1110.521, 4.555420
1111.003, 7.882446
1111.485, 1.017212
1111.967, 8.496582
1112.449, 16.47778
1112.931, 21.47742
1113.414, 20.71375
1113.896, 11.90796
1114.378, 8.124023
1114.860, 10.63904
1115.342, 13.70654
1115.824, 13.51355
1116.306, 12.20605
1116.788, 15.10156
1117.271, 19.13818
1117.753, 18.07935
1118.235, 1.042358
1118.717, 6.968872
1119.199, 3.421021
1119.681, 6.624146
1120.163, 22.55664
1120.645, 40.70740
1121.127, 48.71667
1121.609, 46.81006
1122.092, 43.54724
1122.574, 44.25366
1123.056, 43.81079
1123.538, 39.64941
1124.020, 33.39844
1124.502, 27.25061
1124.984, 21.49939
1125.466, 17.68018
1125.949, 15.57117
1126.431, 17.21814
1126.913, 34.72144
1127.395, 50.62817
1127.877, 49.22424
1128.359, 33.19592
1128.841, 24.98218
1129.323, 24.88318
1129.806, 30.08752
1130.288, 41.55103
1130.770, 53.11194
1131.252, 59.51123
1131.734, 62.19885
1132.216, 62.82861
1132.698, 62.79041
1133.180, 60.72375
1133.662, 55.84668
1134.145, 48.08411
1134.627, 28.15540
1135.109, 10.48560
1135.591, 28.02759
1136.073, 65.95996
1136.555, 86.22156
1137.037, 56.98291
1137.519, 40.77783
1138.001, 44.74341
1138.484, 57.20825
1138.966, 67.76257
1139.448, 76.15015
1139.930, 81.13928
1140.412, 83.48145
1140.894, 84.31689
1141.376, 82.44092
1141.858, 81.69446
1142.341, 83.90308
1142.823, 86.82886
1143.305, 85.62292
1143.787, 81.20349
1144.269, 78.24915
1144.751, 77.80823
1145.233, 76.60168
1145.715, 69.80786
1146.198, 64.74658
1146.680, 65.84412
1147.162, 71.82654
1147.644, 77.10767
1148.126, 81.55066
1148.608, 83.77832
1149.090, 83.84900
1149.572, 81.11609
1150.054, 68.49402
1150.536, 57.33508
1151.019, 61.35901
1151.501, 82.60791
1151.983, 86.19641
1152.465, 71.33545
1152.947, 61.03821
1153.429, 72.28125
1153.911, 88.34839
1154.393, 96.03613
1154.876, 96.66138
1155.358, 91.17078
1155.840, 76.21924
1156.322, 67.63770
1156.804, 66.69824
1157.286, 66.91162
1157.768, 60.71960
1158.250, 54.27234
1158.733, 56.86633
1159.215, 66.22705
1159.697, 73.25830
1160.179, 77.30664
1160.661, 76.71313
1161.143, 69.50989
1161.625, 62.67737
1162.107, 67.87390
1162.589, 77.18359
1163.072, 74.37109
1163.554, 59.44629
1164.036, 52.60986
1164.518, 66.47266
1165.000, 75.67883
1165.482, 73.00281
1165.964, 64.47241
1166.446, 58.68665
1166.928, 54.36353
1167.411, 48.56274
1167.893, 40.23450
1168.375, 33.93896
1168.857, 29.87158
1169.339, 30.35522
1169.821, 37.30542
1170.303, 48.43799
1170.785, 60.43384
1171.268, 71.09814
1171.750, 72.43738
1172.232, 57.23096
1172.714, 44.79370
1173.196, 47.33728
1173.678, 50.61133
1174.160, 44.73535
1174.642, 31.95605
1175.125, 26.82959
1175.607, 28.81470
1176.089, 35.36011
1176.571, 52.54590
1177.053, 64.50806
1177.535, 61.21399
1178.017, 51.30664
1178.499, 42.24341
1178.981, 33.92834
1179.464, 20.05493
1179.946, 1.552856
1180.428, 5.910767
1180.910, 22.79822
1181.392, 48.42969
1181.874, 45.95496
1182.356, 29.12683
1182.838, 17.73694
1183.320, 11.74268
1183.803, 11.83728
1184.285, 18.28333
1184.767, 23.44250
1185.249, 21.45398
1185.731, 16.37903
1186.213, 9.319580
1186.695, 1.610352
1187.177, 4.186157
1187.660, 8.291748
1188.142, 4.400024
1188.624, 10.16675
1189.106, 19.09631
1189.588, 4.404053
1190.070, 29.28784
1190.552, 25.57812
1191.034, 2.752075
1191.516, 19.93298
1191.999, 25.34143
1192.481, 24.81274
1192.963, 18.22607
1193.445, 12.59558
1193.927, 19.28174
1194.409, 27.50122
1194.891, 23.81909
1195.373, 7.142944
1195.855, 1.858276
1196.338, 9.770874
1196.820, 12.34570
1197.302, 1.318604
1197.784, 15.56702
1198.266, 11.81274
1198.748, 0.7857670
1199.230, 11.13110
1199.712, 17.52588
1200.195, 25.05688
1200.677, 34.65271
1201.159, 38.51147
1201.641, 28.44519
1202.123, 15.53308
1202.605, 10.94800
1203.087, 12.82825
1203.569, 18.63147
1204.052, 29.98474
1204.534, 39.67468
1205.016, 48.34875
1205.498, 51.92578
1205.980, 42.20557
1206.462, 30.30347
1206.944, 31.95532
1207.426, 40.90967
1207.908, 41.91760
1208.391, 29.27905
1208.873, 21.58386
1209.355, 19.84009
1209.837, 21.42468
1210.319, 23.89270
1210.801, 28.58154
1211.283, 42.61304
1211.765, 60.47253
1212.247, 60.12891
1212.730, 29.78723
1213.212, 18.01208
1213.694, 33.24902
1214.176, 50.98560
1214.658, 43.72571
1215.140, 28.70789
1215.622, 24.64819
1216.104, 31.49170
1216.587, 42.81433
1217.069, 62.53320
1217.551, 69.46436
1218.033, 57.92822
1218.515, 42.62427
1218.997, 39.53064
1219.479, 41.97217
1219.961, 42.66199
1220.443, 41.19019
1220.926, 41.60608
1221.408, 45.20911
1221.890, 45.57373
1222.372, 40.37097
1222.854, 34.43250
1223.336, 33.81128
1223.818, 35.54114
1224.300, 35.09192
1224.782, 32.02625
1225.265, 37.34949
1225.747, 54.25366
1226.229, 63.62329
1226.711, 57.78271
1227.193, 47.10132
1227.675, 40.51477
1228.157, 38.45532
1228.639, 43.56152
1229.122, 56.97925
1229.604, 63.31226
1230.086, 61.50171
1230.568, 58.64392
1231.050, 57.31799
1231.532, 56.48267
1232.014, 52.88855
1232.496, 50.45776
1232.979, 56.21106
1233.461, 72.48230
1233.943, 76.23938
1234.425, 66.32178
1234.907, 54.69897
1235.389, 43.68372
1235.871, 38.80652
1236.353, 48.18018
1236.835, 65.32153
1237.318, 84.08789
1237.800, 106.6520
1238.282, 108.3018
1238.764, 88.31836
1239.246, 69.99463
1239.728, 67.67627
1240.210, 70.91211
1240.692, 74.70874
1241.175, 76.82214
1241.657, 73.12585
1242.139, 61.67871
1242.621, 58.64331
1243.103, 64.08435
1243.585, 69.50024
1244.067, 68.81250
1244.549, 67.31335
1245.031, 70.40076
1245.514, 73.89905
1245.996, 69.73694
1246.478, 54.02844
1246.960, 51.20520
1247.442, 58.40466
1247.924, 65.53979
1248.406, 62.92468
1248.888, 61.89050
1249.370, 74.40173
1249.853, 88.68201
1250.335, 85.36035
1250.817, 67.76868
1251.299, 64.10632
1251.781, 74.71350
1252.263, 85.01025
1252.745, 89.01758
1253.227, 86.82446
1253.710, 69.22375
1254.192, 52.94373
1254.674, 67.83606
1255.156, 106.5061
1255.638, 110.1842
1256.120, 78.44983
1256.602, 49.65991
1257.084, 46.51123
1257.567, 48.18396
1258.049, 48.31616
1258.531, 48.64563
1259.013, 52.05835
1259.495, 57.75562
1259.977, 63.33496
1260.459, 68.46680
1260.941, 72.03796
1261.423, 74.55237
1261.906, 73.50293
1262.388, 67.44470
1262.870, 59.31836
1263.352, 51.92297
1263.834, 46.22058
1264.316, 46.38611
1264.798, 52.01514
1265.280, 53.65173
1265.762, 42.38953
1266.245, 37.59961
1266.727, 44.85522
1267.209, 54.81665
1267.691, 51.24609
1268.173, 43.33020
1268.655, 51.22241
1269.137, 74.81213
1269.619, 78.80237
1270.102, 48.94006
1270.584, 31.18958
1271.066, 37.90405
1271.548, 50.18823
1272.030, 42.10022
1272.512, 27.45239
1272.994, 24.18994
1273.476, 32.69226
1273.958, 32.29773
1274.441, 18.95728
1274.923, 16.02112
1275.405, 31.21704
1275.887, 45.96252
1276.369, 35.99475
1276.851, 20.07935
1277.333, 18.12439
1277.815, 27.80164
1278.297, 27.67542
1278.780, 17.16260
1279.262, 9.034424
1279.744, 6.147705
1280.226, 6.744141
1280.708, 11.60828
1281.190, 17.46924
1281.672, 22.55762
1282.154, 26.58801
1282.637, 28.27600
1283.119, 27.72778
1283.601, 26.05627
1284.083, 23.55627
1284.565, 19.45056
1285.047, 11.21948
1285.529, 3.451904
1286.011, 2.280762
1286.494, 5.547363
1286.976, 3.428345
1287.458, 2.320557
1287.940, 4.593750
1288.422, 0.9555660
1288.904, 2.339844
1289.386, 16.71375
1289.868, 32.18872
1290.350, 46.33887
1290.833, 57.27795
1291.315, 61.91675
1291.797, 60.26514
1292.279, 48.53638
1292.761, 23.72266
1293.243, 11.59851
1293.725, 19.56140
1294.207, 23.60803
1294.689, 13.59937
1295.172, 6.829712
1295.654, 6.634155
1296.136, 12.79736
1296.618, 18.93640
1297.100, 24.58997
1297.582, 21.93860
1298.064, 8.405762
1298.546, 0.5930180
1299.029, 3.597412
1299.511, 9.220581
1299.993, 6.173462
1300.475, 1.1841000E-02
1300.957, 0.2023930
1301.439, 3.730835
1301.921, 0.0000000E+00
##END=



