##NAMES=Grossular
##RRUFFID=R050312
##IDEAL CHEMISTRY=Ca_3_Al_2_(SiO_4_)_3_
##LOCALITY=Eden Mills mine, Vermont, USA
##OWNER=RRUFF
##SOURCE=Eugene Schlepp
##DESCRIPTION=Red crystal
##STATUS=The identification of this mineral has been confirmed by X-ray diffraction and chemical analysis
##URL=rruff.info/R050312
##MEASURED CHEMISTRY=Ca_3.00_(Al_1.75_Fe^3+^_0.23_Ti_0.02_)_Σ=2_((Si_0.99_Al_0.01_)_Σ=1_O_4_)_3_
52.866, 0.000
54.266, 10.597
55.666, 22.551
57.065, 37.822
58.464, 61.696
59.863, 75.316
61.262, 75.519
62.661, 41.636
64.059, 23.108
65.458, 0.148
66.856, 18.224
68.253, 3.198
69.651, 4.164
71.048, 23.811
72.445, 14.663
73.842, 33.426
75.239, 65.788
76.635, 57.959
78.031, 49.804
79.427, 55.277
80.823, 112.339
82.218, 88.744
83.614, 137.125
85.009, 90.775
86.404, 54.911
87.798, 73.512
89.193, 136.557
90.587, 217.030
91.981, 125.916
93.375, 148.202
94.768, 98.874
96.161, 64.910
97.554, 61.283
98.947, 103.968
100.340, 51.945
101.732, 41.200
103.124, 27.720
104.516, 107.495
105.908, 62.597
107.300, 138.782
108.691, 39.286
110.082, 1.029
111.473, 3.007
112.864, 23.214
114.254, 83.647
115.644, 118.338
117.034, 158.289
118.424, 159.450
119.813, 151.816
121.203, 139.048
122.592, 192.159
123.981, 89.131
125.369, 54.300
126.758, 53.666
128.146, 82.225
129.534, 91.978
130.922, 98.924
132.309, 55.060
133.696, 71.388
135.083, 45.905
136.470, 78.576
137.857, 135.292
139.243, 148.052
140.630, 107.854
142.016, 99.701
143.401, 111.579
144.787, 120.505
146.172, 100.502
147.557, 125.579
148.942, 106.739
150.327, 102.988
151.711, 113.330
153.096, 116.767
154.480, 127.303
155.863, 117.939
157.247, 125.465
158.630, 126.526
160.013, 134.480
161.396, 131.577
162.779, 145.848
164.161, 148.291
165.544, 112.886
166.926, 177.604
168.308, 237.431
169.689, 320.367
171.070, 423.413
172.452, 585.570
173.833, 724.838
175.213, 895.217
176.594, 1010.341
177.974, 1037.479
179.354, 948.136
180.734, 818.930
182.114, 606.836
183.493, 516.855
184.872, 477.988
186.251, 393.234
187.630, 383.593
189.008, 317.065
190.387, 287.651
191.765, 247.349
193.143, 282.161
194.520, 250.086
195.898, 274.125
197.275, 218.277
198.652, 211.543
200.029, 248.924
201.405, 216.421
202.782, 230.035
204.158, 242.767
205.534, 289.616
206.909, 294.586
208.285, 186.676
209.660, 160.886
211.035, 210.219
212.410, 149.673
213.784, 248.250
215.159, 250.948
216.533, 246.770
217.907, 263.713
219.281, 280.822
220.654, 297.955
222.027, 353.112
223.400, 481.275
224.773, 520.476
226.146, 667.553
227.518, 861.795
228.891, 1129.063
230.263, 1447.406
231.634, 1770.388
233.006, 2197.879
234.377, 2566.611
235.748, 3002.611
237.119, 3320.962
238.490, 3533.453
239.860, 3945.081
241.231, 4379.844
242.601, 4777.738
243.970, 4860.762
245.340, 4508.911
246.709, 3743.184
248.079, 2915.579
249.448, 2159.093
250.816, 1524.724
252.185, 1137.471
253.553, 826.331
254.921, 590.303
256.289, 592.386
257.657, 424.577
259.024, 464.875
260.391, 477.279
261.758, 551.787
263.125, 597.398
264.492, 696.111
265.858, 852.040
267.224, 1110.263
268.590, 1497.295
269.956, 1823.729
271.321, 2352.473
272.687, 2916.185
274.052, 3373.662
275.416, 3484.865
276.781, 3417.270
278.146, 2966.537
279.510, 2404.303
280.874, 1990.159
282.237, 1605.105
283.601, 1376.139
284.964, 1155.261
286.327, 952.471
287.690, 794.766
289.053, 610.147
290.416, 505.613
291.778, 400.164
293.140, 254.799
294.502, 156.516
295.863, 61.316
297.225, 16.197
298.586, 40.840
299.947, 64.800
301.308, 26.684
302.668, 17.489
304.029, 47.215
305.389, 35.135
306.749, 72.566
308.108, 50.076
309.468, 175.667
310.827, 151.337
312.186, 203.086
313.545, 229.916
314.903, 300.824
316.262, 377.812
317.620, 502.852
318.978, 627.022
320.336, 832.245
321.693, 1013.546
323.051, 1248.924
324.408, 1514.379
325.765, 1639.911
327.121, 1794.519
328.478, 1659.203
329.834, 1474.961
331.190, 1360.794
332.546, 1185.706
333.902, 1104.691
335.257, 1055.761
336.612, 1035.915
337.967, 1160.161
339.322, 1223.501
340.677, 1447.931
342.031, 1638.450
343.385, 1718.063
344.739, 2012.774
346.093, 2070.585
347.446, 2166.497
348.799, 2275.514
350.153, 2366.638
351.505, 2633.865
352.858, 3073.200
354.210, 3520.639
355.563, 4260.183
356.915, 4858.830
358.267, 5810.580
359.618, 7052.433
360.969, 8625.392
362.321, 10716.448
363.672, 13199.603
365.022, 16575.857
366.373, 20790.207
367.723, 25611.648
369.073, 31717.178
370.423, 36552.797
371.773, 40226.512
373.122, 40249.297
374.471, 37644.172
375.821, 32786.141
377.169, 26731.191
378.518, 21920.324
379.866, 17065.541
381.215, 13513.840
382.563, 10909.236
383.910, 8759.725
385.258, 7179.315
386.605, 5961.000
387.952, 5171.780
389.299, 4325.653
390.646, 3808.619
391.992, 3264.673
393.339, 2960.817
394.685, 2727.048
396.031, 2511.368
397.376, 2342.767
398.722, 2140.248
400.067, 2065.805
401.412, 1926.437
402.757, 1862.146
404.101, 1809.769
405.446, 1796.777
406.790, 1760.698
408.134, 1746.687
409.478, 1769.743
410.821, 1653.371
412.165, 1556.550
413.508, 1377.314
414.851, 1220.635
416.193, 951.020
417.536, 701.467
418.878, 557.976
420.220, 377.861
421.562, 255.438
422.904, 149.870
424.245, 83.622
425.586, 23.433
426.927, 7.698
428.268, 68.772
429.609, 96.801
430.949, 106.791
432.289, 113.746
433.629, 109.068
434.969, 97.480
436.309, 83.410
437.648, 46.225
438.987, 34.993
440.326, 17.286
441.665, 25.667
443.003, 19.002
444.342, 73.439
445.680, 143.928
447.018, 212.467
448.355, 316.057
449.693, 337.697
451.030, 451.387
452.367, 551.126
453.704, 575.914
455.041, 552.750
456.377, 532.633
457.713, 546.564
459.049, 530.882
460.385, 539.092
461.721, 542.265
463.056, 556.449
464.391, 574.630
465.726, 607.735
467.061, 621.984
468.395, 666.277
469.730, 698.612
471.064, 840.990
472.398, 936.411
473.731, 1012.873
475.065, 1006.376
476.398, 976.920
477.731, 867.505
479.064, 797.128
480.397, 780.792
481.729, 591.494
483.062, 652.235
484.394, 571.013
485.725, 575.829
487.057, 639.682
488.389, 692.571
489.720, 818.496
491.051, 867.457
492.382, 978.816
493.712, 1128.154
495.043, 1227.854
496.373, 1294.323
497.703, 1289.450
499.032, 1373.274
500.362, 1439.813
501.691, 1575.503
503.020, 1671.780
504.349, 2071.958
505.678, 2196.666
507.007, 1926.717
508.335, 1777.993
509.663, 1581.619
510.991, 1418.719
512.319, 1314.927
513.646, 1155.624
514.973, 1013.171
516.300, 962.581
517.627, 894.232
518.954, 842.003
520.280, 857.211
521.607, 842.602
522.933, 882.930
524.259, 919.331
525.584, 779.862
526.910, 807.088
528.235, 960.395
529.560, 1092.836
530.885, 1314.615
532.209, 1486.979
533.534, 1826.986
534.858, 2403.590
536.182, 3026.036
537.506, 4112.389
538.829, 5513.771
540.152, 7672.450
541.476, 9851.724
542.799, 12368.603
544.121, 13600.781
545.444, 13717.942
546.766, 11906.153
548.088, 9294.352
549.410, 6861.728
550.732, 4898.250
552.053, 3648.670
553.375, 2785.578
554.696, 2127.466
556.017, 1725.197
557.337, 1473.783
558.658, 1289.872
559.978, 1204.388
561.298, 1155.517
562.618, 1170.879
563.938, 1114.146
565.257, 1132.318
566.576, 1131.119
567.895, 1023.918
569.214, 1069.174
570.533, 1060.996
571.851, 964.671
573.170, 971.756
574.488, 934.389
575.805, 917.011
577.123, 804.623
578.440, 795.223
579.758, 710.811
581.075, 664.386
582.391, 643.948
583.708, 658.497
585.024, 596.033
586.341, 604.439
587.657, 560.636
588.972, 550.107
590.288, 496.260
591.603, 451.184
592.918, 388.220
594.233, 357.569
595.548, 431.267
596.863, 392.842
598.177, 452.633
599.491, 497.998
600.805, 565.346
602.119, 622.676
603.432, 687.989
604.746, 789.282
606.059, 846.558
607.372, 894.814
608.685, 963.051
609.997, 974.268
611.309, 1006.466
612.621, 1041.642
613.933, 1102.048
615.245, 1179.626
616.557, 1273.047
617.868, 1393.140
619.179, 1540.212
620.490, 1709.267
621.801, 1811.300
623.111, 2098.311
624.421, 2178.303
625.731, 2374.270
627.041, 2253.214
628.351, 2155.135
629.660, 1905.031
630.970, 1654.902
632.279, 1417.749
633.588, 1153.571
634.896, 947.367
636.205, 772.904
637.513, 639.883
638.821, 499.601
640.129, 447.294
641.437, 378.960
642.744, 257.600
644.051, 201.213
645.358, 139.798
646.665, 166.357
647.972, 122.888
649.278, 44.392
650.584, 47.862
651.890, 14.300
653.196, 1.691
654.502, 24.969
655.807, 34.519
657.113, 28.496
658.418, 45.366
659.722, 53.315
661.027, 50.348
662.331, 57.465
663.636, 61.669
664.940, 79.964
666.244, 84.359
667.547, 74.858
668.851, 91.456
670.154, 82.304
671.457, 78.973
672.760, 75.886
674.062, 78.901
675.365, 80.020
676.667, 86.243
677.969, 72.574
679.271, 55.006
680.572, 71.530
681.874, 57.156
683.175, 35.876
684.476, 52.679
685.777, 22.574
687.077, 43.545
688.378, 36.604
689.678, 14.747
690.978, 39.963
692.278, 37.264
693.577, 35.650
694.877, 4.121
696.176, 40.658
697.475, 18.282
698.774, 4.019
700.072, 32.743
701.371, 16.587
702.669, 1.505
703.967, 1.488
705.265, 4.538
706.562, 9.367
707.860, 11.170
709.157, 22.935
710.454, 23.249
711.751, 60.305
713.047, 30.922
714.344, 46.487
715.640, 69.007
716.936, 44.487
718.232, 75.921
719.527, 80.315
720.823, 85.672
722.118, 112.992
723.413, 112.278
724.708, 79.531
726.002, 107.745
727.297, 129.927
728.591, 88.076
729.885, 174.189
731.179, 141.272
732.472, 170.323
733.766, 170.343
735.059, 161.333
736.352, 161.292
737.645, 213.221
738.937, 211.119
740.230, 258.987
741.522, 273.388
742.814, 268.633
744.106, 308.417
745.397, 324.182
746.689, 343.927
747.980, 374.655
749.271, 405.364
750.562, 422.053
751.853, 472.721
753.143, 470.364
754.433, 522.983
755.723, 494.572
757.013, 590.133
758.303, 691.665
759.592, 702.171
760.881, 734.648
762.170, 790.098
763.459, 878.519
764.748, 922.913
766.036, 1030.282
767.325, 1103.624
768.613, 1189.942
769.901, 1327.236
771.188, 1434.502
772.476, 1500.742
773.763, 1648.961
775.050, 1653.155
776.337, 1826.325
777.624, 1907.477
778.910, 1988.612
780.196, 2148.736
781.482, 2285.838
782.768, 2293.916
784.054, 2295.978
785.339, 2294.017
786.625, 2318.032
787.910, 2289.022
789.195, 2185.001
790.479, 2223.960
791.764, 2172.903
793.048, 2226.840
794.332, 2281.771
795.616, 2431.699
796.900, 2596.616
798.183, 2718.530
799.467, 2940.440
800.750, 3291.347
802.033, 3546.248
803.316, 3977.139
804.598, 4606.661
805.880, 4983.234
807.163, 5639.477
808.445, 6140.975
809.726, 6760.841
811.008, 7413.044
812.289, 8206.554
813.570, 9000.939
814.851, 10029.751
816.132, 11070.687
817.413, 12477.114
818.693, 13866.211
819.973, 15443.095
821.253, 17061.637
822.533, 18239.711
823.813, 18935.688
825.092, 18417.184
826.371, 17794.838
827.650, 16479.641
828.929, 15227.202
830.208, 14165.656
831.486, 12968.680
832.764, 11815.523
834.042, 11036.440
835.320, 10576.287
836.598, 9797.009
837.875, 9517.046
839.152, 9121.010
840.429, 8867.836
841.706, 8809.333
842.983, 8429.251
844.259, 8470.530
845.536, 8457.218
846.812, 8408.063
848.088, 8244.009
849.363, 8229.930
850.639, 8180.555
851.914, 8248.590
853.189, 8251.154
854.464, 8330.346
855.739, 8379.312
857.013, 8571.422
858.288, 8757.543
859.562, 8990.486
860.836, 9615.286
862.110, 10261.189
863.383, 10825.605
864.656, 12102.043
865.930, 13360.634
867.203, 15171.371
868.475, 17472.604
869.748, 20313.412
871.020, 23531.607
872.292, 27925.564
873.564, 32449.615
874.836, 37805.758
876.108, 42834.277
877.379, 46963.785
878.650, 50346.848
879.922, 50720.328
881.192, 48493.953
882.463, 44722.168
883.733, 39754.828
885.004, 34265.500
886.274, 29102.182
887.544, 24308.869
888.813, 20702.559
890.083, 17138.262
891.352, 14339.972
892.621, 12323.689
893.890, 10516.416
895.159, 9127.148
896.427, 7992.890
897.695, 7060.642
898.964, 6526.403
900.232, 5893.173
901.499, 5419.953
902.767, 4992.740
904.034, 4738.539
905.301, 4322.345
906.568, 4201.275
907.835, 3924.101
909.102, 3661.939
910.368, 3441.786
911.634, 3246.892
912.900, 3098.760
914.166, 2851.639
915.432, 2759.533
916.697, 2623.433
917.962, 2424.748
919.227, 2372.675
920.492, 2190.261
921.757, 2116.614
923.021, 2069.569
924.285, 2003.557
925.550, 1937.534
926.813, 1899.531
928.077, 1827.276
929.341, 1788.546
930.604, 1668.553
931.867, 1696.674
933.130, 1563.304
934.393, 1565.504
935.655, 1648.828
936.918, 1562.913
938.180, 1652.351
939.442, 1657.460
940.703, 1829.418
941.965, 1954.295
943.226, 2031.910
944.488, 2111.422
945.749, 2154.024
947.009, 2143.585
948.270, 2097.135
949.530, 2000.712
950.791, 1919.092
952.051, 1814.844
953.311, 1613.837
954.570, 1495.011
955.830, 1399.748
957.089, 1224.239
958.348, 1135.606
959.607, 968.602
960.866, 912.302
962.124, 846.655
963.383, 786.336
964.641, 807.171
965.899, 837.465
967.156, 850.988
968.414, 952.981
969.671, 997.192
970.928, 1136.870
972.185, 1244.554
973.442, 1298.252
974.699, 1518.993
975.955, 1656.784
977.211, 1778.620
978.468, 1877.554
979.723, 2095.482
980.979, 2160.456
982.234, 2237.476
983.490, 2376.545
984.745, 2336.659
986.000, 2513.814
987.254, 2550.012
988.509, 2496.253
989.763, 2650.530
991.017, 2710.848
992.271, 2772.199
993.525, 2874.588
994.779, 2973.014
996.032, 3095.470
997.285, 3217.964
998.538, 3383.496
999.791, 3563.065
1001.044, 3954.662
1002.296, 4109.297
1003.548, 4428.964
1004.800, 4753.657
1006.052, 4846.391
1007.304, 4704.158
1008.555, 4374.950
1009.807, 4025.772
1011.058, 3343.626
1012.309, 2814.502
1013.559, 2300.406
1014.810, 1832.330
1016.060, 1486.277
1017.310, 1290.244
1018.560, 1052.229
1019.810, 836.233
1021.060, 714.253
1022.309, 645.295
1023.558, 545.354
1024.807, 483.431
1026.056, 436.521
1027.305, 445.630
1028.553, 404.756
1029.801, 387.896
1031.049, 347.051
1032.297, 303.216
1033.545, 296.391
1034.793, 274.577
1036.040, 211.773
1037.287, 256.978
1038.534, 171.193
1039.781, 185.416
1041.027, 159.656
1042.274, 139.906
1043.520, 114.164
1044.766, 161.432
1046.012, 147.710
1047.257, 103.014
1048.503, 118.362
1049.748, 83.662
1050.993, 110.970
1052.238, 64.285
1053.483, 75.606
1054.727, 43.937
1055.971, 7.729
1057.216, 66.607
1058.459, 40.950
1059.703, 5.297
1060.947, 14.350
1062.190, 36.004
1063.433, 27.363
1064.676, 3.727
1065.919, 41.095
1067.162, 18.532
1068.404, 3.841
1069.646, 24.782
1070.888, 17.409
1072.130, 6.965
1073.372, 1.342
1074.613, 29.279
1075.855, 3.092
1077.096, 22.535
1078.337, 31.167
1079.578, 41.809
1080.818, 58.469
1082.059, 16.154
1083.299, 3.844
1084.539, 42.535
1085.779, 12.754
1087.018, 7.954
1088.258, 13.333
1089.497, 48.377
1090.736, 14.113
1091.975, 24.857
1093.213, 66.616
1094.452, 63.411
1095.690, 70.653
1096.928, 44.113
1098.166, 67.010
1099.404, 62.947
1100.642, 67.921
1101.879, 54.935
1103.116, 40.985
1104.353, 49.062
1105.590, 60.172
1106.827, 57.320
1108.063, 34.506
1109.299, 44.719
1110.536, 69.963
1111.771, 26.253
1113.007, 43.567
1114.243, 1.914
1115.478, 36.273
1116.713, 26.662
1117.948, 2.924
1119.183, 25.499
1120.418, 36.069
1121.652, 147.636
1122.886, 193.200
1124.120, 149.760
1125.354, 111.315
1126.588, 37.866
1127.821, 105.411
1129.055, 68.952
1130.288, 98.487
1131.521, 129.016
1132.753, 92.618
1133.986, 134.134
1135.218, 149.697
1136.450, 164.226
1137.682, 174.974
1138.914, 193.137
1140.146, 201.325
1141.377, 225.891
1142.609, 242.541
1143.840, 257.588
1145.071, 274.869
1146.301, 277.700
1147.532, 283.386
1148.762, 279.198
1149.992, 302.797
1151.222, 297.356
1152.452, 325.147
1153.682, 326.192
1154.911, 292.712
1156.140, 336.466
1157.369, 303.314
1158.598, 285.712
1159.827, 286.171
1161.055, 298.438
1162.284, 272.022
1163.512, 318.963
1164.740, 272.764
1165.967, 299.217
1167.195, 287.041
1168.422, 240.881
1169.650, 269.754
1170.877, 254.973
1172.103, 244.731
1173.330, 226.380
1174.557, 282.842
1175.783, 271.904
1177.009, 258.713
1178.235, 223.105
1179.461, 206.656
1180.686, 220.099
1181.912, 178.554
1183.137, 230.680
1184.362, 198.903
1185.587, 205.485
1186.811, 149.869
1188.036, 184.439
1189.260, 160.060
1190.484, 162.326
1191.708, 133.038
1192.932, 183.052
1194.155, 124.230
1195.378, 116.464
1196.602, 161.632
1197.825, 183.897
1199.047, 162.146
1200.270, 184.211
1201.492, 133.101
1202.715, 183.263
1203.937, 143.978
1205.159, 161.777
1206.380, 215.763
1207.602, 222.573
1208.823, 209.169
1210.044, 240.052
1211.265, 214.875
1212.486, 217.677
1213.707, 250.549
1214.927, 222.175
1216.147, 233.912
1217.367, 266.936
1218.587, 300.597
1219.807, 247.276
1221.027, 236.786
1222.246, 293.331
1223.465, 231.931
1224.684, 265.728
1225.903, 257.383
1227.121, 287.926
1228.340, 293.873
1229.558, 322.366
1230.776, 308.720
1231.994, 296.868
1233.212, 284.351
1234.429, 314.361
1235.646, 315.836
1236.864, 307.304
1238.081, 312.815
1239.297, 294.613
1240.514, 310.770
1241.730, 332.080
1242.947, 280.880
1244.163, 316.283
1245.378, 325.144
1246.594, 333.165
1247.810, 333.779
1249.025, 268.167
1250.240, 303.343
1251.455, 333.955
1252.670, 280.815
1253.885, 318.798
1255.099, 318.159
1256.313, 304.826
1257.527, 287.858
1258.741, 248.582
1259.955, 260.170
1261.168, 265.323
1262.382, 230.270
1263.595, 260.771
1264.808, 236.079
1266.021, 211.947
1267.233, 184.838
1268.446, 170.647
1269.658, 149.643
1270.870, 151.515
1272.082, 115.372
1273.294, 123.156
1274.505, 118.973
1275.716, 81.772
1276.928, 112.549
1278.139, 63.305
1279.349, 98.032
1280.560, 69.734
1281.770, 76.398
1282.981, 30.035
1284.191, 32.653
1285.401, 46.247
1286.610, 41.821
1287.820, 56.363
1289.029, 29.883
1290.239, 41.376
1291.448, 16.850
1292.656, 29.303
1293.865, 16.736
1295.073, 37.149
1296.282, 43.547
1297.490, 15.927
1298.698, 9.712
1299.906, 44.625
1301.113, 15.943
1302.320, 11.241
1303.528, 0.482
1304.735, 47.774
1305.942, 1.014
1307.148, 24.230
1308.355, 6.427
1309.561, 8.395
1310.767, 34.760
1311.973, 7.897
1313.179, 7.017
1314.384, 10.882
1315.590, 0.806
1316.795, 9.750
1318.000, 10.283
1319.205, 21.701
1320.410, 15.711
1321.614, 4.255
1322.819, 5.797
1324.023, 10.128
1325.227, 15.035
1326.431, 12.923
1327.634, 3.206
1328.838, 32.643
1330.041, 5.474
1331.244, 12.287
1332.447, 27.919
1333.650, 2.849
1334.852, 16.598
1336.055, 0.331
1337.257, 4.955
1338.459, 19.741
1339.661, 12.404
1340.862, 16.015
1342.064, 7.666
1343.265, 7.302
1344.466, 20.922
1345.667, 49.529
1346.868, 8.119
1348.068, 55.698
1349.269, 57.265
1350.469, 17.820
1351.669, 45.361
1352.869, 31.890
1354.069, 22.408
1355.268, 27.914
1356.468, 26.408
1357.667, 15.890
1358.866, 2.361
1360.065, 27.822
1361.263, 38.323
1362.462, 0.232
1363.660, 28.204
1364.858, 58.631
1366.056, 51.051
1367.254, 30.468
1368.451, 41.877
1369.649, 0.716
1370.846, 35.689
1372.043, 52.099
1373.240, 6.518
1374.436, 28.943
1375.633, 46.356
1376.829, 21.778
1378.025, 48.198
1379.221, 16.622
1380.417, 50.082
1381.613, 70.841
1382.808, 50.296
1384.003, 37.652
1385.199, 31.925
1386.393, 28.887
1387.588, 27.739
1388.783, 37.339
1389.977, 44.745
1391.171, 52.815
1392.365, 47.934
1393.559, 75.103
1394.753, 71.315
1395.946, 54.551
1397.140, 85.814
1398.333, 73.065
1399.526, 80.009
1400.719, 110.517
1401.911, 79.720
1403.104, 97.906
1404.296, 82.986
1405.488, 95.049
1406.680, 112.620
1407.872, 98.357
1409.063, 122.023
1410.255, 93.421
1411.446, 60.687
1412.637, 98.296
1413.828, 104.732
1415.018, 103.020
1416.209, 145.982
1417.399, 87.499
1418.589, 151.172
1419.779, 127.778
1420.969, 181.040
1422.159, 118.254
1423.348, 102.236
1424.537, 174.138
1425.726, 139.061
1426.915, 135.530
1428.104, 97.032
1429.293, 146.508
1430.481, 158.703
1431.669, 153.752
1432.857, 169.395
1434.045, 126.856
1435.233, 147.144
1436.420, 142.472
1437.608, 152.065
1438.795, 147.201
1439.982, 151.932
1441.169, 147.628
1442.355, 135.340
1443.542, 143.446
1444.728, 182.212
1445.914, 147.254
1447.100, 184.316
1448.286, 149.098
1449.472, 118.198
1450.657, 188.729
1451.842, 146.265
1453.027, 156.306
1454.212, 143.859
1455.397, 131.848
1456.581, 146.510
1457.766, 108.032
1458.950, 160.730
1460.134, 131.546
1461.318, 108.394
1462.501, 173.181
1463.685, 106.911
1464.868, 149.578
1466.051, 142.181
1467.234, 153.724
1468.417, 160.573
1469.600, 117.666
1470.782, 139.088
1471.965, 135.506
1473.147, 82.923
1474.329, 131.358
1475.510, 107.866
1476.692, 85.524
1477.873, 106.221
1479.055, 81.982
1480.236, 92.836
1481.416, 112.735
1482.597, 30.658
1483.778, 87.578
1484.958, 60.504
1486.138, 63.457
1487.318, 87.436
1488.498, 84.430
1489.678, 82.225
1490.857, 72.491
1492.037, 64.537
1493.216, 48.610
1494.395, 37.697
1495.574, 80.801
1496.752, 93.934
1497.931, 38.111
1499.109, 80.345
1500.287, 28.648
1501.465, 64.025
1502.643, 3.531
1503.820, 78.974
1504.998, 18.535
1506.175, 25.160
1507.352, 23.855
1508.529, 39.627
1509.706, 25.487
1510.882, 61.448
1512.059, 60.528
1513.235, 41.744
1514.411, 34.108
1515.587, 6.011
1516.762, 48.653
1517.938, 35.499
1519.113, 72.585
1520.288, 37.952
1521.463, 9.463
1522.638, 1.289
1523.813, 85.579
1524.987, 74.385
1526.162, 0.000
##END=



