##NAMES=Grossular
##RRUFFID=R050081
##IDEAL CHEMISTRY=Ca_3_Al_2_(SiO_4_)_3_
##LOCALITY=Kayes Region, Mali
##OWNER=RRUFF
##SOURCE=Rock Currier
##DESCRIPTION=Dark brown dodecahedron
##STATUS=The identification of this mineral has been confirmed by X-ray diffraction and chemical analysis
##URL=rruff.info/R050081
##MEASURED CHEMISTRY=(Ca_2.92_Mg_0.07_Mn_0.01_)_Σ=3_(Al_1.04_Fe^3+^_0.89_Ti_0.07_)_Σ=2_((Si_0.98_Al_0.02_)_Σ=1_O_4_)_3_; trace amounts of Y
146.0895, 0.0000000E+00
146.5716, 0.3729860
147.0537, 0.6316830
147.5358, 1.747192
148.0179, 6.125000
148.5001, 13.53052
148.9822, 21.32468
149.4643, 27.50922
149.9464, 31.99887
150.4285, 36.06833
150.9106, 41.18015
151.3928, 46.91061
151.8749, 50.60818
152.3570, 49.14520
152.8391, 47.28387
153.3212, 50.96005
153.8033, 60.76947
154.2855, 69.18637
154.7676, 69.74622
155.2497, 63.64886
155.7318, 56.10443
156.2139, 45.62927
156.6960, 35.13745
157.1782, 27.50464
157.6603, 22.75745
158.1424, 21.44775
158.6245, 25.35406
159.1066, 33.19421
159.5887, 42.46320
160.0709, 56.60486
160.5530, 70.30481
161.0351, 73.19977
161.5172, 61.80487
161.9993, 52.07892
162.4814, 57.18134
162.9636, 72.01508
163.4457, 88.58282
163.9278, 106.4669
164.4099, 123.4941
164.8920, 133.7945
165.3741, 134.0115
165.8563, 136.9617
166.3384, 153.8677
166.8205, 178.5450
167.3026, 200.8712
167.7847, 215.9199
168.2668, 226.3971
168.7490, 237.6439
169.2311, 248.9493
169.7132, 263.0245
170.1953, 282.0994
170.6774, 304.4862
171.1595, 327.6750
171.6417, 349.6795
172.1238, 372.1025
172.6059, 399.4777
173.0880, 434.0023
173.5701, 469.4751
174.0522, 502.1750
174.5344, 534.3015
175.0165, 570.3295
175.4986, 618.5700
175.9807, 668.6240
176.4628, 691.9773
176.9449, 679.7450
177.4271, 654.0286
177.9092, 626.0773
178.3913, 589.8318
178.8734, 548.5569
179.3555, 503.0312
179.8376, 450.9167
180.3197, 398.3123
180.8019, 339.0639
181.2840, 287.7057
181.7661, 250.1349
182.2482, 222.6273
182.7303, 201.7221
183.2124, 186.7987
183.6946, 175.6531
184.1767, 161.3446
184.6588, 139.6908
185.1409, 122.5981
185.6230, 114.7660
186.1051, 111.8773
186.5873, 109.4604
187.0694, 105.7340
187.5515, 100.4806
188.0336, 92.48499
188.5157, 78.34418
188.9978, 67.68683
189.4800, 63.42725
189.9621, 62.71490
190.4442, 63.16302
190.9263, 63.88373
191.4084, 64.18115
191.8905, 62.24207
192.3727, 56.97797
192.8548, 51.20404
193.3369, 44.55780
193.8190, 38.11023
194.3011, 32.50299
194.7832, 27.96478
195.2654, 25.14838
195.7475, 26.13080
196.2296, 35.10767
196.7117, 39.90173
197.1938, 37.32166
197.6759, 31.57379
198.1581, 25.19678
198.6402, 19.19495
199.1223, 16.13751
199.6044, 19.51630
200.0865, 34.33319
200.5686, 41.27539
201.0508, 32.55194
201.5329, 20.73944
202.0150, 16.43719
202.4971, 20.43658
202.9792, 28.46252
203.4613, 32.48822
203.9435, 29.28253
204.4256, 26.63593
204.9077, 26.97626
205.3898, 26.62933
205.8719, 21.78064
206.3540, 12.26508
206.8362, 2.351685
207.3183, 0.9415890
207.8004, 7.831299
208.2825, 9.044861
208.7646, 6.167969
209.2467, 21.29736
209.7289, 24.79065
210.2110, 16.52893
210.6931, 6.167053
211.1752, 6.046265
211.6573, 20.87524
212.1395, 28.58215
212.6216, 23.83917
213.1037, 17.08215
213.5858, 13.53888
214.0679, 13.05908
214.5500, 12.10016
215.0322, 6.690186
215.5143, 4.203369
215.9964, 12.51257
216.4785, 15.44550
216.9606, 18.47443
217.4427, 24.72095
217.9249, 33.09863
218.4070, 40.19202
218.8891, 42.95752
219.3712, 41.26898
219.8533, 39.78784
220.3354, 31.93304
220.8176, 30.96716
221.2997, 42.90649
221.7818, 64.65948
222.2639, 90.48102
222.7460, 117.0202
223.2281, 143.9981
223.7103, 165.8000
224.1924, 178.6624
224.6745, 190.0001
225.1566, 196.7495
225.6387, 203.8599
226.1208, 220.0022
226.6030, 251.4008
227.0851, 292.5685
227.5672, 319.6749
228.0493, 317.2916
228.5314, 321.3502
229.0135, 336.9075
229.4957, 361.9836
229.9778, 396.8091
230.4599, 442.8620
230.9420, 493.1102
231.4241, 531.7280
231.9062, 552.6905
232.3884, 571.5202
232.8705, 590.0740
233.3526, 608.0504
233.8347, 624.5223
234.3168, 639.2809
234.7989, 654.6729
235.2811, 675.4322
235.7632, 705.8373
236.2453, 731.2849
236.7274, 742.3860
237.2095, 754.2582
237.6916, 778.1538
238.1738, 815.9987
238.6559, 860.2449
239.1380, 903.6829
239.6201, 948.6188
240.1022, 984.0811
240.5843, 1019.134
241.0665, 1036.923
241.5486, 1026.110
242.0307, 987.9200
242.5128, 933.1410
242.9949, 870.7024
243.4770, 800.4205
243.9592, 723.0018
244.4413, 627.6703
244.9234, 534.4166
245.4055, 448.1865
245.8876, 369.7808
246.3697, 299.9932
246.8519, 239.4109
247.3340, 187.5078
247.8161, 142.3929
248.2982, 102.5875
248.7803, 72.69849
249.2624, 58.18079
249.7446, 52.71729
250.2267, 46.24268
250.7088, 32.83057
251.1909, 15.43445
251.6730, 2.388184
252.1551, 5.703735
252.6373, 10.38989
253.1194, 11.22107
253.6015, 9.767578
254.0836, 7.551636
254.5657, 5.080933
255.0478, 2.194458
255.5300, 2.292236
256.0121, 9.685181
256.4942, 13.58191
256.9763, 5.393921
257.4584, 3.133179
257.9406, 0.8908690
258.4227, 14.83435
258.9048, 30.89319
259.3869, 31.07605
259.8690, 14.45776
260.3511, 3.072266
260.8333, 1.868652
261.3154, 6.921875
261.7975, 16.39233
262.2796, 29.86108
262.7617, 44.39795
263.2438, 57.76379
263.7260, 70.37646
264.2081, 84.32178
264.6902, 99.39331
265.1723, 116.2480
265.6544, 136.8070
266.1365, 159.7871
266.6187, 180.9207
267.1008, 193.3395
267.5829, 204.1313
268.0650, 230.5941
268.5471, 278.1133
269.0292, 324.7087
269.5114, 355.5996
269.9935, 374.7784
270.4756, 387.0260
270.9577, 390.3849
271.4398, 389.7025
271.9219, 392.8180
272.4041, 400.1022
272.8862, 399.1686
273.3683, 382.9471
273.8504, 353.9666
274.3325, 318.3953
274.8146, 270.8584
275.2968, 226.8169
275.7789, 196.3075
276.2610, 177.9414
276.7431, 167.2526
277.2252, 165.8943
277.7073, 167.2455
278.1895, 159.5844
278.6716, 141.4875
279.1537, 123.5825
279.6358, 108.1273
280.1179, 95.70776
280.6000, 88.33704
281.0822, 86.94128
281.5643, 87.51953
282.0464, 85.75671
282.5285, 81.60095
283.0106, 75.78247
283.4927, 67.92310
283.9749, 58.70886
284.4570, 47.15796
284.9391, 33.70935
285.4212, 23.52026
285.9033, 23.15344
286.3854, 31.89526
286.8676, 26.41138
287.3497, 11.29456
287.8318, 44.48108
288.3139, 52.06934
288.7960, 40.36426
289.2781, 27.12915
289.7603, 21.92395
290.2424, 23.07581
290.7245, 23.84619
291.2066, 23.62610
291.6887, 23.80212
292.1708, 25.38452
292.6530, 27.19470
293.1351, 28.29883
293.6172, 28.31628
294.0993, 26.25903
294.5814, 20.09705
295.0635, 5.750977
295.5457, 5.023438
296.0278, 9.849854
296.5099, 13.04443
296.9920, 16.93713
297.4741, 22.16687
297.9562, 28.78381
298.4384, 37.09680
298.9205, 47.48206
299.4026, 57.07861
299.8847, 68.67969
300.3668, 76.76221
300.8489, 76.31592
301.3311, 70.86877
301.8131, 67.59595
302.2953, 71.23730
302.7774, 80.83582
303.2595, 91.83105
303.7416, 106.8340
304.2237, 119.2213
304.7058, 125.8601
305.1880, 130.2684
305.6701, 136.5527
306.1522, 146.2974
306.6343, 157.0095
307.1164, 163.9454
307.5985, 165.4153
308.0807, 169.3065
308.5628, 176.7048
309.0449, 187.2782
309.5270, 201.0782
310.0091, 217.9695
310.4912, 236.8112
310.9734, 258.1505
311.4555, 281.6696
311.9376, 301.2882
312.4197, 312.0621
312.9018, 325.5503
313.3839, 347.7751
313.8661, 377.9236
314.3482, 413.8280
314.8303, 458.3014
315.3124, 505.9200
315.7945, 548.6381
316.2766, 586.6364
316.7588, 619.5610
317.2409, 641.0499
317.7230, 659.2764
318.2051, 689.0837
318.6872, 740.1600
319.1693, 789.3148
319.6515, 818.7988
320.1336, 830.9275
320.6157, 836.8472
321.0978, 840.4375
321.5799, 838.9299
322.0620, 826.7725
322.5442, 803.7261
323.0263, 776.9843
323.5084, 750.5513
323.9905, 720.6058
324.4726, 677.2825
324.9547, 618.9017
325.4369, 564.8470
325.9190, 535.3234
326.4011, 533.3887
326.8832, 525.0023
327.3653, 500.6924
327.8474, 478.8000
328.3296, 471.6184
328.8117, 475.8517
329.2938, 480.0173
329.7759, 476.9890
330.2580, 469.3821
330.7401, 469.1819
331.2223, 480.5928
331.7044, 494.3005
332.1865, 514.0022
332.6686, 533.4662
333.1507, 543.9113
333.6328, 543.3336
334.1150, 540.2985
334.5971, 549.1968
335.0792, 579.3885
335.5613, 595.6124
336.0434, 586.2767
336.5255, 574.9591
337.0077, 573.8927
337.4898, 581.9690
337.9719, 591.4377
338.4540, 596.5521
338.9361, 597.6135
339.4182, 595.8557
339.9004, 579.5037
340.3825, 578.9700
340.8646, 612.8074
341.3467, 662.0389
341.8288, 701.3103
342.3109, 719.7759
342.7931, 732.2534
343.2752, 760.3937
343.7573, 805.6042
344.2394, 857.1184
344.7215, 914.0391
345.2036, 975.6233
345.6858, 1041.913
346.1679, 1113.843
346.6500, 1186.647
347.1321, 1252.784
347.6142, 1316.687
348.0963, 1392.687
348.5785, 1483.976
349.0606, 1582.385
349.5427, 1679.132
350.0248, 1777.663
350.5069, 1889.791
350.9890, 2025.260
351.4712, 2169.695
351.9533, 2311.238
352.4354, 2451.721
352.9175, 2598.708
353.3996, 2752.296
353.8817, 2917.645
354.3639, 3111.921
354.8460, 3335.440
355.3281, 3576.527
355.8102, 3845.128
356.2923, 4124.085
356.7744, 4387.853
357.2566, 4632.924
357.7387, 4872.836
358.2208, 5124.538
358.7029, 5394.500
359.1850, 5645.161
359.6671, 5897.032
360.1493, 6110.993
360.6314, 6267.444
361.1135, 6372.798
361.5956, 6438.719
362.0777, 6469.433
362.5598, 6472.550
363.0420, 6475.806
363.5241, 6463.233
364.0062, 6479.541
364.4883, 6535.173
364.9704, 6614.495
365.4525, 6697.156
365.9347, 6781.382
366.4168, 6894.619
366.8989, 7075.653
367.3810, 7330.083
367.8631, 7584.486
368.3452, 7842.568
368.8274, 8094.499
369.3095, 8350.609
369.7916, 8598.216
370.2737, 8808.618
370.7558, 8976.911
371.2379, 9096.730
371.7201, 9162.254
372.2022, 9175.925
372.6843, 9098.176
373.1664, 8891.558
373.6485, 8589.309
374.1306, 8253.938
374.6128, 7890.107
375.0949, 7482.802
375.5770, 6997.649
376.0591, 6471.065
376.5412, 5975.831
377.0233, 5527.123
377.5055, 5105.642
377.9876, 4687.271
378.4697, 4272.854
378.9518, 3906.635
379.4339, 3608.208
379.9160, 3342.343
380.3982, 3095.746
380.8803, 2866.624
381.3624, 2657.652
381.8445, 2470.403
382.3266, 2303.365
382.8087, 2148.873
383.2909, 2006.086
383.7730, 1880.802
384.2551, 1784.706
384.7372, 1698.570
385.2193, 1602.427
385.7014, 1495.766
386.1836, 1396.326
386.6657, 1323.979
387.1478, 1280.315
387.6299, 1238.821
388.1120, 1203.632
388.5941, 1165.333
389.0763, 1114.322
389.5584, 1059.889
390.0405, 1018.639
390.5226, 999.6851
391.0047, 989.4291
391.4868, 963.2275
391.9690, 918.5913
392.4511, 883.0411
392.9332, 868.1190
393.4153, 861.8120
393.8974, 852.0526
394.3795, 838.6790
394.8617, 828.4001
395.3438, 825.8137
395.8259, 827.9567
396.3080, 830.1371
396.7901, 831.9485
397.2722, 834.0693
397.7544, 836.7501
398.2365, 840.1937
398.7186, 844.9962
399.2007, 860.7805
399.6828, 867.2395
400.1649, 849.9633
400.6471, 819.7063
401.1292, 796.3726
401.6113, 786.4271
402.0934, 777.3970
402.5755, 750.0297
403.0576, 697.4341
403.5398, 646.8516
404.0219, 597.7954
404.5040, 550.3896
404.9861, 505.2301
405.4682, 461.6041
405.9503, 417.7217
406.4325, 371.8220
406.9146, 326.1769
407.3967, 290.6682
407.8788, 271.8041
408.3609, 249.8328
408.8430, 214.6525
409.3252, 179.0830
409.8073, 154.2209
410.2894, 141.3752
410.7715, 131.7052
411.2536, 118.1740
411.7357, 101.4225
412.2179, 85.13562
412.7000, 69.70544
413.1821, 54.50696
413.6642, 34.54569
414.1463, 35.02803
414.6284, 34.10062
415.1106, 31.84537
415.5927, 23.90618
416.0748, 23.60006
416.5569, 20.41388
417.0390, 17.23190
417.5211, 18.36516
418.0033, 11.90943
418.4854, 13.23157
418.9675, 11.62786
419.4496, 11.54941
419.9317, 8.572223
420.4138, 6.657551
420.8960, 7.897562
421.3781, 7.589277
421.8602, 4.774572
422.3423, 5.551095
422.8244, 0.2669928
423.3065, 0.5409096
423.7887, 3.285327
424.2708, 1.261212
424.7529, 2.731519
425.2350, 3.047275
425.7171, -2.336486
426.1992, 2.541529
426.6814, 3.164650
427.1635, -0.5846123
427.6456, 4.329248
428.1277, 1.455705
428.6098, 1.535098
429.0919, 3.868272
429.5741, 4.112979
430.0562, 7.979655
430.5383, 8.607474
431.0204, 9.062198
431.5025, 10.95731
431.9846, 9.260483
432.4668, 14.59230
432.9489, 15.33785
433.4310, 18.55401
433.9131, 22.42892
434.3952, 22.36521
434.8773, 26.73411
435.3595, 24.55520
435.8416, 28.08970
436.3237, 31.15018
436.8058, 38.04919
437.2879, 43.65912
437.7701, 48.41595
438.2522, 51.38257
438.7343, 54.33594
439.2164, 62.38708
439.6985, 82.96802
440.1806, 95.07574
440.6628, 91.41510
441.1449, 85.99829
441.6270, 88.31323
442.1091, 97.72089
442.5912, 107.7563
443.0733, 114.0533
443.5555, 116.9722
444.0376, 117.3766
444.5197, 114.1709
445.0018, 111.5368
445.4839, 112.6494
445.9660, 114.2667
446.4482, 112.1586
446.9303, 105.0922
447.4124, 100.1526
447.8945, 104.5697
448.3766, 113.6304
448.8587, 117.0379
449.3409, 113.1849
449.8230, 107.2709
450.3051, 102.7274
450.7872, 99.61871
451.2693, 97.84766
451.7514, 98.27240
452.2336, 98.92291
452.7157, 97.44501
453.1978, 96.42590
453.6799, 101.3027
454.1620, 113.0690
454.6441, 124.7173
455.1263, 126.5782
455.6084, 116.5042
456.0905, 108.8317
456.5726, 103.9132
457.0547, 101.3055
457.5368, 103.5616
458.0190, 107.4486
458.5011, 107.4913
458.9832, 100.8922
459.4653, 92.04681
459.9474, 87.40344
460.4295, 87.05005
460.9117, 85.97150
461.3938, 81.91040
461.8759, 78.71423
462.3580, 82.45190
462.8401, 91.15985
463.3222, 93.76447
463.8044, 81.73120
464.2865, 66.67969
464.7686, 58.51398
465.2507, 56.35400
465.7328, 56.26324
466.2149, 56.86127
466.6971, 57.51245
467.1792, 57.06317
467.6613, 55.63330
468.1434, 52.57715
468.6255, 46.34448
469.1076, 39.85931
469.5898, 34.08850
470.0719, 29.65381
470.5540, 27.81348
471.0361, 29.61292
471.5182, 33.78973
472.0003, 36.49390
472.4825, 36.62915
472.9646, 37.80725
473.4467, 42.22705
473.9288, 46.42401
474.4109, 47.06049
474.8930, 44.94250
475.3752, 45.41553
475.8573, 53.63403
476.3394, 64.96356
476.8215, 70.84680
477.3036, 71.32196
477.7857, 73.22668
478.2679, 80.22949
478.7500, 90.17743
479.2321, 98.31519
479.7142, 104.0138
480.1963, 109.7489
480.6784, 115.8418
481.1606, 122.6718
481.6427, 129.6716
482.1248, 137.4860
482.6069, 149.7967
483.0890, 170.3899
483.5711, 196.2315
484.0533, 211.7800
484.5354, 208.2099
485.0175, 209.4857
485.4996, 224.0707
485.9817, 240.7339
486.4638, 249.3890
486.9460, 249.6066
487.4281, 248.5164
487.9102, 251.4832
488.3923, 257.3248
488.8744, 262.3895
489.3565, 266.4811
489.8387, 270.7357
490.3208, 277.0840
490.8029, 282.4697
491.2850, 280.1898
491.7671, 265.4664
492.2492, 256.8419
492.7314, 268.4297
493.2135, 285.0630
493.6956, 287.9594
494.1777, 276.4917
494.6598, 263.3606
495.1419, 258.1500
495.6241, 259.6402
496.1062, 259.8260
496.5883, 258.9347
497.0704, 256.2440
497.5525, 250.6450
498.0346, 244.0229
498.5168, 238.8038
498.9989, 234.7103
499.4810, 228.2330
499.9631, 212.7357
500.4452, 192.6512
500.9273, 188.4338
501.4095, 205.4166
501.8916, 215.2544
502.3737, 199.9535
502.8558, 173.5137
503.3379, 158.2321
503.8200, 156.3389
504.3022, 158.0680
504.7843, 162.1183
505.2664, 166.5631
505.7485, 170.1201
506.2306, 172.2069
506.7127, 170.1080
507.1949, 161.0727
507.6770, 147.7009
508.1591, 141.5407
508.6412, 149.1051
509.1233, 154.5742
509.6054, 156.2620
510.0876, 156.3125
510.5697, 155.8837
511.0518, 155.2828
511.5339, 154.0398
512.0161, 148.4825
512.4982, 144.1470
512.9803, 162.2346
513.4624, 208.6842
513.9445, 239.7896
514.4266, 231.0533
514.9088, 207.2968
515.3909, 199.8155
515.8730, 209.0983
516.3551, 226.1052
516.8372, 250.8145
517.3193, 280.0201
517.8015, 312.5588
518.2836, 347.3081
518.7657, 381.0907
519.2478, 411.6827
519.7299, 442.3481
520.2120, 481.1149
520.6942, 530.9834
521.1763, 583.6812
521.6584, 642.9428
522.1405, 699.8182
522.6226, 745.6832
523.1047, 787.0490
523.5869, 836.2914
524.0690, 899.6755
524.5511, 973.1588
525.0332, 1051.890
525.5153, 1135.927
525.9974, 1219.970
526.4796, 1299.201
526.9617, 1383.981
527.4438, 1489.137
527.9259, 1612.077
528.4080, 1730.622
528.8901, 1835.942
529.3723, 1942.289
529.8544, 2062.773
530.3365, 2189.765
530.8186, 2309.072
531.3007, 2416.205
531.7828, 2511.542
532.2650, 2598.977
532.7471, 2684.077
533.2292, 2728.441
533.7113, 2723.495
534.1934, 2684.216
534.6755, 2615.922
535.1577, 2516.579
535.6398, 2377.361
536.1219, 2192.587
536.6040, 1992.442
537.0861, 1798.017
537.5682, 1610.879
538.0504, 1437.231
538.5325, 1278.954
539.0146, 1131.939
539.4967, 993.4624
539.9788, 865.3696
540.4609, 758.3462
540.9431, 680.7209
541.4252, 608.7247
541.9073, 533.6616
542.3894, 464.6523
542.8715, 410.4532
543.3536, 371.4488
543.8358, 343.2702
544.3179, 323.6954
544.8000, 310.7740
545.2821, 295.4847
545.7642, 275.8293
546.2463, 259.3171
546.7285, 249.0622
547.2106, 241.9832
547.6927, 236.9435
548.1748, 233.5069
548.6569, 228.4614
549.1390, 218.5097
549.6211, 207.6465
550.1032, 200.7656
550.5853, 197.0756
551.0674, 191.3192
551.5496, 180.2656
552.0317, 171.9752
552.5138, 180.8552
552.9959, 215.3396
553.4780, 238.4932
553.9601, 247.1729
554.4423, 249.7528
554.9244, 246.4910
555.4065, 240.3164
555.8886, 234.9370
556.3707, 231.6718
556.8528, 229.7627
557.3350, 226.6846
557.8171, 223.3254
558.2992, 229.1343
558.7813, 248.8962
559.2634, 265.4398
559.7455, 267.2633
560.2277, 256.8065
560.7098, 243.3113
561.1919, 221.0029
561.6740, 205.8348
562.1561, 211.6333
562.6382, 221.6613
563.1204, 214.8057
563.6025, 191.9933
564.0846, 172.0779
564.5667, 169.6002
565.0488, 178.9844
565.5309, 177.1682
566.0131, 158.1364
566.4952, 143.1299
566.9773, 139.1590
567.4594, 137.6244
567.9415, 135.7460
568.4236, 132.1777
568.9058, 122.5074
569.3879, 98.71698
569.8700, 73.47430
570.3521, 59.58514
570.8342, 54.97064
571.3163, 53.90582
571.7985, 55.06964
572.2806, 54.95087
572.7627, 48.81189
573.2448, 32.85275
573.7269, 32.27237
574.2090, 30.42433
574.6912, 27.38940
575.1733, 18.81292
575.6554, 18.01054
576.1375, 14.46971
576.6196, 11.07485
577.1017, 12.13698
577.5839, 5.751464
578.0660, 7.285755
578.5481, 6.035468
579.0302, 6.452066
579.5123, 4.111637
579.9944, 2.975307
580.4766, 5.135442
580.9587, 5.888745
581.4408, 4.277152
581.9229, 6.398411
582.4050, 2.600709
582.8871, 4.502452
583.3693, 9.016897
583.8514, 8.903806
584.3335, 12.42691
584.8156, 14.93709
585.2977, 11.88937
585.7798, 19.24470
586.2620, 22.48775
586.7441, 21.49895
587.2262, 29.31530
587.7083, 29.48587
588.1904, 32.75095
588.6725, 38.41092
589.1547, 54.43958
589.6368, 64.10529
590.1189, 72.23059
590.6010, 81.12579
591.0831, 89.87976
591.5652, 96.24670
592.0474, 100.7803
592.5295, 107.4380
593.0116, 119.0513
593.4937, 133.9827
593.9758, 147.6055
594.4579, 160.5381
594.9401, 170.5447
595.4222, 173.9572
595.9043, 177.4816
596.3864, 185.8765
596.8685, 197.0084
597.3506, 204.7370
597.8328, 204.6863
598.3149, 204.6320
598.7970, 213.2870
599.2791, 227.2924
599.7612, 237.7561
600.2433, 242.9904
600.7255, 246.7519
601.2076, 252.1057
601.6897, 258.8420
602.1718, 265.2516
602.6539, 270.9887
603.1360, 276.8594
603.6182, 286.0297
604.1003, 292.9156
604.5824, 289.6207
605.0645, 279.2587
605.5466, 275.1208
606.0287, 287.6017
606.5109, 306.6163
606.9930, 318.2349
607.4751, 322.8027
607.9572, 321.7177
608.4393, 313.8448
608.9214, 306.1232
609.4036, 305.6954
609.8857, 312.6153
610.3678, 319.4582
610.8499, 329.4106
611.3320, 335.2812
611.8141, 331.2292
612.2963, 324.9243
612.7784, 325.1364
613.2605, 331.9351
613.7426, 338.0501
614.2247, 337.9158
614.7068, 333.2784
615.1890, 327.1484
615.6711, 319.3022
616.1532, 315.0812
616.6353, 316.4187
617.1174, 321.3566
617.5995, 330.0560
618.0817, 342.6204
618.5638, 346.8534
619.0459, 337.5344
619.5280, 325.3263
620.0101, 311.5089
620.4922, 298.5026
620.9744, 290.9776
621.4565, 288.5964
621.9386, 283.6913
622.4207, 267.6238
622.9028, 244.2253
623.3849, 229.5961
623.8671, 225.2612
624.3492, 220.8235
624.8313, 213.5660
625.3134, 204.4689
625.7955, 193.7522
626.2776, 181.5133
626.7598, 171.7471
627.2419, 168.1574
627.7240, 163.7829
628.2061, 155.0747
628.6882, 143.5078
629.1703, 130.5208
629.6525, 116.9152
630.1346, 104.3058
630.6167, 93.83093
631.0988, 85.84570
631.5809, 83.05865
632.0630, 87.31378
632.5452, 89.18524
633.0273, 84.47546
633.5094, 77.54065
633.9915, 73.18463
634.4736, 71.19269
634.9557, 68.67242
635.4379, 61.06384
635.9200, 56.08264
636.4021, 63.88995
636.8842, 77.73444
637.3663, 82.62469
637.8484, 75.10425
638.3306, 65.49481
638.8127, 66.39539
639.2948, 76.63007
639.7769, 82.63855
640.2590, 83.33203
640.7411, 83.52606
641.2233, 84.30524
641.7054, 85.07025
642.1875, 85.32458
642.6696, 85.37732
643.1517, 85.99268
643.6339, 85.91620
644.1160, 87.55591
644.5981, 93.40210
645.0802, 101.3643
645.5623, 109.4468
646.0444, 116.8134
646.5266, 121.1592
647.0087, 119.5345
647.4908, 113.5253
647.9729, 111.1150
648.4550, 113.1479
648.9371, 113.9792
649.4193, 112.1001
649.9014, 109.5552
650.3835, 106.9265
650.8656, 104.5903
651.3477, 106.0123
651.8298, 115.2120
652.3120, 124.1793
652.7941, 130.9854
653.2762, 134.9978
653.7583, 133.0383
654.2404, 125.9575
654.7225, 121.8840
655.2047, 128.9110
655.6868, 142.4410
656.1689, 145.3811
656.6510, 135.4108
657.1331, 131.1562
657.6152, 140.0714
658.0974, 150.2411
658.5795, 147.9377
659.0616, 136.8150
659.5437, 133.7416
660.0258, 149.8755
660.5079, 162.0698
660.9901, 157.8099
661.4722, 148.5421
661.9543, 147.0272
662.4364, 153.7796
662.9185, 161.2724
663.4006, 164.0586
663.8828, 163.7926
664.3649, 164.4916
664.8470, 166.5814
665.3291, 171.3680
665.8112, 179.7481
666.2933, 186.8165
666.7755, 189.9499
667.2576, 189.8365
667.7397, 187.5483
668.2218, 177.7428
668.7039, 173.9812
669.1860, 185.0380
669.6682, 198.2522
670.1503, 202.0928
670.6324, 198.1620
671.1145, 195.8159
671.5966, 200.6057
672.0787, 207.7371
672.5609, 209.8867
673.0430, 207.1529
673.5251, 203.8946
674.0072, 200.6678
674.4893, 196.8891
674.9714, 191.7557
675.4536, 186.1843
675.9357, 182.7873
676.4178, 183.4148
676.8999, 182.1174
677.3820, 177.7345
677.8641, 172.4178
678.3463, 167.2595
678.8284, 161.9835
679.3105, 155.1474
679.7926, 146.3129
680.2747, 139.5176
680.7568, 141.2219
681.2390, 147.1787
681.7211, 146.5176
682.2032, 139.1319
682.6853, 131.3041
683.1674, 125.3616
683.6495, 121.5771
684.1317, 121.0066
684.6138, 125.1320
685.0959, 124.5797
685.5780, 114.0294
686.0601, 105.1500
686.5422, 103.6941
687.0244, 103.4643
687.5065, 96.05640
687.9886, 81.35388
688.4707, 70.19714
688.9528, 71.96475
689.4349, 77.90805
689.9171, 78.72153
690.3992, 75.42480
690.8813, 70.25143
691.3634, 63.93591
691.8455, 59.80026
692.3276, 62.33716
692.8098, 69.94934
693.2919, 67.04935
693.7740, 45.48785
694.2561, 31.63025
694.7382, 36.45035
695.2203, 44.96249
695.7025, 46.53076
696.1846, 42.95630
696.6667, 42.00134
697.1488, 48.75012
697.6309, 53.79498
698.1130, 49.82129
698.5952, 42.57898
699.0773, 39.63275
699.5594, 41.02588
700.0415, 42.42584
700.5236, 41.33685
701.0057, 37.77948
701.4879, 29.82233
701.9700, 16.87152
702.4521, 13.06506
702.9342, 23.91785
703.4163, 32.88812
703.8984, 28.66052
704.3806, 16.47797
704.8627, 8.620178
705.3448, 5.078491
705.8269, 5.408997
706.3090, 15.15332
706.7911, 23.18457
707.2733, 20.62067
707.7554, 12.49219
708.2375, 7.588013
708.7196, 8.565735
709.2017, 11.67267
709.6838, 16.00507
710.1660, 19.13190
710.6481, 12.01007
711.1302, 4.611206
711.6123, 15.75732
712.0944, 15.56641
712.5765, 10.18115
713.0587, 6.610779
713.5408, 4.829468
714.0229, 5.426086
714.5050, 10.76801
714.9871, 15.29388
715.4692, 17.99786
715.9514, 19.69513
716.4335, 21.03864
716.9156, 22.01416
717.3977, 22.23621
717.8798, 21.39532
718.3619, 19.95917
718.8441, 16.49908
719.3262, 13.38318
719.8083, 16.52307
720.2904, 25.38104
720.7725, 31.53192
721.2546, 28.88373
721.7368, 21.69342
722.2189, 21.43219
722.7010, 29.98615
723.1831, 31.60687
723.6652, 20.99915
724.1473, 11.51135
724.6295, 11.55096
725.1116, 17.43683
725.5937, 21.48584
726.0758, 23.20959
726.5579, 24.72443
727.0400, 29.67169
727.5222, 31.20929
728.0043, 20.93335
728.4864, 6.065125
728.9685, 0.1376950
729.4506, 5.084106
729.9327, 10.03937
730.4149, 2.481323
730.8970, 12.07324
731.3791, 20.77313
731.8612, 24.24774
732.3433, 29.45483
732.8254, 39.08191
733.3076, 46.49261
733.7897, 43.39429
734.2718, 31.17938
734.7539, 28.65961
735.2360, 42.31445
735.7181, 54.96838
736.2003, 62.97137
736.6824, 71.08661
737.1645, 82.54272
737.6466, 96.53784
738.1287, 110.4111
738.6108, 123.3559
739.0930, 136.6866
739.5751, 153.7059
740.0572, 169.7477
740.5393, 177.8663
741.0214, 179.6891
741.5035, 181.5918
741.9857, 186.4942
742.4678, 194.0209
742.9499, 203.4579
743.4320, 214.8428
743.9141, 230.3459
744.3962, 251.0366
744.8784, 270.6696
745.3605, 287.0381
745.8426, 301.0055
746.3247, 312.9998
746.8068, 322.6941
747.2889, 336.0291
747.7711, 355.5179
748.2532, 375.1537
748.7353, 395.8444
749.2174, 414.4479
749.6995, 425.1858
750.1816, 430.8121
750.6638, 442.9513
751.1459, 470.3148
751.6280, 498.9485
752.1101, 516.3703
752.5922, 526.7105
753.0743, 533.9992
753.5565, 539.9620
754.0386, 551.1371
754.5207, 571.6915
755.0028, 597.7304
755.4849, 621.4863
755.9670, 642.4499
756.4492, 664.4021
756.9313, 688.8463
757.4134, 711.2120
757.8955, 729.1095
758.3776, 744.2767
758.8597, 759.6118
759.3419, 775.0293
759.8240, 788.9807
760.3061, 799.8152
760.7882, 812.3626
761.2703, 832.4591
761.7524, 851.5851
762.2346, 861.3683
762.7167, 861.1024
763.1988, 853.6912
763.6809, 837.0831
764.1630, 821.4888
764.6451, 823.6986
765.1273, 834.0876
765.6094, 826.2980
766.0915, 798.6997
766.5736, 773.3854
767.0557, 764.6096
767.5378, 763.2198
768.0200, 748.9395
768.5021, 719.5905
768.9842, 686.3323
769.4663, 646.7316
769.9484, 610.4479
770.4305, 582.1156
770.9127, 559.2081
771.3948, 539.9980
771.8769, 525.2280
772.3590, 503.0791
772.8411, 464.0994
773.3232, 427.6338
773.8054, 403.6486
774.2875, 384.3386
774.7696, 361.4658
775.2517, 334.5673
775.7338, 307.4844
776.2159, 281.5090
776.6981, 258.0945
777.1802, 239.2841
777.6623, 223.6154
778.1444, 209.0365
778.6265, 195.1879
779.1086, 180.1929
779.5908, 162.7827
780.0729, 145.0580
780.5550, 131.9747
781.0371, 124.8339
781.5192, 114.3136
782.0013, 97.75671
782.4835, 84.26233
782.9656, 79.74304
783.4477, 77.35645
783.9298, 66.96753
784.4119, 48.31519
784.8940, 34.69214
785.3762, 33.11084
785.8583, 29.52856
786.3404, 16.27759
786.8225, 1.989136
787.3046, 5.870605
787.7867, 7.849976
788.2689, 8.364624
788.7510, 9.990845
789.2331, 9.769043
789.7152, 4.470703
790.1973, 4.127197
790.6794, 16.55676
791.1616, 30.19604
791.6437, 32.67053
792.1258, 18.68152
792.6079, 5.536621
793.0900, 21.07178
793.5721, 60.79968
794.0543, 76.00293
794.5364, 61.40344
795.0185, 56.52832
795.5006, 74.82886
795.9827, 101.9709
796.4648, 125.1901
796.9470, 144.8400
797.4291, 163.7218
797.9112, 180.9056
798.3933, 198.5369
798.8754, 212.7186
799.3575, 231.3237
799.8397, 263.0344
800.3218, 301.1902
800.8039, 331.8239
801.2860, 349.8287
801.7681, 373.1279
802.2502, 416.4675
802.7324, 463.9758
803.2145, 503.0076
803.6966, 534.7811
804.1787, 559.4598
804.6608, 579.2656
805.1429, 607.0055
805.6251, 655.6289
806.1072, 716.3522
806.5893, 773.0649
807.0714, 825.4573
807.5535, 867.2274
808.0356, 896.6980
808.5178, 926.8243
808.9999, 966.2468
809.4820, 1012.464
809.9641, 1058.323
810.4462, 1103.127
810.9283, 1151.055
811.4105, 1205.381
811.8926, 1257.759
812.3747, 1301.037
812.8568, 1343.213
813.3389, 1394.709
813.8210, 1455.434
814.3032, 1511.911
814.7853, 1566.327
815.2674, 1610.661
815.7495, 1634.982
816.2316, 1653.596
816.7137, 1682.040
817.1959, 1716.786
817.6780, 1743.624
818.1601, 1756.418
818.6422, 1760.951
819.1243, 1762.467
819.6064, 1758.834
820.0886, 1744.662
820.5707, 1722.114
821.0528, 1700.163
821.5349, 1681.671
822.0170, 1661.000
822.4991, 1631.585
822.9813, 1594.759
823.4634, 1555.934
823.9455, 1514.841
824.4276, 1471.232
824.9097, 1424.579
825.3918, 1376.881
825.8740, 1328.835
826.3561, 1281.483
826.8382, 1239.537
827.3203, 1208.332
827.8024, 1170.116
828.2845, 1117.926
828.7667, 1067.234
829.2488, 1027.301
829.7309, 989.5989
830.2130, 941.5997
830.6951, 882.6959
831.1772, 832.0027
831.6594, 793.0472
832.1415, 764.4407
832.6236, 756.7517
833.1057, 750.7648
833.5878, 723.1155
834.0699, 678.7167
834.5521, 639.2593
835.0342, 613.9873
835.5163, 598.1243
835.9984, 592.5051
836.4805, 590.4860
836.9626, 580.7957
837.4448, 564.4319
837.9269, 546.0729
838.4090, 527.7144
838.8911, 513.3745
839.3732, 508.2075
839.8553, 509.8042
840.3375, 510.1592
840.8196, 509.3191
841.3017, 502.7255
841.7838, 487.1653
842.2659, 478.4235
842.7480, 489.4491
843.2302, 511.7542
843.7123, 524.4250
844.1944, 526.9119
844.6765, 520.7371
845.1586, 494.3793
845.6407, 476.5043
846.1229, 480.2740
846.6050, 494.5380
847.0871, 513.1295
847.5692, 534.6655
848.0513, 545.4584
848.5334, 529.9583
849.0156, 522.0376
849.4977, 538.8105
849.9798, 559.5161
850.4619, 565.8491
850.9440, 563.8274
851.4261, 568.4714
851.9083, 584.4452
852.3904, 606.3451
852.8725, 634.6917
853.3546, 663.2544
853.8367, 684.9255
854.3188, 702.6868
854.8010, 721.2524
855.2831, 742.1370
855.7652, 767.3464
856.2473, 798.4127
856.7294, 834.1245
857.2115, 872.9648
857.6937, 914.9139
858.1758, 958.1329
858.6579, 1002.851
859.1400, 1059.066
859.6221, 1132.447
860.1042, 1212.539
860.5864, 1285.213
861.0685, 1350.528
861.5506, 1418.708
862.0327, 1490.939
862.5148, 1562.294
862.9969, 1628.615
863.4791, 1699.898
863.9612, 1783.179
864.4433, 1878.207
864.9254, 1983.659
865.4075, 2109.177
865.8896, 2225.282
866.3718, 2320.848
866.8539, 2421.580
867.3360, 2539.953
867.8181, 2666.389
868.3002, 2789.175
868.7823, 2907.870
869.2645, 3029.416
869.7466, 3157.230
870.2287, 3285.152
870.7108, 3417.802
871.1929, 3543.253
871.6750, 3646.084
872.1572, 3733.350
872.6393, 3826.671
873.1214, 3934.381
873.6035, 4023.131
874.0856, 4056.904
874.5677, 4069.563
875.0499, 4107.503
875.5320, 4151.920
876.0141, 4160.257
876.4962, 4126.797
876.9783, 4074.975
877.4604, 4019.891
877.9426, 3958.076
878.4247, 3890.923
878.9068, 3812.607
879.3889, 3692.638
879.8710, 3533.126
880.3531, 3378.354
880.8353, 3247.438
881.3174, 3125.071
881.7995, 2994.986
882.2816, 2856.983
882.7637, 2704.914
883.2458, 2534.896
883.7280, 2384.723
884.2101, 2263.826
884.6922, 2156.276
885.1743, 2057.905
885.6564, 1961.389
886.1385, 1848.534
886.6207, 1714.340
887.1028, 1587.667
887.5849, 1463.372
888.0670, 1355.753
888.5491, 1277.916
889.0313, 1210.311
889.5134, 1135.037
889.9955, 1054.929
890.4776, 982.2505
890.9597, 919.8162
891.4418, 862.1901
891.9240, 810.4513
892.4061, 760.6677
892.8882, 712.1093
893.3703, 663.6464
893.8524, 610.6422
894.3345, 553.4071
894.8167, 506.8480
895.2988, 487.4509
895.7809, 468.5641
896.2630, 429.3123
896.7451, 387.0504
897.2272, 362.2577
897.7094, 350.8597
898.1915, 338.5803
898.6736, 320.2552
899.1557, 295.9492
899.6378, 260.7023
900.1199, 223.8016
900.6021, 198.4271
901.0842, 179.8042
901.5663, 156.4559
902.0484, 127.5342
902.5305, 101.1827
903.0126, 82.65271
903.4948, 68.33191
903.9769, 50.10658
904.4590, 49.25355
904.9411, 47.04375
905.4232, 43.56037
905.9053, 34.44650
906.3875, 33.01770
906.8696, 28.76333
907.3517, 24.56726
907.8338, 24.73940
908.3159, 17.37660
908.7980, 17.84514
909.2802, 15.44029
909.7623, 14.61491
910.2444, 10.94471
910.7265, 8.390182
911.2086, 9.044190
911.6907, 8.203387
912.1729, 4.909074
912.6550, 5.259934
913.1371, -0.3961082
913.6192, -0.4407811
914.1013, 2.038703
914.5834, -0.1968535
915.0656, 1.115384
915.5477, 1.326740
916.0298, -4.107883
916.5119, 0.7728051
916.9940, 1.452062
917.4761, -2.187564
917.9583, 2.889765
918.4404, 0.2330863
918.9225, 0.5826930
919.4046, 3.239804
919.8867, 3.861716
920.3688, 8.159105
920.8510, 9.271932
921.3331, 10.26478
921.8152, 12.75119
922.2973, 11.69956
922.7794, 17.72965
923.2615, 19.22700
923.7437, 23.24970
924.2258, 27.98400
924.7079, 28.83265
925.1900, 34.16802
925.6721, 33.00845
926.1542, 37.61582
926.6364, 41.80439
927.1185, 49.74378
927.6006, 49.34115
928.0827, 54.51873
928.5648, 62.17613
929.0469, 71.17273
929.5291, 77.39563
930.0112, 82.28125
930.4933, 86.61621
930.9754, 91.16003
931.4575, 98.05548
931.9396, 105.9182
932.4218, 109.6614
932.9039, 107.5908
933.3860, 107.4431
933.8681, 118.4819
934.3502, 133.0841
934.8323, 141.3172
935.3145, 145.5669
935.7966, 151.8240
936.2787, 159.7476
936.7608, 162.0987
937.2429, 154.6132
937.7250, 147.1729
938.2072, 155.5157
938.6893, 171.3657
939.1714, 174.3747
939.6535, 167.3115
940.1356, 164.3078
940.6177, 167.5759
941.0999, 163.8274
941.5820, 142.2349
942.0641, 116.0324
942.5462, 112.1808
943.0283, 125.5223
943.5104, 128.3911
943.9926, 120.4760
944.4747, 114.0616
944.9568, 113.0327
945.4389, 109.3995
945.9210, 94.76746
946.4031, 75.19415
946.8853, 70.21912
947.3674, 79.70612
947.8495, 77.41241
948.3316, 60.43951
948.8137, 46.64813
949.2958, 43.54773
949.7780, 42.91522
950.2601, 35.18439
950.7422, 22.31683
951.2243, 15.72058
951.7064, 17.03485
952.1885, 12.97345
952.6707, 1.0990000E-03
953.1528, 9.336853
953.6349, 8.562988
954.1170, 2.651489
954.5991, 1.498047
955.0812, 4.152405
955.5634, 11.76074
956.0455, 26.89093
956.5276, 38.96466
957.0097, 46.04852
957.4918, 51.22052
957.9739, 54.67438
958.4561, 58.88971
958.9382, 69.03247
959.4203, 86.00220
959.9024, 95.56885
960.3845, 91.18274
960.8666, 92.60242
961.3488, 104.9117
961.8309, 120.7718
962.3130, 138.8423
962.7951, 155.8258
963.2772, 163.8726
963.7593, 159.9108
964.2415, 163.5014
964.7236, 181.1092
965.2057, 196.7862
965.6878, 207.5502
966.1699, 215.9291
966.6520, 224.5648
967.1342, 231.5655
967.6163, 230.5148
968.0984, 216.1448
968.5805, 215.6761
969.0626, 246.0613
969.5447, 269.3065
970.0269, 269.9110
970.5090, 265.0873
970.9911, 267.2965
971.4732, 274.9543
971.9553, 282.3326
972.4374, 288.1829
972.9196, 296.1971
973.4017, 311.3740
973.8838, 323.1153
974.3659, 328.1000
974.8480, 327.6176
975.3301, 316.4049
975.8123, 301.1367
976.2944, 303.1718
976.7765, 332.6406
977.2586, 355.8521
977.7407, 363.6802
978.2228, 365.4468
978.7050, 360.9841
979.1871, 356.2814
979.6692, 358.6789
980.1513, 365.7985
980.6334, 367.8033
981.1155, 360.5612
981.5977, 354.7454
982.0798, 352.8847
982.5619, 353.9410
983.0440, 359.2507
983.5261, 364.9989
984.0082, 365.7911
984.4904, 363.4581
984.9725, 365.8956
985.4546, 378.4482
985.9367, 384.3083
986.4188, 371.4221
986.9009, 357.7235
987.3831, 349.4434
987.8652, 347.9768
988.3473, 360.9293
988.8294, 382.9559
989.3115, 391.4740
989.7936, 373.6368
990.2758, 359.9961
990.7579, 368.7260
991.2400, 379.4207
991.7221, 377.3975
992.2042, 370.9588
992.6863, 372.4821
993.1685, 380.6459
993.6506, 382.8608
994.1327, 371.6022
994.6148, 363.8069
995.0969, 373.0763
995.5790, 382.0046
996.0612, 375.5288
996.5433, 363.5078
997.0254, 359.0302
997.5075, 362.1649
997.9896, 365.3294
998.4717, 366.8509
998.9539, 365.4296
999.4360, 361.5075
999.9181, 353.2691
1000.400, 333.6827
1000.882, 312.8320
1001.364, 306.0416
1001.847, 310.9863
1002.329, 310.9354
1002.811, 298.9660
1003.293, 285.0952
1003.775, 274.0197
1004.257, 262.6484
1004.739, 248.2666
1005.221, 232.8825
1005.703, 219.1139
1006.186, 206.9733
1006.668, 194.9601
1007.150, 183.6690
1007.632, 170.0916
1008.114, 148.9340
1008.596, 128.7191
1009.078, 115.0797
1009.560, 106.3129
1010.043, 101.7806
1010.525, 98.80011
1011.007, 90.66486
1011.489, 73.86295
1011.971, 60.18591
1012.453, 54.18439
1012.935, 52.68457
1013.417, 56.79547
1013.899, 62.95374
1014.382, 68.50000
1014.864, 71.75940
1015.346, 68.18854
1015.828, 53.19507
1016.310, 45.88660
1016.792, 61.38873
1017.274, 77.40692
1017.756, 81.01706
1018.239, 79.51526
1018.721, 78.46271
1019.203, 79.59796
1019.685, 86.23526
1020.167, 101.0087
1020.649, 111.4623
1021.131, 110.5177
1021.613, 108.2193
1022.095, 109.8925
1022.578, 111.7591
1023.060, 107.8354
1023.542, 101.5292
1024.024, 103.0918
1024.506, 116.2303
1024.988, 125.0569
1025.470, 124.2682
1025.952, 120.0912
1026.435, 113.9474
1026.917, 106.0391
1027.399, 94.12790
1027.881, 81.31766
1028.363, 74.96973
1028.845, 77.20001
1029.327, 75.59747
1029.809, 65.94406
1030.292, 54.98117
1030.774, 42.29117
1031.256, 31.04541
1031.738, 23.91858
1032.220, 19.42416
1032.702, 14.89789
1033.184, 10.11212
1033.666, 6.205048
1034.148, 3.270416
1034.630, 1.298340
1035.113, 1.047882
1035.595, 0.9074710
1036.077, 0.7621770
1036.559, 2.476624
1037.041, 1.523651
1037.523, 2.231415
1038.005, 4.604401
1038.487, 5.955719
1038.970, 5.238190
1039.452, 0.5019530
1039.934, 4.516083
1040.416, 1.718353
1040.898, 2.485138
1041.380, 0.5929260
1041.862, 6.516541
1042.344, 8.761108
1042.826, 1.697052
1043.309, 5.8104999E-02
1043.791, 8.799408
1044.273, 13.78983
1044.755, 7.645203
1045.237, 1.826477
1045.719, 7.369781
1046.201, 9.330200
1046.683, 8.901337
1047.166, 4.314331
1047.648, 3.985718
1048.130, 10.57932
1048.612, 13.35489
1049.094, 7.913605
1049.576, 0.6145020
1050.058, 3.565186
1050.540, 5.095551
1051.022, 4.775330
1051.505, 2.199127
1051.987, 2.407990
1052.469, 6.259399
1052.951, 7.239807
1053.433, 3.508698
1053.915, 1.879120
1054.397, 7.339569
1054.879, 11.77725
1055.361, 12.82034
1055.844, 10.81842
1056.326, 10.13760
1056.808, 10.75845
1057.290, 10.12527
1057.772, 7.775635
1058.254, 6.906616
1058.736, 9.362091
1059.218, 12.00513
1059.701, 9.855957
1060.183, 5.263397
1060.665, 8.225098
1061.147, 16.48868
1061.629, 15.14346
1062.111, 4.375793
1062.593, 0.4264830
1063.075, 9.374908
1063.557, 21.72681
1064.040, 29.74509
1064.522, 32.48920
1065.004, 23.53479
1065.486, 9.563293
1065.968, 9.334106
1066.450, 19.69992
1066.932, 24.60648
1067.414, 20.43372
1067.896, 16.27264
1068.379, 18.81403
1068.861, 22.01123
1069.343, 15.93271
1069.825, 8.624146
1070.307, 13.82178
1070.789, 25.60327
1071.271, 30.80963
1071.753, 28.80023
1072.236, 28.27844
1072.718, 33.46082
1073.200, 38.50052
1073.682, 39.54010
1074.164, 38.25742
1074.646, 35.10443
1075.128, 31.18567
1075.610, 27.21942
1076.093, 23.73477
1076.575, 21.09930
1077.057, 19.32806
1077.539, 20.81235
1078.021, 30.67868
1078.503, 38.62582
1078.985, 38.98160
1079.467, 36.62732
1079.949, 33.87848
1080.432, 31.80649
1080.914, 31.72659
1081.396, 33.72760
1081.878, 36.42310
1082.360, 41.95541
1082.842, 44.51031
1083.324, 39.08725
1083.806, 35.44736
1084.288, 40.32166
1084.771, 47.43094
1085.253, 49.34409
1085.735, 47.32675
1086.217, 47.87109
1086.699, 52.70187
1087.181, 55.58673
1087.663, 56.92404
1088.145, 55.05099
1088.628, 46.86707
1089.110, 40.33154
1089.592, 42.38998
1090.074, 48.84595
1090.556, 50.49338
1091.038, 47.13742
1091.520, 43.78760
1092.002, 40.15732
1092.484, 38.56979
1092.967, 39.46771
1093.449, 42.73758
1093.931, 48.77051
1094.413, 54.43018
1094.895, 55.77689
1095.377, 53.97385
1095.859, 51.69476
1096.341, 49.53473
1096.823, 54.66785
1097.306, 66.20715
1097.788, 70.35587
1098.270, 63.61560
1098.752, 57.49240
1099.234, 61.46735
1099.716, 68.50900
1100.198, 68.48181
1100.680, 64.91153
1101.163, 62.58051
1101.645, 61.19016
1102.127, 61.01596
1102.609, 62.59363
1103.091, 65.58801
1103.573, 69.48334
1104.055, 73.29758
1104.537, 76.95325
1105.020, 79.31027
1105.502, 77.28287
1105.984, 75.26907
1106.466, 80.61310
1106.948, 89.62219
1107.430, 92.94327
1107.912, 88.75705
1108.394, 83.58603
1108.876, 78.47095
1109.359, 75.63879
1109.841, 75.96423
1110.323, 78.23560
1110.805, 84.46600
1111.287, 91.00259
1111.769, 92.27261
1112.251, 89.26181
1112.733, 88.08221
1113.215, 89.11597
1113.698, 91.94003
1114.180, 101.7410
1114.662, 104.7972
1115.144, 91.72455
1115.626, 80.19308
1116.108, 83.75235
1116.590, 94.94733
1117.072, 99.78320
1117.555, 98.18182
1118.037, 97.67554
1118.519, 98.21457
1119.001, 100.9915
1119.483, 107.5500
1119.965, 109.2249
1120.447, 101.7469
1120.929, 94.88605
1121.411, 100.0651
1121.894, 111.6024
1122.376, 114.0744
1122.858, 109.4089
1123.340, 105.2491
1123.822, 102.5160
1124.304, 103.4334
1124.786, 107.5840
1125.268, 108.6403
1125.750, 102.9580
1126.233, 94.68533
1126.715, 86.29941
1127.197, 79.91641
1127.679, 80.07275
1128.161, 83.47742
1128.643, 85.61804
1129.125, 85.75952
1129.607, 83.35834
1130.090, 78.68137
1130.572, 75.37845
1131.054, 76.53494
1131.536, 77.19064
1132.018, 74.03931
1132.500, 70.29239
1132.982, 66.80933
1133.464, 64.95248
1133.947, 68.92096
1134.429, 75.97281
1134.911, 74.23615
1135.393, 57.58533
1135.875, 48.52042
1136.357, 55.77167
1136.839, 60.26886
1137.321, 55.75327
1137.803, 52.44897
1138.286, 57.94177
1138.768, 65.67245
1139.250, 64.80658
1139.732, 56.96771
1140.214, 59.54196
1140.696, 75.30124
1141.178, 77.97797
1141.660, 64.41849
1142.142, 55.01343
1142.625, 56.48898
1143.107, 60.18982
1143.589, 59.61838
1144.071, 56.21442
1144.553, 51.03516
1145.035, 45.52420
1145.517, 45.68698
1145.999, 49.14087
1146.482, 47.85770
1146.964, 41.91147
1147.446, 36.17786
1147.928, 32.67532
1148.410, 32.00784
1148.892, 36.69284
1149.374, 41.01651
1149.856, 39.01907
1150.339, 34.47397
1150.821, 29.77542
1151.303, 26.19809
1151.785, 24.74957
1152.267, 25.49918
1152.749, 28.81900
1153.231, 36.63147
1153.713, 39.59607
1154.195, 29.24142
1154.677, 22.61432
1155.160, 27.78784
1155.642, 35.04779
1156.124, 40.88770
1156.606, 43.07559
1157.088, 36.11942
1157.570, 21.47061
1158.052, 17.51947
1158.534, 28.19913
1159.017, 30.86475
1159.499, 23.03452
1159.981, 15.18054
1160.463, 10.23114
1160.945, 7.697144
1161.427, 7.557922
1161.909, 7.634552
1162.391, 2.806702
1162.874, 4.292267
1163.356, 4.534729
1163.838, 0.5527340
1164.320, 8.148651
1164.802, 16.18030
1165.284, 18.20963
1165.766, 12.92404
1166.248, 8.170776
1166.730, 9.516785
1167.213, 12.21002
1167.695, 14.23520
1168.177, 13.88965
1168.659, 7.075928
1169.141, 1.149445
1169.623, 5.380737
1170.105, 5.268585
1170.587, 0.7708740
1171.069, 9.163025
1171.552, 14.56052
1172.034, 10.52194
1172.516, 6.801910
1172.998, 4.537872
1173.480, 3.446594
1173.962, 4.598755
1174.444, 5.014404
1174.926, 0.3138730
1175.409, 6.639496
1175.891, 11.58945
1176.373, 2.499603
1176.855, 10.71078
1177.337, 13.36234
1177.819, 6.219055
1178.301, 2.936737
1178.783, 0.5137630
1179.266, 2.379333
1179.748, 10.75107
1180.230, 5.645111
1180.712, 7.236053
1181.194, 8.433197
1181.676, 9.930908
1182.158, 15.33386
1182.640, 17.53741
1183.122, 13.53558
1183.604, 4.988892
1184.087, 0.8613890
1184.569, 1.380554
1185.051, 1.053223
1185.533, 8.218384
1186.015, 14.18982
1186.497, 16.22903
1186.979, 16.49240
1187.461, 15.38986
1187.944, 14.18027
1188.426, 15.61584
1188.908, 18.66919
1189.390, 16.37628
1189.872, 5.392639
1190.354, 1.235504
1190.836, 5.169403
1191.318, 11.20453
1191.801, 18.87860
1192.283, 21.57599
1192.765, 14.71417
1193.247, 7.835327
1193.729, 14.50650
1194.211, 27.48373
1194.693, 27.62851
1195.175, 20.24030
1195.657, 13.56238
1196.140, 7.254852
1196.622, 20.91727
1197.104, 28.69879
1197.586, 30.91556
1198.068, 10.89212
1198.550, 19.59372
1199.032, 16.78745
1199.514, 13.30194
1199.996, 14.43701
1200.479, 12.51196
1200.961, 8.001404
1201.443, 3.502472
1201.925, 2.990326
1202.407, 6.166473
1202.889, 8.687378
1203.371, 11.10953
1203.853, 12.95370
1204.336, 14.02097
1204.818, 13.74051
1205.300, 11.97632
1205.782, 8.069366
1206.264, 1.494324
1206.746, 3.615417
1207.228, 5.562714
1207.710, 3.478119
1208.193, 5.169586
1208.675, 17.35419
1209.157, 21.43008
1209.639, 19.05032
1210.121, 15.62701
1210.603, 12.62714
1211.085, 10.49103
1211.567, 9.232574
1212.049, 8.656952
1212.531, 10.12097
1213.014, 10.21515
1213.496, 4.464966
1213.978, 0.3305050
1214.460, 0.2671200
1214.942, 4.773804
1215.424, 13.45325
1215.906, 24.03558
1216.388, 28.69003
1216.871, 26.44220
1217.353, 24.07748
1217.835, 21.59500
1218.317, 18.90936
1218.799, 15.89755
1219.281, 12.93384
1219.763, 9.996033
1220.245, 10.26767
1220.728, 17.73654
1221.210, 25.73038
1221.692, 18.25830
1222.174, 5.182007
1222.656, 0.4315800
1223.138, 1.300018
1223.620, 4.245361
1224.102, 7.673340
1224.584, 8.972992
1225.067, 7.575226
1225.549, 7.713318
1226.031, 13.00244
1226.513, 16.14725
1226.995, 12.99258
1227.477, 9.455811
1227.959, 7.354034
1228.441, 6.738953
1228.923, 8.683289
1229.406, 11.17743
1229.888, 10.13754
1230.370, 6.094421
1230.852, 5.683685
1231.334, 9.189575
1231.816, 7.715607
1232.298, 1.160431
1232.780, 0.1631160
1233.263, 6.859131
1233.745, 12.64941
1234.227, 12.72195
1234.709, 9.738800
1235.191, 3.508911
1235.673, 0.0000000E+00
##END=



