##NAMES=Grossular
##RRUFFID=R060453
##IDEAL CHEMISTRY=Ca_3_Al_2_(SiO_4_)_3_
##LOCALITY=unknown
##OWNER=RRUFF
##SOURCE=Gemological Institute of America
##DESCRIPTION=Green colored fragment
##STATUS=The identification of this mineral has been confirmed by X-ray diffraction and chemical analysis
##URL=rruff.info/R060453
##MEASURED CHEMISTRY=(Ca_2.91_Mg_0.05_Mn_0.04_)_Σ=3_(Al_1.96_Ti_0.02_[box]_0.02_)_Σ=2_(Si_1.00_O_4_)_3_; trace amounts of Fe and Cr
175.9807, 0.0000000E+00
176.4628, 0.3647460
176.9449, 11.60889
177.4271, 28.64392
177.9092, 38.37311
178.3913, 46.29291
178.8734, 61.37598
179.3555, 93.73572
179.8376, 134.5428
180.3197, 165.4397
180.8019, 191.1615
181.2840, 197.9694
181.7661, 174.8676
182.2482, 145.6649
182.7303, 131.7965
183.2124, 99.26300
183.6946, 74.23523
184.1767, 60.88354
184.6588, 65.25934
185.1409, 70.35895
185.6230, 74.61267
186.1051, 75.38232
186.5873, 71.87927
187.0694, 63.83795
187.5515, 51.68054
188.0336, 33.75806
188.5157, 1.730896
188.9978, 20.03467
189.4800, 1.756104
189.9621, 31.56976
190.4442, 58.71338
190.9263, 57.99841
191.4084, 49.47900
191.8905, 57.24182
192.3727, 87.80243
192.8548, 103.5786
193.3369, 88.50140
193.8190, 61.77765
194.3011, 44.09833
194.7832, 49.58643
195.2654, 52.89343
195.7475, 53.20673
196.2296, 51.72369
196.7117, 51.90021
197.1938, 55.90393
197.6759, 60.54962
198.1581, 63.68085
198.6402, 64.51190
199.1223, 62.47510
199.6044, 55.51184
200.0865, 38.26788
200.5686, 27.04932
201.0508, 23.89124
201.5329, 25.61951
202.0150, 33.23431
202.4971, 46.02313
202.9792, 56.66199
203.4613, 50.13721
203.9435, 10.01514
204.4256, 9.599609
204.9077, 12.53748
205.3898, 39.74365
205.8719, 43.62756
206.3540, 20.20898
206.8362, 10.35596
207.3183, 19.10315
207.8004, 5.469604
208.2825, 23.01831
208.7646, 30.59216
209.2467, 34.17822
209.7289, 37.09497
210.2110, 39.66382
210.6931, 40.10168
211.1752, 36.35205
211.6573, 28.12122
212.1395, 16.36169
212.6216, 10.67175
213.1037, 31.10962
213.5858, 29.64868
214.0679, 9.225464
214.5500, 14.16577
215.0322, 23.54651
215.5143, 15.40564
215.9964, 16.55322
216.4785, 39.45984
216.9606, 60.00732
217.4427, 68.04419
217.9249, 65.43835
218.4070, 59.90430
218.8891, 57.39233
219.3712, 57.91956
219.8533, 60.39197
220.3354, 65.48840
220.8176, 72.01489
221.2997, 77.48792
221.7818, 84.24487
222.2639, 98.65906
222.7460, 127.6619
223.2281, 168.3640
223.7103, 186.3390
224.1924, 143.5210
224.6745, 119.2716
225.1566, 145.8645
225.6387, 198.2145
226.1208, 236.3181
226.6030, 235.0554
227.0851, 206.8234
227.5672, 204.8860
228.0493, 257.6359
228.5314, 299.4163
229.0135, 316.6862
229.4957, 320.1692
229.9778, 317.8651
230.4599, 311.3466
230.9420, 304.9076
231.4241, 306.6438
231.9062, 322.4810
232.3884, 340.0447
232.8705, 365.6858
233.3526, 391.1901
233.8347, 410.1146
234.3168, 418.5880
234.7989, 421.2474
235.2811, 427.0228
235.7632, 436.3171
236.2453, 452.2040
236.7274, 491.4368
237.2095, 525.3986
237.6916, 529.8462
238.1738, 502.4608
238.6559, 465.7181
239.1380, 447.5006
239.6201, 452.6456
240.1022, 458.6549
240.5843, 465.5142
241.0665, 472.4600
241.5486, 478.3817
242.0307, 483.7167
242.5128, 490.4211
242.9949, 501.5083
243.4770, 517.6953
243.9592, 529.7999
244.4413, 536.1594
244.9234, 539.6765
245.4055, 538.4125
245.8876, 534.7449
246.3697, 533.6122
246.8519, 539.9313
247.3340, 554.9211
247.8161, 567.7268
248.2982, 575.9972
248.7803, 583.2432
249.2624, 592.0878
249.7446, 600.7062
250.2267, 605.3500
250.7088, 602.5111
251.1909, 596.0734
251.6730, 598.3788
252.1551, 615.2198
252.6373, 628.8640
253.1194, 627.4209
253.6015, 622.7915
254.0836, 627.4041
254.5657, 645.7375
255.0478, 674.8734
255.5300, 714.6804
256.0121, 770.8226
256.4942, 815.4961
256.9763, 827.6799
257.4584, 832.6263
257.9406, 848.5918
258.4227, 879.4578
258.9048, 916.5876
259.3869, 955.8098
259.8690, 997.8928
260.3511, 1025.559
260.8333, 1025.804
261.3154, 1018.626
261.7975, 1019.088
262.2796, 1026.529
262.7617, 1033.219
263.2438, 1032.245
263.7260, 1023.773
264.2081, 1009.274
264.6902, 985.8436
265.1723, 958.5173
265.6544, 936.4888
266.1365, 915.3776
266.6187, 883.8854
267.1008, 830.1599
267.5829, 763.6946
268.0650, 703.8063
268.5471, 651.3562
269.0292, 604.3895
269.5114, 567.0880
269.9935, 534.2500
270.4756, 495.0570
270.9577, 439.5835
271.4398, 383.5574
271.9219, 347.3694
272.4041, 331.0225
272.8862, 312.4462
273.3683, 276.7162
273.8504, 234.3608
274.3325, 205.8657
274.8146, 197.3625
275.2968, 193.2711
275.7789, 181.9994
276.2610, 165.9641
276.7431, 156.3738
277.2252, 160.3477
277.7073, 168.1807
278.1895, 162.9933
278.6716, 143.0511
279.1537, 122.0947
279.6358, 103.9906
280.1179, 88.31628
280.6000, 76.27112
281.0822, 69.02283
281.5643, 59.43481
282.0464, 35.02673
282.5285, 6.274048
283.0106, 34.30176
283.4927, 37.51367
283.9749, 31.16223
284.4570, 28.32043
284.9391, 30.12048
285.4212, 31.71436
285.9033, 28.61267
286.3854, 21.01404
286.8676, 17.54346
287.3497, 29.95154
287.8318, 34.84448
288.3139, 10.03760
288.7960, 32.66333
289.2781, 60.85071
289.7603, 55.52515
290.2424, 23.97388
290.7245, 3.704468
291.2066, 38.92126
291.6887, 56.82849
292.1708, 43.21545
292.6530, 13.90710
293.1351, 14.45471
293.6172, 35.74133
294.0993, 48.27808
294.5814, 47.33093
295.0635, 13.82312
295.5457, 4.210815
296.0278, 41.27209
296.5099, 83.96313
296.9920, 97.86731
297.4741, 82.91260
297.9562, 67.26807
298.4384, 81.69836
298.9205, 131.9768
299.4026, 172.7484
299.8847, 202.6873
300.3668, 224.8164
300.8489, 236.1379
301.3310, 240.4739
301.8131, 244.3302
302.2953, 251.4601
302.7774, 262.1584
303.2595, 278.8125
303.7416, 310.2957
304.2237, 334.3030
304.7058, 341.9360
305.1880, 342.5042
305.6701, 345.8589
306.1522, 355.6731
306.6343, 368.7476
307.1164, 378.0209
307.5985, 379.6846
308.0807, 391.6814
308.5628, 426.4603
309.0449, 466.3356
309.5270, 502.7256
310.0091, 534.3245
310.4912, 561.2245
310.9734, 579.1265
311.4555, 589.6841
311.9376, 612.1580
312.4197, 655.1074
312.9018, 699.7842
313.3839, 735.2573
313.8661, 763.3834
314.3482, 788.1421
314.8303, 805.8608
315.3124, 823.7229
315.7945, 857.9003
316.2766, 911.6901
316.7588, 962.0040
317.2409, 991.4790
317.7230, 1010.758
318.2051, 1037.254
318.6872, 1074.092
319.1693, 1116.143
319.6515, 1160.999
320.1336, 1208.035
320.6157, 1257.198
321.0978, 1311.994
321.5799, 1362.693
322.0620, 1388.145
322.5442, 1382.424
323.0263, 1391.527
323.5084, 1438.664
323.9905, 1503.581
324.4726, 1556.642
324.9547, 1593.213
325.4369, 1636.333
325.9190, 1712.857
326.4011, 1828.992
326.8832, 1922.865
327.3653, 1974.406
327.8474, 2021.250
328.3296, 2084.492
328.8117, 2160.537
329.2938, 2233.998
329.7759, 2294.877
330.2580, 2349.109
330.7401, 2421.271
331.2223, 2532.714
331.7044, 2635.692
332.1865, 2717.302
332.6686, 2790.988
333.1507, 2872.571
333.6328, 2966.542
334.1150, 3064.272
334.5971, 3148.994
335.0792, 3204.533
335.5613, 3291.659
336.0434, 3428.712
336.5255, 3576.796
337.0077, 3721.551
337.4898, 3859.547
337.9719, 3990.261
338.4540, 4110.569
338.9361, 4222.273
339.4182, 4342.136
339.9004, 4474.403
340.3825, 4607.671
340.8646, 4737.330
341.3467, 4866.540
341.8288, 4999.569
342.3109, 5139.216
342.7931, 5277.724
343.2752, 5402.748
343.7573, 5513.087
344.2394, 5621.542
344.7215, 5725.479
345.2036, 5832.791
345.6858, 5955.172
346.1679, 6093.981
346.6500, 6227.899
347.1321, 6351.954
347.6142, 6460.889
348.0963, 6538.787
348.5785, 6580.556
349.0606, 6600.667
349.5427, 6614.801
350.0248, 6619.648
350.5069, 6596.448
350.9890, 6538.998
351.4712, 6452.041
351.9533, 6327.825
352.4354, 6172.751
352.9175, 6025.202
353.3996, 5913.854
353.8817, 5808.971
354.3639, 5622.500
354.8460, 5323.824
355.3281, 5030.413
355.8102, 4774.918
356.2923, 4535.576
356.7744, 4289.610
357.2566, 4031.260
357.7387, 3772.695
358.2208, 3526.007
358.7029, 3289.802
359.1850, 3073.550
359.6671, 2875.780
360.1493, 2696.667
360.6314, 2543.843
361.1135, 2409.478
361.5956, 2277.206
362.0777, 2135.956
362.5598, 1992.024
363.0420, 1867.036
363.5241, 1762.353
364.0062, 1677.074
364.4883, 1614.151
364.9704, 1565.960
365.4525, 1530.290
365.9347, 1505.177
366.4168, 1481.495
366.8989, 1446.707
367.3810, 1399.293
367.8631, 1362.694
368.3452, 1346.984
368.8274, 1331.279
369.3095, 1302.501
369.7916, 1265.398
370.2737, 1231.494
370.7558, 1204.654
371.2379, 1185.278
371.7201, 1179.717
372.2022, 1190.612
372.6843, 1189.540
373.1664, 1158.068
373.6485, 1111.116
374.1306, 1073.875
374.6128, 1051.433
375.0949, 1023.056
375.5770, 980.7205
376.0591, 924.6549
376.5412, 848.7175
377.0233, 748.6729
377.5055, 652.8633
377.9876, 597.6670
378.4697, 589.0748
378.9518, 543.5380
379.4339, 417.6161
379.9160, 292.8667
380.3982, 220.2151
380.8803, 189.9275
381.3624, 171.6115
381.8445, 150.2050
382.3266, 124.4799
382.8087, 89.87097
383.2909, 30.36841
383.7730, 16.47437
384.2551, 49.60693
384.7372, 70.17456
385.2193, 75.65295
385.7014, 67.69128
386.1836, 54.90735
386.6657, 45.36633
387.1478, 39.06421
387.6299, 36.96594
388.1120, 44.55835
388.5941, 50.02295
389.0763, 52.48022
389.5584, 49.72168
390.0405, 36.96118
390.5226, 9.830444
391.0047, 21.61462
391.4868, 41.56995
391.9690, 49.05408
392.4511, 53.35364
392.9332, 53.86194
393.4153, 54.71118
393.8974, 58.05713
394.3795, 64.07324
394.8617, 76.71008
395.3438, 105.0247
395.8259, 138.7434
396.3080, 158.7838
396.7901, 162.7625
397.2722, 165.6257
397.7544, 176.9271
398.2365, 196.0184
398.7186, 217.1588
399.2007, 246.2043
399.6828, 270.5291
400.1649, 278.4519
400.6471, 279.9640
401.1292, 293.8375
401.6113, 326.4235
402.0934, 365.4705
402.5755, 393.2393
403.0576, 405.8287
403.5398, 417.9084
404.0219, 424.7488
404.5040, 435.5962
404.9861, 461.7686
405.4682, 496.1799
405.9503, 520.1206
406.4325, 520.1799
406.9146, 504.6958
407.3967, 503.7253
407.8788, 524.2749
408.3609, 545.2513
408.8430, 566.1261
409.3252, 584.2496
409.8073, 596.1166
410.2894, 601.6954
410.7715, 606.2791
411.2536, 614.0845
411.7357, 624.4636
412.2179, 632.2570
412.7000, 633.3123
413.1821, 642.2915
413.6642, 679.4073
414.1463, 731.6509
414.6284, 770.3273
415.1106, 784.1375
415.5927, 787.2876
416.0748, 785.8783
416.5569, 781.6057
417.0390, 782.5237
417.5211, 793.4666
418.0033, 801.1980
418.4854, 782.1433
418.9675, 722.4410
419.4496, 681.4290
419.9317, 682.1763
420.4138, 685.9800
420.8960, 655.8345
421.3781, 603.2788
421.8602, 572.7334
422.3423, 595.6069
422.8244, 656.6786
423.3065, 689.5518
423.7887, 674.3557
424.2708, 660.7926
424.7529, 653.1171
425.2350, 649.6112
425.7171, 647.5680
426.1992, 647.2546
426.6814, 653.0112
427.1635, 673.6930
427.6456, 707.3752
428.1277, 728.0415
428.6098, 730.6346
429.0919, 729.7289
429.5741, 727.7722
430.0562, 728.5394
430.5383, 738.4990
431.0204, 760.3303
431.5025, 789.1218
431.9846, 829.3782
432.4668, 874.6970
432.9489, 897.4575
433.4310, 885.1978
433.9131, 867.4517
434.3952, 883.8142
434.8773, 939.3167
435.3595, 972.6875
435.8416, 961.6659
436.3237, 944.6575
436.8058, 943.4556
437.2879, 955.7319
437.7701, 974.7732
438.2522, 998.2598
438.7343, 1018.922
439.2164, 1017.115
439.6985, 976.5903
440.1806, 941.9257
440.6628, 908.8542
441.1449, 884.8652
441.6270, 881.4160
442.1091, 892.0039
442.5912, 892.7207
443.0733, 861.2881
443.5555, 809.0183
444.0376, 779.3594
444.5197, 780.8553
445.0018, 780.1401
445.4839, 765.8877
445.9660, 741.2250
446.4482, 706.0552
446.9303, 658.9335
447.4124, 615.4253
447.8945, 588.3542
448.3766, 572.3705
448.8587, 554.6697
449.3409, 532.1807
449.8230, 508.9641
450.3051, 488.1897
450.7872, 469.5923
451.2693, 450.4352
451.7514, 429.2722
452.2336, 409.2815
452.7157, 394.0793
453.1978, 379.8004
453.6799, 360.9058
454.1620, 335.8961
454.6441, 307.5897
455.1263, 278.9419
455.6084, 249.1638
456.0905, 223.7188
456.5726, 200.7771
457.0547, 184.7263
457.5368, 186.5845
458.0190, 194.0195
458.5011, 185.4154
458.9832, 149.3710
459.4653, 105.2598
459.9474, 78.74048
460.4295, 70.01306
460.9117, 73.72107
461.3938, 98.45020
461.8759, 122.2976
462.3580, 124.7871
462.8401, 109.0991
463.3222, 90.25269
463.8044, 69.37097
464.2865, 49.24963
464.7686, 32.37219
465.2507, 18.49255
465.7328, 6.554810
466.2149, 3.787964
466.6971, 12.82788
467.1792, 21.18237
467.6613, 30.66602
468.1434, 35.11670
468.6255, 28.89819
469.1076, 22.63354
469.5898, 21.69482
470.0719, 26.51636
470.5540, 38.76306
471.0361, 62.10522
471.5182, 86.63440
472.0003, 77.91748
472.4825, 16.72217
472.9646, 25.06116
473.4467, 19.12354
473.9288, 2.458740
474.4109, 26.37585
474.8930, 49.46790
475.3752, 62.41638
475.8573, 54.89148
476.3394, 35.82080
476.8215, 18.54626
477.3036, 3.411377
477.7857, 7.322632
478.2679, 11.28247
478.7500, 11.11267
479.2321, 12.94592
479.7142, 16.19141
480.1963, 22.26526
480.6784, 31.84644
481.1606, 44.09827
481.6427, 58.52246
482.1248, 74.95557
482.6069, 94.03528
483.0890, 117.5037
483.5711, 142.7961
484.0533, 154.4773
484.5354, 133.8167
485.0175, 130.9561
485.4996, 166.3816
485.9817, 210.6803
486.4638, 237.9062
486.9460, 246.9478
487.4281, 258.1965
487.9102, 294.9192
488.3923, 345.7969
488.8744, 370.5505
489.3565, 362.5881
489.8387, 365.7059
490.3208, 409.4232
490.8029, 474.5452
491.2850, 519.1774
491.7671, 536.1990
492.2492, 554.0166
492.7314, 580.7089
493.2135, 613.7627
493.6956, 656.4810
494.1777, 705.6489
494.6598, 743.2058
495.1419, 753.2675
495.6241, 741.2189
496.1062, 742.2861
496.5883, 763.1006
497.0704, 788.7091
497.5525, 821.6907
498.0346, 855.9104
498.5168, 883.8392
498.9989, 906.1996
499.4810, 933.2659
499.9631, 982.1230
500.4452, 1042.023
500.9273, 1063.627
501.4095, 1033.981
501.8916, 1022.144
502.3737, 1073.440
502.8558, 1151.357
503.3379, 1194.996
503.8200, 1194.097
504.3022, 1197.404
504.7843, 1228.303
505.2664, 1269.957
505.7485, 1300.022
506.2306, 1318.989
506.7127, 1344.335
507.1949, 1388.511
507.6770, 1447.640
508.1591, 1504.442
508.6412, 1561.256
509.1233, 1612.217
509.6054, 1646.310
510.0876, 1682.930
510.5697, 1742.363
511.0518, 1820.251
511.5339, 1891.203
512.0161, 1934.377
512.4982, 1959.124
512.9803, 1991.164
513.4624, 2031.414
513.9445, 2072.081
514.4266, 2108.617
514.9088, 2146.003
515.3909, 2190.011
515.8730, 2240.751
516.3551, 2296.396
516.8372, 2365.133
517.3193, 2432.209
517.8015, 2485.805
518.2836, 2525.583
518.7657, 2554.740
519.2478, 2574.283
519.7299, 2586.568
520.2120, 2595.166
520.6942, 2582.724
521.1763, 2601.092
521.6584, 2679.506
522.1405, 2757.559
522.6226, 2806.208
523.1047, 2827.566
523.5869, 2832.945
524.0690, 2825.794
524.5511, 2810.374
525.0332, 2796.059
525.5153, 2782.692
525.9974, 2752.684
526.4796, 2693.271
526.9617, 2631.285
527.4438, 2604.120
527.9259, 2605.905
528.4080, 2584.304
528.8901, 2513.607
529.3723, 2434.443
529.8544, 2376.872
530.3365, 2331.896
530.8186, 2271.755
531.3007, 2186.906
531.7828, 2093.010
532.2650, 2012.625
532.7471, 1950.026
533.2292, 1872.020
533.7113, 1766.157
534.1934, 1661.083
534.6755, 1562.990
535.1577, 1471.306
535.6398, 1382.840
536.1219, 1295.704
536.6040, 1216.838
537.0861, 1155.389
537.5682, 1107.595
538.0504, 1065.541
538.5325, 1030.638
539.0146, 984.8937
539.4967, 910.9824
539.9788, 816.2058
540.4609, 738.6151
540.9431, 672.8503
541.4252, 628.1797
541.9073, 624.5520
542.3894, 631.1873
542.8715, 617.2360
543.3536, 581.3131
543.8358, 541.8495
544.3179, 512.5983
544.8000, 492.5027
545.2821, 477.0857
545.7642, 466.4459
546.2463, 460.3306
546.7285, 463.8248
547.2106, 468.1156
547.6926, 467.9048
548.1747, 462.6938
548.6569, 451.0868
549.1390, 435.4636
549.6211, 411.0891
550.1032, 368.4591
550.5853, 311.2151
551.0674, 252.9377
551.5496, 196.7056
552.0317, 151.5425
552.5138, 134.7043
552.9959, 161.2134
553.4780, 164.6893
553.9601, 126.1595
554.4423, 88.34668
554.9244, 71.60547
555.4065, 65.88843
555.8886, 51.31763
556.3707, 20.10608
556.8528, 9.160156
557.3350, 11.04224
557.8171, 11.10815
558.2992, 31.30884
558.7813, 48.85571
559.2634, 58.86938
559.7455, 53.56128
560.2277, 38.61145
560.7098, 32.79663
561.1919, 41.10718
561.6740, 49.99084
562.1561, 52.37585
562.6382, 54.97705
563.1204, 71.07300
563.6025, 97.25452
564.0846, 110.3651
564.5667, 90.53516
565.0488, 49.85217
565.5309, 38.14819
566.0131, 69.81433
566.4952, 94.03845
566.9773, 90.27759
567.4594, 86.14661
567.9415, 104.8851
568.4236, 140.8403
568.9058, 165.2733
569.3879, 154.2432
569.8700, 136.3021
570.3521, 142.3666
570.8342, 166.9094
571.3163, 192.2517
571.7985, 213.5212
572.2806, 228.0311
572.7627, 229.7811
573.2448, 215.4437
573.7269, 220.3210
574.2090, 269.9163
574.6912, 308.9127
575.1733, 309.6183
575.6554, 296.6848
576.1375, 302.6183
576.6196, 334.3246
577.1017, 369.9988
577.5839, 385.7102
578.0660, 386.3844
578.5481, 396.5789
579.0302, 419.8966
579.5123, 444.3735
579.9944, 464.5574
580.4766, 477.7463
580.9587, 481.5100
581.4408, 477.4966
581.9229, 464.6602
582.4050, 420.3051
582.8871, 389.1799
583.3693, 414.9735
583.8514, 472.6560
584.3335, 511.1924
584.8156, 506.8734
585.2977, 480.1996
585.7798, 456.9373
586.2620, 432.9541
586.7441, 427.4541
587.2262, 450.3756
587.7083, 478.0442
588.1904, 503.0364
588.6725, 522.4778
589.1547, 530.1461
589.6368, 522.8484
590.1189, 509.4458
590.6010, 484.5891
591.0831, 461.3069
591.5652, 459.3519
592.0474, 477.6167
592.5295, 501.7609
593.0116, 524.4991
593.4937, 540.2528
593.9758, 526.8405
594.4579, 459.8181
594.9401, 422.6344
595.4222, 448.1046
595.9043, 480.6382
596.3864, 492.9077
596.8685, 490.5397
597.3506, 491.2466
597.8328, 503.0431
598.3149, 516.9039
598.7970, 525.9513
599.2791, 530.8381
599.7612, 531.6644
600.2433, 528.0209
600.7255, 524.9380
601.2076, 526.7473
601.6897, 533.5525
602.1718, 542.1802
602.6539, 557.9792
603.1360, 564.4780
603.6182, 555.9906
604.1003, 542.0792
604.5824, 531.0771
605.0645, 521.6940
605.5466, 505.1025
606.0287, 470.5513
606.5109, 435.9531
606.9930, 433.3445
607.4751, 455.9910
607.9572, 461.7407
608.4393, 439.3110
608.9214, 405.2048
609.4036, 373.6998
609.8857, 345.1041
610.3678, 320.5990
610.8499, 295.8046
611.3320, 279.1992
611.8141, 281.8149
612.2963, 287.9072
612.7784, 281.5576
613.2605, 262.1230
613.7426, 240.0883
614.2247, 218.6893
614.7068, 197.4021
615.1890, 178.5594
615.6711, 162.7158
616.1532, 144.1031
616.6353, 116.9518
617.1174, 94.53296
617.5995, 94.22412
618.0817, 116.4030
618.5638, 134.5476
619.0459, 160.4384
619.5280, 167.5370
620.0101, 128.1849
620.4922, 72.87231
620.9744, 37.36926
621.4565, 29.35718
621.9386, 38.02014
622.4207, 58.94385
622.9028, 86.57776
623.3849, 98.36414
623.8671, 92.87952
624.3492, 78.77039
624.8313, 53.81250
625.3134, 26.76758
625.7955, 6.992676
626.2776, 6.006104
626.7598, 11.39099
627.2419, 6.148193
627.7240, 3.848389
628.2061, 19.75769
628.6882, 36.69873
629.1703, 49.10522
629.6525, 55.09961
630.1346, 53.43164
630.6167, 41.14856
631.0988, 20.33777
631.5809, 0.8500980
632.0630, 19.85913
632.5452, 28.19019
633.0273, 9.543213
633.5094, 13.11353
633.9915, 10.12097
634.4736, 16.79895
634.9557, 33.61841
635.4379, 19.65210
635.9200, 8.503418
636.4021, 28.88599
636.8842, 60.81335
637.3663, 70.29907
637.8484, 50.73340
638.3306, 23.25317
638.8127, 7.447510
639.2948, 2.299194
639.7769, 4.736084
640.2590, 20.09265
640.7411, 22.93237
641.2233, 7.633423
641.7054, 40.50342
642.1875, 35.86719
642.6696, 2.138306
643.1517, 20.57092
643.6339, 10.34033
644.1160, 43.32544
644.5981, 53.92444
645.0802, 49.23169
645.5623, 37.33557
646.0444, 21.81152
646.5266, 8.625122
647.0087, 3.579590
647.4908, 5.415283
647.9729, 8.428711
648.4550, 12.49902
648.9371, 18.66333
649.4193, 30.78955
649.9014, 41.14154
650.3835, 41.14624
650.8656, 32.17053
651.3477, 23.41321
651.8298, 10.65888
652.3120, 4.917480
652.7941, 16.09204
653.2762, 35.00977
653.7583, 49.85956
654.2404, 58.67566
654.7225, 66.79059
655.2047, 80.18176
655.6868, 93.90240
656.1689, 86.84595
656.6510, 53.35791
657.1331, 35.89093
657.6152, 54.20740
658.0974, 75.21564
658.5795, 60.32764
659.0616, 20.05298
659.5437, 2.684082
660.0258, 36.57776
660.5079, 63.99005
660.9901, 61.16949
661.4722, 44.86084
661.9543, 31.98541
662.4364, 23.92413
662.9185, 11.81781
663.4006, 12.43060
663.8828, 37.88855
664.3649, 39.10785
664.8470, 15.40680
665.3291, 12.63275
665.8112, 47.86084
666.2933, 72.36108
666.7755, 64.41406
667.2576, 34.35040
667.7397, 27.99408
668.2218, 63.81464
668.7039, 93.06702
669.1860, 115.2261
669.6682, 120.1705
670.1503, 83.65887
670.6324, 23.26532
671.1145, 13.70642
671.5966, 2.669678
672.0787, 30.80988
672.5609, 56.95239
673.0430, 75.06866
673.5251, 76.31921
674.0072, 56.49225
674.4893, 39.76624
674.9714, 40.58063
675.4536, 54.10797
675.9357, 68.38232
676.4178, 85.31696
676.8999, 98.87140
677.3820, 107.0738
677.8641, 113.7286
678.3463, 123.1608
678.8284, 131.5950
679.3105, 131.1270
679.7926, 119.2661
680.2747, 106.5190
680.7568, 105.9337
681.2390, 110.5469
681.7211, 102.2670
682.2032, 81.62347
682.6853, 71.90326
683.1674, 85.79865
683.6495, 106.4754
684.1317, 105.3898
684.6138, 74.29712
685.0959, 62.71149
685.5780, 92.99744
686.0601, 116.2031
686.5422, 115.3921
687.0244, 104.8890
687.5065, 98.01031
687.9886, 96.81720
688.4707, 101.4197
688.9528, 119.4871
689.4349, 138.8741
689.9171, 140.9946
690.3992, 132.8179
690.8813, 134.8798
691.3634, 152.0013
691.8455, 175.5479
692.3276, 198.0966
692.8098, 218.7438
693.2919, 228.4523
693.7740, 224.7585
694.2561, 209.2368
694.7382, 164.3600
695.2203, 124.1849
695.7025, 114.6407
696.1846, 131.2714
696.6667, 154.0609
697.1488, 188.1190
697.6309, 210.3806
698.1130, 195.1641
698.5952, 168.5004
699.0773, 170.1281
699.5594, 195.5500
700.0415, 208.0028
700.5236, 179.7598
701.0057, 136.3580
701.4879, 139.3746
701.9700, 190.8395
702.4521, 213.6538
702.9342, 190.4138
703.4163, 165.2374
703.8984, 163.1381
704.3806, 177.0438
704.8627, 191.5505
705.3448, 210.6435
705.8269, 220.3716
706.3090, 212.2451
706.7911, 200.9049
707.2733, 190.2415
707.7554, 184.0585
708.2375, 190.5203
708.7196, 211.1629
709.2017, 230.4855
709.6838, 234.9476
710.1660, 226.5488
710.6481, 204.0698
711.1302, 169.1205
711.6123, 152.8220
712.0944, 169.9371
712.5765, 193.2169
713.0587, 186.2587
713.5408, 146.6926
714.0229, 127.5385
714.5050, 141.8804
714.9871, 159.1233
715.4692, 181.1752
715.9514, 199.6789
716.4335, 206.9698
716.9156, 203.4860
717.3977, 195.5008
717.8798, 183.6130
718.3619, 174.4750
718.8441, 179.8312
719.3262, 189.1078
719.8083, 180.4737
720.2904, 154.1482
720.7725, 130.2062
721.2546, 120.9895
721.7368, 123.2324
722.2189, 135.7122
722.7010, 164.3014
723.1831, 172.6089
723.6652, 145.6225
724.1473, 119.4325
724.6295, 117.2468
725.1116, 127.9566
725.5937, 130.4846
726.0758, 125.6711
726.5579, 111.7373
727.0400, 67.40796
727.5222, 34.96222
728.0043, 54.66040
728.4864, 96.88251
728.9685, 107.6692
729.4506, 78.03473
729.9327, 50.71429
730.4149, 69.21326
730.8970, 113.1927
731.3791, 141.1770
731.8612, 152.9911
732.3433, 144.2132
732.8254, 111.0681
733.3076, 75.37317
733.7897, 59.62701
734.2718, 62.21118
734.7539, 61.71075
735.2360, 55.27771
735.7181, 50.45105
736.2003, 54.44604
736.6824, 54.35065
737.1645, 34.52289
737.6466, 4.420349
738.1287, 8.765808
738.6108, 8.842285
739.0930, 28.07098
739.5751, 34.96631
740.0572, 32.94226
740.5393, 20.42096
741.0214, 2.563171
741.5035, 7.798218
741.9857, 4.689087
742.4678, 9.326965
742.9499, 41.35406
743.4320, 87.83264
743.9141, 88.79785
744.3962, 33.05530
744.8784, 10.67737
745.3605, 13.39594
745.8426, 4.287964
746.3247, 14.23877
746.8068, 14.50317
747.2889, 27.26245
747.7711, 74.46973
748.2532, 105.1931
748.7353, 102.6318
749.2174, 82.30420
749.6995, 47.30420
750.1816, 6.445435
750.6638, 13.65393
751.1459, 9.173950
751.6280, 38.89832
752.1101, 38.09387
752.5922, 22.06201
753.0743, 23.23853
753.5565, 42.10962
754.0386, 51.80005
754.5207, 35.39087
755.0028, 9.212036
755.4849, 9.819214
755.9670, 42.47363
756.4492, 47.68225
756.9313, 7.649414
757.4134, 16.92200
757.8955, 8.904297
758.3776, 58.11499
758.8597, 92.36206
759.3419, 111.6160
759.8240, 120.3408
760.3061, 113.7754
760.7882, 102.8090
761.2703, 88.10681
761.7524, 73.31201
762.2346, 58.71948
762.7167, 46.85400
763.1988, 47.33472
763.6809, 73.10193
764.1630, 100.1361
764.6451, 91.67859
765.1273, 64.49683
765.6094, 67.26111
766.0915, 102.7716
766.5736, 126.9128
767.0557, 111.0388
767.5378, 73.76172
768.0200, 54.33337
768.5021, 54.36670
768.9842, 64.44702
769.4663, 90.80408
769.9484, 113.6123
770.4305, 123.8008
770.9127, 126.0284
771.3948, 124.3689
771.8769, 117.7225
772.3590, 120.9022
772.8411, 155.1348
773.3232, 176.0242
773.8054, 145.8043
774.2875, 107.3104
774.7696, 116.6052
775.2517, 167.2798
775.7338, 200.0560
776.2159, 175.7361
776.6981, 134.6335
777.1802, 116.4924
777.6623, 117.3849
778.1444, 135.0854
778.6265, 165.8418
779.1086, 190.0588
779.5908, 192.9886
780.0729, 180.1193
780.5550, 163.9789
781.0371, 143.5544
781.5192, 135.4946
782.0013, 141.8047
782.4835, 150.4292
782.9656, 160.0601
783.4477, 169.8671
783.9298, 176.8148
784.4119, 179.5868
784.8940, 179.9520
785.3762, 175.8977
785.8583, 174.4326
786.3404, 178.9108
786.8225, 182.2371
787.3046, 174.3068
787.7867, 161.7157
788.2689, 166.5117
788.7510, 205.2770
789.2331, 236.9603
789.7152, 211.8877
790.1973, 166.6227
790.6794, 155.1620
791.1616, 171.3689
791.6437, 195.6342
792.1258, 218.1293
792.6079, 227.4274
793.0900, 200.6290
793.5721, 143.5051
794.0543, 121.4172
794.5364, 139.1650
795.0185, 164.5151
795.5006, 195.2856
795.9827, 215.0212
796.4648, 205.8873
796.9470, 170.2670
797.4291, 138.0463
797.9112, 101.8730
798.3933, 80.20215
798.8754, 83.03992
799.3575, 91.10657
799.8397, 99.00464
800.3218, 103.3495
800.8039, 95.98914
801.2860, 72.16138
801.7681, 57.55615
802.2502, 77.32861
802.7324, 100.4681
803.2145, 90.51953
803.6966, 66.98779
804.1787, 74.48901
804.6608, 119.1566
805.1429, 155.7140
805.6251, 140.5349
806.1072, 99.53076
806.5893, 89.01611
807.0714, 105.3252
807.5535, 124.1196
808.0356, 142.0103
808.5178, 147.2439
808.9999, 130.1602
809.4820, 103.5051
809.9641, 104.4481
810.4462, 147.4888
810.9283, 163.2059
811.4105, 129.2506
811.8926, 104.5750
812.3747, 123.0444
812.8568, 154.8634
813.3389, 165.7360
813.8210, 155.3507
814.3032, 144.3260
814.7853, 128.8701
815.2674, 121.0531
815.7495, 134.2993
816.2316, 152.0210
816.7137, 159.3142
817.1959, 157.8699
817.6780, 158.4825
818.1601, 166.6802
818.6422, 173.0463
819.1243, 164.7804
819.6064, 152.2870
820.0886, 149.6810
820.5707, 157.7578
821.0528, 181.8206
821.5349, 222.3889
822.0170, 250.1373
822.4991, 225.9136
822.9813, 165.8143
823.4634, 141.6711
823.9455, 155.2151
824.4276, 166.6283
824.9097, 168.7560
825.3918, 162.3054
825.8740, 143.8601
826.3561, 120.2072
826.8382, 115.9230
827.3203, 147.0197
827.8024, 160.3285
828.2845, 140.3398
828.7667, 121.4514
829.2488, 117.8411
829.7309, 120.8497
830.2130, 122.3031
830.6951, 121.5013
831.1772, 113.4205
831.6594, 91.01331
832.1415, 68.22888
832.6236, 47.77979
833.1057, 32.23853
833.5878, 24.90015
834.0699, 24.67249
834.5521, 30.16638
835.0342, 43.30005
835.5163, 47.57593
835.9984, 11.95850
836.4805, 34.00110
836.9626, 32.93958
837.4448, 3.857910
837.9269, 23.14026
838.4090, 7.635010
838.8911, 14.68518
839.3732, 13.12915
839.8553, 4.076538
840.3375, 3.211182
840.8196, 16.30334
841.3017, 20.67151
841.7838, 4.5531999E-02
842.2659, 15.99707
842.7480, 4.693481
843.2302, 21.39038
843.7123, 29.70239
844.1944, 12.86902
844.6765, 3.325684
845.1586, 9.971436
845.6407, 10.48840
846.1229, 19.39673
846.6050, 46.81079
847.0871, 25.68835
847.5692, 37.31372
848.0513, 58.62708
848.5334, 23.04724
849.0156, 80.00049
849.4977, 57.27332
849.9798, 15.18750
850.4619, 5.156494
850.9440, 5.825684
851.4261, 0.2014160
851.9083, 9.277832
852.3904, 19.57336
852.8725, 29.72778
853.3546, 40.76221
853.8367, 55.83301
854.3188, 72.14270
854.8010, 86.07190
855.2831, 95.16943
855.7652, 95.23853
856.2473, 82.03882
856.7294, 64.31531
857.2115, 60.24902
857.6937, 65.35132
858.1758, 52.84167
858.6579, 21.66504
859.1400, 13.52209
859.6221, 49.65698
860.1042, 101.4418
860.5864, 130.9884
861.0685, 138.4080
861.5506, 123.9313
862.0327, 74.52563
862.5148, 58.13330
862.9969, 104.9603
863.4791, 157.2944
863.9612, 169.4728
864.4433, 152.2920
864.9254, 142.8660
865.4075, 133.4651
865.8896, 148.0061
866.3718, 213.4253
866.8539, 269.8026
867.3360, 287.7734
867.8181, 291.2607
868.3002, 306.9901
868.7823, 336.2009
869.2645, 364.8821
869.7466, 383.9910
870.2287, 409.1115
870.7108, 455.2583
871.1929, 501.6372
871.6750, 524.4706
872.1572, 533.4485
872.6393, 550.9004
873.1214, 583.7646
873.6035, 632.6416
874.0856, 717.0818
874.5677, 802.7661
875.0499, 842.3699
875.5320, 855.7555
876.0141, 886.2723
876.4962, 940.9395
876.9783, 1001.827
877.4604, 1058.439
877.9426, 1106.196
878.4247, 1138.663
878.9068, 1156.002
879.3889, 1150.731
879.8710, 1125.385
880.3531, 1118.446
880.8353, 1147.249
881.3174, 1174.215
881.7995, 1151.840
882.2816, 1088.695
882.7637, 1039.404
883.2458, 1005.789
883.7280, 974.9214
884.2101, 948.9387
884.6922, 912.8872
885.1743, 857.3707
885.6564, 785.4773
886.1385, 699.8268
886.6207, 591.1810
887.1028, 512.1891
887.5849, 473.9517
888.0670, 447.8361
888.5491, 437.7495
889.0313, 427.2257
889.5134, 397.0121
889.9955, 353.0461
890.4776, 322.3860
890.9597, 310.3376
891.4418, 305.5400
891.9240, 321.1000
892.4061, 327.5219
892.8882, 304.9917
893.3703, 266.1163
893.8524, 222.8275
894.3345, 176.5043
894.8167, 145.9146
895.2988, 153.4734
895.7809, 162.0321
896.2630, 152.2494
896.7451, 132.4785
897.2272, 107.6710
897.7094, 84.60120
898.1915, 75.53320
898.6736, 84.33423
899.1557, 93.06360
899.6378, 85.54614
900.1199, 72.34656
900.6021, 65.74268
901.0842, 63.00061
901.5663, 65.07837
902.0484, 70.30957
902.5305, 61.51526
903.0126, 24.12134
903.4948, 11.71301
903.9769, 9.939819
904.4590, 67.33582
904.9411, 95.72925
905.4232, 91.97791
905.9053, 70.84839
906.3875, 41.91528
906.8696, 20.94519
907.3517, 29.10193
907.8338, 55.22839
908.3159, 61.60486
908.7980, 48.60950
909.2802, 38.38721
909.7623, 33.41968
910.2444, 29.05969
910.7265, 23.65869
911.2086, 15.67163
911.6907, 5.8590001E-03
912.1729, 22.90112
912.6550, 18.14636
913.1371, 29.69543
913.6192, 55.01111
914.1013, 37.80017
914.5834, 12.44360
915.0656, 0.6575930
915.5477, 5.048340
916.0298, 9.659058
916.5119, 17.53357
916.9940, 13.95898
917.4761, 14.54846
917.9583, 35.53503
918.4404, 41.41785
918.9225, 37.23975
919.4046, 17.30200
919.8867, 10.12744
920.3688, 13.14429
920.8510, 29.88635
921.3331, 54.33740
921.8152, 34.29248
922.2973, 13.08704
922.7794, 11.55518
923.2615, 19.10938
923.7437, 22.38965
924.2258, 21.09790
924.7079, 23.94287
925.1900, 39.28955
925.6721, 49.70715
926.1542, 47.96924
926.6364, 38.60840
927.1185, 15.34900
927.6006, 8.895508
928.0827, 8.394775
928.5648, 19.86694
929.0469, 41.69287
929.5291, 21.50830
930.0112, 7.072144
930.4933, 53.21814
930.9754, 112.7582
931.4575, 116.9257
931.9396, 81.06030
932.4218, 70.19495
932.9039, 107.2660
933.3860, 140.4010
933.8681, 108.3124
934.3502, 60.60046
934.8323, 69.60669
935.3145, 109.3477
935.7966, 123.9141
936.2787, 109.9730
936.7608, 101.1525
937.2429, 116.0021
937.7250, 129.8535
938.2072, 103.6649
938.6893, 57.65442
939.1714, 33.89294
939.6535, 32.62512
940.1356, 59.76489
940.6177, 112.3250
941.0999, 152.1106
941.5820, 151.3715
942.0641, 127.1832
942.5462, 106.5189
943.0283, 89.38037
943.5104, 72.31763
943.9926, 56.50220
944.4747, 62.12573
944.9568, 95.92798
945.4389, 132.6595
945.9210, 149.6737
946.4031, 152.4834
946.8853, 156.3413
947.3674, 161.2192
947.8495, 158.4946
948.3316, 145.9250
948.8137, 149.6871
949.2958, 184.0878
949.7780, 216.3322
950.2601, 206.2933
950.7422, 164.5850
951.2243, 151.7124
951.7064, 174.9827
952.1885, 175.5652
952.6707, 138.6417
953.1528, 115.2251
953.6349, 132.4639
954.1170, 168.0347
954.5991, 193.8657
955.0812, 209.9119
955.5634, 216.5479
956.0455, 206.1808
956.5276, 210.9551
957.0097, 243.8167
957.4918, 274.0227
957.9739, 285.1683
958.4561, 282.9814
958.9382, 272.9258
959.4203, 252.7842
959.9024, 261.2689
960.3845, 323.9244
960.8666, 362.7015
961.3488, 350.1523
961.8309, 333.1475
962.3130, 340.1177
962.7951, 361.3901
963.2772, 379.4664
963.7593, 395.3558
964.2415, 401.6827
964.7236, 383.5649
965.2057, 377.2888
965.6878, 397.3965
966.1699, 423.3656
966.6520, 447.3066
967.1342, 465.9753
967.6163, 470.9718
968.0984, 458.0751
968.5805, 448.8729
969.0626, 441.3313
969.5447, 441.1499
970.0269, 455.6316
970.5090, 472.9479
970.9911, 476.3932
971.4732, 476.0969
971.9553, 504.4435
972.4374, 578.3961
972.9196, 629.1028
973.4017, 635.1293
973.8838, 633.1964
974.3659, 628.8699
974.8480, 626.4583
975.3301, 630.3101
975.8123, 639.5492
976.2944, 650.3320
976.7765, 661.3733
977.2586, 674.1504
977.7407, 696.0118
978.2228, 711.7916
978.7050, 710.7267
979.1871, 706.1053
979.6692, 709.2229
980.1513, 716.9253
980.6334, 724.2742
981.1155, 729.8445
981.5977, 739.7850
982.0798, 770.6603
982.5619, 790.5050
983.0440, 764.8075
983.5261, 728.4446
984.0082, 724.2299
984.4904, 747.8176
984.9725, 766.7111
985.4546, 774.0698
985.9367, 771.5374
986.4188, 750.2338
986.9009, 732.4872
987.3831, 734.0233
987.8652, 740.1876
988.3473, 735.0645
988.8294, 719.8102
989.3115, 703.3330
989.7936, 687.7627
990.2758, 674.7542
990.7579, 666.3210
991.2400, 660.4983
991.7221, 647.0280
992.2042, 641.2876
992.6863, 676.5925
993.1685, 739.5844
993.6506, 762.2882
994.1327, 700.5045
994.6148, 660.5376
995.0969, 720.4326
995.5790, 785.6078
996.0612, 789.5175
996.5433, 761.1042
997.0254, 733.2607
997.5075, 713.2356
997.9896, 706.3280
998.4717, 721.7366
998.9539, 728.0404
999.4360, 692.6333
999.9181, 662.1415
1000.400, 679.7601
1000.882, 715.0265
1001.364, 722.4532
1001.847, 706.3818
1002.329, 711.3832
1002.811, 764.4095
1003.293, 804.0896
1003.775, 795.6577
1004.257, 770.2238
1004.739, 744.2487
1005.221, 716.9797
1005.703, 681.5479
1006.186, 642.0334
1006.668, 616.1965
1007.150, 615.7944
1007.632, 610.5613
1008.114, 581.8765
1008.596, 549.2166
1009.078, 520.4589
1009.560, 498.3499
1010.043, 483.4288
1010.525, 476.9902
1011.007, 487.4407
1011.489, 528.1212
1011.971, 545.9810
1012.453, 497.0280
1012.935, 442.4659
1013.417, 423.7045
1013.899, 416.9049
1014.382, 388.6324
1014.864, 345.9445
1015.346, 325.3524
1015.828, 344.3778
1016.310, 352.9509
1016.792, 318.1625
1017.274, 284.0466
1017.756, 270.5067
1018.239, 273.0693
1018.721, 301.4205
1019.203, 339.2349
1019.685, 339.7445
1020.167, 283.6124
1020.649, 234.7174
1021.131, 210.9725
1021.613, 202.3009
1022.095, 220.8002
1022.578, 238.0938
1023.060, 216.9674
1023.542, 175.2046
1024.024, 165.8568
1024.506, 205.9701
1024.988, 230.9320
1025.470, 204.4417
1025.952, 184.8700
1026.435, 212.8390
1026.917, 239.0697
1027.399, 218.1887
1027.881, 166.3623
1028.363, 119.0392
1028.845, 79.48962
1029.327, 54.32568
1029.809, 58.08765
1030.292, 58.29065
1030.774, 32.09155
1031.256, 13.79260
1031.738, 41.53040
1032.220, 87.26733
1032.702, 96.35938
1033.184, 61.60059
1033.666, 38.67395
1034.148, 46.91528
1034.630, 47.23938
1035.113, 31.37268
1035.595, 7.755981
1036.077, 31.55664
1036.559, 55.27905
1037.041, 41.91772
1037.523, 10.68262
1038.005, 34.87378
1038.487, 14.67371
1038.970, 9.324951
1039.452, 49.26489
1039.934, 73.63635
1040.416, 61.06177
1040.898, 32.30981
1041.380, 11.62769
1041.862, 1.988281
1042.344, 21.64001
1042.826, 63.24646
1043.309, 73.26440
1043.791, 27.88879
1044.273, 7.725098
1044.755, 5.454468
1045.237, 9.473633
1045.719, 7.334351
1046.201, 2.977905
1046.683, 25.60059
1047.166, 120.8289
1047.648, 157.2708
1048.130, 115.2788
1048.612, 68.03308
1049.094, 31.83813
1049.576, 10.84485
1050.058, 9.347412
1050.540, 25.00842
1051.022, 56.25146
1051.505, 107.3712
1051.987, 127.4633
1052.469, 110.8129
1052.951, 97.24744
1053.433, 95.43323
1053.915, 100.4005
1054.397, 109.8877
1054.879, 121.2307
1055.361, 128.7164
1055.844, 132.4731
1056.326, 146.4243
1056.808, 171.2239
1057.290, 184.2676
1057.772, 182.1880
1058.254, 186.7458
1058.736, 208.9314
1059.218, 231.8914
1059.701, 233.2712
1060.183, 217.0642
1060.665, 192.2910
1061.147, 161.9033
1061.629, 157.9067
1062.111, 181.8015
1062.593, 195.1902
1063.075, 188.8523
1063.557, 185.3677
1064.040, 207.1882
1064.522, 241.8560
1065.004, 259.1284
1065.486, 258.2734
1065.968, 268.7515
1066.450, 270.2803
1066.932, 241.8076
1067.414, 202.9966
1067.896, 170.4492
1068.379, 143.2336
1068.861, 125.3513
1069.343, 123.5613
1069.825, 137.7366
1070.307, 153.2095
1070.789, 174.7053
1071.271, 175.9966
1071.753, 154.6052
1072.236, 133.2593
1072.718, 127.1802
1073.200, 129.4846
1073.682, 136.0146
1074.164, 146.6196
1074.646, 172.5906
1075.128, 192.9248
1075.610, 170.2434
1076.093, 122.0723
1076.575, 109.0874
1077.057, 146.6433
1077.539, 174.7019
1078.021, 163.3552
1078.503, 150.5288
1078.985, 158.5591
1079.467, 165.4421
1079.949, 138.9995
1080.432, 102.2051
1080.914, 103.0645
1081.396, 141.2129
1081.878, 152.1633
1082.360, 90.10913
1082.842, 53.80542
1083.324, 86.66406
1083.806, 113.4011
1084.288, 93.99487
1084.771, 57.75342
1085.253, 25.12378
1085.735, 3.933594
1086.217, 1.134277
1086.699, 25.61621
1087.181, 43.33545
1087.663, 55.98242
1088.145, 66.41602
1088.628, 68.26855
1089.110, 73.93457
1089.592, 74.34180
1090.074, 68.15674
1090.556, 80.88770
1091.038, 109.9854
1091.520, 94.11768
1092.002, 20.60840
1092.484, 0.6381840
1092.967, 38.75195
1093.449, 0.0000000E+00
##END=



