##NAMES=Grossular
##RRUFFID=R060442
##IDEAL CHEMISTRY=Ca_3_Al_2_(SiO_4_)_3_
##LOCALITY=Pakistan(?)
##OWNER=RRUFF
##SOURCE=Gemological Institute of America
##DESCRIPTION=Orange crystals
##STATUS=The identification of this mineral has been confirmed by X-ray diffraction and chemical analysis
##URL=rruff.info/R060442
##MEASURED CHEMISTRY=(Ca_2.85_Fe^2+^_0.15_)_Σ=3_(Al_1.85_Fe^3+^_0.15_)_Σ=2_(Si_1.00_O_4_)_3_; trace amounts of Ti, Mg
107.8047, 0.0000000E+00
108.2868, 0.1884840
108.7689, 0.6389080
109.2510, 0.8640060
109.7332, 0.8317260
110.2153, 0.7698820
110.6974, 0.5892180
111.1795, 0.3759540
111.6616, 0.2267840
112.1437, 5.5046000E-02
112.6259, 3.5957001E-02
113.1080, 0.1240230
113.5901, 0.5139010
114.0722, 0.8113100
114.5543, 0.7176440
115.0364, 0.2561260
115.5185, 4.4059999E-02
116.0007, 5.8403000E-02
116.4828, 0.2740940
116.9649, 0.4324570
117.4470, 0.5080800
117.9291, 0.5762180
118.4112, 0.7785870
118.8934, 1.204575
119.3755, 1.505936
119.8576, 1.540924
120.3397, 1.530869
120.8218, 1.657936
121.3039, 2.017105
121.7861, 2.474274
122.2682, 2.603943
122.7503, 1.879856
123.2324, 1.383266
123.7145, 1.336349
124.1966, 1.610355
124.6788, 1.820202
125.1609, 1.860310
125.6430, 1.816978
126.1251, 2.079323
126.6072, 2.250595
127.0893, 2.374516
127.5715, 2.565285
128.0536, 2.599064
128.5357, 2.753090
129.0178, 2.401535
129.4999, 1.562984
129.9821, 1.318340
130.4642, 1.964149
130.9463, 2.734268
131.4284, 2.786781
131.9105, 1.955002
132.3926, 1.164001
132.8748, 1.472267
133.3569, 2.386719
133.8390, 3.013096
134.3211, 2.756115
134.8032, 1.884129
135.2853, 1.322254
135.7674, 1.196049
136.2496, 1.256729
136.7317, 1.477287
137.2138, 1.778141
137.6959, 1.973701
138.1780, 1.889397
138.6601, 1.497147
139.1423, 1.123066
139.6244, 0.6173710
140.1065, 0.2575230
140.5886, 0.2394600
141.0707, 0.5176580
141.5528, 0.8678590
142.0350, 1.034863
142.5171, 0.9894180
142.9992, 0.7976490
143.4813, 0.1919590
143.9634, 0.3544960
144.4455, 0.4292220
144.9277, 3.6403999E-02
145.4098, 0.6732600
145.8919, 0.8643880
146.3740, 0.2063520
146.8561, 0.1667560
147.3382, 0.1031610
147.8204, 0.5804410
148.3025, 0.6058460
148.7846, 0.1374930
149.2667, 1.103519
149.7488, 0.9674450
150.2309, 0.6384580
150.7131, 1.846554
151.1952, 1.570042
151.6773, 0.2634660
152.1594, 0.5923420
152.6415, 0.2628250
153.1236, 0.6365660
153.6058, 1.089523
154.0879, 1.013279
154.5700, 0.7411270
155.0521, 0.4501760
155.5342, 0.1329960
156.0163, 0.1039730
156.4985, 0.5128590
156.9806, 0.9751130
157.4627, 1.289639
157.9448, 1.463173
158.4269, 1.569614
158.9090, 1.674465
159.3912, 1.761139
159.8733, 1.889786
160.3554, 2.075878
160.8375, 2.301922
161.3196, 2.562782
161.8017, 2.857391
162.2839, 3.173355
162.7660, 3.477188
163.2481, 3.833561
163.7302, 4.078938
164.2123, 4.169739
164.6944, 4.151196
165.1766, 4.050259
165.6587, 3.892399
166.1408, 3.691158
166.6229, 3.669941
167.1050, 3.983444
167.5871, 4.307617
168.0693, 4.534351
168.5514, 4.724514
169.0335, 4.997921
169.5156, 5.428181
169.9977, 6.019524
170.4798, 6.728111
170.9620, 7.719158
171.4441, 8.649860
171.9262, 9.211887
172.4083, 9.507404
172.8904, 10.01206
173.3725, 11.08821
173.8547, 12.73566
174.3368, 14.43358
174.8189, 16.05540
175.3010, 17.82102
175.7831, 20.09570
176.2652, 22.91888
176.7474, 25.53099
177.2295, 27.49973
177.7116, 28.80535
178.1937, 29.27090
178.6758, 28.59942
179.1579, 27.15800
179.6401, 25.40347
180.1222, 23.28197
180.6043, 21.01537
181.0864, 18.59052
181.5685, 16.13544
182.0506, 13.89609
182.5328, 11.96597
183.0149, 10.33596
183.4970, 8.983284
183.9791, 8.010132
184.4612, 7.195850
184.9433, 6.463261
185.4255, 5.792648
185.9076, 5.134987
186.3897, 4.411156
186.8718, 3.651741
187.3539, 3.209686
187.8360, 3.417267
188.3182, 3.615513
188.8003, 3.656952
189.2824, 3.540012
189.7645, 3.270309
190.2466, 2.799522
190.7287, 2.107121
191.2109, 1.794361
191.6930, 2.409485
192.1751, 2.872593
192.6572, 2.690212
193.1393, 2.023216
193.6214, 1.362007
194.1036, 1.149422
194.5857, 1.451870
195.0678, 1.675713
195.5499, 1.880615
196.0320, 1.978260
196.5141, 1.892216
196.9963, 1.644203
197.4784, 1.315247
197.9605, 0.9541020
198.4426, 0.5508580
198.9247, 0.3807680
199.4068, 0.6153300
199.8890, 0.9210470
200.3711, 1.082142
200.8532, 1.081573
201.3353, 1.033169
201.8174, 1.079018
202.2995, 1.244171
202.7817, 1.115219
203.2638, 0.3174710
203.7459, 0.6121030
204.2280, 1.184139
204.7101, 1.352600
205.1922, 1.270283
205.6744, 1.021149
206.1565, 0.6486360
206.6386, 0.3406600
207.1207, 0.2085460
207.6028, 0.1088450
208.0849, 0.1325000
208.5671, 0.4627190
209.0492, 0.8090480
209.5313, 1.162132
210.0134, 1.449451
210.4955, 1.644333
210.9776, 1.652184
211.4598, 1.532215
211.9419, 1.469322
212.4240, 1.454548
212.9061, 1.527637
213.3882, 1.682232
213.8703, 1.925533
214.3525, 2.297958
214.8346, 2.849911
215.3167, 3.537140
215.7988, 4.236443
216.2809, 5.120068
216.7630, 5.719738
217.2451, 5.604160
217.7273, 5.133465
218.2094, 4.951488
218.6915, 5.541122
219.1736, 6.744633
219.6557, 7.600750
220.1378, 7.856838
220.6200, 8.037136
221.1021, 8.124279
221.5842, 8.268578
222.0663, 8.731876
222.5484, 9.750954
223.0305, 11.24096
223.5127, 12.37893
223.9948, 12.72554
224.4769, 13.14905
224.9590, 13.70822
225.4411, 14.48414
225.9232, 15.61831
226.4054, 17.25536
226.8875, 19.32286
227.3696, 21.08125
227.8517, 22.35882
228.3338, 23.48047
228.8159, 24.26977
229.2981, 24.96326
229.7802, 25.96792
230.2623, 27.58046
230.7444, 29.73338
231.2265, 31.61603
231.7086, 32.72860
232.1908, 34.13271
232.6729, 36.34035
233.1550, 39.03388
233.6371, 41.55044
234.1192, 43.44879
234.6013, 44.85992
235.0835, 46.78105
235.5656, 49.61488
236.0477, 52.45566
236.5298, 55.28350
237.0119, 57.86201
237.4940, 59.78232
237.9762, 60.78491
238.4583, 61.02396
238.9404, 61.15730
239.4225, 61.01975
239.9046, 60.98937
240.3867, 60.91502
240.8689, 60.98805
241.3510, 61.69417
241.8331, 63.26532
242.3152, 65.72684
242.7973, 69.05338
243.2794, 73.39643
243.7616, 78.17365
244.2437, 83.85088
244.7258, 89.85625
245.2079, 94.70185
245.6900, 98.19341
246.1721, 99.46593
246.6543, 97.11752
247.1364, 90.72516
247.6185, 82.63528
248.1006, 73.11095
248.5827, 62.64529
249.0648, 52.77652
249.5470, 43.73050
250.0291, 35.90387
250.5112, 29.67010
250.9933, 25.05308
251.4754, 21.37866
251.9576, 18.35706
252.4397, 15.97890
252.9218, 14.15526
253.4039, 13.04042
253.8860, 12.31295
254.3681, 11.53539
254.8503, 10.70262
255.3324, 10.10210
255.8145, 10.01771
256.2966, 10.35792
256.7787, 10.66122
257.2608, 10.84420
257.7430, 10.97598
258.2251, 11.07458
258.7072, 11.15627
259.1893, 11.32923
259.6714, 11.68287
260.1535, 12.19437
260.6357, 12.75712
261.1178, 13.43533
261.5999, 14.02307
262.0820, 14.39837
262.5641, 14.62796
263.0462, 14.85354
263.5284, 15.13522
264.0105, 15.48685
264.4926, 15.94447
264.9747, 16.45623
265.4568, 17.14057
265.9389, 18.04211
266.4211, 19.12598
266.9032, 20.32899
267.3853, 21.64793
267.8674, 23.05233
268.3495, 24.37090
268.8316, 25.28353
269.3138, 26.64588
269.7959, 29.00956
270.2780, 31.90388
270.7601, 34.56800
271.2422, 36.46731
271.7243, 37.99553
272.2065, 40.49248
272.6886, 44.46988
273.1707, 48.59135
273.6528, 52.60347
274.1349, 56.49746
274.6170, 60.30911
275.0992, 64.12054
275.5813, 67.66981
276.0634, 70.38528
276.5455, 72.66840
277.0276, 73.17586
277.5097, 71.75671
277.9919, 68.80232
278.4740, 64.37210
278.9561, 58.48495
279.4382, 51.87457
279.9203, 45.78216
280.4024, 40.20290
280.8846, 35.28728
281.3667, 31.03401
281.8488, 27.32620
282.3309, 24.20275
282.8130, 21.63388
283.2951, 19.40913
283.7773, 17.19589
284.2594, 14.84427
284.7415, 12.90861
285.2236, 11.50771
285.7057, 10.37555
286.1878, 9.379601
286.6700, 8.497494
287.1521, 7.765335
287.6342, 7.263123
288.1163, 7.099022
288.5984, 6.748081
289.0805, 6.204220
289.5627, 5.501476
290.0448, 4.469990
290.5269, 3.239826
291.0090, 2.214706
291.4911, 1.835709
291.9732, 2.193592
292.4554, 2.041279
292.9375, 0.6267050
293.4196, 0.5432280
293.9017, 0.8311120
294.3838, 0.4781800
294.8659, 6.4980000E-02
295.3481, 1.9610000E-03
295.8302, 0.2532120
296.3123, 0.5088460
296.7944, 0.9148900
297.2765, 1.155617
297.7586, 1.013741
298.2408, 0.6956630
298.7229, 0.5036050
299.2050, 0.6063040
299.6871, 0.9446260
300.1692, 1.297142
300.6513, 1.813248
301.1335, 2.146931
301.6156, 2.265564
302.0977, 2.189262
302.5798, 1.896614
303.0619, 1.384945
303.5440, 0.7576220
304.0262, 0.2189940
304.5083, 0.2412340
304.9904, 0.5704610
305.4725, 0.6672250
305.9546, 0.7059060
306.4367, 0.8913730
306.9189, 1.243111
307.4010, 1.535355
307.8831, 1.399124
308.3652, 0.4753990
308.8473, 8.4666997E-02
309.3294, 0.4148520
309.8116, 1.023304
310.2937, 1.763561
310.7758, 2.552723
311.2579, 3.264736
311.7400, 3.767868
312.2221, 4.046658
312.7043, 4.236977
313.1864, 4.365906
313.6685, 4.397587
314.1506, 4.198402
314.6327, 3.880180
315.1148, 3.694321
315.5970, 3.830898
316.0791, 4.269836
316.5612, 4.740559
317.0433, 5.343044
317.5254, 5.869751
318.0075, 6.209061
318.4897, 6.457596
318.9718, 6.791397
319.4539, 7.308002
319.9360, 7.904022
320.4181, 8.239090
320.9002, 7.661369
321.3824, 7.662773
321.8645, 8.630280
322.3466, 10.04594
322.8287, 11.48005
323.3108, 12.76202
323.7929, 13.90080
324.2751, 14.85918
324.7572, 15.30597
325.2393, 16.24979
325.7214, 18.17852
326.2035, 20.18011
326.6856, 21.69653
327.1678, 22.63343
327.6499, 23.20152
328.1320, 23.65070
328.6141, 24.05697
329.0962, 23.92398
329.5783, 23.10138
330.0605, 21.96776
330.5426, 20.43938
331.0247, 18.70595
331.5068, 17.20302
331.9889, 16.30436
332.4710, 15.95149
332.9532, 15.19202
333.4353, 13.28330
333.9174, 11.75458
334.3995, 10.98202
334.8816, 10.75495
335.3637, 10.81220
335.8459, 11.03053
336.3280, 11.34348
336.8101, 11.53642
337.2922, 11.40117
337.7743, 11.46673
338.2564, 11.82154
338.7386, 12.34788
339.2206, 12.94407
339.7028, 13.58287
340.1849, 14.29407
340.6670, 15.15102
341.1491, 16.26721
341.6312, 17.23689
342.1133, 17.94778
342.5955, 18.62119
343.0776, 19.20212
343.5597, 19.80799
344.0418, 20.78763
344.5239, 22.56470
345.0060, 25.20445
345.4882, 27.48982
345.9703, 29.36379
346.4524, 30.89652
346.9345, 32.13506
347.4166, 33.03268
347.8987, 33.39286
348.3809, 32.98315
348.8630, 32.13327
349.3451, 32.24878
349.8272, 34.04772
350.3093, 35.75090
350.7914, 36.74242
351.2736, 37.57653
351.7557, 38.83340
352.2378, 40.74817
352.7199, 43.15964
353.2020, 45.81108
353.6841, 48.74551
354.1663, 51.72759
354.6484, 54.59163
355.1305, 57.59565
355.6126, 60.90788
356.0947, 64.54599
356.5768, 68.40906
357.0590, 72.46669
357.5411, 76.69379
358.0232, 80.79284
358.5053, 84.45302
358.9874, 88.33041
359.4695, 92.62468
359.9517, 97.33736
360.4338, 102.3950
360.9159, 107.7019
361.3980, 113.3736
361.8801, 119.9087
362.3622, 127.5726
362.8444, 135.4035
363.3265, 142.7367
363.8086, 150.1949
364.2907, 158.5468
364.7728, 168.1376
365.2549, 178.2386
365.7371, 187.9972
366.2192, 197.4379
366.7013, 206.6662
367.1834, 215.7240
367.6655, 224.5382
368.1476, 232.7402
368.6298, 240.4549
369.1119, 248.6810
369.5940, 258.3758
370.0761, 269.2503
370.5582, 279.9328
371.0403, 290.6384
371.5225, 300.5591
372.0046, 309.9696
372.4867, 318.3091
372.9688, 324.1564
373.4509, 327.7340
373.9330, 327.9860
374.4152, 322.9743
374.8973, 312.4881
375.3794, 298.7062
375.8615, 281.6765
376.3436, 262.2885
376.8257, 241.6246
377.3079, 219.0429
377.7900, 196.8894
378.2721, 176.2962
378.7542, 157.4037
379.2363, 140.9995
379.7184, 127.5291
380.2006, 116.1709
380.6827, 106.0312
381.1648, 97.08277
381.6469, 88.81747
382.1290, 80.89053
382.6111, 73.60043
383.0933, 67.49850
383.5754, 62.65243
384.0575, 58.46887
384.5396, 54.54189
385.0217, 50.90139
385.5038, 47.40504
385.9860, 43.81875
386.4681, 40.59088
386.9502, 38.17362
387.4323, 36.39015
387.9144, 34.57467
388.3965, 32.36752
388.8787, 29.96788
389.3608, 27.99755
389.8429, 26.63482
390.3250, 25.31381
390.8071, 23.81526
391.2892, 22.34184
391.7714, 21.11679
392.2535, 20.19515
392.7356, 19.55318
393.2177, 19.22587
393.6998, 19.33234
394.1819, 19.13194
394.6641, 18.26368
395.1462, 17.43852
395.6283, 17.12726
396.1104, 17.22007
396.5925, 17.31504
397.0746, 17.14567
397.5568, 16.76955
398.0389, 16.50058
398.5210, 16.44526
399.0031, 16.37503
399.4852, 16.38170
399.9673, 16.30864
400.4495, 15.83505
400.9316, 14.90864
401.4137, 14.00394
401.8958, 13.89546
402.3779, 14.94769
402.8600, 15.82241
403.3422, 16.76853
403.8243, 17.35221
404.3064, 17.09879
404.7885, 16.24194
405.2706, 15.46745
405.7527, 15.31348
406.2349, 15.70358
406.7170, 16.05579
407.1991, 16.41885
407.6812, 16.65908
408.1633, 16.59270
408.6454, 16.46545
409.1276, 16.52842
409.6097, 16.87100
410.0918, 17.45613
410.5739, 18.30728
411.0560, 19.49753
411.5381, 20.55227
412.0203, 21.51674
412.5024, 22.20409
412.9845, 22.43008
413.4666, 22.24387
413.9487, 21.90089
414.4308, 21.66266
414.9130, 21.41980
415.3951, 20.75682
415.8772, 19.64342
416.3593, 18.17690
416.8414, 16.16817
417.3235, 13.90905
417.8057, 11.72176
418.2878, 9.544598
418.7699, 7.740585
419.2520, 6.870056
419.7341, 6.827950
420.2162, 6.600792
420.6984, 5.873966
421.1805, 4.848396
421.6626, 3.638981
422.1447, 2.216404
422.6268, 1.225426
423.1089, 1.231873
423.5911, 1.655552
424.0732, 1.690247
424.5553, 1.248165
425.0374, 0.6829030
425.5195, 0.1929550
426.0016, 0.1889500
426.4838, 0.3553540
426.9659, 4.8140999E-02
427.4480, 0.1959990
427.9301, 0.1088640
428.4122, 0.2162700
428.8943, 0.6397090
429.3765, 1.132023
429.8586, 1.538776
430.3407, 1.562824
430.8228, 0.9089700
431.3049, 0.5097310
431.7870, 0.5087470
432.2692, 0.6616860
432.7513, 0.8917390
433.2334, 1.130554
433.7155, 1.200298
434.1976, 0.9154970
434.6797, 0.3204460
435.1619, 6.9283001E-02
435.6440, 0.6486090
436.1261, 1.016602
436.6082, 0.8728750
437.0903, 0.4848560
437.5724, 0.1306230
438.0546, 8.3114997E-02
438.5367, 0.1639250
439.0188, 8.0021001E-02
439.5009, 0.2745820
439.9830, 0.4505270
440.4651, 0.2222290
440.9473, 5.6610000E-03
441.4294, 2.2099999E-04
441.9115, 0.1711580
442.3936, 0.3868220
442.8757, 0.5881500
443.3578, 0.7516330
443.8400, 0.7644200
444.3221, 0.5462150
444.8042, 0.3781240
445.2863, 0.5700650
445.7684, 0.7480200
446.2505, 0.4425580
446.7327, 0.4784740
447.2148, 1.333996
447.6969, 1.393970
448.1790, 0.8131680
448.6611, 0.4723740
449.1432, 0.5781210
449.6254, 0.8004150
450.1075, 0.8820500
450.5896, 0.8525430
451.0717, 0.7843820
451.5538, 0.5311090
452.0359, 0.3664360
452.5181, 0.6471180
453.0002, 1.310810
453.4823, 1.936676
453.9644, 2.365826
454.4465, 2.605247
454.9286, 2.614552
455.4108, 2.289848
455.8929, 2.090771
456.3750, 2.242981
456.8571, 2.507187
457.3392, 2.601692
457.8214, 2.497265
458.3035, 2.377361
458.7856, 2.409576
459.2677, 2.596352
459.7498, 2.724091
460.2319, 2.784134
460.7141, 2.806259
461.1962, 2.751957
461.6783, 2.679600
462.1604, 2.699951
462.6425, 2.849754
463.1246, 3.011726
463.6068, 2.958107
464.0889, 2.540691
464.5710, 2.304661
465.0531, 2.419590
465.5352, 2.547089
466.0173, 2.455265
466.4995, 2.235374
466.9816, 2.155857
467.4637, 2.414577
467.9458, 2.911339
468.4279, 3.321583
468.9100, 3.600128
469.3922, 3.913498
469.8743, 4.353867
470.3564, 4.824932
470.8385, 5.257549
471.3206, 5.640526
471.8027, 5.981709
472.2849, 6.138947
472.7670, 6.237255
473.2491, 6.868591
473.7312, 8.301277
474.2133, 9.639439
474.6954, 10.06222
475.1776, 9.912849
475.6597, 9.976673
476.1418, 10.63588
476.6239, 11.21793
477.1060, 11.23351
477.5881, 10.79244
478.0703, 10.21595
478.5524, 9.616272
479.0345, 8.901878
479.5166, 7.868145
479.9987, 6.362988
480.4808, 5.272018
480.9630, 4.905205
481.4451, 4.750874
481.9272, 4.516228
482.4093, 4.191200
482.8914, 3.848915
483.3735, 3.527637
483.8557, 3.208721
484.3378, 2.894226
484.8199, 2.568775
485.3020, 2.340961
485.7841, 2.177265
486.2662, 2.092548
486.7484, 2.124340
487.2305, 2.259327
487.7126, 2.440544
488.1947, 2.649670
488.6768, 2.926407
489.1589, 3.211304
489.6411, 3.488228
490.1232, 3.722984
490.6053, 3.857708
491.0874, 3.966896
491.5695, 4.137169
492.0516, 4.409847
492.5338, 4.805702
493.0159, 5.464256
493.4980, 6.263855
493.9801, 6.485065
494.4622, 5.796619
494.9443, 5.052830
495.4265, 5.013069
495.9086, 5.463448
496.3907, 5.855778
496.8728, 5.951591
497.3549, 6.008266
497.8370, 6.285606
498.3192, 6.759296
498.8013, 7.234020
499.2834, 7.607761
499.7655, 7.964680
500.2476, 8.454849
500.7297, 9.087631
501.2119, 9.840240
501.6940, 10.87078
502.1761, 11.92178
502.6582, 12.72062
503.1403, 13.32952
503.6224, 14.05120
504.1045, 15.09859
504.5866, 16.46637
505.0688, 18.06355
505.5509, 20.38519
506.0330, 22.13953
506.5151, 23.22338
506.9972, 23.80230
507.4793, 23.93605
507.9615, 23.67283
508.4436, 23.12383
508.9257, 22.44722
509.4078, 21.56381
509.8899, 19.90137
510.3720, 16.97256
510.8542, 14.32008
511.3363, 12.70118
511.8184, 11.54131
512.3005, 10.26667
512.7827, 8.749001
513.2648, 7.390015
513.7469, 6.519310
514.2290, 6.039429
514.7111, 5.716656
515.1932, 5.571091
515.6754, 5.337833
516.1575, 4.727734
516.6396, 3.847263
517.1217, 3.208981
517.6038, 2.795280
518.0859, 2.669132
518.5681, 3.229889
519.0502, 4.003803
519.5323, 4.052559
520.0144, 3.124596
520.4965, 1.954762
520.9786, 1.433022
521.4608, 1.660015
521.9429, 1.945831
522.4250, 2.343559
522.9071, 2.735760
523.3892, 3.097710
523.8713, 3.421108
524.3535, 3.699532
524.8356, 3.928844
525.3177, 4.110413
525.7998, 4.209812
526.2819, 4.181370
526.7640, 4.301243
527.2462, 4.701962
527.7283, 5.136848
528.2104, 5.483471
528.6925, 5.771652
529.1746, 6.068172
529.6567, 6.362732
530.1389, 6.739910
530.6210, 7.323601
531.1031, 8.107258
531.5852, 9.014515
532.0673, 10.13338
532.5494, 11.19672
533.0316, 11.73085
533.5137, 11.77264
533.9958, 12.13168
534.4779, 13.15488
534.9600, 14.39969
535.4421, 15.57427
535.9243, 16.67860
536.4064, 17.79158
536.8885, 18.94354
537.3706, 20.25291
537.8527, 21.90132
538.3348, 23.92970
538.8170, 26.14147
539.2991, 28.53439
539.7812, 31.16010
540.2633, 34.03642
540.7454, 37.21436
541.2275, 40.77462
541.7097, 44.73972
542.1918, 49.01542
542.6739, 53.41492
543.1560, 57.93790
543.6381, 62.79234
544.1202, 68.58794
544.6024, 74.16227
545.0845, 79.20699
545.5666, 83.54202
546.0487, 86.38909
546.5308, 87.28104
547.0129, 86.49594
547.4951, 84.50211
547.9772, 81.29266
548.4593, 76.41676
548.9414, 69.26237
549.4235, 60.87183
549.9056, 52.97135
550.3878, 45.48130
550.8699, 38.71606
551.3520, 32.77798
551.8341, 27.61790
552.3162, 23.23483
552.7983, 19.59891
553.2805, 16.70669
553.7626, 14.58252
554.2447, 13.02895
554.7268, 11.45303
555.2089, 9.674892
555.6910, 8.215057
556.1732, 7.126011
556.6553, 6.274075
557.1374, 5.703205
557.6195, 5.301495
558.1016, 4.768372
558.5837, 3.821499
559.0659, 2.751736
559.5480, 2.332428
560.0301, 2.690971
560.5122, 2.941494
560.9943, 2.715374
561.4764, 2.405960
561.9586, 2.467575
562.4407, 2.868465
562.9228, 3.107510
563.4049, 2.860847
563.8870, 2.459084
564.3691, 2.221989
564.8513, 2.147484
565.3334, 2.186069
565.8155, 2.343269
566.2976, 2.519619
566.7797, 2.519718
567.2618, 2.245922
567.7440, 2.010815
568.2261, 1.800575
568.7082, 1.643188
569.1903, 1.526398
569.6724, 1.477619
570.1545, 1.583828
570.6367, 1.903122
571.1188, 2.293411
571.6009, 2.429123
572.0830, 2.232285
572.5651, 2.078697
573.0472, 2.006908
573.5294, 1.991436
574.0115, 2.011127
574.4936, 2.073681
574.9757, 2.222294
575.4578, 2.593891
575.9399, 2.896069
576.4221, 2.669651
576.9042, 2.021961
577.3863, 1.567287
577.8684, 1.495041
578.3505, 1.632687
578.8326, 1.865257
579.3148, 2.209095
579.7969, 2.235924
580.2790, 1.581985
580.7611, 0.9761700
581.2432, 0.7995110
581.7253, 0.9005240
582.2075, 1.019707
582.6896, 1.063854
583.1717, 1.077969
583.6538, 1.135052
584.1359, 1.254993
584.6180, 1.270298
585.1002, 1.002750
585.5823, 0.8447910
586.0643, 1.019241
586.5464, 1.330502
587.0286, 1.504189
587.5107, 1.455925
587.9928, 1.372192
588.4749, 1.454540
588.9570, 1.654972
589.4391, 1.793854
589.9213, 1.861439
590.4034, 1.825634
590.8855, 1.670311
591.3676, 1.383427
591.8497, 0.9481930
592.3318, 0.1651540
592.8140, 0.4353260
593.2961, 0.5205380
593.7782, 0.4301870
594.2603, 0.6432690
594.7424, 1.142689
595.2245, 1.430622
595.7067, 1.055702
596.1888, 0.1752620
596.6709, 0.2929730
597.1530, 0.2036970
597.6351, 7.1548000E-02
598.1172, 0.7677760
598.5994, 1.385838
599.0815, 1.466682
599.5636, 1.075890
600.0457, 0.7121280
600.5278, 0.7973400
601.0099, 1.043694
601.4921, 0.8354530
601.9742, 0.1650730
602.4563, 0.4478030
602.9384, 0.8219490
603.4205, 1.051281
603.9026, 1.254047
604.3848, 1.430592
604.8669, 1.667858
605.3490, 2.119892
605.8311, 2.513298
606.3132, 2.552277
606.7953, 2.415104
607.2775, 2.511417
607.7596, 2.995636
608.2417, 3.587227
608.7238, 3.836823
609.2059, 3.670208
609.6880, 3.525063
610.1702, 3.193001
610.6523, 3.139679
611.1344, 3.841770
611.6165, 4.784477
612.0986, 5.195404
612.5807, 4.827641
613.0629, 4.318512
613.5450, 4.186687
614.0271, 4.385895
614.5092, 4.858276
614.9913, 5.657444
615.4734, 6.303459
615.9556, 6.418407
616.4377, 6.167271
616.9198, 6.131584
617.4019, 6.295284
617.8840, 6.681858
618.3661, 7.538994
618.8483, 8.423260
619.3304, 8.948734
619.8125, 9.179649
620.2946, 9.484764
620.7767, 10.12127
621.2589, 10.94752
621.7410, 11.49739
622.2231, 11.59861
622.7052, 11.93314
623.1873, 12.72787
623.6694, 13.66678
624.1516, 14.72756
624.6337, 15.79176
625.1158, 16.52602
625.5979, 16.63543
626.0800, 16.59700
626.5621, 16.94441
627.0443, 17.55466
627.5264, 18.05235
628.0085, 18.37240
628.4906, 18.35675
628.9727, 17.79022
629.4548, 16.67356
629.9370, 15.62970
630.4191, 14.76593
630.9012, 13.83498
631.3833, 12.66028
631.8654, 11.44797
632.3475, 10.42188
632.8297, 9.606346
633.3118, 8.864269
633.7939, 8.092197
634.2760, 7.295971
634.7581, 6.480038
635.2402, 5.585316
635.7224, 4.919945
636.2045, 4.722668
636.6866, 4.671482
637.1687, 4.434628
637.6508, 4.019726
638.1329, 3.596573
638.6151, 3.196510
639.0972, 2.830097
639.5793, 2.503826
640.0614, 2.218040
640.5435, 1.941525
641.0256, 1.664536
641.5078, 1.521385
641.9899, 1.752335
642.4720, 2.454121
642.9541, 2.742344
643.4362, 2.263748
643.9183, 1.759106
644.4005, 1.235268
644.8826, 0.8531490
645.3647, 0.8798260
645.8468, 1.335098
646.3289, 1.765087
646.8110, 1.751152
647.2932, 1.436497
647.7753, 1.148144
648.2574, 0.8947750
648.7395, 0.7506140
649.2216, 0.7804450
649.7037, 0.8960080
650.1859, 0.9253690
650.6680, 0.8082240
651.1501, 0.8094600
651.6322, 1.180187
652.1143, 1.449207
652.5964, 1.220207
653.0786, 0.7131810
653.5607, 0.3623200
654.0428, 0.3379330
654.5249, 0.4809720
655.0070, 0.6675990
655.4891, 0.9015460
655.9713, 0.9636230
656.4534, 0.7792930
656.9355, 0.5845870
657.4176, 0.5296170
657.8997, 0.5363850
658.3818, 0.4771690
658.8640, 0.3174400
659.3461, 0.1578870
659.8282, 1.3546000E-02
660.3103, 0.1237660
660.7924, 2.7952000E-02
661.2745, 0.3668140
661.7567, 0.5112550
662.2388, 0.2518710
662.7209, 0.1487500
663.2030, 0.1621320
663.6851, 0.4091380
664.1672, 0.7216740
664.6494, 0.5353200
665.1315, 0.3562720
665.6136, 0.3513720
666.0957, 0.4574680
666.5778, 0.5890100
667.0599, 0.7182240
667.5421, 0.7771640
668.0242, 0.6216220
668.5063, 0.3794270
668.9884, 0.4054790
669.4705, 0.7136650
669.9526, 0.8977070
670.4348, 0.6998040
670.9169, 0.3331170
671.3990, 0.2113460
671.8811, 0.4663280
672.3632, 0.6376360
672.8453, 0.6371120
673.3275, 0.6608260
673.8096, 0.9332390
674.2917, 1.243891
674.7738, 1.095726
675.2559, 0.3109820
675.7380, 0.3699840
676.2202, 0.3104340
676.7023, 2.156181
677.1844, 2.913771
677.6665, 2.229734
678.1486, 1.464712
678.6307, 1.180538
679.1129, 1.248413
679.5950, 1.429192
680.0771, 1.781139
680.5592, 2.027155
681.0413, 2.055790
681.5234, 1.984934
682.0056, 1.823740
682.4877, 1.634832
682.9698, 1.595266
683.4519, 1.779600
683.9340, 1.980772
684.4161, 1.839787
684.8983, 1.308205
685.3804, 0.9794730
685.8625, 0.9469490
686.3446, 0.9460930
686.8267, 0.8933220
687.3088, 0.8253990
687.7910, 0.7195110
688.2731, 0.5915160
688.7552, 0.5645430
689.2373, 0.7893410
689.7194, 1.131683
690.2015, 1.443123
690.6837, 1.688070
691.1658, 1.831570
691.6479, 1.856379
692.1300, 1.797735
692.6121, 1.663183
693.0942, 1.408476
693.5764, 1.312820
694.0585, 1.488199
694.5406, 1.721720
695.0227, 2.095810
695.5048, 2.414555
695.9869, 2.402786
696.4691, 2.031271
696.9512, 1.681004
697.4333, 1.614239
697.9154, 1.696365
698.3975, 1.788607
698.8796, 1.871975
699.3618, 1.835293
699.8439, 1.675468
700.3260, 1.500546
700.8081, 1.478157
701.2902, 1.635365
701.7723, 1.733589
702.2545, 1.757095
702.7366, 1.724422
703.2187, 1.522570
703.7008, 1.356012
704.1829, 1.498989
704.6650, 1.925465
705.1472, 2.274649
705.6293, 2.288401
706.1114, 2.126390
706.5935, 2.018585
707.0756, 1.960466
707.5577, 1.915684
708.0399, 1.873009
708.5220, 1.839899
709.0041, 1.828123
709.4862, 1.813372
709.9683, 1.845179
710.4504, 1.818331
710.9326, 1.816822
711.4147, 1.826181
711.8968, 1.882183
712.3789, 2.117012
712.8610, 2.450914
713.3431, 2.564054
713.8253, 2.196880
714.3074, 1.615091
714.7895, 1.156208
715.2716, 0.8354700
715.7537, 0.7905460
716.2358, 1.091629
716.7180, 1.474413
717.2001, 1.753529
717.6822, 1.921526
718.1643, 1.938864
718.6464, 1.665031
719.1285, 1.481634
719.6107, 1.466728
720.0928, 1.507208
720.5749, 1.577448
721.0570, 1.632782
721.5391, 1.569098
722.0212, 1.302757
722.5034, 0.9494480
722.9855, 0.6259420
723.4676, 0.3716870
723.9497, 0.4460220
724.4318, 0.9362660
724.9139, 1.309330
725.3961, 1.180746
725.8782, 0.7723450
726.3603, 0.7334270
726.8424, 1.393511
727.3245, 1.650145
727.8066, 0.9039420
728.2888, 0.2614100
728.7709, 0.5840700
729.2530, 1.379368
729.7351, 1.700060
730.2172, 1.226976
730.6993, 0.5500550
731.1815, 0.2769930
731.6636, 0.3411460
732.1457, 0.4443190
732.6278, 0.5529990
733.1099, 0.7991850
733.5920, 1.379034
734.0742, 1.985481
734.5563, 1.876822
735.0384, 0.7454810
735.5205, 0.1942270
736.0026, 0.7922780
736.4847, 1.318434
736.9669, 1.290302
737.4490, 0.9840130
737.9311, 0.6811770
738.4132, 0.4652770
738.8953, 0.3772600
739.3774, 0.5128940
739.8596, 0.7419620
740.3417, 0.7828920
740.8238, 0.6465610
741.3059, 0.4729420
741.7880, 0.2712550
742.2701, 0.1459220
742.7523, 0.2488230
743.2344, 0.5509930
743.7165, 0.6083970
744.1986, 2.8957000E-02
744.6807, 0.2350430
745.1628, 0.3885020
745.6450, 0.9922080
746.1271, 0.7293930
746.6092, 0.1727260
747.0913, 0.9165590
747.5734, 1.128605
748.0555, 0.9899350
748.5377, 0.5302960
749.0198, 0.1108170
749.5019, 0.2962000
749.9840, 7.3765002E-02
750.4661, 0.2876320
750.9482, 0.1618080
751.4304, 0.9388540
751.9125, 1.207699
752.3946, 0.6922760
752.8767, 0.3076740
753.3588, 2.2869000E-02
753.8409, 0.1140480
754.3231, 7.6045997E-02
754.8052, 0.3532490
755.2873, 0.3017540
755.7694, 0.1566930
756.2515, 0.4549980
756.7336, 0.1764410
757.2158, 1.067921
757.6979, 0.8611450
758.1800, 0.2436410
758.6621, 0.8951680
759.1442, 0.6002660
759.6263, 4.3205000E-02
760.1085, 0.3548930
760.5906, 0.3323170
761.0727, 0.2589570
761.5548, 2.5420999E-02
762.0369, 0.1104130
762.5190, 0.1512680
763.0012, 0.5501440
763.4833, 1.101700
763.9654, 1.673096
764.4475, 1.817287
764.9296, 1.065865
765.4117, 0.3526120
765.8939, 0.6623310
766.3760, 1.474621
766.8581, 1.806206
767.3402, 1.556396
767.8223, 1.143040
768.3044, 0.8065910
768.7866, 0.5846900
769.2687, 0.6082380
769.7508, 0.9775730
770.2329, 1.226189
770.7150, 1.298946
771.1971, 1.308357
771.6793, 1.231903
772.1614, 1.154987
772.6435, 1.217110
773.1256, 1.449844
773.6077, 1.657288
774.0898, 1.829376
774.5720, 1.898483
775.0541, 1.726688
775.5362, 1.423447
776.0183, 1.219086
776.5004, 1.173763
776.9825, 1.171524
777.4647, 1.128105
777.9468, 1.015099
778.4289, 0.6040650
778.9110, 0.2223780
779.3931, 0.7075420
779.8752, 0.5242690
780.3574, 0.1827160
780.8395, 0.1610680
781.3216, 0.3822440
781.8037, 0.4378620
782.2858, 3.5927001E-02
782.7679, 0.1526340
783.2501, 0.2191350
783.7322, 0.7350120
784.2143, 1.090420
784.6964, 1.257050
785.1785, 1.320805
785.6606, 1.328270
786.1428, 1.280148
786.6249, 1.089748
787.1070, 0.7866330
787.5891, 0.4986610
788.0712, 0.2356760
788.5533, 0.2247200
789.0355, 0.6417850
789.5176, 1.141735
789.9997, 1.161514
790.4818, 0.5657120
790.9639, 0.3376460
791.4460, 1.049088
791.9282, 1.383488
792.4103, 0.6281240
792.8924, 0.3134190
793.3745, 0.4964450
793.8566, 4.7695000E-02
794.3387, 0.1360280
794.8209, 0.4966580
795.3030, 1.366314
795.7851, 2.001781
796.2672, 2.433510
796.7493, 2.680023
797.2314, 2.775208
797.7136, 2.845657
798.1957, 2.947742
798.6778, 3.137672
799.1599, 3.574471
799.6420, 4.297649
800.1241, 5.108421
800.6063, 6.084927
801.0884, 7.062576
801.5705, 7.930904
802.0526, 8.717014
802.5347, 9.447662
803.0168, 10.16186
803.4990, 11.07716
803.9811, 12.40912
804.4632, 13.72466
804.9453, 14.63006
805.4274, 15.44383
805.9095, 16.63273
806.3917, 18.28011
806.8738, 20.19350
807.3559, 22.23141
807.8380, 24.26868
808.3201, 25.92278
808.8022, 27.27898
809.2844, 29.27190
809.7665, 32.15396
810.2486, 35.16129
810.7307, 37.71709
811.2128, 40.00470
811.6949, 42.57368
812.1771, 45.64549
812.6592, 48.58698
813.1413, 51.41139
813.6234, 54.03262
814.1055, 55.92870
814.5876, 57.87733
815.0698, 60.95877
815.5519, 65.31626
816.0340, 69.72148
816.5161, 73.15926
816.9982, 76.47914
817.4803, 80.80424
817.9625, 85.72459
818.4446, 90.09894
818.9267, 93.71683
819.4088, 97.29912
819.8909, 101.4642
820.3730, 106.0826
820.8552, 110.5786
821.3373, 114.8996
821.8194, 119.5522
822.3015, 125.3891
822.7836, 130.2723
823.2657, 132.5451
823.7479, 133.0782
824.2300, 133.6269
824.7121, 134.5017
825.1942, 134.3558
825.6763, 132.8154
826.1584, 130.3057
826.6406, 126.6743
827.1227, 122.4081
827.6048, 118.1887
828.0869, 114.1297
828.5690, 109.7528
829.0511, 104.5396
829.5333, 98.99193
830.0154, 93.90869
830.4975, 89.26147
830.9796, 84.87143
831.4617, 80.69728
831.9438, 77.03052
832.4260, 74.15810
832.9081, 71.82078
833.3902, 69.17683
833.8723, 65.99355
834.3544, 63.09435
834.8365, 60.36561
835.3187, 58.10558
835.8008, 56.77454
836.2829, 55.76372
836.7650, 54.21914
837.2471, 52.04278
837.7292, 50.11562
838.2114, 48.65973
838.6935, 47.58438
839.1756, 47.19572
839.6577, 46.96621
840.1398, 45.96909
840.6219, 44.26032
841.1041, 42.88580
841.5862, 42.57829
842.0683, 42.82223
842.5504, 42.72740
843.0325, 42.36324
843.5146, 42.20928
843.9968, 42.34063
844.4789, 42.41739
844.9610, 42.23566
845.4431, 41.93415
845.9252, 41.71790
846.4073, 41.49403
846.8895, 41.79839
847.3716, 43.49953
847.8537, 44.56081
848.3358, 43.98424
848.8179, 43.04747
849.3000, 43.03709
849.7822, 43.78247
850.2643, 43.99505
850.7464, 42.86786
851.2285, 41.69612
851.7106, 41.22507
852.1927, 41.11369
852.6749, 41.00280
853.1570, 40.87362
853.6391, 40.88678
854.1212, 41.11520
854.6033, 41.30803
855.0854, 40.90268
855.5676, 40.14867
856.0497, 40.42290
856.5318, 41.77355
857.0139, 42.87540
857.4960, 43.21410
857.9781, 43.48617
858.4603, 44.45705
858.9424, 46.06017
859.4245, 47.50867
859.9066, 48.35693
860.3887, 49.81985
860.8708, 52.35657
861.3530, 55.14365
861.8351, 57.65929
862.3172, 60.15890
862.7993, 63.16578
863.2814, 66.84941
863.7635, 70.64852
864.2457, 74.04436
864.7278, 77.76144
865.2099, 82.55714
865.6920, 88.01366
866.1741, 93.27241
866.6563, 98.20264
867.1384, 103.2803
867.6205, 108.8967
868.1026, 114.8318
868.5847, 120.2920
869.0668, 125.5150
869.5490, 132.3220
870.0311, 141.0134
870.5132, 150.2649
870.9953, 159.5276
871.4774, 168.5593
871.9595, 176.7541
872.4417, 183.8101
872.9238, 191.7470
873.4059, 200.3843
873.8880, 210.2676
874.3701, 222.5220
874.8522, 235.3027
875.3344, 247.1586
875.8165, 258.1625
876.2986, 268.9906
876.7807, 280.1374
877.2628, 290.5178
877.7449, 300.4013
878.2271, 308.7585
878.7092, 314.5966
879.1913, 318.0677
879.6734, 319.7309
880.1555, 319.7717
880.6376, 317.9826
881.1198, 314.1441
881.6019, 308.2914
882.0840, 300.3761
882.5661, 290.4779
883.0482, 278.6484
883.5303, 264.9512
884.0125, 250.4222
884.4946, 235.8313
884.9767, 221.2815
885.4588, 207.1057
885.9409, 193.2932
886.4230, 179.7777
886.9052, 166.2836
887.3873, 153.6132
887.8694, 142.1479
888.3515, 131.6152
888.8336, 121.4163
889.3157, 111.5179
889.7979, 102.4800
890.2800, 94.44651
890.7621, 87.06822
891.2442, 80.37270
891.7263, 74.18489
892.2084, 68.45435
892.6906, 63.11251
893.1727, 58.08662
893.6548, 53.25998
894.1369, 49.02303
894.6190, 45.92933
895.1011, 43.32984
895.5833, 40.56581
896.0654, 37.66096
896.5475, 34.75331
897.0296, 31.92863
897.5117, 29.37582
897.9938, 27.30602
898.4760, 25.62071
898.9581, 24.10305
899.4402, 22.74001
899.9223, 21.40648
900.4044, 20.07870
900.8865, 18.87326
901.3687, 17.85705
901.8508, 16.99301
902.3329, 16.23827
902.8150, 15.62991
903.2971, 14.99950
903.7792, 14.37556
904.2614, 13.71357
904.7435, 12.86401
905.2256, 12.08204
905.7077, 11.70338
906.1898, 11.62263
906.6719, 11.28951
907.1541, 10.46856
907.6362, 9.748608
908.1183, 9.211819
908.6004, 8.885258
909.0825, 8.974518
909.5646, 9.168411
910.0468, 8.976543
910.5289, 8.318504
911.0110, 7.538586
911.4931, 6.733097
911.9752, 6.042114
912.4573, 5.727409
912.9395, 5.581547
913.4216, 5.087997
913.9037, 4.277466
914.3858, 3.758377
914.8679, 3.917229
915.3500, 4.397938
915.8321, 4.705070
916.3142, 4.819199
916.7963, 4.462631
917.2784, 3.592228
917.7606, 3.039124
918.2427, 3.151535
918.7248, 3.450371
919.2069, 3.448574
919.6890, 3.169182
920.1711, 2.757092
920.6533, 2.061825
921.1354, 1.610043
921.6175, 1.730114
922.0996, 1.721828
922.5817, 0.8615150
923.0638, 0.1916660
923.5460, 0.2870860
924.0281, 0.7701380
924.5102, 1.242985
924.9923, 0.3072280
925.4744, 0.5063210
925.9565, 0.5567130
926.4387, 0.3238180
926.9208, 0.2207300
927.4029, 0.2488330
927.8850, 0.2357030
928.3671, 9.9705003E-02
928.8492, 2.0564999E-02
929.3314, 0.1272960
929.8135, 0.3511280
930.2956, 0.7525290
930.7777, 1.175549
931.2598, 1.229343
931.7419, 0.8754500
932.2241, 0.5282710
932.7062, 0.5109210
933.1883, 0.6937140
933.6704, 0.8882710
934.1525, 1.078564
934.6346, 1.197708
935.1168, 1.238245
935.5989, 1.196188
936.0810, 1.060923
936.5631, 0.9118650
937.0452, 0.8824330
937.5273, 0.6405580
938.0095, 0.7783510
938.4916, 0.2583390
938.9737, 0.1065850
939.4558, 0.2126450
939.9379, 0.1652600
940.4200, 3.3884000E-02
940.9022, 0.2975120
941.3843, 0.4014450
941.8664, 0.3025020
942.3485, 0.1773240
942.8306, 1.5129000E-02
943.3127, 0.1797160
943.7949, 0.2499370
944.2770, 0.3144630
944.7591, 0.5535370
945.2412, 0.8723090
945.7233, 0.8466220
946.2054, 0.1117820
946.6876, 0.3751960
947.1697, 5.7434000E-02
947.6518, 0.4266890
948.1339, 0.6174260
948.6160, 0.6408560
949.0981, 0.8009990
949.5803, 1.119957
950.0624, 1.255814
950.5445, 0.8829500
951.0266, 0.4169370
951.5087, 0.2333680
951.9908, 0.2562330
952.4730, 0.3989120
952.9551, 0.6216890
953.4372, 0.8901860
953.9193, 1.182070
954.4014, 1.345242
954.8835, 1.151115
955.3657, 0.7228600
955.8478, 0.3732760
956.3299, 0.1094210
956.8120, 2.7101999E-02
957.2941, 0.1466620
957.7762, 0.1958480
958.2584, 2.5847999E-02
958.7405, 0.3302750
959.2226, 0.3096310
959.7047, 6.3983999E-02
960.1868, 0.3189410
960.6689, 0.4674950
961.1511, 0.4296910
961.6332, 0.1070310
962.1153, 0.2573680
962.5974, 0.4768520
963.0795, 0.5479070
963.5616, 0.4368230
964.0438, 7.2649002E-02
964.5259, 0.2984870
965.0080, 1.8114001E-02
965.4901, 0.2598320
965.9722, 0.5405560
966.4543, 0.6111410
966.9365, 9.0007998E-02
967.4186, 0.9392600
967.9007, 1.659260
968.3828, 1.901405
968.8649, 1.915257
969.3470, 1.421337
969.8292, 1.049587
970.3113, 1.363867
970.7934, 2.000368
971.2755, 2.353046
971.7576, 2.327578
972.2397, 2.322849
972.7219, 2.548241
973.2040, 2.828999
973.6861, 3.017662
974.1682, 3.227255
974.6503, 3.668009
975.1324, 4.237671
975.6146, 4.610245
976.0967, 4.676880
976.5788, 4.742811
977.0609, 5.171103
977.5430, 5.680529
978.0251, 5.784338
978.5073, 5.681267
978.9894, 5.899549
979.4715, 6.451900
979.9536, 6.875765
980.4357, 6.911772
980.9178, 6.849703
981.4000, 7.179522
981.8821, 7.760740
982.3642, 7.979931
982.8463, 7.874079
983.3284, 7.781889
983.8105, 7.803051
984.2927, 7.956438
984.7748, 8.255486
985.2569, 8.679562
985.7390, 9.212824
986.2211, 9.867117
986.7032, 10.46578
987.1854, 11.05350
987.6675, 11.24218
988.1496, 10.77373
988.6317, 10.23946
989.1138, 10.23575
989.5959, 10.65976
990.0781, 10.94178
990.5602, 10.85569
991.0423, 11.26973
991.5244, 12.59665
992.0065, 13.66995
992.4886, 13.96985
992.9708, 13.91014
993.4529, 13.84595
993.9350, 13.80689
994.4171, 14.06336
994.8992, 14.83755
995.3813, 15.54428
995.8635, 16.20851
996.3456, 16.75093
996.8277, 16.88492
997.3098, 16.97490
997.7919, 17.59741
998.2740, 18.72612
998.7562, 19.54211
999.2383, 19.64695
999.7204, 19.78722
1000.203, 19.98136
1000.685, 20.45663
1001.167, 21.56839
1001.649, 22.96275
1002.131, 24.05858
1002.613, 24.77613
1003.095, 25.50502
1003.577, 26.54834
1004.059, 27.48993
1004.542, 28.01909
1005.024, 28.41100
1005.506, 29.15927
1005.988, 29.95891
1006.470, 29.96204
1006.952, 28.98616
1007.434, 28.11971
1007.916, 28.49280
1008.398, 28.91268
1008.881, 28.12531
1009.363, 26.70490
1009.845, 25.49951
1010.327, 24.49453
1010.809, 23.16079
1011.291, 21.31738
1011.773, 19.53396
1012.255, 18.48279
1012.738, 16.97256
1013.220, 15.73526
1013.702, 14.74076
1014.184, 13.51690
1014.666, 12.73679
1015.148, 12.05312
1015.630, 11.28981
1016.112, 10.47289
1016.594, 9.608532
1017.077, 8.766689
1017.559, 8.107891
1018.041, 7.601852
1018.523, 7.135084
1019.005, 6.682178
1019.487, 6.270802
1019.969, 5.916296
1020.451, 5.613798
1020.934, 5.427452
1021.416, 5.293100
1021.898, 4.606062
1022.380, 3.377136
1022.862, 2.827362
1023.344, 3.236382
1023.826, 3.652630
1024.308, 3.498293
1024.791, 3.030899
1025.273, 2.600407
1025.755, 2.182001
1026.237, 2.096294
1026.719, 2.383680
1027.201, 2.696571
1027.683, 3.005184
1028.165, 3.127090
1028.647, 2.878094
1029.130, 2.455883
1029.612, 2.309992
1030.094, 2.472132
1030.576, 2.470610
1031.058, 2.241646
1031.540, 2.064306
1032.022, 2.016617
1032.504, 2.005606
1032.986, 1.917440
1033.469, 1.817760
1033.951, 1.912399
1034.433, 1.821198
1034.915, 1.721937
1035.397, 1.860910
1035.879, 1.551100
1036.361, 1.681900
1036.843, 1.881723
1037.326, 1.878788
1037.808, 1.759129
1038.290, 1.723963
1038.772, 1.799519
1039.254, 1.894321
1039.736, 2.133846
1040.218, 2.071543
1040.700, 1.191908
1041.182, 0.4453540
1041.665, 0.6530460
1042.147, 1.425285
1042.629, 1.892265
1043.111, 2.021984
1043.593, 1.999620
1044.075, 1.619791
1044.557, 1.378250
1045.039, 1.550917
1045.521, 1.727785
1046.004, 1.539061
1046.486, 1.164660
1046.968, 1.039612
1047.450, 1.269760
1047.932, 1.305321
1048.414, 0.8697400
1048.896, 0.5312440
1049.378, 0.4225980
1049.861, 0.4791240
1050.343, 0.8004720
1050.825, 1.199430
1051.307, 1.245388
1051.789, 0.8205640
1052.271, 0.6848090
1052.753, 1.338003
1053.235, 1.822769
1053.718, 1.714254
1054.200, 1.445402
1054.682, 1.310534
1055.164, 1.268677
1055.646, 1.165516
1056.128, 0.9685460
1056.610, 0.9086170
1057.092, 1.246077
1057.574, 1.462893
1058.057, 1.287762
1058.539, 1.016712
1059.021, 0.7395950
1059.503, 0.5767480
1059.985, 0.8575360
1060.467, 1.622337
1060.949, 1.838236
1061.431, 0.4573150
1061.913, 0.5742280
1062.396, 0.2354450
1062.878, 0.4764800
1063.360, 0.8903200
1063.842, 1.076591
1064.324, 1.286198
1064.806, 1.547552
1065.288, 1.627851
1065.770, 1.261238
1066.253, 0.9308300
1066.735, 0.8338150
1067.217, 0.8514650
1067.699, 1.031685
1068.181, 1.196316
1068.663, 0.9627740
1069.145, 0.3580470
1069.627, 7.9925999E-02
1070.109, 0.5832540
1070.592, 1.130274
1071.074, 1.508430
1071.556, 1.686171
1072.038, 1.511930
1072.520, 1.197334
1073.002, 1.065125
1073.484, 1.115742
1073.966, 1.043966
1074.448, 0.6431670
1074.931, 0.3167920
1075.413, 0.1717380
1075.895, 0.2586770
1076.377, 0.8685070
1076.859, 1.576336
1077.341, 1.782007
1077.823, 1.508814
1078.305, 1.227427
1078.788, 1.082293
1079.270, 0.9956930
1079.752, 0.9587170
1080.234, 0.9386670
1080.716, 0.8691960
1081.198, 0.8348580
1081.680, 0.9960980
1082.162, 1.288172
1082.644, 1.456421
1083.127, 1.405342
1083.609, 1.314001
1084.091, 1.184813
1084.573, 1.129520
1085.055, 1.304031
1085.537, 1.519022
1086.019, 1.595642
1086.501, 1.531242
1086.984, 1.344967
1087.466, 1.022497
1087.948, 0.7998330
1088.430, 0.9747310
1088.912, 1.027147
1089.394, 0.4362810
1089.876, 0.1830200
1090.358, 0.1309220
1090.840, 0.3046890
1091.323, 0.3977720
1091.805, 5.2100001E-04
1092.287, 0.2259460
1092.769, 0.1721120
1093.251, 0.5119570
1093.733, 0.3475670
1094.215, 0.1709920
1094.697, 0.5757350
1095.179, 1.136698
1095.662, 0.9866240
1096.144, 9.0218998E-02
1096.626, 0.4439540
1097.108, 5.4520000E-02
1097.590, 0.4518890
1098.072, 0.2444610
1098.554, 3.4184001E-02
1099.036, 9.5137000E-02
1099.519, 6.6829999E-03
1100.001, 0.2170640
1100.483, 0.4885830
1100.965, 0.6762580
1101.447, 0.7768340
1101.929, 0.7215730
1102.411, 0.2615870
1102.893, 8.0002002E-02
1103.375, 1.2215000E-02
1103.858, 0.2592620
1104.340, 0.6112120
1104.822, 0.9691750
1105.304, 1.153082
1105.786, 1.125834
1106.268, 0.9614450
1106.750, 0.4859090
1107.232, 0.1229690
1107.714, 7.6792002E-02
1108.197, 0.1415600
1108.679, 0.1711600
1109.161, 0.1780400
1109.643, 0.1899090
1110.125, 0.1916690
1110.607, 0.3367480
1111.089, 0.9775180
1111.571, 1.263172
1112.054, 0.6671700
1112.536, 7.1750998E-02
1113.018, 1.4309000E-02
1113.500, 0.2500800
1113.982, 0.4488010
1114.464, 0.6083410
1114.946, 0.5818420
1115.428, 2.6875000E-02
1115.911, 0.1363240
1116.393, 0.5482290
1116.875, 1.053776
1117.357, 0.7844980
1117.839, 0.3261450
1118.321, 0.3260290
1118.803, 0.6973920
1119.285, 0.9499050
1119.767, 1.099129
1120.250, 1.003693
1120.732, 0.5049970
1121.214, 6.7217000E-02
1121.696, 0.1855410
1122.178, 0.3150980
1122.660, 0.3573070
1123.142, 0.3248310
1123.624, 0.2455750
1124.106, 0.1154980
1124.589, 1.1667000E-02
1125.071, 0.1057610
1125.553, 0.3375700
1126.035, 0.8297290
1126.517, 1.166077
1126.999, 1.050137
1127.481, 0.7505590
1127.963, 0.7326740
1128.446, 0.5074480
1128.928, 0.2674030
1129.410, 0.2291090
1129.892, 0.1019540
1130.374, 0.1035630
1130.856, 3.2060999E-02
1131.338, 0.2325330
1131.820, 0.5017510
1132.302, 0.8559280
1132.785, 1.248816
1133.267, 1.577930
1133.749, 1.834843
1134.231, 1.773701
1134.713, 1.393194
1135.195, 1.103407
1135.677, 1.018581
1136.159, 1.008135
1136.641, 0.9863430
1137.124, 0.9287410
1137.606, 0.6950630
1138.088, 0.4050540
1138.570, 0.6291750
1139.052, 1.228945
1139.534, 1.527485
1140.016, 1.450605
1140.498, 1.319994
1140.981, 1.289112
1141.463, 1.334040
1141.945, 1.458609
1142.427, 1.606884
1142.909, 1.732904
1143.391, 1.786310
1143.873, 1.530718
1144.355, 1.107119
1144.838, 1.023840
1145.320, 1.380735
1145.802, 1.792730
1146.284, 2.059647
1146.766, 2.113688
1147.248, 1.666285
1147.730, 1.138618
1148.212, 1.100061
1148.694, 1.379780
1149.177, 1.704063
1149.659, 1.969748
1150.141, 2.042152
1150.623, 1.886360
1151.105, 1.694813
1151.587, 1.527515
1152.069, 1.438692
1152.551, 1.564791
1153.033, 1.709852
1153.516, 1.676636
1153.998, 1.497152
1154.480, 1.215229
1154.962, 0.9095270
1155.444, 0.7263680
1155.926, 0.6383630
1156.408, 0.7968060
1156.890, 1.562897
1157.373, 2.234972
1157.855, 2.403862
1158.337, 2.262356
1158.819, 1.931616
1159.301, 1.500753
1159.783, 1.312046
1160.265, 1.517279
1160.747, 1.621098
1161.229, 1.480911
1161.712, 1.413965
1162.194, 1.559464
1162.676, 1.713417
1163.158, 1.730165
1163.640, 1.678602
1164.122, 1.699316
1164.604, 1.797167
1165.086, 1.724617
1165.568, 1.776823
1166.051, 1.919144
1166.533, 1.764988
1167.015, 2.090626
1167.497, 1.943653
1167.979, 1.672117
1168.461, 1.613152
1168.943, 1.722353
1169.425, 1.916454
1169.908, 2.189188
1170.390, 2.153564
1170.872, 1.807615
1171.354, 1.439371
1171.836, 1.118835
1172.318, 0.9851110
1172.800, 1.158987
1173.282, 1.336226
1173.765, 1.001345
1174.247, 1.118498
1174.729, 0.9996910
1175.211, 0.8482300
1175.693, 0.8342550
1176.175, 0.4504800
1176.657, 0.4076230
1177.139, 0.9036900
1177.621, 1.466867
1178.104, 1.809607
1178.586, 1.866571
1179.068, 1.248295
1179.550, 0.5327400
1180.032, 0.6550500
1180.514, 1.230478
1180.996, 1.575926
1181.478, 1.600002
1181.960, 1.417009
1182.443, 1.055231
1182.925, 0.7800790
1183.407, 0.7531680
1183.889, 0.8577880
1184.371, 1.235485
1184.853, 1.509079
1185.335, 1.134516
1185.817, 0.5430320
1186.300, 0.5528790
1186.782, 1.153124
1187.264, 1.430052
1187.746, 1.014875
1188.228, 0.6443500
1188.710, 0.4050270
1189.192, 0.2849310
1189.674, 0.3124140
1190.156, 0.4305840
1190.639, 0.6729760
1191.121, 0.9369790
1191.603, 0.9735550
1192.085, 0.7559570
1192.567, 0.6751060
1193.049, 0.8000560
1193.531, 0.8360290
1194.013, 0.6623780
1194.495, 0.7125610
1194.978, 1.260138
1195.460, 1.805893
1195.942, 1.813181
1196.424, 1.461859
1196.906, 1.276831
1197.388, 1.249701
1197.870, 1.197971
1198.352, 1.123093
1198.835, 1.088804
1199.317, 1.110395
1199.799, 1.227259
1200.281, 1.462008
1200.763, 1.693884
1201.245, 1.815331
1201.727, 1.800871
1202.209, 1.460060
1202.692, 1.018084
1203.174, 0.9653380
1203.656, 1.226986
1204.138, 1.597136
1204.620, 1.954132
1205.102, 1.986069
1205.584, 1.454594
1206.066, 1.001221
1206.548, 1.235048
1207.031, 1.564434
1207.513, 1.515259
1207.995, 1.623592
1208.477, 1.352350
1208.959, 1.453873
1209.441, 1.354849
1209.923, 1.019976
1210.405, 0.7629390
1210.887, 0.6674670
1211.370, 0.6403120
1211.852, 0.6799110
1212.334, 0.7695580
1212.816, 1.071367
1213.298, 1.246492
1213.780, 0.8242070
1214.262, 0.1634120
1214.744, 0.2378030
1215.227, 1.171232
1215.709, 1.471226
1216.191, 0.9274940
1216.673, 0.6611000
1217.155, 0.8879740
1217.637, 1.011551
1218.119, 0.7498040
1218.601, 0.4446430
1219.083, 0.4598540
1219.566, 0.6379720
1220.048, 0.5882700
1220.530, 0.3629460
1221.012, 0.1811080
1221.494, 5.1270999E-02
1221.976, 5.6289998E-03
1222.458, 2.3515999E-02
1222.940, 6.7652002E-02
1223.422, 0.3362850
1223.905, 0.4943240
1224.387, 0.2385920
1224.869, 0.1689010
1225.351, 0.6531370
1225.833, 0.9538170
1226.315, 0.4678060
1226.797, 0.2715530
1227.279, 0.2241040
1227.762, 0.4965650
1228.244, 0.7753620
1228.726, 0.1504440
1229.208, 0.1902690
1229.690, 0.4632000
1230.172, 1.027239
1230.654, 0.9617080
1231.136, 0.8588640
1231.619, 1.230320
1232.101, 1.711269
1232.583, 1.824213
1233.065, 1.597845
1233.547, 1.187248
1234.029, 0.4297160
1234.511, 5.0978001E-02
1234.993, 0.1109960
1235.475, 0.3566720
1235.958, 0.7824630
1236.440, 1.125717
1236.922, 1.220842
1237.404, 1.236973
1237.886, 1.422798
1238.368, 1.417635
1238.850, 1.391352
1239.332, 1.439047
1239.814, 1.281813
1240.297, 1.200357
1240.779, 1.197781
1241.261, 1.236101
1241.743, 1.071909
1242.225, 0.5578840
1242.707, 0.1979580
1243.189, 0.6335700
1243.671, 1.202126
1244.154, 1.328207
1244.636, 1.249571
1245.118, 1.161451
1245.600, 1.098396
1246.082, 1.090006
1246.564, 1.124155
1247.046, 1.117352
1247.528, 1.016981
1248.010, 0.9750900
1248.493, 1.207867
1248.975, 1.218464
1249.457, 0.5672090
1249.939, 9.4976000E-02
1250.421, 0.3806690
1250.903, 0.9618490
1251.385, 1.229296
1251.867, 1.239153
1252.349, 1.331802
1252.832, 1.527651
1253.314, 1.476818
1253.796, 1.157536
1254.278, 1.131369
1254.760, 1.512209
1255.242, 1.790266
1255.724, 1.848610
1256.206, 1.762585
1256.689, 1.562906
1257.171, 1.372105
1257.653, 1.416151
1258.135, 1.526842
1258.617, 1.535124
1259.099, 1.421736
1259.581, 1.133278
1260.063, 0.7492640
1260.546, 0.5688440
1261.028, 0.7112580
1261.510, 0.8817060
1261.992, 1.010139
1262.474, 1.052826
1262.956, 0.9658660
1263.438, 0.8165470
1263.920, 0.5385320
1264.402, 0.3027230
1264.885, 0.2799990
1265.367, 0.4717390
1265.849, 0.9470860
1266.331, 1.837692
1266.813, 2.115480
1267.295, 1.635010
1267.777, 1.243544
1268.259, 1.080570
1268.741, 0.8773040
1269.224, 0.5106560
1269.706, 0.1830350
1270.188, 9.2671998E-02
1270.670, 0.1297510
1271.152, 2.5023000E-02
1271.634, 7.3008001E-02
1272.116, 0.3343830
1272.598, 0.9825210
1273.081, 1.247437
1273.563, 1.130772
1274.045, 0.8637910
1274.527, 0.5460320
1275.009, 0.3714200
1275.491, 0.5088370
1275.973, 0.6437840
1276.455, 0.6456180
1276.938, 0.5768450
1277.420, 0.3930630
1277.902, 0.2278440
1278.384, 0.1822990
1278.866, 0.2494770
1279.348, 0.4349460
1279.830, 0.7715400
1280.312, 0.8483220
1280.794, 0.5835130
1281.276, 0.3799860
1281.759, 0.2608550
1282.241, 0.1420970
1282.723, 9.1800001E-03
1283.205, 4.8540002E-03
1283.687, 0.2784920
1284.169, 0.5933360
1284.651, 0.4624560
1285.133, 0.1210210
1285.616, 2.4141001E-02
1286.098, 0.0000000E+00
##END=



