##NAMES=Grossular
##RRUFFID=R100146
##IDEAL CHEMISTRY=Ca_3_Al_2_(SiO_4_)_3_
##LOCALITY=Sri Lanka
##OWNER=RRUFF
##SOURCE=William W. Pinch
##DESCRIPTION=Red cut gemstone
##STATUS=The identification of this mineral has been confirmed only by single crystal X-ray diffraction.
##URL=rruff.info/R100146
91.03516, 0.0000000E+00
91.51727, 3.550135
91.99939, 4.242283
92.48151, 2.309315
92.96362, 7.7249999E-03
93.44574, 6.3591003E-02
93.92786, 1.325106
94.40997, 2.688400
94.89210, 3.870749
95.37421, 4.674639
95.85633, 4.682529
96.33845, 3.771069
96.82056, 2.785118
97.30268, 2.403339
97.78480, 2.571278
98.26691, 2.845861
98.74903, 3.261921
99.23115, 3.619680
99.71326, 3.617741
100.1954, 3.140377
100.6775, 2.908430
101.1596, 3.433145
101.6417, 4.903477
102.1239, 6.318035
102.6060, 7.558340
103.0881, 8.618340
103.5702, 9.196332
104.0523, 9.022839
104.5344, 8.466136
105.0166, 7.924489
105.4987, 7.257019
105.9808, 6.973098
106.4629, 7.076580
106.9450, 7.982628
107.4271, 8.837750
107.9093, 9.835146
108.3914, 10.73466
108.8735, 10.84672
109.3556, 9.042189
109.8377, 7.675725
110.3198, 7.104571
110.8020, 8.374859
111.2841, 9.726974
111.7662, 10.29206
112.2483, 11.72075
112.7304, 13.07478
113.2125, 14.08558
113.6947, 15.58176
114.1768, 15.99445
114.6589, 14.66298
115.1410, 13.91864
115.6231, 13.90954
116.1052, 14.45729
116.5874, 14.94899
117.0695, 15.78297
117.5516, 16.24658
118.0337, 15.87835
118.5158, 13.53152
118.9980, 11.05848
119.4801, 9.029907
119.9622, 7.485688
120.4443, 6.731519
120.9264, 7.834146
121.4085, 9.594773
121.8907, 10.54266
122.3728, 9.135013
122.8549, 7.268277
123.3370, 6.673786
123.8191, 7.445829
124.3012, 8.240050
124.7834, 7.816768
125.2655, 6.603677
125.7476, 5.515070
126.2297, 5.236370
126.7118, 5.269671
127.1939, 4.781291
127.6761, 3.618556
128.1582, 2.441434
128.6403, 2.275025
129.1224, 2.890478
129.6045, 3.184098
130.0867, 1.917799
130.5688, 0.2583950
131.0509, 0.9260580
131.5330, 0.5732690
132.0151, 2.689434
132.4972, 2.357473
132.9794, 0.4275480
133.4615, 3.016414
133.9436, 3.101119
134.4257, 0.9183680
134.9078, 0.1411540
135.3899, 0.7299250
135.8721, 2.722716
136.3542, 3.424391
136.8363, 2.602545
137.3184, 1.515153
137.8005, 1.262767
138.2826, 1.982860
138.7648, 2.466237
139.2469, 2.459031
139.7290, 2.023516
140.2111, 1.638102
140.6932, 1.299307
141.1753, 0.9996590
141.6575, 0.7548180
142.1396, 0.5891420
142.6217, 0.3781390
143.1038, 4.8796002E-02
143.5859, 0.4228900
144.0681, 0.6005190
144.5502, 0.1172030
145.0323, 0.3283040
145.5144, 0.1678330
145.9965, 2.388290
146.4786, 4.340351
146.9608, 5.466398
147.4429, 5.614111
147.9250, 5.679960
148.4071, 5.569899
148.8892, 5.611721
149.3713, 5.778143
149.8535, 6.012520
150.3356, 6.436035
150.8177, 7.079226
151.2998, 7.990751
151.7819, 9.059822
152.2640, 10.27853
152.7462, 11.64599
153.2283, 13.13960
153.7104, 14.93955
154.1925, 16.71940
154.6746, 18.36244
155.1567, 19.83607
155.6389, 21.16851
156.1210, 22.25472
156.6031, 23.20016
157.0852, 24.27798
157.5673, 25.40315
158.0495, 26.75995
158.5316, 28.46090
159.0137, 30.58204
159.4958, 32.96604
159.9779, 36.03741
160.4600, 39.45595
160.9422, 42.11665
161.4243, 42.54963
161.9064, 42.73072
162.3885, 44.04135
162.8706, 48.11229
163.3527, 51.86792
163.8349, 53.63834
164.3170, 53.84441
164.7991, 54.48684
165.2812, 56.56295
165.7633, 59.46938
166.2454, 62.68052
166.7276, 66.55748
167.2097, 70.21820
167.6918, 72.88464
168.1739, 74.67867
168.6560, 76.81551
169.1381, 79.94020
169.6203, 83.77644
170.1024, 87.19713
170.5845, 90.81335
171.0666, 94.62271
171.5487, 97.98596
172.0309, 100.9564
172.5130, 104.5645
172.9951, 109.4649
173.4772, 115.4438
173.9593, 122.2082
174.4414, 129.7062
174.9236, 137.8434
175.4057, 146.3796
175.8878, 155.3838
176.3699, 164.7934
176.8520, 175.2950
177.3341, 186.2765
177.8163, 196.4415
178.2984, 206.5762
178.7805, 215.1065
179.2626, 219.9711
179.7447, 221.1574
180.2268, 218.0506
180.7090, 208.5496
181.1911, 193.9489
181.6732, 178.1694
182.1553, 162.4843
182.6374, 146.9452
183.1195, 131.8872
183.6017, 117.0147
184.0838, 103.2558
184.5659, 91.02970
185.0480, 80.43183
185.5301, 71.46829
186.0123, 64.54427
186.4944, 59.31870
186.9765, 55.07797
187.4586, 51.83862
187.9407, 49.15394
188.4228, 46.38720
188.9050, 43.62001
189.3871, 41.17018
189.8692, 39.17335
190.3513, 37.51529
190.8334, 35.86124
191.3155, 34.19393
191.7977, 32.53346
192.2798, 30.69897
192.7619, 28.62086
193.2440, 26.68140
193.7261, 25.12540
194.2082, 23.99733
194.6904, 22.98748
195.1725, 22.19562
195.6546, 21.28656
196.1367, 19.36238
196.6188, 16.31525
197.1009, 13.79835
197.5831, 13.05354
198.0652, 14.06359
198.5473, 14.46410
199.0294, 14.04736
199.5115, 13.06802
199.9937, 11.86110
200.4758, 10.35060
200.9579, 9.166454
201.4400, 8.777016
201.9221, 9.239437
202.4042, 9.589500
202.8864, 9.832394
203.3685, 9.889122
203.8506, 9.414879
204.3327, 8.280724
204.8148, 7.083916
205.2969, 6.176094
205.7791, 5.609489
206.2612, 4.869476
206.7433, 3.710808
207.2254, 2.520332
207.7075, 2.478210
208.1896, 3.981186
208.6718, 5.478622
209.1539, 6.077415
209.6360, 5.580009
210.1181, 5.144531
210.6002, 4.795097
211.0823, 4.565025
211.5645, 4.578217
212.0466, 4.910194
212.5287, 5.314537
213.0108, 5.695557
213.4929, 6.101608
213.9750, 6.269127
214.4572, 5.993172
214.9393, 5.545792
215.4214, 5.885979
215.9035, 7.501419
216.3856, 8.917191
216.8678, 9.131729
217.3499, 7.565117
217.8320, 6.756584
218.3141, 7.064278
218.7962, 8.131386
219.2783, 8.790321
219.7605, 8.726501
220.2426, 8.807716
220.7247, 9.514565
221.2068, 11.02118
221.6889, 12.70321
222.1710, 14.81175
222.6532, 17.01032
223.1353, 17.98585
223.6174, 16.89072
224.0995, 16.01334
224.5816, 16.57483
225.0637, 19.16439
225.5459, 21.74208
226.0280, 24.30079
226.5101, 26.80530
226.9922, 28.97382
227.4743, 30.45212
227.9564, 32.18231
228.4386, 34.73712
228.9207, 38.51398
229.4028, 42.02700
229.8849, 45.23602
230.3670, 48.17734
230.8492, 51.00452
231.3313, 53.44908
231.8134, 56.13702
232.2955, 59.43774
232.7776, 63.55675
233.2597, 67.68674
233.7419, 71.80878
234.2240, 75.95854
234.7061, 80.11915
235.1882, 84.33616
235.6703, 88.48550
236.1524, 92.59006
236.6346, 96.63457
237.1167, 100.7618
237.5988, 105.1762
238.0809, 109.5855
238.5630, 113.4169
239.0451, 116.6425
239.5273, 119.2786
240.0094, 121.2503
240.4915, 122.2823
240.9736, 123.2878
241.4557, 124.1233
241.9378, 124.9901
242.4200, 126.2471
242.9021, 127.6632
243.3842, 129.8600
243.8663, 133.1366
244.3484, 137.7975
244.8306, 142.6426
245.3127, 148.1146
245.7948, 153.4640
246.2769, 157.5447
246.7590, 161.2358
247.2411, 162.2634
247.7233, 159.9374
248.2054, 154.3489
248.6875, 144.6269
249.1696, 129.1196
249.6517, 110.7835
250.1338, 94.30515
250.6160, 79.72087
251.0981, 66.86367
251.5802, 55.78149
252.0623, 46.38708
252.5444, 38.90127
253.0265, 33.77730
253.5087, 30.23966
253.9908, 27.35722
254.4729, 25.23501
254.9550, 23.51637
255.4371, 22.14521
255.9192, 21.16008
256.4014, 20.27010
256.8835, 19.37072
257.3656, 18.67057
257.8477, 18.41543
258.3298, 18.68616
258.8120, 19.23046
259.2941, 20.04949
259.7762, 21.16724
260.2583, 22.20763
260.7404, 23.14411
261.2225, 24.04663
261.7047, 25.04079
262.1868, 26.20590
262.6689, 27.23288
263.1510, 27.92482
263.6331, 28.29763
264.1152, 29.35040
264.5974, 31.32787
265.0795, 33.59802
265.5616, 35.43076
266.0437, 36.62140
266.5258, 38.16086
267.0079, 40.28073
267.4901, 42.94123
267.9722, 45.63276
268.4543, 48.44972
268.9364, 51.17554
269.4185, 53.49181
269.9006, 55.16552
270.3828, 57.46381
270.8649, 60.72048
271.3470, 64.74931
271.8291, 68.61292
272.3112, 72.12326
272.7933, 76.08105
273.2755, 81.26387
273.7576, 87.91330
274.2397, 94.03402
274.7218, 99.09985
275.2039, 103.6019
275.6860, 109.3929
276.1682, 117.0495
276.6503, 124.0316
277.1324, 128.9516
277.6145, 131.7610
278.0966, 132.7673
278.5787, 132.0632
279.0609, 129.5324
279.5430, 124.6553
280.0251, 117.3073
280.5072, 108.5314
280.9893, 98.18049
281.4715, 86.35374
281.9536, 75.79404
282.4357, 66.69815
282.9178, 58.72972
283.3999, 51.31401
283.8820, 44.43143
284.3642, 38.36358
284.8463, 33.34064
285.3284, 29.29786
285.8105, 25.74808
286.2926, 22.66493
286.7747, 20.06370
287.2569, 18.07349
287.7390, 16.67799
288.2211, 15.47561
288.7032, 14.41965
289.1853, 13.44396
289.6674, 12.24423
290.1496, 10.81116
290.6317, 9.196671
291.1138, 7.316940
291.5959, 5.227356
292.0780, 3.376343
292.5602, 1.971054
293.0423, 0.8667830
293.5244, 0.3350070
294.0065, 1.636803
294.4886, 2.843155
294.9707, 3.766121
295.4529, 4.453186
295.9350, 5.061287
296.4171, 5.657761
296.8992, 6.183479
297.3813, 6.504097
297.8634, 6.629715
298.3456, 6.678391
298.8277, 6.710152
299.3098, 6.731926
299.7919, 6.791916
300.2740, 6.978043
300.7561, 7.064995
301.2383, 6.752632
301.7204, 6.074905
302.2025, 5.206192
302.6846, 3.946220
303.1667, 2.647171
303.6488, 1.917618
304.1310, 2.015358
304.6131, 2.195007
305.0952, 1.664604
305.5773, 0.6163710
306.0594, 0.4255450
306.5415, 0.9698640
307.0237, 1.479584
307.5058, 2.606110
307.9879, 4.505913
308.4700, 6.298996
308.9521, 7.049606
309.4343, 7.264267
309.9164, 7.854012
310.3985, 9.723869
310.8806, 11.77702
311.3627, 12.99035
311.8448, 13.31868
312.3270, 13.90717
312.8091, 15.82497
313.2912, 18.26892
313.7733, 20.29057
314.2554, 21.33648
314.7375, 22.06406
315.2197, 22.81552
315.7018, 23.57455
316.1839, 24.11129
316.6660, 24.23179
317.1481, 24.13581
317.6302, 24.00113
318.1124, 24.17371
318.5945, 23.94064
319.0766, 22.57602
319.5587, 20.49652
320.0408, 19.12524
320.5229, 19.56983
321.0051, 20.38062
321.4872, 20.68653
321.9693, 19.80978
322.4514, 19.44433
322.9335, 20.24556
323.4156, 21.76194
323.8978, 23.12304
324.3799, 23.56905
324.8620, 24.36594
325.3441, 26.10545
325.8262, 29.21120
326.3083, 31.99553
326.7905, 34.30611
327.2726, 36.24466
327.7547, 37.90707
328.2368, 39.13513
328.7189, 40.27480
329.2010, 41.47960
329.6832, 42.78751
330.1653, 43.63653
330.6474, 43.97951
331.1295, 43.89683
331.6116, 43.41872
332.0938, 42.19279
332.5759, 41.15041
333.0580, 40.64980
333.5401, 40.52739
334.0222, 39.46417
334.5043, 36.56431
334.9865, 33.94341
335.4686, 32.96720
335.9507, 34.32675
336.4328, 35.43774
336.9149, 36.03208
337.3970, 36.36955
337.8792, 37.09639
338.3613, 38.25056
338.8434, 39.70909
339.3255, 41.49847
339.8076, 43.68128
340.2898, 45.73801
340.7719, 47.60106
341.2540, 49.48725
341.7361, 51.80064
342.2182, 54.53445
342.7003, 57.38199
343.1825, 60.13000
343.6646, 62.87110
344.1467, 65.99532
344.6288, 69.50977
345.1109, 73.50053
345.5930, 78.21519
346.0752, 83.56219
346.5573, 89.21168
347.0394, 95.18459
347.5215, 101.3605
348.0036, 107.5775
348.4857, 113.8155
348.9679, 120.2919
349.4500, 127.1850
349.9321, 134.5139
350.4142, 142.2799
350.8963, 150.5183
351.3784, 159.1412
351.8606, 167.5492
352.3427, 175.9867
352.8248, 185.5975
353.3069, 197.1588
353.7890, 210.1232
354.2711, 223.9887
354.7533, 238.6667
355.2354, 254.2010
355.7175, 270.0793
356.1996, 286.7551
356.6817, 305.0141
357.1638, 325.2423
357.6460, 347.1134
358.1281, 371.0932
358.6102, 396.9398
359.0923, 423.2571
359.5744, 448.5310
360.0565, 473.9692
360.5387, 500.7360
361.0208, 529.0485
361.5029, 558.9662
361.9850, 589.7244
362.4671, 621.8096
362.9492, 656.4222
363.4314, 694.3121
363.9135, 734.6240
364.3956, 776.9628
364.8777, 821.7456
365.3598, 867.8809
365.8419, 916.3491
366.3241, 965.7612
366.8062, 1013.721
367.2883, 1060.780
367.7704, 1105.513
368.2526, 1147.707
368.7347, 1187.590
369.2168, 1224.130
369.6989, 1257.108
370.1810, 1287.100
370.6631, 1314.938
371.1453, 1341.072
371.6274, 1364.483
372.1095, 1385.714
372.5916, 1404.503
373.0737, 1419.274
373.5558, 1433.401
374.0380, 1438.754
374.5201, 1431.534
375.0022, 1412.495
375.4843, 1378.317
375.9664, 1327.409
376.4485, 1262.644
376.9307, 1186.060
377.4128, 1096.048
377.8949, 1003.731
378.3770, 912.3276
378.8591, 822.4333
379.3412, 738.7347
379.8234, 661.7842
380.3055, 591.6957
380.7876, 530.3664
381.2697, 477.1271
381.7518, 429.8772
382.2339, 388.3844
382.7161, 352.3036
383.1982, 320.8441
383.6803, 294.2737
384.1624, 270.6413
384.6445, 248.7344
385.1266, 228.7874
385.6088, 211.8301
386.0909, 198.5308
386.5730, 186.8903
387.0551, 174.8606
387.5372, 162.8370
388.0193, 151.6693
388.5015, 141.7712
388.9836, 133.0320
389.4657, 125.4737
389.9478, 119.1478
390.4299, 113.6317
390.9120, 109.0174
391.3942, 104.9018
391.8763, 100.8478
392.3584, 96.47654
392.8405, 92.30114
393.3226, 88.54443
393.8047, 85.27467
394.2869, 82.39752
394.7690, 80.04808
395.2511, 77.89008
395.7332, 75.63590
396.2154, 72.90475
396.6975, 70.78570
397.1796, 69.32999
397.6617, 68.64119
398.1438, 68.88749
398.6259, 71.16489
399.1081, 73.32456
399.5902, 74.68173
400.0723, 75.08105
400.5544, 75.73048
401.0365, 76.83475
401.5186, 78.03627
402.0008, 79.04054
402.4829, 79.83058
402.9650, 80.42413
403.4471, 80.57941
403.9292, 80.54153
404.4113, 81.42346
404.8935, 83.55533
405.3756, 85.85166
405.8577, 87.60955
406.3398, 88.63691
406.8219, 90.52394
407.3040, 93.46577
407.7862, 96.94080
408.2683, 100.2194
408.7504, 103.2906
409.2325, 106.5758
409.7146, 110.0450
410.1967, 113.8575
410.6789, 119.0433
411.1610, 125.6505
411.6431, 132.4816
412.1252, 138.2512
412.6073, 143.3690
413.0894, 149.1528
413.5716, 156.1225
414.0537, 162.9763
414.5358, 168.5869
415.0179, 172.7785
415.5000, 175.1632
415.9821, 176.0513
416.4643, 174.6985
416.9464, 170.2143
417.4285, 162.4948
417.9106, 152.2153
418.3927, 138.1300
418.8748, 122.2601
419.3570, 107.2667
419.8391, 93.74691
420.3212, 81.39948
420.8033, 69.79469
421.2854, 59.10950
421.7675, 49.89469
422.2497, 42.55099
422.7318, 36.53714
423.2139, 31.80186
423.6960, 29.01055
424.1781, 26.02776
424.6602, 22.24703
425.1424, 18.26524
425.6245, 15.00143
426.1066, 12.91599
426.5887, 11.01450
427.0709, 9.042603
427.5530, 6.999855
428.0351, 5.500816
428.5172, 4.707825
428.9993, 4.210869
429.4814, 3.783066
429.9636, 3.511620
430.4457, 2.917343
430.9278, 1.806931
431.4099, 0.5047300
431.8920, 0.2162090
432.3741, 0.2942350
432.8563, 0.3276140
433.3384, 0.5328980
433.8205, 0.9146270
434.3026, 1.602325
434.7847, 2.654472
435.2668, 3.583740
435.7490, 3.745667
436.2311, 3.340172
436.7132, 3.086433
437.1953, 3.259949
437.6774, 3.548538
438.1595, 3.538887
438.6417, 3.275284
439.1238, 2.940880
439.6059, 2.339600
440.0880, 1.879128
440.5701, 2.210953
441.0522, 3.558891
441.5344, 4.604729
442.0165, 4.234978
442.4986, 3.180756
442.9807, 2.336868
443.4628, 2.052704
443.9449, 1.980141
444.4271, 2.168854
444.9092, 2.531609
445.3913, 2.592201
445.8734, 1.838593
446.3555, 1.054649
446.8376, 0.6505580
447.3198, 0.9005200
447.8019, 1.050896
448.2840, 1.169769
448.7661, 1.145523
449.2482, 0.7543180
449.7303, 0.5115050
450.2125, 1.234398
450.6946, 0.7762830
451.1767, 0.7105710
451.6588, 0.8289950
452.1409, 0.8607030
452.6230, 2.894165
453.1052, 4.272568
453.5873, 4.978027
454.0694, 5.338005
454.5515, 5.252846
455.0337, 5.090958
455.5158, 5.624924
455.9979, 6.798531
456.4800, 7.710114
456.9621, 7.804008
457.4442, 7.426331
457.9264, 7.466827
458.4085, 7.907112
458.8906, 8.249741
459.3727, 7.880470
459.8548, 7.196869
460.3369, 6.905113
460.8191, 7.338196
461.3012, 7.753517
461.7833, 7.319168
462.2654, 6.432549
462.7475, 5.920647
463.2296, 6.518288
463.7118, 7.275070
464.1939, 7.621254
464.6760, 7.518944
465.1581, 7.501450
465.6402, 7.806839
466.1223, 8.212044
466.6045, 8.556503
467.0866, 8.637672
467.5687, 8.878281
468.0508, 9.424446
468.5329, 10.13284
469.0150, 10.68609
469.4972, 10.95552
469.9793, 11.25929
470.4614, 11.74516
470.9435, 12.43548
471.4256, 12.81826
471.9077, 12.76064
472.3899, 12.66323
472.8720, 12.79053
473.3541, 13.12558
473.8362, 14.00232
474.3183, 15.57024
474.8004, 17.54443
475.2826, 19.57272
475.7647, 21.62151
476.2468, 23.21162
476.7289, 24.06650
477.2110, 24.29667
477.6931, 23.92420
478.1753, 22.95450
478.6574, 22.10086
479.1395, 22.44772
479.6216, 23.14789
480.1037, 22.90382
480.5858, 21.10458
481.0680, 18.80348
481.5501, 16.35779
482.0322, 13.95098
482.5143, 11.99043
482.9964, 10.90328
483.4786, 10.06850
483.9607, 9.121681
484.4428, 8.016006
484.9249, 7.313972
485.4070, 7.465805
485.8892, 7.852585
486.3713, 8.034317
486.8534, 7.694702
487.3355, 7.610886
487.8176, 7.983627
488.2997, 8.560844
488.7819, 8.764893
489.2640, 8.365616
489.7461, 8.023857
490.2282, 7.896675
490.7103, 8.006912
491.1924, 8.778862
491.6746, 10.30562
492.1567, 12.04423
492.6388, 13.62692
493.1209, 15.05811
493.6030, 16.06228
494.0851, 16.52584
494.5673, 16.93262
495.0494, 18.17304
495.5315, 19.98734
496.0136, 21.42651
496.4957, 21.79110
496.9778, 21.73616
497.4600, 21.90431
497.9421, 22.30165
498.4242, 22.95940
498.9063, 24.11685
499.3884, 25.37183
499.8705, 26.42270
500.3527, 27.04472
500.8348, 27.94299
501.3169, 29.64948
501.7990, 31.62828
502.2811, 33.13958
502.7632, 33.03434
503.2454, 33.52050
503.7275, 35.42184
504.2096, 38.58418
504.6917, 41.39590
505.1738, 43.60772
505.6559, 45.67495
506.1381, 47.87703
506.6202, 50.40038
507.1023, 52.38123
507.5844, 53.84398
508.0665, 54.81682
508.5486, 55.47542
509.0308, 55.75999
509.5129, 55.09697
509.9950, 53.34485
510.4771, 50.66022
510.9592, 47.23231
511.4413, 43.12711
511.9235, 38.88686
512.4056, 34.64666
512.8877, 30.57547
513.3698, 26.75481
513.8519, 23.16492
514.3340, 20.16854
514.8162, 18.35773
515.2983, 17.17532
515.7804, 15.94241
516.2625, 14.16351
516.7446, 12.67115
517.2267, 11.91185
517.7089, 11.69877
518.1910, 11.58456
518.6731, 11.38171
519.1552, 11.35182
519.6373, 11.58434
520.1194, 12.07703
520.6016, 12.83060
521.0837, 14.12289
521.5658, 15.35529
522.0479, 15.89006
522.5300, 15.20284
523.0121, 15.88592
523.4943, 18.62550
523.9764, 22.11690
524.4585, 23.90288
524.9406, 23.91875
525.4227, 23.91062
525.9048, 24.63062
526.3870, 25.68852
526.8691, 26.12685
527.3513, 25.96660
527.8334, 25.51957
528.3155, 24.78461
528.7976, 23.98327
529.2797, 23.37838
529.7618, 22.96894
530.2440, 22.93837
530.7261, 23.10867
531.2082, 23.83344
531.6903, 25.55919
532.1724, 29.21821
532.6545, 33.07855
533.1367, 36.46569
533.6188, 39.59335
534.1009, 43.36063
534.5830, 48.34690
535.0651, 53.53444
535.5472, 58.43816
536.0294, 62.96977
536.5115, 68.20425
536.9936, 74.32921
537.4757, 80.89511
537.9578, 87.39870
538.4399, 93.75828
538.9221, 100.8355
539.4042, 108.6595
539.8863, 117.5408
540.3684, 128.2398
540.8505, 140.6684
541.3326, 153.8495
541.8148, 167.0883
542.2969, 180.9391
542.7790, 196.6846
543.2611, 214.1896
543.7432, 232.8220
544.2253, 252.4350
544.7075, 272.8163
545.1896, 294.0960
545.6717, 316.5812
546.1538, 338.2650
546.6359, 360.4971
547.1180, 380.5131
547.6002, 395.0543
548.0823, 405.1255
548.5644, 407.6571
549.0465, 401.6142
549.5286, 387.5764
550.0107, 367.0901
550.4929, 337.9877
550.9750, 305.5161
551.4571, 269.8977
551.9392, 230.9575
552.4213, 196.7659
552.9034, 167.3598
553.3856, 141.9202
553.8677, 120.2689
554.3498, 102.2712
554.8319, 86.37789
555.3140, 72.49017
555.7961, 60.42868
556.2783, 50.24624
556.7604, 41.80880
557.2425, 34.92963
557.7246, 30.03241
558.2067, 26.12814
558.6888, 22.51343
559.1710, 19.15935
559.6531, 16.01096
560.1352, 12.85785
560.6173, 10.07858
561.0994, 8.064163
561.5815, 6.921074
562.0637, 5.716927
562.5458, 3.853134
563.0279, 2.144493
563.5100, 1.173058
563.9921, 1.431412
564.4742, 1.564362
564.9564, 1.515930
565.4385, 1.347786
565.9206, 1.139938
566.4027, 0.8751370
566.8848, 0.6646120
567.3669, 0.5366060
567.8491, 0.4884030
568.3312, 0.6088100
568.8133, 0.8862840
569.2954, 0.9996800
569.7775, 0.5164110
570.2596, 0.2077100
570.7418, 0.4489820
571.2239, 0.1556320
571.7060, 0.1941220
572.1881, 0.2169110
572.6702, 0.1068800
573.1523, 5.2588999E-02
573.6345, 1.3428000E-02
574.1166, 0.1950910
574.5987, 1.167908
575.0808, 2.407310
575.5629, 3.097443
576.0450, 2.420090
576.5272, 1.937035
577.0093, 1.976295
577.4914, 2.469719
577.9735, 3.050842
578.4556, 3.935593
578.9377, 4.452194
579.4199, 4.080032
579.9020, 2.801590
580.3841, 2.091148
580.8662, 2.011177
581.3483, 2.173500
581.8304, 2.140923
582.3126, 2.024353
582.7947, 2.225754
583.2768, 2.853210
583.7589, 3.712852
584.2410, 4.851227
584.7231, 6.049225
585.2053, 6.873268
585.6874, 6.446915
586.1696, 6.238739
586.6517, 7.353477
587.1338, 9.463402
587.6159, 11.09427
588.0980, 11.51440
588.5801, 11.68243
589.0623, 12.04445
589.5444, 12.69022
590.0265, 12.98608
590.5086, 12.85069
590.9907, 12.47945
591.4728, 12.03551
591.9550, 11.56522
592.4371, 10.79380
592.9192, 9.696907
593.4013, 8.311989
593.8834, 6.467812
594.3655, 4.260094
594.8477, 2.479599
595.3298, 1.573517
595.8119, 1.025650
596.2940, 0.1223140
596.7761, 0.9671590
597.2582, 1.814583
597.7404, 2.242378
598.2225, 2.457878
598.7046, 2.478092
599.1867, 2.272961
599.6688, 2.025002
600.1509, 1.688770
600.6331, 1.378662
601.1152, 1.201916
601.5973, 1.298950
602.0794, 1.328384
602.5615, 1.316368
603.0436, 1.147713
603.5258, 0.6856310
604.0079, 1.3767000E-02
604.4900, 0.9466130
604.9721, 2.230064
605.4542, 3.625523
605.9363, 4.665054
606.4185, 5.366848
606.9006, 5.873466
607.3827, 6.021626
607.8648, 6.149075
608.3469, 6.704102
608.8290, 7.589867
609.3112, 8.646721
609.7933, 10.14372
610.2754, 11.54926
610.7575, 12.40622
611.2396, 12.56719
611.7217, 12.69878
612.2039, 12.58466
612.6860, 12.80460
613.1681, 13.82352
613.6502, 16.27814
614.1323, 18.33668
614.6144, 20.00377
615.0966, 21.24215
615.5787, 21.88904
616.0608, 21.82030
616.5429, 21.97520
617.0250, 22.54558
617.5071, 23.49071
617.9893, 24.95338
618.4714, 26.84478
618.9535, 28.40110
619.4356, 28.75098
619.9177, 28.82177
620.3998, 29.85621
620.8820, 31.79597
621.3641, 33.95343
621.8462, 36.46695
622.3283, 38.72660
622.8104, 40.07344
623.2925, 40.06762
623.7747, 40.63469
624.2568, 42.39094
624.7389, 44.70388
625.2210, 47.15433
625.7031, 50.22802
626.1852, 52.30170
626.6674, 53.00124
627.1495, 52.97902
627.6316, 53.29132
628.1137, 53.95608
628.5958, 54.56916
629.0779, 55.23746
629.5601, 55.52832
630.0422, 54.32848
630.5243, 51.89309
631.0064, 49.34251
631.4885, 47.64796
631.9706, 45.88913
632.4528, 42.92511
632.9349, 38.87956
633.4170, 35.14309
633.8991, 32.50439
634.3812, 30.23603
634.8633, 27.86220
635.3455, 25.28165
635.8276, 22.85043
636.3097, 20.53712
636.7918, 18.41473
637.2739, 16.52323
637.7560, 14.86222
638.2382, 13.52998
638.7203, 12.62893
639.2024, 11.91346
639.6845, 10.94284
640.1666, 9.754581
640.6487, 8.781044
641.1309, 8.283073
641.6130, 7.863270
642.0951, 6.748810
642.5772, 5.229042
643.0594, 4.188934
643.5415, 4.743473
644.0236, 5.300812
644.5057, 4.604595
644.9879, 2.811817
645.4700, 1.685638
645.9521, 2.450996
646.4342, 3.216038
646.9163, 3.072392
647.3984, 1.827000
647.8806, 0.9760480
648.3627, 0.6150360
648.8448, 0.4633870
649.3269, 0.2854730
649.8090, 8.1111997E-02
650.2911, 1.1780000E-02
650.7733, 1.6170000E-03
651.2554, 0.1782460
651.7375, 0.8938670
652.2196, 1.836639
652.7017, 2.206474
653.1838, 1.595440
653.6660, 0.7042850
654.1481, 0.2816280
654.6302, 1.126598
655.1123, 1.402775
655.5944, 0.3311310
656.0765, 0.6911510
656.5587, 1.298374
657.0408, 1.517479
657.5229, 1.463303
658.0050, 0.8102460
658.4871, 0.4782750
658.9692, 1.018158
659.4514, 2.271004
659.9335, 2.326942
660.4156, 1.034325
660.8977, 0.2044260
661.3798, 0.2669140
661.8619, 0.5055240
662.3441, 1.318539
662.8262, 2.134590
663.3083, 2.581329
663.7904, 2.056980
664.2725, 1.154846
664.7546, 0.4542160
665.2368, 8.1524000E-02
665.7189, 2.0840000E-02
666.2010, 1.777431
666.6831, 3.852039
667.1652, 4.639252
667.6473, 2.995770
668.1295, 1.930008
668.6116, 1.880707
669.0937, 2.333965
669.5758, 2.187912
670.0579, 1.347157
670.5400, 0.8666570
671.0222, 1.120792
671.5043, 1.851105
671.9864, 2.719048
672.4685, 3.648975
672.9506, 4.270382
673.4327, 4.127110
673.9149, 3.757919
674.3970, 3.637974
674.8791, 3.747253
675.3612, 3.862453
675.8433, 3.802032
676.3254, 3.798950
676.8076, 4.009304
677.2897, 4.487530
677.7718, 4.883358
678.2539, 5.215832
678.7360, 5.435482
679.2181, 5.398678
679.7003, 5.041538
680.1824, 5.278362
680.6645, 6.263992
681.1466, 7.318882
681.6287, 7.584396
682.1108, 7.320484
682.5930, 7.287994
683.0751, 7.715519
683.5572, 8.107838
684.0393, 8.033485
684.5214, 7.678974
685.0035, 7.326839
685.4857, 6.722546
685.9678, 6.466469
686.4499, 7.028061
686.9320, 7.986942
687.4141, 8.351978
687.8962, 7.636024
688.3784, 7.324699
688.8605, 7.924377
689.3426, 9.094387
689.8247, 9.664597
690.3068, 9.613613
690.7889, 9.362690
691.2711, 8.987625
691.7532, 8.620815
692.2353, 8.616573
692.7174, 8.910995
693.1995, 9.125397
693.6816, 8.875587
694.1638, 8.598118
694.6459, 8.729088
695.1280, 9.337761
695.6101, 9.723511
696.0922, 9.198841
696.5743, 8.787842
697.0565, 9.170788
697.5386, 10.77745
698.0207, 11.36550
698.5028, 10.56352
698.9849, 9.539349
699.4670, 9.485775
699.9492, 10.27915
700.4313, 10.74150
700.9135, 10.75095
701.3956, 10.61883
701.8777, 10.59868
702.3598, 10.64945
702.8419, 10.66920
703.3240, 10.52000
703.8062, 10.63074
704.2883, 11.67594
704.7704, 12.99252
705.2525, 13.58980
705.7346, 12.51747
706.2167, 11.75814
706.6989, 11.51189
707.1810, 11.67541
707.6631, 12.18482
708.1452, 13.15878
708.6273, 13.51626
709.1094, 12.68858
709.5916, 11.41396
710.0737, 11.43993
710.5558, 12.50984
711.0379, 13.39923
711.5200, 13.28056
712.0021, 12.82162
712.4843, 12.57425
712.9664, 12.48252
713.4485, 12.42794
713.9306, 12.49442
714.4127, 12.57064
714.8948, 12.56917
715.3770, 12.44249
715.8591, 12.20735
716.3412, 11.77085
716.8233, 11.41283
717.3054, 11.36782
717.7875, 11.57796
718.2697, 11.30363
718.7518, 10.49742
719.2339, 9.802643
719.7160, 9.895531
720.1981, 10.38297
720.6802, 10.81358
721.1624, 11.14041
721.6445, 11.08503
722.1266, 9.770359
722.6087, 8.445988
723.0908, 8.275970
723.5729, 10.42928
724.0551, 11.66123
724.5372, 11.36755
725.0193, 10.51814
725.5014, 10.11249
725.9835, 10.25617
726.4656, 10.12415
726.9478, 9.579590
727.4299, 8.904682
727.9120, 8.498230
728.3941, 8.308395
728.8762, 8.159279
729.3583, 7.961731
729.8405, 7.803051
730.3226, 7.826141
730.8047, 7.918434
731.2868, 7.910339
731.7689, 7.641525
732.2510, 7.436844
732.7332, 7.390820
733.2153, 7.496738
733.6974, 7.663239
734.1795, 7.851543
734.6616, 7.972763
735.1437, 8.018913
735.6259, 8.033363
736.1080, 8.172039
736.5901, 8.404308
737.0722, 8.423691
737.5543, 7.928520
738.0364, 7.264824
738.5186, 6.769081
739.0007, 6.436504
739.4828, 6.248230
739.9649, 6.234425
740.4470, 6.325329
740.9291, 6.724319
741.4113, 7.344612
741.8934, 7.110725
742.3755, 5.316246
742.8576, 3.951122
743.3397, 3.981026
743.8218, 5.203495
744.3040, 6.081047
744.7861, 6.608986
745.2682, 6.630898
745.7503, 5.636322
746.2324, 4.225651
746.7145, 3.356255
747.1967, 3.044270
747.6788, 2.981037
748.1609, 3.201439
748.6430, 3.451157
749.1251, 3.535919
749.6072, 3.379963
750.0894, 3.406002
750.5715, 3.828880
751.0536, 4.172909
751.5357, 4.146107
752.0178, 3.739742
752.4999, 2.959625
752.9821, 1.717529
753.4642, 0.6808400
753.9463, 0.6905940
754.4284, 1.313004
754.9105, 1.671074
755.3926, 1.644100
755.8748, 1.561592
756.3569, 1.486950
756.8390, 1.537815
757.3211, 1.914612
757.8032, 3.119644
758.2853, 3.522980
758.7675, 2.506702
759.2496, 1.211823
759.7318, 0.7195050
760.2139, 1.155849
760.6960, 1.453449
761.1781, 1.530224
761.6602, 1.437878
762.1423, 1.245975
762.6245, 0.9382510
763.1066, 0.4232440
763.5887, 0.3925250
764.0708, 1.167904
764.5529, 1.794048
765.0350, 2.183159
765.5172, 2.231258
765.9993, 1.446972
766.4814, 0.9588010
766.9635, 0.9801520
767.4456, 1.216812
767.9277, 1.240635
768.4099, 0.9793620
768.8920, 1.014717
769.3741, 1.583099
769.8562, 2.131081
770.3383, 1.443184
770.8204, 6.0332999E-02
771.3026, 0.4716340
771.7847, 0.7596820
772.2668, 2.146713
772.7489, 2.715195
773.2310, 2.694687
773.7131, 2.448036
774.1953, 1.973534
774.6774, 1.343887
775.1595, 0.3297420
775.6416, 0.6991580
776.1237, 0.8940350
776.6058, 9.1468997E-02
777.0880, 0.2380980
777.5701, 0.4635310
778.0522, 1.435631
778.5343, 1.336990
779.0164, 0.4285350
779.4985, 0.5606770
779.9807, 1.734238
780.4628, 2.435402
780.9449, 1.757675
781.4270, 0.3245160
781.9091, 0.5142520
782.3912, 1.0719000E-02
782.8734, 0.5766220
783.3555, 1.023209
783.8376, 1.382858
784.3197, 1.736404
784.8018, 2.081917
785.2839, 2.507118
785.7661, 3.142204
786.2482, 3.709175
786.7303, 3.676201
787.2124, 3.185547
787.6945, 2.624619
788.1766, 1.862267
788.6588, 1.381264
789.1409, 1.448723
789.6230, 1.981384
790.1051, 2.758080
790.5872, 4.388794
791.0693, 5.226067
791.5515, 4.723961
792.0336, 3.327614
792.5157, 2.289368
792.9978, 1.610504
793.4799, 1.102196
793.9620, 0.7554630
794.4442, 0.4486920
794.9263, 3.6681999E-02
795.4084, 0.6311420
795.8905, 1.170937
796.3726, 1.455032
796.8547, 1.807381
797.3369, 2.251961
797.8190, 2.884010
798.3011, 3.994698
798.7832, 5.867096
799.2653, 7.692635
799.7474, 9.208946
800.2296, 10.53235
800.7117, 12.02335
801.1938, 13.73666
801.6759, 15.85941
802.1580, 18.73837
802.6401, 21.70502
803.1223, 23.63639
803.6044, 24.98218
804.0865, 26.90482
804.5686, 30.19714
805.0507, 33.79857
805.5328, 37.52354
806.0150, 41.34193
806.4971, 45.20821
806.9792, 49.13210
807.4613, 52.98077
807.9434, 56.52441
808.4255, 60.21709
808.9077, 65.36046
809.3898, 71.69947
809.8719, 78.13524
810.3540, 84.20714
810.8361, 90.10966
811.3182, 95.76941
811.8004, 101.4269
812.2825, 107.7015
812.7646, 115.1840
813.2467, 122.7038
813.7288, 129.9705
814.2109, 137.1839
814.6931, 144.6635
815.1752, 152.4787
815.6573, 160.7756
816.1394, 169.7913
816.6215, 178.9906
817.1037, 187.3743
817.5858, 195.2262
818.0679, 203.4847
818.5500, 212.3542
819.0322, 221.9405
819.5143, 232.5072
819.9964, 243.6464
820.4785, 254.3880
820.9606, 264.3211
821.4427, 274.2776
821.9249, 284.5622
822.4070, 294.7827
822.8891, 304.3017
823.3712, 313.0693
823.8533, 320.3606
824.3354, 326.0468
824.8176, 330.0572
825.2997, 332.5995
825.7818, 333.3495
826.2639, 331.6834
826.7460, 326.4404
827.2281, 319.8582
827.7103, 312.1949
828.1924, 303.5893
828.6745, 293.7499
829.1566, 282.2678
829.6387, 271.1565
830.1208, 260.8470
830.6030, 250.8711
831.0851, 240.6166
831.5672, 230.3609
832.0493, 220.8356
832.5314, 212.4681
833.0135, 204.5214
833.4957, 196.2781
833.9778, 188.3188
834.4599, 181.2328
834.9420, 175.8137
835.4241, 170.5769
835.9063, 165.3902
836.3884, 160.5158
836.8705, 156.2319
837.3526, 152.5255
837.8347, 149.7961
838.3168, 148.1994
838.7990, 147.0215
839.2811, 145.5084
839.7632, 143.8354
840.2453, 142.1873
840.7274, 140.4025
841.2095, 139.2642
841.6917, 139.0555
842.1738, 139.6181
842.6559, 140.9378
843.1380, 143.4587
843.6201, 145.0424
844.1022, 145.5246
844.5844, 145.6655
845.0665, 145.8928
845.5486, 146.3747
846.0307, 147.6534
846.5128, 149.7832
846.9949, 152.1409
847.4771, 154.3025
847.9592, 156.5147
848.4413, 159.0852
848.9234, 162.2679
849.4055, 164.7331
849.8876, 166.1840
850.3698, 167.3577
850.8519, 168.5306
851.3340, 169.7234
851.8161, 171.4678
852.2982, 173.7523
852.7803, 175.6616
853.2625, 175.8813
853.7446, 175.7889
854.2267, 176.8042
854.7088, 178.9632
855.1909, 181.7467
855.6730, 185.4307
856.1552, 189.2101
856.6373, 192.5429
857.1194, 195.6061
857.6015, 199.9830
858.0836, 205.8112
858.5657, 212.2097
859.0479, 218.6973
859.5300, 225.6318
860.0121, 233.5096
860.4942, 242.3438
860.9763, 252.1637
861.4584, 262.1667
861.9406, 273.7639
862.4227, 287.5425
862.9048, 303.5159
863.3869, 320.8307
863.8690, 339.7999
864.3511, 359.4998
864.8333, 379.5089
865.3154, 400.6720
865.7975, 426.3519
866.2796, 455.7381
866.7617, 485.4616
867.2438, 513.7179
867.7260, 543.4669
868.2081, 577.2911
868.6902, 614.2562
869.1723, 653.4587
869.6544, 695.5535
870.1365, 739.4620
870.6187, 784.9085
871.1008, 832.3165
871.5829, 881.1458
872.0650, 931.5021
872.5471, 985.6155
873.0292, 1043.983
873.5114, 1105.341
873.9935, 1169.635
874.4756, 1235.588
874.9577, 1301.414
875.4399, 1367.430
875.9220, 1433.542
876.4041, 1499.577
876.8862, 1565.195
877.3683, 1631.098
877.8505, 1698.501
878.3326, 1758.563
878.8147, 1811.426
879.2968, 1854.909
879.7789, 1888.085
880.2610, 1909.362
880.7432, 1916.772
881.2253, 1910.176
881.7074, 1890.348
882.1895, 1855.409
882.6716, 1809.304
883.1537, 1752.350
883.6359, 1685.494
884.1180, 1613.711
884.6001, 1536.317
885.0822, 1455.377
885.5643, 1370.213
886.0464, 1283.183
886.5286, 1199.047
887.0107, 1117.879
887.4928, 1039.433
887.9749, 964.3361
888.4570, 893.4073
888.9391, 827.6800
889.4213, 766.9086
889.9034, 709.2800
890.3855, 654.7780
890.8676, 604.5294
891.3497, 558.7483
891.8318, 517.3040
892.3140, 478.4624
892.7961, 442.2184
893.2782, 408.4771
893.7603, 377.6702
894.2424, 349.0278
894.7245, 321.8905
895.2067, 297.0962
895.6888, 275.4444
896.1709, 259.6662
896.6530, 243.0126
897.1351, 224.6797
897.6172, 206.9498
898.0994, 192.7940
898.5815, 181.8024
899.0636, 171.1319
899.5457, 160.6275
900.0278, 150.7217
900.5099, 141.6607
900.9921, 133.4103
901.4742, 125.7903
901.9563, 118.8440
902.4384, 112.7091
902.9205, 107.7786
903.4026, 103.2482
903.8848, 98.73418
904.3669, 94.27618
904.8490, 89.82164
905.3311, 85.39259
905.8132, 81.49472
906.2953, 78.66354
906.7775, 76.28270
907.2596, 73.63120
907.7417, 70.83252
908.2238, 68.30903
908.7059, 67.04662
909.1880, 65.00358
909.6702, 61.14279
910.1523, 56.67979
910.6344, 54.98367
911.1165, 55.96494
911.5986, 55.96516
912.0807, 53.79231
912.5629, 50.84686
913.0450, 48.65437
913.5271, 46.73339
914.0092, 44.32095
914.4913, 40.77575
914.9734, 37.82347
915.4556, 35.95501
915.9377, 34.52921
916.4198, 33.06806
916.9019, 31.58237
917.3840, 29.76821
917.8661, 27.55685
918.3483, 25.44753
918.8304, 23.92923
919.3125, 22.71923
919.7946, 21.49100
920.2767, 20.22375
920.7589, 18.96324
921.2410, 17.73234
921.7231, 16.50020
922.2052, 15.20809
922.6873, 13.88166
923.1694, 12.78093
923.6516, 11.92342
924.1337, 11.05605
924.6158, 10.03098
925.0979, 8.941261
925.5800, 7.907280
926.0621, 6.924026
926.5443, 5.961143
927.0264, 4.691521
927.5085, 3.884331
927.9906, 4.056763
928.4727, 4.485695
928.9548, 3.727585
929.4370, 1.716507
929.9191, 0.7001500
930.4012, 1.272629
930.8833, 2.084671
931.3654, 1.589523
931.8475, 0.4110490
932.3297, 0.6740650
932.8118, 1.555061
933.2939, 2.140961
933.7761, 2.407104
934.2582, 2.367210
934.7403, 1.806885
935.2224, 0.6937410
935.7045, 0.7259900
936.1866, 1.946693
936.6688, 3.214142
937.1509, 3.888161
937.6330, 4.066193
938.1151, 3.575897
938.5972, 2.597366
939.0793, 2.000854
939.5615, 2.488266
940.0436, 2.858269
940.5257, 2.816292
941.0078, 2.454689
941.4899, 1.888710
941.9720, 1.135040
942.4542, 0.7203290
942.9363, 0.9573670
943.4184, 1.187477
943.9005, 0.7261580
944.3826, 0.2029950
944.8647, 1.339302
945.3469, 3.033089
945.8290, 4.081993
946.3111, 4.150673
946.7932, 3.902016
947.2753, 3.915413
947.7574, 4.165794
948.2396, 4.096664
948.7217, 3.684227
949.2038, 3.560722
949.6859, 4.682335
950.1680, 5.970215
950.6501, 6.514084
951.1323, 6.273514
951.6144, 5.597908
952.0965, 4.191772
952.5786, 2.987198
953.0607, 2.272804
953.5428, 1.950745
954.0250, 1.946732
954.5071, 2.148438
954.9892, 1.831871
955.4713, 0.3169170
955.9534, 1.109261
956.4355, 1.330345
956.9177, 0.9071730
957.3998, 0.6503370
957.8819, 0.6419300
958.3640, 0.8580170
958.8461, 1.351959
959.3282, 1.968407
959.8104, 2.498604
960.2925, 3.000633
960.7746, 3.788422
961.2567, 4.885475
961.7388, 5.628571
962.2209, 5.348961
962.7031, 4.788544
963.1852, 4.463562
963.6673, 4.374748
964.1494, 4.059441
964.6315, 3.510216
965.1136, 2.721649
965.5958, 1.490906
966.0779, 0.2432020
966.5600, 5.8929000E-02
967.0421, 0.5854870
967.5242, 0.8636860
968.0063, 0.4794920
968.4885, 0.1605530
968.9706, 1.266556
969.4527, 2.347107
969.9348, 2.610695
970.4169, 1.619324
970.8990, 2.252541
971.3812, 4.929375
971.8633, 7.787453
972.3454, 8.583763
972.8275, 8.537682
973.3096, 9.737717
973.7917, 12.33855
974.2739, 14.17446
974.7560, 13.05758
975.2381, 12.61974
975.7202, 14.65280
976.2023, 18.47929
976.6844, 20.55624
977.1666, 20.91893
977.6487, 21.27567
978.1308, 22.33142
978.6129, 23.62923
979.0950, 24.81352
979.5771, 25.89081
980.0593, 26.87225
980.5414, 27.29354
981.0235, 28.40322
981.5056, 30.76840
981.9877, 33.08839
982.4698, 33.80818
982.9520, 33.23515
983.4341, 33.31108
983.9162, 34.15656
984.3983, 35.26297
984.8804, 36.18336
985.3625, 37.30565
985.8447, 39.11118
986.3268, 41.54394
986.8089, 43.36433
987.2910, 44.53410
987.7731, 45.14713
988.2552, 44.99207
988.7374, 44.59893
989.2195, 45.03944
989.7016, 46.13882
990.1837, 47.44451
990.6658, 48.89445
991.1479, 50.32816
991.6301, 51.83898
992.1122, 53.21764
992.5944, 54.19837
993.0765, 54.62827
993.5586, 55.43666
994.0407, 56.61844
994.5228, 58.06895
995.0049, 59.80428
995.4871, 61.74196
995.9692, 64.01560
996.4513, 66.53950
996.9334, 68.58832
997.4155, 69.36326
997.8976, 70.21678
998.3798, 71.32584
998.8619, 72.87946
999.3440, 75.72869
999.8261, 79.67056
1000.308, 82.59753
1000.790, 83.64966
1001.272, 84.53732
1001.755, 86.76308
1002.237, 89.62017
1002.719, 92.31587
1003.201, 94.73194
1003.683, 97.11179
1004.165, 99.46856
1004.647, 101.8217
1005.129, 104.3391
1005.612, 106.8659
1006.094, 109.3413
1006.576, 111.5634
1007.058, 112.6454
1007.540, 111.4123
1008.022, 109.7309
1008.504, 108.5529
1008.986, 107.3481
1009.468, 105.1108
1009.951, 101.7861
1010.433, 97.78246
1010.915, 93.02081
1011.397, 88.05775
1011.879, 83.67767
1012.361, 79.43878
1012.843, 74.66059
1013.325, 69.12883
1013.807, 63.74681
1014.290, 58.60078
1014.772, 53.95165
1015.254, 50.08387
1015.736, 46.78249
1016.218, 42.85677
1016.700, 38.47148
1017.182, 34.69380
1017.664, 32.23271
1018.147, 30.19668
1018.629, 27.89206
1019.111, 25.67585
1019.593, 24.20296
1020.075, 24.08572
1020.557, 23.02480
1021.039, 20.71316
1021.521, 18.19906
1022.003, 16.42986
1022.486, 15.20378
1022.968, 14.30677
1023.450, 13.71426
1023.932, 13.05480
1024.414, 11.92478
1024.896, 10.81042
1025.378, 9.856491
1025.860, 9.113899
1026.343, 8.750282
1026.825, 8.744774
1027.307, 8.438927
1027.789, 7.515800
1028.271, 6.525215
1028.753, 6.010414
1029.235, 5.892990
1029.717, 6.050056
1030.199, 6.596588
1030.682, 6.714554
1031.164, 6.257706
1031.646, 5.776726
1032.128, 5.533295
1032.610, 5.545204
1033.092, 6.142685
1033.574, 7.089767
1034.056, 7.500069
1034.539, 6.264343
1035.021, 5.285133
1035.503, 5.190857
1035.985, 5.643600
1036.467, 6.384880
1036.949, 7.430115
1037.431, 7.942406
1037.913, 7.794464
1038.396, 7.502190
1038.878, 7.401871
1039.360, 7.381744
1039.842, 7.401543
1040.324, 7.490921
1040.806, 7.395668
1041.288, 7.087639
1041.770, 6.609886
1042.252, 5.862694
1042.734, 5.101471
1043.217, 4.973610
1043.699, 5.238945
1044.181, 5.222618
1044.663, 4.477150
1045.145, 4.015625
1045.627, 4.616928
1046.109, 5.331253
1046.591, 5.386726
1047.074, 4.741875
1047.556, 4.567223
1048.038, 4.861069
1048.520, 5.049026
1049.002, 4.412041
1049.484, 3.810593
1049.966, 4.325760
1050.448, 5.474892
1050.931, 5.810631
1051.413, 4.726845
1051.895, 3.907478
1052.377, 3.558327
1052.859, 3.464195
1053.341, 3.413979
1053.823, 3.399261
1054.305, 3.487381
1054.787, 3.686157
1055.270, 3.569145
1055.752, 2.448921
1056.234, 1.556229
1056.716, 1.426376
1057.198, 1.796333
1057.680, 1.995941
1058.162, 2.055931
1058.644, 2.486725
1059.126, 3.682961
1059.609, 4.691422
1060.091, 4.627441
1060.573, 4.025627
1061.055, 3.361137
1061.537, 2.523880
1062.019, 2.381569
1062.501, 3.154640
1062.983, 3.814713
1063.466, 3.396446
1063.948, 2.562408
1064.430, 2.826004
1064.912, 3.779457
1065.394, 4.194565
1065.876, 2.826630
1066.358, 1.942497
1066.840, 2.072113
1067.323, 2.637352
1067.805, 2.999916
1068.287, 3.170372
1068.769, 3.181473
1069.251, 3.036987
1069.733, 2.826927
1070.215, 2.512344
1070.697, 2.238770
1071.179, 2.188782
1071.661, 1.885384
1072.144, 2.092018
1072.626, 1.562965
1073.108, 1.240364
1073.590, 1.278290
1074.072, 1.542328
1074.554, 2.169563
1075.036, 2.772659
1075.518, 2.764862
1076.001, 1.873451
1076.483, 1.163971
1076.965, 0.7348400
1077.447, 0.4705810
1077.929, 0.3395610
1078.411, 0.3193360
1078.893, 0.2731250
1079.375, 0.2734600
1079.858, 0.5710600
1080.340, 1.705437
1080.822, 2.532967
1081.304, 2.467934
1081.786, 2.050400
1082.268, 1.706787
1082.750, 1.440041
1083.232, 1.089409
1083.714, 0.6539080
1084.197, 0.5771940
1084.679, 1.653549
1085.161, 2.770889
1085.643, 3.031792
1086.125, 2.625374
1086.607, 2.317078
1087.089, 2.188904
1087.571, 1.905411
1088.054, 1.351006
1088.536, 0.8851780
1089.018, 1.073860
1089.500, 1.549309
1089.982, 1.826393
1090.464, 1.851791
1090.946, 1.659599
1091.428, 0.9853740
1091.911, 0.5324710
1092.393, 0.5607070
1092.875, 0.8950120
1093.357, 1.327286
1093.839, 1.737556
1094.321, 1.698250
1094.803, 0.9533390
1095.285, 0.1794130
1095.767, 0.5538790
1096.250, 0.9524000
1096.732, 0.7155840
1097.214, 0.1077500
1097.696, 0.5149000
1098.178, 0.5256730
1098.660, 0.5204090
1099.142, 0.7742160
1099.624, 0.9959640
1100.106, 0.7625660
1100.589, 0.4285200
1101.071, 0.5990450
1101.553, 1.502579
1102.035, 2.289078
1102.517, 2.993271
1102.999, 3.260399
1103.481, 2.431290
1103.963, 1.240097
1104.446, 0.5877080
1104.928, 0.4405980
1105.410, 0.5557400
1105.892, 1.301697
1106.374, 1.538971
1106.856, 0.9342040
1107.338, 0.1009140
1107.820, 0.1685710
1108.302, 6.9729998E-03
1108.785, 0.4042890
1109.267, 0.9881590
1109.749, 1.462219
1110.231, 1.784927
1110.713, 1.869919
1111.195, 1.647003
1111.677, 1.210274
1112.159, 0.8027950
1112.641, 0.4196850
1113.124, 7.8789003E-02
1113.606, 0.8843920
1114.088, 1.214584
1114.570, 0.3812180
1115.052, 1.939171
1115.534, 1.572983
1116.016, 0.5898670
1116.498, 1.431358
1116.981, 0.9149170
1117.463, 0.2088620
1117.945, 0.1084900
1118.427, 0.4878850
1118.909, 1.982193
1119.391, 3.562828
1119.873, 3.575424
1120.355, 0.9669190
1120.838, 0.3208620
1121.320, 9.4650000E-02
1121.802, 0.5642620
1122.284, 1.008255
1122.766, 1.377487
1123.248, 2.092262
1123.730, 2.897400
1124.212, 3.141327
1124.694, 1.997360
1125.177, 1.279640
1125.659, 1.248711
1126.141, 1.390503
1126.623, 1.022629
1127.105, 0.4316410
1127.587, 0.5290680
1128.069, 1.245674
1128.551, 1.722534
1129.033, 1.267578
1129.516, 0.9050140
1129.998, 0.8753590
1130.480, 1.128899
1130.962, 1.750381
1131.444, 2.632034
1131.926, 3.208229
1132.408, 3.395737
1132.890, 3.426888
1133.373, 3.412025
1133.855, 3.300087
1134.337, 3.018379
1134.819, 2.634834
1135.301, 2.313942
1135.783, 2.068214
1136.265, 2.194138
1136.747, 2.866661
1137.229, 3.532471
1137.712, 3.734070
1138.194, 3.739197
1138.676, 3.689201
1139.158, 3.574318
1139.640, 3.757080
1140.122, 4.271713
1140.604, 4.767403
1141.086, 5.052620
1141.569, 5.383736
1142.051, 6.380974
1142.533, 7.474152
1143.015, 7.781937
1143.497, 6.787857
1143.979, 6.391159
1144.461, 6.695755
1144.943, 7.240868
1145.426, 7.931580
1145.908, 8.522957
1146.390, 8.474350
1146.872, 8.038010
1147.354, 7.738922
1147.836, 7.446785
1148.318, 7.865440
1148.800, 9.389610
1149.282, 10.76205
1149.765, 10.73012
1150.247, 9.849716
1150.729, 9.136581
1151.211, 8.677063
1151.693, 8.676865
1152.175, 9.683647
1152.657, 10.53218
1153.139, 11.12909
1153.621, 11.33270
1154.104, 10.71231
1154.586, 9.653679
1155.068, 9.579567
1155.550, 10.42042
1156.032, 10.82996
1156.514, 9.704308
1156.996, 8.559036
1157.478, 7.673798
1157.961, 7.226105
1158.443, 7.920090
1158.925, 9.449104
1159.407, 9.892883
1159.889, 8.950500
1160.371, 8.068520
1160.853, 8.252037
1161.335, 8.598686
1161.818, 8.623993
1162.300, 8.454262
1162.782, 8.492485
1163.264, 8.717247
1163.746, 8.856247
1164.228, 8.847275
1164.710, 8.746521
1165.192, 8.720291
1165.674, 8.172935
1166.156, 8.425415
1166.639, 8.081322
1167.121, 7.774162
1167.603, 7.827789
1168.085, 7.087234
1168.567, 6.976959
1169.049, 7.048012
1169.531, 6.971703
1170.013, 6.847244
1170.496, 6.780930
1170.978, 6.774231
1171.460, 6.643341
1171.942, 6.390831
1172.424, 6.403664
1172.906, 6.898697
1173.388, 7.402794
1173.870, 7.447670
1174.353, 7.147209
1174.835, 6.713127
1175.317, 6.105438
1175.799, 5.693466
1176.281, 5.480461
1176.763, 5.390709
1177.245, 5.339737
1177.727, 5.427208
1178.209, 6.024147
1178.692, 6.739410
1179.174, 6.889420
1179.656, 6.075150
1180.138, 5.615463
1180.620, 5.552963
1181.102, 5.594070
1181.584, 5.627327
1182.066, 5.565697
1182.548, 5.300865
1183.031, 4.854309
1183.513, 4.234558
1183.995, 3.116173
1184.477, 2.683800
1184.959, 3.142105
1185.441, 3.664925
1185.923, 3.478439
1186.405, 2.944618
1186.888, 2.517395
1187.370, 2.182495
1187.852, 1.830719
1188.334, 1.284164
1188.816, 1.072227
1189.298, 1.293907
1189.780, 1.683563
1190.262, 2.066086
1190.745, 2.382866
1191.227, 2.597130
1191.709, 2.676384
1192.191, 2.454033
1192.673, 1.695557
1193.155, 1.038857
1193.637, 0.5790330
1194.119, 0.2063670
1194.601, 0.1928710
1195.084, 0.6081850
1195.566, 1.132149
1196.048, 1.723274
1196.530, 1.887085
1197.012, 1.351128
1197.494, 0.7660600
1197.976, 0.2528080
1198.458, 0.2676930
1198.941, 1.187927
1199.423, 2.061668
1199.905, 1.829323
1200.387, 0.4298480
1200.869, 0.2308270
1201.351, 0.6091380
1201.833, 1.411140
1202.315, 1.862968
1202.797, 1.986176
1203.280, 1.692741
1203.762, 1.143593
1204.244, 0.4977490
1204.726, 0.2387770
1205.208, 0.4462200
1205.690, 0.3116610
1206.172, 0.8711400
1206.654, 0.7935710
1207.136, 0.5184020
1207.619, 0.9614870
1208.101, 1.704353
1208.583, 1.929619
1209.065, 1.392502
1209.547, 1.198906
1210.029, 1.698280
1210.511, 2.094650
1210.993, 2.027084
1211.476, 1.831039
1211.958, 2.063927
1212.440, 2.639717
1212.922, 3.600227
1213.404, 5.234375
1213.886, 5.603951
1214.368, 4.086708
1214.850, 2.425079
1215.333, 1.170029
1215.815, 0.4430690
1216.297, 0.7871780
1216.779, 1.711250
1217.261, 2.256996
1217.743, 2.002769
1218.225, 2.403900
1218.707, 3.995346
1219.189, 5.063606
1219.672, 4.604164
1220.154, 3.421799
1220.636, 2.819695
1221.118, 2.636398
1221.600, 2.607918
1222.082, 2.733444
1222.564, 2.815765
1223.046, 2.778252
1223.528, 2.908989
1224.011, 3.496597
1224.493, 4.173569
1224.975, 4.269081
1225.457, 4.013977
1225.939, 3.804657
1226.421, 3.728119
1226.903, 3.698044
1227.385, 3.687576
1227.868, 3.835464
1228.350, 4.437210
1228.832, 4.996498
1229.314, 4.543808
1229.796, 3.576660
1230.278, 2.904144
1230.760, 2.574516
1231.242, 3.081757
1231.724, 4.703339
1232.207, 5.826843
1232.689, 4.890747
1233.171, 3.578651
1233.653, 4.510696
1234.135, 6.434265
1234.617, 7.177200
1235.099, 6.137482
1235.581, 5.088417
1236.063, 3.941216
1236.546, 3.335381
1237.028, 4.228531
1237.510, 5.260567
1237.992, 4.606201
1238.474, 5.075912
1238.956, 5.043739
1239.438, 4.404083
1239.920, 4.672546
1240.403, 3.701683
1240.885, 3.070953
1241.367, 4.264809
1241.849, 5.739265
1242.331, 6.260506
1242.813, 6.120262
1243.295, 5.671524
1243.777, 4.757317
1244.260, 4.651878
1244.742, 5.353249
1245.224, 6.113907
1245.706, 6.667519
1246.188, 6.903748
1246.670, 6.520576
1247.152, 5.895515
1247.634, 5.568115
1248.116, 5.563438
1248.599, 5.410461
1249.081, 5.102341
1249.563, 4.858589
1250.045, 5.015549
1250.527, 5.360893
1251.009, 5.666817
1251.491, 5.962616
1251.973, 6.234924
1252.455, 6.509956
1252.938, 7.507317
1253.420, 9.058792
1253.902, 9.845360
1254.384, 8.204430
1254.866, 6.903122
1255.348, 7.166283
1255.830, 7.927612
1256.313, 8.303596
1256.795, 8.364098
1257.277, 8.602539
1257.759, 8.957680
1258.241, 9.093208
1258.723, 8.557419
1259.205, 8.215996
1259.687, 8.289673
1260.169, 8.505989
1260.651, 8.676651
1261.134, 8.787834
1261.616, 8.805969
1262.098, 8.725754
1262.580, 8.535370
1263.062, 8.149231
1263.544, 7.781006
1264.026, 7.500610
1264.508, 7.125488
1264.991, 6.624908
1265.473, 5.255936
1265.955, 5.644806
1266.437, 4.969604
1266.919, 4.656456
1267.401, 5.140244
1267.883, 4.504631
1268.365, 5.580185
1268.848, 6.793404
1269.330, 6.736794
1269.812, 6.272583
1270.294, 6.626358
1270.776, 7.408730
1271.258, 7.701988
1271.740, 7.220894
1272.222, 7.058846
1272.704, 7.296875
1273.187, 7.216415
1273.669, 5.904335
1274.151, 4.468407
1274.633, 3.924377
1275.115, 3.896408
1275.597, 3.732193
1276.079, 3.369904
1276.561, 3.205635
1277.043, 3.237595
1277.526, 3.363274
1278.008, 3.802658
1278.490, 3.996178
1278.972, 3.332932
1279.454, 2.457924
1279.936, 2.001953
1280.418, 1.962631
1280.900, 2.195930
1281.383, 2.643707
1281.865, 2.939529
1282.347, 2.695808
1282.829, 2.575073
1283.311, 3.092606
1283.793, 3.449539
1284.275, 2.806107
1284.757, 1.519875
1285.240, 1.158234
1285.722, 1.479355
1286.204, 1.709099
1286.686, 1.461334
1287.168, 1.239761
1287.650, 0.9643100
1288.132, 1.040726
1288.614, 2.069366
1289.096, 3.408051
1289.578, 3.731911
1290.061, 3.345367
1290.543, 2.869347
1291.025, 2.528351
1291.507, 1.773247
1291.989, 0.4324190
1292.471, 0.5190430
1292.953, 0.4120100
1293.435, 0.2304690
1293.918, 1.092171
1294.400, 1.932632
1294.882, 2.366806
1295.364, 2.358818
1295.846, 2.254738
1296.328, 2.050896
1296.810, 2.149063
1297.292, 3.092728
1297.775, 3.385422
1298.257, 2.031120
1298.739, 0.6447600
1299.221, 0.1413730
1299.703, 0.4394300
1300.185, 1.125168
1300.667, 2.133621
1301.149, 2.393967
1301.631, 1.118393
1302.114, 7.6926999E-02
1302.596, 0.0000000E+00
##END=



