##NAMES=Grossular
##RRUFFID=R040065
##IDEAL CHEMISTRY=Ca_3_Al_2_(SiO_4_)_3_
##LOCALITY=Feng Tien mine, Taiwan
##OWNER=RRUFF
##SOURCE=University of Arizona Mineral Museum
##DESCRIPTION=Orange-brown trapezohedral crystals
##STATUS=The identification of this mineral has been confirmed by X-ray diffraction and chemical analysis
##URL=rruff.info/R040065
##MEASURED CHEMISTRY=(Ca_2.90_Fe^2+^_0.05_Mn_0.05_)_Σ=3_(Al_1.95_Fe^3+^_0.03_Ti_0.02_)_Σ=2_((Si_0.99_Al_0.01_)_Σ=1_O_4_)_3_
140.630, 0.000
142.016, 0.055
143.401, 43.694
144.787, 14.917
146.172, 41.283
147.557, 67.197
148.942, 60.767
150.327, 26.385
151.711, 5.889
153.096, 6.750
154.480, 9.129
155.863, 29.210
157.247, 9.723
158.630, 30.381
160.013, 25.379
161.396, 81.445
162.779, 67.727
164.161, 3.899
165.544, 146.000
166.926, 116.057
168.308, 116.093
169.689, 193.124
171.070, 285.162
172.452, 396.217
173.833, 746.299
175.213, 1164.414
176.594, 1434.567
177.974, 2088.149
179.354, 2567.853
180.734, 2867.461
182.114, 2479.312
183.493, 1734.051
184.872, 1222.890
186.251, 833.821
187.630, 521.836
189.008, 460.933
190.387, 281.106
191.765, 255.353
193.143, 183.670
194.520, 116.055
195.898, 158.506
197.275, 125.020
198.652, 197.597
200.029, 120.236
201.405, 214.935
202.782, 146.693
204.158, 122.509
205.534, 205.380
206.909, 225.308
208.285, 218.292
209.660, 142.333
211.035, 85.429
212.410, 44.580
213.784, 13.131
215.159, 18.951
216.533, 3.634
217.907, 2.216
219.281, 23.332
220.654, 62.067
222.027, 25.417
223.400, 51.720
224.773, 34.004
226.146, 39.745
227.518, 109.500
228.891, 117.265
230.263, 184.031
231.634, 273.806
233.006, 385.786
234.377, 634.414
235.748, 722.248
237.119, 939.104
238.490, 1208.983
239.860, 1300.885
241.231, 1454.810
242.601, 1463.759
243.970, 1751.732
245.340, 1857.729
246.709, 2097.748
248.079, 1858.794
249.448, 1360.866
250.816, 992.969
252.185, 530.101
253.553, 385.263
254.921, 233.457
256.289, 249.682
257.657, 206.941
259.024, 105.232
260.391, 130.554
261.758, 166.904
263.125, 181.275
264.492, 193.649
265.858, 309.050
267.224, 351.487
268.590, 373.961
269.956, 689.472
271.321, 671.020
272.687, 974.605
274.052, 1308.227
275.416, 1569.885
276.781, 1856.579
278.146, 1795.184
279.510, 1844.073
280.874, 1465.874
282.237, 1118.708
283.601, 730.575
284.964, 649.475
286.327, 487.407
287.690, 339.371
289.053, 335.366
290.416, 264.391
291.778, 236.540
293.140, 279.524
294.502, 189.201
295.863, 101.051
297.225, 119.449
298.586, 79.586
299.947, 45.155
301.308, 88.341
302.668, 135.551
304.029, 108.785
305.389, 259.219
306.749, 208.395
308.108, 292.375
309.468, 232.176
310.827, 363.728
312.186, 494.204
313.545, 430.702
314.903, 497.108
316.262, 694.326
317.620, 603.686
318.978, 483.302
320.336, 544.932
321.693, 428.527
323.051, 555.255
324.408, 623.006
325.765, 689.797
327.121, 744.611
328.478, 846.374
329.834, 847.233
331.190, 872.117
332.546, 780.023
333.902, 788.953
335.257, 583.906
336.612, 767.882
337.967, 601.881
339.322, 655.904
340.677, 705.951
342.031, 735.188
343.385, 924.131
344.739, 984.216
346.093, 1092.282
347.446, 1331.377
348.799, 1338.518
350.153, 1475.687
351.505, 1611.918
352.858, 1756.174
354.210, 2046.496
355.563, 2326.846
356.915, 2746.240
358.267, 3271.688
359.618, 4064.171
360.969, 5006.694
362.321, 6337.255
363.672, 8385.858
365.022, 10518.483
366.373, 13358.149
367.723, 16329.868
369.073, 19164.615
370.423, 21617.381
371.773, 23825.180
373.122, 26548.012
374.471, 27216.883
375.821, 26365.770
377.169, 22393.691
378.518, 17195.090
379.866, 13077.027
381.215, 9467.013
382.563, 7236.082
383.910, 5629.846
385.258, 4528.250
386.605, 3626.604
387.952, 2961.771
389.299, 2578.007
390.646, 2081.262
391.992, 1928.545
393.339, 1648.841
394.685, 1444.154
396.031, 1329.512
397.376, 1245.885
398.722, 1347.286
400.067, 1158.701
401.412, 1094.140
402.757, 1139.594
404.101, 1035.077
405.446, 1230.588
406.790, 1285.121
408.134, 1390.666
409.478, 1682.227
410.821, 2066.798
412.165, 2481.384
413.508, 3152.980
414.851, 3725.589
416.193, 4017.208
417.536, 3630.837
418.878, 2696.476
420.220, 1978.125
421.562, 1382.784
422.904, 969.451
424.245, 552.127
425.586, 544.809
426.927, 441.498
428.268, 298.194
429.609, 295.896
430.949, 149.605
432.289, 80.320
433.629, 131.039
434.969, 166.763
436.309, 13.492
437.648, 84.224
438.987, 7.040
440.326, 16.700
441.665, 19.558
443.003, 57.814
444.342, 29.074
445.680, 21.762
447.018, 59.400
448.355, 71.665
449.693, 95.064
451.030, 17.206
452.367, 21.523
453.704, 143.252
455.041, 117.973
456.377, 22.309
457.713, 89.390
459.049, 18.087
460.385, 70.784
461.721, 85.478
463.056, 93.172
464.391, 107.865
465.726, 76.556
467.061, 114.245
468.395, 163.936
469.730, 89.627
471.064, 120.320
472.398, 129.016
473.731, 126.711
475.065, 326.409
476.398, 274.108
477.731, 352.809
479.064, 335.511
480.397, 280.218
481.729, 164.925
483.062, 160.632
484.394, 122.338
485.725, 86.043
487.057, 100.911
488.389, 94.935
489.720, 47.063
491.051, 161.988
492.382, 180.921
493.712, 122.959
495.043, 233.888
496.373, 241.896
497.703, 266.857
499.032, 291.070
500.362, 330.475
501.691, 335.738
503.020, 459.906
504.349, 589.101
505.678, 786.577
507.007, 1028.441
508.335, 1192.325
509.663, 1118.231
510.991, 1000.422
512.319, 749.731
513.646, 623.039
514.973, 395.044
516.300, 371.332
517.627, 363.287
518.954, 468.578
520.280, 439.414
521.607, 407.984
522.933, 580.976
524.259, 774.726
525.584, 815.637
526.910, 804.743
528.235, 737.835
529.560, 632.724
530.885, 468.619
532.209, 438.080
533.534, 418.304
534.858, 422.676
536.182, 587.608
537.506, 800.941
538.829, 956.754
540.152, 1432.837
541.476, 2012.291
542.799, 2845.295
544.121, 4101.884
545.444, 5618.956
546.766, 7592.286
548.088, 8565.450
549.410, 8354.262
550.732, 6770.847
552.053, 4846.685
553.375, 3442.825
554.696, 2435.823
556.017, 1763.680
557.337, 1369.582
558.658, 1205.579
559.978, 991.220
561.298, 896.501
562.618, 740.399
563.938, 796.427
565.257, 718.865
566.576, 718.590
567.895, 708.420
569.214, 641.238
570.533, 648.119
571.851, 629.602
573.170, 539.947
574.488, 522.680
575.805, 583.843
577.123, 507.965
578.440, 523.313
579.758, 460.591
581.075, 460.853
582.391, 547.830
583.708, 458.562
585.024, 537.174
586.341, 548.918
587.657, 628.750
588.972, 759.403
590.288, 888.959
591.603, 807.434
592.918, 674.880
594.233, 522.299
595.548, 473.692
596.863, 290.054
598.177, 303.300
599.491, 252.604
600.805, 237.566
602.119, 289.353
603.432, 189.023
604.746, 190.211
606.059, 273.834
607.372, 336.956
608.685, 337.056
609.997, 351.854
611.309, 470.895
612.621, 321.907
613.933, 422.890
615.245, 371.448
616.557, 443.371
617.868, 530.265
619.179, 610.128
620.490, 592.962
621.801, 656.766
623.111, 712.540
624.421, 928.283
625.731, 998.997
627.041, 1108.681
628.351, 1086.333
629.660, 1074.714
630.970, 1034.548
632.279, 893.110
633.588, 842.641
634.896, 633.141
636.205, 490.611
637.513, 410.050
638.821, 493.458
640.129, 355.834
641.437, 336.181
642.744, 244.496
644.051, 199.074
645.358, 162.031
646.665, 137.249
647.972, 186.431
649.278, 184.581
650.584, 159.696
651.890, 186.070
653.196, 166.875
654.502, 177.840
655.807, 117.820
657.113, 71.765
658.418, 30.328
659.722, 23.508
661.027, 120.298
662.331, 57.053
663.636, 32.770
664.940, 40.556
666.244, 31.041
667.547, 109.405
668.851, 88.035
670.154, 127.562
671.457, 26.719
672.760, 48.045
674.062, 74.890
675.365, 16.830
676.667, 25.835
677.969, 37.911
679.271, 29.061
680.572, 31.718
681.874, 44.545
683.175, 95.887
684.476, 112.665
685.777, 2.181
687.077, 14.356
688.378, 7.956
689.678, 36.614
690.978, 42.654
692.278, 33.117
693.577, 8.041
694.877, 159.850
696.176, 81.121
697.475, 43.945
698.774, 90.913
700.072, 79.265
701.371, 8.463
702.669, 31.144
703.967, 170.216
705.265, 11.283
706.562, 19.264
707.860, 99.129
709.157, 33.487
710.454, 92.195
711.751, 77.026
713.047, 28.790
714.344, 36.331
715.640, 10.587
716.936, 13.442
718.232, 32.570
719.527, 35.647
720.823, 11.331
722.118, 57.015
723.413, 16.784
724.708, 51.514
726.002, 16.209
727.297, 86.866
728.591, 112.489
729.885, 20.080
731.179, 141.634
732.472, 144.158
733.766, 82.650
735.059, 92.109
736.352, 88.536
737.645, 148.930
738.937, 200.294
740.230, 230.629
741.522, 181.938
742.814, 153.219
744.106, 188.470
745.397, 203.693
746.689, 234.890
747.980, 249.061
749.271, 312.204
750.562, 211.329
751.853, 373.428
753.143, 517.500
754.433, 411.548
755.723, 494.571
757.013, 573.570
758.303, 551.552
759.592, 729.416
760.881, 613.254
762.170, 832.173
763.459, 960.080
764.748, 1134.963
766.036, 1112.825
767.325, 1159.666
768.613, 1490.483
769.901, 1408.279
771.188, 1512.056
772.476, 1607.810
773.763, 1480.544
775.050, 1529.257
776.337, 1409.948
777.624, 1433.619
778.910, 1448.269
780.196, 1430.896
781.482, 1245.503
782.768, 1231.091
784.054, 1109.662
785.339, 1170.225
786.625, 1155.774
787.910, 1167.321
789.195, 981.847
790.479, 1099.355
791.764, 1077.841
793.048, 1023.310
794.332, 1242.766
795.616, 1160.208
796.900, 1295.634
798.183, 1386.046
799.467, 1526.284
800.750, 1636.348
802.033, 1847.284
803.316, 2018.424
804.598, 2317.562
805.880, 2578.576
807.163, 2836.613
808.445, 3129.717
809.726, 3456.781
811.008, 3630.602
812.289, 4054.233
813.570, 4420.005
814.851, 4624.883
816.132, 5131.733
817.413, 5570.304
818.693, 6046.479
819.973, 6729.621
821.253, 7704.722
822.533, 8356.517
823.813, 8846.167
825.092, 8893.601
826.371, 9017.699
827.650, 8302.303
828.929, 7795.215
830.208, 7020.770
831.486, 6314.763
832.764, 5789.012
834.042, 5236.818
835.320, 4903.853
836.598, 4840.706
837.875, 4630.344
839.152, 4507.969
840.429, 4270.773
841.706, 4303.546
842.983, 4511.729
844.259, 4421.123
845.536, 4510.344
846.812, 4787.980
848.088, 4674.189
849.363, 4881.898
850.639, 4938.311
851.914, 4942.326
853.189, 4968.768
854.464, 4870.607
855.739, 4820.946
857.013, 5051.007
858.288, 5355.207
859.562, 5380.735
860.836, 5625.464
862.110, 6094.916
863.383, 6546.039
864.656, 7134.277
865.930, 8135.632
867.203, 9013.918
868.475, 10442.081
869.748, 12124.573
871.020, 14559.404
872.292, 17606.172
873.564, 20651.615
874.836, 25233.209
876.108, 30063.484
877.379, 34969.500
878.650, 39498.770
879.922, 42754.809
881.192, 42239.230
882.463, 39765.750
883.733, 35232.855
885.004, 30766.822
886.274, 25931.498
887.544, 21662.908
888.813, 17953.471
890.083, 15223.922
891.352, 12594.702
892.621, 10724.634
893.890, 9130.820
895.159, 7892.865
896.427, 6788.619
897.695, 5927.524
898.964, 5110.830
900.232, 4476.355
901.499, 3972.902
902.767, 3564.627
904.034, 3255.666
905.301, 3037.709
906.568, 2728.983
907.835, 2611.375
909.102, 2442.499
910.368, 2294.826
911.634, 2080.062
912.900, 1951.274
914.166, 1910.621
915.432, 1754.461
916.697, 1759.012
917.962, 1629.658
919.227, 1469.225
920.492, 1529.796
921.757, 1263.404
923.021, 1386.076
924.285, 1223.714
925.550, 1092.545
926.813, 1106.364
928.077, 910.828
929.341, 925.573
930.604, 876.206
931.867, 859.592
933.130, 828.181
934.393, 664.069
935.655, 644.493
936.918, 624.906
938.180, 528.754
939.442, 654.810
940.703, 642.647
941.965, 686.231
943.226, 688.766
944.488, 697.532
945.749, 578.623
947.009, 732.405
948.270, 808.369
949.530, 776.259
950.791, 578.356
952.051, 663.287
953.311, 552.961
954.570, 466.421
955.830, 391.376
957.089, 322.537
958.348, 369.942
959.607, 261.764
960.866, 242.110
962.124, 321.526
963.383, 194.858
964.641, 234.249
965.899, 201.721
967.156, 264.691
968.414, 320.808
969.671, 235.221
970.928, 254.325
972.185, 351.688
973.442, 313.405
974.699, 396.448
975.955, 451.485
977.211, 562.793
978.468, 558.245
979.723, 673.299
980.979, 708.345
982.234, 823.603
983.490, 804.877
984.745, 844.876
986.000, 706.929
987.254, 918.957
988.509, 864.574
989.763, 798.009
991.017, 1100.486
992.271, 995.745
993.525, 1013.423
994.779, 1035.892
996.032, 1001.410
997.285, 1251.972
998.538, 1285.610
999.791, 1437.928
1001.044, 1500.387
1002.296, 1861.722
1003.548, 1795.704
1004.800, 2336.599
1006.052, 2264.337
1007.304, 2394.942
1008.555, 2570.580
1009.807, 2273.936
1011.058, 2074.127
1012.309, 1579.867
1013.559, 1347.839
1014.810, 1167.205
1016.060, 1011.299
1017.310, 879.061
1018.560, 654.046
1019.810, 629.834
1021.060, 505.037
1022.309, 299.758
1023.558, 409.299
1024.807, 194.721
1026.056, 238.788
1027.305, 172.059
1028.553, 231.330
1029.801, 151.818
1031.049, 258.296
1032.297, 207.226
1033.545, 200.116
1034.793, 41.950
1036.040, 264.945
1037.287, 145.813
1038.534, 97.155
1039.781, 262.897
1041.027, 108.177
1042.274, 235.330
1043.520, 90.402
1044.766, 88.606
1046.012, 187.815
1047.257, 144.776
1048.503, 59.302
1049.748, 141.380
1050.993, 246.739
1052.238, 40.026
1053.483, 222.059
1054.727, 178.974
1055.971, 96.133
1057.216, 70.488
1058.459, 136.515
1059.703, 90.891
1060.947, 115.316
1062.190, 123.417
1063.433, 99.062
1064.676, 2.753
1065.919, 55.656
1067.162, 34.944
1068.404, 56.910
1069.646, 58.519
1070.888, 51.850
1072.130, 39.458
1073.372, 49.598
1074.613, 5.701
1075.855, 10.976
1077.096, 98.386
1078.337, 34.134
1079.578, 63.563
1080.818, 124.188
1082.059, 78.132
1083.299, 9.002
1084.539, 15.352
1085.779, 49.488
1087.018, 30.548
1088.258, 62.735
1089.497, 30.743
1090.736, 92.904
1091.975, 106.535
1093.213, 52.841
1094.452, 25.599
1095.690, 18.522
1096.928, 10.197
1098.166, 19.729
1099.404, 22.899
1100.642, 21.762
1101.879, 84.474
1103.116, 59.119
1104.353, 98.056
1105.590, 5.951
1106.827, 42.096
1108.063, 12.944
1109.299, 53.361
1110.536, 85.593
1111.771, 83.543
1113.007, 67.809
1114.243, 100.030
1115.478, 75.433
1116.713, 61.175
1117.948, 33.473
1119.183, 27.941
1120.418, 183.287
1121.652, 100.615
1122.886, 313.427
1124.120, 368.365
1125.354, 218.917
1126.588, 185.976
1127.821, 47.480
1129.055, 57.107
1130.288, 16.414
1131.521, 37.920
1132.753, 81.371
1133.986, 0.792
1135.218, 0.224
1136.450, 183.463
1137.682, 236.074
1138.914, 225.288
1140.146, 279.940
1141.377, 183.661
1142.609, 235.828
1143.840, 227.776
1145.071, 217.810
1146.301, 205.246
1147.532, 283.094
1148.762, 265.350
1149.992, 302.868
1151.222, 152.541
1152.452, 182.114
1153.682, 226.417
1154.911, 259.679
1156.140, 252.637
1157.369, 344.470
1158.598, 192.721
1159.827, 195.981
1161.055, 194.438
1162.284, 346.534
1163.512, 179.263
1164.740, 257.430
1165.967, 215.818
1167.195, 263.367
1168.422, 164.215
1169.650, 281.464
1170.877, 343.147
1172.103, 388.448
1173.330, 225.015
1174.557, 175.320
1175.783, 182.274
1177.009, 367.164
1178.235, 367.525
1179.461, 270.979
1180.686, 278.694
1181.912, 295.606
1183.137, 253.439
1184.362, 281.819
1185.587, 178.228
1186.811, 319.590
1188.036, 188.599
1189.260, 214.916
1190.484, 238.465
1191.708, 206.251
1192.932, 203.241
1194.155, 258.158
1195.378, 131.779
1196.602, 219.828
1197.825, 147.155
1199.047, 171.265
1200.270, 196.425
1201.492, 231.518
1202.715, 166.871
1203.937, 352.485
1205.159, 185.318
1206.380, 333.328
1207.602, 115.590
1208.823, 385.312
1210.044, 25.241
1211.265, 134.974
1212.486, 288.101
1213.707, 312.554
1214.927, 152.112
1216.147, 219.365
1217.367, 296.784
1218.587, 184.589
1219.807, 308.514
1221.027, 308.805
1222.246, 258.718
1223.465, 217.973
1224.684, 148.905
1225.903, 195.922
1227.121, 380.609
1228.340, 297.479
1229.558, 306.013
1230.776, 349.459
1231.994, 303.454
1233.212, 210.296
1234.429, 292.980
1235.646, 329.165
1236.864, 395.334
1238.081, 273.529
1239.297, 342.009
1240.514, 270.705
1241.730, 372.353
1242.947, 443.436
1244.163, 347.688
1245.378, 396.779
1246.594, 421.240
1247.810, 398.729
1249.025, 474.662
1250.240, 281.007
1251.455, 264.693
1252.670, 264.644
1253.885, 436.687
1255.099, 318.467
1256.313, 251.176
1257.527, 384.786
1258.741, 211.785
1259.955, 403.861
1261.168, 415.599
1262.382, 229.325
1263.595, 337.240
1264.808, 357.230
1266.021, 409.871
1267.233, 139.053
1268.446, 245.142
1269.658, 203.352
1270.870, 283.124
1272.082, 149.932
1273.294, 268.925
1274.505, 225.183
1275.716, 286.442
1276.928, 185.395
1278.139, 81.260
1279.349, 124.579
1280.560, 93.612
1281.770, 210.083
1282.981, 125.036
1284.191, 167.230
1285.401, 115.101
1286.610, 90.099
1287.820, 152.596
1289.029, 189.402
1290.239, 153.900
1291.448, 32.854
1292.656, 167.063
1293.865, 7.742
1295.073, 29.996
1296.282, 162.274
1297.490, 33.181
1298.698, 70.342
1299.906, 67.944
1301.113, 86.579
1302.320, 92.070
1303.528, 2.217
1304.735, 14.782
1305.942, 110.669
1307.148, 19.562
1308.355, 69.699
1309.561, 118.239
1310.767, 44.086
1311.973, 65.240
1313.179, 128.650
1314.384, 24.537
1315.590, 102.202
1316.795, 188.135
1318.000, 7.515
1319.205, 50.085
1320.410, 32.644
1321.614, 207.507
1322.819, 108.326
1324.023, 76.965
1325.227, 59.174
1326.431, 7.759
1327.634, 94.254
1328.838, 63.986
1330.041, 68.264
1331.244, 46.903
1332.447, 71.562
1333.650, 129.571
1334.852, 29.414
1336.055, 0.566
1337.257, 21.300
1338.459, 146.913
1339.661, 195.660
1340.862, 230.921
1342.064, 220.134
1343.265, 249.137
1344.466, 289.152
1345.667, 207.194
1346.868, 372.295
1348.068, 221.040
1349.269, 457.476
1350.469, 485.131
1351.669, 226.324
1352.869, 449.358
1354.069, 287.609
1355.268, 274.209
1356.468, 278.159
1357.667, 12.777
1358.866, 175.410
1360.065, 244.260
1361.263, 180.363
1362.462, 87.729
1363.660, 58.552
1364.858, 125.826
1366.056, 147.040
1367.254, 80.990
1368.451, 183.717
1369.649, 81.021
1370.846, 42.115
1372.043, 33.393
1373.240, 157.289
1374.436, 99.016
1375.633, 76.732
1376.829, 129.889
1378.025, 31.410
1379.221, 70.014
1380.417, 88.225
1381.613, 106.211
1382.808, 68.756
1384.003, 138.516
1385.199, 82.826
1386.393, 243.193
1387.588, 140.508
1388.783, 15.725
1389.977, 259.008
1391.171, 72.957
1392.365, 210.170
1393.559, 144.619
1394.753, 163.473
1395.946, 369.109
1397.140, 136.916
1398.333, 113.504
1399.526, 222.254
1400.719, 207.586
1401.911, 113.896
1403.104, 302.289
1404.296, 107.686
1405.488, 202.920
1406.680, 102.842
1407.872, 213.529
1409.063, 98.705
1410.255, 125.369
1411.446, 281.004
1412.637, 146.867
1413.828, 218.252
1415.018, 117.939
1416.209, 323.104
1417.399, 270.186
1418.589, 215.885
1419.779, 202.424
1420.969, 198.971
1422.159, 113.158
1423.348, 196.109
1424.537, 175.596
1425.726, 361.875
1426.915, 147.568
1428.104, 246.688
1429.293, 185.283
1430.481, 267.527
1431.669, 126.307
1432.857, 210.250
1434.045, 27.223
1435.233, 240.182
1436.420, 105.531
1437.608, 363.289
1438.795, 380.438
1439.982, 208.094
1441.169, 159.752
1442.355, 212.045
1443.542, 195.891
1444.728, 158.682
1445.914, 366.912
1447.100, 230.455
1448.286, 213.973
1449.472, 185.619
1450.657, 346.203
1451.842, 99.027
1453.027, 294.268
1454.212, 293.000
1455.397, 287.191
1456.581, 511.613
1457.766, 209.008
1458.950, 318.053
1460.134, 411.652
1461.318, 386.795
1462.501, 476.645
1463.685, 309.721
1464.868, 417.746
1466.051, 600.467
1467.234, 338.496
1468.417, 644.104
1469.600, 385.387
1470.782, 415.074
1471.965, 558.109
1473.147, 548.092
1474.329, 450.500
1475.510, 504.098
1476.692, 483.027
1477.873, 355.855
1479.055, 254.396
1480.236, 453.848
1481.416, 295.229
1482.597, 432.615
1483.778, 197.037
1484.958, 345.123
1486.138, 205.670
1487.318, 51.406
1488.498, 162.205
1489.678, 515.166
1490.857, 138.363
1492.037, 961.781
1493.216, 212.395
1494.395, 284.135
1495.574, 338.971
1496.752, 150.873
1497.931, 331.037
1499.109, 112.410
1500.287, 237.029
1501.465, 65.951
1502.643, 22.227
1503.820, 5.881
1504.998, 124.943
1506.175, 276.445
1507.352, 141.482
1508.529, 166.160
1509.706, 166.611
1510.882, 23.826
1512.059, 4.711
1513.235, 376.170
1514.411, 191.873
1515.587, 151.889
1516.762, 0.000
##END=



