##NAMES=Groutite
##RRUFFID=R080004
##IDEAL CHEMISTRY=Mn^3+^O(OH)
##LOCALITY=Roberts mine, Crosby, Minnesota, USA
##OWNER=RRUFF
##SOURCE=Michael Scott
##DESCRIPTION=Black crystalline and in some cases striated.
##STATUS=The identification of this mineral has been confirmed by single-crystal X-ray diffraction.
##URL=rruff.info/R080004
148.5071, 0.0000000E+00
148.9892, 0.1404880
149.4714, 4.6383001E-02
149.9535, 9.0410002E-03
150.4356, 0.2313770
150.9177, 0.4214860
151.3998, 0.5171280
151.8819, 0.5634120
152.3641, 0.5305330
152.8462, 0.4798130
153.3283, 0.4343990
153.8104, 0.3686310
154.2925, 0.2629380
154.7746, 0.2354550
155.2568, 0.3468890
155.7389, 0.4603270
156.2210, 0.4899410
156.7031, 0.4351230
157.1852, 0.4074120
157.6673, 0.5863860
158.1495, 0.6587510
158.6316, 0.7191100
159.1137, 0.8617520
159.5958, 1.013746
160.0779, 1.081497
160.5600, 1.009926
161.0422, 0.8759920
161.5243, 0.8483330
162.0064, 0.8611200
162.4885, 0.8765910
162.9706, 0.9313180
163.4527, 0.9967290
163.9349, 1.030502
164.4170, 1.025042
164.8991, 0.9641570
165.3812, 0.8108840
165.8633, 0.3189260
166.3454, 5.6898002E-02
166.8276, 5.8396999E-02
167.3097, 0.6292500
167.7918, 1.080404
168.2739, 1.261452
168.7560, 1.313976
169.2381, 1.430546
169.7203, 1.481667
170.2024, 1.514471
170.6845, 1.541580
171.1666, 1.401533
171.6487, 1.315989
172.1308, 1.418207
172.6130, 1.521273
173.0951, 1.461025
173.5772, 1.147839
174.0593, 0.7548580
174.5414, 0.5961400
175.0235, 0.8021240
175.5057, 0.9795760
175.9878, 1.043707
176.4699, 1.045809
176.9520, 1.032223
177.4341, 1.023952
177.9162, 1.013361
178.3984, 0.9721530
178.8805, 0.8694400
179.3626, 0.7722190
179.8447, 0.7085460
180.3268, 0.6494060
180.8089, 0.5391160
181.2911, 0.3407270
181.7732, 8.9925997E-02
182.2553, 5.9360000E-03
182.7374, 0.2715890
183.2195, 0.4633350
183.7016, 0.4458940
184.1838, 0.2830680
184.6659, 8.2560003E-02
185.1480, 0.1014580
185.6301, 0.2605760
186.1122, 0.3036060
186.5943, 0.1678710
187.0765, 1.1053000E-02
187.5586, 0.1536430
188.0407, 0.3009760
188.5228, 0.3478870
189.0049, 0.2040460
189.4870, 8.9336000E-02
189.9692, 0.2507800
190.4513, 0.1683690
190.9334, 5.5071000E-02
191.4155, 7.9744004E-02
191.8976, 0.2324640
192.3797, 0.3317410
192.8619, 0.2097630
193.3440, 5.2696001E-02
193.8261, 0.2154640
194.3082, 0.1503470
194.7903, 4.4126999E-02
195.2724, 0.1339990
195.7546, 0.4560240
196.2367, 0.7342760
196.7188, 0.6683900
197.2009, 0.4703810
197.6830, 0.4349980
198.1651, 0.7405570
198.6473, 1.194448
199.1294, 1.454542
199.6115, 1.450575
200.0936, 1.421280
200.5757, 1.526188
201.0578, 1.664907
201.5400, 1.693970
202.0221, 1.502052
202.5042, 1.187840
202.9863, 1.034782
203.4684, 1.074800
203.9505, 1.248592
204.4327, 1.627438
204.9148, 2.084154
205.3969, 2.448820
205.8790, 2.624517
206.3611, 2.683323
206.8432, 2.697849
207.3254, 2.609602
207.8075, 2.547327
208.2896, 2.504251
208.7717, 2.511744
209.2538, 2.624954
209.7359, 2.889372
210.2181, 3.284758
210.7002, 3.613836
211.1823, 3.848286
211.6644, 4.040558
212.1465, 4.209412
212.6286, 4.341780
213.1108, 4.401751
213.5929, 4.355227
214.0750, 4.214834
214.5571, 4.174360
215.0392, 4.296597
215.5213, 4.439371
216.0035, 4.573591
216.4856, 4.699663
216.9677, 4.843071
217.4498, 5.039747
217.9319, 5.269571
218.4140, 5.258512
218.8961, 4.872787
219.3783, 4.443399
219.8604, 4.115103
220.3425, 3.853199
220.8246, 3.512926
221.3067, 2.957645
221.7888, 2.253149
222.2710, 1.828350
222.7531, 1.883530
223.2352, 1.988148
223.7173, 1.904181
224.1994, 1.658615
224.6815, 1.453140
225.1637, 1.409166
225.6458, 1.493393
226.1279, 1.556265
226.6100, 1.546782
227.0921, 1.563688
227.5742, 1.710852
228.0564, 1.972391
228.5385, 2.183790
229.0206, 2.210196
229.5027, 2.145700
229.9848, 2.204397
230.4669, 2.475264
230.9491, 2.768179
231.4312, 2.918449
231.9133, 2.932398
232.3954, 2.910492
232.8775, 2.819824
233.3596, 2.739443
233.8418, 2.809895
234.3239, 3.105597
234.8060, 3.435575
235.2881, 3.565060
235.7702, 3.462814
236.2523, 3.444880
236.7345, 3.699474
237.2166, 4.058380
237.6987, 4.394903
238.1808, 4.690104
238.6629, 4.940046
239.1451, 5.145498
239.6272, 5.310108
240.1093, 5.385616
240.5914, 5.190098
241.0735, 5.003534
241.5556, 5.072100
242.0378, 5.459265
242.5199, 5.935995
243.0020, 6.196983
243.4841, 6.182171
243.9662, 6.176846
244.4483, 6.235575
244.9305, 6.342348
245.4126, 6.495287
245.8947, 6.684057
246.3768, 6.876141
246.8589, 7.020195
247.3410, 7.092516
247.8232, 7.148117
248.3053, 7.194111
248.7874, 7.252438
249.2695, 7.329651
249.7516, 7.419224
250.2337, 7.512365
250.7159, 7.607845
251.1980, 7.713457
251.6801, 7.819183
252.1622, 7.877651
252.6443, 7.961126
253.1264, 8.155451
253.6086, 8.450268
254.0907, 8.741970
254.5728, 8.897591
255.0549, 8.872871
255.5370, 8.840080
256.0191, 8.765648
256.5013, 8.713634
256.9834, 8.691490
257.4655, 8.715553
257.9476, 8.827927
258.4297, 9.088974
258.9118, 9.554853
259.3940, 9.942415
259.8761, 10.28751
260.3582, 10.54304
260.8403, 10.65715
261.3224, 10.64730
261.8045, 10.58595
262.2867, 10.53991
262.7688, 10.51472
263.2509, 10.46597
263.7330, 10.29668
264.2151, 10.19599
264.6972, 10.28617
265.1794, 10.53629
265.6615, 10.83757
266.1436, 11.12320
266.6257, 11.40201
267.1078, 11.41687
267.5899, 10.90026
268.0721, 10.44158
268.5542, 10.33335
269.0363, 10.50619
269.5184, 10.72355
270.0005, 10.82672
270.4826, 10.82292
270.9648, 10.81820
271.4469, 10.78535
271.9290, 10.77916
272.4111, 10.85906
272.8932, 10.98445
273.3753, 11.05068
273.8575, 10.98562
274.3396, 10.82269
274.8217, 10.73793
275.3038, 10.73251
275.7859, 10.78171
276.2680, 10.98033
276.7502, 11.22624
277.2323, 11.29562
277.7144, 11.06634
278.1965, 10.62925
278.6786, 10.24253
279.1607, 9.934166
279.6429, 9.616581
280.1250, 9.308201
280.6071, 8.967991
281.0892, 8.516968
281.5713, 7.916691
282.0534, 7.215399
282.5356, 6.495392
283.0177, 5.764711
283.4998, 5.001883
283.9819, 4.133730
284.4640, 3.249535
284.9461, 2.479309
285.4283, 1.856087
285.9104, 1.361540
286.3925, 1.000322
286.8746, 0.7755130
287.3567, 0.5781480
287.8388, 0.4050350
288.3210, 0.2389030
288.8031, 1.7353000E-02
289.2852, 0.2873360
289.7673, 0.5054990
290.2494, 0.3600270
290.7315, 0.1230010
291.2137, 0.4047510
291.6958, 0.2782480
292.1779, 1.9831000E-02
292.6600, 0.2605880
293.1421, 0.4224280
293.6242, 0.5229640
294.1064, 0.5521370
294.5885, 0.5231000
295.0706, 0.5112340
295.5527, 0.5409600
296.0348, 0.5787450
296.5169, 0.6069010
296.9991, 0.6238210
297.4812, 0.6034320
297.9633, 0.5115280
298.4454, 0.3717880
298.9275, 0.2633150
299.4096, 0.2034360
299.8918, 0.1587810
300.3739, 9.3604997E-02
300.8560, 1.5333000E-02
301.3381, 1.1293000E-02
301.8202, 8.9391999E-02
302.3023, 0.2208210
302.7845, 0.1919120
303.2666, 4.9734000E-02
303.7487, 0.3212240
304.2308, 0.5571990
304.7129, 0.7465400
305.1950, 0.8374310
305.6772, 0.7791820
306.1593, 0.6614610
306.6414, 0.5868420
307.1235, 0.5399700
307.6056, 0.6094400
308.0877, 0.9560720
308.5699, 1.440815
309.0520, 1.714354
309.5341, 1.650568
310.0162, 1.499329
310.4983, 1.566708
310.9804, 1.816484
311.4626, 2.017145
311.9447, 2.037901
312.4268, 1.984495
312.9089, 2.019438
313.3910, 2.166821
313.8731, 2.363026
314.3553, 2.587137
314.8374, 2.822823
315.3195, 3.015501
315.8016, 3.133047
316.2837, 3.214981
316.7658, 3.272707
317.2480, 3.303782
317.7301, 3.415871
318.2122, 3.754185
318.6943, 4.201006
319.1764, 4.467030
319.6585, 4.433542
320.1407, 4.337908
320.6228, 4.327633
321.1049, 4.401955
321.5870, 4.569567
322.0691, 4.885006
322.5512, 5.254246
323.0334, 5.505556
323.5155, 5.609222
323.9976, 5.692287
324.4797, 5.828054
324.9618, 5.996851
325.4439, 6.121294
325.9261, 6.148464
326.4082, 6.186594
326.8903, 6.400885
327.3724, 6.785114
327.8545, 7.173906
328.3366, 7.484386
328.8188, 7.767530
329.3009, 8.131567
329.7830, 8.612568
330.2651, 9.079468
330.7472, 9.361828
331.2293, 9.499491
331.7115, 9.717236
332.1936, 10.13514
332.6757, 10.60522
333.1578, 10.97483
333.6399, 11.23709
334.1220, 11.45717
334.6042, 11.65995
335.0863, 11.85690
335.5684, 12.07966
336.0505, 12.26737
336.5326, 12.54430
337.0147, 13.07371
337.4969, 13.79370
337.9790, 14.41077
338.4611, 14.76268
338.9432, 14.96309
339.4253, 15.27250
339.9074, 15.71346
340.3896, 16.18069
340.8717, 16.66630
341.3538, 17.14574
341.8359, 17.55295
342.3180, 17.85486
342.8001, 18.13964
343.2822, 18.57781
343.7643, 19.19792
344.2465, 19.67260
344.7286, 19.84917
345.2107, 19.89643
345.6928, 19.96057
346.1749, 20.06446
346.6570, 20.27079
347.1392, 20.66059
347.6213, 21.24230
348.1034, 21.72905
348.5855, 22.07517
349.0676, 22.36530
349.5497, 22.66153
350.0319, 22.96012
350.5140, 23.21927
350.9961, 23.41149
351.4782, 23.55546
351.9603, 23.73344
352.4424, 24.02131
352.9246, 24.25237
353.4067, 24.33207
353.8888, 24.32568
354.3709, 24.34961
354.8530, 24.44927
355.3351, 24.59669
355.8173, 24.73585
356.2994, 24.84600
356.7815, 24.99977
357.2636, 25.18703
357.7457, 25.42647
358.2278, 25.73788
358.7100, 26.12406
359.1921, 26.57710
359.6742, 27.08424
360.1563, 27.64803
360.6384, 28.26767
361.1205, 28.94810
361.6027, 29.67374
362.0848, 30.39197
362.5669, 31.13994
363.0490, 32.05026
363.5311, 33.22623
364.0132, 34.63305
364.4954, 35.96173
364.9775, 37.06327
365.4596, 38.25214
365.9417, 39.68084
366.4238, 41.20684
366.9059, 42.63516
367.3881, 43.89274
367.8702, 45.02916
368.3523, 46.14316
368.8344, 47.15910
369.3165, 48.27901
369.7986, 49.56536
370.2808, 50.91829
370.7629, 52.29544
371.2450, 53.66612
371.7271, 54.97422
372.2092, 56.13940
372.6913, 57.14129
373.1735, 58.19453
373.6556, 59.21228
374.1377, 60.35484
374.6198, 61.89327
375.1019, 63.60554
375.5840, 64.98270
376.0662, 65.66081
376.5483, 65.81705
377.0304, 66.29967
377.5125, 67.50384
377.9946, 68.47217
378.4767, 68.97255
378.9589, 69.22820
379.4410, 69.43729
379.9231, 69.66535
380.4052, 69.88873
380.8873, 70.12450
381.3694, 70.47810
381.8516, 70.47794
382.3337, 70.03062
382.8158, 69.26555
383.2979, 68.22202
383.7800, 66.90987
384.2621, 65.32807
384.7443, 63.43439
385.2264, 61.25161
385.7085, 58.98481
386.1906, 56.67599
386.6727, 54.18971
387.1548, 51.46565
387.6370, 48.56253
388.1191, 45.57024
388.6012, 42.47587
389.0833, 39.38982
389.5654, 36.50690
390.0475, 33.82856
390.5297, 31.36419
391.0118, 29.21436
391.4939, 27.21407
391.9760, 25.23941
392.4581, 23.26948
392.9402, 21.39467
393.4224, 19.68110
393.9045, 18.12682
394.3866, 16.70817
394.8687, 15.42558
395.3508, 14.29695
395.8329, 13.34290
396.3151, 12.53715
396.7972, 11.81662
397.2793, 11.17067
397.7614, 10.58711
398.2435, 10.05392
398.7256, 9.579288
399.2078, 9.115911
399.6899, 8.635641
400.1720, 8.165350
400.6541, 7.750032
401.1362, 7.399330
401.6183, 7.059824
402.1005, 6.709051
402.5826, 6.355518
403.0647, 5.992754
403.5468, 5.608566
404.0289, 5.246317
404.5110, 4.974516
404.9932, 4.793299
405.4753, 4.651276
405.9574, 4.591593
406.4395, 4.524401
406.9216, 4.349199
407.4037, 4.069719
407.8859, 3.804701
408.3680, 3.652504
408.8501, 3.602755
409.3322, 3.515898
409.8143, 3.351015
410.2964, 3.199417
410.7786, 3.139793
411.2607, 3.106920
411.7428, 2.961096
412.2249, 2.641350
412.7070, 2.255419
413.1891, 2.016502
413.6713, 2.019865
414.1534, 2.014597
414.6355, 2.023766
415.1176, 2.008026
415.5997, 1.922163
416.0818, 1.774822
416.5640, 1.620642
417.0461, 1.507576
417.5282, 1.436022
418.0103, 1.380234
418.4924, 1.360506
418.9745, 1.334862
419.4567, 1.312872
419.9388, 1.273748
420.4209, 1.170033
420.9030, 0.9792160
421.3851, 0.7706300
421.8672, 0.7036210
422.3494, 0.8575020
422.8315, 0.9493010
423.3136, 0.9213410
423.7957, 0.8513370
424.2778, 0.7592220
424.7599, 0.6610010
425.2421, 0.5981830
425.7242, 0.6407200
426.2063, 0.7684610
426.6884, 0.7635460
427.1705, 0.5126690
427.6526, 0.3204250
428.1348, 0.3844380
428.6169, 0.5642200
429.0990, 0.6514020
429.5811, 0.5527940
430.0632, 0.3937110
430.5453, 0.3485240
431.0275, 0.4205910
431.5096, 0.4350010
431.9917, 0.2853890
432.4738, 0.1171760
432.9559, 9.5073998E-02
433.4380, 0.2172470
433.9202, 0.3367940
434.4023, 0.4040010
434.8844, 0.4172100
435.3665, 0.3486770
435.8486, 0.1856650
436.3307, 3.7857000E-02
436.8129, 2.8359999E-03
437.2950, 3.9806001E-02
437.7771, 5.0857998E-02
438.2592, 7.7530001E-03
438.7413, 6.0876999E-02
439.2234, 5.3410001E-02
439.7056, 9.6000005E-03
440.1877, 1.2789000E-02
440.6698, 7.1749999E-03
441.1519, 5.7215001E-02
441.6340, 0.1219370
442.1161, 0.2131080
442.5983, 0.2827380
443.0804, 0.3416370
443.5625, 0.3684980
444.0446, 0.3193040
444.5267, 0.2124750
445.0089, 0.1289020
445.4910, 0.1330320
445.9731, 0.2148780
446.4552, 0.2767960
446.9373, 0.2836210
447.4194, 0.3127170
447.9016, 0.4196070
448.3837, 0.5342270
448.8658, 0.5717450
449.3479, 0.5097690
449.8300, 0.3995570
450.3121, 0.3073690
450.7943, 0.2277740
451.2764, 0.1868990
451.7585, 0.1769830
452.2406, 0.2151170
452.7227, 0.3613590
453.2048, 0.5618110
453.6870, 0.6999630
454.1691, 0.6983070
454.6512, 0.6025240
455.1333, 0.5201090
455.6154, 0.4446260
456.0975, 0.4026790
456.5797, 0.4015160
457.0618, 0.4393690
457.5439, 0.5612850
458.0260, 0.7709260
458.5081, 0.8992900
458.9902, 0.7434270
459.4724, 0.3925500
459.9545, 0.1759430
460.4366, 0.1546650
460.9187, 0.1920510
461.4008, 0.1999090
461.8829, 0.1874070
462.3651, 0.1786560
462.8472, 0.2358890
463.3293, 0.2362350
463.8114, 4.1205999E-02
464.2935, 0.2987040
464.7756, 0.6042960
465.2578, 0.8120770
465.7399, 0.9502640
466.2220, 1.046173
466.7041, 1.079565
467.1862, 1.158857
467.6683, 1.333298
468.1505, 1.531649
468.6326, 1.675997
469.1147, 1.778749
469.5968, 1.919600
470.0789, 2.157631
470.5610, 2.481213
471.0432, 2.813538
471.5253, 3.195700
472.0074, 3.540510
472.4895, 3.795914
472.9716, 4.032907
473.4537, 4.344076
473.9359, 4.737293
474.4180, 5.115614
474.9001, 5.343859
475.3822, 5.394949
475.8643, 5.512089
476.3464, 5.736782
476.8286, 5.988787
477.3107, 6.285809
477.7928, 6.582697
478.2749, 6.794928
478.7570, 6.867231
479.2391, 6.897844
479.7213, 7.066778
480.2034, 7.400177
480.6855, 7.709957
481.1676, 7.953083
481.6497, 8.156887
482.1318, 8.334541
482.6140, 8.491325
483.0961, 8.656780
483.5782, 8.887783
484.0603, 9.125259
484.5424, 9.246792
485.0245, 9.236761
485.5067, 9.244164
485.9888, 9.378668
486.4709, 9.588173
486.9530, 9.725868
487.4351, 9.789413
487.9172, 9.775534
488.3994, 9.642178
488.8815, 9.459499
489.3636, 9.330484
489.8457, 9.264160
490.3278, 9.168259
490.8099, 8.962555
491.2921, 8.652023
491.7742, 8.310722
492.2563, 7.831806
492.7384, 7.443087
493.2205, 7.251354
493.7026, 7.172668
494.1848, 7.079308
494.6669, 6.932253
495.1490, 6.815966
495.6311, 6.894258
496.1132, 7.288822
496.5953, 7.462219
497.0775, 7.110191
497.5596, 6.834074
498.0417, 6.866285
498.5238, 7.159000
499.0059, 7.587551
499.4880, 8.115665
499.9702, 8.690998
500.4523, 9.216816
500.9344, 9.692997
501.4165, 10.13600
501.8986, 10.52862
502.3807, 10.91578
502.8629, 11.32400
503.3450, 11.74726
503.8271, 12.18881
504.3092, 12.66040
504.7913, 13.15530
505.2734, 13.66180
505.7556, 14.17435
506.2377, 14.65185
506.7198, 15.03063
507.2019, 15.39958
507.6840, 16.02507
508.1661, 17.05599
508.6482, 18.02080
509.1303, 18.72552
509.6125, 19.33232
510.0946, 20.03942
510.5767, 20.86209
511.0588, 21.65447
511.5409, 22.27847
512.0231, 22.74432
512.5052, 23.29773
512.9873, 23.91013
513.4694, 24.64560
513.9515, 25.66224
514.4337, 26.73238
514.9158, 27.58611
515.3979, 28.14846
515.8800, 28.56569
516.3621, 29.01904
516.8442, 29.52604
517.3264, 30.09221
517.8085, 30.76550
518.2906, 31.41100
518.7727, 31.97797
519.2548, 32.48138
519.7369, 32.92895
520.2191, 33.29568
520.7012, 33.68269
521.1833, 34.24873
521.6654, 34.97249
522.1475, 35.63840
522.6296, 36.21032
523.1118, 36.67736
523.5939, 36.98262
524.0760, 37.14814
524.5581, 37.31478
525.0402, 37.44655
525.5223, 37.64086
526.0045, 38.04256
526.4866, 38.56381
526.9687, 38.94075
527.4508, 39.04622
527.9329, 39.05419
528.4150, 39.29906
528.8972, 39.95700
529.3793, 40.43559
529.8614, 40.58426
530.3435, 40.70329
530.8256, 40.98855
531.3077, 41.38628
531.7899, 41.71014
532.2720, 41.83616
532.7541, 41.88146
533.2362, 42.17559
533.7183, 42.83224
534.2004, 43.41882
534.6826, 43.80364
535.1647, 44.14545
535.6468, 44.47997
536.1289, 44.83967
536.6110, 45.32029
537.0931, 46.08794
537.5753, 46.95763
538.0574, 47.50466
538.5395, 47.70935
539.0216, 48.07119
539.5037, 48.87955
539.9858, 49.88621
540.4680, 50.67843
540.9501, 51.24496
541.4322, 51.75665
541.9143, 52.28503
542.3964, 52.76698
542.8785, 53.07481
543.3607, 53.24702
543.8428, 53.52055
544.3249, 54.06434
544.8070, 54.78681
545.2891, 55.35109
545.7712, 55.77077
546.2534, 55.99039
546.7355, 55.71188
547.2176, 55.45703
547.6997, 55.76692
548.1818, 56.53088
548.6639, 57.13413
549.1461, 57.06146
549.6282, 56.46879
550.1103, 56.01459
550.5924, 55.76835
551.0745, 55.47454
551.5566, 55.06771
552.0388, 54.56671
552.5209, 53.97828
553.0030, 53.30304
553.4851, 52.54038
553.9672, 51.69666
554.4493, 50.75679
554.9315, 49.62856
555.4136, 48.30690
555.8957, 47.08836
556.3778, 46.23610
556.8599, 45.52519
557.3420, 44.32500
557.8242, 42.47985
558.3063, 40.62169
558.7884, 38.81485
559.2705, 37.09103
559.7526, 35.49686
560.2347, 34.03333
560.7169, 32.67162
561.1990, 31.41669
561.6811, 30.22205
562.1632, 28.88689
562.6453, 27.40152
563.1274, 25.78618
563.6096, 23.76087
564.0917, 21.84950
564.5738, 20.51073
565.0559, 19.68961
565.5380, 18.92256
566.0201, 17.89700
566.5023, 16.68115
566.9844, 15.39322
567.4665, 13.98687
567.9486, 12.79354
568.4307, 12.07660
568.9128, 11.53142
569.3950, 10.71317
569.8771, 9.589699
570.3592, 8.541645
570.8413, 7.652428
571.3234, 6.920753
571.8055, 6.426113
572.2877, 6.116982
572.7698, 5.768707
573.2519, 5.260258
573.7340, 4.633503
574.2161, 3.992928
574.6982, 3.206482
575.1804, 2.645164
575.6625, 2.523628
576.1446, 2.426155
576.6267, 2.061035
577.1088, 1.501282
577.5909, 0.9764210
578.0731, 0.6128690
578.5552, 0.4010120
579.0373, 0.3833430
579.5194, 0.6283260
580.0015, 0.6755980
580.4836, 0.2762910
580.9658, 0.1845170
581.4479, 0.4041520
581.9300, 0.4265060
582.4121, 0.4535560
582.8942, 0.6489910
583.3763, 0.8061680
583.8585, 0.6430930
584.3406, 0.2521820
584.8227, 2.6280000E-03
585.3048, 3.9703000E-02
585.7869, 0.1637610
586.2690, 9.1766000E-02
586.7512, 0.2376100
587.2333, 0.4646070
587.7154, 0.4391940
588.1975, 0.4800910
588.6796, 0.7564280
589.1617, 1.179218
589.6438, 1.597515
590.1259, 1.953922
590.6080, 2.308964
591.0901, 2.765884
591.5723, 3.343254
592.0544, 3.831940
592.5365, 4.148998
593.0186, 4.491333
593.5007, 4.904018
593.9828, 5.409092
594.4650, 6.072723
594.9471, 6.945927
595.4292, 7.827496
595.9113, 8.538876
596.3934, 9.143661
596.8755, 9.759552
597.3577, 10.40042
597.8398, 11.12949
598.3219, 12.02154
598.8040, 13.05331
599.2861, 14.04893
599.7682, 14.95874
600.2504, 15.89874
600.7325, 16.91072
601.2146, 17.95398
601.6967, 18.96895
602.1788, 19.96700
602.6609, 21.04059
603.1431, 22.27738
603.6252, 23.63717
604.1073, 24.90712
604.5894, 26.08004
605.0715, 27.18813
605.5536, 28.26277
606.0358, 29.25610
606.5179, 30.05866
607.0000, 30.70036
607.4821, 31.44660
607.9642, 32.57608
608.4464, 33.78145
608.9285, 34.64337
609.4106, 35.21135
609.8927, 35.76260
610.3748, 36.37727
610.8569, 37.12349
611.3391, 38.17253
611.8212, 39.71248
612.3033, 40.75586
612.7854, 40.88808
613.2675, 40.98064
613.7496, 41.51284
614.2318, 42.24299
614.7139, 42.74448
615.1960, 42.86894
615.6781, 42.79451
616.1602, 42.75187
616.6423, 42.73367
617.1245, 42.54502
617.6066, 42.16669
618.0887, 41.65735
618.5708, 40.97864
619.0529, 40.21030
619.5350, 39.47106
620.0172, 38.80446
620.4993, 38.04467
620.9814, 37.04994
621.4635, 35.92417
621.9456, 34.82117
622.4277, 33.74691
622.9099, 32.63594
623.3920, 31.45267
623.8741, 30.22841
624.3562, 29.07423
624.8383, 28.08177
625.3204, 27.02467
625.8026, 25.86412
626.2847, 24.68049
626.7668, 23.45976
627.2489, 22.25037
627.7310, 21.19168
628.2131, 20.38331
628.6953, 19.69873
629.1774, 18.86838
629.6595, 17.88447
630.1416, 16.99702
630.6237, 16.33134
631.1058, 15.66261
631.5880, 14.69898
632.0701, 13.54459
632.5522, 12.56170
633.0343, 11.89958
633.5164, 11.31769
633.9985, 10.70142
634.4807, 10.07878
634.9628, 9.496849
635.4449, 8.964851
635.9270, 8.451672
636.4091, 7.926758
636.8912, 7.396503
637.3734, 6.963549
637.8555, 6.737568
638.3376, 6.423607
638.8197, 5.880259
639.3018, 5.311266
639.7839, 4.874527
640.2661, 4.576279
640.7482, 4.325718
641.2303, 4.108217
641.7124, 3.885534
642.1945, 3.550457
642.6766, 3.117928
643.1588, 2.795074
643.6409, 2.671759
644.1230, 2.621920
644.6051, 2.497850
645.0872, 2.290142
645.5693, 2.059101
646.0515, 1.747414
646.5336, 1.475939
647.0157, 1.305305
647.4978, 1.198809
647.9799, 1.116852
648.4620, 1.042059
648.9442, 0.9478000
649.4263, 0.7383310
649.9084, 0.1223320
650.3905, 0.3778570
650.8726, 0.5232980
651.3547, 0.5646190
651.8369, 0.1901260
652.3190, 0.3517610
652.8011, 0.2983760
653.2832, 0.2372190
653.7653, 0.1325110
654.2474, 0.2275960
654.7296, 0.3276560
655.2117, 0.2074490
655.6938, 6.6790000E-02
656.1759, 0.2685590
656.6580, 0.3090320
657.1401, 0.2735210
657.6223, 0.2828520
658.1044, 0.3445950
658.5865, 0.4042760
659.0686, 0.5113180
659.5507, 0.5590290
660.0328, 0.4635490
660.5150, 0.3220480
660.9971, 0.2486020
661.4792, 0.2659800
661.9613, 0.3069110
662.4434, 0.3211860
662.9255, 0.3186340
663.4077, 0.3271660
663.8898, 0.3473930
664.3719, 0.3353860
664.8540, 0.2533930
665.3361, 0.1580050
665.8182, 0.1574900
666.3004, 0.2941880
666.7825, 0.3770680
667.2646, 0.3668290
667.7467, 0.3403510
668.2288, 0.3320790
668.7109, 0.3341850
669.1931, 0.3352890
669.6752, 0.3305530
670.1573, 0.3090780
670.6394, 0.2454530
671.1215, 0.1448170
671.6036, 6.9788001E-02
672.0858, 9.1439998E-03
672.5679, 1.5764000E-02
673.0500, 0.2018590
673.5321, 0.4128130
674.0142, 0.4007380
674.4963, 0.1303600
674.9785, 0.1078550
675.4606, 0.2257750
675.9427, 0.2827340
676.4248, 0.3091660
676.9069, 0.3150770
677.3890, 0.3243270
677.8712, 0.3457640
678.3533, 0.3415530
678.8354, 0.2304130
679.3175, 1.5148000E-02
679.7996, 9.2488997E-02
680.2817, 0.1147540
680.7639, 0.3154370
681.2460, 0.4041270
681.7281, 0.4376790
682.2102, 0.4816710
682.6923, 0.5462060
683.1744, 0.5817250
683.6566, 0.5074960
684.1387, 0.4228050
684.6208, 0.4888110
685.1029, 0.6717880
685.5850, 0.7814560
686.0671, 0.7306370
686.5493, 0.6321000
687.0314, 0.6624620
687.5135, 0.8589530
687.9956, 0.9820560
688.4777, 0.9256970
688.9598, 0.9191040
689.4420, 1.099043
689.9241, 1.315423
690.4062, 1.373235
690.8883, 1.246246
691.3704, 1.119658
691.8525, 1.150372
692.3347, 1.266438
692.8168, 1.340432
693.2989, 1.371083
693.7810, 1.363061
694.2631, 1.303453
694.7452, 1.249050
695.2274, 1.281751
695.7095, 1.415357
696.1916, 1.559043
696.6737, 1.751864
697.1558, 1.906111
697.6379, 1.971327
698.1201, 1.996945
698.6022, 2.037097
699.0843, 2.102171
699.5664, 2.172152
700.0485, 2.243590
700.5306, 2.301879
701.0128, 2.298563
701.4949, 2.231347
701.9770, 2.159382
702.4591, 2.093766
702.9412, 2.047030
703.4233, 2.041166
703.9055, 2.078900
704.3876, 2.102467
704.8697, 2.068824
705.3518, 2.071188
705.8339, 2.169126
706.3160, 2.304828
706.7982, 2.419931
707.2803, 2.501742
707.7624, 2.558067
708.2445, 2.589935
708.7266, 2.606719
709.2087, 2.660138
709.6909, 2.764558
710.1730, 2.727486
710.6551, 2.406497
711.1372, 2.094370
711.6193, 2.116909
712.1014, 2.408463
712.5836, 2.588173
713.0657, 2.546574
713.5478, 2.492751
714.0299, 2.505099
714.5120, 2.539701
714.9941, 2.533581
715.4763, 2.490645
715.9584, 2.471107
716.4405, 2.521336
716.9226, 2.605062
717.4047, 2.645295
717.8868, 2.645552
718.3690, 2.654332
718.8511, 2.675176
719.3332, 2.695174
719.8153, 2.701382
720.2974, 2.703277
720.7795, 2.729294
721.2617, 2.823095
721.7438, 2.850731
722.2259, 2.710653
722.7080, 2.533160
723.1901, 2.427011
723.6722, 2.390706
724.1544, 2.389102
724.6365, 2.413712
725.1186, 2.442397
725.6007, 2.413813
726.0828, 2.318490
726.5649, 2.295575
727.0471, 2.405811
727.5292, 2.473350
728.0113, 2.366290
728.4934, 2.183815
728.9755, 2.086400
729.4576, 2.098231
729.9398, 2.094096
730.4219, 2.010941
730.9040, 1.901710
731.3861, 1.814831
731.8682, 1.755753
732.3503, 1.708966
732.8325, 1.662392
733.3146, 1.636869
733.7967, 1.665918
734.2788, 1.746150
734.7609, 1.863616
735.2430, 2.058138
735.7252, 2.166799
736.2073, 2.086051
736.6894, 1.923573
737.1715, 1.786433
737.6536, 1.683207
738.1357, 1.634344
738.6179, 1.713730
739.1000, 1.756864
739.5821, 1.620640
740.0642, 1.417561
740.5463, 1.293565
741.0284, 1.282141
741.5106, 1.365976
741.9927, 1.568926
742.4748, 1.813650
742.9569, 1.777616
743.4390, 1.393847
743.9211, 1.123701
744.4033, 1.089824
744.8854, 1.137302
745.3675, 1.154912
745.8496, 1.151833
746.3317, 1.163550
746.8138, 1.215236
747.2960, 1.253991
747.7781, 1.256003
748.2602, 1.240394
748.7423, 1.206883
749.2244, 1.166041
749.7065, 1.160174
750.1887, 1.212852
750.6708, 1.275177
751.1529, 1.269207
751.6350, 1.195392
752.1171, 1.094167
752.5992, 0.9537630
753.0814, 0.8343240
753.5635, 0.7478480
754.0456, 0.7166420
754.5277, 0.8117660
755.0098, 1.074618
755.4919, 1.249701
755.9741, 1.275332
756.4562, 1.236940
756.9383, 1.154449
757.4204, 1.049322
757.9025, 0.9233990
758.3846, 0.7885110
758.8668, 0.7200550
759.3489, 0.8204110
759.8310, 1.026409
760.3131, 1.158101
760.7952, 1.214436
761.2773, 1.215783
761.7595, 1.156727
762.2416, 1.071074
762.7237, 0.9759070
763.2058, 0.8744020
763.6879, 0.8548080
764.1700, 1.021766
764.6522, 1.121370
765.1343, 1.074509
765.6164, 0.9717290
766.0985, 0.8839450
766.5806, 0.8079130
767.0627, 0.6958860
767.5449, 0.5112710
768.0270, 0.3362660
768.5091, 0.2511880
768.9912, 0.2564410
769.4733, 0.4218750
769.9554, 0.7597170
770.4376, 0.9680290
770.9197, 0.8376980
771.4018, 0.5279490
771.8839, 0.4041190
772.3660, 0.5546630
772.8481, 0.6381800
773.3303, 0.6033190
773.8124, 0.5643390
774.2945, 0.5518070
774.7766, 0.5614000
775.2587, 0.5973650
775.7408, 0.6567520
776.2230, 0.6926920
776.7051, 0.6539050
777.1872, 0.5933840
777.6693, 0.5839120
778.1514, 0.6072320
778.6335, 0.5993380
779.1157, 0.5436700
779.5978, 0.4863290
780.0799, 0.4776200
780.5620, 0.5038390
781.0441, 0.4672310
781.5262, 0.3305940
782.0084, 0.2204880
782.4905, 0.1578020
782.9726, 0.1244780
783.4547, 9.9821001E-02
783.9368, 9.5220000E-02
784.4189, 0.1503800
784.9011, 0.3137620
785.3832, 0.4351310
785.8653, 0.4352490
786.3474, 0.3640560
786.8295, 0.2183350
787.3116, 4.9961001E-02
787.7938, 7.1200001E-04
788.2759, 0.1266860
788.7580, 0.3197680
789.2401, 0.4259580
789.7222, 0.4484940
790.2043, 0.4569040
790.6865, 0.4550270
791.1686, 0.4152720
791.6507, 0.2792840
792.1328, 0.1566870
792.6149, 0.2415580
793.0970, 0.5359780
793.5792, 0.6424650
794.0613, 0.3435960
794.5434, 9.7880997E-02
795.0255, 8.7040000E-02
795.5076, 0.1699660
795.9897, 0.2243140
796.4719, 0.2327820
796.9540, 0.2088800
797.4361, 0.1419000
797.9182, 0.1039410
798.4003, 0.2616320
798.8824, 0.5416810
799.3646, 0.6288250
799.8467, 0.4819090
800.3288, 0.2791250
800.8109, 9.7194001E-02
801.2930, 2.3329999E-02
801.7751, 1.5791999E-02
802.2573, 0.2796520
802.7394, 0.4876380
803.2215, 0.7226090
803.7036, 0.7998120
804.1857, 0.5419370
804.6678, 0.1766050
805.1500, 7.5272001E-02
805.6321, 0.1852650
806.1142, 0.1821160
806.5963, 8.6329998E-03
807.0784, 0.2038620
807.5605, 0.3719780
808.0427, 0.4911650
808.5248, 0.5497910
809.0069, 0.5484860
809.4890, 0.4925510
809.9711, 0.3742670
810.4532, 0.2410420
810.9354, 0.2426110
811.4175, 0.4049340
811.8996, 0.4941940
812.3817, 0.4684710
812.8638, 0.4125970
813.3459, 0.3488740
813.8281, 0.2966140
814.3102, 0.3029770
814.7923, 0.3882550
815.2744, 0.4455800
815.7565, 0.4396100
816.2386, 0.4239920
816.7208, 0.4055950
817.2029, 0.4060370
817.6850, 0.4650980
818.1671, 0.5796950
818.6492, 0.6874310
819.1313, 0.7586300
819.6135, 0.7778990
820.0956, 0.6934720
820.5777, 0.5292400
821.0598, 0.3853810
821.5419, 0.2816230
822.0240, 0.2217340
822.5062, 0.2117580
822.9883, 0.2415160
823.4704, 0.2781890
823.9525, 0.3177170
824.4346, 0.3754080
824.9167, 0.5034080
825.3989, 0.5844850
825.8810, 0.5403190
826.3631, 0.4399380
826.8452, 0.3695200
827.3273, 0.3408330
827.8094, 0.3369450
828.2916, 0.3704490
828.7737, 0.4061880
829.2558, 0.3999460
829.7379, 0.3857430
830.2200, 0.4271620
830.7021, 0.5292300
831.1843, 0.6535170
831.6664, 0.7888390
832.1485, 0.8851200
832.6306, 0.7576320
833.1127, 0.4262070
833.5948, 0.3723410
834.0770, 0.7185190
834.5591, 1.050894
835.0412, 1.113997
835.5233, 0.9890010
836.0054, 0.8545240
836.4875, 0.6591160
836.9697, 0.6059600
837.4518, 0.8502200
837.9339, 1.032254
838.4160, 0.9788290
838.8981, 0.8384930
839.3802, 0.7782010
839.8624, 0.8086250
840.3445, 0.8279230
840.8266, 0.7376250
841.3087, 0.6741570
841.7908, 0.8305520
842.2729, 1.059612
842.7551, 1.094840
843.2372, 0.9233620
843.7193, 0.7033150
844.2014, 0.5261120
844.6835, 0.3985400
845.1656, 0.3327540
845.6478, 0.3290480
846.1299, 0.3885700
846.6120, 0.5372990
847.0941, 0.6376330
847.5762, 0.6076000
848.0583, 0.5333080
848.5405, 0.5429910
849.0226, 0.6478000
849.5047, 0.7127900
849.9868, 0.7271180
850.4689, 0.7229330
850.9510, 0.6960500
851.4332, 0.6628410
851.9153, 0.6361270
852.3974, 0.6090970
852.8795, 0.5853400
853.3616, 0.5599920
853.8438, 0.5531780
854.3259, 0.6019050
854.8080, 0.6695510
855.2901, 0.7004430
855.7722, 0.6929580
856.2543, 0.6471760
856.7365, 0.5640890
857.2186, 0.4987760
857.7007, 0.5220800
858.1828, 0.6141600
858.6649, 0.6586690
859.1470, 0.6463580
859.6292, 0.6480870
860.1113, 0.6969630
860.5934, 0.7710140
861.0755, 0.8377070
861.5576, 0.8790470
862.0397, 0.8461590
862.5219, 0.6707400
863.0040, 0.5579690
863.4861, 0.4810150
863.9682, 0.4566530
864.4503, 0.5150250
864.9324, 0.6259370
865.4146, 0.7710660
865.8967, 0.9389130
866.3788, 1.039996
866.8609, 0.9893330
867.3430, 0.8766230
867.8251, 0.7328480
868.3073, 0.6096320
868.7894, 0.6516830
869.2715, 0.8467670
869.7536, 0.9738460
870.2357, 0.8682650
870.7178, 0.6431670
871.2000, 0.5178880
871.6821, 0.4918030
872.1642, 0.5347880
872.6463, 0.6599950
873.1284, 0.7844660
873.6105, 0.8822750
874.0927, 0.9367280
874.5748, 0.9122880
875.0569, 0.8019500
875.5390, 0.7064080
876.0211, 0.5372320
876.5032, 0.5030280
876.9854, 0.8402250
877.4675, 1.145883
877.9496, 1.044083
878.4317, 0.6545840
878.9138, 0.3744490
879.3959, 0.3163290
879.8781, 0.3601450
880.3602, 0.5409360
880.8423, 0.7167030
881.3244, 0.7238070
881.8065, 0.6190960
882.2886, 0.5482500
882.7708, 0.5538670
883.2529, 0.5636470
883.7350, 0.4988070
884.2171, 0.4017160
884.6992, 0.3690450
885.1813, 0.3960380
885.6635, 0.4604880
886.1456, 0.5616300
886.6277, 0.6388620
887.1098, 0.6468560
887.5919, 0.6082870
888.0740, 0.5808760
888.5562, 0.5698530
889.0383, 0.5521140
889.5204, 0.5383210
890.0025, 0.5000410
890.4846, 0.4166770
890.9667, 0.3105960
891.4489, 0.1859420
891.9310, 4.8981000E-02
892.4131, 2.4225000E-02
892.8952, 4.7772001E-02
893.3773, 9.3622997E-02
893.8594, 5.6850002E-03
894.3416, 8.0724999E-02
894.8237, 2.8178001E-02
895.3058, 0.1145950
895.7879, 0.2128090
896.2700, 0.2204850
896.7521, 0.2108130
897.2343, 0.2548300
897.7164, 0.3148770
898.1985, 0.3394050
898.6806, 0.3330960
899.1627, 0.3095740
899.6448, 0.2745310
900.1270, 0.2393580
900.6091, 0.2138730
901.0912, 0.1951610
901.5733, 0.1730250
902.0554, 0.1471610
902.5375, 0.1484730
903.0197, 0.1924720
903.5018, 0.1997200
903.9839, 0.1178040
904.4660, 1.1010000E-03
904.9481, 7.8437001E-02
905.4302, 0.1138390
905.9124, 0.1115360
906.3945, 7.5935997E-02
906.8766, 5.1469998E-03
907.3587, 0.2510580
907.8408, 0.4345700
908.3229, 0.3033070
908.8051, 5.6599998E-03
909.2872, 0.1030550
909.7693, 0.1708130
910.2514, 0.3766080
910.7335, 0.3011800
911.2156, 0.1508600
911.6978, 2.0258000E-02
912.1799, 5.8357999E-02
912.6620, 1.2899000E-02
913.1441, 0.1410580
913.6262, 0.2345020
914.1083, 0.1184230
914.5905, 5.3171001E-02
915.0726, 7.0407003E-02
915.5547, 1.3036000E-02
916.0368, 9.9173002E-02
916.5189, 0.1601860
917.0010, 8.6222999E-02
917.4832, 0.1861830
917.9652, 0.4341750
918.4473, 0.2613530
918.9294, 0.2664250
919.4116, 0.3647890
919.8937, 5.0948001E-02
920.3758, 0.2731570
920.8579, 6.4806998E-02
921.3400, 0.1986850
921.8221, 0.1898420
922.3043, 3.5200000E-04
922.7864, 1.0588000E-02
923.2685, 0.3117390
923.7506, 0.4718940
924.2327, 0.3495560
924.7148, 0.2046950
925.1970, 8.2309999E-02
925.6791, 4.3770000E-03
926.1612, 5.5749998E-03
926.6433, 5.2147001E-02
927.1254, 0.1588100
927.6075, 0.4373330
928.0897, 0.5966670
928.5718, 0.4343100
929.0539, 0.1895700
929.5360, 4.0775999E-02
930.0181, 1.2499000E-02
930.5002, 4.1830000E-03
930.9824, 5.2868001E-02
931.4645, 9.1582000E-02
931.9466, 2.0207999E-02
932.4287, 6.7175999E-02
932.9108, 3.0169001E-02
933.3929, 7.9269998E-02
933.8751, 0.1307330
934.3572, 0.1103820
934.8393, 0.1024190
935.3214, 0.1626260
935.8035, 0.2517760
936.2856, 0.3122540
936.7678, 0.3432430
937.2499, 0.3201270
937.7320, 0.2400890
938.2141, 0.1895840
938.6962, 0.1966390
939.1783, 0.2601360
939.6605, 0.4018350
940.1426, 0.5895880
940.6247, 0.6068260
941.1068, 0.3707130
941.5889, 0.2184530
942.0710, 0.2041510
942.5532, 0.2304830
943.0353, 0.2686170
943.5174, 0.3056440
943.9995, 0.3111860
944.4816, 0.2799700
944.9637, 0.2849120
945.4459, 0.3791280
945.9280, 0.4376630
946.4101, 0.4043010
946.8922, 0.3513060
947.3743, 0.3438960
947.8564, 0.3567210
948.3386, 0.3087660
948.8207, 0.1640020
949.3028, 8.2273997E-02
949.7849, 0.1940510
950.2670, 0.3327470
950.7491, 0.3819340
951.2313, 0.3788210
951.7134, 0.3949400
952.1955, 0.4253170
952.6776, 0.3916140
953.1597, 0.2155950
953.6418, 6.5452002E-02
954.1240, 0.1772650
954.6061, 0.4154470
955.0882, 0.5470620
955.5703, 0.5730540
956.0524, 0.5412250
956.5345, 0.4765040
957.0167, 0.4666360
957.4988, 0.6129180
957.9809, 0.8217180
958.4630, 0.8165820
958.9451, 0.6181640
959.4272, 0.4998410
959.9094, 0.4949930
960.3915, 0.5190110
960.8736, 0.5325870
961.3557, 0.5499930
961.8378, 0.5963430
962.3199, 0.6692330
962.8021, 0.6967570
963.2842, 0.6581550
963.7663, 0.6647660
964.2484, 0.7673750
964.7305, 0.8457110
965.2126, 0.8107790
965.6948, 0.7027770
966.1769, 0.5972640
966.6590, 0.4663700
967.1411, 0.4450450
967.6232, 0.6647250
968.1053, 0.8300150
968.5875, 0.8388970
969.0696, 0.8039950
969.5517, 0.8173370
970.0338, 0.8580820
970.5159, 0.8622740
970.9980, 0.8124750
971.4802, 0.7399370
971.9623, 0.6223260
972.4444, 0.5168920
972.9265, 0.4242140
973.4086, 0.3928400
973.8907, 0.5174900
974.3729, 0.7626060
974.8550, 0.9438940
975.3371, 0.9639800
975.8192, 0.8997900
976.3013, 0.8083940
976.7834, 0.7192680
977.2656, 0.6107470
977.7477, 0.5129540
978.2298, 0.5095460
978.7119, 0.6317850
979.1940, 0.7270840
979.6761, 0.6640440
980.1583, 0.5509820
980.6404, 0.5777690
981.1225, 0.6743280
981.6046, 0.6110280
982.0867, 0.4184030
982.5688, 0.3853860
983.0510, 0.6235680
983.5331, 0.8883630
984.0152, 0.9048080
984.4973, 0.7593020
984.9794, 0.6978790
985.4615, 0.7186220
985.9437, 0.7321460
986.4258, 0.7254920
986.9079, 0.6698000
987.3900, 0.5447900
987.8721, 0.4191060
988.3542, 0.4149910
988.8364, 0.5287080
989.3185, 0.5822480
989.8006, 0.5635630
990.2827, 0.5343970
990.7648, 0.5024470
991.2469, 0.5100390
991.7291, 0.6087890
992.2112, 0.7288090
992.6933, 0.7081640
993.1754, 0.5119220
993.6575, 0.3733050
994.1396, 0.3128990
994.6218, 0.2730750
995.1039, 0.2273870
995.5860, 0.2138000
996.0681, 0.2811400
996.5502, 0.4003810
997.0323, 0.4984290
997.5145, 0.5882250
997.9966, 0.6127360
998.4787, 0.5187410
998.9608, 0.4222410
999.4429, 0.3140510
999.9250, 0.2559660
1000.407, 0.3704290
1000.889, 0.5833990
1001.371, 0.6193100
1001.854, 0.3204460
1002.336, 0.1595990
1002.818, 0.4395230
1003.300, 0.7207200
1003.782, 0.7413910
1004.264, 0.6276550
1004.746, 0.5241820
1005.228, 0.4487750
1005.710, 0.3603000
1006.193, 0.2223680
1006.675, 0.1310610
1007.157, 0.1666930
1007.639, 0.2542570
1008.121, 0.3863370
1008.603, 0.4939390
1009.085, 0.4203950
1009.567, 0.1883320
1010.049, 5.3015001E-02
1010.532, 0.1963960
1011.014, 0.3662580
1011.496, 0.2964810
1011.978, 0.1232160
1012.460, 1.8836999E-02
1012.942, 2.4452001E-02
1013.424, 7.2544999E-02
1013.906, 0.1336680
1014.389, 0.1319180
1014.871, 4.9399999E-03
1015.353, 0.1881020
1015.835, 0.3158660
1016.317, 0.3771200
1016.799, 0.3598480
1017.281, 0.2834190
1017.763, 0.2260560
1018.245, 0.2135760
1018.728, 0.2311960
1019.210, 0.2787090
1019.692, 0.3162720
1020.174, 0.2241150
1020.656, 4.8882000E-02
1021.138, 1.7450999E-02
1021.620, 1.8765001E-02
1022.102, 8.4417999E-02
1022.585, 0.1469500
1023.067, 0.2284550
1023.549, 0.3651440
1024.031, 0.5164610
1024.513, 0.5352260
1024.995, 0.4246540
1025.477, 0.3357680
1025.959, 0.2826850
1026.442, 0.2303860
1026.924, 0.1607560
1027.406, 0.1079970
1027.888, 0.1166650
1028.370, 0.1723800
1028.852, 0.1957740
1029.334, 0.1813510
1029.816, 0.1743770
1030.298, 0.1749670
1030.781, 0.2015900
1031.263, 0.2768550
1031.745, 0.3402430
1032.227, 0.2970560
1032.709, 0.1723260
1033.191, 0.2057980
1033.673, 0.4811580
1034.155, 0.6197630
1034.637, 0.5413170
1035.120, 0.4411430
1035.602, 0.3945010
1036.084, 0.3875860
1036.566, 0.4168650
1037.048, 0.4766060
1037.530, 0.4688210
1038.012, 0.3329130
1038.494, 0.2678510
1038.977, 0.3357520
1039.459, 0.3988080
1039.941, 0.4163740
1040.423, 0.3783140
1040.905, 0.2354710
1041.387, 2.5919999E-03
1041.869, 0.1115930
1042.351, 1.7254001E-02
1042.833, 9.2620000E-02
1043.316, 2.4998000E-02
1043.798, 6.1450000E-03
1044.280, 0.1482630
1044.762, 0.3310110
1045.244, 0.3185530
1045.726, 0.1265600
1046.208, 4.2463999E-02
1046.690, 0.1679770
1047.172, 0.2623870
1047.655, 0.2944360
1048.137, 0.3070570
1048.619, 0.3033400
1049.101, 0.3017160
1049.583, 0.3307200
1050.065, 0.3863760
1050.547, 0.4151250
1051.029, 0.3898390
1051.512, 0.3709470
1051.994, 0.3645190
1052.476, 0.3688580
1052.958, 0.4087230
1053.440, 0.4420040
1053.922, 0.4019870
1054.404, 0.3004870
1054.886, 0.2403740
1055.369, 0.2799950
1055.851, 0.2894460
1056.333, 0.1859590
1056.815, 0.1055520
1057.297, 0.1570080
1057.779, 0.2466670
1058.261, 0.2380130
1058.743, 0.1509510
1059.225, 0.1550980
1059.708, 0.3682800
1060.190, 0.4945050
1060.672, 0.3384580
1061.154, 0.1962900
1061.636, 0.2888670
1062.118, 0.4470680
1062.600, 0.4661250
1063.082, 0.3562730
1063.564, 0.2348840
1064.047, 9.5693998E-02
1064.529, 5.9907999E-02
1065.011, 0.2988570
1065.493, 0.5092220
1065.975, 0.4641970
1066.457, 0.3332070
1066.939, 0.3286060
1067.421, 0.4221810
1067.904, 0.4337680
1068.386, 0.2960100
1068.868, 0.1785010
1069.350, 0.1659980
1069.832, 0.1737220
1070.314, 0.1390800
1070.796, 0.1063080
1071.278, 0.1603590
1071.760, 0.2550230
1072.243, 0.2311590
1072.725, 2.5598001E-02
1073.207, 9.0962999E-02
1073.689, 9.2588998E-02
1074.171, 0.2852690
1074.653, 0.3203710
1075.135, 0.2872330
1075.617, 0.2654890
1076.099, 0.2511920
1076.582, 0.2082400
1077.064, 0.1263240
1077.546, 3.9627999E-02
1078.028, 0.1129300
1078.510, 0.1763560
1078.992, 5.6178998E-02
1079.474, 0.3184750
1079.956, 0.2998170
1080.439, 0.1208500
1080.921, 9.2207000E-02
1081.403, 0.2781430
1081.885, 0.4152570
1082.367, 0.3388790
1082.849, 0.2510120
1083.331, 0.2579930
1083.813, 0.2920450
1084.295, 0.3136060
1084.778, 0.3106020
1085.260, 0.2614880
1085.742, 0.1693330
1086.224, 9.0591997E-02
1086.706, 2.0817000E-02
1087.188, 9.3820002E-03
1087.670, 0.1636770
1088.152, 0.2997980
1088.635, 0.2095990
1089.117, 4.5657001E-02
1089.599, 8.3826996E-02
1090.081, 0.3125380
1090.563, 0.4169790
1091.045, 0.2097840
1091.527, 4.0819000E-02
1092.009, 9.7589999E-02
1092.491, 0.1932300
1092.974, 0.2049320
1093.456, 0.1839080
1093.938, 0.1976490
1094.420, 0.2486930
1094.902, 0.3107070
1095.384, 0.3818670
1095.866, 0.4450750
1096.348, 0.5413410
1096.830, 0.5715210
1097.313, 0.4172460
1097.795, 0.2219010
1098.277, 0.1044780
1098.759, 7.8162000E-02
1099.241, 0.1636610
1099.723, 0.4035930
1100.205, 0.5213330
1100.687, 0.2862650
1101.170, 7.8662999E-02
1101.652, 9.4621003E-02
1102.134, 0.1726830
1102.616, 0.1513420
1103.098, 8.7909997E-02
1103.580, 0.1365000
1104.062, 0.3111180
1104.544, 0.4360320
1105.026, 0.4940430
1105.509, 0.4621500
1105.991, 0.2069660
1106.473, 5.8450000E-03
1106.955, 4.5329001E-02
1107.437, 0.2165750
1107.919, 0.2928260
1108.401, 0.2605380
1108.883, 0.2157110
1109.365, 0.1511560
1109.848, 0.1074610
1110.330, 9.1727003E-02
1110.812, 9.5969997E-02
1111.294, 0.1419190
1111.776, 0.1875150
1112.258, 0.1638870
1112.740, 9.1879003E-02
1113.222, 0.1010100
1113.705, 0.2827180
1114.187, 0.3607300
1114.669, 0.2114930
1115.151, 0.1020140
1115.633, 0.1442630
1116.115, 0.2226730
1116.597, 0.2645520
1117.079, 0.2674550
1117.562, 0.2126880
1118.044, 7.0991002E-02
1118.526, 1.5940000E-03
1119.008, 4.9961001E-02
1119.490, 7.4202001E-02
1119.972, 9.8660002E-03
1120.454, 3.8412001E-02
1120.936, 7.5119999E-03
1121.418, 7.9046004E-02
1121.901, 0.2004240
1122.383, 0.3595220
1122.865, 0.3950790
1123.347, 0.2211930
1123.829, 0.1523020
1124.311, 0.2760310
1124.793, 0.3766750
1125.275, 0.3550780
1125.757, 0.2724080
1126.240, 0.1837500
1126.722, 0.1011780
1127.204, 9.4630003E-02
1127.686, 0.1795650
1128.168, 0.2782140
1128.650, 0.4122600
1129.132, 0.4541120
1129.614, 0.3539190
1130.097, 0.1769140
1130.579, 5.5684000E-02
1131.061, 0.2705610
1131.543, 0.2300830
1132.025, 6.2971003E-02
1132.507, 0.2205660
1132.989, 0.2346410
1133.471, 0.2638820
1133.953, 0.3440470
1134.436, 0.3806190
1134.918, 0.3143840
1135.400, 0.2145350
1135.882, 0.1755470
1136.364, 0.1812930
1136.846, 0.1293560
1137.328, 2.7364001E-02
1137.810, 8.2053997E-02
1138.292, 0.3011050
1138.775, 0.5105140
1139.257, 0.6420710
1139.739, 0.6720180
1140.221, 0.5621320
1140.703, 0.3893920
1141.185, 0.2598640
1141.667, 0.1944440
1142.149, 0.3018560
1142.632, 0.5291280
1143.114, 0.6495040
1143.596, 0.6233000
1144.078, 0.5879820
1144.560, 0.6271530
1145.042, 0.6601610
1145.524, 0.5923960
1146.006, 0.4593730
1146.489, 0.2552110
1146.971, 5.6016002E-02
1147.453, 5.3270999E-02
1147.935, 0.2029160
1148.417, 0.2748140
1148.899, 0.1939600
1149.381, 0.1377770
1149.863, 0.2862090
1150.345, 0.4433310
1150.828, 0.4129860
1151.310, 0.3096700
1151.792, 0.2368840
1152.274, 0.2044030
1152.756, 0.2168670
1153.238, 0.2666140
1153.720, 0.3196610
1154.202, 0.3675550
1154.684, 0.3995100
1155.167, 0.4125390
1155.649, 0.4048640
1156.131, 0.3577530
1156.613, 0.3031020
1157.095, 0.2830290
1157.577, 0.2833760
1158.059, 0.2522990
1158.541, 0.1737080
1159.024, 0.1230630
1159.506, 0.1817540
1159.988, 0.1804930
1160.470, 4.3859001E-02
1160.952, 0.2169610
1161.434, 9.6983999E-02
1161.916, 0.1362080
1162.398, 0.2045510
1162.880, 0.1116700
1163.363, 8.9271002E-02
1163.845, 0.2055020
1164.327, 0.2686700
1164.809, 0.2615120
1165.291, 0.2286920
1165.773, 0.1556110
1166.255, 0.1042570
1166.737, 0.1340070
1167.219, 0.2170240
1167.702, 0.2899850
1168.184, 0.3580590
1168.666, 0.3496770
1169.148, 0.2384590
1169.630, 0.1853070
1170.112, 0.2326930
1170.594, 0.2499090
1171.076, 0.1556320
1171.559, 6.7720003E-02
1172.041, 0.1427060
1172.523, 0.3336940
1173.005, 0.4834700
1173.487, 0.5883880
1173.969, 0.5847420
1174.451, 0.4780460
1174.933, 0.3977980
1175.416, 0.3791640
1175.898, 0.3605650
1176.380, 0.2942110
1176.862, 0.2450890
1177.344, 0.3373030
1177.826, 0.5017950
1178.308, 0.6163360
1178.790, 0.6606520
1179.272, 0.5082970
1179.755, 0.2241400
1180.237, 0.1139910
1180.719, 0.2739330
1181.201, 0.4251330
1181.683, 0.3253880
1182.165, 0.1946750
1182.647, 0.2655730
1183.129, 0.4045560
1183.611, 0.4774020
1184.094, 0.4982340
1184.576, 0.5168110
1185.058, 0.5281180
1185.540, 0.4652150
1186.022, 0.2816700
1186.504, 0.1477580
1186.986, 0.1475420
1187.468, 0.2033950
1187.951, 0.3093640
1188.433, 0.4231620
1188.915, 0.5209740
1189.397, 0.6008170
1189.879, 0.6558380
1190.361, 0.6740880
1190.843, 0.6371210
1191.325, 0.4635320
1191.807, 0.3648860
1192.290, 0.3581720
1192.772, 0.4231200
1193.254, 0.6703370
1193.736, 0.8224070
1194.218, 0.5515170
1194.700, 7.1792997E-02
1195.182, 4.0672999E-02
1195.664, 0.2521580
1196.146, 0.4536910
1196.629, 0.5769250
1197.111, 0.4856900
1197.593, 0.1068680
1198.075, 0.1229280
1198.557, 2.2546999E-02
1199.039, 0.2689930
1199.521, 0.3143150
1200.003, 0.2282880
1200.486, 0.1957650
1200.968, 0.2043400
1201.450, 0.1719990
1201.932, 0.1148190
1202.414, 0.1640520
1202.896, 0.3256270
1203.378, 0.4286120
1203.860, 0.3774830
1204.343, 0.3150690
1204.825, 0.4370870
1205.307, 0.5917630
1205.789, 0.5776830
1206.271, 0.4612730
1206.753, 0.2709650
1207.235, 8.7421998E-02
1207.717, 0.1032210
1208.199, 0.3128020
1208.682, 0.4171600
1209.164, 0.2346510
1209.646, 8.8417999E-02
1210.128, 0.1746380
1210.610, 0.3018190
1211.092, 0.3873430
1211.574, 0.4349720
1212.056, 0.4248770
1212.538, 0.3924580
1213.021, 0.4181610
1213.503, 0.5144880
1213.985, 0.5787420
1214.467, 0.5581580
1214.949, 0.5851920
1215.431, 0.7326780
1215.913, 0.8157360
1216.395, 0.7552890
1216.878, 0.6199050
1217.360, 0.4374660
1217.842, 0.2651410
1218.324, 0.2784090
1218.806, 0.4786810
1219.288, 0.5003940
1219.770, 0.3277040
1220.252, 0.1809230
1220.734, 9.2750996E-02
1221.217, 0.1244050
1221.699, 0.3055580
1222.181, 0.4858020
1222.663, 0.5141920
1223.145, 0.4589100
1223.627, 0.4157270
1224.109, 0.4021700
1224.591, 0.5169760
1225.073, 0.6797700
1225.556, 0.6596210
1226.038, 0.4721780
1226.520, 0.3313740
1227.002, 0.3231220
1227.484, 0.3685540
1227.966, 0.4704090
1228.448, 0.5298420
1228.930, 0.4192260
1229.413, 0.2939830
1229.895, 0.3124900
1230.377, 0.3920310
1230.859, 0.3936600
1231.341, 0.3312080
1231.823, 0.3316190
1232.305, 0.4386330
1232.787, 0.5295890
1233.270, 0.6124440
1233.752, 0.6416460
1234.234, 0.5898720
1234.716, 0.5091130
1235.198, 0.4037680
1235.680, 0.3110080
1236.162, 0.2782450
1236.644, 0.2988050
1237.126, 0.3489210
1237.609, 0.4351210
1238.091, 0.4865110
1238.573, 0.5019450
1239.055, 0.4645780
1239.537, 0.3707970
1240.019, 0.2667460
1240.501, 0.1758030
1240.983, 0.1375100
1241.465, 0.2170050
1241.948, 0.3484290
1242.430, 0.4080150
1242.912, 0.4237670
1243.394, 0.4343450
1243.876, 0.4493680
1244.358, 0.5168370
1244.840, 0.6167030
1245.322, 0.6470680
1245.805, 0.5601080
1246.287, 0.4698120
1246.769, 0.4663560
1247.251, 0.4480180
1247.733, 0.3103750
1248.215, 0.1840720
1248.697, 0.1940940
1249.179, 0.2648840
1249.661, 0.2735180
1250.144, 0.2297550
1250.626, 0.2498670
1251.108, 0.3649570
1251.590, 0.4661940
1252.072, 0.5781240
1252.554, 0.6158290
1253.036, 0.5470920
1253.518, 0.4384910
1254.000, 0.3060060
1254.483, 0.2067470
1254.965, 0.2164760
1255.447, 0.2992610
1255.929, 0.3454440
1256.411, 0.3602730
1256.893, 0.3885130
1257.375, 0.4226010
1257.857, 0.3897860
1258.340, 0.2973780
1258.822, 0.2795570
1259.304, 0.3926810
1259.786, 0.5083270
1260.268, 0.5333920
1260.750, 0.4879000
1261.232, 0.3468890
1261.714, 0.1876120
1262.197, 6.0522001E-02
1262.679, 1.0567000E-02
1263.161, 3.5540000E-02
1263.643, 0.1562580
1264.125, 0.2065860
1264.607, 0.1475130
1265.089, 0.1156000
1265.571, 0.1517700
1266.053, 0.1922290
1266.536, 0.2146630
1267.018, 0.2632590
1267.500, 0.3994670
1267.982, 0.4959520
1268.464, 0.4198050
1268.946, 0.2400400
1269.428, 0.1120110
1269.910, 3.7496999E-02
1270.392, 6.3812003E-02
1270.875, 0.1875580
1271.357, 0.3223270
1271.839, 0.4519220
1272.321, 0.5157510
1272.803, 0.4995040
1273.285, 0.5001420
1273.767, 0.5989780
1274.249, 0.6780370
1274.732, 0.5542360
1275.214, 0.3781130
1275.696, 0.3204890
1276.178, 0.3347330
1276.660, 0.3773140
1277.142, 0.4255340
1277.624, 0.4609400
1278.106, 0.4760970
1278.589, 0.4432090
1279.071, 0.3074080
1279.553, 0.2390280
1280.035, 0.3840170
1280.517, 0.4302250
1280.999, 0.2132830
1281.481, 1.1140000E-03
1281.963, 4.9862999E-02
1282.445, 1.5063000E-02
1282.927, 5.9119998E-03
1283.410, 2.3241000E-02
1283.892, 9.3305998E-02
1284.374, 0.2152400
1284.856, 0.2867790
1285.338, 0.3048130
1285.820, 0.2732990
1286.302, 0.3559340
1286.784, 0.4489080
1287.267, 0.4769320
1287.749, 0.4282900
1288.231, 0.2653680
1288.713, 0.0000000E+00
##END=



