##NAMES=Grunerite
##RRUFFID=R070267
##IDEAL CHEMISTRY=[box]Fe^2+^_7_Si_8_O_22_(OH)_2_
##LOCALITY=Långfall mine (Saxberg mine),  Saxberget ore field,  Ludvika,  Dalarna,  Sweden
##OWNER=RRUFF
##SOURCE=Michael Scott
##DESCRIPTION=Mass of interlocking light to dark brown striated prismatic crystals associated with sphalerite, garnet and arsenopyrite
##STATUS=The identification of this mineral is confirmed by single-crystal X-ray diffraction and chemical analysis.
##URL=rruff.info/R070267
##MEASURED CHEMISTRY=([box]_0.95_Na_0.05_)_Σ=1_(Fe_4.89_Mg_1.19_Mn_0.86_Ca_0.06_)_Σ=7_(Si_7.95_Al_0.05_)_Σ=8_O_22_((OH)_1.90_F_0.10_)_Σ=2_ ; OH estimated by difference and charge balance
156.6960, 0.0000000E+00
157.1782, 11.54480
157.6603, 17.15356
158.1424, 14.48877
158.6245, 22.35522
159.1066, 30.47302
159.5887, 33.72229
160.0709, 48.03223
160.5530, 45.43921
161.0351, 33.22375
161.5172, 25.29211
161.9993, 17.11041
162.4814, 6.575317
162.9636, 3.760376
163.4457, 8.795044
163.9278, 5.986450
164.4099, 3.035645
164.8920, 15.62640
165.3741, 31.96155
165.8563, 51.37878
166.3384, 74.37213
166.8205, 99.89612
167.3026, 126.3951
167.7847, 151.3671
168.2668, 177.6041
168.7490, 212.1877
169.2311, 258.2955
169.7132, 306.0986
170.1953, 348.5715
170.6774, 389.3998
171.1595, 434.7970
171.6417, 489.2313
172.1238, 549.3729
172.6059, 606.3495
173.0880, 657.5987
173.5701, 711.0096
174.0522, 770.3503
174.5344, 834.1109
175.0165, 899.3675
175.4986, 964.4174
175.9807, 1030.557
176.4628, 1104.039
176.9449, 1192.705
177.4271, 1273.896
177.9092, 1336.982
178.3913, 1388.990
178.8734, 1439.927
179.3555, 1497.361
179.8376, 1555.024
180.3198, 1595.389
180.8019, 1616.498
181.2840, 1621.332
181.7661, 1610.492
182.2482, 1587.482
182.7303, 1556.461
183.2125, 1519.416
183.6946, 1475.778
184.1767, 1422.566
184.6588, 1354.710
185.1409, 1286.287
185.6230, 1223.147
186.1052, 1161.363
186.5873, 1094.131
187.0694, 1016.732
187.5515, 936.5425
188.0336, 872.6948
188.5157, 836.1187
188.9979, 798.7213
189.4800, 751.0832
189.9621, 701.2574
190.4442, 657.1066
190.9263, 622.5854
191.4084, 595.0126
191.8906, 568.0626
192.3727, 540.8769
192.8548, 515.8972
193.3369, 494.5579
193.8190, 474.6271
194.3011, 452.7662
194.7833, 427.5546
195.2654, 402.7552
195.7475, 387.3627
196.2296, 387.1887
196.7117, 386.0939
197.1938, 381.8281
197.6760, 375.7794
198.1581, 368.3268
198.6402, 359.5625
199.1223, 350.9791
199.6044, 345.9557
200.0865, 344.8689
200.5687, 345.5928
201.0508, 349.9556
201.5329, 355.1294
202.0150, 358.7023
202.4971, 360.1487
202.9792, 361.6011
203.4614, 366.7517
203.9435, 376.7959
204.4256, 387.5070
204.9077, 400.9167
205.3898, 413.4002
205.8719, 421.4549
206.3541, 424.9001
206.8362, 427.8082
207.3183, 436.7756
207.8004, 455.5926
208.2825, 470.3187
208.7646, 476.4191
209.2468, 482.2440
209.7289, 494.9636
210.2110, 513.6893
210.6931, 533.5590
211.1752, 552.9071
211.6573, 572.7573
212.1395, 590.9147
212.6216, 605.7780
213.1037, 617.6287
213.5858, 627.0958
214.0679, 634.4564
214.5500, 643.3081
215.0322, 653.2676
215.5143, 665.6312
215.9964, 669.1995
216.4785, 658.9005
216.9606, 644.8508
217.4427, 631.7529
217.9249, 618.2876
218.4070, 599.6207
218.8891, 570.6304
219.3712, 530.9506
219.8533, 496.0412
220.3354, 467.4523
220.8176, 442.1323
221.2997, 422.1854
221.7818, 405.6709
222.2639, 388.2123
222.7460, 365.9800
223.2281, 339.5085
223.7103, 317.0713
224.1924, 302.5389
224.6745, 288.0574
225.1566, 270.3564
225.6387, 251.8052
226.1208, 236.5521
226.6030, 227.4690
227.0851, 222.5303
227.5672, 213.0371
228.0493, 194.0375
228.5314, 176.9106
229.0135, 163.8765
229.4957, 153.5571
229.9778, 144.0371
230.4599, 134.4045
230.9420, 125.8138
231.4241, 121.7979
231.9063, 128.1064
232.3884, 128.8771
232.8705, 118.3444
233.3526, 104.3540
233.8347, 94.12476
234.3168, 89.97418
234.7990, 87.96350
235.2811, 80.61407
235.7632, 63.62488
236.2453, 51.58673
236.7274, 49.19055
237.2095, 48.97180
237.6917, 45.85748
238.1738, 38.95685
238.6559, 30.90363
239.1380, 24.58496
239.6201, 19.90991
240.1022, 17.37903
240.5844, 21.39172
241.0665, 23.97351
241.5486, 19.34216
242.0307, 8.514038
242.5128, 1.880676
242.9949, 4.793884
243.4771, 0.5517580
243.9592, 3.942993
244.4413, 2.122742
244.9234, 1.419556
245.4055, 4.947571
245.8876, 11.64453
246.3698, 18.42645
246.8519, 22.94519
247.3340, 25.53906
247.8161, 29.34589
248.2982, 36.95337
248.7803, 42.14874
249.2625, 40.44904
249.7446, 35.54425
250.2267, 33.59827
250.7088, 38.50824
251.1909, 47.83569
251.6730, 54.45294
252.1552, 57.07611
252.6373, 59.55328
253.1194, 66.00006
253.6015, 71.86261
254.0836, 71.13373
254.5657, 60.70160
255.0479, 46.58887
255.5300, 38.78058
256.0121, 39.12164
256.4942, 38.87372
256.9763, 33.66046
257.4584, 28.02106
257.9406, 26.25293
258.4227, 29.42212
258.9048, 32.18158
259.3869, 27.13330
259.8690, 13.74304
260.3511, 5.183899
260.8333, 9.478760
261.3154, 14.37317
261.7975, 9.161194
262.2796, 5.764832
262.7617, 19.15381
263.2438, 21.66229
263.7260, 15.14148
264.2081, 10.25385
264.6902, 8.191589
265.1723, 7.822571
265.6544, 8.280762
266.1365, 9.556580
266.6187, 11.70410
267.1008, 16.39276
267.5829, 21.68884
268.0650, 22.98248
268.5471, 19.21173
269.0292, 14.53931
269.5114, 11.59790
269.9935, 9.733276
270.4756, 7.882996
270.9577, 5.160217
271.4398, 2.831665
271.9219, 3.150024
272.4041, 6.239685
272.8862, 7.858521
273.3683, 4.870056
273.8504, 0.5021970
274.3325, 3.563232
274.8146, 2.385010
275.2968, 2.033203
275.7789, 5.804810
276.2610, 13.22644
276.7431, 23.13855
277.2252, 36.83374
277.7073, 50.49377
278.1895, 56.92035
278.6716, 54.63812
279.1537, 53.72839
279.6358, 57.90704
280.1179, 65.78845
280.6000, 75.43292
281.0822, 86.63593
281.5643, 98.34277
282.0464, 109.6135
282.5285, 120.4415
283.0106, 130.2265
283.4927, 136.3104
283.9749, 142.9526
284.4570, 155.2675
284.9391, 173.2060
285.4212, 191.2870
285.9033, 205.2096
286.3854, 214.8257
286.8676, 223.2807
287.3497, 228.8790
287.8318, 235.0701
288.3139, 244.3824
288.7960, 255.7553
289.2781, 265.8608
289.7603, 272.5389
290.2424, 277.0907
290.7245, 284.9643
291.2066, 294.8160
291.6887, 309.3125
292.1708, 332.9658
292.6530, 360.0534
293.1351, 382.8724
293.6172, 398.7361
294.0993, 411.8023
294.5814, 429.8887
295.0635, 461.0166
295.5457, 481.4267
296.0278, 483.8121
296.5099, 481.4884
296.9920, 484.2341
297.4741, 492.7550
297.9562, 501.0770
298.4384, 502.7235
298.9205, 496.4725
299.4026, 491.8814
299.8847, 492.0030
300.3668, 490.4326
300.8489, 485.8342
301.3311, 478.3875
301.8132, 467.6015
302.2953, 453.1076
302.7774, 435.2377
303.2595, 414.9484
303.7416, 385.2476
304.2238, 364.1079
304.7059, 358.9760
305.1880, 361.6037
305.6701, 363.6037
306.1522, 361.9091
306.6343, 358.2955
307.1165, 356.1186
307.5986, 356.5337
308.0807, 354.0392
308.5628, 345.8916
309.0449, 335.7370
309.5270, 324.6675
310.0092, 313.0941
310.4913, 302.7953
310.9734, 297.3332
311.4555, 295.8392
311.9376, 288.2753
312.4197, 270.4634
312.9019, 251.3162
313.3840, 235.9414
313.8661, 223.6669
314.3482, 213.0082
314.8303, 205.0803
315.3124, 197.5480
315.7946, 184.8665
316.2767, 165.7822
316.7588, 149.2399
317.2409, 142.3742
317.7230, 140.6952
318.2051, 136.3736
318.6873, 127.4551
319.1694, 118.0238
319.6515, 109.4266
320.1336, 101.8106
320.6157, 98.39746
321.0978, 102.6610
321.5800, 110.4415
322.0621, 114.2077
322.5442, 113.5878
323.0263, 111.7357
323.5084, 105.9037
323.9905, 100.7669
324.4727, 103.5085
324.9548, 115.1624
325.4369, 129.5720
325.9190, 142.2490
326.4011, 153.3985
326.8832, 159.3548
327.3654, 155.4347
327.8475, 150.6070
328.3296, 149.5496
328.8117, 151.8911
329.2938, 155.8342
329.7759, 160.5405
330.2581, 165.1048
330.7402, 166.1352
331.2223, 161.8599
331.7044, 156.9823
332.1865, 150.8825
332.6686, 144.4462
333.1508, 138.4375
333.6329, 133.2057
334.1150, 129.0331
334.5971, 126.5703
335.0792, 127.0175
335.5613, 125.9727
336.0435, 121.6059
336.5256, 117.4655
337.0077, 115.3552
337.4898, 115.1765
337.9719, 115.8903
338.4540, 116.7345
338.9362, 117.7523
339.4183, 119.1937
339.9004, 119.8748
340.3825, 122.9381
340.8646, 131.1308
341.3467, 141.2780
341.8289, 149.0077
342.3110, 152.3632
342.7931, 154.4223
343.2752, 160.6353
343.7573, 171.9796
344.2394, 180.4467
344.7216, 181.6683
345.2037, 181.2343
345.6858, 184.4985
346.1679, 191.5558
346.6500, 196.7306
347.1321, 192.4741
347.6143, 183.6458
348.0964, 185.7511
348.5785, 203.7414
349.0606, 221.9719
349.5427, 226.1906
350.0248, 220.5198
350.5070, 216.7332
350.9891, 221.3326
351.4712, 225.0041
351.9533, 219.6256
352.4354, 206.2662
352.9175, 190.3387
353.3997, 173.7673
353.8818, 156.9115
354.3639, 140.4654
354.8460, 123.3585
355.3281, 108.7383
355.8102, 99.20520
356.2924, 91.69946
356.7745, 82.19284
357.2566, 69.94476
357.7387, 58.08340
358.2208, 49.96555
358.7029, 45.83600
359.1851, 44.61801
359.6672, 50.03317
360.1493, 54.24353
360.6314, 52.45590
361.1135, 46.75146
361.5956, 42.41400
362.0778, 42.80295
362.5599, 45.91998
363.0420, 44.12881
363.5241, 32.69034
364.0062, 23.90421
364.4883, 18.80383
364.9705, 16.85504
365.4526, 19.38272
365.9347, 25.94815
366.4168, 31.64496
366.8989, 29.82614
367.3810, 19.86908
367.8632, 12.41968
368.3453, 8.300110
368.8274, 6.433075
369.3095, 7.295715
369.7916, 9.772430
370.2737, 11.28577
370.7559, 10.47714
371.2380, 8.145996
371.7201, 5.164246
372.2022, 1.364746
372.6843, 1.288300
373.1664, 0.5965580
373.6486, 0.8668210
374.1307, 1.637238
374.6128, 10.14340
375.0949, 15.77304
375.5770, 11.17087
376.0591, 0.8682250
376.5413, 5.895233
377.0234, 6.998596
377.5055, 6.297913
377.9876, 7.624268
378.4697, 11.26605
378.9518, 14.60773
379.4340, 17.18475
379.9161, 20.35794
380.3982, 25.64844
380.8803, 31.92700
381.3624, 35.96121
381.8445, 35.73163
382.3267, 33.20291
382.8088, 34.46674
383.2909, 43.01138
383.7730, 51.10294
384.2551, 58.43161
384.7372, 65.34274
385.2194, 72.02914
385.7015, 78.54004
386.1836, 85.31213
386.6657, 93.34778
387.1478, 102.9132
387.6299, 109.7036
388.1121, 107.8547
388.5942, 109.7059
389.0763, 123.0222
389.5584, 141.8210
390.0405, 156.3550
390.5226, 162.0756
391.0048, 163.7902
391.4869, 167.8024
391.9690, 173.6201
392.4511, 181.2383
392.9332, 193.7597
393.4153, 205.7805
393.8975, 210.5199
394.3796, 207.7140
394.8617, 206.1022
395.3438, 212.1598
395.8259, 221.3918
396.3080, 225.9586
396.7902, 225.1313
397.2723, 223.1249
397.7544, 222.7834
398.2365, 223.6842
398.7186, 223.3944
399.2007, 221.8324
399.6829, 219.2789
400.1650, 217.0666
400.6471, 213.5785
401.1292, 204.3297
401.6113, 187.7391
402.0934, 170.4649
402.5756, 162.7833
403.0577, 169.6608
403.5398, 171.2858
404.0219, 165.8228
404.5040, 157.6368
404.9861, 147.4022
405.4683, 136.4073
405.9504, 126.6899
406.4325, 119.4729
406.9146, 114.6229
407.3967, 112.0742
407.8788, 112.8937
408.3610, 113.5256
408.8431, 114.2729
409.3252, 114.5649
409.8073, 112.8010
410.2894, 108.4115
410.7715, 104.1660
411.2537, 102.3054
411.7358, 102.5062
412.2179, 103.0383
412.7000, 103.4869
413.1821, 104.9345
413.6642, 109.0547
414.1464, 114.7121
414.6285, 119.6085
415.1106, 123.5797
415.5927, 126.4708
416.0748, 127.0602
416.5569, 126.3192
417.0391, 127.5074
417.5212, 131.9429
418.0033, 137.9621
418.4854, 143.3434
418.9675, 148.3123
419.4496, 151.5448
419.9318, 149.9303
420.4139, 149.1069
420.8960, 155.2422
421.3781, 165.9698
421.8602, 173.0826
422.3423, 170.9803
422.8245, 161.7845
423.3066, 154.6439
423.7887, 150.4269
424.2708, 147.0791
424.7529, 146.5039
425.2350, 145.2135
425.7172, 139.9384
426.1993, 130.4571
426.6814, 119.6217
427.1635, 111.0197
427.6456, 104.0853
428.1277, 91.69025
428.6099, 68.89932
429.0920, 50.25653
429.5741, 47.04031
430.0562, 51.53851
430.5383, 52.40082
431.0204, 45.76819
431.5026, 37.64502
431.9847, 33.21475
432.4668, 31.30359
432.9489, 27.82614
433.4310, 21.62085
433.9131, 15.54974
434.3953, 13.46881
434.8774, 16.01154
435.3595, 15.51276
435.8416, 9.062866
436.3237, 1.722534
436.8058, 4.575500
437.2880, 9.229797
437.7701, 11.29135
438.2522, 10.19241
438.7343, 6.690002
439.2164, 2.474762
439.6985, 4.383575
440.1807, 8.364532
440.6628, 8.328888
441.1449, 6.661407
441.6270, 4.165466
442.1091, 1.360565
442.5912, 0.8681640
443.0734, 1.674622
443.5555, 1.440247
444.0376, 1.938507
444.5197, 3.967499
445.0018, 4.482208
445.4839, 0.7599790
445.9661, 4.282959
446.4482, 8.416809
446.9303, 11.57617
447.4124, 12.06381
447.8945, 5.767151
448.3766, 3.350708
448.8588, 5.663544
449.3409, 0.5750730
449.8230, 6.612885
450.3051, 4.986084
450.7872, 3.369904
451.2693, 8.100616
451.7515, 7.445679
452.2336, 5.539703
452.7157, 3.577789
453.1978, 1.221466
453.6799, 2.725220
454.1620, 8.395935
454.6442, 13.49039
455.1263, 14.79663
455.6084, 11.54272
456.0905, 8.882843
456.5726, 5.620483
457.0547, 4.311584
457.5369, 6.757294
458.0190, 11.46436
458.5011, 16.51868
458.9832, 21.43854
459.4653, 24.86020
459.9474, 24.28546
460.4296, 19.66098
460.9117, 14.89984
461.3938, 10.47305
461.8759, 6.485077
462.3580, 2.940887
462.8401, 0.1608280
463.3223, 2.744202
463.8044, 5.817337
464.2865, 7.580124
464.7686, 4.799271
465.2507, 1.110657
465.7328, 3.946777
466.2150, 0.4328310
466.6971, 5.445938
467.1792, 5.675644
467.6613, 4.229340
468.1434, 10.40839
468.6255, 10.71414
469.1077, 9.256104
469.5898, 6.928970
470.0719, 4.988205
470.5540, 6.395370
471.0361, 13.71205
471.5182, 23.75957
472.0004, 26.56087
472.4825, 18.82156
472.9646, 12.77797
473.4467, 12.33032
473.9288, 13.51802
474.4109, 13.51797
474.8931, 12.44069
475.3752, 12.92459
475.8573, 18.87035
476.3394, 26.39153
476.8215, 28.24107
477.3036, 24.21088
477.7858, 19.23798
478.2679, 14.96710
478.7500, 11.98059
479.2321, 11.91891
479.7142, 15.35103
480.1964, 19.64270
480.6785, 25.97183
481.1606, 31.82509
481.6427, 34.55034
482.1248, 34.29315
482.6069, 33.01801
483.0891, 31.99760
483.5712, 31.40866
484.0533, 32.46796
484.5354, 37.87621
485.0175, 40.37454
485.4996, 34.60800
485.9818, 28.90874
486.4639, 31.73367
486.9460, 42.95755
487.4281, 53.31543
487.9102, 54.48703
488.3923, 49.28717
488.8745, 46.48395
489.3566, 46.65100
489.8387, 46.09540
490.3208, 41.31252
490.8029, 35.59317
491.2850, 35.77753
491.7672, 43.74991
492.2493, 51.94975
492.7314, 59.09167
493.2135, 64.40161
493.6956, 66.39824
494.1777, 65.26718
494.6599, 62.65463
495.1420, 59.80640
495.6241, 57.07040
496.1062, 55.82944
496.5883, 57.40712
497.0704, 59.10089
497.5526, 59.69241
498.0347, 60.67906
498.5168, 64.22333
498.9989, 70.06833
499.4810, 75.18225
499.9631, 76.48764
500.4453, 74.96899
500.9274, 74.80225
501.4095, 76.27437
501.8916, 78.25555
502.3737, 80.81863
502.8558, 83.23825
503.3380, 84.53537
503.8201, 84.46771
504.3022, 83.78499
504.7843, 80.99023
505.2664, 78.79440
505.7485, 81.37549
506.2307, 88.01013
506.7128, 94.34938
507.1949, 97.94751
507.6770, 99.05524
508.1591, 99.58820
508.6412, 98.71686
509.1234, 97.58328
509.6055, 96.28107
510.0876, 95.43881
510.5697, 96.53891
511.0518, 98.63257
511.5339, 98.49164
512.0161, 92.08411
512.4982, 82.56088
512.9803, 78.96074
513.4624, 82.24333
513.9445, 85.02454
514.4266, 83.60658
514.9088, 81.39877
515.3909, 84.10513
515.8730, 92.50159
516.3551, 97.45618
516.8372, 93.10947
517.3193, 86.01141
517.8015, 81.04939
518.2836, 78.73965
518.7657, 79.61630
519.2478, 84.21332
519.7299, 91.12085
520.2120, 96.86960
520.6942, 100.8372
521.1763, 104.2657
521.6584, 109.2875
522.1405, 111.9035
522.6226, 108.7014
523.1047, 101.9436
523.5869, 96.55150
524.0690, 95.04370
524.5511, 95.56635
525.0332, 95.72375
525.5153, 96.26807
525.9974, 97.78415
526.4796, 101.0896
526.9617, 104.1334
527.4438, 103.7877
527.9259, 100.5616
528.4080, 97.95059
528.8901, 98.09076
529.3723, 97.36597
529.8544, 92.12558
530.3365, 84.70404
530.8186, 80.42023
531.3007, 80.99356
531.7828, 82.58398
532.2650, 79.57355
532.7471, 70.91054
533.2292, 64.13474
533.7113, 61.57010
534.1934, 58.27155
534.6755, 50.13383
535.1577, 41.32922
535.6398, 38.70518
536.1219, 44.86230
536.6040, 51.09515
537.0861, 47.84695
537.5682, 38.14133
538.0504, 31.70898
538.5325, 29.89224
539.0146, 30.03412
539.4967, 30.89633
539.9788, 32.15656
540.4609, 32.22107
540.9431, 30.38828
541.4252, 28.47217
541.9073, 27.25284
542.3894, 25.84882
542.8715, 22.22083
543.3536, 17.04706
543.8358, 14.39304
544.3179, 18.25635
544.8000, 26.52332
545.2821, 29.62241
545.7642, 25.80270
546.2463, 21.56400
546.7285, 16.29373
547.2106, 12.97076
547.6927, 15.75928
548.1748, 23.96396
548.6569, 29.34814
549.1390, 25.47269
549.6212, 18.96814
550.1033, 16.95645
550.5854, 18.83301
551.0675, 21.47379
551.5496, 23.74567
552.0317, 25.75180
552.5139, 27.64478
552.9960, 29.35037
553.4781, 31.22977
553.9602, 33.79999
554.4423, 35.97791
554.9244, 37.56180
555.4066, 38.39444
555.8887, 38.10901
556.3708, 36.54553
556.8529, 34.57574
557.3350, 33.96494
557.8171, 34.26459
558.2993, 30.91452
558.7814, 21.88748
559.2635, 14.39526
559.7456, 14.32370
560.2277, 19.37094
560.7098, 21.63226
561.1920, 18.97168
561.6741, 17.17014
562.1562, 19.45151
562.6383, 22.61871
563.1204, 22.67099
563.6025, 19.77029
564.0847, 17.54544
564.5668, 18.91794
565.0489, 22.51443
565.5310, 22.86218
566.0131, 19.03128
566.4952, 14.29593
566.9774, 6.714264
567.4595, 0.4352420
567.9416, 0.8050540
568.4237, 1.996948
568.9058, 3.870880
569.3879, 1.925201
569.8701, 1.139526
570.3522, 2.883209
570.8343, 3.473083
571.3164, 3.163818
571.7985, 1.925598
572.2806, 0.9680480
572.7628, 2.089111
573.2449, 5.792816
573.7270, 6.781525
574.2091, 1.902740
574.6912, 1.779419
575.1733, 2.374084
575.6555, 0.9286190
576.1376, 1.995941
576.6197, 6.010223
577.1018, 9.303040
577.5839, 9.967255
578.0660, 8.603668
578.5482, 6.792358
579.0303, 4.362000
579.5124, 3.242798
579.9945, 4.521332
580.4766, 7.456116
580.9587, 11.60635
581.4409, 18.62967
581.9230, 20.33974
582.4051, 9.510986
582.8872, 1.474152
583.3693, 3.048553
583.8514, 1.636017
584.3336, 4.372131
584.8157, 1.393005
585.2978, 3.953033
585.7799, 6.360901
586.2620, 5.563019
586.7441, 4.824554
587.2263, 4.210236
587.7084, 3.810638
588.1905, 3.065430
588.6726, 2.724976
589.1547, 4.498566
589.6368, 9.849915
590.1190, 14.04132
590.6011, 13.58383
591.0832, 11.34494
591.5653, 11.09387
592.0474, 12.93637
592.5295, 14.85730
593.0117, 15.56915
593.4938, 15.26907
593.9759, 14.40686
594.4580, 12.27448
594.9401, 11.27301
595.4222, 11.96530
595.9044, 13.54080
596.3865, 16.06329
596.8686, 19.15344
597.3507, 22.01181
597.8328, 24.49222
598.3149, 26.33322
598.7971, 26.77631
599.2792, 26.44516
599.7613, 27.03598
600.2434, 28.88120
600.7255, 31.19928
601.2076, 33.56439
601.6898, 35.80005
602.1719, 36.43674
602.6540, 33.26611
603.1361, 31.51318
603.6182, 30.78152
604.1003, 32.19003
604.5825, 38.34070
605.0646, 47.79794
605.5467, 55.15894
606.0288, 57.10251
606.5109, 55.63983
606.9930, 52.02939
607.4752, 46.96136
607.9573, 46.64520
608.4394, 53.48013
608.9215, 62.08411
609.4036, 67.10199
609.8857, 68.51782
610.3679, 70.64456
610.8500, 73.64673
611.3321, 77.05801
611.8142, 80.94839
612.2963, 85.09595
612.7784, 89.88046
613.2606, 94.91101
613.7427, 98.26657
614.2248, 97.43423
614.7069, 94.77814
615.1890, 96.36023
615.6711, 102.3289
616.1533, 109.7028
616.6354, 118.9636
617.1175, 126.8570
617.5996, 128.5967
618.0817, 124.0314
618.5638, 122.2659
619.0460, 123.8895
619.5281, 128.0733
620.0102, 134.2113
620.4923, 142.8936
620.9744, 157.2338
621.4565, 176.3768
