##NAMES=Grunerite
##RRUFFID=R070267
##IDEAL CHEMISTRY=[box]Fe^2+^_7_Si_8_O_22_(OH)_2_
##LOCALITY=Långfall mine (Saxberg mine),  Saxberget ore field,  Ludvika,  Dalarna,  Sweden
##OWNER=RRUFF
##SOURCE=Michael Scott
##DESCRIPTION=Mass of interlocking light to dark brown striated prismatic crystals associated with sphalerite, garnet and arsenopyrite
##STATUS=The identification of this mineral is confirmed by single-crystal X-ray diffraction and chemical analysis.
##URL=rruff.info/R070267
##MEASURED CHEMISTRY=([box]_0.95_Na_0.05_)_Σ=1_(Fe_4.89_Mg_1.19_Mn_0.86_Ca_0.06_)_Σ=7_(Si_7.95_Al_0.05_)_Σ=8_O_22_((OH)_1.90_F_0.10_)_Σ=2_ ; OH estimated by difference and charge balance
156.6960, 0.0000000E+00
157.1782, 11.54480
157.6603, 17.15356
158.1424, 14.48877
158.6245, 22.35522
159.1066, 30.47302
159.5887, 33.72229
160.0709, 48.03223
160.5530, 45.43921
161.0351, 33.22375
161.5172, 25.29211
161.9993, 17.11041
162.4814, 6.575317
162.9636, 3.760376
163.4457, 8.795044
163.9278, 5.986450
164.4099, 3.035645
164.8920, 15.62640
165.3741, 31.96155
165.8563, 51.37878
166.3384, 74.37213
166.8205, 99.89612
167.3026, 126.3951
167.7847, 151.3671
168.2668, 177.6041
168.7490, 212.1877
169.2311, 258.2955
169.7132, 306.0986
170.1953, 348.5715
170.6774, 389.3998
171.1595, 434.7970
171.6417, 489.2313
172.1238, 549.3729
172.6059, 606.3495
173.0880, 657.5987
173.5701, 711.0096
174.0522, 770.3503
174.5344, 834.1109
175.0165, 899.3675
175.4986, 964.4174
175.9807, 1030.557
176.4628, 1104.039
176.9449, 1192.705
177.4271, 1273.896
177.9092, 1336.982
178.3913, 1388.990
178.8734, 1439.927
179.3555, 1497.361
179.8376, 1555.024
180.3198, 1595.389
180.8019, 1616.498
181.2840, 1621.332
181.7661, 1610.492
182.2482, 1587.482
182.7303, 1556.461
183.2125, 1519.416
183.6946, 1475.778
184.1767, 1422.566
184.6588, 1354.710
185.1409, 1286.287
185.6230, 1223.147
186.1052, 1161.363
186.5873, 1094.131
187.0694, 1016.732
187.5515, 936.5425
188.0336, 872.6948
188.5157, 836.1187
188.9979, 798.7213
189.4800, 751.0832
189.9621, 701.2574
190.4442, 657.1066
190.9263, 622.5854
191.4084, 595.0126
191.8906, 568.0626
192.3727, 540.8769
192.8548, 515.8972
193.3369, 494.5579
193.8190, 474.6271
194.3011, 452.7662
194.7833, 427.5546
195.2654, 402.7552
195.7475, 387.3627
196.2296, 387.1887
196.7117, 386.0939
197.1938, 381.8281
197.6760, 375.7794
198.1581, 368.3268
198.6402, 359.5625
199.1223, 350.9791
199.6044, 345.9557
200.0865, 344.8689
200.5687, 345.5928
201.0508, 349.9556
201.5329, 355.1294
202.0150, 358.7023
202.4971, 360.1487
202.9792, 361.6011
203.4614, 366.7517
203.9435, 376.7959
204.4256, 387.5070
204.9077, 400.9167
205.3898, 413.4002
205.8719, 421.4549
206.3541, 424.9001
206.8362, 427.8082
207.3183, 436.7756
207.8004, 455.5926
208.2825, 470.3187
208.7646, 476.4191
209.2468, 482.2440
209.7289, 494.9636
210.2110, 513.6893
210.6931, 533.5590
211.1752, 552.9071
211.6573, 572.7573
212.1395, 590.9147
212.6216, 605.7780
213.1037, 617.6287
213.5858, 627.0958
214.0679, 634.4564
214.5500, 643.3081
215.0322, 653.2676
215.5143, 665.6312
215.9964, 669.1995
216.4785, 658.9005
216.9606, 644.8508
217.4427, 631.7529
217.9249, 618.2876
218.4070, 599.6207
218.8891, 570.6304
219.3712, 530.9506
219.8533, 496.0412
220.3354, 467.4523
220.8176, 442.1323
221.2997, 422.1854
221.7818, 405.6709
222.2639, 388.2123
222.7460, 365.9800
223.2281, 339.5085
223.7103, 317.0713
224.1924, 302.5389
224.6745, 288.0574
225.1566, 270.3564
225.6387, 251.8052
226.1208, 236.5521
226.6030, 227.4690
227.0851, 222.5303
227.5672, 213.0371
228.0493, 194.0375
228.5314, 176.9106
229.0135, 163.8765
229.4957, 153.5571
229.9778, 144.0371
230.4599, 134.4045
230.9420, 125.8138
231.4241, 121.7979
231.9063, 128.1064
232.3884, 128.8771
232.8705, 118.3444
233.3526, 104.3540
233.8347, 94.12476
234.3168, 89.97418
234.7990, 87.96350
235.2811, 80.61407
235.7632, 63.62488
236.2453, 51.58673
236.7274, 49.19055
237.2095, 48.97180
237.6917, 45.85748
238.1738, 38.95685
238.6559, 30.90363
239.1380, 24.58496
239.6201, 19.90991
240.1022, 17.37903
240.5844, 21.39172
241.0665, 23.97351
241.5486, 19.34216
242.0307, 8.514038
242.5128, 1.880676
242.9949, 4.793884
243.4771, 0.5517580
243.9592, 3.942993
244.4413, 2.122742
244.9234, 1.419556
245.4055, 4.947571
245.8876, 11.64453
246.3698, 18.42645
246.8519, 22.94519
247.3340, 25.53906
247.8161, 29.34589
248.2982, 36.95337
248.7803, 42.14874
249.2625, 40.44904
249.7446, 35.54425
250.2267, 33.59827
250.7088, 38.50824
251.1909, 47.83569
251.6730, 54.45294
252.1552, 57.07611
252.6373, 59.55328
253.1194, 66.00006
253.6015, 71.86261
254.0836, 71.13373
254.5657, 60.70160
255.0479, 46.58887
255.5300, 38.78058
256.0121, 39.12164
256.4942, 38.87372
256.9763, 33.66046
257.4584, 28.02106
257.9406, 26.25293
258.4227, 29.42212
258.9048, 32.18158
259.3869, 27.13330
259.8690, 13.74304
260.3511, 5.183899
260.8333, 9.478760
261.3154, 14.37317
261.7975, 9.161194
262.2796, 5.764832
262.7617, 19.15381
263.2438, 21.66229
263.7260, 15.14148
264.2081, 10.25385
264.6902, 8.191589
265.1723, 7.822571
265.6544, 8.280762
266.1365, 9.556580
266.6187, 11.70410
267.1008, 16.39276
267.5829, 21.68884
268.0650, 22.98248
268.5471, 19.21173
269.0292, 14.53931
269.5114, 11.59790
269.9935, 9.733276
270.4756, 7.882996
270.9577, 5.160217
271.4398, 2.831665
271.9219, 3.150024
272.4041, 6.239685
272.8862, 7.858521
273.3683, 4.870056
273.8504, 0.5021970
274.3325, 3.563232
274.8146, 2.385010
275.2968, 2.033203
275.7789, 5.804810
276.2610, 13.22644
276.7431, 23.13855
277.2252, 36.83374
277.7073, 50.49377
278.1895, 56.92035
278.6716, 54.63812
279.1537, 53.72839
279.6358, 57.90704
280.1179, 65.78845
280.6000, 75.43292
281.0822, 86.63593
281.5643, 98.34277
282.0464, 109.6135
282.5285, 120.4415
283.0106, 130.2265
283.4927, 136.3104
283.9749, 142.9526
284.4570, 155.2675
284.9391, 173.2060
285.4212, 191.2870
285.9033, 205.2096
286.3854, 214.8257
286.8676, 223.2807
287.3497, 228.8790
287.8318, 235.0701
288.3139, 244.3824
288.7960, 255.7553
289.2781, 265.8608
289.7603, 272.5389
290.2424, 277.0907
290.7245, 284.9643
291.2066, 294.8160
291.6887, 309.3125
292.1708, 332.9658
292.6530, 360.0534
293.1351, 382.8724
293.6172, 398.7361
294.0993, 411.8023
294.5814, 429.8887
295.0635, 461.0166
295.5457, 481.4267
296.0278, 483.8121
296.5099, 481.4884
296.9920, 484.2341
297.4741, 492.7550
297.9562, 501.0770
298.4384, 502.7235
298.9205, 496.4725
299.4026, 491.8814
299.8847, 492.0030
300.3668, 490.4326
300.8489, 485.8342
301.3311, 478.3875
301.8132, 467.6015
302.2953, 453.1076
302.7774, 435.2377
303.2595, 414.9484
303.7416, 385.2476
304.2238, 364.1079
304.7059, 358.9760
305.1880, 361.6037
305.6701, 363.6037
306.1522, 361.9091
306.6343, 358.2955
307.1165, 356.1186
307.5986, 356.5337
308.0807, 354.0392
308.5628, 345.8916
309.0449, 335.7370
309.5270, 324.6675
310.0092, 313.0941
310.4913, 302.7953
310.9734, 297.3332
311.4555, 295.8392
311.9376, 288.2753
312.4197, 270.4634
312.9019, 251.3162
313.3840, 235.9414
313.8661, 223.6669
314.3482, 213.0082
314.8303, 205.0803
315.3124, 197.5480
315.7946, 184.8665
316.2767, 165.7822
316.7588, 149.2399
317.2409, 142.3742
317.7230, 140.6952
318.2051, 136.3736
318.6873, 127.4551
319.1694, 118.0238
319.6515, 109.4266
320.1336, 101.8106
320.6157, 98.39746
321.0978, 102.6610
321.5800, 110.4415
322.0621, 114.2077
322.5442, 113.5878
323.0263, 111.7357
323.5084, 105.9037
323.9905, 100.7669
324.4727, 103.5085
324.9548, 115.1624
325.4369, 129.5720
325.9190, 142.2490
326.4011, 153.3985
326.8832, 159.3548
327.3654, 155.4347
327.8475, 150.6070
328.3296, 149.5496
328.8117, 151.8911
329.2938, 155.8342
329.7759, 160.5405
330.2581, 165.1048
330.7402, 166.1352
331.2223, 161.8599
331.7044, 156.9823
332.1865, 150.8825
332.6686, 144.4462
333.1508, 138.4375
333.6329, 133.2057
334.1150, 129.0331
334.5971, 126.5703
335.0792, 127.0175
335.5613, 125.9727
336.0435, 121.6059
336.5256, 117.4655
337.0077, 115.3552
337.4898, 115.1765
337.9719, 115.8903
338.4540, 116.7345
338.9362, 117.7523
339.4183, 119.1937
339.9004, 119.8748
340.3825, 122.9381
340.8646, 131.1308
341.3467, 141.2780
341.8289, 149.0077
342.3110, 152.3632
342.7931, 154.4223
343.2752, 160.6353
343.7573, 171.9796
344.2394, 180.4467
344.7216, 181.6683
345.2037, 181.2343
345.6858, 184.4985
346.1679, 191.5558
346.6500, 196.7306
347.1321, 192.4741
347.6143, 183.6458
348.0964, 185.7511
348.5785, 203.7414
349.0606, 221.9719
349.5427, 226.1906
350.0248, 220.5198
350.5070, 216.7332
350.9891, 221.3326
351.4712, 225.0041
351.9533, 219.6256
352.4354, 206.2662
352.9175, 190.3387
353.3997, 173.7673
353.8818, 156.9115
354.3639, 140.4654
354.8460, 123.3585
355.3281, 108.7383
355.8102, 99.20520
356.2924, 91.69946
356.7745, 82.19284
357.2566, 69.94476
357.7387, 58.08340
358.2208, 49.96555
358.7029, 45.83600
359.1851, 44.61801
359.6672, 50.03317
360.1493, 54.24353
360.6314, 52.45590
361.1135, 46.75146
361.5956, 42.41400
362.0778, 42.80295
362.5599, 45.91998
363.0420, 44.12881
363.5241, 32.69034
364.0062, 23.90421
364.4883, 18.80383
364.9705, 16.85504
365.4526, 19.38272
365.9347, 25.94815
366.4168, 31.64496
366.8989, 29.82614
367.3810, 19.86908
367.8632, 12.41968
368.3453, 8.300110
368.8274, 6.433075
369.3095, 7.295715
369.7916, 9.772430
370.2737, 11.28577
370.7559, 10.47714
371.2380, 8.145996
371.7201, 5.164246
372.2022, 1.364746
372.6843, 1.288300
373.1664, 0.5965580
373.6486, 0.8668210
374.1307, 1.637238
374.6128, 10.14340
375.0949, 15.77304
375.5770, 11.17087
376.0591, 0.8682250
376.5413, 5.895233
377.0234, 6.998596
377.5055, 6.297913
377.9876, 7.624268
378.4697, 11.26605
378.9518, 14.60773
379.4340, 17.18475
379.9161, 20.35794
380.3982, 25.64844
380.8803, 31.92700
381.3624, 35.96121
381.8445, 35.73163
382.3267, 33.20291
382.8088, 34.46674
383.2909, 43.01138
383.7730, 51.10294
384.2551, 58.43161
384.7372, 65.34274
385.2194, 72.02914
385.7015, 78.54004
386.1836, 85.31213
386.6657, 93.34778
387.1478, 102.9132
387.6299, 109.7036
388.1121, 107.8547
388.5942, 109.7059
389.0763, 123.0222
389.5584, 141.8210
390.0405, 156.3550
390.5226, 162.0756
391.0048, 163.7902
391.4869, 167.8024
391.9690, 173.6201
392.4511, 181.2383
392.9332, 193.7597
393.4153, 205.7805
393.8975, 210.5199
394.3796, 207.7140
394.8617, 206.1022
395.3438, 212.1598
395.8259, 221.3918
396.3080, 225.9586
396.7902, 225.1313
397.2723, 223.1249
397.7544, 222.7834
398.2365, 223.6842
398.7186, 223.3944
399.2007, 221.8324
399.6829, 219.2789
400.1650, 217.0666
400.6471, 213.5785
401.1292, 204.3297
401.6113, 187.7391
402.0934, 170.4649
402.5756, 162.7833
403.0577, 169.6608
403.5398, 171.2858
404.0219, 165.8228
404.5040, 157.6368
404.9861, 147.4022
405.4683, 136.4073
405.9504, 126.6899
406.4325, 119.4729
406.9146, 114.6229
407.3967, 112.0742
407.8788, 112.8937
408.3610, 113.5256
408.8431, 114.2729
409.3252, 114.5649
409.8073, 112.8010
410.2894, 108.4115
410.7715, 104.1660
411.2537, 102.3054
411.7358, 102.5062
412.2179, 103.0383
412.7000, 103.4869
413.1821, 104.9345
413.6642, 109.0547
414.1464, 114.7121
414.6285, 119.6085
415.1106, 123.5797
415.5927, 126.4708
416.0748, 127.0602
416.5569, 126.3192
417.0391, 127.5074
417.5212, 131.9429
418.0033, 137.9621
418.4854, 143.3434
418.9675, 148.3123
419.4496, 151.5448
419.9318, 149.9303
420.4139, 149.1069
420.8960, 155.2422
421.3781, 165.9698
421.8602, 173.0826
422.3423, 170.9803
422.8245, 161.7845
423.3066, 154.6439
423.7887, 150.4269
424.2708, 147.0791
424.7529, 146.5039
425.2350, 145.2135
425.7172, 139.9384
426.1993, 130.4571
426.6814, 119.6217
427.1635, 111.0197
427.6456, 104.0853
428.1277, 91.69025
428.6099, 68.89932
429.0920, 50.25653
429.5741, 47.04031
430.0562, 51.53851
430.5383, 52.40082
431.0204, 45.76819
431.5026, 37.64502
431.9847, 33.21475
432.4668, 31.30359
432.9489, 27.82614
433.4310, 21.62085
433.9131, 15.54974
434.3953, 13.46881
434.8774, 16.01154
435.3595, 15.51276
435.8416, 9.062866
436.3237, 1.722534
436.8058, 4.575500
437.2880, 9.229797
437.7701, 11.29135
438.2522, 10.19241
438.7343, 6.690002
439.2164, 2.474762
439.6985, 4.383575
440.1807, 8.364532
440.6628, 8.328888
441.1449, 6.661407
441.6270, 4.165466
442.1091, 1.360565
442.5912, 0.8681640
443.0734, 1.674622
443.5555, 1.440247
444.0376, 1.938507
444.5197, 3.967499
445.0018, 4.482208
445.4839, 0.7599790
445.9661, 4.282959
446.4482, 8.416809
446.9303, 11.57617
447.4124, 12.06381
447.8945, 5.767151
448.3766, 3.350708
448.8588, 5.663544
449.3409, 0.5750730
449.8230, 6.612885
450.3051, 4.986084
450.7872, 3.369904
451.2693, 8.100616
451.7515, 7.445679
452.2336, 5.539703
452.7157, 3.577789
453.1978, 1.221466
453.6799, 2.725220
454.1620, 8.395935
454.6442, 13.49039
455.1263, 14.79663
455.6084, 11.54272
456.0905, 8.882843
456.5726, 5.620483
457.0547, 4.311584
457.5369, 6.757294
458.0190, 11.46436
458.5011, 16.51868
458.9832, 21.43854
459.4653, 24.86020
459.9474, 24.28546
460.4296, 19.66098
460.9117, 14.89984
461.3938, 10.47305
461.8759, 6.485077
462.3580, 2.940887
462.8401, 0.1608280
463.3223, 2.744202
463.8044, 5.817337
464.2865, 7.580124
464.7686, 4.799271
465.2507, 1.110657
465.7328, 3.946777
466.2150, 0.4328310
466.6971, 5.445938
467.1792, 5.675644
467.6613, 4.229340
468.1434, 10.40839
468.6255, 10.71414
469.1077, 9.256104
469.5898, 6.928970
470.0719, 4.988205
470.5540, 6.395370
471.0361, 13.71205
471.5182, 23.75957
472.0004, 26.56087
472.4825, 18.82156
472.9646, 12.77797
473.4467, 12.33032
473.9288, 13.51802
474.4109, 13.51797
474.8931, 12.44069
475.3752, 12.92459
475.8573, 18.87035
476.3394, 26.39153
476.8215, 28.24107
477.3036, 24.21088
477.7858, 19.23798
478.2679, 14.96710
478.7500, 11.98059
479.2321, 11.91891
479.7142, 15.35103
480.1964, 19.64270
480.6785, 25.97183
481.1606, 31.82509
481.6427, 34.55034
482.1248, 34.29315
482.6069, 33.01801
483.0891, 31.99760
483.5712, 31.40866
484.0533, 32.46796
484.5354, 37.87621
485.0175, 40.37454
485.4996, 34.60800
485.9818, 28.90874
486.4639, 31.73367
486.9460, 42.95755
487.4281, 53.31543
487.9102, 54.48703
488.3923, 49.28717
488.8745, 46.48395
489.3566, 46.65100
489.8387, 46.09540
490.3208, 41.31252
490.8029, 35.59317
491.2850, 35.77753
491.7672, 43.74991
492.2493, 51.94975
492.7314, 59.09167
493.2135, 64.40161
493.6956, 66.39824
494.1777, 65.26718
494.6599, 62.65463
495.1420, 59.80640
495.6241, 57.07040
496.1062, 55.82944
496.5883, 57.40712
497.0704, 59.10089
497.5526, 59.69241
498.0347, 60.67906
498.5168, 64.22333
498.9989, 70.06833
499.4810, 75.18225
499.9631, 76.48764
500.4453, 74.96899
500.9274, 74.80225
501.4095, 76.27437
501.8916, 78.25555
502.3737, 80.81863
502.8558, 83.23825
503.3380, 84.53537
503.8201, 84.46771
504.3022, 83.78499
504.7843, 80.99023
505.2664, 78.79440
505.7485, 81.37549
506.2307, 88.01013
506.7128, 94.34938
507.1949, 97.94751
507.6770, 99.05524
508.1591, 99.58820
508.6412, 98.71686
509.1234, 97.58328
509.6055, 96.28107
510.0876, 95.43881
510.5697, 96.53891
511.0518, 98.63257
511.5339, 98.49164
512.0161, 92.08411
512.4982, 82.56088
512.9803, 78.96074
513.4624, 82.24333
513.9445, 85.02454
514.4266, 83.60658
514.9088, 81.39877
515.3909, 84.10513
515.8730, 92.50159
516.3551, 97.45618
516.8372, 93.10947
517.3193, 86.01141
517.8015, 81.04939
518.2836, 78.73965
518.7657, 79.61630
519.2478, 84.21332
519.7299, 91.12085
520.2120, 96.86960
520.6942, 100.8372
521.1763, 104.2657
521.6584, 109.2875
522.1405, 111.9035
522.6226, 108.7014
523.1047, 101.9436
523.5869, 96.55150
524.0690, 95.04370
524.5511, 95.56635
525.0332, 95.72375
525.5153, 96.26807
525.9974, 97.78415
526.4796, 101.0896
526.9617, 104.1334
527.4438, 103.7877
527.9259, 100.5616
528.4080, 97.95059
528.8901, 98.09076
529.3723, 97.36597
529.8544, 92.12558
530.3365, 84.70404
530.8186, 80.42023
531.3007, 80.99356
531.7828, 82.58398
532.2650, 79.57355
532.7471, 70.91054
533.2292, 64.13474
533.7113, 61.57010
534.1934, 58.27155
534.6755, 50.13383
535.1577, 41.32922
535.6398, 38.70518
536.1219, 44.86230
536.6040, 51.09515
537.0861, 47.84695
537.5682, 38.14133
538.0504, 31.70898
538.5325, 29.89224
539.0146, 30.03412
539.4967, 30.89633
539.9788, 32.15656
540.4609, 32.22107
540.9431, 30.38828
541.4252, 28.47217
541.9073, 27.25284
542.3894, 25.84882
542.8715, 22.22083
543.3536, 17.04706
543.8358, 14.39304
544.3179, 18.25635
544.8000, 26.52332
545.2821, 29.62241
545.7642, 25.80270
546.2463, 21.56400
546.7285, 16.29373
547.2106, 12.97076
547.6927, 15.75928
548.1748, 23.96396
548.6569, 29.34814
549.1390, 25.47269
549.6212, 18.96814
550.1033, 16.95645
550.5854, 18.83301
551.0675, 21.47379
551.5496, 23.74567
552.0317, 25.75180
552.5139, 27.64478
552.9960, 29.35037
553.4781, 31.22977
553.9602, 33.79999
554.4423, 35.97791
554.9244, 37.56180
555.4066, 38.39444
555.8887, 38.10901
556.3708, 36.54553
556.8529, 34.57574
557.3350, 33.96494
557.8171, 34.26459
558.2993, 30.91452
558.7814, 21.88748
559.2635, 14.39526
559.7456, 14.32370
560.2277, 19.37094
560.7098, 21.63226
561.1920, 18.97168
561.6741, 17.17014
562.1562, 19.45151
562.6383, 22.61871
563.1204, 22.67099
563.6025, 19.77029
564.0847, 17.54544
564.5668, 18.91794
565.0489, 22.51443
565.5310, 22.86218
566.0131, 19.03128
566.4952, 14.29593
566.9774, 6.714264
567.4595, 0.4352420
567.9416, 0.8050540
568.4237, 1.996948
568.9058, 3.870880
569.3879, 1.925201
569.8701, 1.139526
570.3522, 2.883209
570.8343, 3.473083
571.3164, 3.163818
571.7985, 1.925598
572.2806, 0.9680480
572.7628, 2.089111
573.2449, 5.792816
573.7270, 6.781525
574.2091, 1.902740
574.6912, 1.779419
575.1733, 2.374084
575.6555, 0.9286190
576.1376, 1.995941
576.6197, 6.010223
577.1018, 9.303040
577.5839, 9.967255
578.0660, 8.603668
578.5482, 6.792358
579.0303, 4.362000
579.5124, 3.242798
579.9945, 4.521332
580.4766, 7.456116
580.9587, 11.60635
581.4409, 18.62967
581.9230, 20.33974
582.4051, 9.510986
582.8872, 1.474152
583.3693, 3.048553
583.8514, 1.636017
584.3336, 4.372131
584.8157, 1.393005
585.2978, 3.953033
585.7799, 6.360901
586.2620, 5.563019
586.7441, 4.824554
587.2263, 4.210236
587.7084, 3.810638
588.1905, 3.065430
588.6726, 2.724976
589.1547, 4.498566
589.6368, 9.849915
590.1190, 14.04132
590.6011, 13.58383
591.0832, 11.34494
591.5653, 11.09387
592.0474, 12.93637
592.5295, 14.85730
593.0117, 15.56915
593.4938, 15.26907
593.9759, 14.40686
594.4580, 12.27448
594.9401, 11.27301
595.4222, 11.96530
595.9044, 13.54080
596.3865, 16.06329
596.8686, 19.15344
597.3507, 22.01181
597.8328, 24.49222
598.3149, 26.33322
598.7971, 26.77631
599.2792, 26.44516
599.7613, 27.03598
600.2434, 28.88120
600.7255, 31.19928
601.2076, 33.56439
601.6898, 35.80005
602.1719, 36.43674
602.6540, 33.26611
603.1361, 31.51318
603.6182, 30.78152
604.1003, 32.19003
604.5825, 38.34070
605.0646, 47.79794
605.5467, 55.15894
606.0288, 57.10251
606.5109, 55.63983
606.9930, 52.02939
607.4752, 46.96136
607.9573, 46.64520
608.4394, 53.48013
608.9215, 62.08411
609.4036, 67.10199
609.8857, 68.51782
610.3679, 70.64456
610.8500, 73.64673
611.3321, 77.05801
611.8142, 80.94839
612.2963, 85.09595
612.7784, 89.88046
613.2606, 94.91101
613.7427, 98.26657
614.2248, 97.43423
614.7069, 94.77814
615.1890, 96.36023
615.6711, 102.3289
616.1533, 109.7028
616.6354, 118.9636
617.1175, 126.8570
617.5996, 128.5967
618.0817, 124.0314
618.5638, 122.2659
619.0460, 123.8895
619.5281, 128.0733
620.0102, 134.2113
620.4923, 142.8936
620.9744, 157.2338
621.4565, 176.3768
621.9387, 192.3751
622.4208, 196.4346
622.9029, 192.3449
623.3850, 195.5879
623.8671, 207.5724
624.3492, 218.5167
624.8314, 224.3904
625.3135, 229.1825
625.7956, 237.9268
626.2777, 250.5570
626.7598, 263.0450
627.2419, 273.6856
627.7241, 285.1464
628.2062, 300.2264
628.6883, 316.4808
629.1704, 330.3585
629.6525, 341.0133
630.1346, 349.3946
630.6168, 355.3337
631.0989, 359.6806
631.5810, 368.7895
632.0631, 384.2700
632.5452, 399.8807
633.0273, 413.0253
633.5095, 426.0953
633.9916, 442.8559
634.4737, 462.8711
634.9558, 479.0913
635.4379, 486.0187
635.9200, 493.4117
636.4022, 504.9931
636.8843, 521.2532
637.3664, 543.1217
637.8485, 570.3924
638.3306, 601.1653
638.8127, 634.4694
639.2949, 669.2128
639.7770, 698.3770
640.2591, 720.5931
640.7412, 745.5872
641.2233, 773.8252
641.7054, 807.1614
642.1876, 847.0992
642.6697, 893.8435
643.1518, 946.8622
643.6339, 1007.884
644.1160, 1073.133
644.5981, 1142.492
645.0803, 1214.035
645.5624, 1281.596
646.0445, 1345.522
646.5266, 1417.355
647.0087, 1509.670
647.4908, 1617.098
647.9730, 1711.285
648.4551, 1784.180
648.9372, 1874.473
649.4193, 1999.192
649.9014, 2136.828
650.3835, 2267.766
650.8657, 2393.243
651.3478, 2526.223
651.8299, 2678.219
652.3120, 2828.138
652.7941, 2959.676
653.2762, 3087.264
653.7584, 3236.201
654.2405, 3405.803
654.7226, 3566.990
655.2047, 3695.842
655.6868, 3798.912
656.1689, 3898.459
656.6511, 3997.979
657.1332, 4073.000
657.6153, 4120.086
658.0974, 4138.579
658.5795, 4125.662
659.0616, 4082.874
659.5438, 4012.384
660.0259, 3912.098
660.5080, 3787.132
660.9901, 3625.405
661.4722, 3448.375
661.9543, 3278.661
662.4365, 3117.220
662.9186, 2948.329
663.4007, 2759.772
663.8828, 2561.694
664.3649, 2375.322
664.8470, 2200.696
665.3292, 2025.911
665.8113, 1842.840
666.2934, 1673.470
666.7755, 1538.302
667.2576, 1431.481
667.7397, 1321.008
668.2219, 1194.290
668.7040, 1083.469
669.1861, 999.2280
669.6682, 930.7336
670.1503, 873.8900
670.6324, 824.4377
671.1146, 775.5456
671.5967, 723.6592
672.0788, 672.0476
672.5609, 623.4041
673.0430, 577.8934
673.5251, 539.4149
674.0073, 509.0758
674.4894, 482.0061
674.9715, 455.3730
675.4536, 429.3156
675.9357, 405.3874
676.4178, 384.0215
676.9000, 363.9203
677.3821, 345.7698
677.8642, 328.1154
678.3463, 309.7113
678.8284, 291.5906
679.3105, 274.8924
679.7927, 260.0142
680.2748, 248.8361
680.7569, 245.7795
681.2390, 247.2124
681.7211, 244.1257
682.2032, 236.3856
682.6854, 228.8966
683.1675, 224.2017
683.6496, 219.1730
684.1317, 208.0166
684.6138, 188.3490
685.0959, 175.3992
685.5781, 174.7283
686.0602, 174.0277
686.5423, 171.1853
687.0244, 166.3750
687.5065, 159.1801
687.9886, 149.8497
688.4708, 141.0160
688.9529, 133.5718
689.4350, 127.8318
689.9171, 124.9611
690.3992, 124.0902
690.8813, 123.1455
691.3635, 121.5045
691.8456, 118.0653
692.3277, 111.3020
692.8098, 101.8077
693.2919, 95.36667
693.7740, 94.68201
694.2562, 90.93454
694.7383, 76.54059
695.2204, 64.00983
695.7025, 64.86215
696.1846, 75.27484
696.6667, 80.36673
697.1489, 73.29630
697.6310, 64.93698
698.1131, 61.13123
698.5952, 59.26929
699.0773, 56.03384
699.5594, 51.32516
700.0416, 46.83151
700.5237, 43.49847
701.0058, 41.26550
701.4879, 40.74850
701.9700, 42.16180
702.4521, 40.22086
702.9343, 32.80774
703.4164, 26.31726
703.8985, 25.11398
704.3806, 27.19196
704.8627, 27.95013
705.3448, 27.85587
705.8270, 25.26645
706.3091, 16.26886
706.7912, 8.378052
707.2733, 6.655396
707.7554, 8.952850
708.2375, 12.07492
708.7197, 14.85776
709.2018, 15.94229
709.6839, 12.72183
710.1660, 7.150101
710.6481, 3.686371
711.1302, 2.429855
711.6124, 4.703278
712.0945, 11.80539
712.5766, 19.01259
713.0587, 19.88448
713.5408, 13.97437
714.0229, 11.51332
714.5051, 17.24695
714.9872, 19.93372
715.4693, 16.24544
715.9514, 10.15923
716.4335, 3.919647
716.9156, 1.860626
717.3978, 6.163895
717.8799, 8.600418
718.3620, 9.393127
718.8441, 7.221573
719.3262, 4.111115
719.8083, 4.153320
720.2905, 7.382477
720.7726, 10.45955
721.2547, 11.31149
721.7368, 9.806122
722.2189, 4.182938
722.7010, 7.061218
723.1832, 11.52287
723.6653, 5.536560
724.1474, 2.013718
724.6295, 8.219131
725.1116, 11.73242
725.5938, 9.057648
726.0759, 3.234619
726.5580, 9.740402
727.0401, 2.337143
727.5222, 6.056610
728.0043, 7.589630
728.4865, 5.039825
728.9686, 3.866867
729.4507, 5.436111
729.9328, 6.980377
730.4149, 5.386261
730.8970, 2.286972
731.3792, 2.103378
731.8613, 4.381134
732.3434, 4.390518
732.8255, 0.4391170
733.3076, 3.905380
733.7897, 4.625839
734.2719, 2.196121
734.7540, 2.965698
735.2361, 10.71577
735.7182, 15.32704
736.2003, 12.52832
736.6824, 9.387299
737.1646, 10.46944
737.6467, 14.67258
738.1288, 18.37465
738.6109, 20.43347
739.0930, 22.33632
739.5751, 25.90088
740.0573, 29.19983
740.5394, 28.92566
741.0215, 26.04404
741.5036, 24.54138
741.9857, 26.29626
742.4678, 28.76556
742.9500, 27.57803
743.4321, 23.20198
743.9142, 22.98824
744.3963, 28.28683
744.8784, 30.34511
745.3605, 23.83348
745.8427, 15.37494
746.3248, 14.58617
746.8069, 22.64493
747.2890, 27.55423
747.7711, 27.34526
748.2532, 26.79085
748.7354, 26.67795
749.2175, 26.94031
749.6996, 28.28160
750.1817, 30.03728
750.6638, 29.56783
751.1459, 24.26561
751.6281, 18.92233
752.1102, 18.53903
752.5923, 21.07402
753.0744, 23.00899
753.5565, 23.80124
754.0386, 24.08421
754.5208, 24.52916
755.0029, 24.56268
755.4850, 22.71350
755.9671, 18.72951
756.4492, 14.93741
756.9313, 10.24449
757.4135, 8.743362
757.8956, 14.39008
758.3777, 22.57314
758.8598, 25.87395
759.3419, 23.81895
759.8240, 22.93895
760.3062, 25.75613
760.7883, 27.63339
761.2704, 27.12897
761.7525, 25.52342
762.2346, 22.99107
762.7167, 20.16518
763.1989, 19.42041
763.6810, 23.38385
764.1631, 27.87387
764.6452, 26.99644
765.1273, 23.03000
765.6094, 21.90207
766.0916, 24.21149
766.5737, 27.01421
767.0558, 28.66516
767.5379, 29.60286
768.0200, 30.38521
768.5021, 30.44667
768.9843, 27.72702
769.4664, 19.99599
769.9485, 15.65157
770.4306, 20.27547
770.9127, 28.98007
771.3948, 35.35056
771.8770, 39.46454
772.3591, 40.81342
772.8412, 37.10887
773.3233, 33.23656
773.8054, 30.81682
774.2875, 29.42851
774.7697, 28.03494
775.2518, 26.54665
775.7339, 26.90193
776.2160, 31.50754
776.6981, 35.88785
777.1802, 33.84628
777.6624, 27.72308
778.1445, 22.24153
778.6266, 18.29565
779.1087, 17.59119
779.5908, 21.51382
780.0729, 26.86305
780.5551, 26.72878
781.0372, 20.25124
781.5193, 14.34039
782.0014, 8.025589
782.4835, 4.350616
782.9656, 6.849243
783.4478, 11.24167
783.9299, 10.56320
784.4120, 3.890884
784.8941, 2.371994
785.3762, 13.15356
785.8583, 20.03363
786.3405, 15.18056
786.8226, 7.741913
787.3047, 5.713699
787.7868, 7.951462
788.2689, 9.983551
788.7510, 9.777344
789.2332, 8.908356
789.7153, 8.156006
790.1974, 7.946274
790.6795, 9.622986
791.1616, 12.56631
791.6437, 14.91080
792.1259, 15.53596
792.6080, 14.21333
793.0901, 9.632690
793.5722, 2.561859
794.0543, 0.8561100
794.5364, 5.373444
795.0186, 11.33333
795.5007, 18.42523
795.9828, 22.78824
796.4649, 19.34360
796.9470, 9.097839
797.4291, 3.027603
797.9113, 4.078293
798.3934, 5.807816
798.8755, 6.796173
799.3576, 8.139069
799.8397, 12.60219
800.3218, 18.22444
800.8040, 20.09152
801.2861, 16.26094
801.7682, 12.26562
802.2503, 10.35155
802.7324, 10.42178
803.2145, 14.42273
803.6967, 19.96793
804.1788, 20.45570
804.6609, 14.51433
805.1430, 9.060013
805.6251, 10.13838
806.1072, 14.97302
806.5894, 18.14801
807.0715, 19.71086
807.5536, 19.66396
808.0357, 17.92841
808.5178, 15.92039
808.9999, 14.67615
809.4821, 13.56224
809.9642, 10.45377
810.4463, 3.369308
810.9284, 1.858444
811.4105, 9.900955
811.8926, 17.04742
812.3748, 19.33450
812.8569, 18.73050
813.3390, 16.16641
813.8211, 11.75917
814.3032, 9.772385
814.7853, 10.59738
815.2675, 14.22836
815.7496, 28.21480
816.2317, 39.14505
816.7138, 29.18246
817.1959, 5.137619
817.6780, 9.306213
818.1602, 2.736450
818.6423, 8.292572
819.1244, 9.758240
819.6065, 6.637802
820.0886, 6.727112
820.5707, 9.451385
821.0529, 10.61237
821.5350, 8.772873
822.0171, 6.195541
822.4992, 5.259796
822.9813, 5.717041
823.4634, 7.341965
823.9456, 10.36864
824.4277, 8.592041
824.9098, 1.172394
825.3919, 8.083878
825.8740, 2.922272
826.3561, 10.55910
826.8383, 19.82730
827.3204, 24.49066
827.8025, 25.78629
828.2846, 21.09557
828.7667, 16.23686
829.2488, 12.96349
829.7310, 10.84377
830.2131, 9.732224
830.6952, 9.581146
831.1773, 8.814240
831.6594, 4.460907
832.1415, 2.593460
832.6237, 9.006989
833.1058, 16.85829
833.5879, 19.07928
834.0700, 16.17146
834.5521, 12.23773
835.0342, 8.843582
835.5164, 6.340225
835.9985, 4.837585
836.4806, 4.546021
836.9627, 5.949188
837.4448, 8.889343
837.9269, 13.72510
838.4091, 20.31218
838.8912, 24.79700
839.3733, 22.55118
839.8554, 15.34280
840.3375, 9.056778
840.8196, 3.770721
841.3018, 1.780624
841.7839, 3.745880
842.2660, 7.920395
842.7481, 14.57709
843.2302, 21.14523
843.7123, 19.58813
844.1945, 4.918793
844.6766, 0.8748320
845.1587, 9.820496
845.6408, 18.11942
846.1229, 14.57626
846.6050, 7.848587
847.0872, 7.341782
847.5693, 12.44449
848.0514, 13.84116
848.5335, 5.598587
849.0156, 0.1457060
849.4977, 1.659317
849.9799, 5.573822
850.4620, 8.739014
850.9441, 10.29333
851.4262, 8.373184
851.9083, 2.114548
852.3904, 1.938873
852.8726, 2.241562
853.3547, 9.060959
853.8368, 14.85593
854.3189, 18.03613
854.8010, 13.82266
855.2831, 2.766052
855.7653, 5.959778
856.2474, 5.020279
856.7295, 3.5004001E-02
857.2116, 1.439743
857.6937, 7.490005
858.1758, 9.144257
858.6580, 5.652863
859.1401, 0.6057590
859.6222, 4.709976
860.1043, 7.975845
860.5864, 4.816727
861.0685, 4.288040
861.5507, 6.365417
862.0328, 0.7813260
862.5149, 6.114120
862.9970, 6.256760
863.4791, 6.002716
863.9612, 9.293228
864.4434, 15.09952
864.9255, 19.92313
865.4076, 25.63870
865.8897, 26.40913
866.3718, 16.87466
866.8539, 8.996155
867.3361, 7.234451
867.8182, 9.064316
868.3003, 13.46684
868.7824, 19.74881
869.2645, 21.13298
869.7466, 9.228485
870.2288, 0.3647920
870.7109, 2.134979
871.1930, 8.500580
871.6751, 16.90497
872.1572, 24.77701
872.6393, 27.46140
873.1215, 23.25455
873.6036, 18.31694
874.0857, 14.76782
874.5678, 13.06161
875.0499, 16.40678
875.5320, 21.43930
876.0142, 23.59796
876.4963, 21.93668
876.9784, 17.97784
877.4605, 12.25699
877.9426, 7.759949
878.4247, 12.08212
878.9069, 22.30000
879.3890, 24.57808
879.8711, 18.29865
880.3532, 14.59499
880.8353, 18.17039
881.3174, 24.80220
881.7996, 29.81631
882.2817, 33.23143
882.7638, 35.26277
883.2459, 35.78395
883.7280, 35.16553
884.2101, 32.92628
884.6923, 32.69467
885.1744, 36.80389
885.6565, 42.31438
886.1386, 43.94739
886.6207, 40.34067
887.1028, 40.63010
887.5850, 47.51169
888.0671, 53.91690
888.5492, 57.04071
889.0313, 59.83623
889.5134, 65.60739
889.9955, 73.34952
890.4777, 78.59042
890.9598, 79.63132
891.4419, 80.33522
891.9240, 81.04367
892.4061, 81.74496
892.8882, 82.49702
893.3704, 83.17509
893.8525, 82.41899
894.3346, 80.57402
894.8167, 83.05713
895.2988, 98.40311
895.7809, 110.8361
896.2631, 107.2299
896.7452, 100.1029
897.2273, 103.4265
897.7094, 114.6702
898.1915, 124.1470
898.6736, 128.3221
899.1558, 130.4389
899.6379, 132.5207
900.1200, 134.5845
900.6021, 137.6427
901.0842, 140.2781
901.5663, 138.8046
902.0485, 133.2396
902.5306, 127.0243
903.0127, 122.6259
903.4948, 120.8795
903.9769, 125.7437
904.4590, 134.2909
904.9412, 137.1049
905.4233, 134.2645
905.9054, 128.2683
906.3875, 119.9879
906.8696, 115.1993
907.3517, 121.3331
907.8339, 133.2899
908.3160, 132.5212
908.7981, 118.8682
909.2802, 112.2876
909.7623, 115.8760
910.2444, 116.8953
910.7266, 108.6141
911.2087, 98.56784
911.6908, 98.70273
912.1729, 108.8003
912.6550, 110.8166
913.1371, 101.7512
913.6193, 93.46838
914.1014, 89.27914
914.5835, 85.71698
915.0656, 79.34753
915.5477, 71.57553
916.0298, 66.92603
916.5120, 67.45587
916.9941, 64.90311
917.4762, 54.33389
917.9583, 47.22302
918.4404, 49.12827
918.9225, 52.51950
919.4047, 52.36414
919.8868, 49.89841
920.3689, 47.31763
920.8510, 43.19861
921.3331, 42.16602
921.8152, 49.65759
922.2974, 54.85233
922.7795, 50.74475
923.2616, 42.95706
923.7437, 38.24551
924.2258, 36.76892
924.7079, 34.32166
925.1901, 28.22098
925.6722, 23.27933
926.1543, 22.87863
926.6364, 23.08258
927.1185, 20.90356
927.6006, 16.99884
928.0828, 11.91006
928.5649, 6.323120
929.0470, 3.390869
929.5291, 9.257904
930.0112, 13.31964
930.4933, 2.608551
930.9755, 11.06375
931.4576, 12.04471
931.9397, 2.449707
932.4218, 8.821167
932.9039, 18.39584
933.3860, 22.41827
933.8682, 12.71265
934.3503, 0.5091550
934.8324, 2.352997
935.3145, 1.846893
935.7966, 0.6359560
936.2787, 9.510956
936.7609, 13.18311
937.2430, 5.234283
937.7251, 5.732758
938.2072, 9.623688
938.6893, 8.585602
939.1714, 6.563629
939.6536, 4.104645
940.1357, 4.067444
940.6178, 6.494659
941.0999, 4.577728
941.5820, 7.465576
942.0641, 21.35541
942.5463, 20.55908
943.0284, 8.015411
943.5105, 2.034821
943.9926, 8.892212
944.4747, 11.55981
944.9568, 9.657135
945.4390, 5.838745
945.9211, 2.103729
946.4032, 0.8639530
946.8853, 0.6658630
947.3674, 2.681976
947.8495, 5.342163
948.3317, 7.089508
948.8138, 7.437012
949.2959, 5.694702
949.7780, 5.260162
950.2601, 10.78018
950.7422, 20.31027
951.2244, 22.54803
951.7065, 15.88367
952.1886, 12.19455
952.6707, 12.50854
953.1528, 16.61789
953.6349, 25.78223
954.1171, 35.92932
954.5992, 41.80182
955.0813, 43.46008
955.5634, 42.61877
956.0455, 37.92511
956.5276, 34.58539
957.0098, 31.83807
957.4919, 33.96786
957.9740, 47.14420
958.4561, 62.24014
958.9382, 62.64310
959.4203, 46.63919
959.9025, 40.68607
960.3846, 49.16855
960.8667, 59.21442
961.3488, 72.14529
961.8309, 81.79590
962.3130, 82.56073
962.7952, 78.38745
963.2773, 76.66287
963.7594, 77.36624
964.2415, 80.69952
964.7236, 91.77924
965.2057, 98.04605
965.6879, 94.58463
966.1700, 88.43048
966.6521, 81.74713
967.1342, 76.17508
967.6163, 76.07550
968.0984, 83.34134
968.5806, 88.82275
969.0627, 90.60300
969.5448, 92.55762
970.0269, 97.72229
970.5090, 101.5380
970.9911, 99.02222
971.4733, 92.60208
971.9554, 89.05316
972.4375, 90.03314
972.9196, 90.14465
973.4017, 89.37567
973.8839, 86.69406
974.3660, 78.38788
974.8481, 70.82108
975.3302, 71.01364
975.8123, 76.65042
976.2944, 79.93951
976.7766, 79.41528
977.2587, 77.33789
977.7408, 71.01733
978.2229, 67.12091
978.7050, 69.58713
979.1871, 75.10068
979.6693, 82.33923
980.1514, 89.60248
980.6335, 92.30588
981.1156, 88.41464
981.5977, 83.19949
982.0798, 73.20660
982.5620, 68.14136
983.0441, 77.33264
983.5262, 90.84439
984.0083, 97.52640
984.4904, 98.12683
984.9725, 99.93930
985.4547, 105.2394
985.9368, 110.7857
986.4189, 119.4867
986.9010, 123.5397
987.3831, 110.9322
987.8652, 96.25708
988.3474, 98.28711
988.8295, 114.7367
989.3116, 130.3765
989.7937, 141.7609
990.2758, 149.7211
990.7579, 153.6296
991.2401, 155.2216
991.7222, 154.2361
992.2043, 152.4680
992.6864, 151.0458
993.1685, 150.8755
993.6506, 153.7798
994.1328, 160.5520
994.6149, 168.8614
995.0970, 179.8651
995.5791, 190.5087
996.0612, 197.7985
996.5433, 203.8898
997.0255, 212.4587
997.5076, 222.8306
997.9897, 230.2842
998.4718, 232.5594
998.9539, 233.7508
999.4360, 232.6963
999.9182, 233.5586
1000.400, 241.2507
1000.882, 253.3273
1001.365, 266.0827
1001.847, 278.7431
1002.329, 291.2564
1002.811, 302.5240
1003.293, 317.2990
1003.775, 342.9546
1004.257, 367.2794
1004.739, 380.7973
1005.221, 388.7320
1005.704, 396.1106
1006.186, 404.5595
1006.668, 415.9847
1007.150, 430.5394
1007.632, 449.6139
1008.114, 476.4633
1008.596, 505.0916
1009.078, 532.8857
1009.560, 559.3477
1010.043, 582.2340
1010.525, 603.4273
1011.007, 630.0892
1011.489, 666.7978
1011.971, 702.8965
1012.453, 732.3217
1012.935, 760.9501
1013.417, 794.1631
1013.900, 827.5695
1014.382, 854.4229
1014.864, 876.3937
1015.346, 901.8773
1015.828, 934.7628
1016.310, 963.1380
1016.792, 979.2603
1017.274, 993.9183
1017.756, 1017.249
1018.239, 1038.668
1018.721, 1046.012
1019.203, 1041.696
1019.685, 1035.281
1020.167, 1028.300
1020.649, 1022.718
1021.131, 1024.155
1021.613, 1020.906
1022.096, 1005.388
1022.578, 984.5664
1023.060, 966.3604
1023.542, 948.0377
1024.024, 920.7794
1024.506, 881.9036
1024.988, 841.8699
1025.470, 800.0167
1025.952, 762.0898
1026.435, 734.6447
1026.917, 708.2946
1027.399, 674.0294
1027.881, 635.6964
1028.363, 602.6679
1028.845, 577.0431
1029.327, 549.4907
1029.809, 513.4868
1030.292, 482.1149
1030.774, 465.0122
1031.256, 447.3352
1031.738, 416.3933
1032.220, 378.9022
1032.702, 346.5123
1033.184, 320.0787
1033.666, 298.6811
1034.148, 284.8340
1034.631, 272.3671
1035.113, 262.7367
1035.595, 251.5707
1036.077, 233.2323
1036.559, 213.6013
1037.041, 203.1694
1037.523, 202.4120
1038.005, 195.9975
1038.488, 178.9941
1038.970, 164.1390
1039.452, 152.3949
1039.934, 142.5466
1040.416, 135.3366
1040.898, 128.7973
1041.380, 120.5634
1041.862, 110.7916
1042.344, 100.7850
1042.827, 88.35703
1043.309, 80.95383
1043.791, 81.85303
1044.273, 82.24738
1044.755, 79.46451
1045.237, 73.88501
1045.719, 64.61746
1046.201, 53.15988
1046.683, 46.37976
1047.166, 44.75552
1047.648, 47.17209
1048.130, 57.50800
1048.612, 59.25635
1049.094, 43.97571
1049.576, 27.78558
1050.058, 25.04230
1050.540, 30.49942
1051.022, 29.49005
1051.505, 20.86523
1051.987, 17.43335
1052.469, 19.96658
1052.951, 21.89182
1053.433, 21.92474
1053.915, 20.75784
1054.397, 17.62988
1054.879, 13.75067
1055.362, 12.25635
1055.844, 13.59882
1056.326, 17.56476
1056.808, 23.21567
1057.290, 25.93515
1057.772, 24.85406
1058.254, 20.45026
1058.736, 12.80487
1059.219, 4.811401
1059.701, 3.9184999E-02
1060.183, 2.014282
1060.665, 2.835175
1061.147, 2.353424
1061.629, 0.8431090
1062.111, 6.342834
1062.593, 8.791718
1063.075, 6.143890
1063.558, 3.614502
1064.040, 6.760132
1064.522, 11.90964
1065.004, 12.39127
1065.486, 9.531540
1065.968, 5.162537
1066.450, 0.7004090
1066.932, 1.166519
1067.415, 6.674515
1067.897, 8.550537
1068.379, 0.1173250
1068.861, 10.91785
1069.343, 15.70148
1069.825, 15.61813
1070.307, 9.498520
1070.789, 1.386642
1071.271, 0.3160550
1071.754, 4.222443
1072.236, 8.106613
1072.718, 8.428085
1073.200, 6.422577
1073.682, 1.785812
1074.164, 3.601425
1074.646, 10.02296
1075.128, 14.75928
1075.610, 12.48923
1076.093, 5.929413
1076.575, 3.001373
1077.057, 5.872070
1077.539, 8.756027
1078.021, 9.193253
1078.503, 9.044815
1078.985, 8.987045
1079.467, 8.832291
1079.949, 8.415802
1080.432, 7.797714
1080.914, 6.945923
1081.396, 5.937180
1081.878, 5.377487
1082.360, 5.156723
1082.842, 5.572067
1083.324, 6.069229
1083.806, 8.027435
1084.289, 12.86852
1084.771, 18.83542
1085.253, 24.63686
1085.735, 29.94756
1086.217, 33.12685
1086.699, 33.14844
1087.181, 33.77184
1087.663, 35.44571
1088.146, 36.90562
1088.628, 38.39597
1089.110, 38.18381
1089.592, 33.21390
1090.074, 27.97456
1090.556, 33.93517
1091.038, 51.92215
1091.520, 55.30527
1092.002, 40.98688
1092.485, 32.45306
1092.967, 34.14531
1093.449, 37.11996
1093.931, 36.84933
1094.413, 36.52199
1094.895, 40.59084
1095.377, 46.92371
1095.859, 47.37183
1096.342, 42.89215
1096.824, 40.61642
1097.306, 40.81516
1097.788, 39.48434
1098.270, 35.52695
1098.752, 31.93938
1099.234, 31.42665
1099.716, 31.15335
1100.198, 24.64642
1100.681, 16.36890
1101.163, 17.30586
1101.645, 23.82932
1102.127, 24.88136
1102.609, 20.22141
1103.091, 19.34303
1103.573, 27.03825
1104.055, 32.61270
1104.537, 24.03862
1105.020, 12.79071
1105.502, 8.608627
1105.984, 8.508438
1106.466, 10.64217
1106.948, 12.95836
1107.430, 11.56439
1107.912, 5.908783
1108.394, 1.280090
1108.876, 0.5054320
1109.359, 0.3961490
1109.841, 4.452927
1110.323, 7.556366
1110.805, 1.546982
1111.287, 6.132599
1111.769, 4.061020
1112.251, 5.599884
1112.733, 8.116608
1113.216, 3.955185
1113.698, 7.651474
1114.180, 6.074692
1114.662, 14.73950
1115.144, 10.75949
1115.626, 3.915710
1116.108, 0.5715640
1116.590, 1.970062
1117.073, 1.747864
1117.555, 10.31021
1118.037, 12.93625
1118.519, 8.736664
1119.001, 4.629120
1119.483, 1.010620
1119.965, 1.087204
1120.447, 6.816483
1120.929, 12.69254
1121.412, 12.86400
1121.894, 9.419525
1122.376, 7.660736
1122.858, 7.182861
1123.340, 5.113892
1123.822, 2.055603
1124.304, 2.686081
1124.786, 7.427536
1125.269, 10.99745
1125.751, 10.36920
1126.233, 7.754608
1126.715, 3.282898
1127.197, 0.3128360
1127.679, 2.642654
1128.161, 8.278198
1128.643, 9.837646
1129.125, 7.653275
1129.608, 5.280273
1130.090, 3.744293
1130.572, 2.284683
1131.054, 0.6339870
1131.536, 1.224731
1132.018, 5.237823
1132.500, 11.18100
1132.982, 9.971527
1133.464, 6.343216
1133.947, 6.487244
1134.429, 9.759552
1134.911, 11.55380
1135.393, 10.86075
1135.875, 10.27179
1136.357, 9.338943
1136.839, 9.604156
1137.321, 13.13544
1137.803, 15.17964
1138.286, 12.28571
1138.768, 7.146088
1139.250, 3.052689
1139.732, 0.3558500
1140.214, 3.171753
1140.696, 12.62392
1141.178, 19.03690
1141.660, 21.68961
1142.143, 22.43362
1142.625, 21.80566
1143.107, 20.03305
1143.589, 17.10057
1144.071, 14.14049
1144.553, 13.58197
1145.035, 14.34093
1145.517, 12.36478
1146.000, 8.988724
1146.482, 9.206741
1146.964, 12.55151
1147.446, 13.61894
1147.928, 10.63641
1148.410, 8.914932
1148.892, 13.58008
1149.374, 19.03760
1149.856, 22.08696
1150.339, 21.84007
1150.821, 14.59314
1151.303, 5.182648
1151.785, 6.2408000E-02
1152.267, 0.2736660
1152.749, 2.290955
1153.231, 8.818390
1153.713, 12.13123
1154.196, 6.470016
1154.678, 3.146713
1155.160, 7.663544
1155.642, 13.23761
1156.124, 16.53827
1156.606, 17.63258
1157.088, 15.78285
1157.570, 11.47849
1158.052, 10.94237
1158.535, 15.53152
1159.017, 17.55400
1159.499, 16.26050
1159.981, 14.35497
1160.463, 12.43526
1160.945, 11.93224
1161.427, 14.07440
1161.909, 17.22594
1162.391, 18.79482
1162.874, 19.03224
1163.356, 18.25655
1163.838, 16.97092
1164.320, 17.32481
1164.802, 18.87495
1165.284, 18.40013
1165.766, 15.26178
1166.248, 13.83577
1166.730, 18.74541
1167.213, 22.30373
1167.695, 14.25592
1168.177, 6.211349
1168.659, 10.84346
1169.141, 19.62454
1169.623, 22.56544
1170.105, 20.80740
1170.587, 19.53453
1171.070, 19.25409
1171.552, 18.87881
1172.034, 21.42763
1172.516, 20.48402
1172.998, 12.48364
1173.480, 4.500641
1173.962, 1.735947
1174.444, 4.988602
1174.927, 3.080597
1175.409, 2.688187
1175.891, 6.582123
1176.373, 8.125565
1176.855, 11.77406
1177.337, 17.21428
1177.819, 21.90152
1178.301, 25.20004
1178.783, 25.82056
1179.266, 23.15588
1179.748, 18.74117
1180.230, 13.79933
1180.712, 10.59824
1181.194, 13.19424
1181.676, 17.41727
1182.158, 14.67859
1182.640, 9.000427
1183.123, 7.294540
1183.605, 10.02910
1184.087, 13.71237
1184.569, 17.43460
1185.051, 18.39319
1185.533, 11.52382
1186.015, 6.573029
1186.497, 10.38612
1186.979, 15.30577
1187.462, 14.64156
1187.944, 11.52928
1188.426, 11.00813
1188.908, 12.44633
1189.390, 11.40640
1189.872, 6.088455
1190.354, 5.482956
1190.836, 11.06862
1191.318, 14.44785
1191.801, 13.41785
1192.283, 11.57320
1192.765, 11.60112
1193.247, 12.35860
1193.729, 10.53462
1194.211, 7.995392
1194.693, 8.761612
1195.175, 11.21445
1195.657, 10.97368
1196.140, 8.979767
1196.622, 8.520233
1197.104, 10.04504
1197.586, 12.01515
1198.068, 13.79356
1198.550, 14.76941
1199.032, 14.09680
1199.514, 13.08943
1199.997, 13.14951
1200.479, 12.46129
1200.961, 7.912811
1201.443, 3.216019
1201.925, 4.751923
1202.407, 11.82088
1202.889, 16.59682
1203.371, 18.10345
1203.854, 17.08493
1204.336, 14.78265
1204.818, 15.13123
1205.300, 20.20587
1205.782, 21.63892
1206.264, 14.38510
1206.746, 5.043289
1207.228, 0.9000700
1207.710, 1.552048
1208.193, 8.458237
1208.675, 18.55618
1209.157, 22.71069
1209.639, 21.73735
1210.121, 18.68698
1210.603, 14.73206
1211.085, 11.55305
1211.567, 9.687073
1212.050, 8.289490
1212.532, 5.698517
1213.014, 4.459579
1213.496, 7.691772
1213.978, 10.73032
1214.460, 10.05753
1214.942, 7.481140
1215.424, 4.094467
1215.906, 1.035751
1216.389, 2.388092
1216.871, 9.352692
1217.353, 13.27861
1217.835, 14.44147
1218.317, 11.81322
1218.799, 4.135864
1219.281, 1.537018
1219.763, 8.704620
1220.245, 15.31641
1220.728, 12.15434
1221.210, 4.663818
1221.692, 1.738678
1222.174, 2.392914
1222.656, 6.105255
1223.138, 11.03854
1223.620, 14.35365
1224.102, 15.37527
1224.584, 12.87869
1225.067, 7.201523
1225.549, 2.429977
1226.031, 1.1597000E-02
1226.513, 0.5922850
1226.995, 1.240128
1227.477, 3.774902
1227.959, 7.650650
1228.441, 10.68314
1228.924, 11.40787
1229.406, 10.02190
1229.888, 6.407333
1230.370, 2.090134
1230.852, 2.7084000E-02
1231.334, 0.1961360
1231.816, 1.014923
1232.298, 0.0000000E+00
##END=



