##NAMES=Guanacoite
##RRUFFID=R060811
##IDEAL CHEMISTRY=Cu^2+^_2_Mg_3_(As^5+^O_4_)_2_(OH)_4_&#183;4H_2_O
##LOCALITY=Guanaco mine, Tal Tal, Chile
##OWNER=RRUFF
##SOURCE=Bob Jenkins
##DESCRIPTION=Tufts of light blue acicular crystals
##STATUS=The identification of this mineral has been confirmed only by single crystal X-ray diffraction.
##URL=rruff.info/R060811
115.255, 0.000
115.737, 30.084
116.219, 45.007
116.702, 48.074
117.184, 53.732
117.666, 70.074
118.148, 90.120
118.630, 107.894
119.112, 115.471
119.594, 125.413
120.076, 147.216
120.559, 180.082
121.041, 211.172
121.523, 228.189
122.005, 239.395
122.487, 257.075
122.969, 292.141
123.451, 333.301
123.933, 371.429
124.415, 406.613
124.898, 435.069
125.380, 450.518
125.862, 455.738
126.344, 459.033
126.826, 463.137
127.308, 468.638
127.790, 476.114
128.272, 484.800
128.755, 496.990
129.237, 516.739
129.719, 543.708
130.201, 573.897
130.683, 604.824
131.165, 636.409
131.647, 670.381
132.129, 707.763
132.611, 746.823
133.094, 784.895
133.576, 822.817
134.058, 853.724
134.540, 870.718
135.022, 873.855
135.504, 866.054
135.986, 843.652
136.468, 808.727
136.951, 782.827
137.433, 766.843
137.915, 758.221
138.397, 752.679
138.879, 749.208
139.361, 753.139
139.843, 769.389
140.325, 801.823
140.807, 824.404
141.290, 830.914
141.772, 831.796
142.254, 852.160
142.736, 900.218
143.218, 952.871
143.700, 1000.454
144.182, 1042.090
144.664, 1079.180
145.146, 1109.674
145.629, 1135.039
146.111, 1161.740
146.593, 1190.440
147.075, 1219.758
147.557, 1247.839
148.039, 1272.165
148.521, 1299.162
149.003, 1329.321
149.486, 1362.454
149.968, 1399.600
150.450, 1448.531
150.932, 1498.285
151.414, 1539.359
151.896, 1567.771
152.378, 1592.975
152.860, 1617.914
153.342, 1644.517
153.824, 1663.328
154.307, 1682.163
154.789, 1690.810
155.271, 1676.254
155.753, 1631.075
156.235, 1567.215
156.717, 1485.787
157.199, 1379.450
157.682, 1273.241
158.164, 1166.099
158.646, 1062.672
159.128, 971.583
159.610, 891.396
160.092, 827.516
160.574, 785.083
161.056, 772.487
161.538, 768.409
162.020, 764.586
162.503, 762.929
162.985, 769.751
163.467, 790.195
163.949, 818.745
164.431, 851.175
164.913, 885.732
165.395, 924.617
165.877, 970.043
166.360, 1021.468
166.842, 1075.220
167.324, 1127.621
167.806, 1181.759
168.288, 1241.800
168.770, 1315.306
169.252, 1391.059
169.734, 1462.556
170.217, 1529.170
170.699, 1590.967
171.181, 1650.345
171.663, 1704.328
172.145, 1749.217
172.627, 1778.343
173.109, 1799.706
173.591, 1822.992
174.073, 1848.965
174.555, 1872.952
175.038, 1889.550
175.520, 1900.659
176.002, 1910.395
176.484, 1930.248
176.966, 1947.177
177.448, 1941.316
177.930, 1908.793
178.413, 1861.469
178.895, 1808.989
179.377, 1751.159
179.859, 1690.217
180.341, 1623.367
180.823, 1553.374
181.305, 1487.352
181.787, 1425.881
182.269, 1368.097
182.751, 1311.854
183.234, 1257.588
183.716, 1204.955
184.198, 1151.906
184.680, 1100.239
185.162, 1056.817
185.644, 1024.851
186.126, 998.994
186.608, 966.401
187.091, 927.256
187.573, 892.687
188.055, 876.861
188.537, 876.341
189.019, 870.674
189.501, 852.377
189.983, 827.085
190.465, 808.309
190.947, 795.562
191.430, 793.586
191.912, 815.008
192.394, 857.512
192.876, 889.548
193.358, 898.808
193.840, 890.463
194.322, 886.646
194.804, 887.742
195.286, 891.905
195.769, 898.448
196.251, 907.787
196.733, 914.723
197.215, 917.543
197.697, 916.475
198.179, 911.721
198.661, 900.821
199.143, 892.293
199.626, 897.874
200.108, 918.444
200.590, 947.717
201.072, 982.166
201.554, 1021.537
202.036, 1076.253
202.518, 1148.272
203.000, 1232.427
203.482, 1321.947
203.965, 1417.737
204.447, 1514.846
204.929, 1608.453
205.411, 1697.459
205.893, 1794.875
206.375, 1902.538
206.857, 2016.593
207.339, 2130.620
207.822, 2245.989
208.304, 2357.485
208.786, 2458.962
209.268, 2547.349
209.750, 2645.890
210.232, 2762.050
210.714, 2884.907
211.196, 2991.043
211.678, 3082.131
212.161, 3153.623
212.643, 3204.609
213.125, 3239.202
213.607, 3238.875
214.089, 3195.888
214.571, 3119.142
215.053, 3035.565
215.535, 2939.495
216.018, 2848.463
216.500, 2775.266
216.982, 2729.203
217.464, 2674.598
217.946, 2600.700
218.428, 2515.845
218.910, 2458.058
219.392, 2437.902
219.874, 2428.236
220.357, 2411.827
220.839, 2388.007
221.321, 2359.561
221.803, 2326.633
222.285, 2289.527
222.767, 2248.873
223.249, 2209.679
223.731, 2160.773
224.214, 2095.267
224.696, 2012.364
225.178, 1912.043
225.660, 1785.730
226.142, 1637.346
226.624, 1504.109
227.106, 1394.747
227.588, 1291.296
228.070, 1180.536
228.553, 1056.463
229.035, 933.418
229.517, 809.123
229.999, 683.073
230.481, 577.987
230.963, 500.568
231.445, 436.790
231.927, 376.701
232.410, 324.461
232.892, 267.445
233.374, 199.552
233.856, 120.614
234.338, 57.508
234.820, 15.126
235.302, 16.848
235.784, 48.580
236.266, 83.069
236.749, 111.646
237.231, 131.426
237.713, 142.223
238.195, 150.893
238.677, 155.295
239.159, 159.535
239.641, 168.697
240.123, 189.054
240.605, 204.443
241.088, 210.542
241.570, 178.679
242.052, 156.037
242.534, 142.120
243.016, 163.048
243.498, 138.990
243.980, 132.966
244.462, 127.685
244.945, 97.305
245.427, 113.183
245.909, 85.664
246.391, 97.365
246.873, 91.990
247.355, 86.928
247.837, 83.602
248.319, 78.033
248.801, 68.504
249.284, 54.734
249.766, 42.027
250.248, 28.311
250.730, 17.408
251.212, 15.239
251.694, 29.171
252.176, 37.256
252.658, 32.816
253.141, 14.532
253.623, 0.529
254.105, 6.942
254.587, 15.452
255.069, 40.298
255.551, 88.993
256.033, 138.985
256.515, 184.946
256.997, 226.671
257.480, 269.543
257.962, 311.913
258.444, 358.081
258.926, 412.535
259.408, 476.346
259.890, 546.795
260.372, 621.952
260.854, 702.550
261.336, 792.498
261.819, 896.805
262.301, 1006.429
262.783, 1106.039
263.265, 1187.377
263.747, 1282.538
264.229, 1404.307
264.711, 1552.874
265.193, 1697.298
265.676, 1833.874
266.158, 1966.903
266.640, 2102.670
267.122, 2240.951
267.604, 2379.135
268.086, 2515.466
268.568, 2651.193
269.050, 2785.498
269.532, 2918.112
270.015, 3047.141
270.497, 3168.260
270.979, 3281.156
271.461, 3386.818
271.943, 3486.311
272.425, 3578.971
272.907, 3657.370
273.389, 3720.586
273.871, 3768.678
274.354, 3804.691
274.836, 3832.119
275.318, 3829.376
275.800, 3789.073
276.282, 3712.728
276.764, 3616.280
277.246, 3498.573
277.728, 3359.727
278.211, 3192.370
278.693, 2993.656
279.175, 2791.908
279.657, 2587.278
280.139, 2384.537
280.621, 2214.201
281.103, 2079.564
281.585, 1964.161
282.068, 1847.804
282.550, 1730.584
283.032, 1628.886
283.514, 1548.642
283.996, 1486.604
284.478, 1428.958
284.960, 1374.898
285.442, 1329.938
285.924, 1300.748
286.406, 1286.568
286.889, 1282.467
287.371, 1290.690
287.853, 1306.375
288.335, 1314.820
288.817, 1315.492
289.299, 1315.964
289.781, 1323.687
290.263, 1337.339
290.746, 1350.924
291.228, 1367.151
291.710, 1378.739
292.192, 1362.680
292.674, 1319.333
293.156, 1278.572
293.638, 1266.565
294.120, 1277.371
294.603, 1289.875
295.085, 1302.604
295.567, 1311.927
296.049, 1306.999
296.531, 1289.543
297.013, 1276.435
297.495, 1279.051
297.977, 1295.052
298.459, 1319.569
298.942, 1351.938
299.424, 1391.921
299.906, 1441.198
300.388, 1498.192
300.870, 1557.900
301.352, 1609.243
301.834, 1661.995
302.316, 1731.198
302.798, 1821.270
303.281, 1924.135
303.763, 2042.365
304.245, 2169.214
304.727, 2287.846
305.209, 2373.536
305.691, 2449.875
306.173, 2545.298
306.655, 2666.044
307.138, 2799.754
307.620, 2943.063
308.102, 3092.873
308.584, 3238.621
309.066, 3370.968
309.548, 3499.631
310.030, 3636.416
310.512, 3784.640
310.994, 3925.686
311.477, 4033.839
311.959, 4126.503
312.441, 4233.759
312.923, 4399.928
313.405, 4562.089
313.887, 4668.656
314.369, 4712.909
314.851, 4757.335
315.333, 4853.734
315.816, 4962.558
316.298, 5034.130
316.780, 5036.667
317.262, 5011.778
317.744, 4984.774
318.226, 4957.552
318.708, 4892.716
319.190, 4770.898
319.672, 4608.273
320.155, 4420.037
320.637, 4193.985
321.119, 3957.311
321.601, 3716.398
322.083, 3470.725
322.565, 3227.536
323.047, 2972.287
323.530, 2729.030
324.012, 2514.485
324.494, 2350.582
324.976, 2193.939
325.458, 2032.198
325.940, 1869.943
326.422, 1730.565
326.904, 1632.522
327.386, 1546.026
327.868, 1455.612
328.351, 1339.290
328.833, 1245.903
329.315, 1184.027
329.797, 1146.624
330.279, 1107.836
330.761, 1067.646
331.243, 1026.019
331.725, 982.714
332.208, 933.295
332.690, 890.923
333.172, 857.718
333.654, 830.891
334.136, 805.061
334.618, 782.959
335.100, 756.669
335.582, 719.474
336.065, 664.545
336.547, 630.979
337.029, 626.247
337.511, 634.722
337.993, 630.310
338.475, 607.537
338.957, 590.304
339.439, 586.547
339.921, 596.261
340.404, 608.463
340.886, 621.728
341.368, 641.134
341.850, 674.278
342.332, 721.724
342.814, 771.818
343.296, 818.540
343.778, 865.573
344.260, 927.268
344.743, 1004.977
345.225, 1093.136
345.707, 1193.192
346.189, 1302.756
346.671, 1400.574
347.153, 1476.532
347.635, 1544.966
348.117, 1634.591
348.599, 1745.815
349.082, 1871.228
349.564, 2009.437
350.046, 2157.725
350.528, 2288.845
351.010, 2361.096
351.492, 2496.157
351.974, 2621.361
352.457, 2746.614
352.939, 2871.865
353.421, 2997.143
353.903, 3122.459
354.385, 3247.797
354.867, 3373.168
355.349, 3398.335
355.831, 3429.918
356.313, 3465.923
356.796, 3502.808
357.278, 3542.422
357.760, 3579.703
358.242, 3607.702
358.724, 3625.139
359.206, 3648.855
359.688, 3691.010
360.170, 3743.805
360.652, 3797.980
361.135, 3841.115
361.617, 3893.157
362.099, 3963.724
362.581, 4052.330
363.063, 4150.432
363.545, 4251.958
364.027, 4363.539
364.509, 4490.084
364.991, 4637.748
365.474, 4795.446
365.956, 4971.349
366.438, 5159.652
366.920, 5326.382
367.402, 5442.103
367.884, 5556.763
368.366, 5693.806
368.848, 5875.438
369.331, 6048.043
369.813, 6200.944
370.295, 6344.672
370.777, 6499.927
371.259, 6689.357
371.741, 6861.243
372.223, 6998.038
372.705, 7092.403
373.188, 7180.154
373.670, 7251.303
374.152, 7323.540
374.634, 7426.305
375.116, 7574.560
375.598, 7706.113
376.080, 7800.354
376.562, 7859.534
377.044, 7933.063
377.526, 8027.940
378.009, 8117.177
378.491, 8179.362
378.973, 8214.025
379.455, 8223.529
379.937, 8201.171
380.419, 8159.912
380.901, 8137.242
381.384, 8134.091
381.866, 8130.319
382.348, 8110.057
382.830, 8077.183
383.312, 8047.208
383.794, 8023.562
384.276, 7999.247
384.758, 7956.560
385.240, 7901.132
385.723, 7858.463
386.205, 7845.754
386.687, 7852.344
387.169, 7854.733
387.651, 7848.472
388.133, 7870.291
388.615, 7979.688
389.097, 8135.925
389.579, 8266.222
390.062, 8328.927
390.544, 8366.402
391.026, 8314.837
391.508, 8263.311
391.990, 8211.805
392.472, 8160.327
392.954, 8108.880
393.436, 8057.462
393.918, 8006.072
394.401, 7954.714
394.883, 7903.383
395.365, 7819.303
395.847, 7730.712
396.329, 7629.761
396.811, 7504.219
397.293, 7344.016
397.775, 7132.537
398.258, 6924.020
398.740, 6725.409
399.222, 6531.823
399.704, 6335.382
400.186, 6131.615
400.668, 5930.044
401.150, 5730.429
401.632, 5530.754
402.114, 5347.642
402.597, 5186.582
403.079, 5034.702
403.561, 4878.929
404.043, 4712.882
404.525, 4560.969
405.007, 4428.096
405.489, 4311.084
405.971, 4201.343
406.453, 4096.610
406.936, 4002.565
407.418, 3921.649
407.900, 3853.552
408.382, 3805.715
408.864, 3783.990
409.346, 3770.414
409.828, 3730.784
410.310, 3666.750
410.793, 3608.346
411.275, 3569.553
411.757, 3546.604
412.239, 3530.609
412.721, 3521.418
413.203, 3517.947
413.685, 3528.372
414.167, 3543.496
414.650, 3542.817
415.132, 3508.948
415.614, 3465.955
416.096, 3437.889
416.578, 3422.744
417.060, 3410.888
417.542, 3405.503
418.024, 3396.180
418.506, 3372.290
418.988, 3326.255
419.471, 3277.267
419.953, 3230.681
420.435, 3187.729
420.917, 3149.524
421.399, 3117.265
421.881, 3089.887
422.363, 3065.819
422.845, 3044.013
423.328, 3032.206
423.810, 3029.607
424.292, 3038.700
424.774, 3062.205
425.256, 3104.062
425.738, 3155.533
426.220, 3214.988
426.702, 3282.589
427.185, 3363.681
427.667, 3464.940
428.149, 3569.897
428.631, 3659.395
429.113, 3708.493
429.595, 3823.177
430.077, 3999.284
430.559, 4158.330
431.041, 4317.405
431.524, 4476.531
432.006, 4635.664
432.488, 4794.814
432.970, 4954.004
433.452, 5113.211
433.934, 5272.458
434.416, 5431.714
434.898, 5530.997
435.380, 5684.932
435.863, 5825.406
436.345, 5929.917
436.827, 6018.065
437.309, 6124.191
437.791, 6243.323
438.273, 6346.004
438.755, 6408.529
439.237, 6445.566
439.720, 6476.237
440.202, 6505.576
440.684, 6518.957
441.166, 6508.224
441.648, 6474.194
442.130, 6418.159
442.612, 6330.328
443.094, 6228.935
443.576, 6129.760
444.059, 6032.612
444.541, 5906.923
445.023, 5725.496
445.505, 5523.707
445.987, 5324.550
446.469, 5135.017
446.951, 4947.004
447.433, 4762.306
447.915, 4578.952
448.398, 4389.218
448.880, 4183.646
449.362, 3986.493
449.844, 3804.961
450.326, 3642.696
450.808, 3485.333
451.290, 3329.859
451.772, 3182.909
452.254, 3052.358
452.737, 2940.319
453.219, 2829.019
453.701, 2711.596
454.183, 2592.271
454.665, 2492.869
455.147, 2413.396
455.629, 2341.641
456.112, 2267.673
456.594, 2193.695
457.076, 2124.102
457.558, 2060.603
458.040, 2002.672
458.522, 1949.909
459.004, 1902.940
459.486, 1865.289
459.968, 1846.870
460.451, 1833.060
460.933, 1806.992
461.415, 1769.099
461.897, 1732.635
462.379, 1700.333
462.861, 1675.371
463.343, 1661.216
463.825, 1671.668
464.307, 1675.627
464.790, 1651.426
465.272, 1612.065
465.754, 1591.132
466.236, 1614.015
466.718, 1640.035
467.200, 1651.348
467.682, 1638.781
468.164, 1643.188
468.647, 1674.746
469.129, 1716.283
469.611, 1748.743
470.093, 1762.013
470.575, 1789.320
471.057, 1837.598
471.539, 1903.657
472.021, 1973.743
472.503, 2046.704
472.986, 2127.770
473.468, 2222.974
473.950, 2331.676
474.432, 2430.652
474.914, 2514.476
475.396, 2604.191
475.878, 2728.006
476.360, 2882.346
476.842, 3051.796
477.325, 3236.403
477.807, 3427.123
478.289, 3602.621
478.771, 3766.670
479.253, 3947.800
479.735, 4167.716
480.217, 4413.957
480.699, 4674.974
481.181, 4947.240
481.664, 5230.331
482.146, 5523.377
482.628, 5825.610
483.110, 6140.819
483.592, 6480.219
484.074, 6821.934
484.556, 7160.224
485.039, 7488.550
485.521, 7818.525
486.003, 8161.409
486.485, 8498.060
486.967, 8817.811
487.449, 9113.875
487.931, 9400.647
488.413, 9686.195
488.895, 9959.986
489.378, 10200.049
489.860, 10406.184
490.342, 10588.969
490.824, 10765.467
491.306, 10931.184
491.788, 11014.765
492.270, 11012.793
492.752, 10952.227
493.234, 10866.747
493.717, 10747.946
494.199, 10549.918
494.681, 10247.236
495.163, 9890.736
495.645, 9535.891
496.127, 9180.224
496.609, 8810.220
497.091, 8410.059
497.573, 7999.132
498.056, 7588.683
498.538, 7183.204
499.020, 6779.148
499.502, 6370.327
499.984, 5967.517
500.466, 5584.397
500.948, 5231.193
501.430, 4895.878
501.913, 4576.600
502.395, 4276.470
502.877, 3999.260
503.359, 3760.317
503.841, 3532.490
504.323, 3303.645
504.805, 3074.513
505.287, 2857.918
505.770, 2653.870
506.252, 2462.311
506.734, 2284.320
507.216, 2118.431
507.698, 1976.633
508.180, 1866.875
508.662, 1776.524
509.144, 1673.312
509.626, 1557.473
510.108, 1445.273
510.591, 1345.333
511.073, 1255.767
511.555, 1172.365
512.037, 1094.717
512.519, 1023.018
513.001, 956.172
513.483, 894.720
513.966, 839.401
514.448, 789.944
514.930, 747.240
515.412, 718.591
515.894, 697.707
516.376, 668.100
516.858, 615.182
517.340, 558.988
517.822, 506.850
518.305, 458.303
518.787, 419.596
519.269, 400.393
519.751, 385.947
520.233, 364.441
520.715, 333.428
521.197, 300.820
521.679, 265.496
522.161, 229.755
522.644, 200.797
523.126, 180.512
523.608, 160.960
524.090, 137.226
524.572, 110.394
525.054, 90.942
525.536, 79.495
526.018, 69.529
526.500, 54.616
526.983, 36.049
527.465, 17.088
527.947, 1.819
528.429, 20.266
528.911, 42.147
529.393, 63.978
529.875, 77.557
530.357, 68.280
530.839, 57.590
531.322, 60.574
531.804, 78.196
532.286, 96.544
532.768, 114.707
533.250, 129.626
533.732, 138.787
534.214, 139.750
534.696, 137.682
535.179, 126.858
535.661, 114.963
536.143, 118.105
536.625, 145.106
537.107, 167.958
537.589, 177.909
538.071, 176.075
538.553, 172.358
539.036, 165.494
539.518, 162.480
540.000, 174.953
540.482, 198.352
540.964, 204.707
541.446, 187.612
541.928, 165.674
542.410, 162.496
542.892, 172.653
543.375, 182.747
543.857, 187.218
544.339, 188.779
544.821, 188.864
545.303, 187.656
545.785, 186.114
546.267, 181.372
546.749, 178.897
547.231, 183.963
547.714, 202.554
548.196, 212.429
548.678, 202.573
549.160, 186.419
549.642, 178.486
550.124, 184.573
550.606, 188.775
551.088, 188.223
551.570, 184.456
552.053, 183.593
552.535, 186.733
553.017, 188.287
553.499, 183.126
553.981, 172.648
554.463, 171.046
554.945, 179.232
555.427, 188.718
555.909, 189.795
556.392, 185.614
556.874, 183.225
557.356, 184.664
557.838, 187.691
558.320, 192.716
558.802, 197.751
559.284, 198.333
559.766, 188.419
560.249, 177.199
560.731, 168.098
561.213, 161.383
561.695, 158.819
562.177, 165.661
562.659, 173.069
563.141, 175.754
563.623, 170.202
564.106, 167.337
564.588, 169.845
565.070, 172.690
565.552, 166.327
566.034, 147.251
566.516, 137.071
566.998, 144.589
567.480, 162.486
567.963, 168.368
568.445, 162.563
568.927, 153.883
569.409, 145.930
569.891, 139.428
570.373, 136.544
570.855, 137.669
571.337, 138.480
571.819, 135.533
572.302, 130.427
572.784, 124.813
573.266, 116.790
573.748, 111.786
574.230, 113.577
574.712, 119.733
575.194, 124.832
575.676, 130.140
576.158, 131.890
576.641, 128.027
577.123, 118.578
577.605, 111.420
578.087, 107.469
578.569, 104.054
579.051, 98.704
579.533, 91.161
580.015, 87.670
580.497, 89.394
580.980, 92.569
581.462, 90.956
581.944, 86.128
582.426, 85.883
582.908, 97.679
583.390, 109.192
583.872, 101.556
584.354, 79.979
584.836, 62.529
585.319, 60.878
585.801, 64.964
586.283, 69.177
586.765, 73.169
587.247, 74.887
587.729, 71.261
588.211, 66.715
588.693, 64.726
589.176, 69.056
589.658, 70.053
590.140, 66.760
590.622, 60.617
591.104, 53.656
591.586, 45.458
592.068, 37.937
592.550, 30.940
593.032, 25.298
593.515, 24.955
593.997, 29.865
594.479, 34.815
594.961, 35.206
595.443, 33.640
595.925, 35.239
596.407, 40.539
596.890, 44.863
597.372, 43.499
597.854, 39.979
598.336, 38.430
598.818, 43.935
599.300, 44.987
599.782, 34.365
600.264, 17.616
600.746, 5.300
601.229, 2.226
601.711, 4.321
602.193, 2.006
602.675, 14.871
603.157, 19.574
603.639, 13.495
604.121, 6.989
604.603, 8.420
605.085, 16.727
605.568, 15.108
606.050, 1.697
606.532, 12.482
607.014, 13.452
607.496, 6.701
607.978, 4.630
608.460, 12.960
608.942, 21.671
609.424, 22.350
609.907, 17.632
610.389, 12.691
610.871, 8.412
611.353, 5.299
611.835, 4.853
612.317, 6.597
612.799, 4.569
613.281, 5.954
613.763, 15.067
614.246, 18.731
614.728, 16.763
615.210, 7.892
615.692, 11.530
616.174, 28.525
616.656, 25.456
617.138, 4.857
617.620, 9.099
618.103, 11.827
618.585, 7.939
619.067, 0.590
619.549, 8.599
620.031, 15.426
620.513, 18.763
620.995, 18.610
621.477, 13.270
621.959, 3.764
622.442, 4.788
622.924, 10.200
623.406, 14.531
623.888, 19.159
624.370, 24.971
624.852, 27.478
625.334, 24.520
625.816, 20.809
626.299, 20.237
626.781, 23.196
627.263, 26.045
627.745, 28.614
628.227, 30.877
628.709, 31.841
629.191, 32.049
629.673, 34.959
630.156, 44.964
630.638, 54.425
631.120, 50.384
631.602, 37.026
632.084, 28.633
632.566, 39.383
633.048, 51.808
633.530, 53.774
634.012, 43.925
634.495, 37.548
634.977, 39.505
635.459, 44.315
635.941, 51.539
636.423, 60.820
636.905, 55.131
637.387, 53.069
637.869, 54.454
638.351, 69.609
638.834, 67.061
639.316, 71.639
639.798, 72.701
640.280, 63.931
640.762, 66.370
641.244, 77.061
641.726, 85.736
642.208, 87.178
642.690, 84.455
643.173, 76.205
643.655, 64.248
644.137, 60.200
644.619, 78.717
645.101, 98.097
645.583, 106.252
646.065, 99.146
646.547, 92.526
647.029, 84.919
647.512, 79.580
647.994, 80.061
648.476, 87.713
648.958, 94.204
649.440, 99.118
649.922, 102.198
650.404, 102.183
650.886, 99.668
651.369, 97.829
651.851, 98.312
652.333, 99.147
652.815, 98.060
653.297, 95.430
653.779, 92.251
654.261, 88.837
654.743, 85.167
655.226, 80.222
655.708, 74.021
656.190, 71.037
656.672, 73.634
657.154, 78.060
657.636, 83.730
658.118, 92.150
658.600, 93.015
659.083, 83.394
659.565, 72.981
660.047, 73.099
660.529, 82.535
661.011, 89.745
661.493, 93.053
661.975, 92.900
662.457, 86.953
662.939, 78.152
663.422, 72.627
663.904, 75.807
664.386, 79.741
664.868, 80.141
665.350, 77.766
665.832, 74.816
666.314, 71.163
666.796, 67.634
667.278, 62.935
667.761, 57.415
668.243, 60.740
668.725, 78.074
669.207, 92.557
669.689, 92.447
670.171, 78.716
670.653, 65.892
671.135, 53.828
671.617, 46.208
672.100, 51.914
672.582, 63.400
673.064, 65.057
673.546, 49.770
674.028, 37.459
674.510, 46.944
674.992, 65.033
675.474, 74.574
675.956, 63.696
676.439, 52.267
676.921, 41.382
677.403, 32.628
677.885, 30.224
678.367, 37.348
678.849, 42.909
679.331, 42.595
679.813, 38.426
680.296, 40.577
680.778, 49.112
681.260, 54.689
681.742, 50.289
682.224, 39.472
682.706, 24.736
683.188, 6.510
683.670, 3.523
684.153, 10.766
684.635, 30.758
685.117, 41.929
685.599, 40.385
686.081, 34.227
686.563, 17.878
687.045, 1.621
687.527, 5.287
688.010, 1.097
688.492, 5.941
688.974, 7.755
689.456, 7.683
689.938, 9.113
690.420, 11.555
690.902, 8.140
691.384, 6.861
691.866, 24.146
692.349, 30.811
692.831, 29.426
693.313, 27.345
693.795, 27.886
694.277, 28.923
694.759, 27.613
695.241, 24.654
695.723, 27.631
696.205, 46.107
696.688, 61.706
697.170, 66.311
697.652, 58.936
698.134, 56.386
698.616, 59.702
699.098, 64.258
699.580, 64.448
700.062, 62.316
700.544, 68.555
701.027, 84.899
701.509, 102.371
701.991, 114.582
702.473, 121.879
702.955, 124.027
703.437, 117.096
703.919, 112.996
704.401, 120.547
704.883, 132.274
705.366, 136.619
705.848, 122.538
706.330, 117.624
706.812, 128.518
707.294, 148.404
707.776, 160.597
708.258, 164.212
708.740, 170.509
709.222, 186.568
709.705, 205.445
710.187, 208.097
710.669, 198.186
711.151, 194.973
711.633, 216.862
712.115, 244.364
712.597, 261.555
713.080, 268.287
713.562, 275.143
714.044, 284.708
714.526, 295.457
715.008, 306.620
715.490, 318.163
715.972, 329.229
716.454, 338.452
716.936, 349.976
717.419, 368.247
717.901, 392.665
718.383, 414.946
718.865, 434.358
719.347, 453.808
719.829, 481.211
720.311, 509.894
720.793, 528.062
721.276, 525.243
721.758, 526.862
722.240, 552.219
722.722, 587.321
723.204, 611.744
723.686, 610.081
724.168, 615.513
724.650, 632.915
725.132, 658.279
725.615, 684.642
726.097, 712.561
726.579, 735.633
727.061, 749.829
727.543, 760.625
728.025, 781.256
728.507, 809.462
728.989, 836.017
729.471, 858.586
729.954, 874.956
730.436, 879.988
730.918, 875.435
731.400, 873.802
731.882, 877.795
732.364, 886.222
732.846, 899.955
733.328, 919.594
733.810, 934.752
734.293, 945.581
734.775, 950.993
735.257, 948.033
735.739, 938.152
736.221, 930.228
736.703, 924.661
737.185, 920.485
737.667, 914.759
738.149, 910.883
738.632, 914.782
739.114, 930.605
739.596, 942.828
740.078, 948.087
740.560, 945.562
741.042, 933.259
741.524, 899.953
742.006, 879.326
742.489, 878.536
742.971, 882.963
743.453, 869.661
743.935, 838.836
744.417, 811.933
744.899, 793.583
745.381, 780.985
745.863, 771.328
746.346, 764.167
746.828, 758.680
747.310, 757.521
747.792, 754.895
748.274, 746.986
748.756, 735.524
749.238, 725.490
749.720, 725.772
750.203, 716.251
750.685, 691.724
751.167, 673.320
751.649, 672.442
752.131, 667.327
752.613, 658.205
753.095, 633.023
753.577, 628.610
754.059, 615.894
754.542, 602.852
755.024, 596.823
755.506, 600.428
755.988, 598.418
756.470, 592.583
756.952, 582.991
757.434, 569.823
757.916, 543.550
758.398, 523.653
758.881, 521.657
759.363, 540.102
759.845, 543.746
760.327, 529.371
760.809, 514.397
761.291, 513.720
761.773, 523.630
762.255, 533.852
762.737, 543.712
763.220, 554.558
763.702, 568.949
764.184, 583.959
764.666, 596.274
765.148, 602.497
765.630, 613.025
766.112, 621.593
766.594, 641.012
767.076, 686.424
767.559, 768.778
768.041, 831.637
768.523, 867.951
769.005, 893.066
769.487, 921.755
769.969, 955.760
770.451, 1002.386
770.933, 1067.508
771.416, 1133.192
771.898, 1180.418
772.380, 1219.704
772.862, 1266.599
773.344, 1324.653
773.826, 1391.901
774.308, 1472.886
774.790, 1560.758
775.273, 1644.452
775.755, 1721.871
776.237, 1804.371
776.719, 1894.271
777.201, 1989.438
777.683, 2083.234
778.165, 2176.916
778.647, 2274.150
779.130, 2380.328
779.612, 2486.673
780.094, 2583.341
780.576, 2673.430
781.058, 2765.770
781.540, 2874.827
782.022, 2971.882
782.504, 3046.102
782.986, 3103.247
783.468, 3168.587
783.951, 3246.554
784.433, 3315.094
784.915, 3365.053
785.397, 3402.654
785.879, 3449.146
786.361, 3500.013
786.843, 3530.417
787.325, 3520.829
787.807, 3489.496
788.290, 3446.866
788.772, 3393.977
789.254, 3332.006
789.736, 3246.391
790.218, 3168.259
790.700, 3113.305
791.182, 3078.006
791.664, 3023.883
792.146, 2948.376
792.629, 2864.506
793.111, 2775.889
793.593, 2684.762
794.075, 2593.672
794.557, 2503.506
795.039, 2414.459
795.521, 2321.937
796.003, 2237.050
796.486, 2171.341
796.968, 2127.394
797.450, 2075.501
797.932, 1998.698
798.414, 1929.313
798.896, 1886.430
799.378, 1870.786
799.860, 1837.222
800.343, 1783.456
800.825, 1731.631
801.307, 1700.021
801.789, 1681.274
802.271, 1659.228
802.753, 1632.779
803.235, 1616.293
803.717, 1625.384
804.200, 1641.518
804.682, 1650.761
805.164, 1648.130
805.646, 1653.766
806.128, 1672.617
806.610, 1692.479
807.092, 1702.075
807.574, 1702.001
808.056, 1713.880
808.539, 1738.665
809.021, 1768.478
809.503, 1792.544
809.985, 1818.747
810.467, 1859.830
810.949, 1919.529
811.431, 1978.409
811.913, 2021.470
812.395, 2065.652
812.878, 2124.176
813.360, 2201.192
813.842, 2278.498
814.324, 2355.573
814.806, 2434.433
815.288, 2515.803
815.770, 2600.431
816.252, 2697.441
816.734, 2808.254
817.217, 2923.715
817.699, 3038.735
818.181, 3152.324
818.663, 3264.667
819.145, 3372.035
819.627, 3490.798
820.109, 3622.749
820.591, 3768.097
821.073, 3930.861
821.556, 4114.877
822.038, 4290.547
822.520, 4454.401
823.002, 4616.400
823.484, 4791.039
823.966, 4971.848
824.448, 5146.685
824.930, 5313.207
825.413, 5480.472
825.895, 5659.163
826.377, 5838.110
826.859, 6010.979
827.341, 6184.800
827.823, 6328.418
828.305, 6433.534
828.787, 6517.333
829.269, 6591.189
829.752, 6656.082
830.234, 6721.828
830.716, 6792.385
831.198, 6847.362
831.680, 6856.823
832.162, 6842.558
832.644, 6833.560
833.127, 6835.831
833.609, 6841.394
834.091, 6854.414
834.573, 6864.658
835.055, 6861.985
835.537, 6835.314
836.019, 6830.374
836.501, 6850.805
836.983, 6882.594
837.466, 6911.820
837.948, 6940.167
838.430, 6967.057
838.912, 6990.305
839.394, 7037.132
839.876, 7151.013
840.358, 7285.094
840.840, 7394.574
841.322, 7460.986
841.805, 7530.969
842.287, 7601.750
842.769, 7683.391
843.251, 7785.958
843.733, 7910.362
844.215, 8029.172
844.697, 8139.963
845.179, 8258.412
845.661, 8406.356
846.144, 8569.799
846.626, 8723.391
847.108, 8859.723
847.590, 9018.794
848.072, 9237.906
848.554, 9471.156
849.036, 9683.336
849.518, 9866.365
850.000, 10067.003
850.483, 10283.480
850.965, 10523.367
851.447, 10798.124
851.929, 11101.849
852.411, 11418.512
852.893, 11748.554
853.375, 12087.792
853.857, 12407.391
854.340, 12753.276
854.822, 13174.701
855.304, 13689.993
855.786, 14203.483
856.268, 14683.119
856.750, 15178.813
857.232, 15721.144
857.714, 16304.592
858.196, 16890.959
858.679, 17481.609
859.161, 18095.658
859.643, 18782.654
860.125, 19485.848
860.607, 20140.805
861.089, 20749.318
861.571, 21396.004
862.054, 22158.469
862.536, 22928.367
863.018, 23674.021
863.500, 24391.541
863.982, 25056.875
864.464, 25662.904
864.946, 26244.246
865.428, 26842.846
865.910, 27416.977
866.393, 27891.344
866.875, 28262.074
867.357, 28532.260
867.839, 28744.559
868.321, 28811.330
868.803, 28673.008
869.285, 28325.736
869.767, 27871.131
870.249, 27303.289
870.732, 26633.098
871.214, 25856.543
871.696, 24983.664
872.178, 24005.027
872.660, 22940.109
873.142, 21925.809
873.624, 21021.100
874.106, 20194.191
874.588, 19432.719
875.071, 18729.791
875.553, 18043.586
876.035, 17339.641
876.517, 16687.652
876.999, 16117.398
877.481, 15604.244
877.963, 15080.476
878.445, 14546.383
878.927, 14027.264
879.410, 13543.564
879.892, 13070.735
880.374, 12579.020
880.856, 12077.784
881.338, 11585.582
881.820, 11112.342
882.302, 10643.467
882.784, 10170.029
883.266, 9705.140
883.749, 9271.593
884.231, 8870.756
884.713, 8495.853
885.195, 8149.383
885.677, 7815.768
886.159, 7459.038
886.641, 7097.623
887.123, 6761.939
887.606, 6464.020
888.088, 6182.931
888.570, 5906.049
889.052, 5646.958
889.534, 5422.245
890.016, 5244.721
890.498, 5064.135
890.980, 4875.325
891.463, 4687.339
891.945, 4506.390
892.427, 4335.008
892.909, 4178.307
893.391, 4036.849
893.873, 3898.211
894.355, 3747.919
894.837, 3596.828
895.320, 3454.612
895.802, 3320.417
896.284, 3200.407
896.766, 3102.056
897.248, 3001.734
897.730, 2878.853
898.212, 2739.451
898.694, 2599.988
899.176, 2462.568
899.659, 2339.359
900.141, 2252.242
900.623, 2174.595
901.105, 2084.235
901.587, 1980.469
902.069, 1887.111
902.551, 1808.652
903.033, 1735.521
903.515, 1666.369
903.998, 1598.981
904.480, 1523.398
904.962, 1440.458
905.444, 1362.380
905.926, 1295.301
906.408, 1236.659
906.890, 1188.801
907.372, 1147.377
907.854, 1098.960
908.337, 1026.046
908.819, 963.971
909.301, 926.502
909.783, 900.130
910.265, 849.953
910.747, 776.696
911.229, 718.661
911.711, 690.294
912.193, 670.810
912.676, 638.743
913.158, 598.061
913.640, 554.760
914.122, 501.691
914.604, 460.177
915.086, 437.609
915.568, 423.939
916.050, 410.852
916.533, 398.788
917.015, 378.769
917.497, 349.008
917.979, 317.221
918.461, 290.584
918.943, 267.189
919.425, 243.835
919.907, 219.256
920.390, 199.086
920.872, 186.287
921.354, 177.172
921.836, 170.546
922.318, 166.534
922.800, 161.796
923.282, 156.590
923.764, 147.304
924.247, 128.843
924.729, 106.380
925.211, 85.067
925.693, 65.751
926.175, 53.075
926.657, 58.992
927.139, 60.475
927.621, 45.779
928.103, 20.249
928.586, 4.193
929.068, 1.996
929.550, 1.995
930.032, 5.896
930.514, 15.011
930.996, 14.501
931.478, 7.489
931.960, 1.312
932.442, 3.271
932.925, 0.551
933.407, 13.370
933.889, 31.937
934.371, 49.041
934.853, 65.729
935.335, 68.978
935.817, 53.859
936.299, 37.824
936.781, 45.057
937.264, 63.873
937.746, 74.442
938.228, 69.682
938.710, 70.539
939.192, 92.825
939.674, 115.467
940.156, 124.854
940.638, 119.479
941.120, 115.621
941.603, 113.638
942.085, 109.669
942.567, 92.971
943.049, 77.006
943.531, 86.420
944.013, 117.966
944.495, 139.318
944.977, 131.690
945.460, 118.591
945.942, 104.987
946.424, 92.904
946.906, 93.670
947.388, 107.884
947.870, 118.098
948.352, 115.709
948.834, 109.517
949.317, 112.049
949.799, 118.995
950.281, 121.996
950.763, 110.217
951.245, 105.260
951.727, 116.018
952.209, 130.009
952.691, 129.973
953.173, 115.473
953.656, 106.722
954.138, 106.468
954.620, 110.156
955.102, 117.178
955.584, 123.562
956.066, 123.868
956.548, 116.127
957.030, 109.529
957.513, 107.501
957.995, 104.511
958.477, 95.503
958.959, 81.830
959.441, 82.609
959.923, 97.261
960.405, 108.996
960.887, 105.566
961.369, 96.016
961.852, 86.429
962.334, 77.510
962.816, 70.956
963.298, 64.518
963.780, 65.225
964.262, 77.936
964.744, 94.907
965.226, 99.134
965.708, 92.269
966.191, 82.833
966.673, 71.505
967.155, 62.649
967.637, 60.309
968.119, 62.128
968.601, 66.093
969.083, 77.689
969.565, 77.296
970.047, 60.121
970.530, 41.653
971.012, 35.109
971.494, 38.237
971.976, 45.394
972.458, 55.947
972.940, 61.581
973.422, 54.476
973.904, 43.482
974.386, 33.353
974.869, 24.196
975.351, 14.528
975.833, 3.037
976.315, 3.702
976.797, 1.343
977.279, 4.891
977.761, 5.428
978.244, 1.597
978.726, 3.102
979.208, 8.667
979.690, 12.992
980.172, 15.127
980.654, 15.709
981.136, 15.372
981.618, 13.993
982.100, 12.154
982.583, 9.654
983.065, 8.284
983.547, 11.541
984.029, 16.335
984.511, 17.432
984.993, 13.958
985.475, 13.385
985.957, 20.691
986.440, 28.512
986.922, 34.320
987.404, 38.265
987.886, 40.857
988.368, 42.157
988.850, 43.376
989.332, 44.938
989.814, 46.844
990.296, 47.955
990.779, 49.580
991.261, 54.708
991.743, 68.770
992.225, 77.983
992.707, 79.157
993.189, 78.315
993.671, 85.698
994.153, 98.609
994.635, 105.445
995.118, 104.050
995.600, 99.567
996.082, 90.512
996.564, 83.638
997.046, 86.793
997.528, 101.524
998.010, 105.755
998.492, 96.078
998.974, 88.703
999.457, 96.008
999.939, 109.163
1000.421, 106.426
1000.903, 92.907
1001.385, 85.288
1001.867, 99.017
1002.349, 110.421
1002.831, 111.924
1003.314, 106.735
1003.796, 96.978
1004.278, 81.751
1004.760, 75.761
1005.242, 82.586
1005.724, 91.003
1006.206, 88.671
1006.688, 81.529
1007.170, 77.122
1007.653, 77.513
1008.135, 74.453
1008.617, 63.145
1009.099, 54.473
1009.581, 55.264
1010.063, 63.180
1010.545, 66.556
1011.027, 65.818
1011.510, 63.049
1011.992, 59.074
1012.474, 53.676
1012.956, 44.116
1013.438, 33.506
1013.920, 29.381
1014.402, 34.689
1014.884, 38.562
1015.366, 40.432
1015.849, 38.406
1016.331, 24.581
1016.813, 6.774
1017.295, 2.633
1017.777, 16.851
1018.259, 26.264
1018.741, 12.934
1019.223, 1.418
1019.706, 6.956
1020.188, 27.512
1020.670, 32.340
1021.152, 21.364
1021.634, 10.753
1022.116, 9.146
1022.598, 11.453
1023.080, 13.434
1023.562, 15.497
1024.045, 18.470
1024.527, 23.231
1025.009, 27.999
1025.491, 33.420
1025.973, 37.205
1026.455, 35.242
1026.937, 29.196
1027.419, 25.057
1027.901, 23.744
1028.384, 22.390
1028.866, 16.541
1029.348, 12.496
1029.830, 16.016
1030.312, 26.007
1030.794, 30.233
1031.276, 27.626
1031.758, 29.371
1032.240, 46.265
1032.723, 62.163
1033.205, 45.603
1033.687, 13.242
1034.169, 3.172
1034.651, 20.889
1035.133, 41.549
1035.615, 56.598
1036.097, 65.370
1036.580, 63.808
1037.062, 54.289
1037.544, 54.843
1038.026, 66.497
1038.508, 72.951
1038.990, 51.084
1039.472, 30.278
1039.954, 36.167
1040.437, 64.464
1040.919, 78.161
1041.401, 74.129
1041.883, 69.648
1042.365, 69.856
1042.847, 72.559
1043.329, 77.385
1043.811, 81.417
1044.293, 78.245
1044.776, 59.601
1045.258, 48.930
1045.740, 53.916
1046.222, 63.982
1046.704, 73.832
1047.186, 83.033
1047.668, 83.493
1048.150, 75.731
1048.632, 67.409
1049.115, 62.974
1049.597, 60.420
1050.079, 58.943
1050.561, 58.314
1051.043, 57.184
1051.525, 54.164
1052.007, 56.831
1052.489, 68.918
1052.972, 80.484
1053.454, 73.123
1053.936, 57.557
1054.418, 54.253
1054.900, 70.711
1055.382, 78.518
1055.864, 60.174
1056.346, 43.303
1056.828, 42.378
1057.311, 54.339
1057.793, 60.595
1058.275, 61.734
1058.757, 62.144
1059.239, 66.780
1059.721, 68.417
1060.203, 57.360
1060.685, 42.079
1061.167, 38.305
1061.650, 51.253
1062.132, 58.299
1062.614, 57.212
1063.096, 53.308
1063.578, 48.369
1064.060, 45.777
1064.542, 54.497
1065.024, 74.124
1065.507, 83.690
1065.989, 63.941
1066.471, 50.667
1066.953, 55.934
1067.435, 72.297
1067.917, 79.421
1068.399, 79.278
1068.881, 81.644
1069.364, 91.801
1069.846, 98.822
1070.328, 89.799
1070.810, 78.956
1071.292, 81.824
1071.774, 102.472
1072.256, 107.268
1072.738, 94.428
1073.220, 81.461
1073.703, 81.566
1074.185, 87.660
1074.667, 94.489
1075.149, 100.415
1075.631, 100.463
1076.113, 87.194
1076.595, 78.811
1077.077, 79.470
1077.559, 82.323
1078.042, 75.668
1078.524, 63.967
1079.006, 60.651
1079.488, 67.879
1079.970, 75.053
1080.452, 80.873
1080.934, 80.695
1081.416, 69.529
1081.898, 50.872
1082.381, 44.321
1082.863, 49.540
1083.345, 53.320
1083.827, 50.290
1084.309, 45.107
1084.791, 42.406
1085.273, 39.656
1085.755, 32.627
1086.238, 16.759
1086.720, 10.185
1087.202, 15.240
1087.684, 21.076
1088.166, 18.733
1088.648, 12.063
1089.130, 6.376
1089.612, 2.282
1090.094, 1.641
1090.577, 10.609
1091.059, 15.774
1091.541, 14.367
1092.023, 8.597
1092.505, 1.017
1092.987, 12.599
1093.469, 15.353
1093.951, 6.956
1094.433, 1.505
1094.916, 12.736
1095.398, 25.561
1095.880, 30.859
1096.362, 29.158
1096.844, 22.173
1097.326, 9.658
1097.808, 0.926
1098.290, 7.851
1098.773, 9.676
1099.255, 1.001
1099.737, 15.105
1100.219, 19.905
1100.701, 8.235
1101.183, 0.528
1101.665, 2.729
1102.147, 3.609
1102.630, 4.553
1103.112, 3.784
1103.594, 5.231
1104.076, 19.657
1104.558, 29.249
1105.040, 27.157
1105.522, 23.317
1106.004, 18.311
1106.486, 13.975
1106.969, 13.539
1107.451, 16.224
1107.933, 18.628
1108.415, 20.354
1108.897, 21.075
1109.379, 17.343
1109.861, 15.778
1110.343, 22.852
1110.825, 35.072
1111.308, 38.065
1111.790, 31.621
1112.272, 24.283
1112.754, 17.423
1113.236, 13.758
1113.718, 20.288
1114.200, 28.873
1114.682, 28.799
1115.165, 15.725
1115.647, 12.590
1116.129, 21.831
1116.611, 31.151
1117.093, 34.764
1117.575, 33.137
1118.057, 23.462
1118.539, 9.470
1119.021, 0.066
1119.504, 0.508
1119.986, 1.292
1120.468, 6.323
1120.950, 10.968
1121.432, 9.913
1121.914, 5.644
1122.396, 6.696
1122.878, 12.846
1123.360, 17.461
1123.843, 13.341
1124.325, 12.078
1124.807, 20.524
1125.289, 32.191
1125.771, 33.583
1126.253, 25.640
1126.735, 14.704
1127.217, 0.628
1127.700, 6.489
1128.182, 8.736
1128.664, 27.346
1129.146, 35.252
1129.628, 33.187
1130.110, 27.265
1130.592, 17.008
1131.074, 12.032
1131.557, 18.465
1132.039, 26.811
1132.521, 27.534
1133.003, 23.511
1133.485, 17.644
1133.967, 8.205
1134.449, 4.348
1134.931, 6.888
1135.413, 11.349
1135.896, 16.899
1136.378, 21.083
1136.860, 17.103
1137.342, 8.622
1137.824, 5.469
1138.306, 16.424
1138.788, 24.676
1139.270, 30.048
1139.752, 30.556
1140.235, 19.351
1140.717, 2.992
1141.199, 0.742
1141.681, 8.033
1142.163, 16.222
1142.645, 19.198
1143.127, 19.041
1143.609, 15.219
1144.092, 9.966
1144.574, 7.266
1145.056, 6.952
1145.538, 9.095
1146.020, 14.030
1146.502, 18.006
1146.984, 18.173
1147.466, 17.077
1147.948, 15.446
1148.431, 13.882
1148.913, 18.245
1149.395, 27.721
1149.877, 28.291
1150.359, 10.908
1150.841, 6.721
1151.323, 11.004
1151.805, 9.290
1152.287, 9.494
1152.770, 12.434
1153.252, 9.385
1153.734, 0.302
1154.216, 6.044
1154.698, 3.004
1155.180, 14.293
1155.662, 15.970
1156.144, 11.120
1156.626, 5.199
1157.109, 2.202
1157.591, 7.955
1158.073, 12.025
1158.555, 13.458
1159.037, 10.764
1159.519, 5.526
1160.001, 3.448
1160.483, 13.816
1160.966, 14.985
1161.448, 2.000
1161.930, 12.024
1162.412, 10.126
1162.894, 5.026
1163.376, 7.956
1163.858, 15.066
1164.340, 19.744
1164.823, 21.414
1165.305, 22.503
1165.787, 23.184
1166.269, 24.052
1166.751, 25.676
1167.233, 26.943
1167.715, 24.022
1168.197, 19.204
1168.679, 19.617
1169.161, 28.509
1169.644, 31.612
1170.126, 15.883
1170.608, 3.636
1171.090, 6.875
1171.572, 19.227
1172.054, 16.970
1172.536, 4.184
1173.018, 3.656
1173.501, 1.121
1173.983, 6.491
1174.465, 9.727
1174.947, 9.707
1175.429, 2.533
1175.911, 9.840
1176.393, 4.548
1176.875, 15.218
1177.358, 29.904
1177.840, 26.769
1178.322, 18.977
1178.804, 8.842
1179.286, 0.658
1179.768, 6.476
1180.250, 8.557
1180.732, 6.335
1181.214, 0.041
1181.697, 4.906
1182.179, 5.757
1182.661, 3.572
1183.143, 5.500
1183.625, 15.346
1184.107, 13.890
1184.589, 0.526
1185.071, 9.993
1185.553, 16.315
1186.036, 17.733
1186.518, 11.240
1187.000, 1.667
1187.482, 10.651
1187.964, 22.794
1188.446, 23.599
1188.928, 11.777
1189.410, 5.772
1189.893, 10.085
1190.375, 15.346
1190.857, 12.793
1191.339, 7.076
1191.821, 1.181
1192.303, 4.383
1192.785, 5.914
1193.267, 2.844
1193.750, 1.265
1194.232, 3.876
1194.714, 6.212
1195.196, 1.379
1195.678, 4.920
1196.160, 5.418
1196.642, 1.244
1197.124, 3.808
1197.606, 1.345
1198.089, 1.890
1198.571, 11.909
1199.053, 21.837
1199.535, 19.465
1200.017, 10.451
1200.499, 1.985
1200.981, 6.341
1201.463, 8.368
1201.945, 3.212
1202.428, 3.060
1202.910, 6.666
1203.392, 9.579
1203.874, 16.563
1204.356, 24.041
1204.838, 24.468
1205.320, 13.685
1205.802, 4.392
1206.285, 3.459
1206.767, 8.621
1207.249, 9.506
1207.731, 7.563
1208.213, 2.473
1208.695, 3.932
1209.177, 6.285
1209.659, 3.302
1210.141, 1.675
1210.624, 9.062
1211.106, 15.272
1211.588, 15.472
1212.070, 13.650
1212.552, 16.828
1213.034, 23.076
1213.516, 20.731
1213.998, 3.258
1214.480, 4.451
1214.963, 2.614
1215.445, 13.219
1215.927, 16.622
1216.409, 15.311
1216.891, 10.539
1217.373, 3.165
1217.855, 0.124
1218.337, 1.949
1218.820, 5.330
1219.302, 10.339
1219.784, 12.320
1220.266, 1.122
1220.748, 13.629
1221.230, 20.010
1221.712, 16.503
1222.194, 10.905
1222.677, 1.709
1223.159, 1.731
1223.641, 5.643
1224.123, 13.574
1224.605, 4.789
1225.087, 9.171
1225.569, 11.819
1226.051, 1.420
1226.533, 3.457
1227.016, 9.012
1227.498, 20.335
1227.980, 25.248
1228.462, 25.393
1228.944, 20.522
1229.426, 13.218
1229.908, 6.197
1230.390, 0.960
1230.872, 1.133
1231.355, 7.139
1231.837, 14.274
1232.319, 15.541
1232.801, 13.826
1233.283, 11.041
1233.765, 8.182
1234.247, 6.829
1234.729, 7.341
1235.212, 7.739
1235.694, 7.932
1236.176, 9.711
1236.658, 17.098
1237.140, 22.908
1237.622, 12.771
1238.104, 1.221
1238.586, 3.170
1239.068, 35.381
1239.551, 46.442
1240.033, 34.869
1240.515, 18.381
1240.997, 4.533
1241.479, 4.876
1241.961, 6.556
1242.443, 3.338
1242.925, 0.405
1243.407, 5.450
1243.890, 4.005
1244.372, 4.345
1244.854, 10.211
1245.336, 6.033
1245.818, 2.572
1246.300, 17.331
1246.782, 31.029
1247.264, 29.285
1247.746, 10.196
1248.229, 0.323
1248.711, 1.103
1249.193, 5.200
1249.675, 8.522
1250.157, 12.447
1250.639, 0.148
1251.121, 19.833
1251.603, 31.760
1252.086, 36.290
1252.568, 11.521
1253.050, 24.643
1253.532, 22.584
1254.014, 28.038
1254.496, 26.964
1254.978, 20.270
1255.460, 11.367
1255.943, 8.573
1256.425, 10.991
1256.907, 10.799
1257.389, 7.228
1257.871, 3.352
1258.353, 3.322
1258.835, 3.810
1259.317, 9.060
1259.799, 25.682
1260.281, 27.006
1260.764, 16.782
1261.246, 11.122
1261.728, 11.925
1262.210, 12.929
1262.692, 11.097
1263.174, 8.868
1263.656, 6.037
1264.138, 4.591
1264.621, 11.415
1265.103, 21.894
1265.585, 21.904
1266.067, 9.429
1266.549, 1.033
1267.031, 4.573
1267.513, 9.585
1267.995, 14.404
1268.478, 17.756
1268.960, 14.776
1269.442, 10.286
1269.924, 15.256
1270.406, 32.102
1270.888, 42.388
1271.370, 42.036
1271.852, 39.499
1272.334, 36.485
1272.817, 33.891
1273.299, 36.522
1273.781, 38.426
1274.263, 27.904
1274.745, 2.662
1275.227, 7.152
1275.709, 3.253
1276.191, 11.980
1276.673, 13.289
1277.156, 8.498
1277.638, 9.620
1278.120, 27.065
1278.602, 26.121
1279.084, 6.211
1279.566, 10.623
1280.048, 24.645
1280.530, 33.697
1281.013, 36.831
1281.495, 36.134
1281.977, 32.797
1282.459, 27.000
1282.941, 16.892
1283.423, 4.020
1283.905, 0.658
1284.387, 6.035
1284.870, 9.272
1285.352, 5.540
1285.834, 3.827
1286.316, 12.640
1286.798, 20.209
1287.280, 22.121
1287.762, 18.905
1288.244, 16.476
1288.726, 15.027
1289.208, 15.570
1289.691, 19.074
1290.173, 22.133
1290.655, 25.292
1291.137, 25.288
1291.619, 19.278
1292.101, 9.590
1292.583, 0.511
1293.065, 6.380
1293.548, 6.424
1294.030, 2.339
1294.512, 0.000
##END=



