##NAMES=Guilleminite
##RRUFFID=R090007
##IDEAL CHEMISTRY=Ba(U^6+^O_2_)_3_(Se^4+^O_3_)_2_O_2_&#183;3H_2_O
##LOCALITY=Musonoi mine, Kolwezi, Katanga, Democratic Republic of the Congo
##OWNER=RRUFF
##SOURCE=William W. Pinch
##DESCRIPTION=Yellow transparent thin tabular crystals removed from the structure type specimen of Cooper & Hawthorne (1995) study
##STATUS=The identification of this mineral has been confirmed by single-crystal X-ray diffraction.
##URL=rruff.info/R090007
143.9634, 0.0000000E+00
144.4455, 1.4015000E-02
144.9277, 1.9646000E-02
145.4098, 0.2717130
145.8919, 0.5645220
146.3740, 0.9478230
146.8561, 1.265633
147.3382, 1.535751
147.8204, 1.845947
148.3025, 2.226280
148.7846, 2.705490
149.2667, 3.285622
149.7488, 3.920288
150.2309, 4.605888
150.7131, 5.294212
151.1952, 5.902855
151.6773, 6.376183
152.1594, 6.729515
152.6415, 7.071968
153.1236, 7.405159
153.6058, 7.612206
154.0879, 7.547089
154.5700, 7.497200
155.0521, 7.666382
155.5342, 7.957512
156.0163, 8.210609
156.4985, 8.649872
156.9806, 8.884743
157.4627, 8.548019
157.9448, 7.683815
158.4269, 6.694710
158.9090, 5.977867
159.3912, 5.671333
159.8733, 5.285255
160.3554, 4.741219
160.8375, 4.091621
161.3196, 3.339874
161.8017, 2.521271
162.2839, 1.717476
162.7660, 1.168503
163.2481, 1.103516
163.7302, 1.003288
164.2123, 0.7558210
164.6944, 0.4400100
165.1766, 0.1552810
165.6587, 4.4388000E-02
166.1408, 0.1665340
166.6229, 0.2670970
167.1050, 0.2576900
167.5871, 0.3214340
168.0693, 0.6049120
168.5514, 0.9905780
169.0335, 1.255501
169.5156, 1.249512
169.9977, 0.9827580
170.4798, 0.6630860
170.9620, 0.3007810
171.4441, 0.1105420
171.9262, 0.6386490
172.4083, 1.245186
172.8904, 1.756210
173.3725, 1.983589
173.8547, 1.982445
174.3368, 2.258141
174.8189, 2.983009
175.3010, 3.861763
175.7831, 4.657532
176.2652, 5.359428
176.7474, 6.075996
177.2295, 6.859131
177.7116, 7.720787
178.1937, 8.682587
178.6758, 9.932945
179.1579, 11.22205
179.6401, 12.12038
180.1222, 12.48231
180.6043, 12.86890
181.0864, 13.72581
181.5685, 14.83528
182.0506, 15.84393
182.5328, 16.52850
183.0149, 17.00105
183.4970, 17.61531
183.9791, 18.41015
184.4612, 19.30317
184.9433, 20.30408
185.4255, 21.35435
185.9076, 22.35415
186.3897, 23.20531
186.8718, 23.93424
187.3539, 24.80793
187.8360, 26.08575
188.3182, 27.23949
188.8003, 28.05750
189.2824, 28.63293
189.7645, 29.13350
190.2466, 29.62709
190.7287, 30.09301
191.2109, 31.12256
191.6930, 33.46076
192.1751, 35.64981
192.6572, 37.03948
193.1393, 37.83055
193.6214, 38.66235
194.1036, 40.10650
194.5857, 42.26628
195.0678, 44.25907
195.5499, 46.17315
196.0320, 47.89433
196.5141, 49.25448
196.9963, 50.32283
197.4784, 51.39162
197.9605, 52.74465
198.4426, 54.43972
198.9247, 55.94463
199.4068, 57.07341
199.8890, 58.17056
200.3711, 59.55413
200.8532, 61.21936
201.3353, 62.78568
201.8174, 64.04404
202.2995, 64.77576
202.7817, 65.51692
203.2638, 66.29460
203.7459, 67.08598
204.2280, 67.89182
204.7101, 68.71766
205.1922, 69.49357
205.6744, 70.13589
206.1565, 70.66887
206.6386, 71.19176
207.1207, 71.76579
207.6028, 72.32543
208.0849, 72.75408
208.5671, 73.01102
209.0492, 73.26108
209.5313, 73.62794
210.0134, 74.08507
210.4955, 74.59919
210.9776, 75.24352
211.4598, 75.92738
211.9419, 76.42683
212.4240, 76.65903
212.9061, 76.86655
213.3882, 77.25629
213.8703, 77.72501
214.3525, 78.07562
214.8346, 78.17368
215.3167, 78.07771
215.7988, 78.01360
216.2809, 78.08283
216.7630, 78.01390
217.2451, 77.59531
217.7273, 76.99076
218.2094, 76.50438
218.6915, 76.41355
219.1736, 76.59566
219.6557, 76.29217
220.1378, 75.11136
220.6200, 73.88403
221.1021, 72.97386
221.5842, 72.19397
222.0663, 71.20576
222.5484, 69.76393
223.0305, 67.91719
223.5127, 66.15740
223.9948, 64.89407
224.4769, 63.29204
224.9590, 60.98692
225.4411, 58.23437
225.9232, 55.47357
226.4054, 52.98719
226.8875, 50.76611
227.3696, 48.43824
227.8517, 45.87951
228.3338, 43.39506
228.8159, 41.07812
229.2981, 38.88153
229.7802, 36.71185
230.2623, 34.49078
230.7444, 32.23799
231.2265, 30.27975
231.7086, 28.66028
232.1908, 27.25363
232.6729, 26.15161
233.1550, 25.23674
233.6371, 24.28562
234.1192, 23.15281
234.6013, 21.87662
235.0835, 20.75363
235.5656, 19.64324
236.0477, 18.78925
236.5298, 18.39536
237.0119, 18.31413
237.4940, 18.22678
237.9762, 17.95349
238.4583, 17.54451
238.9404, 17.22320
239.4225, 17.11196
239.9046, 16.93483
240.3867, 16.49250
240.8689, 15.90549
241.3510, 15.47988
241.8331, 15.38349
242.3152, 15.53378
242.7973, 15.67788
243.2794, 15.85675
243.7616, 15.97071
244.2437, 15.98666
244.7258, 15.90750
245.2079, 15.70417
245.6900, 15.29185
246.1721, 14.83742
246.6543, 14.70994
247.1364, 15.06238
247.6185, 15.31799
248.1006, 15.05932
248.5827, 14.43658
249.0648, 14.01117
249.5470, 14.05159
250.0291, 14.26565
250.5112, 14.19113
250.9933, 13.76988
251.4754, 13.35802
251.9576, 13.19597
252.4397, 13.23880
252.9218, 13.24652
253.4039, 13.11319
253.8860, 12.96066
254.3681, 12.89753
254.8503, 12.91666
255.3324, 13.04396
255.8145, 13.38789
256.2966, 13.89252
256.7787, 14.24436
257.2608, 14.26077
257.7430, 14.27581
258.2251, 14.57856
258.7072, 15.13020
259.1893, 15.70493
259.6714, 16.14058
260.1535, 16.47044
260.6357, 16.89051
261.1178, 17.48755
261.5999, 18.08875
262.0820, 18.55522
262.5641, 18.93324
263.0462, 19.35418
263.5284, 19.94117
264.0105, 20.66064
264.4926, 21.23685
264.9747, 21.53208
265.4568, 21.88893
265.9389, 22.51670
266.4211, 23.31426
266.9032, 24.07430
267.3853, 24.66297
267.8674, 25.11931
268.3495, 25.60109
268.8316, 26.16618
269.3138, 26.66225
269.7959, 27.06415
270.2780, 27.36781
270.7601, 27.55660
271.2422, 27.60163
271.7243, 27.54716
272.2065, 27.54620
272.6886, 27.65199
273.1707, 27.72359
273.6528, 27.64499
274.1349, 27.54408
274.6170, 27.58354
275.0992, 27.84513
275.5813, 28.24271
276.0634, 28.59964
276.5455, 29.06966
277.0276, 29.17683
277.5097, 28.54687
277.9919, 27.73154
278.4740, 27.25516
278.9561, 27.30194
279.4382, 27.64936
279.9203, 27.88500
280.4024, 27.94621
280.8846, 28.02499
281.3667, 28.19241
281.8488, 28.35102
282.3309, 28.43641
282.8130, 28.43010
283.2951, 28.34514
283.7773, 28.23072
284.2594, 28.19509
284.7415, 27.83629
285.2236, 26.94756
285.7057, 25.93282
286.1878, 25.05753
286.6700, 24.33622
287.1521, 23.57117
287.6342, 22.50207
288.1163, 21.03307
288.5984, 19.66178
289.0805, 18.43625
289.5627, 17.26118
290.0448, 16.10361
290.5269, 14.95714
291.0090, 13.83041
291.4911, 12.72375
291.9732, 11.63508
292.4554, 10.62392
292.9375, 9.659035
293.4196, 8.796970
293.9017, 8.115940
294.3838, 7.555309
294.8659, 6.975670
295.3481, 6.262209
295.8302, 5.437040
296.3123, 4.845354
296.7944, 4.810192
297.2765, 4.670307
297.7586, 4.224968
298.2408, 3.609058
298.7229, 3.029049
299.2050, 2.600468
299.6871, 2.296158
300.1692, 2.017071
300.6513, 1.806435
301.1335, 1.571594
301.6156, 1.253351
302.0977, 0.9310680
302.5798, 0.7046890
303.0619, 0.6128270
303.5440, 0.5887320
304.0262, 0.4869120
304.5083, 0.2385580
304.9904, 1.2793000E-02
305.4725, 0.2095090
305.9546, 0.3976380
306.4367, 0.5348930
306.9189, 0.6139070
307.4010, 0.6258180
307.8831, 0.5370240
308.3652, 0.2310090
308.8473, 0.1439130
309.3294, 0.4383660
309.8116, 0.7829340
310.2937, 0.9967400
310.7758, 1.060537
311.2579, 1.033451
311.7400, 0.9614520
312.2221, 0.8285920
312.7043, 0.7689110
313.1864, 0.8357750
313.6685, 0.9120880
314.1506, 0.9755860
314.6327, 1.011990
315.1148, 0.9968360
315.5970, 0.9007110
316.0791, 0.7335910
316.5612, 0.6072250
317.0433, 0.5484200
317.5254, 0.4904440
318.0075, 0.4132390
318.4897, 0.3316900
318.9718, 0.2867930
319.4539, 0.3050080
319.9360, 0.3453140
320.4181, 0.2592560
320.9002, 0.1734180
321.3824, 0.4786510
321.8645, 0.5443760
322.3466, 0.4912150
322.8287, 0.4365840
323.3108, 0.4279040
323.7929, 0.4834980
324.2751, 0.6087150
324.7572, 0.9049630
325.2393, 1.090490
325.7214, 1.053610
326.2035, 1.005342
326.6856, 1.088310
327.1678, 1.315485
327.6499, 1.577301
328.1320, 1.750366
328.6141, 1.807281
329.0962, 1.912399
329.5783, 2.161507
330.0605, 2.362051
330.5426, 2.414001
331.0247, 2.344761
331.5068, 2.233641
331.9889, 2.132067
332.4710, 2.043371
332.9532, 2.024029
333.4353, 2.124054
333.9174, 2.243912
334.3995, 2.397093
334.8816, 2.550983
335.3637, 2.644993
335.8459, 2.644888
336.3280, 2.606052
336.8101, 2.698627
337.2922, 3.041641
337.7743, 3.346296
338.2564, 3.624683
338.7386, 3.841221
339.2206, 3.930311
339.7028, 3.887232
340.1849, 3.810614
340.6670, 3.854715
341.1491, 4.074158
341.6312, 4.280880
342.1133, 4.472914
342.5955, 4.654728
343.0776, 4.820238
343.5597, 4.975002
344.0418, 5.137520
344.5239, 5.329350
345.0060, 5.553505
345.4882, 5.753794
345.9703, 5.859663
346.4524, 6.012014
346.9345, 6.280159
347.4166, 6.619921
347.8987, 6.952034
348.3809, 7.226946
348.8630, 7.457230
349.3451, 7.689714
349.8272, 7.943945
350.3093, 8.171076
350.7914, 8.296906
351.2736, 8.424894
351.7557, 8.697559
352.2378, 9.162193
352.7199, 9.661026
353.2020, 9.904682
353.6841, 9.787937
354.1663, 9.723145
354.6484, 9.816467
355.1305, 9.929821
355.6126, 9.987316
356.0947, 9.980869
356.5768, 9.943886
357.0590, 9.916780
357.5411, 9.902950
358.0232, 9.837276
358.5053, 9.763744
358.9874, 9.576805
359.4695, 9.157822
359.9517, 8.600506
360.4338, 8.105082
360.9159, 7.817293
361.3980, 7.655884
361.8801, 7.348764
362.3622, 6.816656
362.8444, 6.300745
363.3265, 5.906404
363.8086, 5.555315
364.2907, 5.157204
364.7728, 4.677183
365.2549, 4.203104
365.7371, 3.890774
366.2192, 3.782349
366.7013, 3.556183
367.1834, 2.961603
367.6655, 2.323915
368.1476, 1.892012
368.6298, 1.681231
369.1119, 1.564669
369.5940, 1.499577
370.0761, 1.468637
370.5582, 1.359709
371.0403, 1.135262
371.5225, 0.8589340
372.0046, 0.5312810
372.4867, 0.1890950
372.9688, 7.7685997E-02
373.4509, 0.1819110
373.9330, 0.2131140
374.4152, 0.3218400
374.8973, 0.5234660
375.3794, 0.7163510
375.8615, 0.8652780
376.3436, 0.9636920
376.8257, 0.9961590
377.3079, 0.9359130
377.7900, 0.8877030
378.2721, 1.031937
378.7542, 1.257452
379.2363, 1.339619
379.7184, 1.024981
380.2006, 0.8009720
380.6827, 0.6628930
381.1648, 0.8562150
381.6469, 0.6216140
382.1290, 0.5534740
382.6111, 0.4830190
383.0933, 0.1713910
383.5754, 0.2984370
384.0575, 8.7590003E-03
384.5396, 0.1435850
385.0217, 0.3592890
385.5038, 0.3090590
385.9860, 0.7752690
386.4681, 1.253706
386.9502, 1.456085
387.4323, 1.455835
387.9144, 1.533323
388.3965, 1.845169
388.8787, 2.275066
389.3608, 2.495846
389.8429, 2.376373
390.3250, 2.365156
390.8071, 2.641661
391.2892, 3.037685
391.7714, 3.329550
392.2535, 3.470522
392.7356, 3.612810
393.2177, 3.955147
393.6998, 4.573530
394.1819, 4.997362
394.6641, 5.027945
395.1462, 5.064281
395.6283, 5.354862
396.1104, 5.848751
396.5925, 6.328983
397.0746, 6.644234
397.5568, 6.846081
398.0389, 7.245823
398.5210, 8.147934
399.0031, 8.879604
399.4852, 9.218983
399.9673, 9.419968
400.4495, 9.755394
400.9316, 10.31207
401.4137, 11.00665
401.8958, 11.72556
402.3779, 12.50130
402.8600, 13.20832
403.3422, 13.75449
403.8243, 14.32764
404.3064, 14.97500
404.7885, 15.72919
405.2706, 16.66299
405.7527, 17.86918
406.2349, 19.29623
406.7170, 20.45454
407.1991, 21.03028
407.6812, 21.77772
408.1633, 22.85639
408.6454, 24.18634
409.1276, 25.71382
409.6097, 27.41962
410.0918, 29.21059
410.5739, 30.93576
411.0560, 32.54864
411.5381, 34.30921
412.0203, 36.27445
412.5024, 38.39076
412.9845, 40.62662
413.4666, 42.97531
413.9487, 45.44757
414.4308, 48.01712
414.9130, 50.70416
415.3951, 53.59037
415.8772, 56.69256
416.3593, 59.95518
416.8414, 63.48491
417.3235, 67.11903
417.8057, 70.60892
418.2878, 73.80231
418.7699, 77.03085
419.2520, 80.69006
419.7341, 84.73795
420.2162, 88.74496
420.6984, 92.44478
421.1805, 96.21645
421.6626, 100.5977
422.1447, 105.6194
422.6268, 110.5155
423.1089, 114.9126
423.5911, 119.0651
424.0732, 123.3485
424.5553, 127.7854
425.0374, 132.2259
425.5195, 136.4436
426.0016, 140.5399
426.4838, 145.1160
426.9659, 150.8939
427.4480, 156.3739
427.9301, 160.6365
428.4122, 164.1167
428.8943, 167.7197
429.3765, 171.8149
429.8586, 176.0964
430.3407, 180.0478
430.8228, 183.6268
431.3049, 186.8922
431.7870, 189.9354
432.2692, 192.5867
432.7513, 194.7703
433.2334, 196.4446
433.7155, 197.5917
434.1976, 198.2226
434.6797, 198.3154
435.1619, 197.4605
435.6440, 195.5289
436.1261, 192.7154
436.6082, 188.8521
437.0903, 184.2018
437.5724, 178.9844
438.0546, 173.2934
438.5367, 167.1867
439.0188, 160.7021
439.5009, 153.7546
439.9830, 146.7724
440.4651, 139.5080
440.9473, 132.3909
441.4294, 125.5293
441.9115, 118.9860
442.3936, 112.8846
442.8757, 107.4546
443.3578, 102.4603
443.8400, 97.19073
444.3221, 91.32898
444.8042, 85.93726
445.2863, 81.61040
445.7684, 77.79364
446.2505, 74.07864
446.7327, 70.38434
447.2148, 66.84203
447.6969, 63.55266
448.1790, 60.52696
448.6611, 57.79696
449.1432, 55.40768
449.6254, 53.26298
450.1075, 51.32590
450.5896, 49.56719
451.0717, 47.91664
451.5538, 46.21062
452.0359, 44.71534
452.5181, 43.77505
453.0002, 43.33462
453.4823, 43.01151
453.9644, 42.64053
454.4465, 42.26219
454.9286, 41.96326
455.4108, 41.71352
455.8929, 41.62500
456.3750, 41.71507
456.8571, 41.96417
457.3392, 42.39640
457.8214, 43.00186
458.3035, 43.67418
458.7856, 44.31464
459.2677, 44.92562
459.7498, 45.69919
460.2319, 46.78661
460.7141, 47.82292
461.1962, 48.62999
461.6783, 49.35718
462.1604, 50.20385
462.6425, 51.24587
463.1246, 52.42146
463.6068, 53.61763
464.0889, 54.76335
464.5710, 56.08634
465.0531, 57.87287
465.5352, 59.56054
466.0173, 60.80299
466.4995, 61.72583
466.9816, 62.69450
467.4637, 63.96100
467.9458, 65.41910
468.4279, 66.76493
468.9100, 68.03294
469.3922, 69.12390
469.8743, 69.97585
470.3564, 70.65637
470.8385, 71.22431
471.3206, 71.68843
471.8027, 71.96857
472.2849, 71.99146
472.7670, 71.77547
473.2491, 71.39824
473.7312, 70.89272
474.2133, 70.15585
474.6954, 69.12184
475.1776, 67.78983
475.6597, 66.11086
476.1418, 63.88270
476.6239, 61.55315
477.1060, 59.48026
477.5881, 57.57404
478.0703, 55.49335
478.5524, 53.12380
479.0345, 50.61963
479.5166, 48.22818
479.9987, 45.98066
480.4808, 43.65933
480.9630, 41.07472
481.4451, 38.56982
481.9272, 36.45937
482.4093, 34.66030
482.8914, 32.84945
483.3735, 30.81007
483.8557, 28.65027
484.3378, 26.74481
484.8199, 25.26406
485.3020, 23.81732
485.7841, 22.33573
486.2662, 20.91058
486.7484, 19.61075
487.2305, 18.44006
487.7126, 17.37225
488.1947, 16.38577
488.6768, 15.47519
489.1589, 14.54487
489.6411, 13.50531
490.1232, 12.59110
490.6053, 11.93279
491.0874, 11.39094
491.5695, 10.82114
492.0516, 10.18578
492.5338, 9.503119
493.0159, 8.744696
493.4980, 7.929413
493.9801, 7.262615
494.4622, 6.800117
494.9443, 6.442606
495.4265, 6.158279
495.9086, 5.918732
496.3907, 5.647989
496.8728, 5.344013
497.3549, 4.986910
497.8370, 4.496082
498.3192, 3.924700
498.8013, 3.490103
499.2834, 3.298820
499.7655, 3.216982
500.2476, 3.021238
500.7297, 2.667242
501.2119, 2.357027
501.6940, 2.100075
502.1761, 1.892727
502.6582, 1.775366
503.1403, 1.710800
503.6224, 1.578640
504.1045, 1.294289
504.5866, 0.9163460
505.0688, 0.6539820
505.5509, 0.5526940
506.0330, 0.5037900
506.5151, 0.5737650
506.9972, 0.6338840
507.4793, 0.5694960
507.9615, 0.3889690
508.4436, 0.1983130
508.9257, 8.8655002E-02
509.4078, 4.4730999E-02
509.8899, 2.5257001E-02
510.3720, 0.1482090
510.8542, 0.2389950
511.3363, 0.2100140
511.8184, 0.1627500
512.3005, 0.2206400
512.7827, 0.4168530
513.2648, 0.5941220
513.7469, 0.6119190
514.2290, 0.5189590
514.7111, 0.4502510
515.1932, 0.4185390
515.6754, 0.4334950
516.1575, 0.5299430
516.6396, 0.6834960
517.1217, 0.7768340
517.6038, 0.7483140
518.0859, 0.7254730
518.5681, 0.7788730
519.0502, 0.8727910
519.5323, 0.9599320
520.0144, 1.026514
520.4965, 1.046425
520.9786, 0.9808750
521.4608, 0.8113140
521.9429, 0.6676620
522.4250, 0.5265880
522.9071, 0.4310040
523.3892, 0.4340170
523.8713, 0.4816420
524.3535, 0.4872230
524.8356, 0.4154280
525.3177, 0.3161070
525.7998, 0.2798750
526.2819, 0.3274770
526.7640, 0.3329070
527.2462, 0.2448860
527.7283, 0.1583670
528.2104, 0.1477720
528.6925, 0.1724070
529.1746, 0.1303640
529.6567, 5.3994998E-02
530.1389, 0.2727050
530.6210, 0.3753750
531.1031, 0.3679300
531.5852, 0.3483490
532.0673, 0.3296100
532.5494, 0.3322830
533.0316, 0.3744650
533.5137, 0.4529480
533.9958, 0.5954200
534.4779, 0.9024510
534.9600, 1.196920
535.4421, 1.325740
535.9243, 1.318585
536.4064, 1.281529
536.8885, 1.258045
537.3706, 1.269517
537.8527, 1.365873
538.3348, 1.609086
538.8170, 1.816630
539.2991, 1.984118
539.7812, 2.122521
540.2633, 2.210293
540.7454, 2.274353
541.2275, 2.379043
541.7097, 2.567348
542.1918, 2.808667
542.6739, 3.028634
543.1560, 3.232690
543.6381, 3.400911
544.1202, 3.485201
544.6024, 3.566144
545.0845, 3.704924
545.5666, 3.892425
546.0487, 4.065475
546.5308, 4.162832
547.0129, 4.242147
547.4951, 4.404188
547.9772, 4.646046
548.4593, 4.879845
548.9414, 5.064161
549.4235, 5.226733
549.9056, 5.411098
550.3878, 5.611677
550.8699, 5.846145
551.3520, 6.155952
551.8341, 6.472672
552.3162, 6.739481
552.7983, 6.957445
553.2805, 7.150074
553.7626, 7.329479
554.2447, 7.505156
554.7268, 7.708889
555.2089, 7.994217
555.6910, 8.207650
556.1732, 8.292258
556.6553, 8.361419
557.1374, 8.457243
557.6195, 8.597988
558.1016, 8.812178
558.5837, 9.134268
559.0659, 9.517349
559.5480, 9.861368
560.0301, 10.16642
560.5122, 10.41973
560.9943, 10.62953
561.4764, 10.77142
561.9586, 10.75722
562.4407, 10.60743
562.9228, 10.62449
563.4049, 11.06031
563.8870, 11.61929
564.3691, 12.02760
564.8513, 12.27987
565.3334, 12.37281
565.8155, 12.26948
566.2976, 12.11112
566.7797, 12.17729
567.2618, 12.62095
567.7440, 12.94004
568.2261, 13.11626
568.7082, 13.17853
569.1903, 13.06918
569.6724, 12.87004
570.1545, 12.74932
570.6367, 12.79727
571.1188, 12.93441
571.6009, 13.00018
572.0830, 12.98081
572.5651, 12.96372
573.0472, 12.91317
573.5294, 12.90811
574.0115, 13.06055
574.4936, 13.28850
574.9757, 13.37767
575.4578, 13.20737
575.9399, 12.91975
576.4221, 12.63366
576.9042, 12.35253
577.3863, 12.14893
577.8684, 12.08308
578.3505, 11.99484
578.8326, 11.66251
579.3148, 11.06675
579.7969, 10.63335
580.2790, 10.45253
580.7611, 10.35091
581.2432, 10.35326
581.7253, 10.34163
582.2075, 10.09020
582.6896, 9.538392
583.1717, 8.902933
583.6538, 8.484775
584.1359, 8.310673
584.6180, 8.119731
585.1002, 7.954959
585.5823, 7.725275
586.0643, 7.342472
586.5464, 6.900436
587.0286, 6.536119
587.5107, 6.296915
587.9928, 6.090298
588.4749, 5.816378
588.9570, 5.495151
589.4391, 5.200036
589.9213, 4.927489
590.4034, 4.738728
590.8855, 4.728714
591.3676, 4.828610
591.8497, 4.783103
592.3318, 4.525599
592.8140, 4.234687
593.2961, 3.937009
593.7782, 3.653675
594.2603, 3.412423
594.7424, 3.216599
595.2245, 3.045035
595.7067, 2.879834
596.1888, 2.732102
596.6709, 2.678732
597.1530, 2.863544
597.6351, 2.893155
598.1172, 2.577005
598.5994, 2.218736
599.0815, 2.048171
599.5636, 2.056776
600.0457, 2.077376
600.5278, 1.991341
601.0099, 1.858830
601.4921, 1.797634
601.9742, 1.808517
602.4563, 1.836196
602.9384, 1.887779
603.4205, 1.911506
603.9026, 1.796064
604.3848, 1.532953
604.8669, 1.362390
605.3490, 1.380389
605.8311, 1.440256
606.3132, 1.456896
606.7953, 1.440842
607.2775, 1.435804
607.7596, 1.459144
608.2417, 1.468790
608.7238, 1.382127
609.2059, 1.158101
609.6880, 1.040492
610.1702, 1.119295
610.6523, 1.210034
611.1344, 1.242661
611.6165, 1.251052
612.0986, 1.299511
612.5807, 1.413760
613.0629, 1.508172
613.5450, 1.489620
614.0271, 1.385883
614.5092, 1.277664
614.9913, 1.168674
615.4734, 1.087358
615.9556, 1.043862
616.4377, 1.043280
616.9198, 1.110877
617.4019, 1.328749
617.8840, 1.458255
618.3661, 1.386325
618.8483, 1.252600
619.3304, 1.163110
619.8125, 1.135245
620.2946, 1.160061
620.7767, 1.234137
621.2589, 1.344404
621.7410, 1.444545
622.2231, 1.519216
622.7052, 1.586706
623.1873, 1.670145
623.6694, 1.737854
624.1516, 1.766129
624.6337, 1.763623
625.1158, 1.755379
625.5979, 1.745730
626.0800, 1.751536
626.5621, 1.812204
627.0443, 1.895982
627.5264, 1.892675
628.0085, 1.770214
628.4906, 1.629588
628.9727, 1.571242
629.4548, 1.597160
629.9370, 1.607061
630.4191, 1.597188
630.9012, 1.582989
631.3833, 1.582911
631.8654, 1.564568
632.3475, 1.460771
632.8297, 1.289621
633.3118, 1.192938
633.7939, 1.328921
634.2760, 1.622437
634.7581, 1.748290
635.2402, 1.667999
635.7224, 1.568141
636.2045, 1.477212
636.6866, 1.417418
637.1687, 1.438765
637.6508, 1.533600
638.1329, 1.558866
638.6151, 1.406274
639.0972, 1.221707
639.5793, 1.121651
640.0614, 1.089015
640.5435, 1.063165
641.0256, 1.022549
641.5078, 1.013870
641.9899, 1.119853
642.4720, 1.373639
642.9541, 1.469628
643.4362, 1.241778
643.9183, 1.044242
644.4005, 0.9424810
644.8826, 0.9175490
645.3647, 0.9747380
645.8468, 1.104829
646.3289, 1.210651
646.8110, 1.198724
647.2932, 1.105545
647.7753, 1.004830
648.2574, 0.8966890
648.7395, 0.8382180
649.2216, 0.8723290
649.7037, 0.9479350
650.1859, 0.9832150
650.6680, 0.9864640
651.1501, 0.9180780
651.6322, 0.6560000
652.1143, 0.4374590
652.5964, 0.4410380
653.0786, 0.5794980
653.5607, 0.6955030
654.0428, 0.7268550
654.5249, 0.6885980
655.0070, 0.5704730
655.4891, 0.3662390
655.9713, 0.2600710
656.4534, 0.2895450
656.9355, 0.3440110
657.4176, 0.3916100
657.8997, 0.4263630
658.3818, 0.4361010
658.8640, 0.4158480
659.3461, 0.3961560
659.8282, 0.3941280
660.3103, 0.3978510
660.7924, 0.3893670
661.2745, 0.3726240
661.7567, 0.3726090
662.2388, 0.4032910
662.7209, 0.4424200
663.2030, 0.4459410
663.6851, 0.3992180
664.1672, 0.3660010
664.6494, 0.3763400
665.1315, 0.3674540
665.6136, 0.3019550
666.0957, 0.2107480
666.5778, 0.1406120
667.0599, 0.1041780
667.5421, 6.6949002E-02
668.0242, 2.5703000E-02
668.5063, 0.1352920
668.9884, 0.1510270
669.4705, 6.5004997E-02
669.9526, 1.4585000E-02
670.4348, 2.8736001E-02
670.9169, 2.2950000E-03
671.3990, 1.2656000E-02
671.8811, 1.1014000E-02
672.3632, 1.2297000E-02
672.8453, 2.1522000E-02
673.3275, 2.9119000E-02
673.8096, 2.2213001E-02
674.2917, 1.1973000E-02
674.7738, 1.8905999E-02
675.2559, 5.0446998E-02
675.7380, 9.0314999E-02
676.2202, 0.1109860
676.7023, 0.1178850
677.1844, 0.1646500
677.6665, 0.2615640
678.1486, 0.3708210
678.6307, 0.5103090
679.1129, 0.6269710
679.5950, 0.6133500
680.0771, 0.4343550
680.5592, 0.2842500
681.0413, 0.2189420
681.5234, 0.1923440
682.0056, 0.1702960
682.4877, 0.1584210
682.9698, 0.1922200
683.4519, 0.2856470
683.9340, 0.3735710
684.4161, 0.3475470
684.8983, 0.1962210
685.3804, 6.7217000E-02
685.8625, 3.4869999E-02
686.3446, 0.1184600
686.8267, 0.1919360
687.3088, 0.2474700
687.7910, 0.2528020
688.2731, 0.1950780
688.7552, 0.2010540
689.2373, 0.4109300
689.7194, 0.6510880
690.2015, 0.7093630
690.6837, 0.6268560
691.1658, 0.5718290
691.6479, 0.6171690
692.1300, 0.7171670
692.6121, 0.7994150
693.0942, 0.8528910
693.5764, 0.9480830
694.0585, 1.135878
694.5406, 1.295300
695.0227, 1.344006
695.5048, 1.379381
695.9869, 1.521355
696.4691, 1.780423
696.9512, 2.028615
697.4333, 2.142420
697.9154, 2.236332
698.3975, 2.503819
698.8796, 2.907387
699.3618, 3.243976
699.8439, 3.430258
700.3260, 3.593691
700.8081, 3.905354
701.2902, 4.383368
701.7723, 4.802999
702.2545, 5.024398
702.7366, 5.358076
703.2187, 5.922324
703.7008, 6.586107
704.1829, 7.243694
704.6650, 7.863998
705.1472, 8.460641
705.6293, 9.015882
706.1114, 9.566400
706.5935, 10.18044
707.0756, 10.85151
707.5577, 11.50940
708.0399, 12.12045
708.5220, 12.78066
709.0041, 13.61519
709.4862, 14.62134
709.9683, 15.55923
710.4504, 16.23693
710.9326, 17.12324
711.4147, 18.49027
711.8968, 19.95377
712.3789, 21.11778
712.8610, 22.02937
713.3431, 23.02484
713.8253, 24.31189
714.3074, 25.80099
714.7895, 27.41467
715.2716, 29.12337
715.7537, 30.76892
716.2358, 32.28085
716.7180, 33.84438
717.2001, 35.59330
717.6822, 37.51306
718.1643, 39.57749
718.6464, 41.66526
719.1285, 43.67152
719.6107, 45.95829
720.0928, 48.19407
720.5749, 50.38268
721.0570, 52.38166
721.5391, 54.62551
722.0212, 56.77097
722.5034, 58.91324
722.9855, 61.19130
723.4676, 63.21791
723.9497, 65.49409
724.4318, 67.67066
724.9139, 69.89256
725.3961, 71.94831
725.8782, 74.31185
726.3603, 76.24102
726.8424, 77.61880
727.3245, 78.89333
727.8066, 80.03511
728.2888, 81.13548
728.7709, 82.38068
729.2530, 83.57932
729.7351, 84.36015
730.2172, 84.60110
730.6993, 84.60194
731.1815, 84.79359
731.6636, 85.01402
732.1457, 84.52934
732.6278, 83.26686
733.1099, 82.06608
733.5920, 81.35351
734.0742, 80.76079
734.5563, 79.76680
735.0384, 78.34988
735.5205, 76.50297
736.0026, 73.96403
736.4847, 71.30690
736.9669, 68.70052
737.4490, 66.12310
737.9311, 63.51879
738.4132, 60.87782
738.8953, 58.18485
739.3774, 55.41286
739.8596, 52.57718
740.3417, 49.64262
740.8238, 46.61789
741.3059, 43.79590
741.7880, 41.30187
742.2701, 38.88168
742.7523, 36.25345
743.2344, 33.43979
743.7165, 30.95115
744.1986, 29.05648
744.6807, 27.09400
745.1628, 24.83041
745.6450, 22.59344
746.1271, 20.63291
746.6092, 18.93720
747.0913, 17.36920
747.5734, 15.87642
748.0555, 14.44854
748.5377, 13.08986
749.0198, 11.79901
749.5019, 10.59461
749.9840, 9.475124
750.4661, 8.428146
750.9482, 7.442694
751.4304, 6.520868
751.9125, 5.661839
752.3946, 4.905378
752.8767, 4.125319
753.3588, 3.235498
753.8409, 2.415051
754.3231, 1.717354
754.8052, 1.142979
755.2873, 0.7177030
755.7694, 0.4411050
756.2515, 0.1800210
756.7336, 0.2118820
757.2158, 0.6297760
757.6979, 0.8724880
758.1800, 0.9641080
758.6621, 1.065771
759.1442, 1.234640
759.6263, 1.413427
760.1085, 1.533415
760.5906, 1.594252
761.0727, 1.668537
761.5548, 1.861290
762.0369, 1.905222
762.5190, 1.698257
763.0012, 1.390480
763.4833, 1.046907
763.9654, 0.6964280
764.4475, 0.4040010
764.9296, 0.2294880
765.4117, 6.0377002E-02
765.8939, 0.1423530
766.3760, 0.4240670
766.8581, 0.8804530
767.3402, 1.517599
767.8223, 2.255089
768.3044, 3.039177
768.7866, 3.909742
769.2687, 4.986115
769.7508, 6.377611
770.2329, 7.566181
770.7150, 8.261719
771.1971, 9.149303
771.6793, 10.48371
772.1614, 12.20451
772.6435, 14.24988
773.1256, 16.61556
773.6077, 19.24183
774.0898, 22.04484
774.5720, 25.14285
775.0541, 28.62826
775.5362, 32.47713
776.0183, 36.57231
776.5004, 40.90767
776.9825, 45.82132
777.4647, 51.71484
777.9468, 58.46486
778.4289, 65.38890
778.9110, 72.53088
779.3931, 79.86618
779.8752, 87.43932
780.3574, 95.08913
780.8395, 102.5879
781.3216, 110.0306
781.8037, 117.5478
782.2858, 124.9905
782.7679, 132.7912
783.2501, 141.0832
783.7322, 149.7417
784.2143, 158.4412
784.6964, 167.4258
785.1785, 177.3153
785.6606, 188.4384
786.1428, 200.5078
786.6249, 213.2864
787.1070, 226.7324
787.5891, 240.7560
788.0712, 255.2844
788.5533, 270.1504
789.0355, 285.2010
789.5176, 300.6037
789.9997, 316.7590
790.4818, 334.1228
790.9639, 349.5975
791.4460, 364.4536
791.9282, 375.9223
792.4103, 383.9786
792.8924, 387.9977
793.3745, 387.3686
793.8566, 382.1581
794.3387, 373.0026
794.8209, 359.4709
795.3030, 343.2891
795.7851, 325.1837
796.2672, 305.8345
796.7493, 286.3630
797.2314, 267.0939
797.7136, 249.1505
798.1957, 233.1804
798.6778, 219.0492
799.1599, 206.6222
799.6420, 195.9241
800.1241, 186.8072
800.6063, 179.4948
801.0884, 173.3591
801.5705, 168.3439
802.0526, 164.2876
802.5347, 161.0677
803.0168, 158.6576
803.4990, 157.2084
803.9811, 156.8465
804.4632, 157.3820
804.9453, 158.9988
805.4274, 161.3008
805.9095, 163.7776
806.3917, 166.3081
806.8738, 169.0985
807.3559, 172.4311
807.8380, 175.8897
808.3201, 178.3257
808.8022, 179.8100
809.2844, 181.6857
809.7665, 184.1958
810.2486, 187.0032
810.7307, 189.7855
811.2128, 192.7337
811.6949, 196.4173
812.1771, 201.2277
812.6592, 205.9679
813.1413, 209.9007
813.6234, 214.5535
814.1055, 220.8001
814.5876, 228.0237
815.0698, 235.4492
815.5519, 242.8922
816.0340, 250.3610
816.5161, 257.8667
816.9982, 265.3455
817.4803, 273.3995
817.9625, 281.2593
818.4446, 287.2906
818.9267, 291.0093
819.4088, 291.7517
819.8909, 289.0077
820.3730, 282.8242
820.8552, 273.1632
821.3373, 259.6337
821.8194, 243.9336
822.3015, 225.4063
822.7836, 205.9586
823.2657, 186.1059
823.7479, 166.3414
824.2300, 147.9109
824.7121, 130.8438
825.1942, 115.2073
825.6763, 100.9896
826.1584, 88.33651
826.6406, 77.55862
827.1227, 68.31010
827.6048, 60.17986
828.0869, 53.03258
828.5690, 46.71026
829.0511, 41.11633
829.5333, 36.31012
830.0154, 32.55913
830.4975, 29.72877
830.9796, 27.16905
831.4617, 24.75261
831.9438, 22.64304
832.4260, 20.99184
832.9081, 19.67947
833.3902, 18.29930
833.8723, 16.67486
834.3544, 15.45034
834.8365, 14.91530
835.3187, 14.42775
835.8008, 13.80292
836.2829, 13.05032
836.7650, 12.14895
837.2471, 11.09702
837.7292, 10.03939
838.2114, 9.024174
838.6935, 8.009666
839.1756, 6.932783
839.6577, 5.858086
840.1398, 4.850426
840.6219, 3.933546
841.1041, 3.159323
841.5862, 2.576845
842.0683, 2.099646
842.5504, 1.557098
843.0325, 0.9754200
843.5146, 0.5540640
843.9968, 0.3288140
844.4789, 0.1178260
844.9610, 0.1841870
845.4431, 0.5082890
845.9252, 0.7481400
846.4073, 0.9382360
846.8895, 0.8646910
847.3716, 0.2978080
847.8537, 0.2287830
848.3358, 0.5548690
848.8179, 0.8299690
849.3000, 1.121843
849.7822, 1.471949
850.2643, 2.026987
850.7464, 2.936886
851.2285, 3.901079
851.7106, 4.765928
852.1927, 5.581001
852.6749, 6.383572
853.1570, 7.202528
853.6391, 8.064728
854.1212, 8.977329
854.6033, 9.998745
855.0854, 11.22116
855.5676, 12.62259
856.0497, 14.06395
856.5318, 15.53725
857.0139, 17.12563
857.4960, 18.85583
857.9781, 20.74260
858.4603, 22.82035
858.9424, 25.06334
859.4245, 27.25767
859.9066, 29.36264
860.3887, 31.48821
860.8708, 33.57240
861.3530, 35.76432
861.8351, 38.23260
862.3172, 40.83087
862.7993, 43.26875
863.2814, 45.47181
863.7635, 47.74961
864.2457, 50.38480
864.7278, 53.01821
865.2099, 55.35952
865.6920, 57.50224
866.1741, 59.56907
866.6563, 61.59722
867.1384, 63.57074
867.6205, 65.49926
868.1026, 67.32040
868.5847, 68.89226
869.0668, 70.23649
869.5490, 71.56828
870.0311, 72.93033
870.5132, 73.93125
870.9953, 74.35836
871.4774, 74.26575
871.9595, 73.75890
872.4417, 72.82523
872.9238, 71.53072
873.4059, 69.72621
873.8880, 67.78997
874.3701, 65.96862
874.8522, 63.96256
875.3344, 61.47096
875.8165, 58.53689
876.2986, 55.44425
876.7807, 52.04589
877.2628, 48.81935
877.7449, 45.98735
878.2271, 43.36202
878.7092, 40.85095
879.1913, 38.42921
879.6734, 36.07235
880.1555, 33.78287
880.6376, 31.59906
881.1198, 29.53800
881.6019, 27.64800
882.0840, 26.03102
882.5661, 24.66949
883.0482, 23.52270
883.5303, 22.57306
884.0125, 21.66576
884.4946, 20.67332
884.9767, 19.61618
885.4588, 18.55564
885.9409, 17.48503
886.4230, 16.44354
886.9052, 15.47272
887.3873, 14.42146
887.8694, 13.07399
888.3515, 11.69556
888.8336, 10.73603
889.3157, 10.25132
889.7979, 9.763153
890.2800, 9.183482
890.7621, 8.694107
891.2442, 8.414588
891.7263, 8.186820
892.2084, 7.909746
892.6906, 7.563157
893.1727, 7.120056
893.6548, 6.521975
894.1369, 6.000988
894.6190, 5.806412
895.1011, 5.704411
895.5833, 5.394182
896.0654, 4.946138
896.5475, 4.591642
897.0296, 4.398228
897.5117, 4.239496
897.9938, 3.992421
898.4760, 3.698866
898.9581, 3.485253
899.4402, 3.343124
899.9223, 3.143476
900.4044, 2.854470
900.8865, 2.621704
901.3687, 2.559486
901.8508, 2.561531
902.3329, 2.375765
902.8150, 1.920045
903.2971, 1.682723
903.7792, 1.850561
904.2614, 1.915182
904.7435, 1.691288
905.2256, 1.347349
905.7077, 0.9528060
906.1898, 0.5402140
906.6719, 0.3052680
907.1541, 0.4225650
907.6362, 0.4804610
908.1183, 0.3163300
908.6004, 0.1198260
909.0825, 2.4132000E-02
909.5646, 4.9080001E-03
910.0468, 4.6672001E-02
910.5289, 0.1202640
911.0110, 0.1899190
911.4931, 0.2109910
911.9752, 0.2331930
912.4573, 0.3468830
912.9395, 0.4933580
913.4216, 0.5295170
913.9037, 0.4547310
914.3858, 0.4093680
914.8679, 0.4808130
915.3500, 0.5984000
915.8321, 0.6390270
916.3142, 0.6131500
916.7963, 0.6053160
917.2784, 0.6181750
917.7606, 0.6461930
918.2427, 0.6951890
918.7248, 0.7308400
919.2069, 0.7139480
919.6890, 0.6504350
920.1711, 0.5907980
920.6533, 0.5328010
921.1354, 0.4815130
921.6175, 0.4170770
922.0996, 0.3862630
922.5817, 0.4627800
923.0638, 0.5666710
923.5460, 0.5751090
924.0281, 0.4761640
924.5102, 0.3623020
924.9923, 0.2063570
925.4744, 8.7113999E-02
925.9565, 6.7431003E-02
926.4387, 6.9871001E-02
926.9208, 1.1295000E-02
927.4029, 8.9635998E-02
927.8850, 0.1530540
928.3671, 0.1413650
928.8492, 0.1347120
929.3314, 0.2020050
929.8135, 0.2926700
930.2956, 0.3709240
930.7777, 0.4198090
931.2598, 0.3691830
931.7419, 0.2302360
932.2241, 0.1917210
932.7062, 0.4339240
933.1883, 0.7828370
933.6704, 0.9042150
934.1525, 0.8482810
934.6346, 0.8324750
935.1168, 0.8791140
935.5989, 0.9619590
936.0810, 1.075387
936.5631, 1.170795
937.0452, 1.159991
937.5273, 1.055439
938.0095, 1.116926
938.4916, 1.412001
938.9737, 1.589540
939.4558, 1.536034
939.9379, 1.453102
940.4200, 1.469315
940.9022, 1.561030
941.3843, 1.674701
941.8664, 1.833682
942.3485, 1.937609
942.8306, 1.908480
943.3127, 1.931013
943.7949, 2.080068
944.2770, 2.275812
944.7591, 2.482407
945.2412, 2.677027
945.7233, 2.780495
946.2054, 2.711411
946.6876, 2.688827
947.1697, 2.856421
947.6518, 3.037188
948.1339, 3.074241
948.6160, 3.045709
949.0981, 3.083324
949.5803, 3.211344
950.0624, 3.370938
950.5445, 3.564685
951.0266, 3.718054
951.5087, 3.701139
951.9908, 3.621307
952.4730, 3.676106
952.9551, 3.849179
953.4372, 4.006461
953.9193, 4.090785
954.4014, 4.122228
954.8835, 4.087349
955.3657, 4.035679
955.8478, 4.133047
956.3299, 4.357345
956.8120, 4.567782
957.2941, 4.737186
957.7762, 4.806250
958.2584, 4.722665
958.7405, 4.571811
959.2226, 4.531519
959.7047, 4.610557
960.1868, 4.665388
960.6689, 4.707364
961.1511, 4.664828
961.6332, 4.468863
962.1153, 4.285823
962.5974, 4.277470
963.0795, 4.403480
963.5616, 4.489712
964.0438, 4.533223
964.5259, 4.543543
965.0080, 4.490367
965.4901, 4.443201
965.9722, 4.441785
966.4543, 4.443532
966.9365, 4.397267
967.4186, 4.310571
967.9007, 4.238324
968.3828, 4.221466
968.8649, 4.164727
969.3470, 4.015608
969.8292, 3.859704
970.3113, 3.731472
970.7934, 3.635052
971.2755, 3.589241
971.7576, 3.598952
972.2397, 3.611581
972.7219, 3.608280
973.2040, 3.575913
973.6861, 3.520315
974.1682, 3.435107
974.6503, 3.262528
975.1324, 3.053043
975.6146, 2.950512
976.0967, 3.003147
976.5788, 3.073559
977.0609, 3.065227
977.5430, 2.994674
978.0251, 2.853994
978.5073, 2.672708
978.9894, 2.507967
979.4715, 2.374529
979.9536, 2.278323
980.4357, 2.217479
980.9178, 2.170653
981.4000, 2.126941
981.8821, 2.086082
982.3642, 2.008768
982.8463, 1.904834
983.3284, 1.845129
983.8105, 1.841706
984.2927, 1.834764
984.7748, 1.784006
985.2569, 1.709937
985.7390, 1.652234
986.2211, 1.608549
986.7032, 1.537926
987.1854, 1.431503
987.6675, 1.373638
988.1496, 1.400199
988.6317, 1.454805
989.1138, 1.488615
989.5959, 1.495884
990.0781, 1.470322
990.5602, 1.412054
991.0423, 1.365542
991.5244, 1.322942
992.0065, 1.285042
992.4886, 1.271230
992.9708, 1.247917
993.4529, 1.149805
993.9350, 0.9912930
994.4171, 0.9387540
994.8992, 1.093796
995.3813, 1.189452
995.8635, 1.207113
996.3456, 1.187885
996.8277, 1.119015
997.3098, 1.031905
997.7919, 0.9507740
998.2740, 0.8840800
998.7562, 0.8875330
999.2383, 1.104635
999.7204, 1.207759
1000.203, 0.9839060
1000.685, 0.7421290
1001.167, 0.7170780
1001.649, 0.8131920
1002.131, 0.8528820
1002.613, 0.8088670
1003.095, 0.7855680
1003.577, 0.8557050
1004.059, 0.9222940
1004.542, 0.9368540
1005.024, 0.9186280
1005.506, 0.8567580
1005.988, 0.7862500
1006.470, 0.7859880
1006.952, 0.8736050
1007.434, 0.9558810
1007.916, 0.9727600
1008.398, 0.9506340
1008.881, 0.8790910
1009.363, 0.8064710
1009.845, 0.8273240
1010.327, 0.9158360
1010.809, 0.9665890
1011.291, 0.9380600
1011.773, 0.8690940
1012.255, 0.7581610
1012.738, 0.6613740
1013.220, 0.7021040
1013.702, 0.8128530
1014.184, 0.8259270
1014.666, 0.7407790
1015.148, 0.6845270
1015.630, 0.7191110
1016.112, 0.7788470
1016.594, 0.7723150
1017.077, 0.7355690
1017.559, 0.7893740
1018.041, 0.9054270
1018.523, 0.9380210
1019.005, 0.8693820
1019.487, 0.8014730
1019.969, 0.7885430
1020.451, 0.7953260
1020.934, 0.7805770
1021.416, 0.7435960
1021.898, 0.6511230
1022.380, 0.5067930
1022.862, 0.4529000
1023.344, 0.5210190
1023.826, 0.5938710
1024.308, 0.5952730
1024.791, 0.5733960
1025.273, 0.6209090
1025.755, 0.7353190
1026.237, 0.8273750
1026.719, 0.9092550
1027.201, 0.8514320
1027.683, 0.5832800
1028.165, 0.3579300
1028.647, 0.3605080
1029.130, 0.4847550
1029.612, 0.4951010
1030.094, 0.3698860
1030.576, 0.3841500
1031.058, 0.5918130
1031.540, 0.7720630
1032.022, 0.9029270
1032.504, 0.9183380
1032.986, 0.7182290
1033.469, 0.4246060
1033.951, 0.3201630
1034.433, 0.4443290
1034.915, 0.4889770
1035.397, 0.3829570
1035.879, 0.3585410
1036.361, 0.5360690
1036.843, 0.7006760
1037.326, 0.6710940
1037.808, 0.5362080
1038.290, 0.5132420
1038.772, 0.6454840
1039.254, 0.6952710
1039.736, 0.6252990
1040.218, 0.5301920
1040.700, 0.3705650
1041.182, 0.2527980
1041.665, 0.2782920
1042.147, 0.3923670
1042.629, 0.4759580
1043.111, 0.5364820
1043.593, 0.5348780
1044.075, 0.3607200
1044.557, 0.2758080
1045.039, 0.4320090
1045.521, 0.5969820
1046.004, 0.6042990
1046.486, 0.5076740
1046.968, 0.4183850
1047.450, 0.3359840
1047.932, 0.3067770
1048.414, 0.3887940
1048.896, 0.4513120
1049.378, 0.4348790
1049.861, 0.4117610
1050.343, 0.4629840
1050.825, 0.5365840
1051.307, 0.5087800
1051.789, 0.3487090
1052.271, 0.2392690
1052.753, 0.2689240
1053.235, 0.2857220
1053.718, 0.2112090
1054.200, 0.1352980
1054.682, 0.1263230
1055.164, 0.1647850
1055.646, 0.2212830
1056.128, 0.2945070
1056.610, 0.3148320
1057.092, 0.2067690
1057.574, 0.1218750
1058.057, 0.1229500
1058.539, 0.1542530
1059.021, 0.1806490
1059.503, 0.2064810
1059.985, 0.2650970
1060.467, 0.3596520
1060.949, 0.3671270
1061.431, 0.1261630
1061.913, 4.3806002E-02
1062.396, 4.1531999E-02
1062.878, 0.1846050
1063.360, 0.2549260
1063.842, 0.2622260
1064.324, 0.2270330
1064.806, 0.1597770
1065.288, 0.1249900
1065.770, 0.1787250
1066.253, 0.2252620
1066.735, 0.2297660
1067.217, 0.2076440
1067.699, 0.1481420
1068.181, 8.1519000E-02
1068.663, 6.5398000E-02
1069.145, 9.8330997E-02
1069.627, 9.0538003E-02
1070.109, 5.3450000E-02
1070.592, 0.1399660
1071.074, 2.3910999E-02
1071.556, 0.1254590
1072.038, 0.2069370
1072.520, 0.2229180
1073.002, 0.1717510
1073.484, 6.9324002E-02
1073.966, 1.3175000E-02
1074.448, 5.4111000E-02
1074.931, 6.3266002E-02
1075.413, 3.7769999E-03
1075.895, 5.1022999E-02
1076.377, 3.6795001E-02
1076.859, 0.1601590
1077.341, 0.1780580
1077.823, 8.9363001E-02
1078.305, 1.8068001E-02
1078.788, 0.1362400
1079.270, 0.1931640
1079.752, 9.1383003E-02
1080.234, 1.0707000E-02
1080.716, 9.7840000E-03
1081.198, 8.1027001E-02
1081.680, 0.1248230
1082.162, 0.1309580
1082.644, 0.1076530
1083.127, 5.0967000E-02
1083.609, 2.4490000E-03
1084.091, 6.2204000E-02
1084.573, 8.4724002E-02
1085.055, 1.5882000E-02
1085.537, 0.1202600
1086.019, 7.3367998E-02
1086.501, 7.3822998E-02
1086.984, 0.1550630
1087.466, 0.1212940
1087.948, 8.6165003E-02
1088.430, 0.1345830
1088.912, 0.1485100
1089.394, 3.1280001E-03
1089.876, 0.1545110
1090.358, 0.1056400
1090.840, 5.0576001E-02
1091.323, 9.0631999E-02
1091.805, 3.1939998E-02
1092.287, 0.1416340
1092.769, 0.1857110
1093.251, 0.1936040
1093.733, 0.1230250
1094.215, 5.6437999E-02
1094.697, 8.5123003E-02
1095.179, 0.1698620
1095.662, 0.2525530
1096.144, 0.3202700
1096.626, 0.3463190
1097.108, 0.3119320
1097.590, 0.2526660
1098.072, 0.1071380
1098.554, 1.4601000E-02
1099.036, 0.1177450
1099.519, 0.2961020
1100.001, 0.3976140
1100.483, 0.4142810
1100.965, 0.4121630
1101.447, 0.3919130
1101.929, 0.3704890
1102.411, 0.3389840
1102.893, 0.3309950
1103.375, 0.3893000
1103.858, 0.4524680
1104.340, 0.4604740
1104.822, 0.4198850
1105.304, 0.3660380
1105.786, 0.2792510
1106.268, 0.2667130
1106.750, 0.4448900
1107.232, 0.5702580
1107.714, 0.5275670
1108.197, 0.4343760
1108.679, 0.3591650
1109.161, 0.3114070
1109.643, 0.3090990
1110.125, 0.3619380
1110.607, 0.3944850
1111.089, 0.3893380
1111.571, 0.3783910
1112.054, 0.3503050
1112.536, 0.3367330
1113.018, 0.3721450
1113.500, 0.4246040
1113.982, 0.4346900
1114.464, 0.4005670
1114.946, 0.4120850
1115.428, 0.5040740
1115.911, 0.5856660
1116.393, 0.6765350
1116.875, 0.7220860
1117.357, 0.6861240
1117.839, 0.6074140
1118.321, 0.5079600
1118.803, 0.3996840
1119.285, 0.3571710
1119.767, 0.4289770
1120.250, 0.4409790
1120.732, 0.3599280
1121.214, 0.2826310
1121.696, 0.2163980
1122.178, 0.2021580
1122.660, 0.3077330
1123.142, 0.4612450
1123.624, 0.4553610
1124.106, 0.2570270
1124.589, 0.1628160
1125.071, 0.2050610
1125.553, 0.2431200
1126.035, 0.2549870
1126.517, 0.2392940
1126.999, 0.1830730
1127.481, 0.1274550
1127.963, 0.1425280
1128.446, 0.2184870
1128.928, 0.2442250
1129.410, 0.2103450
1129.892, 0.2159510
1130.374, 0.2731770
1130.856, 0.2739460
1131.338, 0.1599630
1131.820, 4.8094001E-02
1132.302, 7.1280003E-02
1132.785, 0.1779870
1133.267, 0.2088300
1133.749, 0.1670270
1134.231, 0.1042490
1134.713, 2.2621000E-02
1135.195, 3.0614000E-02
1135.677, 3.9859999E-02
1136.159, 9.6399998E-03
1136.641, 6.1537001E-02
1137.124, 0.1363230
1137.606, 0.1465250
1138.088, 0.1082420
1138.570, 7.7921003E-02
1139.052, 5.6605998E-02
1139.534, 4.3512002E-02
1140.016, 4.1041002E-02
1140.498, 7.0214003E-02
1140.981, 0.1402010
1141.463, 0.2207690
1141.945, 0.3000410
1142.427, 0.3419890
1142.909, 0.2366770
1143.391, 6.7364998E-02
1143.873, 5.0097000E-02
1144.355, 0.1391560
1144.838, 0.1161480
1145.320, 5.7727002E-02
1145.802, 0.2034580
1146.284, 0.2011500
1146.766, 0.1362140
1147.248, 8.0546997E-02
1147.730, 2.0368000E-02
1148.212, 0.1029020
1148.694, 0.2242420
1149.177, 0.2169380
1149.659, 9.8430000E-02
1150.141, 2.3854000E-02
1150.623, 0.1165220
1151.105, 0.1324670
1151.587, 3.8954999E-02
1152.069, 0.1999440
1152.551, 0.1968240
1153.033, 0.1311970
1153.516, 9.8640002E-02
1153.998, 9.1003999E-02
1154.480, 6.3978001E-02
1154.962, 1.2127000E-02
1155.444, 1.3221000E-02
1155.926, 1.9242000E-02
1156.408, 6.2158000E-02
1156.890, 0.1305480
1157.373, 0.1651800
1157.855, 9.1232002E-02
1158.337, 2.9180001E-03
1158.819, 4.1163001E-02
1159.301, 0.1702960
1159.783, 0.1858960
1160.265, 1.0340000E-03
1160.747, 0.1085260
1161.229, 9.6175998E-02
1161.712, 3.4678999E-02
1162.194, 0.1036830
1162.676, 0.2370550
1163.158, 0.3212140
1163.640, 0.3589560
1164.122, 0.3464280
1164.604, 0.2813700
1165.086, 0.2479560
1165.568, 0.2675100
1166.051, 0.2479890
1166.533, 0.1593840
1167.015, 9.9317998E-02
1167.497, 0.1176350
1167.979, 0.1538170
1168.461, 0.1441200
1168.943, 0.1052700
1169.425, 8.6544000E-02
1169.908, 8.7766998E-02
1170.390, 0.1297890
1170.872, 0.2141950
1171.354, 0.2780800
1171.836, 0.3070720
1172.318, 0.2962320
1172.800, 0.2389580
1173.282, 0.1785630
1173.765, 0.1741310
1174.247, 0.2151690
1174.729, 0.3023590
1175.211, 0.4049530
1175.693, 0.3888620
1176.175, 0.2707160
1176.657, 0.1840540
1177.139, 0.1733620
1177.621, 0.2018160
1178.104, 0.2492650
1178.586, 0.2994560
1179.068, 0.3591420
1179.550, 0.3884120
1180.032, 0.2555740
1180.514, 8.8468999E-02
1180.996, 0.1680890
1181.478, 0.4479550
1181.960, 0.6278900
1182.443, 0.5966840
1182.925, 0.5175660
1183.407, 0.4799290
1183.889, 0.4308890
1184.371, 0.2839400
1184.853, 0.1638390
1185.335, 0.2462560
1185.817, 0.3963050
1186.300, 0.3519880
1186.782, 0.1187720
1187.264, 7.9910001E-03
1187.746, 0.1622160
1188.228, 0.2750810
1188.710, 0.2716370
1189.192, 0.2478700
1189.674, 0.2181950
1190.156, 0.2006960
1190.639, 0.2185930
1191.121, 0.2528670
1191.603, 0.2534690
1192.085, 0.2122880
1192.567, 0.2523030
1193.049, 0.4298030
1193.531, 0.5178230
1194.013, 0.4713840
1194.495, 0.3996600
1194.978, 0.3386190
1195.460, 0.2928150
1195.942, 0.2645300
1196.424, 0.2603130
1196.906, 0.3252480
1197.388, 0.4510960
1197.870, 0.4289840
1198.352, 0.2678860
1198.835, 0.1806130
1199.317, 0.2075000
1199.799, 0.2650950
1200.281, 0.3098710
1200.763, 0.3504740
1201.245, 0.4108350
1201.727, 0.4527860
1202.209, 0.3632140
1202.692, 0.2240820
1203.174, 0.2089140
1203.656, 0.2887820
1204.138, 0.3864850
1204.620, 0.4730530
1205.102, 0.5135540
1205.584, 0.4872490
1206.066, 0.4290530
1206.548, 0.2997020
1207.031, 0.2164080
1207.513, 0.3478560
1207.995, 0.5044890
1208.477, 0.4631510
1208.959, 0.2970510
1209.441, 0.1859300
1209.923, 0.1495070
1210.405, 0.1321130
1210.887, 0.1064560
1211.370, 0.1215600
1211.852, 0.2673920
1212.334, 0.3514690
1212.816, 0.2388940
1213.298, 8.3323002E-02
1213.780, 1.0012000E-02
1214.262, 3.7921000E-02
1214.744, 2.0098999E-02
1215.227, 0.1777140
1215.709, 0.2599470
1216.191, 0.2375890
1216.673, 0.2634770
1217.155, 0.3721210
1217.637, 0.4486810
1218.119, 0.4384720
1218.601, 0.3801910
1219.083, 0.3181680
1219.566, 0.2637810
1220.048, 0.2394580
1220.530, 0.2395840
1221.012, 0.2605760
1221.494, 0.2893720
1221.976, 0.2782860
1222.458, 0.2264600
1222.940, 0.1735790
1223.422, 0.1390300
1223.905, 0.1417010
1224.387, 0.2227630
1224.869, 0.3099240
1225.351, 0.3164460
1225.833, 0.2930200
1226.315, 0.3069780
1226.797, 0.3317450
1227.279, 0.3044520
1227.762, 0.2349160
1228.244, 0.1930040
1228.726, 0.1990390
1229.208, 0.2356320
1229.690, 0.3449460
1230.172, 0.4139160
1230.654, 0.3635390
1231.136, 0.3044260
1231.619, 0.3112900
1232.101, 0.3497150
1232.583, 0.3702650
1233.065, 0.3776030
1233.547, 0.4082090
1234.029, 0.4845690
1234.511, 0.5172260
1234.993, 0.5027460
1235.475, 0.4429320
1235.958, 0.3181300
1236.440, 0.2448690
1236.922, 0.2856380
1237.404, 0.4128640
1237.886, 0.5983930
1238.368, 0.7808160
1238.850, 0.7530080
1239.332, 0.5591620
1239.814, 0.3182720
1240.297, 8.4812999E-02
1240.779, 6.0091998E-02
1241.261, 0.2514910
1241.743, 0.4453750
1242.225, 0.5342860
1242.707, 0.5350640
1243.189, 0.3739880
1243.671, 0.2337280
1244.154, 0.3216420
1244.636, 0.4796160
1245.118, 0.5789590
1245.600, 0.5994770
1246.082, 0.4872110
1246.564, 0.2769880
1247.046, 0.1769820
1247.528, 0.2790810
1248.010, 0.3599380
1248.493, 0.3802940
1248.975, 0.3763930
1249.457, 0.3346460
1249.939, 0.3023730
1250.421, 0.2971170
1250.903, 0.3233640
1251.385, 0.3520050
1251.867, 0.3805540
1252.349, 0.4151970
1252.832, 0.4602620
1253.314, 0.4423770
1253.796, 0.3564230
1254.278, 0.3464320
1254.760, 0.4412770
1255.242, 0.4589560
1255.724, 0.2980890
1256.206, 0.1310780
1256.689, 0.1664110
1257.171, 0.2903330
1257.653, 0.3088480
1258.135, 0.2885980
1258.617, 0.3727660
1259.099, 0.4988060
1259.581, 0.5145750
1260.063, 0.4213470
1260.546, 0.3257620
1261.028, 0.2607810
1261.510, 0.2390400
1261.992, 0.3209170
1262.474, 0.3701620
1262.956, 0.2915480
1263.438, 0.2100600
1263.920, 0.2145680
1264.402, 0.2510240
1264.885, 0.2457400
1265.367, 0.2158790
1265.849, 0.2342260
1266.331, 0.1345590
1266.813, 0.2999210
1267.295, 0.3936050
1267.777, 0.4194670
1268.259, 0.1742990
1268.741, 0.2795790
1269.224, 0.2446930
1269.706, 0.2040930
1270.188, 0.3588250
1270.670, 0.1537450
1271.152, 0.3054870
1271.634, 0.3148790
1272.116, 0.3895200
1272.598, 0.3892130
1273.081, 0.3359010
1273.563, 0.2152110
1274.045, 0.1395140
1274.527, 0.1401840
1275.009, 0.1679010
1275.491, 0.2159240
1275.973, 0.2447720
1276.455, 0.2426850
1276.938, 0.2074840
1277.420, 8.9546002E-02
1277.902, 1.6961001E-02
1278.384, 2.6852001E-02
1278.866, 3.6454000E-02
1279.348, 0.1419990
1279.830, 0.2838720
1280.312, 0.3058260
1280.794, 0.1612570
1281.276, 8.2969002E-02
1281.759, 8.9749999E-02
1282.241, 8.8266999E-02
1282.723, 6.9156997E-02
1283.205, 6.9872998E-02
1283.687, 4.1772999E-02
1284.169, 9.0720002E-03
1284.651, 2.2218000E-02
1285.133, 5.0255001E-02
1285.616, 4.0238000E-02
1286.098, 0.0000000E+00
##END=



