##NAMES=Gunningite
##RRUFFID=R070571
##IDEAL CHEMISTRY=ZnSO_4_&#183;H_2_O
##LOCALITY=Rammelsberg, Goslar, Harz Mountains, Lower Saxony, Germany
##OWNER=RRUFF
##SOURCE=James Shigley
##DESCRIPTION=Fine white powder, with minor component of boyleite
##STATUS=The identification of this mineral has been confirmed by X-ray diffraction.
##URL=rruff.info/R070571
157.7414, 0.0000000E+00
158.2235, 13.73877
158.7056, 14.60889
159.1877, 30.32129
159.6698, 80.27783
160.1519, 73.73047
160.6341, 35.33740
161.1162, 5.794434
161.5983, 4.147949
162.0804, 20.89893
162.5625, 39.70508
163.0446, 25.26953
163.5268, 3.327148
164.0089, 9.935059
164.4910, 13.03857
164.9731, 64.04492
165.4552, 147.3145
165.9373, 294.8252
166.4195, 430.1890
166.9016, 533.2485
167.3837, 601.0869
167.8658, 616.8740
168.3479, 521.9888
168.8300, 388.5303
169.3122, 290.4165
169.7943, 282.1460
170.2764, 298.2915
170.7585, 291.7432
171.2406, 258.2568
171.7227, 243.7739
172.2049, 306.2432
172.6870, 408.3252
173.1691, 479.7778
173.6512, 455.4292
174.1333, 405.5278
174.6154, 392.1543
175.0976, 434.5361
175.5797, 481.6636
176.0618, 486.1157
176.5439, 454.5439
177.0260, 412.1836
177.5081, 358.4546
177.9903, 307.1729
178.4724, 281.4946
178.9545, 301.9155
179.4366, 336.1968
179.9187, 344.4604
180.4008, 327.4629
180.8830, 301.4346
181.3651, 279.2827
181.8472, 258.7217
182.3293, 234.0303
182.8114, 201.8589
183.2935, 164.2280
183.7757, 119.7842
184.2578, 65.76758
184.7399, 20.57617
185.2220, 17.71533
185.7041, 49.40283
186.1862, 73.25586
186.6684, 53.15234
187.1505, 6.334473
187.6326, 13.58887
188.1147, 8.443848
188.5968, 44.31543
189.0790, 40.89355
189.5611, 0.9233400
190.0432, 43.62842
190.5253, 59.72852
191.0074, 52.03174
191.4895, 35.30518
191.9717, 8.844727
192.4538, 22.86816
192.9359, 46.78467
193.4180, 61.70801
193.9001, 75.79834
194.3822, 98.90234
194.8644, 130.4521
195.3465, 162.2559
195.8286, 191.4819
196.3107, 218.5703
196.7928, 244.1729
197.2749, 264.2905
197.7571, 292.5571
198.2392, 354.8428
198.7213, 452.7881
199.2034, 555.4980
199.6855, 650.3169
200.1676, 737.9927
200.6498, 812.8579
201.1319, 869.1719
201.6140, 917.1523
202.0961, 982.7373
202.5782, 1068.102
203.0603, 1161.004
203.5425, 1255.183
204.0246, 1349.657
204.5067, 1448.209
204.9888, 1550.151
205.4709, 1656.354
205.9530, 1775.119
206.4352, 1911.790
206.9173, 2048.762
207.3994, 2168.025
207.8815, 2265.448
208.3636, 2365.865
208.8457, 2476.530
209.3279, 2597.619
209.8100, 2717.264
210.2921, 2834.256
210.7742, 2952.802
211.2563, 3079.792
211.7384, 3217.757
212.2206, 3359.286
212.7027, 3504.448
213.1848, 3656.752
213.6669, 3796.647
214.1490, 3921.151
214.6311, 4036.021
215.1133, 4154.833
215.5954, 4276.554
216.0775, 4402.196
216.5596, 4535.962
217.0417, 4684.693
217.5238, 4814.970
218.0060, 4926.650
218.4881, 5018.418
218.9702, 5077.414
219.4523, 5097.764
219.9344, 5097.723
220.4165, 5092.144
220.8987, 5090.409
221.3808, 5056.391
221.8629, 4977.771
222.3450, 4855.046
222.8271, 4735.567
223.3092, 4623.986
223.7914, 4510.904
224.2735, 4387.804
224.7556, 4251.046
225.2377, 4110.815
225.7198, 3966.711
226.2020, 3818.576
226.6841, 3676.325
227.1662, 3543.128
227.6483, 3416.184
228.1304, 3294.395
228.6125, 3175.207
229.0947, 3063.725
229.5768, 2963.251
230.0589, 2883.909
230.5410, 2787.013
231.0231, 2656.995
231.5052, 2514.665
231.9874, 2412.046
232.4695, 2373.256
232.9516, 2339.868
233.4337, 2282.004
233.9158, 2186.067
234.3979, 2095.665
234.8801, 2014.155
235.3622, 1940.489
235.8443, 1863.882
236.3264, 1785.231
236.8085, 1701.446
237.2906, 1608.091
237.7728, 1494.849
238.2549, 1392.611
238.7370, 1305.846
239.2191, 1234.946
239.7012, 1175.416
240.1833, 1141.396
240.6655, 1104.595
241.1476, 1034.803
241.6297, 906.1982
242.1118, 791.5049
242.5939, 709.4062
243.0760, 664.6714
243.5582, 609.6128
244.0403, 534.3521
244.5224, 456.4160
245.0045, 399.9434
245.4866, 377.2246
245.9688, 355.3877
246.4509, 323.4204
246.9330, 275.6431
247.4151, 239.2188
247.8972, 217.0195
248.3793, 203.8833
248.8615, 190.5239
249.3436, 174.3496
249.8257, 162.2632
250.3078, 155.8159
250.7899, 152.6816
251.2720, 161.6934
251.7542, 190.3965
252.2363, 229.4634
252.7184, 251.4058
253.2005, 246.9224
253.6826, 238.8042
254.1647, 237.2261
254.6469, 239.6685
255.1290, 254.9790
255.6111, 286.6362
256.0932, 331.6021
256.5753, 373.3350
257.0574, 403.6758
257.5396, 442.2642
258.0217, 506.1899
258.5038, 611.7314
258.9859, 703.3662
259.4680, 764.0684
259.9501, 799.8301
260.4323, 867.6182
260.9144, 981.0581
261.3965, 1107.129
261.8786, 1216.544
262.3607, 1299.534
262.8428, 1389.199
263.3250, 1493.432
263.8071, 1612.068
264.2892, 1723.690
264.7713, 1822.528
265.2534, 1923.505
265.7355, 2042.021
266.2177, 2183.271
266.6998, 2330.667
267.1819, 2484.220
267.6640, 2641.730
268.1461, 2790.875
268.6282, 2920.446
269.1104, 3052.580
269.5925, 3225.760
270.0746, 3454.725
270.5567, 3675.632
271.0388, 3861.887
271.5209, 4008.122
272.0031, 4168.540
272.4852, 4355.280
272.9673, 4541.821
273.4494, 4687.463
273.9315, 4786.490
274.4136, 4862.651
274.8958, 4936.742
275.3779, 5017.689
275.8600, 5010.968
276.3421, 4899.364
276.8242, 4722.887
277.3063, 4555.994
277.7885, 4402.408
278.2706, 4243.339
278.7527, 4068.015
279.2348, 3875.782
279.7169, 3659.843
280.1990, 3412.061
280.6812, 3153.474
281.1633, 2934.165
281.6454, 2755.741
282.1275, 2591.924
282.6096, 2425.266
283.0917, 2254.806
283.5739, 2099.149
284.0560, 1965.458
284.5381, 1847.949
285.0202, 1727.583
285.5023, 1601.855
285.9844, 1480.742
286.4666, 1370.314
286.9487, 1270.137
287.4308, 1183.407
287.9129, 1118.668
288.3950, 1065.008
288.8771, 988.6177
289.3593, 887.0718
289.8414, 788.9873
290.3235, 720.8452
290.8056, 680.0146
291.2877, 637.2202
291.7699, 581.7100
292.2520, 524.1841
292.7341, 494.3877
293.2162, 495.0933
293.6983, 501.5571
294.1805, 485.1680
294.6626, 447.1191
295.1447, 413.0190
295.6268, 389.8711
296.1089, 374.8589
296.5910, 362.5225
297.0732, 352.9058
297.5553, 342.7959
298.0374, 327.2139
298.5195, 308.3911
299.0016, 294.2119
299.4837, 290.3970
299.9659, 290.7080
300.4480, 283.1055
300.9301, 267.7031
301.4122, 252.0161
301.8943, 241.0835
302.3764, 234.8511
302.8586, 233.5342
303.3407, 240.1973
303.8228, 250.9209
304.3049, 260.5562
304.7870, 271.7778
305.2691, 278.5146
305.7513, 284.7207
306.2334, 289.5435
306.7155, 293.6313
307.1976, 284.6694
307.6797, 274.1401
308.1618, 269.6914
308.6440, 267.3804
309.1261, 278.0771
309.6082, 305.5146
310.0903, 342.8682
310.5724, 372.5947
311.0545, 393.5859
311.5367, 403.6943
312.0188, 396.3418
312.5009, 367.1064
312.9830, 339.4814
313.4651, 329.1748
313.9472, 329.0688
314.4294, 329.0244
314.9115, 327.4365
315.3936, 323.2246
315.8757, 316.1304
316.3578, 306.5698
316.8399, 294.1328
317.3221, 278.7241
317.8042, 260.1025
318.2863, 237.9849
318.7684, 206.7910
319.2505, 176.9082
319.7326, 150.9658
320.2148, 129.5962
320.6969, 121.1665
321.1790, 138.8823
321.6611, 165.4683
322.1432, 180.4722
322.6253, 174.2393
323.1075, 158.9150
323.5896, 133.5698
324.0717, 94.13623
324.5538, 68.54590
325.0359, 75.73730
325.5180, 95.98975
326.0002, 105.3423
326.4823, 93.65723
326.9644, 76.75098
327.4465, 56.75195
327.9286, 31.24121
328.4107, 14.89893
328.8929, 20.10498
329.3750, 31.85449
329.8571, 31.63086
330.3392, 8.125000
330.8213, 16.47803
331.3034, 41.05859
331.7856, 70.31494
332.2677, 79.87061
332.7498, 54.05859
333.2319, 16.60010
333.7140, 3.559570
334.1961, 4.409180
334.6783, 16.04053
335.1604, 28.03564
335.6425, 42.44238
336.1246, 45.61572
336.6067, 30.52539
337.0888, 10.50635
337.5710, 3.768555
338.0531, 18.07275
338.5352, 28.91016
339.0173, 29.70947
339.4994, 19.87354
339.9815, 5.638672
340.4637, 18.96338
340.9458, 39.15088
341.4279, 31.86621
341.9100, 11.42285
342.3921, 46.17383
342.8742, 59.02197
343.3564, 50.63818
343.8385, 34.21240
344.3206, 6.965820
344.8027, 20.42725
345.2848, 32.76709
345.7669, 29.66162
346.2491, 27.94678
346.7312, 34.18311
347.2133, 46.41455
347.6954, 55.89551
348.1775, 63.05811
348.6596, 65.61475
349.1418, 61.49463
349.6239, 50.66064
350.1060, 32.52002
350.5881, 8.701660
351.0702, 53.18262
351.5523, 43.04443
352.0345, 24.45557
352.5166, 97.71533
352.9987, 131.3135
353.4808, 133.3579
353.9629, 124.5439
354.4450, 106.0249
354.9272, 84.27393
355.4093, 66.53955
355.8914, 52.95459
356.3735, 44.72119
356.8556, 46.98096
357.3377, 54.46289
357.8199, 58.85840
358.3020, 51.82568
358.7841, 45.51221
359.2662, 56.29932
359.7483, 81.98535
360.2304, 97.70215
360.7126, 74.90527
361.1947, 40.52100
361.6768, 21.38867
362.1589, 32.63232
362.6410, 19.19678
363.1231, 47.70166
363.6053, 54.14209
364.0874, 27.47412
364.5695, 4.518555
365.0516, 9.087891
365.5337, 24.61230
366.0158, 23.22412
366.4980, 45.84131
366.9801, 0.8828130
367.4622, 1.311523
367.9443, 22.86133
368.4264, 1.458496
368.9085, 11.66895
369.3907, 18.89795
369.8728, 37.99268
370.3549, 79.47363
370.8370, 96.01904
371.3191, 92.68311
371.8012, 87.76465
372.2834, 83.15576
372.7655, 76.04004
373.2476, 64.77686
373.7297, 42.61670
374.2119, 29.60205
374.6940, 30.25098
375.1761, 39.68896
375.6582, 45.65576
376.1403, 50.20117
376.6224, 48.15381
377.1046, 33.79150
377.5867, 0.6767580
378.0688, 17.87305
378.5509, 13.66016
379.0330, 3.633789
379.5151, 19.00781
379.9973, 32.68848
380.4794, 42.72949
380.9615, 44.58301
381.4436, 37.87500
381.9257, 44.23926
382.4078, 67.04248
382.8900, 94.14160
383.3721, 107.4600
383.8542, 107.1919
384.3363, 106.2427
384.8184, 91.51855
385.3005, 137.2427
385.7827, 159.6577
386.2648, 159.9941
386.7469, 72.29150
387.2290, 98.24609
387.7111, 78.62354
388.1932, 57.01123
388.6754, 97.29785
389.1575, 19.10449
389.6396, 54.86426
390.1217, 43.70605
390.6038, 12.47510
391.0859, 2.431152
391.5681, 7.232910
392.0502, 9.310547
392.5323, 9.038086
393.0144, 8.328125
393.4965, 9.073242
393.9786, 10.29590
394.4608, 8.949707
394.9429, 3.391602
395.4250, 4.379883
395.9071, 11.89014
396.3892, 15.58203
396.8713, 22.98486
397.3535, 38.73779
397.8356, 61.57373
398.3177, 84.49902
398.7998, 105.2075
399.2819, 123.5386
399.7640, 137.7734
400.2462, 149.8218
400.7283, 155.3799
401.2104, 147.0537
401.6925, 132.3613
402.1746, 135.5312
402.6567, 188.3262
403.1389, 226.7207
403.6210, 221.2402
404.1031, 135.6143
404.5852, 86.83984
405.0673, 83.81445
405.5494, 113.2266
406.0316, 150.9238
406.5137, 201.0518
406.9958, 251.0303
407.4779, 295.7715
407.9600, 334.4688
408.4421, 372.6484
408.9243, 408.8828
409.4064, 449.0059
409.8885, 498.8193
410.3706, 555.4668
410.8527, 616.3662
411.3348, 677.0625
411.8170, 740.6816
412.2991, 826.5449
412.7812, 934.7275
413.2633, 1058.158
413.7454, 1188.091
414.2275, 1325.964
414.7097, 1476.474
415.1918, 1648.664
415.6739, 1829.130
416.1560, 2000.179
416.6381, 2161.274
417.1202, 2314.246
417.6024, 2440.952
418.0845, 2564.444
418.5666, 2720.396
419.0487, 2924.350
419.5308, 3153.592
420.0129, 3394.040
420.4951, 3649.608
420.9772, 3916.367
421.4593, 4180.770
421.9414, 4456.204
422.4235, 4757.349
422.9056, 5090.025
423.3878, 5435.650
423.8699, 5807.343
424.3520, 6184.433
424.8341, 6555.545
425.3162, 6943.676
425.7983, 7300.104
426.2805, 7617.388
426.7626, 7910.426
427.2447, 8111.404
427.7268, 8238.555
428.2089, 8269.069
428.6910, 8180.572
429.1732, 7958.129
429.6553, 7635.090
430.1374, 7200.417
430.6195, 6646.646
431.1016, 6094.820
431.5837, 5542.754
432.0659, 4995.479
432.5480, 4451.647
433.0301, 3904.626
433.5122, 3394.063
433.9943, 2920.592
434.4764, 2492.687
434.9586, 2135.414
435.4407, 1852.056
435.9228, 1617.848
436.4049, 1428.135
436.8870, 1278.484
437.3691, 1147.547
437.8513, 1034.851
438.3334, 932.7695
438.8155, 828.8936
439.2976, 723.9395
439.7797, 629.8027
440.2618, 548.0410
440.7440, 481.7285
441.2261, 442.2021
441.7082, 435.7754
442.1903, 426.3496
442.6724, 372.9502
443.1545, 297.8223
443.6367, 240.6592
444.1188, 231.9434
444.6009, 234.9170
445.0830, 231.2549
445.5651, 219.9805
446.0472, 203.7451
446.5294, 175.8457
447.0115, 146.8545
447.4936, 126.5918
447.9757, 122.9189
448.4578, 121.2627
448.9399, 120.6357
449.4221, 120.6309
449.9042, 116.0781
450.3863, 106.9717
450.8684, 93.83594
451.3505, 75.06738
451.8326, 38.63867
452.3148, 22.96387
452.7969, 41.12695
453.2790, 75.00879
453.7611, 78.55664
454.2432, 41.78027
454.7253, 4.759766
455.2075, 13.65430
455.6896, 12.69629
456.1717, 17.44727
456.6538, 29.78320
457.1360, 42.32617
457.6181, 44.97461
458.1002, 38.38574
458.5823, 29.73535
459.0644, 23.42090
459.5465, 16.02246
460.0287, 5.607422
460.5108, 40.63965
460.9929, 69.57910
461.4750, 67.05273
461.9571, 48.94238
462.4392, 42.37012
462.9214, 59.01172
463.4035, 82.44922
463.8856, 100.5439
464.3677, 114.4863
464.8498, 127.1436
465.3319, 140.0029
465.8141, 152.1162
466.2962, 162.1924
466.7783, 168.4629
467.2604, 177.0840
467.7425, 199.4912
468.2246, 223.1279
468.7068, 228.5420
469.1889, 179.5420
469.6710, 145.3008
470.1531, 149.1289
470.6352, 196.5400
471.1173, 233.8867
471.5995, 255.6582
472.0816, 272.8623
472.5637, 297.0107
473.0458, 334.6846
473.5279, 361.1729
474.0100, 368.1680
474.4922, 362.6191
474.9743, 372.9912
475.4564, 401.9043
475.9385, 434.5029
476.4206, 462.6006
476.9027, 486.1279
477.3849, 503.0010
477.8670, 509.7861
478.3491, 518.1484
478.8312, 545.8516
479.3133, 590.6299
479.7954, 640.8906
480.2776, 691.3154
480.7597, 744.2129
481.2418, 809.5859
481.7239, 888.2441
482.2060, 952.9375
482.6881, 959.2529
483.1703, 947.5889
483.6524, 969.1758
484.1345, 1068.354
484.6166, 1177.015
485.0987, 1266.449
485.5808, 1340.034
486.0630, 1414.078
486.5451, 1495.264
487.0272, 1575.928
487.5093, 1650.881
487.9914, 1706.244
488.4735, 1777.786
488.9557, 1873.848
489.4378, 1984.210
489.9199, 2092.354
490.4020, 2195.051
490.8841, 2298.489
491.3662, 2401.605
491.8484, 2502.104
492.3305, 2625.869
492.8126, 2779.587
493.2947, 2942.462
493.7768, 3095.188
494.2589, 3238.256
494.7411, 3387.228
495.2232, 3549.124
495.7053, 3716.668
496.1874, 3882.084
496.6695, 4044.496
497.1516, 4208.719
497.6338, 4380.311
498.1159, 4554.421
498.5980, 4724.551
499.0801, 4887.508
499.5622, 5053.784
500.0443, 5251.918
500.5265, 5459.030
501.0086, 5639.480
501.4907, 5766.871
501.9728, 5870.498
502.4549, 5971.143
502.9370, 6069.265
503.4192, 6127.985
503.9013, 6113.403
504.3834, 6068.929
504.8655, 6025.185
505.3476, 6011.305
505.8297, 5966.652
506.3119, 5890.303
506.7940, 5783.995
507.2761, 5647.210
507.7582, 5471.560
508.2403, 5269.963
508.7224, 5043.127
509.2046, 4791.615
509.6867, 4548.383
510.1688, 4309.864
510.6509, 4083.036
511.1330, 3880.886
511.6151, 3701.806
512.0973, 3526.549
512.5794, 3349.952
513.0615, 3175.971
513.5436, 2999.990
514.0258, 2824.056
514.5079, 2669.564
514.9900, 2561.979
515.4721, 2482.255
515.9542, 2402.666
516.4363, 2319.378
516.9185, 2232.969
517.4006, 2138.189
517.8827, 2040.768
518.3648, 1951.736
518.8469, 1881.460
519.3290, 1816.525
519.8112, 1748.526
520.2933, 1676.282
520.7754, 1613.441
521.2575, 1572.418
521.7396, 1537.924
522.2217, 1498.938
522.7039, 1447.453
523.1860, 1410.141
523.6681, 1387.109
524.1502, 1373.092
524.6323, 1361.496
525.1144, 1354.655
525.5966, 1352.584
526.0787, 1361.128
526.5608, 1380.087
527.0429, 1370.612
527.5250, 1323.708
528.0071, 1267.892
528.4893, 1245.082
528.9714, 1246.747
529.4535, 1238.295
529.9356, 1200.679
530.4177, 1156.696
530.8998, 1149.398
531.3820, 1168.755
531.8641, 1165.376
532.3462, 1076.291
532.8283, 971.3096
533.3104, 915.2510
533.7925, 933.4863
534.2747, 951.6445
534.7568, 942.2168
535.2389, 915.2324
535.7210, 884.4414
536.2031, 845.1846
536.6852, 809.7568
537.1674, 785.1221
537.6495, 770.2373
538.1316, 738.3643
538.6137, 670.7119
539.0958, 609.9785
539.5779, 590.8174
540.0601, 629.5752
540.5422, 628.0996
541.0243, 567.5420
541.5064, 484.0781
541.9885, 443.8555
542.4706, 446.6689
542.9528, 448.8730
543.4349, 434.0605
543.9170, 405.7637
544.3991, 367.8047
544.8812, 320.4180
545.3633, 276.9033
545.8455, 247.8447
546.3276, 229.4170
546.8097, 216.5078
547.2918, 208.4844
547.7739, 204.8857
548.2560, 206.9971
548.7382, 213.1514
549.2203, 219.7354
549.7024, 227.9053
550.1845, 233.6484
550.6666, 233.2090
551.1487, 224.1436
551.6309, 220.7344
552.1130, 227.4326
552.5951, 235.5420
553.0772, 239.3477
553.5593, 240.8945
554.0414, 230.5254
554.5236, 201.5732
555.0057, 164.2842
555.4878, 145.8887
555.9699, 148.2715
556.4520, 151.1826
556.9341, 146.2998
557.4163, 134.2422
557.8984, 115.6436
558.3805, 90.37598
558.8626, 62.59082
559.3447, 28.82227
559.8268, 3.712891
560.3090, 21.35352
560.7911, 14.51465
561.2732, 5.0781000E-02
561.7553, 18.62207
562.2374, 37.05371
562.7195, 42.98926
563.2017, 26.75293
563.6838, 1.464844
564.1659, 34.85938
564.6480, 93.58887
565.1301, 114.1338
565.6122, 65.83398
566.0944, 1.754883
566.5765, 46.40332
567.0586, 69.20508
567.5407, 64.00684
568.0228, 15.24219
568.5049, 54.71680
568.9871, 75.72754
569.4692, 43.47559
569.9513, 1.903320
570.4334, 49.33203
570.9155, 92.99219
571.3976, 104.0498
571.8798, 79.37305
572.3619, 47.23438
572.8440, 35.48535
573.3261, 34.88184
573.8082, 28.96875
574.2903, 7.274414
574.7725, 13.35254
575.2546, 20.06738
575.7367, 16.65625
576.2188, 14.34473
576.7009, 20.13867
577.1830, 24.66504
577.6652, 21.91699
578.1473, 8.124023
578.6294, 0.8564450
579.1115, 2.147461
579.5936, 3.042969
580.0757, 25.42578
580.5579, 81.84473
581.0400, 103.1934
581.5221, 70.64941
582.0042, 7.146484
582.4863, 30.91992
582.9684, 43.32715
583.4506, 41.37012
583.9327, 12.84180
584.4148, 24.53125
584.8969, 12.22168
585.3790, 51.97266
585.8611, 114.7344
586.3433, 134.4551
586.8254, 126.1768
587.3075, 108.6670
587.7896, 76.85645
588.2717, 53.38965
588.7538, 55.87012
589.2360, 74.55469
589.7181, 88.70117
590.2002, 84.50586
590.6823, 83.01953
591.1644, 93.72949
591.6465, 117.7676
592.1287, 133.8965
592.6108, 140.6826
593.0929, 141.9121
593.5750, 138.6240
594.0571, 129.5625
594.5392, 127.2324
595.0214, 135.8418
595.5035, 146.2510
595.9856, 138.3916
596.4677, 115.1836
596.9498, 99.70605
597.4319, 99.56641
597.9141, 114.3193
598.3962, 150.7227
598.8783, 205.8672
599.3604, 255.4258
599.8425, 289.2158
600.3246, 307.1074
600.8068, 303.9209
601.2889, 265.0576
601.7710, 240.9062
602.2531, 248.4277
602.7352, 278.0508
603.2173, 317.4824
603.6995, 381.0234
604.1816, 433.3428
604.6637, 463.6143
605.1458, 477.1797
605.6279, 504.6904
606.1100, 551.8955
606.5922, 594.9551
607.0743, 615.0967
607.5564, 615.3398
608.0385, 623.6270
608.5206, 638.7842
609.0027, 673.7773
609.4849, 755.0049
609.9670, 866.0420
610.4491, 965.7051
610.9312, 1033.515
611.4133, 1099.547
611.8954, 1187.232
612.3776, 1292.439
612.8597, 1406.930
613.3418, 1519.452
613.8239, 1645.100
614.3060, 1787.848
614.7881, 1946.634
615.2703, 2128.966
615.7524, 2334.650
616.2345, 2560.427
616.7166, 2809.649
617.1987, 3083.744
617.6808, 3362.199
618.1630, 3646.115
618.6451, 3934.615
619.1272, 4214.660
619.6093, 4489.765
620.0914, 4801.716
620.5735, 5189.937
621.0557, 5610.136
621.5378, 5994.452
622.0199, 6343.667
622.5020, 6690.155
622.9841, 7070.413
623.4662, 7458.277
623.9484, 7834.521
624.4305, 8209.089
624.9126, 8523.091
625.3947, 8750.862
625.8768, 8913.169
626.3589, 9029.423
626.8411, 9119.242
627.3232, 9149.217
627.8053, 9108.673
628.2874, 9005.684
628.7695, 8870.585
629.2516, 8704.448
629.7338, 8508.940
630.2159, 8291.989
630.6980, 8049.228
631.1801, 7745.229
631.6622, 7378.595
632.1443, 6975.061
632.6265, 6559.768
633.1086, 6127.199
633.5907, 5662.399
634.0728, 5143.440
634.5549, 4636.438
635.0370, 4173.718
635.5192, 3750.640
636.0013, 3359.528
636.4834, 2977.304
636.9655, 2645.041
637.4476, 2392.964
637.9297, 2209.656
638.4119, 2014.490
638.8940, 1791.052
639.3761, 1588.476
639.8582, 1431.076
640.3403, 1319.796
640.8224, 1217.075
641.3046, 1122.064
641.7867, 1038.335
642.2688, 970.8105
642.7509, 921.0459
643.2330, 885.0381
643.7151, 866.7012
644.1973, 845.4355
644.6794, 793.9150
645.1615, 722.0752
645.6436, 653.5234
646.1257, 591.1738
646.6078, 542.4854
647.0900, 512.0938
647.5721, 500.2373
648.0542, 503.2363
648.5363, 541.7637
649.0184, 578.1816
649.5005, 592.8760
649.9827, 574.7383
650.4648, 572.8223
650.9469, 590.3008
651.4290, 615.1504
651.9111, 635.2500
652.3932, 651.2988
652.8754, 668.7100
653.3575, 685.7021
653.8396, 708.2871
654.3217, 750.2207
654.8038, 806.5576
655.2859, 860.9551
655.7681, 910.5850
656.2502, 950.6660
656.7323, 969.5781
657.2144, 968.0127
657.6965, 983.6299
658.1786, 1041.178
658.6608, 1109.658
659.1429, 1170.829
659.6250, 1225.183
660.1071, 1272.149
660.5892, 1310.837
661.0714, 1344.407
661.5535, 1375.400
662.0356, 1403.655
662.5178, 1435.731
662.9999, 1475.560
663.4820, 1517.940
663.9641, 1555.224
664.4462, 1586.972
664.9283, 1611.770
665.4105, 1624.979
665.8926, 1633.662
666.3747, 1640.558
666.8568, 1647.083
667.3389, 1664.582
667.8210, 1720.495
668.3032, 1770.440
668.7853, 1786.237
669.2674, 1751.179
669.7495, 1708.271
670.2316, 1653.196
670.7137, 1593.135
671.1959, 1537.765
671.6780, 1489.877
672.1601, 1431.123
672.6422, 1352.692
673.1243, 1266.025
673.6064, 1204.179
674.0886, 1164.414
674.5707, 1117.361
675.0528, 1036.636
675.5349, 940.2148
676.0170, 845.7617
676.4991, 754.9277
676.9813, 677.2988
677.4634, 628.2471
677.9455, 587.1133
678.4276, 540.1787
678.9097, 481.0869
679.3918, 431.6143
679.8740, 401.4746
680.3561, 373.1963
680.8382, 325.2949
681.3203, 248.9443
681.8024, 195.8926
682.2845, 176.3516
682.7667, 177.3525
683.2488, 183.3877
683.7309, 191.8340
684.2130, 185.5547
684.6951, 142.8906
685.1772, 92.53516
685.6594, 70.08691
686.1415, 71.25195
686.6236, 76.14062
687.1057, 71.76465
687.5878, 70.14551
688.0699, 82.73926
688.5521, 116.8389
689.0342, 129.3799
689.5163, 103.3262
689.9984, 68.96875
690.4805, 46.45508
690.9626, 35.87402
691.4448, 37.82324
691.9269, 56.29492
692.4090, 78.46777
692.8911, 83.86621
693.3732, 75.26074
693.8553, 66.62305
694.3375, 62.35059
694.8196, 60.43652
695.3017, 59.77344
695.7838, 59.81641
696.2659, 58.79102
696.7480, 42.45117
697.2302, 36.81836
697.7123, 67.75781
698.1944, 137.8506
698.6765, 164.5752
699.1586, 114.8896
699.6407, 59.59668
700.1229, 36.88477
700.6050, 54.78223
701.0871, 51.81738
701.5692, 21.78613
702.0513, 8.242188
702.5334, 1.357422
703.0156, 37.64941
703.4977, 52.17773
703.9798, 28.67285
704.4619, 2.316406
704.9440, 11.29785
705.4261, 7.548828
705.9083, 7.839844
706.3904, 24.30176
706.8725, 39.34766
707.3546, 50.57520
707.8367, 56.14453
708.3188, 48.56934
708.8010, 18.71582
709.2831, 9.812500
709.7652, 29.63184
710.2473, 40.72852
710.7294, 42.06250
711.2115, 32.37305
711.6937, 23.75293
712.1758, 28.87598
712.6579, 41.58203
713.1400, 46.58789
713.6221, 40.91992
714.1042, 36.84766
714.5864, 42.89551
715.0685, 55.24414
715.5506, 69.75488
716.0327, 90.79785
716.5148, 105.8613
716.9969, 109.4150
717.4791, 105.9121
717.9612, 101.1387
718.4433, 92.86719
718.9254, 89.30664
719.4075, 95.02734
719.8896, 104.9795
720.3718, 102.9326
720.8539, 89.63672
721.3360, 74.63184
721.8181, 64.95605
722.3002, 56.37305
722.7823, 41.76953
723.2645, 22.11621
723.7466, 4.085938
724.2287, 11.94434
724.7108, 22.12109
725.1929, 22.02930
725.6750, 7.037109
726.1572, 3.540039
726.6393, 4.878906
727.1214, 5.347656
727.6035, 14.73730
728.0856, 36.84570
728.5677, 40.34570
729.0499, 17.18652
729.5320, 12.55176
730.0141, 13.37891
730.4962, 4.688477
730.9783, 6.433594
731.4604, 37.75195
731.9426, 76.81250
732.4247, 54.31934
732.9068, 7.085938
733.3889, 51.93359
733.8710, 53.54590
734.3531, 44.56445
734.8353, 31.71387
735.3174, 15.54297
735.7995, 5.391602
736.2816, 2.562500
736.7637, 5.514648
737.2458, 16.15527
737.7280, 33.18457
738.2101, 44.73242
738.6922, 50.94141
739.1743, 52.43750
739.6564, 43.82324
740.1385, 33.27930
740.6207, 33.67383
741.1028, 48.30566
741.5849, 66.16699
742.0670, 84.45801
742.5491, 101.8369
743.0313, 116.7451
743.5134, 137.8174
743.9955, 142.1074
744.4776, 117.2051
744.9597, 84.71582
745.4418, 81.84082
745.9240, 112.4746
746.4061, 133.0781
746.8882, 132.0605
747.3703, 116.3340
747.8524, 89.92285
748.3345, 57.36133
748.8167, 37.19824
749.2988, 40.17773
749.7809, 54.72754
750.2630, 83.69336
750.7451, 123.3271
751.2272, 146.2080
751.7094, 135.9414
752.1915, 113.9082
752.6736, 85.20996
753.1557, 49.19043
753.6378, 33.59473
754.1199, 42.66699
754.6021, 57.72754
755.0842, 71.54590
755.5663, 81.27539
756.0484, 67.18945
756.5305, 25.77344
757.0126, 7.925781
757.4948, 0.1865230
757.9769, 30.48242
758.4590, 62.90918
758.9411, 100.1650
759.4232, 122.3447
759.9053, 116.7236
760.3875, 95.83691
760.8696, 71.97168
761.3517, 35.66211
761.8338, 18.73926
762.3159, 32.02441
762.7980, 58.91406
763.2802, 66.23047
763.7623, 56.34668
764.2444, 55.31934
764.7265, 79.29004
765.2086, 106.8184
765.6907, 115.0459
766.1729, 109.5449
766.6550, 104.9307
767.1371, 112.6689
767.6192, 115.1348
768.1013, 98.03809
768.5834, 61.63379
769.0656, 48.32812
769.5477, 68.55859
770.0298, 94.85059
770.5119, 122.2646
770.9940, 147.1270
771.4761, 139.4102
771.9583, 98.37109
772.4404, 62.45801
772.9225, 72.15723
773.4046, 101.3115
773.8867, 110.0723
774.3688, 92.26660
774.8510, 75.57715
775.3331, 72.99414
775.8152, 77.73535
776.2973, 85.31152
776.7794, 100.5879
777.2615, 106.1357
777.7437, 97.49023
778.2258, 84.94043
778.7079, 79.52539
779.1900, 81.32520
779.6721, 86.43164
780.1542, 93.73340
780.6364, 105.6504
781.1185, 136.1240
781.6006, 172.0723
782.0827, 186.0771
782.5648, 146.4980
783.0469, 110.4023
783.5291, 113.1650
784.0112, 137.4297
784.4933, 143.6924
784.9754, 118.2285
785.4575, 93.46191
785.9396, 74.36035
786.4218, 61.17480
786.9039, 57.62500
787.3860, 63.35840
787.8681, 66.54688
788.3502, 58.41113
788.8323, 47.06250
789.3145, 48.79883
789.7966, 59.84180
790.2787, 64.17480
790.7608, 46.85547
791.2429, 24.72461
791.7250, 3.867188
792.2072, 15.76367
792.6893, 12.39160
793.1714, 31.74902
793.6535, 71.25000
794.1356, 77.72461
794.6177, 51.52148
795.0999, 44.03809
795.5820, 56.08887
796.0641, 71.74609
796.5462, 77.79102
797.0283, 77.94141
797.5104, 74.58691
797.9926, 66.10156
798.4747, 68.71094
798.9568, 117.0674
799.4389, 163.3594
799.9210, 164.4395
800.4031, 86.82422
800.8853, 32.06738
801.3674, 4.334961
801.8495, 6.383789
802.3316, 7.472656
802.8137, 0.6796880
803.2958, 6.333984
803.7780, 7.634766
804.2601, 7.546875
804.7422, 12.55469
805.2243, 17.83691
805.7064, 14.40137
806.1885, 14.21680
806.6707, 33.16211
807.1528, 21.37891
807.6349, 4.433594
808.1170, 12.40918
808.5991, 14.51074
809.0812, 19.79590
809.5634, 14.16113
810.0455, 65.80176
810.5276, 86.29688
811.0097, 78.97070
811.4918, 67.63574
811.9739, 61.93945
812.4561, 56.60742
812.9382, 41.66113
813.4203, 22.42969
813.9024, 13.95312
814.3845, 33.83105
814.8666, 51.24023
815.3488, 57.00781
815.8309, 53.99414
816.3130, 55.92871
816.7951, 67.33691
817.2772, 67.12012
817.7593, 36.52148
818.2415, 8.625000
818.7236, 15.22949
819.2057, 12.00195
819.6878, 39.02148
820.1699, 48.36328
820.6520, 46.49805
821.1342, 27.76660
821.6163, 5.955078
822.0984, 12.28516
822.5805, 58.54883
823.0626, 116.1699
823.5447, 122.0791
824.0269, 75.23438
824.5090, 33.51074
824.9911, 5.509766
825.4732, 26.16016
825.9553, 2.857422
826.4375, 53.04688
826.9196, 58.06738
827.4017, 14.36035
827.8839, 22.76367
828.3660, 17.14844
828.8481, 6.919922
829.3302, 33.46289
829.8123, 63.62695
830.2944, 87.19629
830.7766, 102.7246
831.2587, 114.2598
831.7408, 129.2637
832.2229, 146.9150
832.7050, 134.6650
833.1871, 86.43652
833.6693, 46.07617
834.1514, 64.25195
834.6335, 111.6162
835.1156, 150.1973
835.5977, 174.4131
836.0798, 185.3047
836.5620, 171.8262
837.0441, 152.1895
837.5262, 143.1699
838.0083, 150.1055
838.4904, 151.7832
838.9725, 145.7734
839.4547, 138.8564
839.9368, 140.9053
840.4189, 149.4766
840.9010, 154.6982
841.3831, 154.8447
841.8652, 151.7900
842.3474, 144.2197
842.8295, 135.5781
843.3116, 129.9473
843.7937, 131.3184
844.2758, 131.0596
844.7579, 124.8721
845.2401, 119.9580
845.7222, 130.6094
846.2043, 159.1992
846.6864, 163.2119
847.1685, 126.3506
847.6506, 91.28320
848.1328, 125.4678
848.6149, 201.1846
849.0970, 265.9902
849.5791, 311.2227
850.0612, 328.7920
850.5433, 288.9180
851.0255, 229.9297
851.5076, 214.7676
851.9897, 274.4727
852.4718, 304.4092
852.9539, 280.8672
853.4360, 237.2344
853.9182, 236.4648
854.4003, 269.8457
854.8824, 291.8496
855.3645, 283.9209
855.8466, 267.9199
856.3287, 262.0420
856.8109, 261.5625
857.2930, 258.2217
857.7751, 246.9883
858.2572, 236.4834
858.7393, 226.9004
859.2214, 219.2891
859.7036, 216.5293
860.1857, 219.4756
860.6678, 222.1426
861.1499, 223.1963
861.6320, 222.4062
862.1141, 217.4229
862.5963, 210.5879
863.0784, 207.0439
863.5605, 213.4131
864.0426, 217.6572
864.5247, 218.6025
865.0068, 215.5215
865.4890, 201.8291
865.9711, 166.0029
866.4532, 143.6035
866.9353, 144.1836
867.4174, 161.6523
867.8995, 183.8770
868.3817, 208.8770
868.8638, 228.2012
869.3459, 239.8115
869.8280, 242.9150
870.3101, 223.1807
870.7922, 195.5762
871.2744, 191.9053
871.7565, 248.9971
872.2386, 291.4609
872.7207, 302.5078
873.2028, 296.5371
873.6849, 311.5068
874.1671, 347.3271
874.6492, 365.4941
875.1313, 345.0918
875.6134, 315.3154
876.0955, 316.4814
876.5776, 337.0391
877.0598, 352.5703
877.5419, 355.9883
878.0240, 349.2549
878.5061, 321.9121
878.9882, 286.9111
879.4703, 271.1982
879.9525, 280.8516
880.4346, 288.7480
880.9167, 285.1084
881.3988, 279.7676
881.8809, 292.2617
882.3630, 317.0186
882.8452, 338.6904
883.3273, 348.3096
883.8094, 359.0615
884.2915, 374.0352
884.7736, 391.8408
885.2557, 411.7930
885.7379, 440.9736
886.2200, 452.1982
886.7021, 433.9512
887.1842, 404.9346
887.6663, 401.2275
888.1484, 420.2461
888.6306, 451.5000
889.1127, 501.8418
889.5948, 546.0693
890.0769, 557.8730
890.5590, 549.2783
891.0411, 543.1406
891.5233, 544.1895
892.0054, 554.4150
892.4875, 576.2832
892.9696, 600.2734
893.4517, 612.6875
893.9338, 615.8262
894.4160, 626.8408
894.8981, 649.9785
895.3802, 670.0068
895.8623, 669.4316
896.3444, 659.3281
896.8265, 657.0898
897.3087, 670.6387
897.7908, 689.2949
898.2729, 722.2910
898.7550, 753.1211
899.2371, 754.2686
899.7192, 715.9688
900.2014, 701.8496
900.6835, 725.2949
901.1656, 759.1650
901.6477, 767.5996
902.1298, 760.5176
902.6119, 758.0410
903.0941, 770.1689
903.5762, 775.2490
904.0583, 761.0049
904.5404, 736.1055
905.0225, 709.1787
905.5046, 676.8213
905.9868, 661.0518
906.4689, 664.1924
906.9510, 676.9092
907.4331, 695.2109
907.9152, 716.2627
908.3973, 725.9902
908.8795, 717.8750
909.3616, 701.8281
909.8437, 684.6582
910.3258, 668.5977
910.8079, 652.7031
911.2900, 634.1504
911.7722, 620.3271
912.2543, 613.6357
912.7364, 609.0020
913.2185, 601.6318
913.7006, 590.3672
914.1827, 575.3936
914.6649, 556.8711
915.1470, 535.1348
915.6291, 492.4102
916.1112, 459.7168
916.5933, 472.0342
917.0754, 551.4014
917.5576, 583.1309
918.0397, 542.4629
918.5218, 487.8242
919.0039, 452.9854
919.4860, 437.1279
919.9681, 429.8682
920.4503, 430.0059
920.9324, 424.1562
921.4145, 388.9072
921.8966, 353.3799
922.3787, 348.9727
922.8608, 377.6914
923.3430, 391.5625
923.8251, 384.9131
924.3072, 359.8770
924.7893, 303.9258
925.2714, 228.1367
925.7535, 213.7266
926.2357, 257.8857
926.7178, 298.3242
927.1999, 292.4834
927.6820, 268.6113
928.1641, 252.7803
928.6462, 243.1787
929.1284, 229.0488
929.6105, 193.5811
930.0926, 170.9736
930.5747, 174.4961
931.0568, 195.0098
931.5389, 203.3652
932.0211, 199.8213
932.5032, 185.0889
932.9853, 153.4463
933.4674, 118.6670
933.9495, 94.39844
934.4316, 78.81738
934.9138, 67.86914
935.3959, 53.07031
935.8780, 53.67676
936.3601, 81.00684
936.8422, 119.0322
937.3243, 139.5898
937.8065, 142.3574
938.2886, 134.7451
938.7707, 114.5977
939.2528, 94.52051
939.7349, 94.25293
940.2170, 101.9453
940.6992, 99.29102
941.1813, 72.47852
941.6634, 49.05371
942.1455, 33.46094
942.6276, 22.60449
943.1097, 13.68164
943.5919, 6.736328
944.0740, 2.083984
944.5561, 4.1992001E-02
945.0382, 0.6699220
945.5203, 0.4052730
946.0024, 1.866211
946.4846, 0.3964840
946.9667, 6.474609
947.4488, 5.902344
947.9309, 19.17773
948.4130, 38.88770
948.8951, 30.43555
949.3773, 8.380859
949.8594, 16.66895
950.3415, 7.528320
950.8236, 28.86621
951.3057, 6.321289
951.7878, 25.31348
952.2700, 18.17285
952.7521, 27.45605
953.2342, 59.11719
953.7163, 51.22852
954.1984, 37.29004
954.6805, 27.62988
955.1627, 21.50391
955.6448, 10.82520
956.1269, 4.342773
956.6090, 7.277344
957.0911, 21.70312
957.5732, 57.83105
958.0554, 77.72363
958.5375, 82.69824
959.0196, 76.64746
959.5017, 44.61035
959.9838, 22.16699
960.4659, 18.90820
960.9481, 26.41309
961.4302, 30.83203
961.9123, 31.62793
962.3944, 17.66895
962.8765, 18.75293
963.3586, 58.17383
963.8408, 80.00098
964.3229, 91.58691
964.8050, 103.7549
965.2871, 136.9209
965.7692, 138.5098
966.2513, 86.84180
966.7335, 28.00098
967.2156, 14.54199
967.6977, 42.09375
968.1798, 58.48242
968.6619, 58.19727
969.1440, 56.55664
969.6262, 71.26855
970.1083, 87.81934
970.5904, 90.98438
971.0725, 75.59473
971.5546, 64.20117
972.0367, 57.33887
972.5189, 55.31348
973.0010, 60.54980
973.4831, 70.90234
973.9652, 77.61426
974.4473, 79.89453
974.9294, 70.71484
975.4116, 25.33008
975.8937, 15.51660
976.3758, 12.63281
976.8579, 25.25098
977.3400, 38.35059
977.8221, 13.15918
978.3043, 10.55176
978.7864, 23.21191
979.2685, 25.88672
979.7506, 9.592773
980.2327, 16.09668
980.7148, 15.27637
981.1970, 50.74609
981.6791, 109.2031
982.1612, 110.0244
982.6433, 83.72070
983.1254, 77.58496
983.6075, 99.96387
984.0897, 123.5107
984.5718, 148.9150
985.0539, 167.9668
985.5360, 163.2383
986.0181, 146.6279
986.5002, 144.6660
986.9824, 163.9453
987.4645, 182.7334
987.9466, 189.2744
988.4287, 193.4951
988.9108, 201.5869
989.3929, 213.5811
989.8751, 225.4658
990.3572, 236.0459
990.8393, 254.0303
991.3215, 295.8076
991.8036, 341.4805
992.2857, 352.4248
992.7678, 336.4424
993.2499, 340.2988
993.7321, 395.1543
994.2142, 459.8789
994.6963, 529.8535
995.1784, 595.6924
995.6605, 622.6533
996.1426, 612.1152
996.6248, 618.0283
997.1069, 661.1455
997.5890, 722.8496
998.0711, 802.3672
998.5532, 882.5557
999.0353, 933.4805
999.5175, 910.3506
999.9996, 915.1426
1000.482, 954.2168
1000.964, 1018.516
1001.446, 1101.832
1001.928, 1203.592
1002.410, 1324.941
1002.892, 1468.164
1003.374, 1592.982
1003.857, 1644.420
1004.339, 1684.695
1004.821, 1762.941
1005.303, 1888.377
1005.785, 2017.709
1006.267, 2144.731
1006.749, 2293.766
1007.231, 2491.887
1007.713, 2716.756
1008.196, 2905.295
1008.678, 3068.953
1009.160, 3257.741
1009.642, 3509.133
1010.124, 3780.639
1010.606, 4052.937
1011.088, 4339.324
1011.570, 4669.654
1012.052, 5047.148
1012.535, 5465.769
1013.017, 5925.574
1013.499, 6422.537
1013.981, 6936.342
1014.463, 7487.511
1014.945, 8121.453
1015.427, 8869.765
1015.909, 9624.410
1016.392, 10329.33
1016.874, 11076.77
1017.356, 11934.41
1017.838, 12892.50
1018.320, 13887.35
1018.802, 14918.37
1019.284, 15978.81
1019.766, 17064.64
1020.248, 18192.83
1020.731, 19396.41
1021.213, 20660.31
1021.695, 21931.25
1022.177, 23227.86
1022.659, 24480.13
1023.141, 25661.68
1023.623, 26793.96
1024.105, 27937.23
1024.588, 29075.04
1025.070, 30130.69
1025.552, 31063.94
1026.034, 31945.41
1026.516, 32876.25
1026.998, 33724.52
1027.480, 34341.88
1027.962, 34703.34
1028.444, 34985.77
1028.927, 35212.26
1029.409, 35269.38
1029.891, 35016.51
1030.373, 34547.45
1030.855, 33986.42
1031.337, 33350.40
1031.819, 32539.68
1032.301, 31450.48
1032.783, 30274.15
1033.266, 29077.44
1033.748, 27844.32
1034.230, 26516.52
1034.712, 25097.28
1035.194, 23666.63
1035.676, 22237.19
1036.158, 20812.72
1036.640, 19366.24
1037.123, 17932.89
1037.605, 16582.75
1038.087, 15343.11
1038.569, 14138.42
1039.051, 12969.36
1039.533, 11840.19
1040.015, 10776.67
1040.497, 9777.117
1040.979, 8879.664
1041.462, 8085.449
1041.944, 7339.563
1042.426, 6593.746
1042.908, 5912.699
1043.390, 5324.555
1043.872, 4831.086
1044.354, 4348.796
1044.836, 3880.520
1045.318, 3464.748
1045.801, 3136.113
1046.283, 2851.447
1046.765, 2562.249
1047.247, 2284.684
1047.729, 2052.254
1048.211, 1890.258
1048.693, 1724.083
1049.175, 1539.771
1049.658, 1361.533
1050.140, 1225.410
1050.622, 1119.508
1051.104, 1004.820
1051.586, 870.2041
1052.068, 765.7510
1052.550, 743.6201
1053.032, 736.1904
1053.515, 702.2021
1053.997, 642.1357
1054.479, 564.1006
1054.961, 466.7783
1055.443, 399.0283
1055.925, 404.9014
1056.407, 439.8555
1056.889, 457.2520
1057.371, 463.6768
1057.854, 475.8799
1058.336, 499.7354
1058.818, 525.7119
1059.300, 551.7949
1059.782, 581.0020
1060.264, 618.2852
1060.746, 662.1240
1061.228, 707.5654
1061.710, 753.1719
1062.193, 803.6123
1062.675, 851.5479
1063.157, 915.0889
1063.639, 1002.809
1064.121, 1114.621
1064.603, 1278.780
1065.085, 1504.013
1065.567, 1682.000
1066.050, 1719.838
1066.532, 1715.138
1067.014, 1767.118
1067.496, 1865.613
1067.978, 1987.772
1068.460, 2137.583
1068.942, 2299.152
1069.424, 2473.091
1069.906, 2651.667
1070.389, 2827.492
1070.871, 3000.123
1071.353, 3176.203
1071.835, 3357.669
1072.317, 3531.174
1072.799, 3691.544
1073.281, 3841.643
1073.763, 3983.189
1074.246, 4117.441
1074.728, 4271.529
1075.210, 4446.033
1075.692, 4607.891
1076.174, 4737.381
1076.656, 4853.814
1077.138, 4981.857
1077.620, 5112.473
1078.103, 5225.168
1078.585, 5308.305
1079.067, 5380.588
1079.549, 5442.174
1080.031, 5495.975
1080.513, 5552.797
1080.995, 5602.615
1081.477, 5610.993
1081.959, 5575.768
1082.442, 5546.647
1082.924, 5573.199
1083.406, 5585.118
1083.888, 5547.441
1084.370, 5473.401
1084.852, 5411.542
1085.334, 5360.500
1085.816, 5313.619
1086.298, 5275.152
1086.781, 5239.000
1087.263, 5203.484
1087.745, 5163.968
1088.227, 5113.479
1088.709, 5039.693
1089.191, 4979.186
1089.673, 4932.964
1090.155, 4891.379
1090.638, 4857.203
1091.120, 4817.482
1091.602, 4741.897
1092.084, 4633.963
1092.566, 4529.506
1093.048, 4425.583
1093.530, 4344.545
1094.012, 4304.312
1094.495, 4283.358
1094.977, 4220.582
1095.459, 4122.922
1095.941, 4050.554
1096.423, 4030.402
1096.905, 4001.574
1097.387, 3905.749
1097.869, 3793.223
1098.351, 3707.375
1098.833, 3648.229
1099.316, 3591.713
1099.798, 3540.559
1100.280, 3491.824
1100.762, 3448.898
1101.244, 3402.332
1101.726, 3339.674
1102.208, 3264.066
1102.690, 3184.513
1103.173, 3080.738
1103.655, 3010.869
1104.137, 2996.746
1104.619, 2992.647
1105.101, 2940.547
1105.583, 2848.853
1106.065, 2729.236
1106.547, 2580.979
1107.030, 2463.286
1107.512, 2435.195
1107.994, 2411.023
1108.476, 2353.482
1108.958, 2263.585
1109.440, 2143.585
1109.922, 1997.794
1110.404, 1869.923
1110.886, 1785.149
1111.369, 1713.509
1111.851, 1639.353
1112.333, 1563.409
1112.815, 1489.447
1113.297, 1422.835
1113.779, 1328.578
1114.261, 1198.570
1114.743, 1090.197
1115.225, 1085.603
1115.708, 1112.604
1116.190, 1072.249
1116.672, 970.1504
1117.154, 880.4961
1117.636, 829.2061
1118.118, 769.7002
1118.600, 687.0371
1119.082, 600.5664
1119.565, 552.1689
1120.047, 529.0332
1120.529, 495.6377
1121.011, 439.6436
1121.493, 393.5000
1121.975, 376.4355
1122.457, 368.6914
1122.939, 363.4854
1123.422, 359.0977
1123.904, 334.1475
1124.386, 290.5254
1124.868, 249.2217
1125.350, 215.9219
1125.832, 193.5205
1126.314, 202.8535
1126.796, 217.1016
1127.278, 185.8740
1127.760, 92.21191
1128.243, 37.28320
1128.725, 32.15820
1129.207, 38.61621
1129.689, 19.42578
1130.171, 5.731445
1130.653, 14.70801
1131.135, 6.998047
1131.617, 0.6611330
1132.100, 11.55957
1132.582, 8.757813
1133.064, 18.68359
1133.546, 50.89062
1134.028, 47.10645
1134.510, 24.58984
1134.992, 20.78516
1135.474, 56.53809
1135.957, 72.25488
1136.439, 39.86914
1136.921, 6.218750
1137.403, 0.2568360
1137.885, 16.29199
1138.367, 27.43262
1138.849, 34.06152
1139.331, 38.53711
1139.813, 42.14941
1140.296, 43.54297
1140.778, 37.73926
1141.260, 31.92773
1141.742, 40.12500
1142.224, 62.82910
1142.706, 52.54980
1143.188, 3.104492
1143.670, 30.76953
1144.152, 11.41699
1144.635, 69.99023
1145.117, 102.3223
1145.599, 108.6699
1146.081, 110.8701
1146.563, 109.1934
1147.045, 100.4912
1147.527, 81.64941
1148.009, 62.29004
1148.492, 52.42383
1148.974, 50.01660
1149.456, 55.20801
1149.938, 75.26172
1150.420, 72.60938
1150.902, 37.97070
1151.384, 6.729492
1151.866, 4.739258
1152.349, 15.54102
1152.831, 0.1777340
1153.313, 29.87207
1153.795, 43.27539
1154.277, 14.38477
1154.759, 12.55176
1155.241, 40.69824
1155.723, 51.83301
1156.205, 13.31836
1156.688, 57.56055
1157.170, 105.1367
1157.652, 126.5820
1158.134, 133.0684
1158.616, 123.1904
1159.098, 105.0547
1159.580, 71.17871
1160.062, 38.43750
1160.544, 60.58105
1161.027, 126.0762
1161.509, 147.3994
1161.991, 97.02051
1162.473, 52.00000
1162.955, 70.19238
1163.437, 107.1572
1163.919, 136.7871
1164.401, 157.7666
1164.884, 140.8145
1165.366, 87.10059
1165.848, 61.47656
1166.330, 114.7959
1166.812, 172.5811
1167.294, 166.6025
1167.776, 131.3008
1168.258, 114.8359
1168.740, 123.7041
1169.223, 134.0645
1169.705, 145.6328
1170.187, 160.8955
1170.669, 184.2139
1171.151, 210.1689
1171.633, 236.5488
1172.115, 260.6143
1172.597, 270.9746
1173.079, 250.9697
1173.562, 266.8896
1174.044, 337.0439
1174.526, 410.4551
1175.008, 417.4521
1175.490, 396.4551
1175.972, 405.8330
1176.454, 451.7139
1176.936, 481.7100
1177.419, 476.6875
1177.901, 486.1494
1178.383, 533.8438
1178.865, 590.1533
1179.347, 583.6035
1179.829, 549.5752
1180.311, 564.3604
1180.793, 666.7285
1181.276, 747.2764
1181.758, 772.6172
1182.240, 795.9395
1182.722, 855.0811
1183.204, 931.7363
1183.686, 953.0547
1184.168, 936.0225
1184.650, 935.9336
1185.132, 969.9648
1185.615, 1034.458
1186.097, 1147.011
1186.579, 1265.244
1187.061, 1342.859
1187.543, 1389.352
1188.025, 1461.050
1188.507, 1557.847
1188.989, 1657.308
1189.471, 1749.120
1189.954, 1838.672
1190.436, 1917.748
1190.918, 2002.882
1191.400, 2129.512
1191.882, 2292.836
1192.364, 2439.432
1192.846, 2560.581
1193.328, 2673.855
1193.811, 2791.930
1194.293, 2908.997
1194.775, 3019.337
1195.257, 3124.345
1195.739, 3226.431
1196.221, 3326.447
1196.703, 3445.342
1197.185, 3600.116
1197.667, 3739.368
1198.150, 3823.364
1198.632, 3875.843
1199.114, 3922.965
1199.596, 3965.181
1200.078, 3961.310
1200.560, 3913.578
1201.042, 3857.942
1201.524, 3807.985
1202.006, 3753.046
1202.489, 3699.825
1202.971, 3627.677
1203.453, 3504.677
1203.935, 3315.714
1204.417, 3161.337
1204.899, 3045.748
1205.381, 2925.699
1205.863, 2753.264
1206.346, 2575.866
1206.828, 2447.816
1207.310, 2343.881
1207.792, 2193.254
1208.274, 1977.230
1208.756, 1812.313
1209.238, 1713.959
1209.720, 1640.133
1210.203, 1568.827
1210.685, 1492.121
1211.167, 1389.991
1211.649, 1268.714
1212.131, 1193.697
1212.613, 1177.066
1213.095, 1145.350
1213.577, 1082.690
1214.059, 1007.555
1214.542, 928.3438
1215.024, 850.1240
1215.506, 779.0527
1215.988, 717.2666
1216.470, 665.3408
1216.952, 621.9873
1217.434, 588.1357
1217.916, 565.6309
1218.398, 549.7510
1218.881, 534.4072
1219.363, 518.8096
1219.845, 500.2793
1220.327, 471.4990
1220.809, 470.7959
1221.291, 506.0732
1221.773, 532.9033
1222.255, 518.3271
1222.738, 480.7119
1223.220, 431.3496
1223.702, 376.5947
1224.184, 331.8154
1224.666, 291.3887
1225.148, 275.8496
1225.630, 288.6611
1226.112, 312.8721
1226.594, 357.4785
1227.077, 390.4307
1227.559, 353.8115
1228.041, 268.8301
1228.523, 210.1768
1229.005, 186.4404
1229.487, 186.5820
1229.969, 213.5947
1230.451, 246.6680
1230.933, 272.3262
1231.416, 285.6602
1231.898, 276.0244
1232.380, 246.1934
1232.862, 217.6367
1233.344, 186.3340
1233.826, 176.4746
1234.308, 197.2812
1234.790, 225.7725
1235.273, 242.8857
1235.755, 245.1807
1236.237, 218.9385
1236.719, 162.1250
1237.201, 142.2793
1237.683, 175.2227
1238.165, 188.8545
1238.647, 152.9805
1239.130, 107.8545
1239.612, 114.4307
1240.094, 140.2871
1240.576, 140.9375
1241.058, 101.2002
1241.540, 86.80078
1242.022, 103.2617
1242.504, 119.2227
1242.986, 118.3242
1243.469, 113.6611
1243.951, 131.9297
1244.433, 153.1182
1244.915, 142.1738
1245.397, 78.02148
1245.879, 49.82129
1246.361, 62.56836
1246.843, 77.42969
1247.326, 68.75098
1247.808, 51.36230
1248.290, 37.35156
1248.772, 27.79785
1249.254, 27.33789
1249.736, 43.13672
1250.218, 37.25684
1250.700, 5.444336
1251.182, 18.39453
1251.665, 2.516602
1252.147, 28.09277
1252.629, 54.02637
1253.111, 74.91211
1253.593, 94.60059
1254.075, 117.4336
1254.557, 109.8438
1255.039, 65.45117
1255.521, 26.62793
1256.004, 34.52148
1256.486, 58.99121
1256.968, 82.61523
1257.450, 101.0596
1257.932, 103.7285
1258.414, 88.76172
1258.896, 79.52637
1259.378, 80.21875
1259.861, 81.30176
1260.343, 64.38184
1260.825, 53.69238
1261.307, 82.06055
1261.789, 132.4131
1262.271, 139.9463
1262.753, 104.9473
1263.235, 70.47266
1263.718, 42.91309
1264.200, 37.15234
1264.682, 100.0801
1265.164, 155.5498
1265.646, 133.1367
1266.128, 57.21582
1266.610, 55.95898
1267.092, 120.8564
1267.574, 169.6543
1268.057, 178.3057
1268.539, 169.1592
1269.021, 141.3730
1269.503, 113.7119
1269.985, 97.52539
1270.467, 91.49219
1270.949, 94.77246
1271.431, 103.5742
1271.913, 97.94141
1272.396, 64.02344
1272.878, 31.63086
1273.360, 0.2421880
1273.842, 9.541992
1274.324, 30.92090
1274.806, 97.76465
1275.288, 108.9287
1275.770, 72.67480
1276.253, 41.03125
1276.735, 37.11230
1277.217, 38.13672
1277.699, 46.20215
1278.181, 47.45703
1278.663, 13.24902
1279.145, 32.28711
1279.627, 13.84863
1280.109, 121.0283
1280.592, 186.1621
1281.074, 130.5586
1281.556, 89.56543
1282.038, 78.35156
1282.520, 77.39355
1283.002, 72.75293
1283.484, 64.48047
1283.966, 45.89062
1284.448, 23.03223
1284.931, 19.09570
1285.413, 55.11914
1285.895, 74.06445
1286.377, 84.87109
1286.859, 88.78320
1287.341, 95.12207
1287.823, 96.64648
1288.305, 76.82324
1288.788, 27.22461
1289.270, 3.752930
1289.752, 8.545898
1290.234, 3.720703
1290.716, 21.41797
1291.198, 48.35840
1291.680, 63.22754
1292.162, 72.58594
1292.645, 77.13672
1293.127, 77.28906
1293.609, 73.52051
1294.091, 48.25098
1294.573, 45.96191
1295.055, 52.05762
1295.537, 55.66211
1296.019, 54.31250
1296.501, 47.39062
1296.984, 26.20898
1297.466, 0.0000000E+00
##END=



