##NAMES=Gysinite-(Nd)
##RRUFFID=R100062
##IDEAL CHEMISTRY=PbNd(CO_3_)_2_(OH)&#183;H_2_O
##LOCALITY=Kasompi, 70 km west of Kambove, Katanga, Congo
##OWNER=RRUFF
##SOURCE=William W Pinch
##DESCRIPTION=Pink glassy granular crystals associated with green malachite
##STATUS=The identification of this mineral has been confirmed by single-crystal X-ray diffraction.
##URL=rruff.info/R100062
177.2732, 0.0000000E+00
177.7553, 1.136108
178.2374, 1.314697
178.7195, 0.3023680
179.2017, 0.4140630
179.6838, 0.4947510
180.1659, 0.1998290
180.6480, 0.1291500
181.1301, 0.6188960
181.6122, 1.768188
182.0944, 4.035889
182.5765, 6.726929
183.0586, 8.706055
183.5407, 9.911743
184.0228, 10.99609
184.5049, 12.17383
184.9871, 13.59656
185.4692, 15.84619
185.9513, 20.05298
186.4334, 24.85339
186.9155, 26.50635
187.3976, 24.74585
187.8798, 22.76172
188.3619, 24.61206
188.8440, 29.62390
189.3261, 33.27429
189.8082, 33.22791
190.2903, 30.68738
190.7725, 29.98792
191.2546, 31.25757
191.7367, 33.65955
192.2188, 36.93665
192.7009, 41.01111
193.1830, 43.80286
193.6652, 43.77185
194.1473, 41.52795
194.6294, 41.12073
195.1115, 42.84473
195.5936, 45.38220
196.0757, 46.58643
196.5579, 46.36414
197.0400, 47.42627
197.5221, 51.83020
198.0042, 59.20972
198.4863, 63.58215
198.9684, 64.11926
199.4506, 63.46899
199.9327, 65.79492
200.4148, 71.42126
200.8969, 77.05420
201.3790, 80.92432
201.8611, 82.88501
202.3433, 87.11658
202.8254, 94.41541
203.3075, 102.7623
203.7896, 108.1929
204.2717, 110.0702
204.7538, 112.2780
205.2360, 116.8497
205.7181, 124.1577
206.2002, 129.8771
206.6823, 133.4563
207.1644, 136.1025
207.6465, 140.1111
208.1287, 145.7302
208.6108, 151.7449
209.0929, 158.0675
209.5750, 165.1769
210.0571, 169.8788
210.5392, 170.9695
211.0214, 170.8689
211.5035, 175.4285
211.9856, 186.7417
212.4677, 196.9377
212.9498, 201.6045
213.4319, 198.6487
213.9141, 199.1628
214.3962, 204.4164
214.8783, 212.4301
215.3604, 218.4667
215.8425, 221.8467
216.3246, 224.8065
216.8067, 228.2815
217.2889, 232.1919
217.7710, 236.7084
218.2531, 242.1968
218.7352, 248.0272
219.2173, 252.8615
219.6994, 256.5598
220.1816, 259.4814
220.6637, 261.5959
221.1458, 262.2522
221.6279, 264.1145
222.1100, 267.7858
222.5921, 272.5101
223.0743, 276.4801
223.5564, 279.7849
224.0385, 282.2598
224.5206, 283.9166
225.0027, 285.2572
225.4848, 284.7454
225.9670, 280.9200
226.4491, 275.6415
226.9312, 273.9106
227.4133, 278.1301
227.8954, 283.2261
228.3775, 285.5037
228.8597, 283.3965
229.3418, 283.2788
229.8239, 286.1106
230.3060, 291.5634
230.7881, 294.8232
231.2702, 293.9229
231.7524, 292.8230
232.2345, 293.6722
232.7166, 299.0347
233.1987, 301.0735
233.6808, 298.3625
234.1629, 292.9340
234.6451, 290.1493
235.1272, 292.3668
235.6093, 294.1101
236.0914, 292.9233
236.5735, 287.3384
237.0556, 281.6483
237.5378, 275.3490
238.0199, 269.2581
238.5020, 265.4308
238.9841, 264.9742
239.4662, 265.2253
239.9483, 265.1392
240.4305, 264.7791
240.9126, 263.8513
241.3947, 262.1471
241.8768, 259.8788
242.3589, 257.5923
242.8410, 255.2532
243.3232, 252.8451
243.8053, 250.4523
244.2874, 248.3816
244.7695, 245.5258
245.2516, 241.8087
245.7337, 237.2916
246.2159, 231.9786
246.6980, 225.1222
247.1801, 218.6758
247.6622, 213.4934
248.1443, 210.2053
248.6264, 206.4202
249.1086, 201.7919
249.5907, 196.8347
250.0728, 192.6986
250.5549, 189.9948
251.0370, 187.0725
251.5191, 183.1322
252.0013, 177.6665
252.4834, 172.9319
252.9655, 169.2705
253.4476, 166.1246
253.9297, 162.5291
254.4118, 158.4545
254.8940, 153.9958
255.3761, 149.2098
255.8582, 144.1216
256.3403, 138.4534
256.8224, 131.9858
257.3046, 125.1254
257.7867, 118.6918
258.2688, 112.7899
258.7509, 107.0648
259.2330, 101.5544
259.7151, 96.34668
260.1973, 90.74963
260.6794, 84.48706
261.1615, 78.27649
261.6436, 73.39673
262.1257, 70.23181
262.6078, 67.38330
263.0900, 64.59338
263.5721, 61.88464
264.0542, 58.47375
264.5363, 53.73401
265.0184, 48.94495
265.5005, 45.84253
265.9827, 45.13147
266.4648, 44.00623
266.9469, 41.38635
267.4290, 37.20923
267.9111, 34.36755
268.3932, 33.44263
268.8754, 32.96313
269.3575, 31.13135
269.8396, 27.49426
270.3217, 24.19873
270.8038, 22.15479
271.2859, 21.21643
271.7681, 18.17688
272.2502, 12.07898
272.7323, 5.893555
273.2144, 3.111572
273.6965, 4.359009
274.1786, 5.532837
274.6608, 5.751221
275.1429, 5.152954
275.6250, 4.912109
276.1071, 5.334839
276.5892, 5.265991
277.0714, 3.165527
277.5535, 1.308594
278.0356, 4.567017
278.5177, 5.556885
278.9998, 4.909668
279.4819, 5.511597
279.9641, 7.722168
280.4462, 9.616211
280.9283, 8.975830
281.4104, 5.661011
281.8925, 4.275757
282.3746, 6.159912
282.8568, 9.930420
283.3389, 11.66113
283.8210, 11.21289
284.3031, 9.922485
284.7852, 8.623413
285.2673, 7.339722
285.7495, 5.802368
286.2316, 3.884888
286.7137, 1.923584
287.1958, 0.7573240
287.6779, 0.4372560
288.1600, 7.2632000E-02
288.6422, 1.129150
289.1243, 2.987671
289.6064, 4.022217
290.0885, 3.891968
290.5706, 3.515503
291.0527, 5.140991
291.5349, 8.564819
292.0170, 10.52319
292.4991, 7.813843
292.9812, 1.988770
293.4633, 1.239746
293.9454, 1.376221
294.4276, 0.2282710
294.9097, 2.682251
295.3918, 5.696045
295.8739, 7.625732
296.3560, 6.875977
296.8381, 4.527344
297.3203, 3.037231
297.8024, 2.464355
298.2845, 2.510742
298.7666, 2.991333
299.2487, 3.847290
299.7308, 4.963379
300.2130, 6.938232
300.6951, 8.900635
301.1772, 9.070679
301.6593, 7.469482
302.1414, 5.867920
302.6235, 5.733887
303.1057, 6.756226
303.5878, 8.332275
304.0699, 10.91504
304.5520, 13.49011
305.0341, 14.66150
305.5162, 14.57373
305.9984, 14.44751
306.4805, 15.22937
306.9626, 16.47998
307.4447, 17.52881
307.9268, 17.98926
308.4089, 18.43811
308.8911, 19.05188
309.3732, 19.94958
309.8553, 21.69031
310.3374, 25.39734
310.8195, 29.72437
311.3016, 33.24731
311.7838, 35.41479
312.2659, 37.28638
312.7480, 39.95117
313.2301, 42.88110
313.7122, 44.81812
314.1943, 44.17834
314.6765, 43.03784
315.1586, 42.86548
315.6407, 44.01831
316.1228, 45.67847
316.6049, 48.10364
317.0870, 50.70239
317.5692, 52.45520
318.0513, 51.66345
318.5334, 51.01074
319.0155, 52.29651
319.4976, 56.08948
319.9797, 58.54871
320.4619, 57.50818
320.9440, 54.73022
321.4261, 52.20752
321.9082, 50.01208
322.3903, 48.47522
322.8724, 48.25049
323.3546, 49.38647
323.8367, 49.38574
324.3188, 46.67334
324.8009, 43.29663
325.2830, 40.85437
325.7651, 40.16541
326.2473, 39.79504
326.7294, 39.77332
327.2115, 40.05786
327.6936, 40.15918
328.1757, 39.78491
328.6578, 39.44946
329.1400, 39.39966
329.6221, 39.46216
330.1042, 40.02991
330.5863, 41.88330
331.0684, 44.24060
331.5505, 44.74268
332.0327, 41.76282
332.5148, 38.76831
332.9969, 37.03052
333.4790, 36.75989
333.9611, 37.18921
334.4432, 38.70288
334.9254, 40.64746
335.4075, 41.78259
335.8896, 42.01770
336.3717, 41.75195
336.8538, 40.95154
337.3359, 39.41992
337.8180, 38.62732
338.3001, 38.61560
338.7823, 39.52136
339.2644, 41.80774
339.7465, 45.84485
340.2286, 48.95007
340.7107, 50.46936
341.1928, 50.57654
341.6750, 48.88403
342.1571, 44.72205
342.6392, 41.40234
343.1213, 42.71924
343.6034, 48.74829
344.0855, 52.58276
344.5677, 52.54590
345.0498, 50.09058
345.5319, 48.39795
346.0140, 47.46021
346.4961, 47.58142
346.9782, 49.92749
347.4604, 53.77747
347.9425, 54.97217
348.4246, 52.40198
348.9067, 49.48804
349.3888, 52.12878
349.8709, 59.34204
350.3531, 65.64209
350.8352, 68.02979
351.3173, 67.54883
351.7994, 65.96924
352.2815, 63.32776
352.7636, 61.29150
353.2458, 61.47021
353.7279, 63.37415
354.2100, 65.97461
354.6921, 68.83057
355.1742, 72.16174
355.6563, 77.06055
356.1385, 83.24512
356.6206, 88.13916
357.1027, 88.35400
357.5848, 86.85266
358.0669, 87.26868
358.5490, 91.62341
359.0312, 96.45569
359.5133, 99.36145
359.9954, 100.9072
360.4775, 102.9579
360.9596, 106.7998
361.4417, 111.1827
361.9239, 115.3801
362.4060, 119.3713
362.8881, 122.8643
363.3702, 125.9166
363.8523, 128.3615
364.3344, 129.9443
364.8166, 128.6194
365.2987, 128.2137
365.7808, 130.9059
366.2629, 137.3638
366.7450, 142.2273
367.2271, 142.8389
367.7093, 142.4347
368.1914, 143.8574
368.6735, 151.4382
369.1556, 156.3892
369.6377, 155.6606
370.1198, 150.1692
370.6020, 148.0281
371.0841, 151.6216
371.5662, 156.3743
372.0483, 159.8250
372.5304, 161.4150
373.0125, 162.8567
373.4947, 164.5703
373.9768, 165.9932
374.4589, 165.4573
374.9410, 161.4648
375.4231, 158.5132
375.9052, 158.7952
376.3874, 162.9387
376.8695, 165.4265
377.3516, 166.1384
377.8337, 165.4666
378.3158, 163.3821
378.7979, 159.5530
379.2801, 156.9412
379.7622, 156.9351
380.2443, 158.7063
380.7264, 158.4568
381.2085, 156.0144
381.6906, 152.6260
382.1728, 149.1609
382.6549, 145.5852
383.1370, 141.7793
383.6191, 137.4209
384.1012, 133.2793
384.5833, 131.3516
385.0655, 131.2427
385.5476, 130.0403
386.0297, 124.5042
386.5118, 117.1382
386.9939, 112.7151
387.4760, 111.7695
387.9582, 111.7942
388.4403, 110.7124
388.9224, 108.9104
389.4045, 107.1414
389.8866, 106.7654
390.3687, 105.8059
390.8509, 101.7905
391.3330, 94.98950
391.8151, 88.75342
392.2972, 85.81323
392.7793, 84.12231
393.2614, 81.62646
393.7436, 76.94604
394.2257, 72.63379
394.7078, 70.03833
395.1899, 68.69312
395.6720, 67.36646
396.1541, 66.55835
396.6363, 65.06885
397.1184, 61.93799
397.6005, 56.18457
398.0826, 51.50391
398.5647, 49.13232
399.0468, 47.94312
399.5290, 46.56934
400.0111, 44.52197
400.4932, 42.72290
400.9753, 41.36328
401.4574, 40.43384
401.9395, 39.68799
402.4217, 39.89941
402.9038, 39.44556
403.3859, 36.68774
403.8680, 29.02173
404.3501, 25.63623
404.8322, 28.98364
405.3144, 36.13916
405.7965, 39.03638
406.2786, 36.77979
406.7607, 33.30518
407.2428, 29.66016
407.7249, 25.76099
408.2071, 24.90649
408.6892, 27.89404
409.1713, 31.53979
409.6534, 31.39795
410.1355, 27.66602
410.6176, 24.44775
411.0998, 23.02173
411.5819, 22.82739
412.0640, 22.76904
412.5461, 22.82739
413.0282, 22.63281
413.5103, 21.57568
413.9925, 20.09692
414.4746, 19.18652
414.9567, 19.14746
415.4388, 19.29395
415.9209, 19.28320
416.4030, 18.92432
416.8852, 17.75146
417.3673, 14.43481
417.8494, 11.12280
418.3315, 9.817627
418.8136, 10.59033
419.2957, 11.21289
419.7779, 10.26660
420.2600, 8.672119
420.7421, 7.354736
421.2242, 6.578125
421.7063, 6.151123
422.1884, 6.375977
422.6706, 7.007813
423.1527, 7.117676
423.6348, 6.216309
424.1169, 4.999756
424.5990, 3.772949
425.0811, 2.672363
425.5633, 1.590332
426.0454, 0.4592290
426.5275, 0.4375000
427.0096, 0.7790530
427.4917, 5.2002002E-02
427.9738, 0.4365230
428.4560, 0.2993160
428.9381, 0.4355470
429.4202, 0.3540040
429.9023, 1.278320
430.3844, 2.764648
430.8665, 2.461426
431.3487, 0.1623540
431.8308, 1.259277
432.3129, 0.1125490
432.7950, 2.156006
433.2771, 3.006836
433.7592, 2.340820
434.2414, 2.071533
434.7235, 3.460449
435.2056, 6.125488
435.6877, 8.147949
436.1698, 9.484863
436.6519, 10.22754
437.1341, 10.37329
437.6162, 9.905518
438.0983, 8.696533
438.5804, 6.278320
439.0625, 3.753906
439.5446, 1.985352
440.0268, 1.097412
440.5089, 1.513916
440.9910, 5.477539
441.4731, 9.714600
441.9552, 11.21997
442.4373, 9.335693
442.9195, 6.440918
443.4016, 2.596191
443.8837, 1.193115
444.3658, 3.710449
444.8479, 3.563965
445.3300, 3.120605
445.8122, 3.104980
446.2943, 3.482910
446.7764, 3.721924
447.2585, 3.870361
447.7406, 3.781006
448.2227, 3.335205
448.7049, 2.208252
449.1870, 1.383057
449.6691, 0.9914550
450.1512, 0.8447270
450.6333, 0.6640630
451.1154, 0.4162600
451.5976, 0.1967770
452.0797, 1.4160000E-02
452.5618, 0.1948240
453.0439, 8.0321997E-02
453.5260, 1.017334
454.0081, 1.801514
454.4903, 1.632324
454.9724, 0.5341800
455.4545, 0.3947750
455.9366, 1.029785
456.4187, 1.406982
456.9008, 1.353516
457.3830, 0.9604490
457.8651, 0.8718260
458.3472, 1.896973
458.8293, 3.284668
459.3114, 3.605469
459.7935, 2.851807
460.2757, 1.827393
460.7578, 0.5075680
461.2399, 0.4870610
461.7220, 9.3750000E-02
462.2041, 3.001953
462.6862, 5.758057
463.1684, 5.388184
463.6505, 3.144287
464.1326, 1.936523
464.6147, 3.623779
465.0968, 6.048340
465.5789, 8.383545
466.0611, 10.66138
466.5432, 11.93286
467.0253, 11.01099
467.5074, 9.491455
467.9895, 8.707764
468.4716, 9.945313
468.9538, 10.34619
469.4359, 9.425049
469.9180, 7.570557
470.4001, 5.983643
470.8822, 4.787842
471.3643, 3.726563
471.8465, 2.656494
472.3286, 1.558105
472.8107, 1.182373
473.2928, 1.871826
473.7749, 2.520752
474.2570, 1.409424
474.7392, 1.423340
475.2213, 2.982910
475.7034, 2.280762
476.1855, 0.3413090
476.6676, 0.7863770
477.1497, 1.166016
477.6319, 1.397949
478.1140, 1.853516
478.5961, 2.369873
479.0782, 2.554443
479.5603, 2.324951
480.0424, 2.307617
480.5246, 3.883545
481.0067, 5.752930
481.4888, 5.993896
481.9709, 1.574219
482.4530, 1.756348
482.9352, 0.5029300
483.4173, 6.522217
483.8994, 10.52368
484.3815, 9.264893
484.8636, 6.590088
485.3457, 3.765381
485.8279, 0.1491700
486.3100, 0.7910160
486.7921, 4.643799
487.2742, 10.99731
487.7563, 13.31201
488.2384, 8.071045
488.7206, 4.954102
489.2027, 5.918457
489.6848, 9.625732
490.1669, 11.54297
490.6490, 11.51636
491.1311, 10.07129
491.6133, 6.553467
492.0954, 1.033447
492.5775, 1.287842
493.0596, 6.4208999E-02
493.5417, 2.726318
494.0238, 4.261230
494.5060, 4.895996
494.9881, 5.685059
495.4702, 7.112549
495.9523, 8.434570
496.4344, 8.006592
496.9165, 6.354004
497.3987, 5.455322
497.8808, 7.136719
498.3629, 9.647461
498.8450, 11.16675
499.3271, 11.51099
499.8092, 12.07812
500.2914, 14.79956
500.7735, 17.50146
501.2556, 18.16284
501.7377, 13.20508
502.2198, 9.646240
502.7019, 10.85059
503.1841, 14.82959
503.6662, 16.03369
504.1483, 9.605713
504.6304, 4.926270
505.1125, 5.470459
505.5946, 11.86230
506.0768, 15.67139
506.5589, 16.09180
507.0410, 15.19922
507.5231, 14.59790
508.0052, 14.37231
508.4873, 14.01611
508.9695, 13.60962
509.4516, 12.86377
509.9337, 10.56348
510.4158, 6.845459
510.8979, 4.476563
511.3800, 5.478027
511.8622, 8.323242
512.3443, 9.643799
512.8264, 9.516846
513.3085, 9.042480
513.7906, 8.778076
514.2728, 8.732910
514.7549, 8.971436
515.2370, 9.606934
515.7191, 10.28467
516.2012, 11.17310
516.6833, 11.75684
517.1655, 11.38770
517.6476, 7.824707
518.1297, 5.591309
518.6118, 6.997070
519.0939, 11.50391
519.5760, 14.60181
520.0582, 15.48120
520.5403, 15.20972
521.0224, 13.96753
521.5045, 11.14502
521.9866, 9.691895
522.4688, 9.637939
522.9509, 10.20703
523.4330, 10.94678
523.9151, 12.18848
524.3972, 12.12231
524.8793, 9.642822
525.3615, 6.304443
525.8436, 6.332031
526.3257, 9.742188
526.8078, 12.80151
527.2899, 13.13354
527.7720, 11.60742
528.2542, 10.00342
528.7363, 8.407959
529.2184, 6.990967
529.7005, 5.502441
530.1826, 4.429199
530.6647, 4.614014
531.1469, 7.313477
531.6290, 9.615723
532.1111, 8.657471
532.5932, 6.042236
533.0753, 5.397461
533.5574, 11.33252
534.0396, 16.30444
534.5217, 16.82153
535.0038, 12.36646
535.4859, 9.765625
535.9680, 11.06885
536.4501, 12.37280
536.9323, 11.10205
537.4144, 5.417236
537.8965, 2.317871
538.3786, 2.312256
538.8607, 4.406738
539.3428, 8.084473
539.8250, 13.68701
540.3071, 16.29590
540.7892, 13.91504
541.2713, 8.734131
541.7534, 6.281494
542.2355, 6.355225
542.7177, 6.697266
543.1998, 5.316895
543.6819, 3.417725
544.1640, 3.507813
544.6461, 6.130371
545.1282, 8.418457
545.6104, 7.584473
546.0925, 5.513428
546.5746, 4.284668
547.0567, 5.326904
547.5388, 6.452393
548.0209, 6.782715
548.5031, 6.632568
548.9852, 6.725586
549.4673, 7.913086
549.9494, 8.469727
550.4315, 7.604736
550.9136, 5.549805
551.3958, 4.488037
551.8779, 4.428223
552.3600, 5.092285
552.8421, 6.732422
553.3242, 9.610107
553.8063, 10.81421
554.2885, 9.912842
554.7706, 8.202637
555.2527, 7.240234
555.7348, 6.972656
556.2169, 7.134033
556.6990, 7.823730
557.1812, 8.656738
557.6633, 9.272705
558.1454, 9.607422
558.6275, 9.419922
559.1096, 8.390869
559.5917, 6.910400
560.0739, 4.919678
560.5560, 2.391357
561.0381, 1.072266
561.5202, 2.827393
562.0023, 5.591797
562.4844, 7.786377
562.9666, 8.965088
563.4487, 9.871338
563.9308, 10.28540
564.4129, 10.54761
564.8950, 11.26147
565.3771, 12.81494
565.8593, 13.82520
566.3414, 13.81104
566.8235, 13.02026
567.3056, 12.78979
567.7877, 13.23730
568.2698, 13.25732
568.7520, 11.77075
569.2341, 9.258301
569.7162, 7.492676
570.1983, 6.549561
570.6804, 6.244873
571.1625, 7.409180
571.6447, 8.867188
572.1268, 8.446533
572.6089, 4.709961
573.0910, 1.132568
573.5731, 0.7353520
574.0552, 2.034668
574.5374, 2.437744
575.0195, 0.5200200
575.5016, 2.830566
575.9837, 2.982666
576.4658, 1.070557
576.9479, 1.192383
577.4301, 5.503906
577.9122, 8.077881
578.3943, 6.533447
578.8764, 0.4401860
579.3585, 3.904053
579.8406, 3.133545
580.3228, 0.4897460
580.8049, 2.312500
581.2870, 5.155273
581.7691, 5.762695
582.2512, 2.836914
582.7333, 0.4414060
583.2155, 1.658936
583.6976, 7.517090
584.1797, 12.24683
584.6617, 12.67383
585.1439, 11.51172
585.6260, 10.37183
586.1081, 9.508057
586.5902, 10.15771
587.0723, 15.42920
587.5544, 20.40845
588.0366, 22.05688
588.5187, 19.25464
589.0008, 16.65698
589.4829, 15.09668
589.9650, 13.79248
590.4471, 12.15234
590.9293, 9.944824
591.4114, 7.982178
591.8935, 6.231445
592.3756, 4.866211
592.8577, 4.286377
593.3398, 4.529297
593.8220, 5.023438
594.3041, 5.820313
594.7862, 6.562988
595.2683, 6.030762
595.7504, 4.396729
596.2325, 3.241455
596.7147, 4.362305
597.1968, 6.074463
597.6789, 6.298096
598.1610, 4.873047
598.6431, 3.544678
599.1252, 3.391602
599.6074, 3.724121
600.0895, 4.056885
600.5716, 4.840332
601.0537, 4.712646
601.5358, 2.717773
602.0179, 0.0000000E+00
602.5001, 2.168945
602.9822, 4.528564
603.4643, 4.694336
603.9464, 1.403076
604.4285, 3.962402
604.9106, 6.940674
605.3928, 7.271729
605.8749, 6.947998
606.3570, 6.453125
606.8391, 6.060547
607.3212, 7.078613
607.8033, 9.422363
608.2855, 11.52783
608.7676, 11.67285
609.2497, 11.05981
609.7318, 11.46973
610.2139, 13.52222
610.6960, 14.88062
611.1782, 13.82422
611.6603, 11.61475
612.1424, 9.588379
612.6245, 6.775391
613.1066, 5.739258
613.5887, 8.814697
614.0709, 13.49268
614.5530, 14.55225
615.0351, 10.17896
615.5172, 6.029541
615.9993, 3.706787
616.4814, 2.849121
616.9636, 1.021484
617.4457, 1.952148
617.9278, 3.727051
618.4099, 1.794434
618.8920, 2.368164
619.3741, 4.909912
619.8563, 5.677246
620.3384, 5.614502
620.8205, 5.214355
621.3026, 4.558350
621.7847, 3.705566
622.2668, 2.559082
622.7490, 1.458740
623.2311, 0.2661130
623.7132, 0.7165530
624.1953, 1.099365
624.6774, 0.7314450
625.1595, 0.1970210
625.6417, 2.339600
626.1238, 4.924561
626.6059, 5.487793
627.0880, 3.242188
627.5701, 1.484863
628.0522, 1.798340
628.5344, 3.567139
629.0165, 3.054932
629.4986, 0.1923830
629.9807, 1.782227
630.4628, 0.2482910
630.9449, 4.460449
631.4271, 7.916260
631.9092, 10.44897
632.3913, 11.84131
632.8734, 10.95972
633.3555, 9.112549
633.8376, 7.814453
634.3198, 7.730225
634.8019, 7.841797
635.2840, 7.712402
635.7661, 7.503174
636.2482, 7.493164
636.7303, 7.283691
637.2125, 7.624756
637.6946, 9.688232
638.1767, 12.43628
638.6588, 12.08374
639.1409, 8.028320
639.6230, 4.496338
640.1052, 3.458984
640.5873, 4.013916
641.0694, 4.155762
641.5515, 3.856934
642.0336, 3.112549
642.5157, 1.308105
642.9979, 0.5378420
643.4800, 1.251465
643.9621, 0.6921390
644.4442, 0.5891110
644.9263, 3.191406
645.4084, 5.893799
645.8906, 7.696777
646.3727, 8.304688
646.8548, 8.101074
647.3369, 6.409424
647.8190, 4.320557
648.3011, 3.027344
648.7833, 2.402832
649.2654, 2.791260
649.7475, 4.316406
650.2296, 6.728271
650.7117, 10.27393
651.1938, 14.77026
651.6760, 17.68433
652.1581, 16.94849
652.6402, 14.91626
653.1223, 15.74194
653.6044, 18.65942
654.0865, 20.44897
654.5687, 18.02222
655.0508, 14.90942
655.5329, 13.70557
656.0150, 14.69019
656.4971, 14.81909
656.9792, 11.62524
657.4614, 8.879883
657.9435, 8.893799
658.4256, 12.92334
658.9077, 15.05762
659.3898, 14.45142
659.8719, 13.35205
660.3541, 14.63867
660.8362, 18.15161
661.3183, 19.58643
661.8004, 18.31641
662.2825, 15.37500
662.7646, 10.50098
663.2468, 5.007080
663.7289, 2.236572
664.2110, 5.208252
664.6931, 9.051025
665.1752, 10.18286
665.6573, 9.616211
666.1395, 9.761475
666.6216, 13.48193
667.1037, 15.86279
667.5858, 14.09814
668.0679, 9.040283
668.5500, 6.631592
669.0322, 7.659912
669.5143, 9.791748
669.9964, 12.65576
670.4785, 16.05884
670.9606, 16.43506
671.4427, 13.46729
671.9249, 10.34863
672.4070, 9.236816
672.8891, 9.888184
673.3712, 12.38745
673.8533, 16.95410
674.3354, 20.84839
674.8176, 21.16602
675.2997, 20.18408
675.7818, 20.57715
676.2639, 24.86060
676.7460, 27.57373
677.2281, 25.85938
677.7103, 22.50293
678.1924, 20.80273
678.6745, 21.07544
679.1566, 22.54858
679.6387, 25.73047
680.1208, 29.50757
680.6030, 31.32007
681.0851, 31.12744
681.5672, 30.83154
682.0493, 30.88696
682.5314, 31.45483
683.0135, 33.04907
683.4957, 35.41113
683.9778, 37.55786
684.4599, 39.03882
684.9420, 40.04468
685.4241, 40.13086
685.9063, 39.48340
686.3884, 40.41870
686.8705, 44.90259
687.3526, 49.91748
687.8347, 54.17236
688.3168, 57.71948
688.7990, 61.28125
689.2811, 65.19653
689.7632, 68.63403
690.2453, 70.64380
690.7274, 71.39673
691.2095, 72.54883
691.6917, 74.11621
692.1738, 76.67456
692.6559, 81.70972
693.1380, 87.84277
693.6201, 92.47095
694.1022, 94.28784
694.5844, 96.39795
695.0665, 100.6499
695.5486, 106.1372
696.0307, 111.7312
696.5128, 118.3784
696.9949, 123.4321
697.4771, 126.2336
697.9592, 127.5376
698.4413, 129.0608
698.9234, 131.4358
699.4055, 131.3081
699.8876, 127.2324
700.3698, 120.6821
700.8519, 115.6389
701.3340, 111.7717
701.8161, 107.0137
702.2982, 99.78564
702.7803, 91.29150
703.2625, 82.43604
703.7446, 73.47388
704.2267, 65.53003
704.7088, 58.67334
705.1909, 53.24048
705.6730, 49.93433
706.1552, 48.97192
706.6373, 47.31226
707.1194, 44.38818
707.6015, 41.48291
708.0836, 38.99023
708.5657, 36.81030
709.0479, 36.57910
709.5300, 38.43018
710.0121, 41.05737
710.4942, 43.24487
710.9763, 45.24658
711.4584, 47.88037
711.9406, 51.28125
712.4227, 54.69971
712.9048, 57.85547
713.3869, 60.72778
713.8690, 63.22021
714.3511, 65.12622
714.8333, 66.73926
715.3154, 67.70923
715.7975, 68.77563
716.2796, 71.01318
716.7617, 75.39771
717.2438, 78.15479
717.7260, 78.48413
718.2081, 77.65503
718.6902, 77.64136
719.1723, 78.42358
719.6544, 79.77710
720.1365, 81.95483
720.6187, 84.13599
721.1008, 85.29883
721.5829, 85.68530
722.0650, 85.93457
722.5471, 86.18994
723.0292, 86.39136
723.5114, 86.50293
723.9935, 86.57275
724.4756, 86.75049
724.9577, 87.92139
725.4398, 87.39282
725.9219, 83.97852
726.4041, 78.28418
726.8862, 73.57642
727.3683, 69.87183
727.8504, 66.62646
728.3325, 64.41333
728.8146, 62.08130
729.2968, 56.51782
729.7789, 48.12866
730.2610, 40.48804
730.7431, 35.92383
731.2252, 32.92090
731.7073, 30.35278
732.1895, 28.05298
732.6716, 26.90381
733.1537, 29.09082
733.6358, 30.53052
734.1179, 28.59082
734.6000, 22.12793
735.0822, 19.19141
735.5643, 20.56348
736.0464, 22.61450
736.5285, 21.79785
737.0106, 18.87769
737.4927, 16.74976
737.9749, 15.75781
738.4570, 15.25903
738.9391, 15.29077
739.4212, 15.32031
739.9033, 14.91309
740.3854, 14.13843
740.8676, 12.95752
741.3497, 10.92749
741.8318, 8.782227
742.3139, 7.242188
742.7960, 6.515869
743.2781, 5.750488
743.7603, 4.513184
744.2424, 3.757813
744.7245, 5.506104
745.2066, 9.312500
745.6887, 11.91089
746.1708, 12.36426
746.6530, 11.63159
747.1351, 10.05566
747.6172, 8.195801
748.0993, 7.121094
748.5814, 7.809082
749.0635, 8.502441
749.5457, 9.059814
750.0278, 9.157227
750.5099, 7.996338
750.9920, 4.449219
751.4741, 1.937012
751.9562, 1.205322
752.4384, 1.857910
752.9205, 3.472900
753.4026, 6.019043
753.8847, 7.042480
754.3668, 4.835205
754.8489, 1.465332
755.3311, 0.3227540
755.8132, 0.8051760
756.2953, 0.7548830
756.7774, 7.6172002E-02
757.2595, 0.5854490
757.7416, 1.106445
758.2238, 1.383301
758.7059, 0.9121090
759.1880, 1.604492
759.6701, 2.785889
760.1522, 1.243652
760.6343, 2.429932
761.1165, 5.445801
761.5986, 7.796875
762.0807, 9.069580
762.5628, 8.138672
763.0449, 6.356934
763.5270, 6.391602
764.0092, 7.883301
764.4913, 8.941406
764.9734, 7.524414
765.4555, 6.200928
765.9376, 7.159424
766.4197, 10.49194
766.9019, 11.67480
767.3840, 9.217285
767.8661, 6.495361
768.3482, 5.093018
768.8303, 4.930176
769.3124, 3.764160
769.7946, 1.514160
770.2767, 0.5734860
770.7588, 2.162598
771.2409, 2.793457
771.7230, 0.8874510
772.2051, 3.427490
772.6873, 6.900391
773.1694, 7.221924
773.6515, 6.299072
774.1336, 5.172363
774.6157, 3.804443
775.0978, 3.038574
775.5800, 3.052002
776.0621, 3.411621
776.5442, 4.053711
777.0263, 5.017578
777.5084, 4.932373
777.9905, 3.679443
778.4727, 2.450928
778.9548, 2.772217
779.4369, 3.646973
779.9190, 3.217285
780.4011, 1.264893
780.8832, 0.8876950
781.3654, 3.126465
781.8475, 4.764160
782.3296, 5.101807
782.8117, 3.420898
783.2938, 2.324219
783.7759, 1.996826
784.2581, 1.926514
784.7402, 1.926025
785.2223, 1.985840
785.7044, 0.9365230
786.1865, 1.396973
786.6686, 3.512939
787.1508, 3.663086
787.6329, 2.735107
788.1150, 1.982178
788.5971, 1.513184
789.0792, 1.534180
789.5613, 1.809814
790.0435, 2.760986
790.5256, 5.011475
791.0077, 9.701416
791.4898, 12.22388
791.9719, 11.42261
792.4540, 10.31396
792.9362, 12.63306
793.4183, 17.89062
793.9004, 19.48779
794.3825, 16.76001
794.8646, 12.13501
795.3467, 6.134277
795.8289, 0.4377440
796.3110, 2.513916
796.7931, 1.977539
797.2752, 0.2424320
797.7573, 3.038330
798.2394, 6.470215
798.7216, 8.959717
799.2037, 10.52979
799.6858, 11.05103
800.1679, 10.23340
800.6500, 8.999512
801.1321, 7.869385
801.6143, 7.012451
802.0964, 7.680176
802.5785, 10.15845
803.0606, 12.41797
803.5427, 13.11963
804.0248, 12.33447
804.5070, 9.621094
804.9891, 3.514648
805.4712, 0.1955570
805.9533, 1.109131
806.4354, 4.275391
806.9175, 7.470947
807.3997, 11.15430
807.8818, 12.71411
808.3639, 11.69092
808.8460, 10.11572
809.3281, 10.62549
809.8102, 12.18799
810.2924, 11.83984
810.7745, 9.005127
811.2566, 6.059814
811.7387, 4.063965
812.2208, 3.108398
812.7029, 3.306152
813.1851, 4.791992
813.6672, 7.218994
814.1493, 11.70020
814.6314, 15.72095
815.1135, 16.77979
815.5956, 14.69873
816.0778, 13.95288
816.5599, 14.87524
817.0420, 15.68433
817.5241, 14.06470
818.0062, 11.63916
818.4883, 10.72266
818.9705, 11.68384
819.4526, 13.31250
819.9347, 15.95923
820.4168, 18.39111
820.8989, 19.46777
821.3810, 18.62891
821.8632, 19.01416
822.3453, 21.43896
822.8274, 23.31543
823.3095, 21.97363
823.7916, 18.07227
824.2737, 15.49243
824.7559, 14.41943
825.2380, 13.08057
825.7201, 8.712158
826.2022, 4.209229
826.6843, 3.048828
827.1664, 6.082520
827.6486, 8.075928
828.1307, 7.050781
828.6128, 5.362061
829.0949, 3.723877
829.5770, 2.226074
830.0591, 3.761719
830.5413, 8.748535
831.0234, 12.88770
831.5055, 12.21753
831.9876, 8.965088
832.4697, 7.434082
832.9518, 7.721680
833.4340, 8.391602
833.9161, 9.147705
834.3982, 9.474609
834.8803, 8.807617
835.3624, 7.024170
835.8445, 6.097412
836.3267, 6.352051
836.8088, 6.858643
837.2909, 7.262207
837.7730, 7.577637
838.2551, 7.822021
838.7372, 7.958984
839.2194, 7.873291
839.7015, 7.835205
840.1836, 7.518066
840.6657, 6.315918
841.1478, 4.420410
841.6299, 3.149170
842.1121, 3.579102
842.5942, 3.979492
843.0763, 3.647461
843.5584, 2.806641
844.0405, 2.220459
844.5226, 1.625244
845.0048, 2.383057
845.4869, 5.656494
845.9690, 10.13818
846.4511, 13.42969
846.9332, 15.69751
847.4153, 17.51001
847.8975, 19.32910
848.3796, 20.54810
848.8617, 20.60742
849.3438, 19.81543
849.8259, 19.21313
850.3080, 18.88721
850.7902, 18.93262
851.2723, 19.11353
851.7544, 19.50952
852.2365, 21.69067
852.7186, 25.18408
853.2007, 26.75610
853.6829, 23.99023
854.1650, 20.72681
854.6471, 20.95752
855.1292, 23.27515
855.6113, 25.16602
856.0934, 25.17432
856.5756, 25.70752
857.0577, 27.26880
857.5398, 29.14648
858.0219, 30.35571
858.5040, 30.85352
858.9861, 31.48999
859.4683, 32.20044
859.9504, 33.71143
860.4325, 37.83911
860.9146, 43.13452
861.3967, 46.94458
861.8788, 47.98730
862.3610, 49.18311
862.8431, 51.65259
863.3252, 54.70337
863.8073, 57.94312
864.2894, 62.08008
864.7715, 63.71289
865.2537, 62.00854
865.7358, 60.47461
866.2179, 63.49854
866.7000, 69.35425
867.1821, 73.21289
867.6642, 74.58936
868.1464, 75.70117
868.6285, 78.51514
869.1106, 81.34619
869.5927, 82.93408
870.0748, 82.99243
870.5569, 82.61182
871.0391, 82.16968
871.5212, 80.52979
872.0033, 76.54883
872.4854, 70.54761
872.9675, 65.57812
873.4496, 61.45020
873.9318, 56.67554
874.4139, 48.43384
874.8960, 40.39087
875.3781, 36.77197
875.8602, 36.96289
876.3423, 35.50928
876.8245, 28.25464
877.3066, 22.39355
877.7887, 20.42969
878.2708, 21.52490
878.7529, 21.49146
879.2350, 20.16504
879.7172, 17.85498
880.1993, 14.04004
880.6814, 10.50879
881.1635, 10.40552
881.6456, 12.29663
882.1277, 12.58130
882.6099, 7.181885
883.0920, 3.314209
883.5741, 4.569580
884.0562, 7.744385
884.5383, 7.360107
885.0204, 2.640381
885.5026, 0.5874020
885.9847, 1.066650
886.4668, 0.4223630
886.9489, 1.274658
887.4310, 2.607910
887.9131, 2.099609
888.3953, 1.575928
888.8774, 4.919434
889.3595, 6.942139
889.8416, 7.508545
890.3237, 6.228271
890.8058, 1.630859
891.2880, 0.2973630
891.7701, 0.9006350
892.2522, 3.338135
892.7343, 5.630615
893.2164, 7.783447
893.6985, 10.04199
894.1807, 12.39575
894.6628, 13.90576
895.1449, 13.89746
895.6270, 12.86768
896.1091, 10.76270
896.5912, 7.489014
897.0734, 5.072266
897.5555, 3.608398
898.0376, 2.784912
898.5197, 2.593262
899.0018, 2.888184
899.4839, 3.258057
899.9661, 3.684082
900.4482, 4.033203
900.9303, 4.107910
901.4124, 4.239746
901.8945, 4.943848
902.3766, 5.937988
902.8588, 6.207275
903.3409, 4.915283
903.8230, 4.426025
904.3051, 5.527832
904.7872, 7.246582
905.2693, 7.713623
905.7515, 7.028076
906.2336, 5.767578
906.7157, 3.914307
907.1978, 1.940674
907.6799, 0.8469240
908.1620, 3.054443
908.6442, 2.818115
909.1263, 3.398926
909.6084, 6.603271
910.0905, 4.975342
910.5726, 1.941406
911.0547, 0.8935550
911.5369, 1.803467
912.0190, 3.438477
912.5011, 5.805420
912.9832, 7.116699
913.4653, 4.376221
913.9474, 0.9267580
914.4296, 0.3471680
914.9117, 3.112305
915.3938, 4.701172
915.8759, 3.333252
916.3580, 2.171631
916.8401, 2.464355
917.3223, 3.962646
917.8044, 5.541748
918.2865, 7.149414
918.7686, 8.535645
919.2507, 9.375488
919.7328, 10.07983
920.2150, 11.69434
920.6971, 13.48169
921.1792, 13.65576
921.6613, 10.39307
922.1434, 7.159912
922.6255, 3.848633
923.1077, 1.398193
923.5898, 2.213379
924.0719, 6.039063
924.5540, 8.139893
925.0361, 7.187500
925.5182, 5.888672
926.0004, 7.391357
926.4825, 9.876465
926.9646, 10.96582
927.4467, 9.255615
927.9288, 8.859375
928.4109, 11.30054
928.8931, 13.72607
929.3752, 13.80713
929.8573, 11.61255
930.3394, 11.34082
930.8215, 13.01172
931.3036, 13.90918
931.7858, 11.53784
932.2679, 7.874512
932.7500, 4.238525
933.2321, 0.9621580
933.7142, 0.8894040
934.1964, 0.8176270
934.6785, 1.452148
935.1606, 0.8593750
935.6427, 4.616699
936.1248, 4.769531
936.6069, 1.655029
937.0891, 0.4353030
937.5712, 0.8505860
938.0533, 1.958984
938.5354, 2.035889
939.0175, 7.933350
939.4996, 10.96533
939.9818, 6.721924
940.4639, 4.430176
940.9460, 5.129150
941.4281, 6.896240
941.9102, 7.915039
942.3923, 8.220947
942.8745, 8.178711
943.3566, 7.766113
943.8387, 7.370117
944.3208, 7.330566
944.8029, 7.439453
945.2850, 7.525635
945.7672, 7.692139
946.2493, 8.505859
946.7314, 10.71484
947.2135, 11.80664
947.6956, 10.22021
948.1777, 7.055908
948.6599, 6.560547
949.1420, 8.319580
949.6241, 10.14526
950.1062, 11.09399
950.5883, 11.60645
951.0704, 11.27954
951.5526, 10.88403
952.0347, 12.06616
952.5168, 16.73706
952.9989, 19.15967
953.4810, 18.43701
953.9631, 16.29370
954.4453, 14.52612
954.9274, 13.12744
955.4095, 11.78687
955.8916, 10.37842
956.3737, 10.38184
956.8558, 15.03052
957.3380, 19.70850
957.8201, 20.49927
958.3022, 16.94214
958.7843, 14.40381
959.2664, 12.84277
959.7485, 12.45312
960.2307, 14.08057
960.7128, 16.43140
961.1949, 16.12256
961.6770, 13.78760
962.1591, 11.65674
962.6412, 11.19287
963.1234, 10.69629
963.6055, 8.992920
964.0876, 7.084717
964.5697, 7.063232
965.0518, 9.931885
965.5339, 9.673340
966.0161, 4.882324
966.4982, 0.6911620
966.9803, 3.764648
967.4624, 4.274170
967.9445, 0.4282230
968.4266, 8.892578
968.9088, 14.88159
969.3909, 11.74194
969.8730, 6.684570
970.3551, 2.905029
970.8372, 0.4357910
971.3193, 6.8604000E-02
971.8015, 1.376953
972.2836, 3.667725
972.7657, 7.201416
973.2478, 10.37085
973.7299, 10.59229
974.2120, 8.968506
974.6942, 8.270264
975.1763, 10.65723
975.6584, 12.20239
976.1405, 11.89258
976.6226, 11.13062
977.1047, 12.57275
977.5869, 15.87524
978.0690, 16.16089
978.5511, 12.29883
979.0332, 9.684570
979.5153, 14.86108
979.9974, 22.06787
980.4796, 26.17822
980.9617, 26.30518
981.4438, 24.89111
981.9259, 20.84570
982.4080, 18.00342
982.8901, 18.69507
983.3723, 21.36108
983.8544, 20.83276
984.3365, 18.13916
984.8186, 17.07349
985.3007, 20.90039
985.7828, 24.92261
986.2650, 27.36353
986.7471, 28.36865
987.2292, 28.04712
987.7113, 25.41455
988.1934, 25.29639
988.6755, 28.65405
989.1577, 32.11206
989.6398, 31.63770
990.1219, 28.90869
990.6040, 25.25659
991.0861, 20.50073
991.5682, 17.56909
992.0504, 20.67188
992.5325, 22.81812
993.0146, 20.01660
993.4967, 13.44678
993.9788, 11.16064
994.4609, 13.38257
994.9431, 14.20703
995.4252, 9.899170
995.9073, 4.821289
996.3894, 4.395752
996.8715, 6.458008
997.3536, 7.573975
997.8358, 5.850342
998.3179, 4.554199
998.8000, 3.485352
999.2821, 3.304688
999.7642, 5.008301
1000.246, 8.223145
1000.728, 11.27905
1001.211, 14.04346
1001.693, 15.44971
1002.175, 13.22949
1002.657, 10.79224
1003.139, 10.70654
1003.621, 12.61328
1004.103, 13.33716
1004.585, 12.60059
1005.068, 11.56812
1005.550, 10.25391
1006.032, 9.437256
1006.514, 11.11304
1006.996, 14.08472
1007.478, 15.90234
1007.960, 15.44238
1008.442, 14.93750
1008.924, 14.74023
1009.407, 15.09180
1009.889, 16.67920
1010.371, 19.61230
1010.853, 19.47925
1011.335, 16.24414
1011.817, 13.21924
1012.299, 12.83423
1012.781, 13.47192
1013.263, 13.76392
1013.746, 13.82812
1014.228, 14.26294
1014.710, 15.77661
1015.192, 16.49927
1015.674, 16.05664
1016.156, 14.87793
1016.638, 13.04199
1017.120, 11.02124
1017.603, 10.45190
1018.085, 11.72876
1018.567, 13.34521
1019.049, 15.12109
1019.531, 16.26245
1020.013, 16.03247
1020.495, 14.49707
1020.977, 13.23486
1021.459, 12.23218
1021.942, 11.55029
1022.424, 11.23389
1022.906, 11.24805
1023.388, 12.03735
1023.870, 13.05347
1024.352, 13.11914
1024.834, 10.88208
1025.316, 9.195313
1025.799, 8.802246
1026.281, 8.879395
1026.763, 8.415039
1027.245, 7.637207
1027.727, 8.416992
1028.209, 10.75293
1028.691, 12.20996
1029.173, 10.46045
1029.656, 7.939941
1030.138, 5.271973
1030.620, 3.050781
1031.102, 4.169434
1031.584, 9.767578
1032.066, 13.87598
1032.548, 14.74976
1033.030, 14.13965
1033.512, 14.12695
1033.995, 14.58545
1034.477, 15.43481
1034.959, 16.87476
1035.441, 17.79199
1035.923, 18.04248
1036.405, 17.52515
1036.887, 15.83032
1037.369, 13.20972
1037.851, 12.39819
1038.334, 13.10913
1038.816, 12.33398
1039.298, 5.977783
1039.780, 5.3467002E-02
1040.262, 0.2438960
1040.744, 2.462402
1041.226, 2.669922
1041.708, 1.137451
1042.191, 3.385010
1042.673, 3.489258
1043.155, 2.767578
1043.637, 2.463379
1044.119, 2.344971
1044.601, 2.369141
1045.083, 2.454346
1045.565, 1.255371
1046.047, 5.143311
1046.530, 8.406738
1047.012, 4.065674
1047.494, 4.036621
1047.976, 4.550781
1048.458, 1.652588
1048.940, 7.871338
1049.422, 12.91895
1049.904, 15.47095
1050.386, 12.23999
1050.869, 7.447754
1051.351, 5.404053
1051.833, 6.555420
1052.315, 9.029053
1052.797, 13.21509
1053.279, 16.89087
1053.761, 17.66089
1054.243, 17.86792
1054.726, 23.15698
1055.208, 31.20703
1055.690, 35.92383
1056.172, 30.70728
1056.654, 28.17334
1057.136, 30.78320
1057.618, 35.65820
1058.100, 40.26270
1058.583, 44.34570
1059.065, 44.90576
1059.547, 41.86475
1060.029, 41.24854
1060.511, 49.79321
1060.993, 59.67944
1061.475, 65.90527
1061.957, 69.27515
1062.439, 73.20386
1062.922, 77.34424
1063.404, 84.80981
1063.886, 97.25830
1064.368, 110.4707
1064.850, 118.8240
1065.332, 124.9895
1065.814, 132.1277
1066.296, 140.1843
1066.778, 152.2932
1067.261, 170.9004
1067.743, 189.1853
1068.225, 202.3721
1068.707, 213.2949
1069.189, 231.7400
1069.671, 255.8425
1070.153, 279.1018
1070.635, 297.3037
1071.118, 316.0195
1071.600, 336.7268
1072.082, 359.1514
1072.564, 383.4094
1073.046, 409.5552
1073.528, 434.0098
1074.010, 456.2451
1074.492, 479.1855
1074.974, 505.6018
1075.457, 533.0938
1075.939, 559.5032
1076.421, 584.5063
1076.903, 609.5479
1077.385, 634.6567
1077.867, 659.1299
1078.349, 682.3647
1078.831, 705.7834
1079.313, 732.6270
1079.796, 760.4951
1080.278, 785.1707
1080.760, 806.2527
1081.242, 824.7253
1081.724, 842.5393
1082.206, 855.8291
1082.688, 864.1367
1083.170, 866.0596
1083.652, 856.0073
1084.135, 834.9421
1084.617, 808.6587
1085.099, 780.5759
1085.581, 743.5183
1086.063, 688.9802
1086.545, 626.3928
1087.027, 562.7505
1087.509, 498.3918
1087.992, 434.2734
1088.474, 369.8516
1088.956, 312.0154
1089.438, 266.9390
1089.920, 228.9888
1090.402, 191.7219
1090.884, 156.4224
1091.366, 125.9771
1091.849, 99.32935
1092.331, 80.86890
1092.813, 72.31787
1093.295, 67.63330
1093.777, 61.75830
1094.259, 54.99805
1094.741, 47.16113
1095.223, 38.63257
1095.705, 31.96753
1096.188, 29.89429
1096.670, 27.95728
1097.152, 25.23901
1097.634, 21.87476
1098.116, 17.81030
1098.598, 13.43872
1099.080, 10.00024
1099.562, 7.525391
1100.044, 6.775146
1100.527, 10.65796
1101.009, 14.56836
1101.491, 15.00537
1101.973, 12.58691
1102.455, 11.07227
1102.937, 10.46631
1103.419, 9.675781
1103.901, 8.285156
1104.384, 6.636963
1104.866, 4.176025
1105.348, 2.179199
1105.830, 2.924072
1106.312, 8.113281
1106.794, 11.03711
1107.276, 11.27173
1107.758, 10.54346
1108.240, 9.430664
1108.723, 8.317383
1109.205, 7.626465
1109.687, 7.502197
1110.169, 8.248535
1110.651, 11.33203
1111.133, 13.37622
1111.615, 14.27295
1112.097, 14.03394
1112.579, 12.10449
1113.062, 9.103027
1113.544, 7.211426
1114.026, 6.416504
1114.508, 6.179688
1114.990, 7.315674
1115.472, 7.597656
1115.954, 5.041260
1116.436, 2.068115
1116.919, 3.061523
1117.401, 7.660156
1117.883, 9.866211
1118.365, 8.942627
1118.847, 7.245605
1119.329, 5.199707
1119.811, 4.173584
1120.293, 6.214600
1120.776, 10.19604
1121.258, 11.31763
1121.740, 9.241699
1122.222, 7.548096
1122.704, 7.196533
1123.186, 6.909912
1123.668, 5.147461
1124.150, 2.818115
1124.632, 0.8627930
1125.115, 0.5334470
1125.597, 1.873779
1126.079, 3.466309
1126.561, 3.779053
1127.043, 1.844238
1127.525, 1.175537
1128.007, 3.933350
1128.489, 6.225342
1128.971, 7.763428
1129.454, 8.854492
1129.936, 7.722412
1130.418, 2.621826
1130.900, 1.438965
1131.382, 0.4523930
1131.864, 3.270020
1132.346, 1.904541
1132.828, 2.727051
1133.311, 4.802734
1133.793, 0.8967290
1134.275, 5.427246
1134.757, 6.509766
1135.239, 6.107666
1135.721, 5.727783
1136.203, 5.321777
1136.685, 4.188965
1137.167, 2.468262
1137.650, 1.518066
1138.132, 2.227783
1138.614, 3.772705
1139.096, 7.279541
1139.578, 10.59668
1140.060, 10.25488
1140.542, 6.201416
1141.024, 2.774414
1141.506, 0.3242190
1141.989, 1.160645
1142.471, 1.412842
1142.953, 0.9641110
1143.435, 0.6130370
1143.917, 2.533447
1144.399, 1.955811
1144.881, 1.671631
1145.363, 3.205322
1145.846, 1.449463
1146.328, 0.7272950
1146.810, 0.1972660
1147.292, 1.144287
1147.774, 1.703369
1148.256, 1.249023
1148.738, 0.2565920
1149.220, 3.036377
1149.703, 6.197998
1150.185, 10.01807
1150.667, 12.59741
1151.149, 9.269043
1151.631, 4.210205
1152.113, 3.683105
1152.595, 9.471680
1153.077, 13.74951
1153.559, 16.12378
1154.042, 16.38818
1154.524, 13.37158
1155.006, 9.743652
1155.488, 11.76929
1155.970, 16.52490
1156.452, 17.96558
1156.934, 13.02563
1157.416, 9.697021
1157.898, 9.510498
1158.381, 9.881348
1158.863, 9.472656
1159.345, 8.556152
1159.827, 8.073242
1160.309, 7.756104
1160.791, 6.850586
1161.273, 5.170898
1161.755, 2.707764
1162.238, 2.061279
1162.720, 5.400146
1163.202, 3.543457
1163.684, 2.285889
1164.166, 5.818115
1164.648, 7.297607
1165.130, 7.672363
1165.612, 6.313721
1166.094, 5.229248
1166.577, 4.683350
1167.059, 4.898926
1167.541, 6.377930
1168.023, 8.908203
1168.505, 11.18823
1168.987, 13.06470
1169.469, 13.94751
1169.951, 11.75513
1170.433, 10.42285
1170.916, 13.18433
1171.398, 16.88721
1171.880, 17.33496
1172.362, 14.71069
1172.844, 11.81030
1173.326, 8.920410
1173.808, 6.706787
1174.290, 5.511963
1174.773, 5.380859
1175.255, 7.348877
1175.737, 10.10913
1176.219, 11.38330
1176.701, 11.20239
1177.183, 8.553223
1177.665, 3.078613
1178.147, 0.9787600
1178.630, 1.805420
1179.112, 5.277588
1179.594, 4.073242
1180.076, 5.3710002E-03
1180.558, 0.6032710
1181.040, 2.443604
1181.522, 5.449707
1182.004, 7.775146
1182.486, 9.319336
1182.969, 9.186035
1183.451, 8.736328
1183.933, 9.448242
1184.415, 11.04688
1184.897, 11.11108
1185.379, 9.481445
1185.861, 7.788574
1186.343, 6.273438
1186.825, 5.762695
1187.308, 9.045410
1187.790, 12.36060
1188.272, 11.06470
1188.754, 5.172119
1189.236, 2.814941
1189.718, 4.416748
1190.200, 6.262207
1190.682, 7.271240
1191.165, 7.450195
1191.647, 6.457031
1192.129, 5.124268
1192.611, 4.412598
1193.093, 4.386475
1193.575, 6.149658
1194.057, 10.14404
1194.539, 12.11597
1195.021, 9.045166
1195.504, 5.965576
1195.986, 9.836426
1196.468, 16.39771
1196.950, 20.10913
1197.432, 20.03052
1197.914, 19.80591
1198.396, 19.46289
1198.878, 18.58594
1199.360, 16.58276
1199.843, 14.54688
1200.325, 14.16577
1200.807, 14.62134
1201.289, 14.70044
1201.771, 14.05542
1202.253, 14.11304
1202.735, 14.98706
1203.217, 15.56641
1203.700, 15.17310
1204.182, 14.59180
1204.664, 14.96802
1205.146, 15.57568
1205.628, 15.14087
1206.110, 12.89453
1206.592, 11.97461
1207.074, 12.34619
1207.557, 13.61499
1208.039, 16.47266
1208.521, 19.11401
1209.003, 17.88599
1209.485, 15.47852
1209.967, 17.43677
1210.449, 27.43994
1210.931, 31.62280
1211.413, 29.31006
1211.896, 25.46313
1212.378, 22.30640
1212.860, 20.47559
1213.342, 21.72290
1213.824, 24.61182
1214.306, 26.09351
1214.788, 25.39697
1215.270, 25.59424
1215.752, 26.93604
1216.235, 27.77954
1216.717, 26.98120
1217.199, 25.03564
1217.681, 21.38354
1218.163, 17.21680
1218.645, 15.47803
1219.127, 17.11572
1219.609, 17.53442
1220.092, 16.37793
1220.574, 14.91504
1221.056, 14.19263
1221.538, 14.13159
1222.020, 14.74219
1222.502, 15.75220
1222.984, 16.43506
1223.466, 17.79248
1223.948, 17.77319
1224.431, 20.51685
1224.913, 22.95972
1225.395, 24.17749
1225.877, 24.02588
1226.359, 21.26172
1226.841, 17.29590
1227.323, 15.51001
1227.805, 16.21387
1228.287, 17.29077
1228.770, 18.62183
1229.252, 19.75464
1229.734, 20.23975
1230.216, 20.44312
1230.698, 20.28223
1231.180, 20.12378
1231.662, 20.89600
1232.144, 22.69580
1232.627, 23.57837
1233.109, 23.34155
1233.591, 23.40210
1234.073, 25.92798
1234.555, 28.00854
1235.037, 27.25879
1235.519, 24.92188
1236.001, 23.05347
1236.484, 21.72510
1236.966, 22.37793
1237.448, 25.13770
1237.930, 26.15405
1238.412, 19.42236
1238.894, 13.68091
1239.376, 15.61719
1239.858, 20.90942
1240.340, 22.37109
1240.823, 20.43872
1241.305, 21.10693
1241.787, 24.79883
1242.269, 27.05835
1242.751, 22.43726
1243.233, 19.01782
1243.715, 21.47144
1244.197, 26.10107
1244.679, 26.67700
1245.162, 24.19849
1245.644, 24.33350
1246.126, 27.19141
1246.608, 29.45947
1247.090, 27.67993
1247.572, 27.26392
1248.054, 30.74048
1248.536, 35.10571
1249.019, 34.83154
1249.501, 31.66577
1249.983, 31.55713
1250.465, 34.75049
1250.947, 37.76587
1251.429, 40.06445
1251.911, 40.34961
1252.393, 37.63574
1252.875, 34.19238
1253.358, 33.05151
1253.840, 33.52539
1254.322, 34.73267
1254.804, 36.32617
1255.286, 36.13501
1255.768, 32.65161
1256.250, 28.65894
1256.732, 23.97339
1257.214, 20.61719
1257.697, 22.07275
1258.179, 25.99414
1258.661, 29.71240
1259.143, 32.62280
1259.625, 31.65356
1260.107, 23.86279
1260.589, 19.86475
1261.071, 21.71094
1261.554, 25.34814
1262.036, 27.40820
1262.518, 28.11426
1263.000, 27.32812
1263.482, 25.31226
1263.964, 23.19653
1264.446, 20.67676
1264.928, 19.67017
1265.411, 20.53247
1265.893, 21.90283
1266.375, 22.24927
1266.857, 22.81348
1267.339, 24.92969
1267.821, 28.13037
1268.303, 31.17432
1268.785, 34.22803
1269.267, 34.56519
1269.750, 31.82202
1270.232, 28.79761
1270.714, 27.63794
1271.196, 26.80640
1271.678, 25.42456
1272.160, 23.71753
1272.642, 21.40405
1273.124, 18.74316
1273.606, 19.92529
1274.089, 25.02856
1274.571, 29.33789
1275.053, 30.82495
1275.535, 29.84814
1276.017, 25.59424
1276.499, 20.29004
1276.981, 16.34863
1277.463, 13.86914
1277.946, 13.70117
1278.428, 15.58179
1278.910, 17.34814
1279.392, 17.94604
1279.874, 18.53491
1280.356, 19.78174
1280.838, 20.16675
1281.320, 16.82593
1281.802, 11.87695
1282.285, 10.04712
1282.767, 10.79834
1283.249, 11.00928
1283.731, 9.439453
1284.213, 8.109863
1284.695, 7.145996
1285.177, 6.615967
1285.659, 6.628906
1286.141, 7.105713
1286.624, 8.586670
1287.106, 10.40405
1287.588, 10.60962
1288.070, 8.870117
1288.552, 6.588379
1289.034, 3.751709
1289.516, 1.637695
1289.998, 1.888672
1290.481, 2.580811
1290.963, 2.094482
1291.445, 0.9973140
1291.927, 0.1816410
1292.409, 0.4116210
1292.891, 0.2231450
1293.373, 1.996094
1293.855, 3.061523
1294.338, 1.588379
1294.820, 1.1719000E-02
1295.302, 1.266113
1295.784, 1.450928
1296.266, 0.9001460
1296.748, 5.208740
1297.230, 6.665771
1297.712, 6.143799
1298.194, 6.922607
1298.677, 12.00610
1299.159, 14.97632
1299.641, 12.65747
1300.123, 11.07715
1300.605, 12.11670
1301.087, 14.11450
1301.569, 12.49365
1302.051, 8.479004
1302.533, 4.630371
1303.016, 0.0000000E+00
##END=



