##NAMES=Hagendorfite
##RRUFFID=R130128
##IDEAL CHEMISTRY=NaCaMn^2+^Fe^2+^_2_(PO_4_)_3_
##LOCALITY=Hagendorf, Waidhaus, Vohenstrauß, Oberpfälzer Wald, Upper Palatinate, Bavaria, Germany
##OWNER=RRUFF
##SOURCE=Rock Currier
##DESCRIPTION=Black massive, associated with dark brown wolfeite
##STATUS=The identification of this mineral has been confirmed only by single crystal X-ray diffraction.
##URL=rruff.info/R130128
178.0711, 0.0000000E+00
178.5532, 0.2605820
179.0353, 5.6389000E-02
179.5175, 4.4280998E-02
179.9996, 0.7937200
180.4817, 1.714397
180.9638, 1.768364
181.4459, 0.8490260
181.9280, 0.2413830
182.4102, 0.3283580
182.8923, 0.4495470
183.3744, 1.273209
183.8565, 1.560036
184.3386, 1.476204
184.8207, 1.466816
185.3029, 1.576618
185.7850, 1.812878
186.2671, 2.289871
186.7492, 2.989132
187.2313, 3.612110
187.7134, 3.826706
188.1956, 3.744289
188.6777, 3.909786
189.1598, 4.497005
189.6419, 5.279095
190.1240, 5.772316
190.6061, 5.975056
191.0883, 6.069801
191.5704, 6.112877
192.0525, 6.127953
192.5346, 6.360497
193.0167, 6.922409
193.4988, 7.632542
193.9810, 7.866592
194.4631, 7.543919
194.9452, 7.181950
195.4273, 6.865711
195.9094, 6.594437
196.3915, 6.597134
196.8737, 7.037571
197.3558, 7.729301
197.8379, 7.925919
198.3200, 7.526527
198.8021, 7.111958
199.2842, 7.305756
199.7664, 8.149174
200.2485, 8.740562
200.7306, 8.819511
201.2127, 8.504585
201.6948, 8.493248
202.1769, 8.868610
202.6591, 9.286201
203.1412, 9.315548
203.6233, 8.865692
204.1054, 8.729610
204.5875, 9.152027
205.0696, 10.06519
205.5518, 10.90114
206.0339, 11.67076
206.5160, 12.34466
206.9981, 12.94302
207.4802, 13.51557
207.9623, 13.74289
208.4445, 13.41894
208.9266, 12.57805
209.4087, 12.11579
209.8908, 12.08006
210.3729, 12.31239
210.8550, 12.70113
211.3372, 13.31625
211.8193, 13.82296
212.3014, 14.11020
212.7835, 14.17556
213.2656, 14.29741
213.7477, 14.46944
214.2299, 14.70538
214.7120, 15.04766
215.1941, 15.57069
215.6762, 16.00070
216.1583, 16.28063
216.6404, 16.40810
217.1226, 16.37558
217.6047, 16.09248
218.0868, 15.75749
218.5689, 15.62376
219.0510, 15.77904
219.5331, 15.92297
220.0153, 15.94386
220.4974, 15.81244
220.9795, 15.91662
221.4616, 16.36796
221.9437, 16.93950
222.4258, 17.38066
222.9080, 17.72108
223.3901, 17.85769
223.8722, 17.67781
224.3543, 17.10854
224.8364, 16.84342
225.3185, 16.95942
225.8007, 17.30461
226.2828, 17.73749
226.7649, 18.39804
227.2470, 18.85237
227.7291, 18.90562
228.2112, 18.47672
228.6934, 18.30240
229.1755, 18.57665
229.6576, 18.93458
230.1397, 18.85887
230.6218, 18.04820
231.1039, 17.36121
231.5861, 17.07982
232.0682, 17.28822
232.5503, 17.25781
233.0324, 16.77624
233.5145, 16.23848
233.9966, 16.18137
234.4788, 16.92201
234.9609, 17.57601
235.4430, 17.85186
235.9251, 17.59970
236.4072, 17.65871
236.8893, 18.16851
237.3715, 18.87858
237.8536, 19.49155
238.3357, 20.05581
238.8178, 20.43437
239.2999, 20.48330
239.7820, 20.09202
240.2642, 20.16518
240.7463, 20.91628
241.2284, 21.95576
241.7105, 22.85997
242.1926, 23.72709
242.6747, 24.27225
243.1569, 24.36472
243.6390, 23.94883
244.1211, 23.49515
244.6032, 22.83411
245.0853, 22.27926
245.5674, 22.28136
246.0496, 23.34850
246.5317, 24.02648
247.0138, 23.88096
247.4959, 22.81815
247.9780, 22.02042
248.4601, 21.59357
248.9423, 21.32143
249.4244, 20.97855
249.9065, 20.56745
250.3886, 20.07556
250.8707, 19.41436
251.3528, 18.56636
251.8350, 18.12852
252.3171, 18.38685
252.7992, 18.74926
253.2813, 18.55002
253.7634, 17.44200
254.2455, 16.53018
254.7277, 16.06969
255.2098, 16.06585
255.6919, 16.07743
256.1740, 16.17667
256.6561, 16.20820
257.1382, 15.98942
257.6204, 15.38335
258.1025, 14.81907
258.5846, 14.36002
259.0667, 14.00564
259.5488, 13.84576
260.0309, 13.99805
260.5131, 14.13946
260.9952, 13.96255
261.4773, 13.34062
261.9594, 12.79414
262.4415, 12.37299
262.9236, 12.07627
263.4058, 12.01303
263.8879, 12.30587
264.3700, 12.64445
264.8521, 12.76194
265.3342, 12.57702
265.8163, 12.43125
266.2985, 12.42076
266.7806, 12.51212
267.2627, 12.46794
267.7448, 12.20397
268.2269, 11.92079
268.7090, 11.80394
269.1912, 11.92329
269.6733, 11.90985
270.1554, 11.67774
270.6375, 11.29036
271.1196, 10.92630
271.6017, 10.56996
272.0839, 10.27835
272.5660, 10.14529
273.0481, 10.21681
273.5302, 10.11018
274.0123, 9.686523
274.4944, 9.125557
274.9766, 9.028572
275.4587, 9.524639
275.9408, 9.984138
276.4229, 9.922367
276.9050, 9.276424
277.3871, 8.939198
277.8693, 9.057137
278.3514, 9.421509
278.8335, 9.570232
279.3156, 9.479057
279.7977, 9.322403
280.2798, 9.222023
280.7620, 9.180412
281.2441, 8.973949
281.7262, 8.566311
282.2083, 8.035316
282.6904, 7.434875
283.1725, 6.745113
283.6547, 6.260677
284.1368, 6.181179
284.6189, 6.478142
285.1010, 6.870129
285.5831, 7.419178
286.0652, 7.870567
286.5474, 7.728222
287.0295, 7.005753
287.5116, 6.366528
287.9937, 6.209858
288.4758, 6.423550
288.9579, 6.345871
289.4401, 5.946476
289.9222, 5.418171
290.4043, 4.877964
290.8864, 4.356308
291.3685, 4.113979
291.8506, 4.502254
292.3328, 5.216240
292.8149, 5.250698
293.2970, 4.563068
293.7791, 3.732849
294.2612, 3.344563
294.7433, 3.320843
295.2255, 3.374981
295.7076, 3.466866
296.1897, 3.548157
296.6718, 3.531494
297.1539, 3.418045
297.6360, 3.215092
298.1182, 2.799770
298.6003, 2.295391
299.0824, 2.012627
299.5645, 2.108799
300.0466, 2.386097
300.5287, 2.640053
301.0109, 2.856594
301.4930, 2.935612
301.9751, 2.672958
302.4572, 2.246792
302.9393, 1.993607
303.4214, 2.070938
303.9036, 2.177628
304.3857, 1.854328
304.8678, 1.239838
305.3499, 0.8357320
305.8320, 1.208088
306.3141, 1.867863
306.7963, 2.206112
307.2784, 2.064659
307.7605, 1.774746
308.2426, 1.589413
308.7247, 1.466175
309.2068, 1.303604
309.6890, 0.9794960
310.1711, 0.6317750
310.6532, 0.3742900
311.1353, 0.2196730
311.6174, 0.1547970
312.0995, 0.3135030
312.5817, 0.5387420
313.0638, 0.5888210
313.5459, 0.1618610
314.0280, 0.3275530
314.5101, 0.6322820
314.9922, 0.7147600
315.4744, 0.7605630
315.9565, 0.9062770
316.4386, 1.038925
316.9207, 1.021126
317.4028, 0.5674100
317.8849, 0.1825870
318.3671, 0.1478390
318.8492, 0.4461020
319.3313, 0.6826020
319.8134, 0.6602440
320.2955, 0.5534400
320.7776, 0.5001830
321.2598, 0.6394420
321.7419, 0.7213330
322.2240, 0.6132160
322.7061, 0.3699260
323.1882, 0.2692410
323.6703, 0.5645260
324.1525, 0.8717160
324.6346, 0.9689100
325.1167, 0.6462590
325.5988, 0.3958050
326.0809, 0.3519520
326.5630, 0.4088820
327.0452, 0.2989770
327.5273, 0.1947670
328.0094, 0.6621250
328.4915, 0.9644660
328.9736, 1.079460
329.4557, 1.045033
329.9379, 0.6602630
330.4200, 0.2194630
330.9021, 0.2333150
331.3842, 1.055939
331.8663, 1.782051
332.3484, 2.116619
332.8306, 1.979618
333.3127, 2.043213
333.7948, 2.434349
334.2769, 2.918884
334.7590, 3.247089
335.2411, 3.414684
335.7233, 3.424198
336.2054, 3.172276
336.6875, 2.693916
337.1696, 2.650215
337.6517, 3.200455
338.1339, 3.873352
338.6160, 4.263069
339.0981, 4.299343
339.5802, 4.440922
340.0623, 4.803402
340.5444, 5.292503
341.0266, 5.543243
341.5087, 5.510792
341.9908, 5.464882
342.4729, 5.568371
342.9550, 5.819603
343.4371, 6.137272
343.9193, 6.531334
344.4014, 6.952976
344.8835, 7.360321
345.3656, 7.752323
345.8477, 7.977688
346.3298, 7.822266
346.8120, 7.405651
347.2941, 7.298138
347.7762, 7.550941
348.2583, 7.901134
348.7404, 7.983112
349.2225, 7.872749
349.7047, 7.901089
350.1868, 8.412624
350.6689, 9.044163
351.1510, 9.046139
351.6331, 8.429359
352.1152, 7.771751
352.5974, 7.636375
353.0795, 7.790077
353.5616, 7.802719
354.0437, 7.541702
354.5258, 7.113174
355.0079, 6.450752
355.4901, 5.646481
355.9722, 5.095566
356.4543, 5.366608
356.9364, 5.862103
357.4185, 5.923458
357.9006, 5.291660
358.3828, 4.604034
358.8649, 4.256588
359.3470, 4.138744
359.8291, 4.021545
360.3112, 3.859497
360.7933, 3.627422
361.2755, 3.239948
361.7576, 2.645573
362.2397, 2.225651
362.7218, 2.307640
363.2039, 2.575047
363.6860, 2.674721
364.1682, 2.282574
364.6503, 1.933342
365.1324, 1.838699
365.6145, 1.988407
366.0966, 2.089352
366.5787, 2.062313
367.0609, 1.991219
367.5430, 1.929829
368.0251, 1.978539
368.5072, 1.922222
368.9893, 1.713440
369.4714, 1.385960
369.9536, 1.044125
370.4357, 0.5399440
370.9178, 0.1775250
371.3999, 0.1103480
371.8820, 0.4911770
372.3641, 0.7412640
372.8463, 0.8707080
373.3284, 0.8752860
373.8105, 0.7057500
374.2926, 0.2421650
374.7747, 0.1180990
375.2568, 0.2234000
375.7390, 7.6782003E-02
376.2211, 4.4312000E-02
376.7032, 0.1285440
377.1853, 0.1740680
377.6674, 0.1838190
378.1495, 0.1575580
378.6317, 0.1292720
379.1138, 9.2674002E-02
379.5959, 5.5098999E-02
380.0780, 5.3513002E-02
380.5601, 9.9854000E-02
381.0422, 0.1192780
381.5244, 1.1120000E-02
382.0065, 0.1979900
382.4886, 0.3161960
382.9707, 0.2795520
383.4528, 0.2052760
383.9349, 0.3106230
384.4171, 0.5600130
384.8992, 0.7275660
385.3813, 0.6765100
385.8634, 0.4874150
386.3455, 0.1824490
386.8276, 0.2477530
387.3098, 0.5133710
387.7919, 0.1294020
388.2740, 0.5636940
388.7561, 0.9518660
389.2382, 0.7083320
389.7203, 0.2090720
390.2025, 0.3823360
390.6846, 1.011833
391.1667, 1.435173
391.6488, 1.338829
392.1309, 1.068165
392.6130, 0.9315720
393.0952, 1.086521
393.5773, 1.168781
394.0594, 0.8662760
394.5415, 0.4003030
395.0236, 0.1814040
395.5057, 0.4917640
395.9879, 0.9350620
396.4700, 1.397995
396.9521, 1.891758
397.4342, 2.271988
397.9163, 2.381660
398.3984, 2.433064
398.8806, 2.619801
399.3627, 3.320408
399.8448, 3.732536
400.3269, 3.617409
400.8090, 3.063793
401.2911, 2.750137
401.7733, 2.754253
402.2554, 2.900688
402.7375, 3.126053
403.2196, 3.519482
403.7017, 3.746578
404.1838, 3.699852
404.6660, 3.564590
405.1481, 3.732681
405.6302, 4.297760
406.1123, 4.825256
406.5944, 5.172749
407.0765, 5.344238
407.5587, 5.387939
408.0408, 5.279415
408.5229, 5.135956
409.0050, 5.068687
409.4871, 5.075481
409.9692, 5.112274
410.4514, 5.146637
410.9335, 5.229103
411.4156, 5.546658
411.8977, 6.071041
412.3798, 6.502083
412.8619, 6.537174
413.3441, 6.353508
413.8262, 6.306026
414.3083, 6.452637
414.7904, 6.643974
415.2725, 6.678352
415.7546, 6.650906
416.2368, 6.758839
416.7189, 7.295624
417.2010, 7.856567
417.6831, 8.049805
418.1652, 7.894344
418.6473, 7.816856
419.1295, 8.106937
419.6116, 8.550755
420.0937, 8.956497
420.5758, 9.263672
421.0579, 9.553276
421.5400, 9.780010
422.0222, 10.00781
422.5043, 10.39966
422.9864, 11.07512
423.4685, 11.84555
423.9506, 12.66388
424.4327, 13.54686
424.9149, 14.39795
425.3970, 15.27143
425.8791, 16.07948
426.3612, 16.71619
426.8433, 16.87990
427.3254, 17.37294
427.8076, 18.52982
428.2897, 20.18380
428.7718, 21.07177
429.2539, 20.87795
429.7360, 20.59138
430.2181, 20.77312
430.7003, 21.46958
431.1824, 22.32420
431.6645, 23.38020
432.1466, 24.46912
432.6287, 25.25508
433.1108, 25.73796
433.5930, 26.28458
434.0751, 27.03150
434.5572, 27.94017
435.0393, 28.96561
435.5214, 30.10978
436.0035, 31.12984
436.4857, 31.67303
436.9678, 31.91726
437.4499, 32.35062
437.9320, 33.20557
438.4141, 34.03715
438.8962, 34.38960
439.3784, 34.31282
439.8605, 33.96458
440.3426, 33.13722
440.8247, 32.28249
441.3068, 31.89788
441.7889, 32.07341
442.2711, 31.96928
442.7532, 30.93101
443.2353, 29.51350
443.7174, 28.28827
444.1995, 27.52291
444.6816, 26.86856
445.1638, 26.22467
445.6459, 25.58844
446.1280, 24.93952
446.6101, 24.33616
447.0922, 23.74348
447.5743, 23.15672
448.0565, 22.62386
448.5386, 21.92458
449.0207, 20.85194
449.5028, 19.74295
449.9849, 19.09196
450.4670, 19.15170
450.9492, 19.08754
451.4313, 18.68503
451.9134, 17.99730
452.3955, 17.38049
452.8776, 16.82407
453.3597, 16.42229
453.8419, 16.30364
454.3240, 16.45776
454.8061, 16.50793
455.2882, 16.41149
455.7703, 16.23476
456.2524, 16.07249
456.7346, 15.91801
457.2167, 15.74729
457.6988, 15.50148
458.1809, 15.25143
458.6630, 15.11347
459.1451, 15.08012
459.6273, 15.10833
460.1094, 15.21727
460.5915, 15.36984
461.0736, 15.49687
461.5557, 15.52296
462.0378, 15.65828
462.5200, 16.17517
463.0021, 16.89469
463.4842, 17.45807
463.9663, 17.61205
464.4484, 17.71270
464.9305, 17.93842
465.4127, 18.29018
465.8948, 18.52355
466.3769, 18.47666
466.8590, 18.39961
467.3411, 18.47133
467.8232, 18.89563
468.3054, 19.17739
468.7875, 19.30065
469.2696, 19.29222
469.7517, 19.17459
470.2338, 18.92078
470.7159, 18.51706
471.1981, 17.89915
471.6802, 17.06810
472.1623, 16.51953
472.6444, 16.32722
473.1265, 16.20861
473.6086, 15.87991
474.0908, 15.36616
474.5729, 14.95957
475.0550, 14.70556
475.5371, 14.52633
476.0192, 14.38900
476.5013, 14.29604
476.9835, 14.14578
477.4656, 13.85920
477.9477, 13.48402
478.4298, 13.02618
478.9119, 12.47973
479.3940, 12.09092
479.8762, 12.20162
480.3583, 12.54498
480.8404, 12.77834
481.3225, 12.86633
481.8046, 12.74027
482.2867, 12.20866
482.7689, 11.42518
483.2510, 10.78444
483.7331, 10.42071
484.2152, 10.22351
484.6973, 10.17505
485.1794, 10.30256
485.6616, 10.42237
486.1437, 10.56109
486.6258, 10.66036
487.1079, 10.67603
487.5900, 10.60165
488.0721, 10.44128
488.5543, 10.13382
489.0364, 9.759418
489.5185, 9.578365
490.0006, 9.655693
490.4827, 9.722603
490.9648, 9.643600
491.4470, 9.427757
491.9291, 9.285982
492.4112, 9.231560
492.8933, 9.191734
493.3754, 9.106855
493.8575, 8.977169
494.3397, 8.796719
494.8218, 8.553553
495.3039, 8.284826
495.7860, 8.054276
496.2681, 7.847607
496.7502, 7.616123
497.2324, 7.245655
497.7145, 6.890747
498.1966, 6.770744
498.6787, 6.895201
499.1608, 6.882170
499.6429, 6.398216
500.1251, 5.754599
500.6072, 5.214527
501.0893, 4.909925
501.5714, 4.621529
502.0535, 4.296413
502.5356, 3.952452
503.0178, 3.628061
503.4999, 3.193607
503.9820, 2.926394
504.4641, 3.026529
504.9462, 3.528320
505.4283, 3.478870
505.9105, 2.549768
506.3926, 1.580006
506.8747, 1.278851
507.3568, 1.772738
507.8389, 2.063034
508.3210, 2.020838
508.8032, 1.802883
509.2853, 1.680025
509.7674, 1.644495
510.2495, 1.565800
510.7316, 1.317795
511.2137, 1.020174
511.6959, 0.9839150
512.1780, 1.188526
512.6601, 1.363049
513.1422, 1.297016
513.6243, 1.088488
514.1064, 0.8453920
514.5886, 0.5685830
515.0707, 0.3254320
515.5528, 0.1018770
516.0349, 4.6397999E-02
516.5170, 4.3786999E-02
516.9991, 0.3841360
517.4813, 0.7144550
517.9634, 0.7270360
518.4455, 0.4575480
518.9276, 0.2204820
519.4097, 5.4547999E-02
519.8918, 7.1138002E-02
520.3740, 0.1495270
520.8561, 0.1351180
521.3382, 0.2461360
521.8203, 0.5904560
522.3024, 0.9366910
522.7845, 0.9660950
523.2667, 0.5981480
523.7488, 0.3817330
524.2309, 0.4724200
524.7130, 0.7377680
525.1951, 0.8215770
525.6772, 0.7288570
526.1594, 0.6761040
526.6415, 0.9032440
527.1236, 1.236935
527.6057, 1.227903
528.0878, 0.8582040
528.5699, 0.4673960
529.0521, 0.3633210
529.5342, 0.4001770
530.0163, 0.3745900
530.4984, 0.1612220
530.9805, 9.7890003E-03
531.4626, 0.1867690
531.9448, 0.5126110
532.4269, 0.6389480
532.9090, 0.2411120
533.3911, 0.1521240
533.8732, 0.3469090
534.3553, 0.3264900
534.8375, 0.3399700
535.3196, 0.3288230
535.8017, 0.4157410
536.2838, 0.7111890
536.7659, 1.397642
537.2480, 1.742725
537.7302, 1.592152
538.2123, 1.302277
538.6944, 1.458979
539.1765, 2.102566
539.6586, 2.625727
540.1407, 2.804676
540.6229, 2.807570
541.1050, 3.041765
541.5871, 3.487267
542.0692, 3.938242
542.5513, 4.254850
543.0334, 4.505690
543.5156, 4.819996
543.9977, 5.212666
544.4798, 5.532108
544.9619, 5.629168
545.4440, 5.609760
545.9261, 5.577421
546.4083, 5.435833
546.8904, 5.461775
547.3725, 5.951630
547.8546, 6.660412
548.3367, 7.075813
548.8188, 6.708649
549.3010, 6.478046
549.7831, 6.657110
550.2652, 7.238729
550.7473, 7.724291
551.2294, 8.111633
551.7115, 8.407179
552.1937, 8.634008
552.6758, 8.803032
553.1579, 8.750525
553.6400, 8.394146
554.1221, 8.027069
554.6042, 8.140862
555.0864, 8.647728
555.5685, 8.986671
556.0506, 8.921242
556.5327, 8.690697
557.0148, 8.611048
557.4969, 8.654621
557.9791, 8.718618
558.4612, 8.851240
558.9433, 8.905426
559.4254, 8.650806
559.9075, 8.064571
560.3896, 7.702293
560.8718, 8.057560
561.3539, 8.562782
561.8360, 8.794506
562.3181, 8.478081
562.8002, 8.207642
563.2823, 7.996670
563.7645, 7.859215
564.2466, 7.830814
564.7287, 7.965128
565.2108, 8.090660
565.6929, 8.176083
566.1750, 8.220636
566.6572, 8.198475
567.1393, 8.094584
567.6214, 8.032530
568.1035, 8.066950
568.5856, 8.199751
569.0677, 8.510143
569.5499, 9.014500
570.0320, 9.449434
570.5141, 9.474491
570.9962, 9.281292
571.4783, 9.187599
571.9604, 9.306860
572.4426, 9.465157
572.9247, 9.549038
573.4068, 9.593487
573.8889, 9.660812
574.3710, 9.869274
574.8531, 10.02962
575.3353, 10.01035
575.8174, 9.829159
576.2995, 9.781853
576.7816, 9.924610
577.2637, 10.14279
577.7458, 10.41569
578.2280, 10.78501
578.7101, 10.97821
579.1922, 10.93343
579.6743, 10.80860
580.1564, 10.77394
580.6385, 10.84556
581.1207, 10.96790
581.6028, 11.07425
582.0849, 11.29441
582.5670, 12.00991
583.0491, 13.05548
583.5313, 13.90865
584.0134, 14.12056
584.4955, 14.13361
584.9776, 14.35466
585.4597, 14.77266
585.9418, 15.21177
586.4240, 15.71192
586.9061, 16.08521
587.3882, 16.11988
587.8703, 15.59730
588.3524, 15.54982
588.8345, 16.42399
589.3167, 17.58201
589.7988, 18.56126
590.2809, 19.36425
590.7630, 20.05889
591.2451, 20.64273
591.7272, 21.10287
592.2094, 21.42342
592.6915, 21.59554
593.1736, 21.73079
593.6557, 21.84827
594.1378, 21.96757
594.6199, 22.17273
595.1021, 22.44327
595.5842, 22.64684
596.0663, 22.79437
596.5484, 22.77611
597.0305, 22.30990
597.5126, 21.35136
597.9948, 20.65199
598.4769, 21.08055
598.9590, 21.70802
599.4411, 21.71297
599.9232, 20.48558
600.4053, 19.37628
600.8875, 18.64836
601.3696, 18.13132
601.8517, 17.61201
602.3338, 17.14201
602.8159, 16.57244
603.2980, 15.84612
603.7802, 15.00845
604.2623, 14.14661
604.7444, 13.24540
605.2265, 12.50982
605.7086, 12.17831
606.1907, 12.09987
606.6729, 11.69802
607.1550, 10.98072
607.6371, 10.25215
608.1192, 9.727417
608.6013, 9.354458
609.0834, 9.083179
609.5656, 8.908798
610.0477, 8.805882
610.5298, 8.898251
611.0119, 8.998409
611.4940, 8.895725
611.9761, 8.269003
612.4583, 7.765633
612.9404, 7.599068
613.4225, 7.600971
613.9046, 7.369793
614.3867, 6.756899
614.8688, 6.236246
615.3510, 5.968338
615.8331, 5.908791
616.3152, 5.759573
616.7973, 5.510700
617.2794, 5.281590
617.7615, 5.144276
618.2437, 5.066143
618.7258, 5.020365
619.2079, 5.009594
619.6900, 4.962717
620.1721, 4.828018
620.6542, 4.619038
621.1364, 4.338079
621.6185, 3.921318
622.1006, 3.511442
622.5827, 3.120546
623.0648, 2.785290
623.5469, 2.556828
624.0291, 2.713875
624.5112, 2.640947
624.9933, 2.049013
625.4754, 1.181765
625.9575, 0.9237860
626.4396, 1.475430
626.9218, 1.986765
627.4039, 2.126606
627.8860, 1.982798
628.3681, 1.926180
628.8502, 1.935261
629.3323, 1.967890
629.8145, 2.031820
630.2966, 2.074398
630.7787, 2.044615
631.2608, 1.934505
631.7429, 1.774401
632.2250, 1.464455
632.7072, 1.147854
633.1893, 0.9962710
633.6714, 1.174236
634.1535, 1.330402
634.6356, 1.238119
635.1177, 1.073910
635.5999, 1.152237
636.0820, 1.777014
636.5641, 2.161701
637.0462, 2.057718
637.5283, 1.659912
638.0104, 1.657030
638.4926, 2.113621
638.9747, 2.589209
639.4568, 2.914835
639.9389, 3.089392
640.4210, 3.025856
640.9031, 2.751896
641.3853, 2.626991
641.8674, 3.004049
642.3495, 3.630960
642.8316, 4.263783
643.3137, 4.922489
643.7958, 5.412069
644.2780, 5.435122
644.7601, 5.306252
645.2422, 5.319653
645.7243, 5.594173
646.2064, 5.911690
646.6885, 6.348335
647.1707, 6.768284
647.6528, 6.958754
648.1349, 6.831631
648.6170, 6.764784
649.0991, 6.836430
649.5812, 6.997467
650.0634, 7.104450
650.5455, 7.168432
651.0276, 7.339386
651.5097, 7.781818
651.9918, 8.318142
652.4739, 8.646162
652.9561, 8.800159
653.4382, 8.985260
653.9203, 9.499149
654.4024, 9.959047
654.8845, 10.07988
655.3666, 9.837425
655.8488, 9.452467
656.3309, 8.701378
656.8130, 8.042076
657.2951, 7.770267
657.7772, 8.154860
658.2593, 8.199635
658.7415, 7.784161
659.2236, 7.224373
659.7057, 6.908852
660.1878, 6.831190
660.6699, 6.649010
661.1520, 6.287045
661.6342, 5.845640
662.1163, 5.440205
662.5984, 5.069048
663.0805, 4.726826
663.5626, 4.384205
664.0447, 4.097475
664.5269, 3.962017
665.0090, 3.921185
665.4911, 3.805000
665.9732, 3.538067
666.4553, 3.210396
666.9374, 2.818445
667.4196, 2.369991
667.9017, 1.988314
668.3838, 1.640814
668.8659, 1.417837
669.3480, 1.416346
669.8301, 1.631561
670.3123, 1.713831
670.7944, 1.662899
671.2765, 1.479803
671.7586, 1.034002
672.2407, 0.4740810
672.7228, 0.1803150
673.2050, 0.2387430
673.6871, 0.3118040
674.1692, 6.9348998E-02
674.6513, 0.2707410
675.1334, 0.4489080
675.6155, 0.3142130
676.0977, 0.1462670
676.5798, 7.9375997E-02
677.0619, 0.2710930
677.5440, 0.2629990
678.0261, 0.1368770
678.5082, 0.3068070
678.9904, 4.3823000E-02
679.4725, 0.4437260
679.9546, 0.5838720
680.4367, 0.3720550
680.9188, 0.1693380
681.4009, 0.1660460
681.8831, 0.2436640
682.3652, 0.1520330
682.8473, 7.1455002E-02
683.3294, 0.2408490
683.8115, 0.1132340
684.2936, 5.2720001E-03
684.7758, 0.1899320
685.2579, 0.7109360
685.7400, 1.054483
686.2221, 1.041092
686.7042, 0.8470120
687.1863, 0.5142840
687.6685, 5.1102001E-02
688.1506, 0.3032190
688.6327, 0.1285570
689.1148, 0.1214730
689.5969, 7.1098000E-02
690.0790, 0.2486380
690.5612, 0.3178940
691.0433, 4.4748001E-02
691.5254, 0.2802560
692.0075, 0.3246880
692.4896, 0.1795790
692.9717, 5.7049999E-03
693.4539, 0.2356400
693.9360, 0.4035420
694.4181, 0.4355470
694.9002, 0.3674160
695.3823, 0.2542080
695.8644, 1.0921000E-02
696.3466, 0.1706700
696.8287, 0.1961780
697.3108, 9.3414001E-02
697.7929, 0.1791420
698.2750, 0.7233960
698.7571, 1.052328
699.2393, 0.9684280
699.7214, 0.5835080
700.2035, 0.1247860
700.6856, 0.3784030
701.1677, 0.6486260
701.6498, 0.2930340
702.1320, 0.2408910
702.6141, 0.4160540
703.0962, 0.2527260
703.5783, 7.5181998E-02
704.0604, 1.7262001E-02
704.5425, 3.9034002E-02
705.0247, 1.1702000E-02
705.5068, 0.1461090
705.9889, 0.2966860
706.4710, 0.4758610
706.9531, 0.6533150
707.4352, 0.8409100
707.9174, 1.055759
708.3995, 1.053827
708.8816, 0.7994790
709.3637, 0.4819980
709.8458, 0.2905060
710.3279, 0.1911070
710.8101, 6.3313998E-02
711.2922, 0.1480810
711.7743, 0.2277130
712.2564, 0.2123220
712.7385, 0.7868160
713.2206, 1.023062
713.7028, 0.3661880
714.1849, 4.0197000E-02
714.6670, 0.2829070
715.1491, 0.8604740
715.6312, 1.038355
716.1133, 0.6316340
716.5955, 0.3384210
717.0776, 0.2865580
717.5597, 0.4010070
718.0418, 0.5405580
718.5239, 0.7061580
719.0060, 0.9069120
719.4882, 1.216927
719.9703, 1.485723
720.4524, 1.479530
720.9345, 1.271084
721.4166, 1.078463
721.8987, 1.036875
722.3809, 1.002901
722.8630, 0.8939320
723.3451, 0.7214810
723.8272, 0.6067310
724.3093, 0.6061900
724.7914, 0.5852130
725.2736, 0.4697820
725.7557, 0.2759400
726.2378, 0.2189240
726.7199, 0.3097950
727.2020, 0.4426750
727.6841, 0.6078320
728.1663, 0.7512860
728.6484, 0.7094970
729.1305, 0.4860360
729.6126, 0.2787420
730.0947, 0.1847780
730.5768, 0.1811010
731.0590, 0.2855570
731.5411, 0.5350510
732.0232, 0.7030700
732.5053, 0.6918750
732.9874, 0.6126370
733.4695, 0.5458950
733.9517, 0.5047720
734.4338, 0.4174190
734.9159, 0.2560330
735.3980, 0.1044100
735.8801, 5.8178000E-02
736.3622, 9.5169000E-02
736.8444, 0.1587870
737.3265, 0.2328510
737.8086, 0.2909280
738.2907, 0.2547050
738.7728, 0.2097000
739.2549, 0.2829400
739.7371, 0.6488510
740.2192, 0.8956280
740.7013, 0.7821350
741.1834, 0.5238990
741.6655, 0.4341410
742.1476, 0.5723800
742.6298, 0.7253130
743.1119, 0.8627890
743.5940, 0.9708080
744.0761, 1.051601
744.5582, 1.108231
745.0403, 1.052483
745.5225, 0.7702240
746.0046, 0.5096630
746.4867, 0.7627600
746.9688, 1.278112
747.4509, 1.542143
747.9330, 1.055744
748.4152, 0.5788990
748.8973, 0.3536300
749.3794, 0.3546050
749.8615, 0.5573080
750.3436, 1.185944
750.8257, 1.636663
751.3079, 1.737804
751.7900, 1.551012
752.2721, 1.214819
752.7542, 0.7265430
753.2363, 0.3917680
753.7184, 0.4325560
754.2006, 0.6618330
754.6827, 0.8769150
755.1648, 1.061987
755.6469, 1.111708
756.1290, 0.7932780
756.6111, 0.4732170
757.0933, 0.3956170
757.5754, 0.5508310
758.0575, 0.5550250
758.5396, 0.2328360
759.0217, 6.3621998E-02
759.5038, 0.1866280
759.9860, 0.1373390
760.4681, 0.1505600
760.9502, 0.7044540
761.4323, 1.132090
761.9144, 1.064621
762.3965, 0.7336200
762.8787, 0.5390590
763.3608, 0.4878770
763.8429, 0.4989340
764.3250, 0.5361600
764.8071, 0.6107730
765.2892, 0.7615220
765.7714, 1.015535
766.2535, 1.149424
766.7356, 1.105923
767.2177, 1.002241
767.6998, 0.8833080
768.1819, 0.7441270
768.6641, 0.6897960
769.1462, 0.7228130
769.6283, 0.7376420
770.1104, 0.6505910
770.5925, 0.4847090
771.0746, 0.2684710
771.5568, 1.3890000E-03
772.0389, 0.1359790
772.5210, 5.9595000E-02
773.0031, 0.3919160
773.4852, 0.7367150
773.9673, 1.128670
774.4495, 1.354298
774.9316, 1.354658
775.4137, 1.256937
775.8958, 1.139629
776.3779, 0.9991280
776.8600, 0.8659340
777.3422, 0.7330270
777.8243, 0.6529710
778.3064, 0.7528530
778.7885, 0.9250410
779.2706, 0.9435120
779.7527, 0.7484930
780.2349, 0.5545960
780.7170, 0.4698540
781.1991, 0.4578110
781.6812, 0.4851880
782.1633, 0.5491790
782.6454, 0.6601540
783.1276, 0.8511430
783.6097, 1.051065
784.0918, 1.218082
784.5739, 1.354542
785.0560, 1.306276
785.5381, 1.035650
786.0203, 0.7045150
786.5024, 0.3646600
786.9845, 0.1229420
787.4666, 0.2266290
787.9487, 0.8754540
788.4308, 1.399832
788.9130, 1.255999
789.3951, 0.9439640
789.8772, 1.006647
790.3593, 2.021439
790.8414, 2.380754
791.3235, 1.792025
791.8057, 0.9281670
792.2878, 0.6064820
792.7699, 0.7898200
793.2520, 1.041628
793.7341, 1.332865
794.2162, 1.554335
794.6984, 1.516617
795.1805, 1.355492
795.6626, 1.305561
796.1447, 1.536367
796.6268, 1.610344
797.1089, 1.164261
797.5911, 0.5903760
798.0732, 0.3219590
798.5553, 0.4606040
799.0374, 0.6999340
799.5195, 1.089970
800.0016, 1.458418
800.4838, 1.558756
800.9659, 1.434376
801.4480, 1.329308
801.9301, 1.301247
802.4122, 1.260506
802.8943, 1.019070
803.3765, 0.7496050
803.8586, 0.6814500
804.3407, 0.9623660
804.8228, 1.287079
805.3049, 1.764158
805.7870, 2.154531
806.2692, 2.172220
806.7513, 1.683363
807.2334, 1.357346
807.7155, 1.283546
808.1976, 1.300346
808.6797, 1.144846
809.1619, 0.9103760
809.6440, 0.9025310
810.1261, 1.240788
810.6082, 1.607346
811.0903, 1.762999
811.5724, 1.815294
812.0546, 1.881456
812.5367, 2.101999
813.0188, 2.147768
813.5009, 1.859634
813.9830, 1.535561
814.4651, 1.586550
814.9473, 2.063490
815.4294, 2.185703
815.9115, 1.819723
816.3936, 1.355688
816.8757, 1.238436
817.3578, 1.342676
817.8400, 1.474291
818.3221, 1.618614
818.8042, 1.677885
819.2863, 1.435280
819.7684, 1.189354
820.2505, 1.261301
820.7327, 1.940445
821.2148, 2.298746
821.6969, 2.242872
822.1790, 2.001711
822.6611, 1.759314
823.1432, 1.547361
823.6254, 1.572313
824.1075, 1.877085
824.5896, 2.236641
825.0717, 2.551622
825.5538, 2.739300
826.0359, 2.647917
826.5181, 2.136091
827.0002, 1.821619
827.4823, 2.068626
827.9644, 2.329096
828.4465, 2.164623
828.9286, 1.390457
829.4108, 1.396917
829.8929, 2.350252
830.3750, 3.336128
830.8571, 3.386383
831.3392, 2.883337
831.8214, 2.620697
832.3035, 2.674362
832.7856, 2.759127
833.2677, 2.722666
833.7498, 2.727964
834.2319, 2.881151
834.7141, 3.176592
835.1962, 3.414307
835.6783, 3.655527
836.1604, 3.819538
836.6425, 3.813856
837.1246, 3.626278
837.6068, 3.353985
838.0889, 3.006372
838.5710, 2.767618
839.0531, 2.903374
839.5352, 3.146921
840.0173, 3.138163
840.4995, 2.838585
840.9816, 2.651907
841.4637, 2.822744
841.9458, 3.087923
842.4279, 3.355850
842.9100, 3.624748
843.3922, 3.805948
843.8743, 3.901030
844.3564, 3.893364
844.8385, 3.726355
845.3206, 3.464661
845.8027, 3.266834
846.2849, 3.115604
846.7670, 2.932194
847.2491, 2.601995
847.7312, 2.292353
848.2133, 2.098663
848.6954, 2.019487
849.1776, 1.959908
849.6597, 1.808252
850.1418, 1.923180
850.6239, 2.604490
851.1060, 3.550264
851.5881, 3.614483
852.0703, 2.889479
852.5524, 2.145212
853.0345, 1.681526
853.5166, 1.452465
853.9987, 1.520184
854.4808, 1.786674
854.9630, 2.004204
855.4451, 2.140213
855.9272, 2.147491
856.4093, 1.912996
856.8914, 1.601120
857.3735, 1.664272
857.8557, 2.150288
858.3378, 2.390392
858.8199, 2.143126
859.3020, 1.706446
859.7841, 1.452778
860.2662, 1.354099
860.7484, 1.363712
861.2305, 1.556601
861.7126, 1.718536
862.1947, 1.777569
862.6768, 1.755079
863.1589, 1.678141
863.6411, 1.515760
864.1232, 1.384130
864.6053, 1.290550
865.0874, 1.237482
865.5695, 1.240316
866.0516, 1.286835
866.5338, 1.354174
867.0159, 1.455046
867.4980, 1.492411
867.9801, 1.287909
868.4622, 1.051233
868.9443, 1.018669
869.4265, 1.446224
869.9086, 1.491350
870.3907, 0.9062140
870.8728, 0.3253860
871.3549, 0.3821890
871.8370, 1.002138
872.3192, 1.257195
872.8013, 1.111473
873.2834, 0.8679050
873.7655, 0.7607540
874.2476, 0.6887340
874.7297, 0.5209830
875.2119, 0.2415100
875.6940, 6.6334002E-02
876.1761, 0.1542680
876.6582, 0.2470380
877.1403, 0.2446710
877.6224, 0.1530020
878.1046, 2.5544999E-02
878.5867, 0.1417350
879.0688, 0.2232060
879.5509, 4.9989998E-02
880.0330, 0.2010060
880.5151, 0.2754290
880.9973, 0.2025340
881.4794, 0.1004120
881.9615, 2.9289000E-02
882.4436, 0.1263030
882.9257, 0.1244890
883.4078, 7.7510998E-02
883.8900, 0.1779080
884.3721, 0.4859770
884.8542, 0.5982360
885.3363, 0.3128260
885.8184, 9.3024999E-02
886.3005, 9.8720998E-02
886.7827, 0.1716190
887.2648, 0.3877030
887.7469, 0.3791120
888.2290, 0.3639580
888.7111, 0.4997290
889.1932, 0.6580120
889.6754, 0.6196940
890.1575, 0.1839450
890.6396, 0.1461410
891.1217, 0.7197110
891.6038, 1.343172
892.0859, 1.177628
892.5681, 0.4883380
893.0502, 0.1241070
893.5323, 0.2638760
894.0144, 0.4343190
894.4965, 0.2583430
894.9786, 5.0320001E-03
895.4608, 9.3842998E-02
895.9429, 3.0893000E-02
896.4250, 0.1830920
896.9071, 0.4388430
897.3892, 0.5643880
897.8713, 0.3150940
898.3535, 0.2274490
898.8356, 0.5984130
899.3177, 0.7976340
899.7998, 0.8517340
900.2819, 0.6481170
900.7640, 0.4141540
901.2462, 0.3000760
901.7283, 0.3128740
902.2104, 0.4374620
902.6925, 0.7372130
903.1746, 1.019474
903.6567, 1.211479
904.1389, 1.357338
904.6210, 1.675507
905.1031, 2.128441
905.5852, 2.390900
906.0673, 2.182953
906.5494, 1.934761
907.0316, 2.089417
907.5137, 2.465801
907.9958, 2.752251
908.4779, 2.651581
908.9600, 2.782181
909.4421, 3.347042
909.9243, 3.996124
910.4064, 4.169209
910.8885, 3.903694
911.3706, 3.948624
911.8527, 4.451645
912.3348, 5.064648
912.8170, 5.560944
913.2991, 5.918137
913.7812, 6.094746
914.2633, 6.053463
914.7454, 5.938992
915.2275, 5.577843
915.7097, 5.398991
916.1918, 5.763145
916.6739, 6.653984
917.1560, 7.047325
917.6381, 6.936199
918.1202, 6.777451
918.6024, 6.842468
919.0845, 7.059353
919.5666, 7.402897
920.0487, 7.840008
920.5308, 8.234364
921.0129, 8.473808
921.4951, 8.760761
921.9772, 9.224796
922.4593, 9.741726
922.9414, 9.861187
923.4235, 9.591164
923.9056, 9.448757
924.3878, 9.651424
924.8699, 9.954323
925.3520, 10.05401
925.8341, 10.06818
926.3162, 10.19386
926.7983, 10.59991
927.2805, 10.96341
927.7626, 11.21454
928.2447, 11.43034
928.7268, 11.64791
929.2089, 11.87918
929.6910, 12.40207
930.1732, 13.24569
930.6553, 14.08652
931.1374, 14.66426
931.6195, 15.05855
932.1016, 15.30116
932.5837, 15.37696
933.0659, 15.60342
933.5480, 16.12659
934.0301, 16.73908
934.5122, 17.35802
934.9943, 17.99009
935.4764, 18.66323
935.9586, 19.38232
936.4407, 20.10181
936.9228, 20.87320
937.4049, 21.61708
937.8870, 22.13690
938.3691, 22.55622
938.8513, 23.16226
939.3334, 24.23351
939.8155, 25.24858
940.2976, 26.12013
940.7797, 26.92113
941.2618, 27.72032
941.7440, 28.51146
942.2261, 29.32130
942.7082, 30.19374
943.1903, 31.04222
943.6724, 31.72307
944.1545, 32.32012
944.6367, 32.93062
945.1188, 33.57306
945.6009, 34.24402
946.0830, 35.05692
946.5651, 35.70614
947.0472, 35.99181
947.5294, 35.96032
948.0115, 35.74234
948.4936, 35.35555
948.9757, 35.27822
949.4578, 36.23169
949.9399, 37.31781
950.4221, 37.81171
950.9042, 37.82187
951.3863, 37.85659
951.8684, 37.97438
952.3505, 38.15306
952.8326, 38.38564
953.3148, 38.68040
953.7969, 39.13018
954.2790, 39.67459
954.7611, 40.04883
955.2432, 40.17785
955.7253, 40.20874
956.2075, 40.07505
956.6896, 39.96859
957.1717, 40.07689
957.6538, 40.33993
958.1359, 41.17760
958.6180, 42.91428
959.1002, 44.41054
959.5823, 44.39627
960.0644, 43.53292
960.5465, 44.00827
961.0286, 45.70465
961.5107, 47.38047
961.9929, 48.38025
962.4750, 49.14326
962.9571, 49.63580
963.4392, 50.07822
963.9213, 51.37255
964.4034, 53.85735
964.8856, 55.75883
965.3677, 56.53222
965.8498, 56.75538
966.3319, 57.04659
966.8140, 57.56279
967.2961, 58.72843
967.7783, 61.05117
968.2604, 62.94584
968.7425, 63.43180
969.2246, 63.57042
969.7067, 64.22213
970.1888, 65.46563
970.6710, 66.53225
971.1531, 67.42159
971.6352, 68.05686
972.1173, 68.13251
972.5994, 68.03950
973.0815, 68.40365
973.5637, 69.16386
974.0458, 69.76584
974.5279, 70.07777
975.0100, 70.06905
975.4921, 69.69366
975.9742, 69.05153
976.4564, 68.39532
976.9385, 67.70482
977.4206, 66.78564
977.9027, 65.56220
978.3848, 64.22793
978.8669, 62.95852
979.3491, 61.68258
979.8312, 60.34541
980.3133, 59.08963
980.7954, 57.28465
981.2775, 54.57157
981.7596, 51.87889
982.2418, 49.95580
982.7239, 48.61930
983.2060, 46.89803
983.6881, 44.81438
984.1702, 42.63318
984.6523, 40.28961
985.1345, 38.11585
985.6166, 36.41348
986.0987, 35.04296
986.5808, 33.45388
987.0629, 31.56693
987.5450, 29.65371
988.0272, 27.65720
988.5093, 25.91492
988.9914, 25.24554
989.4735, 25.16276
989.9556, 24.67402
990.4377, 23.51292
990.9199, 22.16456
991.4020, 20.57957
991.8841, 19.09333
992.3662, 17.92222
992.8483, 17.08961
993.3304, 16.36266
993.8126, 15.74528
994.2947, 15.16430
994.7768, 14.62070
995.2589, 14.05428
995.7410, 13.35789
996.2231, 12.57323
996.7053, 11.80303
997.1874, 10.74355
997.6695, 10.23434
998.1516, 10.67702
998.6337, 11.37585
999.1158, 11.17487
999.5980, 10.20642
1000.080, 9.447094
1000.562, 9.051376
1001.044, 8.701385
1001.526, 8.116596
1002.009, 7.492039
1002.491, 6.958099
1002.973, 6.517483
1003.455, 6.388355
1003.937, 6.739712
1004.419, 6.857903
1004.901, 6.294945
1005.383, 5.394867
1005.865, 4.866646
1006.348, 4.628536
1006.830, 4.432480
1007.312, 4.023632
1007.794, 3.828457
1008.276, 4.280518
1008.758, 4.815701
1009.240, 4.749203
1009.722, 3.988110
1010.205, 3.625122
1010.687, 3.757816
1011.169, 3.972279
1011.651, 3.922817
1012.133, 3.743881
1012.615, 3.563313
1013.097, 3.391933
1013.579, 3.210018
1014.061, 3.018475
1014.544, 2.809734
1015.026, 2.576817
1015.508, 2.332066
1015.990, 2.073982
1016.472, 1.821236
1016.954, 1.662830
1017.436, 1.665787
1017.918, 1.663055
1018.401, 1.621361
1018.883, 1.473785
1019.365, 1.108345
1019.847, 0.4245800
1020.329, 6.0325999E-02
1020.811, 6.1611000E-02
1021.293, 0.1324200
1021.775, 3.5328001E-02
1022.257, 0.1123500
1022.740, 7.2288997E-02
1023.222, 9.2205003E-02
1023.704, 0.1314960
1024.186, 0.2019040
1024.668, 0.4617080
1025.150, 0.5032420
1025.632, 0.4749150
1026.114, 0.6755870
1026.596, 1.064693
1027.079, 1.292160
1027.561, 1.294018
1028.043, 1.202209
1028.525, 1.124447
1029.007, 0.9986310
1029.489, 0.6818850
1029.971, 0.1449930
1030.453, 6.1133999E-02
1030.936, 0.5980760
1031.418, 1.021618
1031.900, 0.9731670
1032.382, 0.6760100
1032.864, 0.5785680
1033.346, 0.5871010
1033.828, 0.4811590
1034.310, 0.1459660
1034.792, 0.2614590
1035.275, 0.9008030
1035.757, 1.421597
1036.239, 1.385204
1036.721, 0.7924230
1037.203, 0.7528340
1037.685, 1.298313
1038.167, 1.881996
1038.649, 2.015823
1039.132, 2.098301
1039.614, 2.541786
1040.096, 3.250061
1040.578, 3.648884
1041.060, 3.510254
1041.542, 3.626221
1042.024, 4.208530
1042.506, 4.971607
1042.989, 5.574703
1043.471, 6.019730
1043.953, 6.265099
1044.435, 6.253975
1044.917, 6.357899
1045.399, 6.875690
1045.881, 7.386013
1046.363, 7.633774
1046.845, 7.673183
1047.328, 7.925396
1047.810, 8.390137
1048.292, 9.010857
1048.774, 9.968277
1049.256, 10.79299
1049.738, 10.95282
1050.220, 10.78924
1050.702, 10.88383
1051.184, 11.59890
1051.667, 11.74416
1052.149, 11.12863
1052.631, 10.49019
1053.113, 10.46894
1053.595, 10.87728
1054.077, 11.51896
1054.559, 12.30430
1055.041, 12.76744
1055.523, 12.22876
1056.006, 11.96729
1056.488, 12.50035
1056.970, 13.36735
1057.452, 13.58452
1057.934, 13.22286
1058.416, 12.91565
1058.898, 12.78000
1059.380, 12.74097
1059.863, 12.87997
1060.345, 12.98796
1060.827, 12.81965
1061.309, 12.35427
1061.791, 12.13520
1062.273, 12.19976
1062.755, 12.34468
1063.237, 12.55045
1063.719, 12.69287
1064.202, 12.56225
1064.684, 12.22818
1065.166, 11.81548
1065.648, 11.27320
1066.130, 10.82853
1066.612, 10.56992
1067.094, 10.31030
1067.576, 9.848984
1068.059, 9.238064
1068.541, 8.842594
1069.023, 8.637646
1069.505, 8.394321
1069.987, 7.860664
1070.469, 7.378845
1070.951, 7.251205
1071.433, 7.264481
1071.916, 6.977394
1072.398, 6.335735
1072.880, 5.948681
1073.362, 5.941994
1073.844, 5.930336
1074.326, 5.391102
1074.808, 4.734234
1075.290, 4.449551
1075.772, 4.583328
1076.255, 4.539135
1076.737, 4.189045
1077.219, 3.875496
1077.701, 3.719292
1078.183, 3.651325
1078.665, 3.528069
1079.147, 3.386600
1079.629, 3.323971
1080.111, 3.396233
1080.594, 3.443844
1081.076, 3.293633
1081.558, 3.219215
1082.040, 3.423088
1082.522, 3.862434
1083.004, 4.111828
1083.486, 4.190907
1083.968, 4.245708
1084.450, 4.394371
1084.933, 4.498165
1085.415, 4.422249
1085.897, 4.276340
1086.379, 4.234173
1086.861, 4.337070
1087.343, 4.414120
1087.825, 4.464882
1088.307, 4.473137
1088.790, 4.338234
1089.272, 4.197987
1089.754, 4.301586
1090.236, 4.605122
1090.718, 4.757950
1091.200, 4.547642
1091.682, 4.472908
1092.164, 4.693733
1092.646, 4.956249
1093.129, 4.763306
1093.611, 4.345505
1094.093, 4.241001
1094.575, 4.517254
1095.057, 4.838585
1095.539, 5.182587
1096.021, 5.386692
1096.503, 5.320717
1096.986, 5.088917
1097.468, 5.081409
1097.950, 5.277718
1098.432, 5.534359
1098.914, 5.836758
1099.396, 6.062176
1099.878, 6.090828
1100.360, 6.070023
1100.843, 6.067509
1101.325, 6.034821
1101.807, 6.234856
1102.289, 6.713787
1102.771, 7.086620
1103.253, 7.079609
1103.735, 6.951004
1104.217, 6.954689
1104.699, 7.024738
1105.182, 7.030762
1105.664, 6.884144
1106.146, 6.819313
1106.628, 6.885418
1107.110, 7.020489
1107.592, 7.124878
1108.074, 7.193256
1108.556, 7.110367
1109.038, 6.951595
1109.521, 7.016560
1110.003, 7.691925
1110.485, 8.178001
1110.967, 8.181591
1111.449, 8.052670
1111.931, 8.428249
1112.413, 9.153057
1112.895, 9.418030
1113.377, 9.117607
1113.860, 8.872620
1114.342, 9.117611
1114.824, 9.466652
1115.306, 9.705952
1115.788, 9.882240
1116.270, 10.25109
1116.752, 10.80975
1117.234, 10.89314
1117.717, 10.18690
1118.199, 9.537495
1118.681, 9.741974
1119.163, 10.33029
1119.645, 10.94371
1120.127, 11.56031
1120.609, 11.93308
1121.091, 12.04341
1121.573, 11.99451
1122.056, 11.73694
1122.538, 11.49221
1123.020, 11.55899
1123.502, 11.81717
1123.984, 12.08505
1124.466, 12.37151
1124.948, 12.53920
1125.430, 12.54792
1125.913, 12.54362
1126.395, 12.64171
1126.877, 12.78880
1127.359, 12.84986
1127.841, 12.85481
1128.323, 12.88317
1128.805, 12.99147
1129.287, 13.07911
1129.770, 13.14637
1130.252, 13.17141
1130.734, 13.10769
1131.216, 12.98349
1131.698, 12.92532
1132.180, 12.92231
1132.662, 12.85972
1133.144, 12.60334
1133.626, 12.36223
1134.109, 12.24971
1134.591, 12.15855
1135.073, 11.90748
1135.555, 11.51368
1136.037, 11.09730
1136.519, 10.66752
1137.001, 10.38199
1137.483, 10.61403
1137.965, 10.77468
1138.448, 10.37822
1138.930, 9.616764
1139.412, 9.059605
1139.894, 8.710361
1140.376, 8.510242
1140.858, 8.480885
1141.340, 8.398468
1141.822, 8.103443
1142.304, 7.627541
1142.787, 6.866768
1143.269, 5.842999
1143.751, 5.305492
1144.233, 5.361557
1144.715, 5.298679
1145.197, 4.873886
1145.679, 4.263855
1146.161, 3.535816
1146.644, 2.848469
1147.126, 2.426807
1147.608, 2.401794
1148.090, 2.337627
1148.572, 2.255180
1149.054, 2.017353
1149.536, 1.496017
1150.018, 0.8632770
1150.500, 0.2908290
1150.983, 0.1450580
1151.465, 0.2767600
1151.947, 0.1847760
1152.429, 0.4385260
1152.911, 0.3789180
1153.393, 0.2199170
1153.875, 7.8243002E-02
1154.357, 3.9283998E-02
1154.840, 0.1295700
1155.322, 0.1838380
1155.804, 0.1660800
1156.286, 0.2065160
1156.768, 0.2250480
1157.250, 0.4335440
1157.732, 1.107855
1158.214, 1.129641
1158.697, 0.6402850
1159.179, 0.1165430
1159.661, 0.3773650
1160.143, 0.5602190
1160.625, 3.0480999E-02
1161.107, 0.5526030
1161.589, 0.8400080
1162.071, 0.8652020
1162.553, 0.3761020
1163.036, 0.4912280
1163.518, 0.6035840
1164.000, 6.6235997E-02
1164.482, 0.5578210
1164.964, 5.4191999E-02
1165.446, 0.6012760
1165.928, 0.4330290
1166.410, 0.1071680
1166.892, 0.4634280
1167.375, 0.6389480
1167.857, 0.4716170
1168.339, 7.9356998E-02
1168.821, 0.5328640
1169.303, 0.4366760
1169.785, 0.2269290
1170.267, 0.1536750
1170.749, 0.1976260
1171.231, 0.3077140
1171.714, 0.4829810
1172.196, 0.7270200
1172.678, 1.073315
1173.160, 1.259832
1173.642, 0.8803830
1174.124, 0.3986170
1174.606, 0.2035470
1175.088, 0.2572360
1175.571, 0.3404160
1176.053, 0.4572320
1176.535, 0.5272330
1177.017, 0.5271280
1177.499, 0.4754920
1177.981, 0.2777290
1178.463, 0.1161060
1178.945, 0.2392220
1179.427, 0.6516090
1179.910, 0.8000160
1180.392, 0.6531350
1180.874, 0.5654320
1181.356, 0.6999020
1181.838, 0.8733810
1182.320, 0.8640960
1182.802, 0.7983720
1183.284, 0.8530560
1183.767, 1.076771
1184.249, 1.116150
1184.731, 0.9437580
1185.213, 0.7669850
1185.695, 0.6432670
1186.177, 0.6313550
1186.659, 0.8705480
1187.141, 1.230656
1187.624, 1.538759
1188.106, 1.800035
1188.588, 1.878901
1189.070, 1.743185
1189.552, 1.616117
1190.034, 1.624931
1190.516, 1.712906
1190.998, 1.828844
1191.480, 1.966175
1191.963, 2.129242
1192.445, 2.433132
1192.927, 2.399500
1193.409, 1.941956
1193.891, 1.539656
1194.373, 1.491491
1194.855, 1.706745
1195.337, 2.325958
1195.819, 3.070459
1196.302, 3.287405
1196.784, 2.576332
1197.266, 2.026690
1197.748, 1.641350
1198.230, 1.488548
1198.712, 1.777634
1199.194, 2.224361
1199.676, 2.534662
1200.158, 2.676525
1200.641, 2.531427
1201.123, 1.737804
1201.605, 1.565617
1202.087, 2.219021
1202.569, 2.939575
1203.051, 3.004749
1203.533, 2.748411
1204.015, 2.581936
1204.498, 2.484077
1204.980, 2.297747
1205.462, 1.815876
1205.944, 1.746138
1206.426, 2.246132
1206.908, 2.775352
1207.390, 2.731310
1207.872, 2.447256
1208.354, 2.324816
1208.837, 2.338348
1209.319, 2.357702
1209.801, 2.369421
1210.283, 2.466677
1210.765, 2.667713
1211.247, 2.904249
1211.729, 3.223349
1212.211, 3.459822
1212.694, 3.290590
1213.176, 2.800838
1213.658, 2.584343
1214.140, 2.822538
1214.622, 2.966257
1215.104, 2.889767
1215.586, 2.717735
1216.068, 2.659847
1216.551, 2.642939
1217.033, 2.552170
1217.515, 2.367929
1217.997, 2.071747
1218.479, 1.529446
1218.961, 1.254934
1219.443, 1.391935
1219.925, 1.670071
1220.407, 1.824398
1220.890, 1.966537
1221.372, 2.203150
1221.854, 2.489248
1222.336, 2.623367
1222.818, 2.694643
1223.300, 2.491426
1223.782, 1.872433
1224.264, 1.306437
1224.746, 1.486734
1225.229, 1.904169
1225.711, 2.029158
1226.193, 1.895748
1226.675, 1.851799
1227.157, 1.944185
1227.639, 1.946295
1228.121, 1.799501
1228.603, 1.632813
1229.085, 1.551962
1229.568, 1.541487
1230.050, 1.600824
1230.532, 1.725451
1231.014, 1.877983
1231.496, 2.065866
1231.978, 2.124987
1232.460, 2.006510
1232.942, 1.851942
1233.425, 1.753500
1233.907, 1.707432
1234.389, 1.747656
1234.871, 1.843262
1235.353, 1.805464
1235.835, 1.622074
1236.317, 1.451218
1236.799, 1.326384
1237.281, 1.327047
1237.764, 1.667654
1238.246, 2.006205
1238.728, 2.007477
1239.210, 1.773758
1239.692, 1.753332
1240.174, 1.928995
1240.656, 1.913549
1241.138, 1.585819
1241.621, 1.255062
1242.103, 1.195478
1242.585, 1.156261
1243.067, 0.9280110
1243.549, 0.5965650
1244.031, 0.4981170
1244.513, 0.6140590
1244.995, 0.7816180
1245.478, 0.9843960
1245.960, 1.097792
1246.442, 1.005630
1246.924, 0.8601780
1247.406, 0.7340070
1247.888, 0.6244300
1248.370, 0.4935400
1248.852, 0.4018340
1249.334, 0.5556220
1249.817, 1.035372
1250.299, 1.423944
1250.781, 1.414751
1251.263, 1.465681
1251.745, 1.800524
1252.227, 2.247835
1252.709, 2.442442
1253.191, 2.391640
1253.673, 2.107189
1254.156, 1.541307
1254.638, 1.093725
1255.120, 0.8585550
1255.602, 0.7767240
1256.084, 0.8973690
1256.566, 1.084515
1257.048, 1.018812
1257.530, 0.8238200
1258.012, 0.7868060
1258.495, 0.9832120
1258.977, 1.048820
1259.459, 0.8111690
1259.941, 0.7420980
1260.423, 1.062309
1260.905, 1.446613
1261.387, 1.345497
1261.869, 1.003969
1262.352, 0.7837940
1262.834, 0.7435970
1263.316, 0.7211170
1263.798, 0.7137580
1264.280, 0.7576520
1264.762, 0.8769990
1265.244, 0.9919680
1265.726, 1.057062
1266.208, 1.028526
1266.691, 0.7914560
1267.173, 0.3467390
1267.655, 0.1108210
1268.137, 0.1005520
1268.619, 0.1411210
1269.101, 0.1782470
1269.583, 0.2917420
1270.065, 0.7687210
1270.548, 1.190943
1271.030, 1.015404
1271.512, 0.4315150
1271.994, 0.3129330
1272.476, 0.6486030
1272.958, 0.9184740
1273.440, 1.008331
1273.922, 1.062346
1274.405, 1.187635
1274.887, 1.267607
1275.369, 1.241341
1275.851, 1.126984
1276.333, 0.9143660
1276.815, 0.6355190
1277.297, 0.5151770
1277.779, 0.5947720
1278.261, 0.8489190
1278.744, 1.705042
1279.226, 2.140408
1279.708, 1.644634
1280.190, 0.7263760
1280.672, 0.2635590
1281.154, 0.1834740
1281.636, 0.4490600
1282.118, 1.053562
1282.600, 1.183537
1283.083, 4.4132002E-02
1283.565, 0.5655610
1284.047, 0.3138940
1284.529, 1.540403
1285.011, 1.502722
1285.493, 0.8696730
1285.975, 0.7009700
1286.457, 1.053347
1286.939, 1.153595
1287.422, 0.8359220
1287.904, 0.6347450
1288.386, 0.6641770
1288.868, 0.7732160
1289.350, 0.8680000
1289.832, 0.9050690
1290.314, 0.7623390
1290.796, 0.5131170
1291.279, 0.5391060
1291.761, 0.8863560
1292.243, 0.9927850
1292.725, 0.7638400
1293.207, 0.3050840
1293.689, 0.1439700
1294.171, 6.1609000E-02
1294.653, 7.3650002E-02
1295.135, 0.1220950
1295.618, 8.2337998E-02
1296.100, 2.4555000E-02
1296.582, 3.4591999E-02
1297.064, 0.2758520
1297.546, 0.5339010
1298.028, 0.7971250
1298.510, 0.9623870
1298.992, 0.9961620
1299.475, 0.9538590
1299.957, 0.9636710
1300.439, 0.9642370
1300.921, 0.6503240
1301.403, 0.1274390
1301.885, 0.0000000E+00
##END=



