##NAMES=Hagendorfite
##RRUFFID=R130128
##IDEAL CHEMISTRY=NaCaMn^2+^Fe^2+^_2_(PO_4_)_3_
##LOCALITY=Hagendorf, Waidhaus, Vohenstrauß, Oberpfälzer Wald, Upper Palatinate, Bavaria, Germany
##OWNER=RRUFF
##SOURCE=Rock Currier
##DESCRIPTION=Black massive, associated with dark brown wolfeite
##STATUS=The identification of this mineral has been confirmed only by single crystal X-ray diffraction.
##URL=rruff.info/R130128
190.4665, 0.0000000E+00
192.3950, 0.7124330
194.3235, 0.8248600
196.2519, 3.8238999E-02
198.1804, 7.8239001E-02
200.1089, 1.174690
202.0373, 2.867813
203.9658, 5.507278
205.8943, 8.238808
207.8227, 10.81113
209.7512, 13.40541
211.6797, 15.40606
213.6081, 16.49509
215.5366, 16.97056
217.4651, 17.36323
219.3935, 17.64806
221.3220, 17.87782
223.2505, 18.05695
225.1789, 18.19078
227.1074, 18.28653
229.0359, 18.26718
230.9643, 18.17775
232.8928, 18.28059
234.8213, 18.47984
236.7497, 18.89449
238.6782, 19.66921
240.6067, 20.90417
242.5351, 21.97058
244.4636, 22.64967
246.3921, 22.98482
248.3205, 23.38441
250.2490, 24.05773
252.1775, 24.59004
254.1059, 24.81216
256.0344, 24.68986
257.9629, 24.29897
259.8913, 23.50713
261.8198, 22.42744
263.7483, 21.58667
265.6767, 20.99903
267.6052, 20.67986
269.5337, 20.61083
271.4621, 20.91653
273.3906, 21.37527
275.3191, 22.17551
277.2475, 23.11478
279.1760, 23.70694
281.1045, 23.60783
283.0329, 23.38105
284.9614, 23.33630
286.8899, 23.77681
288.8183, 23.84818
290.7468, 23.36412
292.6753, 22.44940
294.6037, 21.35881
296.5322, 19.79961
298.4607, 18.30631
300.3891, 17.17474
302.3176, 16.54456
304.2461, 15.73138
306.1745, 14.42059
308.1030, 12.86147
310.0315, 11.55862
311.9599, 10.68367
313.8884, 9.922485
315.8169, 9.196281
317.7453, 8.499565
319.6738, 7.841667
321.6023, 7.232819
323.5307, 6.649437
325.4592, 6.063202
327.3877, 5.297035
329.3161, 4.669151
331.2446, 4.278351
333.1731, 4.093224
335.1015, 4.084587
337.0300, 4.387054
338.9585, 4.808846
340.8869, 5.140083
342.8154, 5.250671
344.7439, 5.523949
346.6723, 6.337227
348.6008, 7.624695
350.5292, 8.447060
352.4577, 8.437645
354.3862, 8.183640
356.3146, 7.998474
358.2431, 7.617493
360.1716, 7.086082
362.1000, 6.381462
364.0285, 5.540298
365.9570, 4.863930
367.8854, 4.570259
369.8139, 4.257843
371.7424, 3.578911
373.6708, 2.467041
375.5993, 1.732643
377.5278, 1.878708
379.4562, 2.463959
381.3847, 2.707977
383.3132, 2.316483
385.2416, 1.939285
387.1701, 1.770943
389.0986, 1.791679
391.0270, 1.912048
392.9555, 2.140152
394.8840, 2.454300
396.8124, 2.853470
398.7409, 3.361763
400.6694, 3.883278
402.5978, 4.455360
404.5263, 5.032829
406.4548, 5.431282
408.3832, 5.508698
410.3117, 5.498726
412.2402, 5.532967
414.1686, 5.649956
416.0971, 5.621223
418.0256, 5.186127
419.9540, 4.617134
421.8825, 4.263184
423.8110, 4.318596
425.7394, 4.589424
427.6679, 5.049644
429.5964, 5.702354
431.5248, 6.569801
433.4533, 7.986801
435.3818, 9.414085
437.3102, 10.48534
439.2387, 10.99765
441.1672, 11.35427
443.0956, 11.71847
445.0241, 11.89103
446.9526, 11.47700
448.8810, 9.754265
450.8095, 8.234299
452.7380, 7.506363
454.6664, 7.812263
456.5949, 8.198021
458.5234, 8.772507
460.4518, 9.380959
462.3803, 9.860718
464.3088, 10.13220
466.2372, 10.43281
468.1657, 11.06951
470.0942, 11.87702
472.0226, 12.00762
473.9511, 11.14202
475.8796, 10.01732
477.8080, 8.908821
479.7365, 7.788803
481.6650, 6.767197
483.5934, 5.812599
485.5219, 4.989929
487.4504, 4.402954
489.3788, 4.109703
491.3073, 3.865784
493.2358, 3.688538
495.1642, 3.529961
497.0927, 3.123703
499.0212, 2.201698
500.9496, 1.276283
502.8781, 0.5774690
504.8066, 9.2116997E-02
506.7350, 0.3792500
508.6635, 0.8595350
510.5920, 1.323807
512.5204, 1.749405
514.4489, 2.163544
516.3774, 2.533958
518.3058, 2.962547
520.2343, 3.319977
522.1628, 3.359032
524.0912, 2.863419
526.0197, 2.289429
527.9482, 1.813301
529.8766, 1.459328
531.8051, 1.047119
533.7336, 0.4815980
535.6620, 7.5240999E-02
537.5905, 0.4181520
539.5190, 0.4096450
541.4474, 0.7689060
543.3759, 1.808830
545.3044, 3.250938
547.2328, 4.572777
549.1613, 5.630196
551.0898, 6.756851
553.0182, 8.180527
554.9467, 9.787849
556.8752, 11.14288
558.8036, 12.18635
560.7321, 12.96883
562.6606, 13.39494
564.5891, 13.29655
566.5175, 13.52767
568.4460, 14.29808
570.3745, 15.34393
572.3029, 16.36846
574.2314, 17.16820
576.1599, 18.40938
578.0883, 20.22131
580.0168, 22.52274
581.9453, 25.07865
583.8737, 27.95004
585.8022, 30.91434
587.7307, 34.12077
589.6591, 37.52169
591.5876, 40.20200
593.5161, 42.49345
595.4445, 43.78935
597.3729, 43.57365
599.3014, 41.76658
601.2299, 39.38201
603.1583, 36.10114
605.0868, 32.49619
607.0153, 29.00655
608.9437, 25.39883
610.8722, 22.36783
612.8007, 20.16962
614.7291, 18.55946
616.6576, 16.99837
618.5861, 15.36343
620.5145, 14.01664
622.4430, 13.26084
624.3715, 12.99792
626.2999, 12.40103
628.2284, 10.79971
630.1569, 9.470833
632.0853, 9.071770
634.0138, 9.550858
635.9423, 9.933624
637.8707, 10.04712
639.7992, 10.07966
641.7277, 10.14043
643.6561, 10.21071
645.5846, 10.38777
647.5131, 10.74368
649.4415, 11.19556
651.3700, 11.75938
653.2985, 12.63013
655.2269, 13.00970
657.1554, 12.57159
659.0839, 11.53658
661.0123, 10.24539
662.9408, 8.115440
664.8693, 6.354736
666.7977, 5.366013
668.7262, 4.945808
670.6547, 4.368324
672.5831, 3.449493
674.5116, 2.592010
676.4401, 1.938065
678.3685, 1.498344
680.2970, 1.160538
682.2255, 1.046280
684.1539, 0.9134980
686.0824, 0.5189670
688.0109, 0.1250460
689.9393, 0.4680020
691.8678, 0.1720200
693.7963, 0.2876890
695.7247, 0.6346820
697.6532, 0.9719920
699.5817, 0.9812700
701.5101, 0.3104170
703.4386, 0.4845500
705.3671, 0.8166890
707.2955, 0.6395950
709.2240, 0.2851030
711.1525, 0.3328630
713.0809, 1.020691
715.0094, 1.499168
716.9379, 1.789337
718.8663, 1.825592
720.7948, 1.343803
722.7233, 0.6241070
724.6517, 0.2861790
726.5802, 0.5236740
728.5087, 0.7607190
730.4371, 0.7610470
732.3656, 0.5796810
734.2941, 0.5117420
736.2225, 0.7027050
738.1510, 0.8266680
740.0795, 0.6936490
742.0079, 0.3895340
743.9364, 0.2921750
745.8649, 0.5666430
747.7933, 0.8802800
749.7218, 1.123497
751.6503, 1.308990
753.5787, 1.355019
755.5072, 1.203133
757.4357, 1.044662
759.3641, 0.9105990
761.2926, 0.7939000
763.2211, 0.8403020
765.1495, 1.263588
767.0780, 1.655930
769.0065, 1.759003
770.9349, 1.464539
772.8634, 1.245102
774.7919, 1.200714
776.7203, 1.172600
778.6488, 1.018532
780.5773, 0.7336960
782.5057, 0.5534210
784.4342, 0.5197980
786.3627, 0.5973970
788.2911, 0.7864000
790.2196, 1.176865
792.1481, 1.377098
794.0765, 1.250488
796.0050, 1.006371
797.9335, 0.8381960
799.8619, 0.7653430
801.7904, 0.6605830
803.7189, 0.4637450
805.6473, 0.2742000
807.5758, 0.1569750
809.5043, 8.9005001E-02
811.4327, 0.1807170
813.3612, 0.6495510
815.2897, 1.142937
817.2181, 1.185341
819.1466, 0.6100540
821.0751, 0.3587950
823.0035, 1.066696
824.9320, 1.898880
826.8605, 2.001923
828.7889, 0.9627300
830.7174, 0.4316560
832.6459, 0.9678190
834.5743, 1.864609
836.5028, 2.318962
838.4313, 2.151512
840.3597, 2.141281
842.2882, 2.612045
844.2167, 3.142609
846.1451, 3.374481
848.0736, 3.257141
850.0021, 2.982277
851.9305, 2.376732
853.8590, 1.762718
855.7875, 1.466537
857.7159, 1.611412
859.6444, 1.796104
861.5729, 2.129463
863.5013, 2.416580
865.4298, 2.468163
867.3583, 2.248039
869.2867, 2.069679
871.2152, 2.033661
873.1437, 2.037476
875.0721, 1.973747
877.0006, 1.686066
878.9291, 1.721878
880.8575, 2.415977
882.7860, 3.191101
884.7145, 3.550659
886.6429, 3.492661
888.5714, 3.517258
890.4999, 3.706993
892.4283, 4.015549
894.3568, 4.406456
896.2853, 4.857666
898.2137, 5.474022
900.1422, 6.268578
902.0707, 7.188789
903.9991, 8.255417
905.9276, 9.457771
907.8561, 10.62820
909.7845, 11.81571
911.7130, 12.88435
913.6415, 13.69497
915.5699, 14.22832
917.4984, 15.05868
919.4269, 16.41591
921.3553, 17.80235
923.2838, 18.94025
925.2123, 19.92299
927.1407, 21.44657
929.0692, 23.76804
930.9976, 26.20355
932.9261, 28.30798
934.8546, 30.26324
936.7830, 32.67664
938.7115, 35.81219
940.6400, 39.19426
942.5684, 42.67360
944.4969, 46.31184
946.4254, 50.32151
948.3538, 54.69046
950.2823, 59.34679
952.2108, 64.35165
954.1392, 69.58649
956.0677, 74.97913
957.9962, 80.62962
959.9246, 86.10580
961.8531, 91.50196
963.7816, 96.54434
965.7100, 100.9936
967.6385, 105.1599
969.5670, 108.0024
971.4954, 109.6375
973.4239, 109.8693
975.3524, 108.4975
977.2808, 105.6659
979.2093, 101.0804
981.1378, 93.93111
983.0662, 85.80902
984.9947, 77.16263
986.9232, 67.93622
988.8516, 60.07146
990.7801, 53.88505
992.7086, 48.67270
994.6370, 44.34443
996.5655, 40.88211
998.4940, 38.09521
1000.422, 36.16412
1002.351, 34.47018
1004.279, 32.67471
1006.208, 31.00597
1008.136, 29.90300
1010.065, 29.59370
1011.993, 29.31561
1013.922, 28.92616
1015.850, 28.54451
1017.779, 28.24165
1019.707, 28.04492
1021.636, 27.94064
1023.564, 28.01172
1025.493, 28.13482
1027.421, 28.10669
1029.349, 27.94884
1031.278, 28.20287
1033.206, 29.23176
1035.135, 30.29339
1037.063, 30.99514
1038.992, 31.37413
1040.920, 31.87961
1042.849, 32.54918
1044.777, 33.33071
1046.706, 34.29582
1048.634, 35.33597
1050.563, 36.31525
1052.491, 37.30398
1054.420, 38.08768
1056.348, 38.62218
1058.276, 38.89655
1060.205, 38.85189
1062.133, 38.42500
1064.062, 38.12582
1065.990, 38.19121
1067.919, 38.26912
1069.847, 38.19034
1071.776, 37.94698
1073.704, 37.59634
1075.633, 36.92371
1077.561, 36.36333
1079.490, 36.13314
1081.418, 36.10062
1083.347, 35.96832
1085.275, 35.74944
1087.203, 35.38586
1089.132, 34.68428
1091.060, 33.95444
1092.989, 33.55676
1094.917, 33.65283
1096.846, 33.65324
1098.774, 33.30611
1100.703, 33.04247
1102.631, 33.20386
1104.560, 33.79023
1106.488, 34.08405
1108.417, 33.62264
1110.345, 33.42750
1112.273, 34.27885
1114.202, 35.57996
1116.130, 36.12526
1118.059, 35.59344
1119.987, 35.22791
1121.916, 35.63456
1123.844, 36.20600
1125.773, 36.42504
1127.701, 36.28937
1129.630, 35.80540
1131.558, 34.98003
1133.487, 33.82256
1135.415, 32.30041
1137.344, 30.39565
1139.272, 28.20622
1141.200, 25.64986
1143.129, 22.93771
1145.057, 19.90477
1146.986, 16.84358
1148.914, 14.11775
1150.843, 11.74475
1152.771, 9.649933
1154.700, 7.729904
1156.628, 6.176201
1158.557, 5.238007
1160.485, 4.957199
1162.414, 4.509865
1164.342, 3.706177
1166.271, 3.004242
1168.199, 2.592628
1170.127, 2.356773
1172.056, 2.067772
1173.984, 1.708939
1175.913, 1.395447
1177.841, 1.209091
1179.770, 1.029076
1181.698, 0.7081450
1183.627, 0.2512590
1185.555, 5.0659999E-03
1187.484, 3.1394999E-02
1189.412, 0.1850740
1191.341, 0.9720990
1193.269, 1.962814
1195.198, 2.305298
1197.126, 1.445572
1199.054, 0.8451690
1200.983, 0.7941670
1202.911, 0.8428190
1204.840, 0.5699920
1206.768, 3.3477999E-02
1208.697, 0.2140500
1210.625, 0.1003040
1212.554, 0.3044820
1214.482, 6.2454000E-02
1216.411, 0.6708680
1218.339, 0.9762950
1220.268, 0.9297640
1222.196, 0.7472310
1224.125, 0.2379230
1226.053, 0.1924290
1227.981, 0.2015840
1229.910, 0.2063370
1231.838, 0.2892610
1233.767, 0.2333600
1235.695, 0.6948010
1237.624, 1.109673
1239.552, 1.311836
1241.481, 0.8826220
1243.409, 0.2771220
1245.338, 0.9586560
1247.266, 0.7304460
1249.195, 0.2699050
1251.123, 0.1194840
1253.052, 0.4443660
1254.980, 0.7160420
1256.908, 0.9551090
1258.837, 1.091484
1260.765, 1.130150
1262.694, 1.043793
1264.622, 0.7353820
1266.551, 0.1120450
1268.479, 0.2165530
1270.408, 3.9473999E-02
1272.336, 0.2210160
1274.265, 0.1254650
1276.193, 0.5977630
1278.122, 0.1925130
1280.050, 1.392464
1281.979, 2.390411
1283.907, 1.963379
1285.835, 1.365082
1287.764, 1.474182
1289.692, 2.039925
1291.621, 2.242195
1293.549, 1.840225
1295.478, 1.563263
1297.406, 1.809265
1299.335, 2.135727
1301.263, 2.097542
1303.192, 1.590958
1305.120, 1.505875
1307.049, 2.364319
1308.977, 3.033363
1310.906, 3.150810
1312.834, 2.943726
1314.762, 2.780304
1316.691, 2.716866
1318.619, 2.513977
1320.548, 1.901413
1322.476, 1.417610
1324.405, 1.419250
1326.333, 1.730675
1328.262, 1.920578
1330.190, 1.982765
1332.119, 1.929588
1334.047, 1.643730
1335.976, 1.374390
1337.904, 1.316330
1339.833, 1.427650
1341.761, 1.425781
1343.689, 1.105873
1345.618, 1.073341
1347.546, 1.863983
1349.475, 2.677345
1351.403, 2.709633
1353.332, 1.846855
1355.260, 1.358772
1357.189, 1.574028
1359.117, 1.749962
1361.046, 1.661827
1362.974, 1.489128
1364.903, 1.436493
1366.831, 1.495110
1368.760, 1.655991
1370.688, 1.961861
1372.616, 2.284157
1374.545, 2.725822
1376.473, 3.089249
1378.402, 3.005699
1380.330, 2.446411
1382.259, 2.156494
1384.187, 2.521820
1386.116, 2.820969
1388.044, 2.597260
1389.973, 2.098915
1391.901, 1.776054
1393.830, 1.625771
1395.758, 1.627411
1397.687, 2.056358
1399.615, 2.315376
1401.543, 1.948441
1403.472, 1.234787
1405.400, 0.9965900
1407.329, 1.570862
1409.257, 1.961372
1411.186, 2.015900
1413.114, 2.024376
1415.043, 2.177979
1416.971, 2.407669
1418.900, 2.504074
1420.828, 2.399963
1422.757, 2.188919
1424.685, 1.559555
1426.614, 1.204964
1428.542, 1.898392
1430.470, 3.153229
1432.399, 3.473351
1434.327, 2.613693
1436.256, 1.967506
1438.184, 1.942162
1440.113, 2.082939
1442.041, 2.181160
1443.970, 2.212578
1445.898, 2.119118
1447.827, 1.835403
1449.755, 1.576759
1451.684, 1.402718
1453.612, 1.282478
1455.541, 1.220329
1457.469, 1.206261
1459.397, 1.241577
1461.326, 1.369331
1463.254, 1.454384
1465.183, 1.562546
1467.111, 1.561325
1469.040, 1.267830
1470.968, 0.8370970
1472.897, 0.6722560
1474.825, 0.9955290
1476.754, 1.054855
1478.682, 0.6298140
1480.611, 0.2898410
1482.539, 0.2391430
1484.468, 0.4153980
1486.396, 0.7895970
1488.324, 1.516991
1490.253, 1.799629
1492.181, 1.119011
1494.110, 0.5699540
1496.038, 0.7496260
1497.967, 1.149445
1499.895, 0.9593580
1501.824, 0.2022090
1503.752, 0.2852550
1505.681, 0.2712780
1507.609, 0.2674940
1509.538, 0.4799190
1511.466, 0.6451640
1513.395, 0.4836120
1515.323, 4.6211001E-02
1517.251, 0.2060240
1519.180, 0.1415560
1521.108, 0.1091920
1523.037, 0.2446290
1524.965, 0.4016720
1526.894, 0.3475880
1528.822, 0.1790470
1530.751, 0.4620820
1532.679, 1.478867
1534.608, 2.089073
1536.536, 1.857025
1538.465, 1.413216
1540.393, 1.020020
1542.322, 0.6983110
1544.250, 0.4147640
1546.178, 5.2710999E-02
1548.107, 0.1987610
1550.035, 1.571526
1551.964, 2.603142
1553.892, 2.434486
1555.821, 1.747070
1557.749, 1.634521
1559.678, 2.243607
1561.606, 2.606682
1563.535, 2.651039
1565.463, 2.579552
1567.392, 2.343811
1569.320, 2.092422
1571.249, 1.915337
1573.177, 1.813431
1575.105, 1.842323
1577.034, 2.061043
1578.962, 2.305672
1580.891, 2.887718
1582.819, 3.170197
1584.748, 2.582855
1586.676, 1.530434
1588.605, 0.8897020
1590.533, 0.7612300
1592.462, 0.7641980
1594.390, 0.9877780
1596.319, 1.201111
1598.247, 1.329895
1600.176, 1.394966
1602.104, 1.373283
1604.032, 1.266037
1605.961, 1.288498
1607.889, 1.554924
1609.818, 1.668060
1611.746, 1.442772
1613.675, 1.180725
1615.603, 1.015099
1617.532, 0.9876940
1619.460, 1.234283
1621.389, 1.715797
1623.317, 1.917885
1625.246, 1.623848
1627.174, 1.395226
1629.103, 1.577385
1631.031, 1.797050
1632.959, 1.604881
1634.888, 1.095177
1636.816, 0.8185580
1638.745, 0.8304980
1640.673, 0.9120560
1642.602, 1.271637
1644.530, 1.396965
1646.459, 0.6339190
1648.387, 0.3373340
1650.316, 0.3716130
1652.244, 0.4923170
1654.173, 1.034279
1656.101, 1.042236
1658.030, 0.9149630
1659.958, 0.6249770
1661.886, 0.3783800
1663.815, 0.4135130
1665.743, 0.5933910
1667.672, 0.5320430
1669.600, 0.1805040
1671.529, 0.1866460
1673.457, 0.9710540
1675.386, 1.563095
1677.314, 1.317627
1679.243, 0.8650280
1681.171, 0.7483750
1683.100, 0.9113460
1685.028, 1.163002
1686.957, 1.500275
1688.885, 1.845894
1690.813, 2.253838
1692.742, 2.555832
1694.670, 2.697052
1696.599, 2.668121
1698.527, 2.417801
1700.456, 1.976746
1702.384, 1.478195
1704.313, 0.7971800
1706.241, 0.6124650
1708.170, 1.604294
1710.098, 2.478355
1712.027, 2.291756
1713.955, 1.652321
1715.884, 1.407593
1717.812, 1.527504
1719.740, 1.538147
1721.669, 1.341301
1723.597, 1.193817
1725.526, 1.223831
1727.454, 1.226517
1729.383, 1.004707
1731.311, 0.7174070
1733.240, 0.6489030
1735.168, 0.7453080
1737.097, 0.5268860
1739.025, 0.2617190
1740.954, 0.6834030
1742.882, 0.1175310
1744.811, 0.5244670
1746.739, 0.6816640
1748.667, 0.5335620
1750.596, 0.3162310
1752.524, 4.0619001E-02
1754.453, 9.9685997E-02
1756.381, 8.0086000E-02
1758.310, 5.6664001E-02
1760.238, 0.4027250
1762.167, 0.7379230
1764.095, 0.8748090
1766.024, 0.9319530
1767.952, 1.147377
1769.880, 1.484421
1771.809, 1.561638
1773.737, 1.260689
1775.666, 0.9918670
1777.594, 0.9604110
1779.523, 0.8729930
1781.451, 0.2970500
1783.380, 0.2346500
1785.308, 0.2771680
1787.237, 1.633278
1789.165, 2.063126
1791.094, 1.168228
1793.022, 0.5743560
1794.951, 0.7527310
1796.879, 1.013206
1798.807, 1.182182
1800.736, 1.233337
1802.664, 1.078461
1804.593, 0.7687990
1806.521, 0.5661700
1808.450, 0.4913710
1810.378, 0.4208150
1812.307, 0.2181400
1814.235, 0.1783520
1816.164, 0.5964050
1818.092, 0.9849010
1820.021, 0.8026960
1821.949, 0.3323820
1823.878, 0.3532180
1825.806, 1.002029
1827.734, 1.451248
1829.663, 1.749657
1831.591, 1.812309
1833.520, 1.361061
1835.448, 0.9909130
1837.377, 1.086815
1839.305, 1.392830
1841.234, 1.664879
1843.162, 1.875908
1845.091, 1.469986
1847.019, 0.1050640
1848.948, 0.9416350
1850.876, 0.4455640
1852.805, 0.2222980
1854.733, 1.162544
1856.661, 1.788506
1858.590, 1.371918
1860.518, 0.3226010
1862.447, 0.2337800
1864.375, 0.2740480
1866.304, 0.2032620
1868.232, 5.3329999E-03
1870.161, 0.1736980
1872.089, 0.2843320
1874.018, 0.3840790
1875.946, 0.4542010
1877.875, 0.5665210
1879.803, 0.8745350
1881.732, 1.292160
1883.660, 1.347984
1885.589, 0.9415890
1887.517, 0.7614520
1889.445, 0.9998860
1891.374, 1.237350
1893.302, 1.364983
1895.231, 1.414268
1897.159, 1.400406
1899.088, 1.331696
1901.016, 1.200363
1902.945, 1.021042
1904.873, 0.8071060
1906.802, 0.4552310
1908.730, 0.4720000
1910.659, 1.399025
1912.587, 2.014618
1914.516, 1.788155
1916.444, 1.346100
1918.372, 1.048813
1920.301, 0.8837810
1922.229, 0.8322140
1924.158, 0.8937990
1926.086, 1.058434
1928.015, 1.468933
1929.943, 1.678101
1931.872, 1.549522
1933.800, 1.381111
1935.729, 1.082741
1937.657, 0.9409480
1939.586, 1.445091
1941.514, 2.105507
1943.443, 1.847282
1945.371, 0.7670140
1947.299, 0.5393070
1949.228, 1.434158
1951.156, 1.951462
1953.085, 1.800240
1955.013, 1.400482
1956.942, 0.6410830
1958.870, 1.4954000E-02
1960.799, 0.3244020
1962.727, 0.3003160
1964.656, 0.2236180
1966.584, 1.080254
1968.513, 1.490822
1970.441, 1.338768
1972.370, 1.162415
1974.298, 1.036598
1976.226, 1.014359
1978.155, 1.176529
1980.083, 1.330765
1982.012, 1.374771
1983.940, 1.366974
1985.869, 1.400093
1987.797, 1.454819
1989.726, 1.353020
1991.654, 0.9784240
1993.583, 1.148087
1995.511, 2.533745
1997.440, 3.116379
1999.368, 1.839493
2001.297, 0.9054790
2003.225, 1.290863
2005.153, 1.944923
2007.082, 2.222878
2009.010, 2.210709
2010.939, 1.980865
2012.867, 1.577728
2014.796, 1.186356
2016.724, 0.8417210
2018.653, 0.8122100
2020.581, 1.286995
2022.510, 1.628555
2024.438, 1.565613
2026.367, 1.414360
2028.295, 1.189690
2030.224, 1.072411
2032.152, 1.340118
2034.080, 1.826836
2036.009, 2.177139
2037.937, 2.397423
2039.866, 2.345543
2041.794, 1.716728
2043.723, 1.424919
2045.651, 1.698601
2047.580, 1.976860
2049.508, 2.274719
2051.437, 2.388367
2053.365, 2.062492
2055.294, 1.626556
2057.222, 1.342102
2059.151, 1.231552
2061.079, 1.431892
2063.008, 1.911743
2064.936, 2.340492
2066.865, 2.662315
2068.793, 2.827370
2070.721, 2.790611
2072.650, 2.746460
2074.578, 2.888412
2076.507, 2.860359
2078.435, 2.170578
2080.364, 1.414726
2082.292, 1.429848
2084.220, 1.876144
2086.149, 1.933525
2088.077, 1.615982
2090.006, 1.483452
2091.934, 1.652237
2093.863, 1.600075
2095.791, 1.084000
2097.720, 0.9415820
2099.648, 1.630402
2101.577, 2.244179
2103.505, 2.349411
2105.434, 2.301407
2107.362, 2.431808
2109.291, 2.532211
2111.219, 2.226601
2113.147, 1.667465
2115.076, 1.291077
2117.004, 1.109024
2118.933, 1.351364
2120.861, 2.318932
2122.790, 2.960129
2124.718, 3.066147
2126.647, 2.944893
2128.575, 2.403564
2130.504, 1.980469
2132.432, 2.128906
2134.361, 2.379456
2136.289, 2.289284
2138.218, 2.040390
2140.146, 1.912384
2142.074, 1.910706
2144.003, 2.060150
2145.931, 2.359528
2147.860, 2.735588
2149.788, 3.261032
2151.717, 3.448105
2153.645, 3.046806
2155.574, 2.574608
2157.502, 1.796021
2159.431, 1.497345
2161.359, 2.776283
2163.288, 4.046173
2165.216, 3.418686
2167.145, 2.020638
2169.073, 2.009438
2171.001, 3.067009
2172.930, 3.313652
2174.858, 2.745255
2176.787, 2.995064
2178.715, 4.377823
2180.644, 5.096405
2182.572, 4.656044
2184.501, 4.130104
2186.429, 3.724197
2188.358, 3.483742
2190.286, 3.622223
2192.215, 3.706108
2194.143, 3.284561
2196.072, 2.814339
2198.000, 2.998466
2199.928, 3.487259
2201.857, 3.216606
2203.785, 2.245552
2205.714, 2.058739
2207.642, 2.743660
2209.571, 3.118423
2211.499, 3.049675
2213.428, 2.910400
2215.356, 2.779015
2217.285, 2.562462
2219.213, 1.957031
2221.142, 1.608986
2223.070, 2.043091
2224.999, 2.565346
2226.927, 2.683739
2228.855, 2.562386
2230.784, 2.317474
2232.712, 2.037216
2234.641, 1.926201
2236.569, 1.985329
2238.498, 2.254395
2240.426, 2.743881
2242.355, 2.857155
2244.283, 2.485489
2246.212, 2.123909
2248.140, 1.763977
2250.069, 1.648094
2251.997, 2.093262
2253.926, 2.437279
2255.854, 2.439857
2257.782, 2.293465
2259.711, 1.953949
2261.639, 1.665756
2263.568, 1.726028
2265.496, 1.933662
2267.425, 1.956429
2269.353, 1.873756
2271.282, 2.027046
2273.210, 2.337585
2275.139, 2.128510
2277.067, 1.340019
2278.996, 0.8431700
2280.924, 0.8197710
2282.853, 0.7249370
2284.781, 9.6069001E-02
2286.709, 3.6559999E-02
2288.638, 1.644005
2290.566, 2.448509
2292.495, 0.7809680
2294.423, 0.6771240
2296.352, 0.4170300
2298.280, 0.3687670
2300.209, 1.106216
2302.137, 1.591423
2304.066, 1.382896
2305.994, 0.8181230
2307.923, 0.6258010
2309.851, 0.7247390
2311.780, 0.6795350
2313.708, 0.4637830
2315.636, 0.5151520
2317.565, 0.8413310
2319.493, 1.230324
2321.422, 1.766975
2323.350, 2.076500
2325.279, 2.088135
2327.207, 1.968399
2329.136, 1.713257
2331.064, 1.422920
2332.993, 1.029663
2334.921, 0.7409900
2336.850, 0.7609790
2338.778, 0.7945250
2340.707, 0.6062240
2342.635, 0.3112950
2344.563, 0.1518780
2346.492, 0.5004500
2348.420, 6.0936000E-02
2350.349, 1.056366
2352.277, 1.059364
2354.206, 0.2747120
2356.134, 1.8813999E-02
2358.063, 0.3632810
2359.991, 0.4301910
2361.920, 3.3027999E-02
2363.848, 3.5507001E-02
2365.777, 0.6794590
2367.705, 1.212090
2369.634, 1.603790
2371.562, 1.499222
2373.490, 0.4909290
2375.419, 0.2405170
2377.347, 0.1284790
2379.276, 0.1497650
2381.204, 8.5570998E-02
2383.133, 0.3139420
2385.061, 1.922913
2386.990, 3.321922
2388.918, 2.602776
2390.847, 1.162376
2392.775, 0.7357180
2394.704, 0.8096310
2396.632, 0.3123930
2398.561, 0.4222870
2400.489, 0.4138180
2402.417, 0.1978230
2404.346, 0.5790100
2406.274, 0.7332530
2408.203, 0.7787550
2410.131, 0.6851200
2412.060, 0.6918260
2413.988, 0.8155980
2415.917, 1.006714
2417.845, 1.295090
2419.774, 1.427208
2421.702, 1.234131
2423.631, 1.188126
2425.559, 1.712486
2427.488, 1.922905
2429.416, 1.145187
2431.344, 0.6293180
2433.273, 1.140198
2435.201, 1.699532
2437.130, 1.920631
2439.058, 1.837273
2440.987, 1.255325
2442.915, 0.6179280
2444.844, 0.2909320
2446.772, 0.2263950
2448.701, 0.5831990
2450.629, 1.029457
2452.558, 0.8434680
2454.486, 0.3125310
2456.415, 0.1859510
2458.343, 0.3940050
2460.271, 0.7447200
2462.200, 1.150787
2464.128, 1.106903
2466.057, 0.6119230
2467.985, 0.2240300
2469.914, 7.8414999E-02
2471.842, 6.5338001E-02
2473.771, 0.9300460
2475.699, 1.451721
2477.628, 1.521133
2479.556, 1.706985
2481.485, 2.137100
2483.413, 2.419754
2485.342, 2.535179
2487.270, 2.296936
2489.198, 1.164452
2491.127, 0.4572070
2493.055, 0.8442150
2494.984, 1.216782
2496.912, 1.112091
2498.841, 1.091751
2500.769, 1.574570
2502.698, 1.883827
2504.626, 1.363144
2506.555, 0.8481060
2508.483, 0.9970400
2510.412, 1.297401
2512.340, 1.339928
2514.269, 1.305199
2516.197, 1.505714
2518.125, 1.644089
2520.054, 1.100319
2521.982, 0.4156880
2523.911, 0.4168170
2525.839, 0.7686770
2527.768, 1.058228
2529.696, 1.260719
2531.625, 1.252655
2533.553, 1.108536
2535.482, 1.135376
2537.410, 1.292160
2539.339, 1.321823
2541.267, 1.203728
2543.196, 0.6106640
2545.124, 0.4208220
2547.052, 0.2426760
2548.981, 1.396408
2550.909, 1.759926
2552.838, 0.5736010
2554.766, 8.2374997E-02
2556.695, 0.1122590
2558.623, 3.4859002E-02
2560.552, 9.6450999E-02
2562.480, 0.5722200
2564.409, 1.721825
2566.337, 2.319473
2568.266, 1.936630
2570.194, 1.637039
2572.123, 1.543404
2574.051, 1.245308
2575.979, 0.5077510
2577.908, 0.1151120
2579.836, 0.5133510
2581.765, 0.7799450
2583.693, 0.4184880
2585.622, 0.3100740
2587.550, 0.9162980
2589.479, 1.362282
2591.407, 1.324913
2593.336, 1.331192
2595.264, 1.750763
2597.193, 1.895737
2599.121, 1.161545
2601.050, 0.5397110
2602.978, 0.5775220
2604.906, 0.6980740
2606.835, 0.6642680
2608.763, 0.5975570
2610.692, 0.6393590
2612.620, 0.5282750
2614.549, 0.2592470
2616.477, 0.8017350
2618.406, 0.2065730
2620.334, 0.4934310
2622.263, 0.5048750
2624.191, 0.3680880
2626.120, 0.4901430
2628.048, 0.6646580
2629.977, 0.6701890
2631.905, 0.7050250
2633.833, 1.066475
2635.762, 1.376785
2637.690, 1.096062
2639.619, 0.7564010
2641.547, 1.090393
2643.476, 1.509850
2645.404, 1.385452
2647.333, 1.050499
2649.261, 0.7701950
2651.190, 0.6018370
2653.118, 0.5834270
2655.047, 0.7332760
2656.975, 1.187561
2658.904, 1.712105
2660.832, 2.034073
2662.760, 2.168816
2664.689, 2.232491
2666.617, 2.052620
2668.546, 0.9763950
2670.474, 0.2032780
2672.403, 4.5302998E-02
2674.331, 0.7914730
2676.260, 1.458618
2678.188, 1.853996
2680.117, 1.567436
2682.045, 1.095711
2683.974, 1.444839
2685.902, 2.098518
2687.831, 2.018440
2689.759, 1.616608
2691.688, 1.657715
2693.616, 1.923462
2695.544, 2.220879
2697.473, 2.363411
2699.401, 2.032097
2701.330, 1.511391
2703.258, 1.364769
2705.187, 1.410004
2707.115, 1.257668
2709.044, 1.092491
2710.972, 1.238449
2712.901, 1.554962
2714.829, 1.790611
2716.758, 2.032906
2718.686, 2.732338
2720.615, 3.348022
2722.543, 2.458855
2724.471, 1.217133
2726.400, 1.668434
2728.328, 2.684311
2730.257, 2.286888
2732.185, 1.367744
2734.114, 1.378143
2736.042, 1.815689
2737.971, 2.159264
2739.899, 2.276802
2741.828, 1.794197
2743.756, 1.159325
2745.685, 0.9336930
2747.613, 0.9525070
2749.542, 1.147362
2751.470, 1.297867
2753.398, 1.002998
2755.327, 0.6936800
2757.255, 0.8699420
2759.184, 1.270729
2761.112, 2.013847
2763.041, 2.411415
2764.969, 1.249718
2766.898, 5.1040002E-03
2768.826, 8.4137000E-02
2770.755, 0.4619670
2772.683, 1.5144000E-02
2774.612, 0.2314450
2776.540, 0.9640960
2778.469, 2.148033
2780.397, 2.187042
2782.325, 1.958267
2784.254, 1.887825
2786.182, 1.976875
2788.111, 2.501740
2790.039, 2.846428
2791.968, 2.668060
2793.896, 2.196724
2795.825, 1.012344
2797.753, 0.4944000
2799.682, 2.144386
2801.610, 3.303268
2803.539, 2.340454
2805.467, 1.530281
2807.396, 1.601570
2809.324, 1.720795
2811.252, 1.651466
2813.181, 1.465683
2815.109, 0.8532260
2817.038, 0.7759250
2818.966, 1.845566
2820.895, 2.287933
2822.823, 1.605339
2824.752, 1.004379
2826.680, 0.6745830
2828.609, 0.6881180
2830.537, 1.319885
2832.466, 1.515297
2834.394, 1.135635
2836.323, 0.7507250
2838.251, 0.4049910
2840.179, 0.1689150
2842.108, 1.7318999E-02
2844.036, 0.3432540
2845.965, 1.324318
2847.893, 1.447723
2849.822, 0.7820510
2851.750, 0.3272170
2853.679, 0.1144710
2855.607, 4.1274998E-02
2857.536, 0.1067350
2859.464, 0.4238360
2861.393, 0.8814770
2863.321, 0.8861620
2865.250, 0.6447830
2867.178, 0.8685070
2869.106, 1.305008
2871.035, 1.216042
2872.963, 0.9618070
2874.892, 1.475922
2876.820, 2.072792
2878.749, 1.611084
2880.677, 0.9560170
2882.606, 1.412491
2884.534, 2.032700
2886.463, 1.648643
2888.391, 1.232330
2890.320, 1.709145
2892.248, 2.164406
2894.177, 1.784592
2896.105, 1.452026
2898.033, 1.788109
2899.962, 2.048904
2901.890, 1.858505
2903.819, 1.701324
2905.747, 1.839355
2907.676, 1.853081
2909.604, 1.527435
2911.533, 1.395432
2913.461, 1.632362
2915.390, 1.715622
2917.318, 1.542526
2919.247, 1.213753
2921.175, 0.6972270
2923.104, 9.2133000E-02
2925.032, 0.6231380
2926.960, 6.9572002E-02
2928.889, 1.856964
2930.817, 2.132256
2932.746, 0.8803560
2934.674, 0.5729750
2936.603, 0.9981380
2938.531, 1.303642
2940.460, 1.525475
2942.388, 1.921829
2944.317, 2.234428
2946.245, 1.631653
2948.174, 0.8785170
2950.102, 1.240517
2952.031, 1.850334
2953.959, 1.679291
2955.887, 1.543892
2957.816, 2.525841
2959.744, 3.236847
2961.673, 2.659096
2963.601, 1.904007
2965.530, 1.613434
2967.458, 1.292297
2969.387, 0.5734480
2971.315, 0.2714690
2973.244, 0.6747130
2975.172, 0.9550780
2977.101, 0.8305740
2979.029, 1.008392
2980.958, 1.733749
2982.886, 1.567024
2984.814, 0.4855350
2986.743, 0.4591750
2988.671, 1.480713
2990.600, 1.590279
2992.528, 0.9684680
2994.457, 0.4899900
2996.385, 0.1864400
2998.314, 6.7009002E-02
3000.242, 0.2191620
3002.171, 1.089012
3004.099, 1.994965
3006.028, 2.060730
3007.956, 1.820534
3009.885, 1.422325
3011.813, 1.210861
3013.741, 1.666862
3015.670, 1.838875
3017.598, 1.060646
3019.527, 0.6463700
3021.455, 1.264832
3023.384, 1.457603
3025.312, 0.5326000
3027.241, 0.1055830
3029.169, 0.4214400
3031.098, 0.3081280
3033.026, 0.2550660
3034.955, 0.5659940
3036.883, 0.6313400
3038.812, 0.6164020
3040.740, 0.5785830
3042.668, 0.7664720
3044.597, 1.048996
3046.525, 1.194931
3048.454, 1.260696
3050.382, 1.380173
3052.311, 1.382988
3054.239, 0.8468090
3056.168, 0.5848620
3058.096, 1.637245
3060.025, 2.144760
3061.953, 1.015099
3063.882, 0.4346540
3065.810, 1.216919
3067.739, 1.727592
3069.667, 1.585014
3071.595, 1.311821
3073.524, 0.8972850
3075.452, 1.360619
3077.381, 2.587784
3079.309, 2.236641
3081.238, 0.7432400
3083.166, 0.1496050
3085.095, 0.2141720
3087.023, 0.7596510
3088.952, 1.328064
3090.880, 1.531059
3092.809, 1.380363
3094.737, 0.5359120
3096.666, 3.7819002E-02
3098.594, 0.4948730
3100.522, 0.7899860
3102.451, 7.5840000E-03
3104.379, 0.2083360
3106.308, 0.4366680
3108.236, 0.8753810
3110.165, 0.9286120
3112.093, 0.8872600
3114.022, 0.7625430
3115.950, 0.8592530
3117.879, 1.078163
3119.807, 0.9930730
3121.736, 0.8438950
3123.664, 1.294930
3125.593, 1.717293
3127.521, 1.111809
3129.449, 0.5910420
3131.378, 0.9814990
3133.306, 1.592201
3135.235, 2.382278
3137.163, 2.722610
3139.092, 2.296051
3141.020, 1.910088
3142.949, 1.596626
3144.877, 1.819962
3146.806, 2.531143
3148.734, 2.600502
3150.663, 2.089661
3152.591, 1.234703
3154.520, 0.3870930
3156.448, 0.4511570
3158.376, 0.8288350
3160.305, 0.8380810
3162.233, 0.7209930
3164.162, 0.4405820
3166.090, 0.3779600
3168.019, 0.7603530
3169.947, 1.010849
3171.876, 0.7725450
3173.804, 0.8774490
3175.733, 1.420456
3177.661, 1.664680
3179.590, 1.612335
3181.518, 1.605850
3183.447, 1.548180
3185.375, 0.9185180
3187.303, 0.1118390
3189.232, 0.6244350
3191.160, 0.8052670
3193.089, 0.7620620
3195.017, 1.750671
3196.946, 0.6767960
3198.874, 4.5242000E-02
3200.803, 1.023781
3202.731, 1.451797
3204.660, 0.9987110
3206.588, 1.002617
3208.517, 1.482834
3210.445, 2.288460
3212.374, 3.065582
3214.302, 2.241997
3216.230, 0.9874800
3218.159, 1.283661
3220.087, 1.764832
3222.016, 1.327049
3223.944, 0.8628690
3225.873, 0.7866520
3227.801, 0.6297150
3229.730, 0.1330800
3231.658, 4.6080002E-03
3233.587, 0.3094560
3235.515, 0.5829930
3237.444, 0.7513280
3239.372, 0.3752440
3241.301, 0.1170200
3243.229, 0.5548480
3245.157, 1.441261
3247.086, 1.453186
3249.014, 1.320389
3250.943, 1.513817
3252.871, 1.702263
3254.800, 1.904022
3256.728, 1.673782
3258.657, 0.6520460
3260.585, 0.5402220
3262.514, 1.342186
3264.442, 1.498444
3266.371, 1.311226
3268.299, 1.920319
3270.228, 2.618355
3272.156, 2.166138
3274.084, 1.628426
3276.013, 1.661392
3277.941, 1.913086
3279.870, 2.509148
3281.798, 2.689621
3283.727, 2.346169
3285.655, 1.885483
3287.584, 1.354210
3289.512, 0.7595520
3291.441, 0.3375780
3293.369, 1.237144
3295.298, 2.180580
3297.226, 1.107559
3299.155, 0.1113430
3301.083, 0.6766740
3303.011, 1.039215
3304.940, 0.3209920
3306.868, 0.2621150
3308.797, 0.6710740
3310.725, 0.2069400
3312.654, 2.009148
3314.582, 1.438721
3316.511, 0.1938320
3318.439, 4.9477000E-02
3320.368, 0.8617780
3322.296, 1.080025
3324.225, 1.400002
3326.153, 2.574677
3328.082, 2.684975
3330.010, 0.9865040
3331.938, 0.1066440
3333.867, 0.2417680
3335.795, 0.7134250
3337.724, 1.295876
3339.652, 1.200714
3341.581, 0.9160840
3343.509, 1.277885
3345.438, 1.466156
3347.366, 0.7338330
3349.295, 0.3078380
3351.223, 0.8361360
3353.152, 0.8204500
3355.080, 0.1760710
3357.009, 0.1208800
3358.937, 0.5182270
3360.865, 0.6903690
3362.794, 0.6377260
3364.722, 5.6281999E-02
3366.651, 0.2540590
3368.579, 0.7020870
3370.508, 1.297714
3372.436, 1.022926
3374.365, 0.6833650
3376.293, 0.3154830
3378.222, 0.7779310
3380.150, 1.705727
3382.079, 1.456718
3384.007, 0.7579120
3385.936, 0.7194140
3387.864, 0.6889420
3389.792, 2.3871999E-02
3391.721, 0.2322080
3393.649, 0.5710370
3395.578, 1.183807
3397.506, 1.548477
3399.435, 1.233803
3401.363, 0.5699390
3403.292, 0.9472500
3405.220, 1.465019
3407.148, 0.6427760
3409.077, 8.3076000E-02
3411.005, 0.9092180
3412.934, 2.079567
3414.862, 3.629547
3416.791, 3.766533
3418.719, 2.402687
3420.648, 1.502731
3422.576, 1.004395
3424.505, 0.8735280
3426.433, 0.7817690
3428.362, 0.2685780
3430.290, 2.6619000E-02
3432.219, 0.3083040
3434.147, 0.9984740
3436.075, 2.337357
3438.004, 1.824562
3439.932, 7.7293001E-02
3441.861, 0.2768170
3443.789, 1.076042
3445.718, 2.0195000E-02
3447.646, 0.8692550
3449.575, 1.5633000E-02
3451.503, 0.5827640
3453.432, 0.4251560
3455.360, 0.4968490
3457.289, 0.8180390
3459.217, 0.7544480
3461.146, 0.4412690
3463.074, 1.8623000E-02
3465.002, 0.1840820
3466.931, 0.4660800
3468.859, 0.6718440
3470.788, 0.1552730
3472.716, 0.2059250
3474.645, 0.8966220
3476.573, 0.8087390
3478.502, 6.8024002E-02
3480.430, 0.6471860
3482.359, 1.478371
3484.287, 1.516747
3486.216, 1.363335
3488.144, 1.289505
3490.073, 0.8437120
3492.001, 0.2940900
3493.929, 0.1013180
3495.858, 1.362633
3497.786, 1.095894
3499.715, 0.4550250
3501.643, 1.138741
3503.572, 1.543213
3505.500, 0.6984710
3507.429, 0.2247850
3509.357, 0.3383330
3511.286, 0.5886150
3513.214, 0.8224790
3515.143, 0.3631130
3517.071, 0.1095350
3519.000, 0.3912430
3520.928, 0.8865590
3522.856, 0.7769850
3524.785, 0.9152980
3526.713, 1.399742
3528.642, 1.249153
3530.570, 0.7233890
3532.499, 1.065872
3534.427, 1.431656
3536.356, 0.8325040
3538.284, 0.1373210
3540.213, 0.5016480
3542.141, 0.3088610
3544.070, 0.7815930
3545.998, 1.163391
3547.927, 0.9944150
3549.855, 0.7673570
3551.783, 0.5154190
3553.712, 4.9125999E-02
3555.640, 1.8271999E-02
3557.569, 0.7000660
3559.497, 1.127502
3561.426, 1.181221
3563.354, 0.4722900
3565.283, 0.3621980
3567.211, 8.1984997E-02
3569.140, 0.6258320
3571.068, 0.2802730
3572.997, 0.1447450
3574.925, 0.4868550
3576.854, 1.099350
3578.782, 1.848770
3580.710, 1.695969
3582.639, 1.326782
3584.567, 1.642937
3586.496, 2.016731
3588.424, 2.099350
3590.353, 2.526527
3592.281, 3.530823
3594.210, 3.393990
3596.138, 2.578773
3598.067, 2.081139
3599.995, 1.928528
3601.924, 2.360291
3603.852, 2.484711
3605.781, 1.782204
3607.709, 1.431389
3609.637, 1.410225
3611.566, 1.476730
3613.494, 1.568710
3615.423, 1.610069
3617.351, 1.622063
3619.280, 1.599976
3621.208, 1.569397
3623.137, 1.520958
3625.065, 1.536636
3626.994, 1.673325
3628.922, 2.441345
3630.851, 2.812843
3632.779, 1.744080
3634.708, 1.078651
3636.636, 1.341721
3638.564, 1.764091
3640.493, 2.261345
3642.421, 2.612381
3644.350, 2.896111
3646.278, 3.329956
3648.207, 3.472885
3650.135, 2.927002
3652.064, 2.625183
3653.992, 2.530029
3655.921, 2.055641
3657.849, 1.568100
3659.778, 1.762718
3661.706, 2.052658
3663.635, 2.146812
3665.563, 2.395760
3667.491, 2.798279
3669.420, 2.796272
3671.348, 2.644539
3673.277, 2.951279
3675.205, 3.288254
3677.134, 3.457428
3679.062, 3.381096
3680.991, 3.147194
3682.919, 2.962196
3684.848, 2.809532
3686.776, 2.596848
3688.705, 2.370071
3690.633, 2.041290
3692.562, 1.990074
3694.490, 2.283279
3696.418, 2.716904
3698.347, 3.127800
3700.275, 3.027901
3702.204, 2.667076
3704.132, 2.062042
3706.061, 1.830193
3707.989, 2.194611
3709.918, 2.092941
3711.846, 1.709846
3713.775, 1.690910
3715.703, 1.931709
3717.632, 2.584465
3719.560, 2.761551
3721.489, 2.086395
3723.417, 1.928284
3725.345, 2.205925
3727.274, 2.459061
3729.202, 2.633209
3731.131, 2.677513
3733.059, 2.634644
3734.988, 2.461655
3736.916, 2.516426
3738.845, 2.693832
3740.773, 2.674591
3742.702, 2.578392
3744.630, 2.557106
3746.559, 2.351250
3748.487, 1.839340
3750.416, 1.532097
3752.344, 1.539322
3754.272, 2.516106
3756.201, 3.122330
3758.129, 2.250626
3760.058, 1.542381
3761.986, 1.294899
3763.915, 2.037270
3765.843, 3.111069
3767.772, 3.035751
3769.700, 2.776169
3771.629, 2.973831
3773.557, 2.770172
3775.486, 2.021118
3777.414, 1.706604
3779.343, 1.657349
3781.271, 1.468796
3783.199, 1.859802
3785.128, 3.186523
3787.056, 3.621338
3788.985, 3.147278
3790.913, 2.662704
3792.842, 2.498383
3794.770, 3.593185
3796.699, 3.971268
3798.627, 2.953384
3800.556, 2.566299
3802.484, 2.700760
3804.413, 2.472183
3806.341, 2.342743
3808.270, 2.912033
3810.198, 3.299164
3812.126, 3.320007
3814.055, 3.021286
3815.983, 2.619125
3817.912, 2.586349
3819.840, 2.706299
3821.769, 2.933044
3823.697, 2.953293
3825.626, 2.788773
3827.554, 3.297058
3829.483, 3.872986
3831.411, 3.594254
3833.340, 3.418045
3835.268, 3.676743
3837.197, 3.937439
3839.125, 4.118256
3841.053, 3.805862
3842.982, 3.687073
3844.910, 4.657242
3846.839, 4.884781
3848.767, 4.196350
3850.696, 3.911896
3852.624, 3.887512
3854.553, 4.120071
3856.481, 4.247269
3858.410, 3.962067
3860.338, 4.246506
3862.267, 4.883133
3864.195, 4.438690
3866.124, 3.747208
3868.052, 3.523911
3869.980, 3.386337
3871.909, 3.198868
3873.837, 3.465683
3875.766, 3.940369
3877.694, 4.213455
3879.623, 4.159714
3881.551, 3.696503
3883.480, 3.965240
3885.408, 4.777252
3887.337, 4.488647
3889.265, 4.015244
3891.194, 4.247131
3893.122, 4.248199
3895.051, 3.867157
3896.979, 4.050873
3898.907, 4.422058
3900.836, 4.430222
3902.764, 4.164597
3904.693, 3.561279
3906.621, 3.366531
3908.550, 3.603134
3910.478, 4.556000
3912.407, 5.208359
3914.335, 4.570129
3916.264, 4.311981
3918.192, 4.502899
3920.121, 4.511032
3922.049, 4.322205
3923.978, 3.713608
3925.906, 3.518234
3927.834, 4.226730
3929.763, 3.504791
3931.691, 2.414795
3933.620, 3.173721
3935.548, 4.328995
3937.477, 5.514099
3939.405, 4.963104
3941.334, 3.221375
3943.262, 3.100128
3945.191, 3.492874
3947.119, 3.778214
3949.048, 4.021240
3950.976, 4.207428
3952.905, 4.026184
3954.833, 3.685028
3956.761, 3.141998
3958.690, 3.270050
3960.618, 4.183884
3962.547, 4.408249
3964.475, 4.146423
3966.404, 3.608078
3968.332, 3.171753
3970.261, 3.002411
3972.189, 2.966858
3974.118, 3.090698
3976.046, 3.622192
3977.975, 3.937988
3979.903, 3.706238
3981.832, 3.400909
3983.760, 3.008575
3985.688, 1.898178
3987.617, 1.083191
3989.545, 1.519714
3991.474, 1.567810
3993.402, 1.052902
3995.331, 0.1891480
3997.259, 0.3361360
3999.188, 0.3015290
4001.116, 1.105896
4003.045, 1.897339
4004.973, 2.448471
4006.902, 2.721542
4008.830, 2.976059
4010.759, 1.887329
4012.687, 1.013062
4014.615, 0.2756500
4016.544, 1.958313
4018.472, 1.568527
4020.401, 1.107422
4022.329, 1.426910
4024.258, 1.541199
4026.186, 1.330444
4028.115, 0.2225490
4030.043, 0.3803100
4031.972, 6.7916997E-02
4033.900, 1.744965
4035.829, 3.752045
4037.757, 1.988358
4039.686, 0.6713560
4041.614, 1.829010
4043.542, 2.650574
4045.471, 2.849060
4047.399, 1.620712
4049.328, 0.6022640
4051.256, 0.9010010
4053.185, 0.8953250
4055.113, 0.7443700
4057.042, 1.042206
4058.970, 1.451431
4060.899, 1.893341
4062.827, 1.616013
4064.756, 0.8261570
4066.684, 0.4831700
4068.613, 0.1452480
4070.541, 0.4890750
4072.469, 0.6656650
4074.398, 0.4037630
4076.326, 0.2374420
4078.255, 0.6289830
4080.183, 9.8770000E-02
4082.112, 0.6313480
4084.040, 2.073318
4085.969, 0.7731020
4087.897, 0.3390960
4089.826, 0.4882510
4091.754, 0.6644290
4093.683, 0.3626710
4095.611, 1.290054
4097.540, 1.786026
4099.468, 0.9338070
4101.396, 0.5027770
4103.325, 0.4137880
4105.253, 0.3550720
4107.182, 0.7401730
4109.110, 3.6896002E-02
4111.039, 0.2237550
4112.967, 0.1530910
4114.896, 0.1512150
4116.824, 0.3060610
4118.752, 0.8910520
4120.681, 0.8281560
4122.609, 0.4758000
4124.538, 0.8611760
4126.466, 1.339279
4128.395, 1.682999
4130.323, 1.727722
4132.252, 1.972702
4134.180, 2.149948
4136.109, 2.235809
4138.037, 2.094635
4139.966, 2.944214
4141.894, 3.618820
4143.823, 1.673462
4145.751, 0.7925260
4147.680, 1.686874
4149.608, 2.254120
4151.537, 2.610062
4153.465, 2.804230
4155.394, 3.220123
4157.322, 3.831177
4159.250, 3.438797
4161.179, 3.215302
4163.107, 4.123871
4165.036, 4.326187
4166.964, 3.547592
4168.893, 2.573166
4170.821, 2.378647
4172.750, 4.367340
4174.678, 4.299973
4176.606, 2.637283
4178.535, 2.796799
4180.463, 2.776855
4182.392, 1.837784
4184.320, 1.826019
4186.249, 2.351532
4188.177, 2.435257
4190.106, 2.619583
4192.034, 3.015121
4193.963, 2.489456
4195.891, 1.883972
4197.820, 3.122040
4199.748, 3.458572
4201.677, 2.565491
4203.605, 2.713699
4205.534, 2.852234
4207.462, 1.793518
4209.391, 1.723907
4211.319, 2.504257
4213.248, 2.582993
4215.176, 2.333542
4217.104, 1.994080
4219.033, 1.471268
4220.961, 1.105652
4222.890, 2.480286
4224.818, 3.174774
4226.747, 2.417358
4228.675, 1.348007
4230.604, 0.4080050
4232.532, 8.7233998E-02
4234.460, 1.8219000E-02
4236.389, 0.1153870
4238.317, 1.481796
4240.246, 2.267517
4242.174, 0.6599120
4244.103, 0.0000000E+00
##END=



