##NAMES=Haidingerite
##RRUFFID=R080093
##IDEAL CHEMISTRY=Ca(As^5+^O_3_OH)&#183;H_2_O
##LOCALITY=Atrevida mine, Vimbod√≠, Tarragona, Catalonia, Spain
##OWNER=RRUFF
##SOURCE=Joan Abella i Creus
##DESCRIPTION=Clusters of short prismatic colorless crystals
##STATUS=The identification of this mineral is not yet confirmed.
##URL=rruff.info/R080093
143.6278, 0.0000000E+00
144.1099, 0.1128650
144.5920, 4.6200000E-04
145.0741, 2.2968000E-02
145.5563, 0.1188240
146.0384, 0.5414090
146.5205, 1.289997
147.0026, 1.888573
147.4847, 2.116058
147.9668, 2.248196
148.4490, 2.402790
148.9311, 2.607887
149.4132, 2.863831
149.8953, 3.167767
150.3774, 3.517227
150.8595, 3.924007
151.3417, 4.280579
151.8238, 4.734173
152.3059, 5.467731
152.7880, 6.518902
153.2701, 7.750195
153.7522, 8.827209
154.2344, 9.754208
154.7165, 10.47799
155.1986, 11.08976
155.6807, 11.44407
156.1628, 11.54514
156.6449, 11.38469
157.1271, 10.91377
157.6092, 9.864426
158.0913, 7.546753
158.5734, 5.525452
159.0555, 4.392200
159.5376, 3.920563
160.0198, 3.507015
160.5019, 2.950985
160.9840, 2.351509
161.4661, 1.793797
161.9482, 1.673100
162.4303, 1.657566
162.9125, 1.497471
163.3946, 1.200024
163.8767, 0.9434620
164.3588, 0.9031300
164.8409, 0.9510990
165.3230, 0.8517230
165.8052, 0.4325750
166.2873, 2.7039001E-02
166.7694, 9.5444001E-02
167.2515, 0.3558850
167.7336, 0.7579610
168.2157, 0.7589720
168.6979, 0.5739290
169.1800, 0.4439160
169.6621, 0.4799040
170.1442, 0.6299860
170.6263, 0.7526020
171.1084, 0.8470460
171.5906, 0.9095650
172.0727, 0.9721030
172.5548, 1.002834
173.0369, 0.9402920
173.5190, 0.7208820
174.0011, 0.3787040
174.4833, 0.2049900
174.9654, 0.5164760
175.4475, 0.6840970
175.9296, 0.4863970
176.4117, 4.7672000E-02
176.8938, 0.4193270
177.3760, 0.7782170
177.8581, 1.033798
178.3402, 0.9716030
178.8223, 0.3344310
179.3044, 0.3278690
179.7865, 0.8531990
180.2687, 1.239048
180.7508, 1.551361
181.2329, 1.857250
181.7150, 2.165497
182.1971, 2.230759
182.6792, 1.684372
183.1614, 1.232544
183.6435, 1.403572
184.1256, 2.167770
184.6077, 2.974583
185.0898, 3.315819
185.5719, 3.148998
186.0541, 3.114208
186.5362, 3.246311
187.0183, 3.501980
187.5004, 3.921452
187.9825, 4.524315
188.4646, 5.041031
188.9468, 5.134743
189.4289, 4.903992
189.9110, 4.738899
190.3931, 4.853043
190.8752, 5.046604
191.3573, 4.949516
191.8395, 4.422508
192.3216, 3.926598
192.8037, 3.853176
193.2858, 4.078129
193.7679, 4.352165
194.2500, 4.606926
194.7322, 4.829941
195.2143, 4.967628
195.6964, 4.945461
196.1785, 4.953510
196.6606, 5.074608
197.1427, 5.295967
197.6249, 5.592564
198.1070, 5.968975
198.5891, 6.417191
199.0712, 6.854813
199.5533, 7.264606
200.0354, 7.682491
200.5176, 8.114044
200.9997, 8.560890
201.4818, 9.031929
201.9639, 9.606186
202.4460, 10.29770
202.9281, 10.60543
203.4103, 10.07376
203.8924, 9.544994
204.3745, 9.251690
204.8566, 9.172981
205.3387, 9.200043
205.8208, 9.257946
206.3030, 9.365707
206.7851, 9.318424
207.2672, 8.831284
207.7493, 8.469025
208.2314, 8.512436
208.7135, 8.906208
209.1957, 9.417900
209.6778, 9.856304
210.1599, 10.22666
210.6420, 10.43475
211.1241, 10.36917
211.6062, 10.27185
212.0884, 10.24928
212.5705, 10.31034
213.0526, 10.43106
213.5347, 10.61306
214.0168, 10.86933
214.4989, 10.97262
214.9811, 10.85349
215.4632, 10.65153
215.9453, 10.40287
216.4274, 10.12712
216.9095, 9.931526
217.3916, 9.941475
217.8737, 10.16082
218.3559, 10.26868
218.8380, 10.15104
219.3201, 9.991837
219.8022, 9.954914
220.2843, 10.05259
220.7664, 10.17369
221.2486, 10.15068
221.7307, 10.06749
222.2128, 10.27288
222.6949, 11.08864
223.1770, 12.07724
223.6591, 12.73200
224.1413, 13.00488
224.6234, 13.16351
225.1055, 13.33748
225.5876, 13.53655
226.0697, 13.80391
226.5518, 14.24019
227.0340, 14.70329
227.5161, 14.98009
227.9982, 15.04694
228.4803, 15.00423
228.9624, 14.82667
229.4445, 14.59602
229.9267, 14.42117
230.4088, 14.36636
230.8909, 14.37041
231.3730, 14.29716
231.8551, 14.08596
232.3372, 13.95611
232.8194, 14.02625
233.3015, 14.21089
233.7836, 14.45000
234.2657, 14.76870
234.7478, 15.03506
235.2299, 14.91479
235.7121, 14.12173
236.1942, 13.55227
236.6763, 13.69649
237.1584, 14.08669
237.6405, 14.22616
238.1227, 13.88656
238.6048, 13.25470
239.0869, 12.83841
239.5690, 12.90809
240.0511, 12.69965
240.5332, 12.04369
241.0154, 11.10288
241.4975, 9.977505
241.9796, 8.706482
242.4617, 7.400181
242.9438, 6.365726
243.4259, 5.810501
243.9081, 5.210903
244.3902, 4.448071
244.8723, 3.648525
245.3544, 2.916592
245.8365, 2.289085
246.3186, 1.773403
246.8008, 1.381657
247.2829, 1.200119
247.7650, 1.033520
248.2471, 0.8390460
248.7292, 0.6957020
249.2113, 0.6494030
249.6935, 0.6962850
250.1756, 0.7813000
250.6577, 0.8158450
251.1398, 0.7400050
251.6219, 0.6980710
252.1040, 0.6927830
252.5862, 0.7214050
253.0683, 0.7742880
253.5504, 0.8475840
254.0325, 0.9557910
254.5146, 1.132530
254.9967, 1.466789
255.4789, 1.737171
255.9610, 1.865566
256.4431, 1.974659
256.9252, 2.181976
257.4073, 2.512783
257.8894, 2.902023
258.3716, 3.290398
258.8537, 3.772453
259.3358, 3.924515
259.8179, 3.385242
260.3000, 2.732731
260.7821, 2.538902
261.2643, 2.884499
261.7464, 3.329178
262.2285, 3.374790
262.7106, 2.901707
263.1927, 2.565578
263.6748, 2.447781
264.1570, 2.424919
264.6391, 2.390499
265.1212, 2.334194
265.6033, 2.335224
266.0854, 2.540428
266.5675, 2.947311
267.0497, 2.991611
267.5318, 2.287205
268.0139, 1.475147
268.4960, 1.078026
268.9781, 1.116688
269.4602, 1.279510
269.9424, 1.355865
270.4245, 1.364643
270.9066, 1.429665
271.3887, 1.529175
271.8708, 1.700890
272.3529, 2.103268
272.8351, 2.694565
273.3172, 3.008060
273.7993, 2.608124
274.2814, 1.766834
274.7635, 1.340004
275.2456, 1.516270
275.7278, 1.918686
276.2099, 2.400951
276.6920, 2.943977
277.1741, 3.340244
277.6562, 3.442593
278.1383, 3.356606
278.6205, 3.306450
279.1026, 3.241810
279.5847, 3.318829
280.0668, 3.779640
280.5489, 4.542324
281.0310, 5.082844
281.5132, 5.040955
281.9953, 4.790413
282.4774, 4.938354
282.9595, 5.591877
283.4416, 6.107609
283.9237, 5.864574
284.4059, 5.081440
284.8880, 4.665462
285.3701, 4.978882
285.8522, 5.531067
286.3343, 5.737610
286.8164, 5.627495
287.2986, 5.498867
287.7807, 5.540550
288.2628, 5.688061
288.7449, 5.736992
289.2270, 5.645691
289.7091, 5.475525
290.1913, 5.223038
290.6734, 4.923103
291.1555, 4.705147
291.6376, 4.812809
292.1197, 5.030918
292.6018, 4.749256
293.0840, 3.706532
293.5661, 2.726906
294.0482, 2.474537
294.5303, 2.655006
295.0124, 2.746395
295.4945, 2.480659
295.9767, 2.045746
296.4588, 1.767513
296.9409, 1.661808
297.4230, 1.660545
297.9051, 1.794846
298.3872, 1.992962
298.8694, 2.204845
299.3515, 2.483337
299.8336, 2.653854
300.3157, 2.435741
300.7978, 1.750282
301.2799, 1.080601
301.7621, 0.5202330
302.2442, 0.1169090
302.7263, 3.3291001E-02
303.2084, 0.1147120
303.6905, 0.3476720
304.1726, 0.4968870
304.6548, 0.5611080
305.1369, 0.4782940
305.6190, 2.6741000E-02
306.1011, 0.4178010
306.5832, 0.5214270
307.0653, 0.2714500
307.5475, 4.1969001E-02
308.0296, 0.2091260
308.5117, 0.2338450
308.9938, 0.2046510
309.4759, 8.6243004E-02
309.9580, 3.1479001E-02
310.4402, 0.1371730
310.9223, 0.2068710
311.4044, 0.1545070
311.8865, 0.1931760
312.3686, 0.7363620
312.8507, 1.005054
313.3329, 0.8170510
313.8150, 0.6564330
314.2971, 0.8454480
314.7792, 1.235229
315.2613, 1.551952
315.7434, 1.644470
316.2256, 1.605804
316.7077, 1.631222
317.1898, 1.730213
317.6719, 1.869099
318.1540, 2.193279
318.6361, 2.488766
319.1183, 2.443550
319.6004, 1.867146
320.0825, 1.197262
320.5646, 1.111732
321.0467, 1.725948
321.5288, 2.187260
322.0110, 2.099110
322.4931, 1.820705
322.9752, 1.582630
323.4573, 1.418964
323.9394, 1.348965
324.4215, 1.503017
324.9037, 1.871166
325.3858, 1.933861
325.8679, 1.372353
326.3500, 0.6984020
326.8321, 0.2561420
327.3142, 3.5202000E-02
327.7964, 9.3369000E-02
328.2785, 0.1981090
328.7606, 0.2775040
329.2427, 0.3342250
329.7248, 0.3987660
330.2069, 0.3814430
330.6891, 0.1561390
331.1712, 0.1808780
331.6533, 0.4248120
332.1354, 0.4661480
332.6175, 0.3656690
333.0996, 0.2215040
333.5818, 4.6810000E-03
334.0639, 0.1642040
334.5460, 0.1752200
335.0281, 0.1207890
335.5102, 0.1030500
335.9923, 0.1585120
336.4745, 0.2339630
336.9566, 0.2547650
337.4387, 0.2153170
337.9208, 0.2206150
338.4029, 0.5291290
338.8850, 0.2681010
339.3671, 0.1012080
339.8492, 2.3293000E-02
340.3314, 0.1481400
340.8135, 0.4016570
341.2956, 0.1976050
341.7777, 0.1773450
342.2598, 0.1648560
342.7419, 0.1028790
343.2241, 0.1002880
343.7062, 0.1630740
344.1883, 0.2400170
344.6704, 0.1111410
345.1525, 8.6498000E-02
345.6346, 0.1460910
346.1168, 0.3162160
346.5989, 0.4872400
347.0810, 0.5360490
347.5631, 0.5333440
348.0452, 0.6211320
348.5273, 0.9794690
349.0095, 1.314095
349.4916, 1.240788
349.9737, 1.257679
350.4558, 1.227562
350.9379, 1.153004
351.4200, 0.9010280
351.9022, 0.8779450
352.3843, 0.7630200
352.8664, 0.2953000
353.3485, 0.2332190
353.8306, 0.3822560
354.3127, 0.4814410
354.7949, 0.4437830
355.2770, 0.3577540
355.7591, 0.3661040
356.2412, 0.4699480
356.7233, 0.4767610
357.2054, 0.1939130
357.6876, 0.1897390
358.1697, 0.3561440
358.6518, 0.2470210
359.1339, 4.6955001E-02
359.6160, 0.1328930
360.0981, 0.2790300
360.5803, 0.3152770
361.0624, 0.1266020
361.5445, 9.3212001E-02
362.0266, 0.1946070
362.5087, 0.1814040
362.9908, 9.4939999E-02
363.4730, 8.0700003E-02
363.9551, 0.2645760
364.4372, 0.3004040
364.9193, 6.9187000E-02
365.4014, -6.7961082E-02
365.8835, 0.1013115
366.3657, 0.2099984
366.8478, 0.2613476
367.3299, 8.3640113E-02
367.8120, 0.2017111
368.2941, 0.2012463
368.7762, 0.1959229
369.2584, 0.3556270
369.7405, 0.2112368
370.2226, 0.3943900
370.7047, 0.8220750
371.1868, 1.601818
371.6689, 2.321938
372.1511, 2.570686
372.6332, 2.321583
373.1153, 2.379852
373.5974, 3.034885
374.0795, 3.681389
374.5616, 4.036369
375.0438, 4.148201
375.5259, 4.154057
376.0080, 4.108685
376.4901, 4.055767
376.9722, 4.156635
377.4543, 4.531132
377.9365, 4.900391
378.4186, 5.268837
378.9007, 5.603764
379.3828, 5.881203
379.8649, 6.090843
380.3470, 6.200333
380.8292, 6.133556
381.3113, 5.727859
381.7934, 5.657822
382.2755, 6.210106
382.7576, 6.803085
383.2397, 7.138786
383.7219, 7.214100
384.2040, 7.122543
384.6861, 6.907177
385.1682, 6.584717
385.6503, 6.497307
386.1324, 6.972477
386.6146, 7.333710
387.0967, 7.410736
387.5788, 7.326206
388.0609, 7.230980
388.5430, 7.200958
389.0251, 7.238293
389.5073, 7.360855
389.9894, 7.745674
390.4715, 7.824223
390.9536, 7.356300
391.4357, 6.775761
391.9178, 6.307026
392.4000, 6.007568
392.8821, 5.855804
393.3642, 5.898846
393.8463, 6.146332
394.3284, 6.070431
394.8105, 4.817741
395.2927, 5.088398
395.7748, 5.171131
396.2569, 5.056992
396.7390, 4.249954
397.2211, 4.369350
397.7032, 4.126629
398.1854, 4.500996
398.6675, 3.866089
399.1496, 4.218605
399.6317, 4.384850
400.1138, 4.374439
400.5959, 3.670074
401.0781, 3.870792
401.5602, 3.717094
402.0423, 3.549271
402.5244, 3.890625
403.0065, 3.289715
403.4886, 3.623882
403.9708, 3.586540
404.4529, 3.719807
404.9350, 3.483788
405.4171, 3.361858
405.8992, 3.609417
406.3813, 3.652435
406.8635, 3.374031
407.3456, 3.518368
407.8277, 2.907654
408.3098, 2.959755
408.7919, 3.297813
409.2740, 3.038403
409.7562, 3.189854
410.2383, 2.426529
410.7204, 2.748898
411.2025, 2.897686
411.6846, 2.883049
412.1667, 2.173203
412.6489, 2.393322
413.1310, 2.260490
413.6131, 2.126701
414.0952, 2.517994
414.5773, 1.981739
415.0594, 2.393009
415.5416, 2.429802
416.0237, 2.640903
416.5058, 2.503769
416.9879, 2.507496
417.4700, 2.901138
417.9521, 3.104637
418.4343, 2.562614
418.9164, 2.608925
419.3985, 3.030857
419.8806, 3.570637
420.3627, 3.813000
420.8448, 3.630680
421.3270, 3.272198
421.8091, 3.071571
422.2912, 3.005482
422.7733, 3.220394
423.2554, 4.029228
423.7375, 4.823818
424.2197, 5.190796
424.7018, 5.197945
425.1839, 5.156239
425.6660, 5.279980
426.1481, 5.555592
426.6302, 5.902336
427.1124, 6.410755
427.5945, 6.878460
428.0766, 7.289650
428.5587, 7.644260
429.0408, 7.949760
429.5229, 8.206673
430.0051, 8.409679
430.4872, 8.504730
430.9693, 8.412804
431.4514, 8.542046
431.9335, 9.049225
432.4156, 9.664654
432.8978, 10.38345
433.3799, 11.13111
433.8620, 11.76608
434.3441, 12.18356
434.8262, 12.43682
435.3083, 12.64910
435.7905, 12.77235
436.2726, 12.98714
436.7547, 13.48257
437.2368, 14.03481
437.7189, 14.40910
438.2010, 14.54879
438.6832, 14.70655
439.1653, 15.15990
439.6474, 15.85231
440.1295, 16.43632
440.6116, 16.85177
441.0938, 17.12349
441.5759, 17.17176
442.0580, 17.08549
442.5401, 17.14455
443.0222, 17.63854
443.5043, 18.16677
443.9865, 18.29689
444.4686, 18.06090
444.9507, 17.75232
445.4328, 17.46745
445.9149, 17.23275
446.3970, 17.14465
446.8792, 17.30932
447.3613, 17.30199
447.8434, 16.84320
448.3255, 16.23262
448.8076, 15.81197
449.2897, 15.58641
449.7719, 15.56659
450.2540, 15.78423
450.7361, 16.26131
451.2182, 16.46887
451.7003, 16.28246
452.1824, 15.96643
452.6646, 15.49470
453.1467, 14.98772
453.6288, 14.63534
454.1109, 14.51571
454.5930, 14.56830
455.0751, 14.69591
455.5573, 15.07493
456.0394, 15.17516
456.5215, 14.69270
457.0036, 14.21848
457.4857, 14.10415
457.9678, 14.34925
458.4500, 14.75349
458.9321, 15.19113
459.4142, 15.60587
459.8963, 15.76886
460.3784, 15.49796
460.8605, 15.32873
461.3427, 15.60443
461.8248, 15.92955
462.3069, 15.84480
462.7890, 15.23719
463.2711, 14.56124
463.7532, 14.34989
464.2354, 14.56187
464.7175, 14.62074
465.1996, 14.42480
465.6817, 14.12119
466.1638, 13.79549
466.6459, 13.45295
467.1281, 13.06032
467.6102, 12.55946
468.0923, 12.04677
468.5744, 11.68140
469.0565, 11.43687
469.5386, 11.04978
470.0208, 10.33944
470.5029, 9.531422
470.9850, 9.090683
471.4671, 9.098843
471.9492, 8.931736
472.4313, 8.239265
472.9135, 7.406929
473.3956, 6.887238
473.8777, 6.697548
474.3598, 6.502186
474.8419, 6.037544
475.3240, 5.345020
475.8062, 4.779846
476.2883, 4.274101
476.7704, 3.907440
477.2525, 3.748627
477.7346, 3.714115
478.2167, 3.748520
478.6989, 3.817822
479.1810, 3.827770
479.6631, 3.639416
480.1452, 3.204914
480.6273, 2.825684
481.1094, 2.541496
481.5916, 2.273697
482.0737, 1.925617
482.5558, 1.590958
483.0379, 1.473591
483.5200, 1.703110
484.0021, 2.029308
484.4843, 1.883080
484.9664, 1.094246
485.4485, 0.6278610
485.9306, 1.032074
486.4127, 1.508530
486.8948, 1.465763
487.3770, 0.9704630
487.8591, 0.5292780
488.3412, 0.4759140
488.8233, 0.6560970
489.3054, 0.7941860
489.7875, 0.8884430
490.2697, 0.9325830
490.7518, 0.9289320
491.2339, 0.8633540
491.7160, 0.6895790
492.1981, 0.3208810
492.6802, 0.1005780
493.1624, 0.2991030
493.6445, 0.6918600
494.1266, 0.9816780
494.6087, 1.116249
495.0908, 1.069763
495.5729, 0.7768250
496.0551, 0.2424700
496.5372, 0.1416660
497.0193, 0.3714490
497.5014, 0.4824980
497.9835, 0.4209250
498.4656, 0.2703400
498.9478, 0.1408920
499.4299, 6.9416001E-02
499.9120, 2.1816000E-02
500.3941, 5.9170000E-02
500.8762, 0.2036900
501.3583, 0.2612300
501.8405, 9.5181003E-02
502.3226, 1.9035000E-02
502.8047, 4.0302001E-02
503.2868, 0.2199900
503.7689, 0.4502560
504.2510, 0.7258610
504.7331, 0.9202230
505.2152, 0.6741680
505.6974, 0.1510390
506.1795, 0.5375180
506.6616, 0.1765370
507.1437, 0.9645880
507.6258, 0.9559590
508.1079, 0.2817920
508.5901, 0.2529560
509.0722, 9.2007004E-02
509.5543, 0.3530430
510.0364, 0.4450680
510.5185, 0.1859510
511.0006, 2.3666000E-02
511.4828, 4.3678001E-02
511.9649, 0.2492710
512.4470, 0.2779200
512.9291, 6.3652001E-02
513.4113, 9.3001999E-02
513.8934, 9.4179995E-03
514.3755, 0.1104660
514.8576, 1.7635001E-02
515.3397, 0.3733330
515.8218, 0.6302830
516.3040, 0.5305250
516.7861, 0.1307640
517.2682, 0.1663780
517.7503, 0.3124470
518.2324, 0.4111560
518.7145, 0.4536480
519.1967, 0.4641150
519.6788, 0.4748080
520.1609, 0.4854620
520.6430, 0.4555890
521.1251, 0.3295480
521.6072, 0.1117360
522.0894, 5.3695999E-02
522.5715, 0.2287560
523.0536, 0.2458080
523.5357, 5.2749999E-02
524.0178, 0.4738200
524.4999, 0.8133090
524.9821, 1.023163
525.4642, 1.116379
525.9463, 1.070419
526.4284, 0.9103850
526.9105, 0.7352370
527.3926, 0.5400770
527.8748, 0.3947940
528.3569, 0.4003640
528.8390, 0.5032580
529.3211, 0.5171090
529.8032, 0.2622070
530.2853, 0.1020620
530.7675, 0.4181520
531.2496, 0.9362600
531.7317, 1.062382
532.2138, 0.6201320
532.6959, 2.2010000E-03
533.1780, 0.3189160
533.6602, 0.3064270
534.1423, 0.2128830
534.6244, 2.9831000E-02
535.1065, 0.2684330
535.5886, 0.4992290
536.0707, 0.6789510
536.5529, 0.7147220
537.0350, 0.5744510
537.5171, 0.3911480
537.9992, 0.4137500
538.4813, 0.7142410
538.9634, 0.8445280
539.4456, 0.6039240
539.9277, 0.3878860
540.4098, 0.4392360
540.8919, 0.6402510
541.3740, 0.7316280
541.8561, 0.5623320
542.3383, 0.3490450
542.8204, 0.3853150
543.3025, 0.6444320
543.7846, 0.8691830
544.2667, 1.002457
544.7488, 1.068596
545.2310, 1.075146
545.7131, 1.029194
546.1952, 0.9810910
546.6773, 0.9076770
547.1594, 0.8629680
547.6415, 0.8988530
548.1237, 0.9903530
548.6058, 1.103752
549.0879, 1.229511
549.5700, 1.292068
550.0521, 1.125290
550.5342, 0.5129620
551.0164, 0.3539770
551.4985, 1.075489
551.9806, 1.745655
552.4627, 1.967655
552.9448, 1.820354
553.4269, 1.530109
553.9091, 1.185303
554.3912, 0.8978690
554.8733, 0.9280320
555.3554, 1.356117
555.8375, 1.595566
556.3196, 1.465649
556.8018, 1.254551
557.2839, 1.119675
557.7660, 1.051338
558.2481, 1.028599
558.7302, 1.079765
559.2123, 1.130520
559.6945, 1.110237
560.1766, 1.023506
560.6587, 0.8857650
561.1408, 0.6839830
561.6229, 0.4877970
562.1050, 0.3781850
562.5872, 0.3655850
563.0693, 0.4104840
563.5514, 0.6231880
564.0335, 0.7516060
564.5156, 0.5944940
564.9977, 0.3199080
565.4799, 0.3633800
565.9620, 0.8886380
566.4441, 1.515255
566.9262, 1.664608
567.4083, 1.206310
567.8904, 0.7913090
568.3726, 0.3086010
568.8547, 4.5074001E-02
569.3368, 0.1657980
569.8189, 0.1094820
570.3010, 5.1883999E-02
570.7831, 0.3120040
571.2653, 0.5614400
571.7474, 0.6903950
572.2295, 0.7065240
572.7116, 0.6613690
573.1937, 0.4917260
573.6758, 0.3786280
574.1580, 0.5805850
574.6401, 1.018200
575.1222, 1.290318
575.6043, 1.313824
576.0864, 1.197475
576.5685, 0.8568990
577.0507, 0.4492110
577.5328, 0.2764320
578.0149, 0.4033780
578.4970, 0.5913510
578.9791, 0.5681610
579.4612, 0.3187870
579.9434, 0.2108500
580.4255, 0.3894690
580.9076, 0.5660710
581.3897, 0.7254180
581.8718, 0.8242950
582.3539, 0.7779810
582.8361, 0.5853460
583.3182, 0.4022980
583.8003, 0.4295390
584.2824, 0.6260800
584.7645, 0.6552540
585.2466, 0.4382590
585.7288, 0.2775960
586.2108, 0.4190520
586.6929, 0.6605420
587.1750, 0.6742230
587.6572, 0.3664780
588.1393, 0.1381950
588.6214, 0.2076800
589.1035, 0.4464550
589.5856, 0.7881070
590.0677, 1.182671
590.5499, 1.329903
591.0320, 0.9843540
591.5141, 0.3220810
591.9962, 7.3076002E-02
592.4783, 1.3170000E-02
592.9604, 8.2480997E-02
593.4426, 0.2254750
593.9247, 0.3795570
594.4068, 0.5725150
594.8889, 0.7591760
595.3710, 0.8085520
595.8531, 0.6057360
596.3353, 0.2786450
596.8174, 0.1371540
597.2995, 0.2148320
597.7816, 0.2903500
598.2637, 0.3046130
598.7458, 0.3159370
599.2280, 0.4044800
599.7101, 0.5455470
600.1922, 0.6040290
600.6743, 0.4356250
601.1564, 0.2586710
601.6385, 0.2629320
602.1207, 0.4080560
602.6028, 0.6037200
603.0849, 0.8281100
603.5670, 0.9818530
604.0491, 0.9055480
604.5313, 0.5279730
605.0134, 0.3682400
605.4955, 0.6154230
605.9776, 0.8321650
606.4597, 0.8303220
606.9418, 0.7400890
607.4240, 0.7911620
607.9061, 1.028849
608.3882, 1.193851
608.8703, 0.8615610
609.3524, 9.6404999E-02
609.8345, 0.2216530
610.3167, 8.0626003E-02
610.7988, 0.4251370
611.2809, 0.5245650
611.7630, 0.5001280
612.2451, 0.5006470
612.7272, 0.5298920
613.2094, 0.6211490
613.6915, 0.8580820
614.1736, 1.127552
614.6557, 1.326139
615.1378, 1.429634
615.6199, 1.346901
616.1021, 0.9946250
616.5842, 0.4925160
617.0663, 0.1872200
617.5484, 0.1911770
618.0305, 0.2069070
618.5126, 0.2245520
618.9948, 0.2615240
619.4769, 0.3533590
619.9590, 0.4701100
620.4411, 0.5356710
620.9232, 0.5014920
621.4053, 0.4422950
621.8875, 0.4821640
622.3696, 0.6185970
622.8517, 0.7712230
623.3338, 0.9996170
623.8159, 1.103266
624.2980, 0.7796550
624.7802, 0.1796970
625.2623, 0.1957070
625.7444, 0.1935710
626.2265, 8.4037997E-02
626.7086, 4.9408000E-02
627.1907, 0.1886670
627.6729, 0.3368930
628.1550, 0.4883880
628.6371, 0.5689740
629.1192, 0.4955860
629.6013, 0.2988450
630.0834, 0.2469290
630.5656, 0.4576070
631.0477, 0.6176490
631.5298, 0.6993690
632.0119, 0.7088990
632.4940, 0.5900900
632.9761, 0.3824940
633.4583, 0.2616120
633.9404, 0.4075030
634.4225, 0.6361200
634.9046, 0.6084730
635.3867, 0.3485470
635.8688, 0.1931860
636.3510, 0.2868770
636.8331, 0.4220750
637.3152, 0.2988380
637.7973, 0.1297470
638.2794, 0.2667620
638.7615, 0.1640590
639.2437, 0.5865520
639.7258, 0.7912160
640.2079, 0.8316480
640.6900, 0.7619000
641.1721, 0.6121430
641.6542, 0.4527820
642.1364, 0.3445380
642.6185, 0.2895470
643.1006, 0.3495830
643.5827, 0.5925160
644.0648, 0.8009970
644.5469, 0.8833370
645.0291, 0.9039750
645.5112, 0.9071390
645.9933, 0.8966180
646.4754, 0.8918040
646.9575, 0.9199500
647.4396, 0.9444620
647.9218, 0.9298670
648.4039, 0.8755000
648.8860, 0.7571410
649.3681, 0.5508800
649.8502, 0.3735410
650.3323, 0.4301150
650.8145, 0.7763520
651.2966, 1.065754
651.7787, 1.368528
652.2608, 1.535124
652.7429, 1.452293
653.2250, 1.243164
653.7072, 1.000391
654.1893, 0.7512050
654.6714, 0.6274090
655.1535, 0.8624860
655.6356, 1.327372
656.1177, 1.581013
656.5999, 1.601496
657.0820, 1.492300
657.5641, 1.217728
658.0462, 0.9206490
658.5283, 0.9179780
659.0104, 1.271698
659.4926, 1.452518
659.9747, 1.230114
660.4568, 0.9614730
660.9389, 0.8122140
661.4210, 0.8007160
661.9031, 0.9853610
662.3853, 1.381418
662.8674, 1.775230
663.3495, 1.804981
663.8316, 1.432369
664.3137, 1.272703
664.7958, 1.452873
665.2780, 1.617220
665.7601, 1.514097
666.2422, 1.374126
666.7243, 1.494162
667.2064, 1.930634
667.6885, 2.225761
668.1707, 2.090412
668.6528, 1.799408
669.1349, 1.633846
669.6170, 1.600508
670.0991, 1.653393
670.5812, 1.780991
671.0634, 1.933943
671.5455, 2.012905
672.0276, 2.043871
672.5097, 1.938351
672.9918, 1.507288
673.4739, 1.189871
673.9561, 1.113726
674.4382, 1.169451
674.9203, 1.243799
675.4024, 1.317472
675.8845, 1.432032
676.3666, 1.681463
676.8488, 1.971827
677.3309, 2.085012
677.8130, 2.006868
678.2951, 1.881844
678.7772, 1.791761
679.2593, 1.714813
679.7415, 1.594536
680.2236, 1.384260
680.7057, 1.262476
681.1878, 1.272741
681.6699, 1.346302
682.1520, 1.500019
682.6342, 1.680250
683.1163, 1.805088
683.5984, 1.863131
684.0805, 1.883633
684.5626, 1.828955
685.0447, 1.736757
685.5269, 1.902155
686.0090, 2.388395
686.4911, 2.688833
686.9732, 2.526028
687.4553, 2.128805
687.9374, 1.854576
688.4196, 1.705860
688.9017, 1.587080
689.3838, 1.431490
689.8659, 1.371670
690.3480, 1.642561
690.8301, 2.016386
691.3123, 2.047737
691.7944, 1.631935
692.2765, 1.136641
692.7586, 0.9988670
693.2407, 1.191273
693.7228, 1.178345
694.2050, 0.8590150
694.6871, 0.6136650
695.1692, 0.5969910
695.6513, 0.6892570
696.1334, 0.8090320
696.6155, 0.9807680
697.0977, 1.081329
697.5798, 1.026495
698.0619, 0.9351230
698.5440, 0.8776590
699.0261, 0.8531650
699.5082, 0.8557280
699.9904, 0.8827320
700.4725, 0.9301200
700.9546, 1.006716
701.4367, 1.105549
701.9188, 1.097212
702.4009, 0.9064870
702.8831, 0.7585390
703.3652, 0.6823140
703.8473, 0.6909870
704.3294, 0.8656650
704.8115, 1.166218
705.2936, 1.356194
705.7758, 1.315397
706.2579, 1.154291
706.7400, 0.8488140
707.2221, 0.5109770
707.7042, 0.4460700
708.1863, 0.7104590
708.6685, 0.9873910
709.1506, 0.9826560
709.6327, 0.7332900
710.1148, 0.5064450
710.5969, 0.2550540
711.0790, 0.1171970
711.5612, 0.1793020
712.0433, 0.2938440
712.5254, 0.3436740
713.0075, 0.3648830
713.4896, 0.5121310
713.9717, 0.9781720
714.4539, 1.338062
714.9360, 1.007164
715.4181, 0.3239140
715.9002, 0.1385610
716.3823, 0.5614430
716.8644, 0.9969750
717.3466, 1.005177
717.8287, 0.7009620
718.3108, 0.5111430
718.7929, 0.5243490
719.2750, 0.4853550
719.7571, 0.2836150
720.2393, 0.1340030
720.7214, 0.1881710
721.2035, 0.3626480
721.6856, 0.5121080
722.1677, 0.6035800
722.6498, 0.5817990
723.1320, 0.2967150
723.6141, 0.1031760
724.0962, 0.3311810
724.5783, 0.3640590
725.0604, 0.2179640
725.5425, 0.1366460
726.0247, 0.5515590
726.5068, 0.7190170
726.9889, 0.5571020
727.4710, 0.3950080
727.9531, 0.1364360
728.4352, 1.2157000E-02
728.9174, 0.1815260
729.3995, 0.4478530
729.8816, 0.3741000
730.3637, 0.1137660
730.8458, 0.5400540
731.3279, 0.4824790
731.8101, 0.1993640
732.2922, 0.1067200
732.7743, 0.1889570
733.2564, 0.2893260
733.7385, 0.3571090
734.2206, 0.3745570
734.7028, 0.2966690
735.1849, 0.1066020
735.6670, 7.7491999E-02
736.1491, 0.4781680
736.6312, 0.6925280
737.1133, 0.4979130
737.5955, 0.1700020
738.0776, 0.1072390
738.5597, 0.2934230
739.0418, 0.3462560
739.5239, 0.1816640
740.0060, 4.7485001E-02
740.4882, 0.1338730
740.9703, 0.1387370
741.4524, 0.3075100
741.9345, 0.6892780
742.4166, 0.9631840
742.8987, 0.8345570
743.3809, 0.3978000
743.8630, 0.1238020
744.3451, 8.0398999E-02
744.8272, 8.0387004E-02
745.3093, 0.2293780
745.7914, 0.3035280
746.2736, 0.1139560
746.7557, 0.2262190
747.2378, 0.5084000
747.7199, 0.6921310
748.2020, 0.6935500
748.6841, 0.2436750
749.1663, 0.3426930
749.6484, 0.4789240
750.1305, 0.1719740
750.6126, 0.2186890
751.0947, 0.5267030
751.5768, 0.7147480
752.0590, 0.6829450
752.5411, 0.3425980
753.0232, 0.2006950
753.5053, 0.4996600
753.9874, 0.6768460
754.4695, 0.3811450
754.9517, 7.7930000E-03
755.4338, 1.5213000E-02
755.9159, 0.3918150
756.3980, 0.6931420
756.8801, 0.4814530
757.3622, 0.1933480
757.8444, 0.2972870
758.3265, 0.6521380
758.8086, 0.9455990
759.2907, 1.083923
759.7728, 1.030216
760.2549, 0.6839260
760.7371, 0.1530040
761.2192, 0.1909290
761.7013, 1.133720
762.1834, 1.738720
762.6655, 1.545658
763.1476, 1.206772
763.6298, 1.168137
764.1119, 1.334557
764.5940, 1.416649
765.0761, 1.257435
765.5582, 1.202679
766.0403, 1.482723
766.5225, 1.916233
767.0046, 2.369473
767.4867, 2.792324
767.9688, 3.112026
768.4509, 3.289719
768.9330, 3.334473
769.4152, 3.182125
769.8973, 2.813385
770.3794, 2.821297
770.8615, 3.343697
771.3436, 3.890068
771.8257, 4.173428
772.3079, 4.411495
772.7900, 5.021942
773.2721, 6.055973
773.7542, 6.716480
774.2363, 6.449787
774.7184, 6.285442
775.2006, 6.871033
775.6827, 7.810032
776.1648, 8.587139
776.6469, 9.101261
777.1290, 9.499378
777.6111, 9.820087
778.0933, 10.19650
778.5754, 10.98776
779.0575, 12.18353
779.5396, 13.43625
780.0217, 14.73830
780.5038, 15.87426
780.9860, 16.57135
781.4681, 16.97380
781.9502, 17.82264
782.4323, 19.65396
782.9144, 21.07978
783.3965, 21.70792
783.8787, 22.24720
784.3608, 23.05226
784.8429, 24.07956
785.3250, 25.15446
785.8071, 26.21830
786.2892, 27.48235
786.7714, 29.35419
787.2535, 31.46526
787.7356, 33.08207
788.2177, 34.24126
788.6998, 35.46941
789.1819, 36.99356
789.6641, 38.68857
790.1462, 40.37904
790.6283, 42.05500
791.1104, 43.78710
791.5925, 45.79214
792.0746, 47.47590
792.5568, 48.67074
793.0389, 49.60114
793.5210, 50.33936
794.0031, 50.89898
794.4852, 51.38056
794.9673, 51.89445
795.4495, 52.25916
795.9316, 52.19830
796.4137, 51.98544
796.8958, 52.01328
797.3779, 52.26696
797.8600, 52.58175
798.3422, 52.88685
798.8243, 52.92193
799.3064, 51.99959
799.7885, 50.04263
800.2706, 49.03713
800.7527, 49.30422
801.2349, 49.70927
801.7170, 49.89380
802.1991, 49.87043
802.6812, 49.73585
803.1633, 49.50267
803.6454, 48.75668
804.1276, 46.49831
804.6097, 44.92054
805.0918, 45.55293
805.5739, 46.78479
806.0560, 46.89106
806.5381, 45.86845
807.0203, 44.76005
807.5024, 44.18860
807.9845, 43.82530
808.4666, 43.21564
808.9487, 42.38623
809.4308, 41.49526
809.9130, 40.56017
810.3951, 39.30054
810.8772, 37.44218
811.3593, 35.43243
811.8414, 34.24958
812.3235, 34.29112
812.8057, 33.63152
813.2878, 31.56036
813.7699, 29.66288
814.2520, 28.44514
814.7341, 27.53904
815.2162, 26.60674
815.6984, 25.61263
816.1805, 24.61143
816.6626, 23.56334
817.1447, 22.57406
817.6268, 21.82042
818.1089, 21.13797
818.5911, 20.22190
819.0732, 19.07244
819.5553, 17.92059
820.0374, 16.89056
820.5195, 16.06289
821.0016, 15.73352
821.4838, 15.92691
821.9659, 15.63741
822.4480, 14.60279
822.9301, 13.74037
823.4122, 13.64376
823.8943, 13.87692
824.3765, 13.62966
824.8586, 12.76316
825.3407, 12.14848
825.8228, 11.97816
826.3049, 11.86687
826.7870, 11.69328
827.2692, 11.50559
827.7513, 11.31883
828.2334, 11.16631
828.7155, 11.16035
829.1976, 11.42244
829.6797, 11.74134
830.1619, 11.82597
830.6440, 11.79588
831.1261, 11.95441
831.6082, 12.32352
832.0903, 12.72275
832.5724, 12.98587
833.0546, 13.25191
833.5367, 13.78548
834.0188, 14.65830
834.5009, 15.33141
834.9830, 15.68219
835.4651, 16.11262
835.9473, 16.83409
836.4294, 17.65522
836.9115, 18.24616
837.3936, 18.64474
837.8757, 19.24342
838.3578, 20.15416
838.8400, 21.22511
839.3221, 22.56420
839.8042, 23.89800
840.2863, 24.93826
840.7684, 25.74884
841.2505, 26.61140
841.7327, 27.67564
842.2148, 28.77502
842.6969, 29.58273
843.1790, 30.29058
843.6611, 31.48911
844.1432, 33.18527
844.6254, 35.06816
845.1075, 37.05091
845.5896, 38.91239
846.0717, 40.31843
846.5538, 41.24870
847.0359, 42.32428
847.5181, 43.58406
848.0002, 44.90686
848.4823, 46.51337
848.9644, 47.94864
849.4465, 48.84756
849.9286, 49.34332
850.4108, 49.81992
850.8929, 50.37338
851.3750, 50.78492
851.8571, 51.18760
852.3392, 51.25041
852.8214, 50.54943
853.3035, 49.34595
853.7856, 48.14843
854.2677, 47.08544
854.7498, 45.97942
855.2319, 44.65963
855.7141, 43.19519
856.1962, 41.69740
856.6783, 40.11860
857.1604, 38.14023
857.6425, 35.67647
858.1246, 33.22981
858.6068, 31.23566
859.0889, 29.60969
859.5710, 27.92467
860.0531, 26.00314
860.5352, 24.46169
861.0173, 23.73190
861.4995, 22.86564
861.9816, 21.15631
862.4637, 19.19410
862.9458, 17.78249
863.4279, 17.03169
863.9100, 16.31802
864.3922, 15.45763
864.8743, 14.56741
865.3564, 13.71839
865.8385, 12.89081
866.3206, 12.03539
866.8027, 11.17312
867.2849, 10.37671
867.7670, 9.684338
868.2491, 9.092827
868.7312, 8.608368
869.2133, 8.215153
869.6954, 7.888973
870.1776, 7.618786
870.6597, 7.321861
871.1418, 6.961098
871.6239, 6.552345
872.1060, 6.100304
872.5881, 5.607006
873.0703, 5.238464
873.5524, 5.114670
874.0345, 4.797424
874.5166, 3.968491
874.9987, 3.164330
875.4808, 2.861160
875.9630, 2.924072
876.4451, 2.986763
876.9272, 3.118351
877.4093, 3.053726
877.8914, 2.524620
878.3735, 2.005661
878.8557, 1.724655
879.3378, 1.672760
879.8199, 1.892857
880.3020, 2.347866
880.7841, 2.683334
881.2662, 2.606903
881.7484, 2.333469
882.2305, 2.058319
882.7126, 1.810013
883.1947, 1.717674
883.6768, 1.768639
884.1589, 1.658875
884.6411, 1.168663
885.1232, 0.5902670
885.6053, 0.5867500
886.0874, 1.179565
886.5695, 1.474026
887.0516, 1.405464
887.5338, 1.208675
888.0159, 0.9184610
888.4980, 0.6171680
888.9801, 0.3231320
889.4622, 0.6697080
889.9443, 0.2482260
890.4265, 0.7765920
890.9086, 0.9366110
891.3907, 0.3345950
891.8728, 0.2112850
892.3549, 9.9870004E-03
892.8370, 0.2302930
893.3192, 0.5327840
893.8013, 0.5999530
894.2834, 0.1195220
894.7655, 8.0608003E-02
895.2476, 0.3695910
895.7297, 9.2159003E-02
896.2119, 0.3397940
896.6940, 0.4932100
897.1761, 0.1828040
897.6582, 0.2052990
898.1403, 0.4260750
898.6224, 0.4999200
899.1046, 0.4112360
899.5867, 0.2004360
900.0688, 2.8301001E-02
900.5509, 8.8417001E-02
901.0330, 0.1063310
901.5151, 1.6047999E-02
901.9973, 0.1438750
902.4794, 5.4916002E-02
902.9615, 0.2460140
903.4436, 0.3669890
903.9257, 0.2669260
904.4078, 0.1574120
904.8900, 2.3841999E-02
905.3721, 7.8057997E-02
905.8542, 0.1061840
906.3363, 6.4021997E-02
906.8184, 5.0108001E-02
907.3005, 0.3154300
907.7827, 0.4554120
908.2648, 0.3201960
908.7469, 0.1858180
909.2290, 0.1642480
909.7111, 0.2311690
910.1932, 0.4392110
910.6754, 0.7290500
911.1575, 0.7715170
911.6396, 0.1634670
912.1217, 0.3973290
912.6038, 0.1514890
913.0859, 0.3891160
913.5681, 0.4525910
914.0502, 8.6367004E-02
914.5323, 0.2546810
915.0144, 0.3686050
915.4965, 0.3170570
915.9786, 8.8932000E-02
916.4607, 0.2299080
916.9428, 0.2896610
917.4249, 0.1127430
917.9070, 2.5152000E-02
918.3892, 0.1165560
918.8713, 0.1695800
919.3534, 1.9548001E-02
919.8355, 0.3223340
920.3176, 0.3019750
920.7997, 0.2013510
921.2819, 0.4148940
921.7640, 0.1852440
922.2461, 5.5805001E-02
922.7282, 0.1560330
923.2103, 0.1706600
923.6924, 0.1213720
924.1746, 1.6295999E-02
924.6567, 4.6755001E-02
925.1388, 0.3359180
925.6209, 0.5977440
926.1030, 0.7945560
926.5851, 0.9346180
927.0673, 1.043814
927.5494, 1.093468
928.0315, 0.9979500
928.5136, 0.7318880
928.9957, 0.5151710
929.4778, 0.5165620
929.9600, 0.5602280
930.4421, 0.4809610
930.9242, 0.3584100
931.4063, 0.3231660
931.8884, 0.3838690
932.3705, 0.4731010
932.8527, 0.5532380
933.3348, 0.6240220
933.8169, 0.6730860
934.2990, 0.7238620
934.7811, 0.8640060
935.2632, 1.074623
935.7454, 1.207781
936.2275, 1.213968
936.7096, 1.176565
937.1917, 1.173216
937.6738, 1.198053
938.1559, 1.244616
938.6381, 1.325911
939.1202, 1.317451
939.6023, 1.193926
940.0844, 1.000841
940.5665, 0.6886060
941.0486, 0.4202610
941.5308, 0.5028710
942.0129, 0.9915140
942.4950, 1.217649
942.9771, 0.8654880
943.4592, 0.7295910
943.9413, 1.182228
944.4235, 1.621998
944.9056, 1.681906
945.3877, 1.449375
945.8698, 1.077795
946.3519, 0.4962200
946.8340, 0.2374710
947.3162, 0.6333680
947.7983, 1.120127
948.2804, 1.530148
948.7625, 1.740236
949.2446, 1.460949
949.7267, 0.8504700
950.2089, 0.5043830
950.6910, 0.7597350
951.1731, 1.092310
951.6552, 1.045353
952.1373, 0.8634610
952.6194, 0.7306310
953.1016, 0.6691610
953.5837, 0.6923260
954.0658, 0.7901360
954.5479, 0.9180390
955.0300, 1.088196
955.5121, 1.224676
955.9943, 1.111233
956.4764, 0.8407080
956.9585, 0.8040050
957.4406, 1.019764
957.9227, 1.121386
958.4048, 0.9290290
958.8870, 0.6491470
959.3691, 0.5778500
959.8512, 0.7064170
960.3333, 0.5751970
960.8154, 6.8807997E-02
961.2975, 9.1182999E-02
961.7797, 0.3317220
962.2618, 0.7936360
962.7439, 0.9467280
963.2260, 0.8964540
963.7081, 0.8650000
964.1902, 0.8511560
964.6724, 0.8517670
965.1545, 0.7932640
965.6366, 0.8558060
966.1187, 1.344429
966.6008, 1.743755
967.0829, 1.513990
967.5651, 0.8757440
968.0472, 0.5272010
968.5293, 0.6285780
969.0114, 0.6921710
969.4935, 0.5635810
969.9756, 0.5432780
970.4578, 0.8743100
970.9399, 1.272337
971.4220, 1.492460
971.9041, 1.547384
972.3862, 1.534485
972.8683, 1.467697
973.3505, 1.360451
973.8326, 1.148670
974.3147, 0.9440940
974.7968, 0.9093650
975.2789, 0.9800260
975.7610, 0.9897940
976.2432, 0.9050220
976.7253, 0.8436830
977.2074, 0.8929410
977.6895, 1.014654
978.1716, 1.273827
978.6537, 1.497076
979.1359, 1.330667
979.6180, 0.9033390
980.1001, 0.6739180
980.5822, 0.7970430
981.0643, 1.049257
981.5464, 1.234606
982.0286, 1.354912
982.5107, 1.418978
982.9928, 1.438498
983.4749, 1.408974
983.9570, 1.336521
984.4391, 1.288881
984.9213, 1.298981
985.4034, 1.385077
985.8855, 1.613754
986.3676, 1.948931
986.8497, 2.064772
987.3318, 1.955280
987.8140, 1.710138
988.2961, 1.318150
988.7782, 0.9136560
989.2603, 0.5601250
989.7424, 0.2952920
990.2245, 0.2029930
990.7067, 0.3070960
991.1888, 0.3745100
991.6709, 0.3470990
992.1530, 0.4437540
992.6351, 0.8584520
993.1172, 1.227043
993.5994, 1.206919
994.0815, 0.9417920
994.5636, 0.8892820
995.0457, 1.190725
995.5278, 1.304983
996.0099, 0.8885690
996.4921, 0.7348250
996.9742, 1.428621
997.4563, 2.140694
997.9384, 2.028811
998.4205, 1.334738
998.9026, 0.9763680
999.3848, 1.205776
999.8669, 1.421953
1000.349, 1.657993
1000.831, 1.681202
1001.313, 1.172626
1001.795, 0.5361880
1002.277, 0.2337040
1002.760, 0.2410770
1003.242, 0.2097260
1003.724, 2.2064000E-02
1004.206, 0.1687740
1004.688, 7.8918003E-02
1005.170, 0.1350250
1005.652, 0.4301220
1006.134, 0.7340180
1006.617, 0.9546260
1007.099, 1.083778
1007.581, 1.174856
1008.063, 1.244392
1008.545, 1.303547
1009.027, 1.372942
1009.509, 1.411621
1009.991, 1.396799
1010.473, 1.303633
1010.956, 1.045298
1011.438, 0.6358110
1011.920, 0.2555850
1012.402, 1.7055999E-02
1012.884, 0.1085090
1013.366, 0.2446540
1013.848, 0.7657360
1014.330, 0.8505270
1014.813, 0.5999790
1015.295, 0.5972900
1015.777, 0.9801120
1016.259, 1.145514
1016.741, 0.4452880
1017.223, 0.5042380
1017.705, 0.4380870
1018.187, 0.3397480
1018.669, 0.8117010
1019.152, 0.9132600
1019.634, 0.8479500
1020.116, 0.6745830
1020.598, 0.5140020
1021.080, 0.4993400
1021.562, 0.5848770
1022.044, 0.6729680
1022.526, 0.7563380
1023.008, 0.7138960
1023.491, 0.5349390
1023.973, 0.4764540
1024.455, 0.6596150
1024.937, 0.8574750
1025.419, 0.7831880
1025.901, 0.5218910
1026.383, 0.5302730
1026.865, 0.8334580
1027.348, 0.9881310
1027.830, 0.9326630
1028.312, 0.8456340
1028.794, 0.7920360
1029.276, 0.7731650
1029.758, 0.7972740
1030.240, 0.8551710
1030.722, 0.8726540
1031.204, 0.8435360
1031.687, 0.7970370
1032.169, 0.7213420
1032.651, 0.6576690
1033.133, 0.5756420
1033.615, 0.6157300
1034.097, 1.048330
1034.579, 1.819761
1035.061, 2.068167
1035.544, 1.561653
1036.026, 1.050854
1036.508, 0.4721700
1036.990, 0.1298890
1037.472, 0.1993850
1037.954, 0.5785680
1038.436, 1.191105
1038.918, 2.016832
1039.401, 2.318813
1039.883, 1.745722
1040.365, 1.298178
1040.847, 1.019667
1041.329, 0.8989110
1041.811, 1.110531
1042.293, 1.354231
1042.775, 1.099298
1043.257, 0.3722310
1043.740, 0.1985090
1044.222, 1.175262
1044.704, 1.782255
1045.186, 1.724482
1045.668, 1.537552
1046.150, 1.418278
1046.632, 1.320120
1047.114, 1.205492
1047.596, 1.064333
1048.079, 0.8198530
1048.561, 0.1766300
1049.043, 0.1195580
1049.525, 0.3568310
1050.007, 0.8091930
1050.489, 0.7880650
1050.971, 0.5767960
1051.453, 0.5118270
1051.936, 0.6035250
1052.418, 0.7262250
1052.900, 0.9066890
1053.382, 1.038202
1053.864, 1.132769
1054.346, 1.137573
1054.828, 0.9767550
1055.310, 0.7462920
1055.792, 0.5131090
1056.275, 0.3085770
1056.757, 0.2553410
1057.239, 0.4834820
1057.721, 0.6527180
1058.203, 0.5565130
1058.685, 0.5071370
1059.167, 0.8196320
1059.649, 1.173136
1060.131, 1.136774
1060.614, 0.7703040
1061.096, 0.4851210
1061.578, 0.3429910
1062.060, 0.3801610
1062.542, 0.8535920
1063.024, 1.268023
1063.506, 1.315393
1063.988, 1.156929
1064.471, 0.8986510
1064.953, 0.6209390
1065.435, 0.5265660
1065.917, 0.7325480
1066.399, 0.8982510
1066.881, 0.8784430
1067.363, 0.7925820
1067.845, 0.6936700
1068.328, 0.5779110
1068.810, 0.3784520
1069.292, 0.1581020
1069.774, 0.1005100
1070.256, 0.2637120
1070.738, 0.5240800
1071.220, 1.058727
1071.702, 1.432562
1072.184, 1.247416
1072.667, 0.8844390
1073.149, 0.7076110
1073.631, 0.7161140
1074.113, 0.8252350
1074.595, 1.040676
1075.077, 1.062853
1075.559, 0.6087250
1076.041, 0.2802030
1076.523, 0.5624350
1077.006, 0.9215930
1077.488, 0.6632250
1077.970, 0.1021080
1078.452, 0.1013470
1078.934, 0.8632160
1079.416, 1.467144
1079.898, 1.397017
1080.380, 1.206398
1080.862, 1.136511
1081.345, 1.115902
1081.827, 1.097290
1082.309, 1.071211
1082.791, 1.054588
1083.273, 1.041216
1083.755, 0.9265120
1084.237, 0.5373760
1084.719, 0.2219010
1085.202, 0.1299630
1085.684, 0.1959100
1086.166, 0.5042970
1086.648, 0.8632160
1087.130, 0.9277630
1087.612, 0.7042520
1088.094, 0.6374260
1088.576, 0.9957640
1089.058, 1.328680
1089.541, 1.389240
1090.023, 1.412504
1090.505, 1.762587
1090.987, 2.050905
1091.469, 1.572687
1091.951, 0.4836770
1092.433, 0.2037390
1092.915, 7.2013997E-02
1093.397, 0.1715030
1093.880, 0.4224070
1094.362, 0.5071470
1094.844, 4.7428001E-02
1095.326, 0.4256610
1095.808, 0.1887930
1096.290, 0.5441070
1096.772, 0.9430850
1097.254, 0.7425460
1097.737, 0.5459790
1098.219, 0.5930940
1098.701, 0.6382310
1099.183, 0.4772950
1099.665, 0.3496460
1100.147, 0.6064240
1100.629, 1.029142
1101.111, 1.044350
1101.594, 0.5123390
1102.076, 0.2276060
1102.558, 0.6908420
1103.040, 1.038132
1103.522, 0.8426360
1104.004, 0.5310710
1104.486, 0.3539770
1104.968, 0.3372730
1105.450, 0.5931780
1105.932, 1.107189
1106.415, 1.293159
1106.897, 0.7179490
1107.379, 0.2919330
1107.861, 0.2622340
1108.343, 0.3126830
1108.825, 0.2458970
1109.307, 0.1913260
1109.789, 0.3655740
1110.272, 0.7295320
1110.754, 0.9643340
1111.236, 1.053923
1111.718, 0.9818130
1112.200, 0.5742800
1112.682, 0.2268910
1113.164, 1.8681999E-02
1113.646, 2.6115000E-02
1114.129, 0.1812440
1114.611, 0.5665990
1115.093, 0.9089680
1115.575, 1.283630
1116.057, 1.362869
1116.539, 0.9274310
1117.021, 0.5281010
1117.503, 0.2414880
1117.985, 5.3560000E-02
1118.468, 3.2248002E-02
1118.950, 3.2940000E-02
1119.432, 2.3080001E-03
1119.914, 5.9838999E-02
1120.396, 0.3659710
1120.878, 1.284882
1121.360, 1.619434
1121.842, 0.8111670
1122.324, 0.1890540
1122.807, 0.5581280
1123.289, 1.220936
1123.771, 1.245588
1124.253, 0.7358130
1124.735, 0.6052190
1125.217, 1.032856
1125.699, 1.190821
1126.181, 0.9654770
1126.664, 0.7270830
1127.146, 0.5232180
1127.628, 0.3658120
1128.110, 0.2396200
1128.592, 0.1633970
1129.074, 0.2100090
1129.556, 0.3975680
1130.038, 0.5284140
1130.521, 0.6162010
1131.003, 0.4936700
1131.485, 7.4019998E-02
1131.967, 0.2193530
1132.449, 8.8177003E-02
1132.931, 0.2137150
1133.413, 0.2516270
1133.895, 8.0311000E-02
1134.377, 8.8535003E-02
1134.859, 0.2720530
1135.342, 0.5742260
1135.824, 0.9805580
1136.306, 1.195810
1136.788, 1.089161
1137.270, 0.8418750
1137.752, 0.6048890
1138.234, 0.4527630
1138.716, 0.6797470
1139.199, 1.153723
1139.681, 1.294024
1140.163, 1.100464
1140.645, 0.7112330
1141.127, 0.2141440
1141.609, 4.0799999E-04
1142.091, 0.3694320
1142.573, 0.9469110
1143.056, 1.245237
1143.538, 1.326742
1144.020, 1.268261
1144.502, 1.120388
1144.984, 1.001678
1145.466, 0.9214760
1145.948, 0.8200150
1146.430, 0.6722150
1146.912, 0.5353260
1147.395, 0.4325350
1147.877, 0.3970680
1148.359, 0.5440640
1148.841, 0.7281910
1149.323, 0.6959840
1149.805, 0.5413190
1150.287, 0.5488110
1150.769, 0.7603030
1151.251, 0.8363860
1151.734, 0.5277860
1152.216, 0.2321890
1152.698, 0.2311550
1153.180, 0.3085080
1153.662, 0.4255140
1154.144, 0.4996170
1154.626, 0.3578150
1155.108, 8.7347001E-02
1155.591, 1.1570000E-02
1156.073, 0.2523270
1156.555, 0.4525590
1157.037, 0.4205230
1157.519, 0.4116920
1158.001, 0.6466580
1158.483, 0.8307530
1158.965, 0.6992170
1159.448, 0.3794770
1159.930, 4.5111001E-02
1160.412, 0.2819610
1160.894, 0.3865850
1161.376, 7.5015999E-02
1161.858, 0.1917860
1162.340, 0.4201530
1162.822, 0.5375600
1163.304, 0.4045370
1163.786, 0.2610760
1164.269, 0.3595070
1164.751, 0.6232240
1165.233, 0.7862170
1165.715, 0.8200130
1166.197, 0.8944240
1166.679, 1.096834
1167.161, 1.064852
1167.643, 0.6205350
1168.126, 0.2180820
1168.608, 0.1271840
1169.090, 0.2294850
1169.572, 0.3668100
1170.054, 0.5294270
1170.536, 0.6515460
1171.018, 0.7369190
1171.500, 0.6799870
1171.983, 0.4493680
1172.465, 0.3236450
1172.947, 0.4234490
1173.429, 0.5592210
1173.911, 0.5732990
1174.393, 0.5183050
1174.875, 0.4854180
1175.357, 0.4694350
1175.839, 0.4351040
1176.322, 0.3988460
1176.804, 0.4860550
1177.286, 0.6735000
1177.768, 0.6351850
1178.250, 0.2376170
1178.732, 5.9260000E-03
1179.214, 0.6548790
1179.696, 1.453461
1180.178, 1.289833
1180.661, 0.7160970
1181.143, 0.5494370
1181.625, 0.7104870
1182.107, 0.9612460
1182.589, 1.170895
1183.071, 1.014608
1183.553, 0.1855260
1184.035, 0.4059430
1184.518, 5.4588001E-02
1185.000, 0.6810340
1185.482, 0.9586980
1185.964, 0.9836750
1186.446, 0.7238500
1186.928, 0.3698960
1187.410, 0.3669400
1187.892, 0.8003920
1188.375, 1.002817
1188.857, 0.6075500
1189.339, 0.2817780
1189.821, 0.1228960
1190.303, 0.1081260
1190.785, 0.3577020
1191.267, 0.6165870
1191.749, 0.5554710
1192.231, 0.2835200
1192.714, 0.2454510
1193.196, 0.5609210
1193.678, 0.6146560
1194.160, 0.2252900
1194.642, 0.1073610
1195.124, 0.5308990
1195.606, 0.8427470
1196.088, 0.6078000
1196.570, 0.2283990
1197.053, 0.2633590
1197.535, 0.6405740
1198.017, 1.141119
1198.499, 1.746634
1198.981, 1.552582
1199.463, 0.5475710
1199.945, 9.8820001E-02
1200.427, 6.3734002E-02
1200.910, 0.2166540
1201.392, 0.4259950
1201.874, 0.5903190
1202.356, 0.7195590
1202.838, 0.8288270
1203.320, 1.017855
1203.802, 1.186033
1204.284, 1.007830
1204.766, 0.5886570
1205.249, 0.4036220
1205.731, 0.5676590
1206.213, 0.6823690
1206.695, 0.4638270
1207.177, 0.2088780
1207.659, 1.6600000E-04
1208.141, 4.6770000E-03
1208.623, 0.6334440
1209.105, 1.372469
1209.588, 1.519377
1210.070, 1.196917
1210.552, 0.9961510
1211.034, 1.059639
1211.516, 1.040180
1211.998, 0.7352070
1212.480, 0.5154910
1212.962, 0.4464910
1213.445, 0.5104620
1213.927, 0.8701840
1214.409, 1.221659
1214.891, 1.171392
1215.373, 0.8258860
1215.855, 0.6439290
1216.337, 0.6416240
1216.819, 0.7688120
1217.302, 1.114594
1217.784, 1.202883
1218.266, 0.8586080
1218.748, 0.5322760
1219.230, 0.4848270
1219.712, 0.6338020
1220.194, 0.9415400
1220.676, 1.291208
1221.158, 1.270622
1221.641, 0.9441390
1222.123, 0.5591390
1222.605, 0.1924020
1223.087, 0.2085210
1223.569, 0.6172790
1224.051, 0.8485300
1224.533, 0.5737170
1225.015, 0.2337190
1225.497, 0.3026980
1225.980, 0.5175290
1226.462, 0.6348710
1226.944, 0.6626000
1227.426, 0.5935900
1227.908, 0.4472580
1228.390, 0.1542660
1228.872, 0.2182390
1229.354, 0.2169230
1229.837, 0.5060290
1230.319, 1.021566
1230.801, 0.8769720
1231.283, 0.6386550
1231.765, 0.4495600
1232.247, 0.3575290
1232.729, 0.4742490
1233.211, 0.6716250
1233.693, 0.6850400
1234.176, 0.5250820
1234.658, 0.5046230
1235.140, 0.6550270
1235.622, 0.8424030
1236.104, 1.189800
1236.586, 1.369581
1237.068, 1.289293
1237.550, 1.024849
1238.032, 0.5955520
1238.515, 0.1665420
1238.997, 1.5066000E-02
1239.479, 0.1062660
1239.961, 0.3754880
1240.443, 0.7650450
1240.925, 1.069691
1241.407, 1.233658
1241.889, 1.001394
1242.372, 0.3922940
1242.854, 6.2116999E-02
1243.336, 0.4512650
1243.818, 0.9605730
1244.300, 1.055153
1244.782, 0.9600510
1245.264, 0.7944910
1245.746, 0.6598510
1246.229, 0.7218650
1246.711, 0.8824210
1247.193, 0.9304770
1247.675, 0.8421080
1248.157, 0.7300470
1248.639, 0.6004540
1249.121, 0.4829560
1249.603, 0.3371120
1250.085, 0.2690540
1250.568, 0.3612350
1251.050, 0.4784560
1251.532, 0.5370200
1252.014, 0.5646290
1252.496, 0.6287270
1252.978, 0.7109950
1253.460, 0.5257870
1253.942, 8.1270002E-03
1254.424, 1.8181000E-02
1254.907, 0.6285630
1255.389, 1.131592
1255.871, 1.327978
1256.353, 1.293745
1256.835, 1.067305
1257.317, 0.7343220
1257.799, 0.2310940
1258.281, 0.1653080
1258.764, 0.2499600
1259.246, 0.9572730
1259.728, 1.042582
1260.210, 0.6709000
1260.692, 0.3294180
1261.174, 0.1534480
1261.656, 0.1674000
1262.138, 0.4042240
1262.620, 0.7050950
1263.103, 1.178892
1263.585, 1.455832
1264.067, 1.147396
1264.549, 0.8098390
1265.031, 0.8346670
1265.513, 1.070448
1265.995, 1.378275
1266.477, 1.685957
1266.959, 1.596724
1267.442, 0.9547460
1267.924, 0.5423200
1268.406, 0.3575880
1268.888, 0.4787080
1269.370, 0.9848770
1269.852, 1.271984
1270.334, 1.018820
1270.816, 0.5530570
1271.299, 0.1728840
1271.781, 4.5373999E-02
1272.263, 0.1803700
1272.745, 0.5983350
1273.227, 0.7970620
1273.709, 0.7910960
1274.191, 0.7428650
1274.673, 0.6975360
1275.156, 0.6562600
1275.638, 0.6220020
1276.120, 0.6246030
1276.602, 0.7610190
1277.084, 0.7952840
1277.566, 0.4394530
1278.048, 0.1503240
1278.530, 0.2799570
1279.012, 0.5391330
1279.495, 0.5800670
1279.977, 0.5729290
1280.459, 0.7944360
1280.941, 1.253693
1281.423, 1.312342
1281.905, 0.8305820
1282.387, 0.4779720
1282.869, 0.3260940
1283.351, 0.2038170
1283.834, 4.9019001E-02
1284.316, 8.5659996E-03
1284.798, 0.1266100
1285.280, 0.2865450
1285.762, 0.1435430
1286.244, 0.0000000E+00
##END=



