##NAMES=Hainite
##RRUFFID=R141183
##IDEAL CHEMISTRY=Na_2_Ca_4_(Y^3+^,REE)Ti^4+^(Si_2_O_7_)_2_OF_3_
##LOCALITY=Langesund Fjord, Norway
##OWNER=RRUFF
##SOURCE=Marcelo B. Andrade
##DESCRIPTION=Prismatic light brown crystals embedded in albite.
##STATUS=The identification of this mineral is confirmed by single-crystal X-ray diffraction and chemical analysis.
##URL=rruff.info/R141183
##MEASURED CHEMISTRY=Na_2.00_Ca_4.00_(Zr_0.27_Y_0.24_Ca_0.09_Mn_0.08_Fe_0.07_Ce_0.06_La_0.03_Nd^3+^_0.03_Dy_0.03_Yb_0.02_Er_0.02_Na_0.02_Pr_0.01_Lu_0.01_Sr_0.01_)_0.99_(Ti_0.79_Zr_0.15_Nd^5+^_0.06_)_1.00_(Si_2.02_O_7_)_2_OF_2.88_
98.30956, 0.0000000E+00
98.79168, 87.71875
99.27380, 190.2812
99.75591, 277.7812
100.2380, 318.8125
100.7201, 271.9141
101.2023, 231.5312
101.6844, 201.6602
102.1665, 223.9414
102.6486, 314.2031
103.1307, 424.8477
103.6128, 511.8789
104.0950, 526.3906
104.5771, 488.0430
105.0592, 395.9766
105.5413, 283.7070
106.0234, 173.4336
106.5055, 88.72656
106.9877, 26.79688
107.4698, 31.37891
107.9519, 94.96484
108.4340, 138.3086
108.9161, 153.4883
109.3982, 145.8477
109.8804, 129.4375
110.3625, 111.1562
110.8446, 91.52344
111.3267, 82.71875
111.8088, 101.5469
112.2909, 116.9453
112.7731, 109.9141
113.2552, 81.87500
113.7373, 47.52344
114.2194, 32.96094
114.7015, 59.58594
115.1836, 63.08594
115.6658, 16.03906
116.1479, 41.50781
116.6300, 66.94531
117.1121, 44.93750
117.5942, 3.156250
118.0763, 30.37500
118.5584, 33.60156
119.0406, 28.67188
119.5227, 26.13281
120.0048, 20.91406
120.4869, 6.828125
120.9690, 72.91406
121.4511, 159.4609
121.9333, 229.7812
122.4154, 278.6953
122.8975, 318.8125
123.3796, 354.8516
123.8617, 386.6719
124.3438, 418.6016
124.8260, 451.6016
125.3081, 483.5391
125.7902, 511.6250
126.2723, 527.5859
126.7544, 543.6406
127.2365, 586.3828
127.7187, 676.0859
128.2008, 758.2344
128.6829, 807.5703
129.1650, 844.2812
129.6471, 896.8438
130.1292, 988.4297
130.6114, 1114.586
131.0935, 1203.625
131.5756, 1200.297
132.0577, 1214.664
132.5398, 1272.477
133.0219, 1371.562
133.5041, 1497.531
133.9862, 1642.172
134.4683, 1812.883
134.9504, 1963.031
135.4325, 2074.383
135.9146, 2184.750
136.3968, 2316.773
136.8789, 2471.422
137.3610, 2631.570
137.8431, 2769.039
138.3252, 2877.125
138.8073, 3009.578
139.2895, 3199.016
139.7716, 3403.648
140.2537, 3575.609
140.7358, 3700.969
141.2179, 3799.086
141.7000, 3872.961
142.1821, 3922.867
142.6643, 4007.859
143.1464, 4180.906
143.6285, 4415.156
144.1106, 4614.062
144.5927, 4740.961
145.0748, 4840.867
145.5570, 4955.438
146.0391, 5084.711
146.5212, 5222.219
147.0033, 5363.547
147.4854, 5509.516
147.9675, 5656.445
148.4497, 5801.352
148.9318, 5952.297
149.4139, 6120.664
149.8960, 6305.820
150.3781, 6494.102
150.8602, 6662.289
151.3424, 6814.320
151.8245, 6941.219
152.3066, 7015.125
152.7887, 7085.594
153.2708, 7202.555
153.7529, 7381.484
154.2351, 7592.562
154.7172, 7759.609
155.1993, 7823.047
155.6814, 7908.836
156.1635, 7985.922
156.6456, 8086.602
157.1278, 8203.133
157.6099, 8332.773
158.0920, 8470.492
158.5741, 8595.281
159.0562, 8709.414
159.5383, 8810.297
160.0205, 8874.367
160.5026, 8922.414
160.9847, 9005.867
161.4668, 9159.531
161.9489, 9366.078
162.4310, 9534.477
162.9131, 9645.555
163.3953, 9738.891
163.8774, 9834.547
164.3595, 9932.367
164.8416, 10021.67
165.3237, 10092.93
165.8058, 10150.50
166.2880, 10208.64
166.7701, 10277.39
167.2522, 10344.27
167.7343, 10386.06
168.2164, 10393.90
168.6985, 10414.92
169.1807, 10487.26
169.6628, 10584.39
170.1449, 10678.75
170.6270, 10761.05
171.1091, 10832.88
171.5912, 10897.44
172.0734, 10954.80
172.5555, 11002.21
173.0376, 11036.56
173.5197, 11065.51
174.0018, 11099.82
174.4839, 11144.14
174.9661, 11199.05
175.4482, 11264.56
175.9303, 11363.24
176.4124, 11448.17
176.8945, 11495.81
177.3766, 11521.95
177.8588, 11549.59
178.3409, 11594.23
178.8230, 11656.53
179.3051, 11748.32
179.7872, 11932.80
180.2693, 12084.68
180.7515, 12131.03
181.2336, 12105.67
181.7157, 12097.99
182.1978, 12190.30
182.6799, 12398.38
183.1620, 12543.81
183.6441, 12577.92
184.1263, 12606.79
184.6084, 12691.91
185.0905, 12826.91
185.5726, 12956.22
186.0547, 13020.35
186.5368, 13006.45
187.0190, 13043.82
187.5011, 13173.55
187.9832, 13321.55
188.4653, 13441.19
188.9474, 13525.26
189.4296, 13581.22
189.9117, 13605.16
190.3938, 13597.80
190.8759, 13604.97
191.3580, 13643.55
191.8401, 13692.85
192.3223, 13730.91
192.8044, 13754.88
193.2865, 13771.93
193.7686, 13777.86
194.2507, 13779.08
194.7328, 13800.81
195.2150, 13867.53
195.6971, 13957.48
196.1792, 14029.20
196.6613, 14077.24
197.1434, 14109.50
197.6255, 14124.36
198.1077, 14128.83
198.5898, 14138.35
199.0719, 14158.66
199.5540, 14190.59
200.0361, 14238.82
200.5182, 14315.43
201.0004, 14393.28
201.4825, 14469.17
201.9646, 14536.49
202.4467, 14576.94
202.9288, 14567.20
203.4109, 14511.67
203.8930, 14472.35
204.3752, 14434.62
204.8573, 14434.05
205.3394, 14518.53
205.8215, 14654.09
206.3036, 14762.52
206.7857, 14767.59
207.2679, 14662.06
207.7500, 14599.94
208.2321, 14622.12
208.7142, 14652.87
209.1963, 14667.38
209.6784, 14669.12
210.1606, 14675.21
210.6427, 14703.41
211.1248, 14756.79
211.6069, 14791.74
212.0890, 14789.33
212.5711, 14787.15
213.0533, 14817.37
213.5354, 14866.06
214.0175, 14886.23
214.4996, 14827.44
214.9817, 14669.34
215.4638, 14578.34
215.9460, 14601.08
216.4281, 14633.87
216.9102, 14625.18
217.3923, 14576.15
217.8744, 14519.87
218.3565, 14486.41
218.8387, 14479.65
219.3208, 14459.48
219.8029, 14413.66
220.2850, 14366.15
220.7671, 14343.30
221.2492, 14340.40
221.7314, 14315.10
222.2135, 14220.92
222.6956, 14052.64
223.1777, 13935.08
223.6598, 13903.89
224.1419, 13895.89
224.6240, 13870.56
225.1062, 13824.89
225.5883, 13763.77
226.0704, 13693.04
226.5525, 13609.52
227.0346, 13504.30
227.5167, 13360.02
227.9989, 13204.87
228.4810, 13058.77
228.9631, 12922.26
229.4452, 12803.83
229.9273, 12726.96
230.4094, 12673.39
230.8916, 12592.77
231.3737, 12453.59
231.8558, 12296.86
232.3379, 12173.85
232.8200, 12090.03
233.3021, 12000.59
233.7843, 11872.26
234.2664, 11723.56
234.7485, 11574.95
235.2306, 11421.73
235.7127, 11276.30
236.1948, 11164.62
236.6770, 11098.09
237.1591, 11017.52
237.6412, 10877.84
238.1233, 10711.28
238.6054, 10551.92
239.0875, 10416.36
239.5697, 10283.37
240.0518, 10108.25
240.5339, 9867.453
241.0160, 9659.266
241.4981, 9548.469
241.9802, 9477.781
242.4624, 9396.758
242.9445, 9290.602
243.4266, 9171.789
243.9087, 9055.383
244.3908, 8933.133
244.8729, 8825.094
245.3550, 8738.930
245.8372, 8661.812
246.3193, 8594.648
246.8014, 8543.188
247.2835, 8490.125
247.7656, 8398.500
248.2477, 8251.422
248.7299, 8096.383
249.2120, 7921.562
249.6941, 7755.344
250.1762, 7630.203
250.6583, 7556.203
251.1404, 7503.336
251.6226, 7418.938
252.1047, 7287.961
252.5868, 7155.047
253.0689, 7009.344
253.5510, 6873.203
254.0331, 6765.141
254.5153, 6690.188
254.9974, 6634.688
255.4795, 6574.953
255.9616, 6492.781
256.4437, 6443.297
256.9258, 6447.859
257.4080, 6461.148
257.8901, 6452.539
258.3722, 6418.859
258.8543, 6380.164
259.3364, 6366.172
259.8185, 6394.852
260.3007, 6405.125
260.7828, 6369.641
261.2649, 6339.727
261.7470, 6364.391
262.2291, 6436.227
262.7112, 6491.844
263.1934, 6448.602
263.6755, 6259.906
264.1576, 6148.906
264.6397, 6146.055
265.1218, 6181.320
265.6039, 6225.945
266.0861, 6272.758
266.5682, 6322.250
267.0503, 6375.227
267.5324, 6430.781
268.0145, 6490.867
268.4966, 6574.000
268.9788, 6641.891
269.4609, 6668.641
269.9430, 6660.477
270.4251, 6644.781
270.9072, 6645.680
271.3893, 6662.766
271.8715, 6655.656
272.3536, 6581.188
272.8357, 6528.164
273.3178, 6553.156
273.7999, 6634.180
274.2820, 6705.734
274.7642, 6722.320
275.2463, 6690.258
275.7284, 6670.078
276.2105, 6684.391
276.6926, 6681.164
277.1747, 6624.312
277.6568, 6534.117
278.1389, 6463.445
278.6211, 6450.125
279.1032, 6476.969
279.5853, 6444.766
280.0674, 6306.016
280.5495, 6177.617
281.0316, 6108.266
281.5138, 6067.047
281.9959, 5998.859
282.4780, 5880.031
282.9601, 5722.719
283.4422, 5551.234
283.9243, 5351.562
284.4065, 5167.602
284.8886, 5005.133
285.3707, 4865.148
285.8528, 4750.945
286.3349, 4665.008
286.8170, 4599.422
287.2992, 4546.578
287.7813, 4511.695
288.2634, 4467.961
288.7455, 4408.859
289.2276, 4338.992
289.7097, 4277.570
290.1919, 4231.164
290.6740, 4147.781
291.1561, 3941.328
291.6382, 3588.961
292.1203, 3295.273
292.6024, 3111.711
293.0846, 2977.461
293.5667, 2837.203
294.0488, 2683.336
294.5309, 2532.227
295.0130, 2397.758
295.4951, 2281.398
295.9773, 2173.953
296.4594, 2074.398
296.9415, 1983.508
297.4236, 1911.992
297.9057, 1856.008
298.3878, 1787.070
298.8700, 1689.664
299.3521, 1558.383
299.8342, 1390.789
300.3163, 1129.461
300.7984, 883.4141
301.2805, 712.3125
301.7627, 610.5781
302.2448, 559.4844
302.7269, 573.0625
303.2090, 614.5625
303.6911, 575.8438
304.1732, 416.0938
304.6554, 254.2812
305.1375, 144.8125
305.6196, 74.68750
306.1017, 13.43750
306.5838, 44.03125
307.0659, 107.4219
307.5481, 203.6562
308.0302, 341.2812
308.5123, 467.7656
308.9944, 565.3125
309.4765, 640.8906
309.9586, 704.6094
310.4408, 758.2031
310.9229, 808.6406
311.4050, 874.1719
311.8871, 956.9688
312.3692, 1013.797
312.8513, 1032.047
313.3335, 1022.703
313.8156, 988.8438
314.2977, 930.9219
314.7798, 873.7969
315.2619, 836.3281
315.7440, 819.0469
316.2262, 822.6719
316.7083, 859.8125
317.1904, 909.7344
317.6725, 964.5781
318.1546, 1020.984
318.6367, 1060.531
319.1188, 1070.219
319.6010, 1050.625
320.0831, 1014.609
320.5652, 931.7188
321.0473, 861.1406
321.5294, 838.7344
322.0115, 857.4531
322.4937, 885.3281
322.9758, 911.6250
323.4579, 935.8438
323.9400, 964.4062
324.4221, 1002.641
324.9042, 1031.828
325.3864, 1039.141
325.8685, 1032.953
326.3506, 1024.328
326.8327, 1014.422
327.3148, 1008.094
327.7969, 1018.625
328.2791, 1052.484
328.7612, 1062.672
329.2433, 1023.328
329.7254, 964.0312
330.2075, 923.6875
330.6896, 909.1719
331.1718, 889.7656
331.6539, 825.5938
332.1360, 712.6094
332.6181, 631.8594
333.1002, 629.7500
333.5823, 630.1094
334.0645, 583.3438
334.5466, 488.6562
335.0287, 343.1875
335.5108, 128.3438
335.9929, 137.3281
336.4750, 310.8125
336.9572, 361.6562
337.4393, 369.2188
337.9214, 341.0781
338.4035, 294.8125
338.8856, 266.4375
339.3677, 271.8906
339.8499, 304.9531
340.3320, 352.4688
340.8141, 427.7188
341.2962, 487.7656
341.7783, 517.3438
342.2604, 530.0625
342.7426, 542.1094
343.2247, 556.4062
343.7068, 566.3594
344.1889, 559.2812
344.6710, 521.4219
345.1531, 512.2344
345.6353, 542.7812
346.1174, 592.9375
346.5995, 664.3594
347.0816, 746.6406
347.5637, 807.8281
348.0458, 813.0000
348.5280, 760.5469
349.0101, 696.2031
349.4922, 587.4844
349.9743, 496.9688
350.4564, 451.5781
350.9385, 445.0156
351.4207, 465.3125
351.9028, 506.1875
352.3849, 561.5312
352.8670, 608.7188
353.3491, 639.2500
353.8312, 672.5312
354.3134, 678.9844
354.7955, 702.0312
355.2776, 827.1719
355.7597, 1078.594
356.2418, 1347.672
356.7239, 1446.781
357.2061, 1243.500
357.6882, 1130.484
358.1703, 1139.234
358.6524, 1197.766
359.1345, 1280.062
359.6166, 1373.641
360.0987, 1448.672
360.5808, 1475.641
361.0630, 1448.125
361.5451, 1439.547
362.0272, 1469.688
362.5093, 1483.453
362.9914, 1458.797
363.4735, 1410.312
363.9557, 1353.344
364.4378, 1296.125
364.9199, 1244.438
365.4020, 1224.172
365.8841, 1276.359
366.3662, 1300.109
366.8484, 1242.375
367.3305, 1175.734
367.8126, 1192.781
368.2947, 1315.234
368.7768, 1459.672
369.2589, 1491.219
369.7411, 1366.000
370.2232, 1241.031
370.7053, 1128.250
371.1874, 1017.750
371.6695, 907.3438
372.1516, 797.0469
372.6338, 693.5312
373.1159, 598.2969
373.5980, 509.1562
374.0801, 431.2188
374.5622, 350.7656
375.0443, 295.5469
375.5265, 292.7969
376.0086, 315.7812
376.4907, 321.7969
376.9728, 294.2969
377.4549, 242.0625
377.9370, 169.7500
378.4192, 51.25000
378.9013, 1.000000
379.3834, 87.76562
379.8655, 221.8281
380.3476, 340.5938
380.8297, 431.8438
381.3119, 498.5938
381.7940, 520.3125
382.2761, 499.5469
382.7582, 531.1094
383.2403, 639.4688
383.7224, 797.2031
384.2046, 994.4062
384.6867, 1221.344
385.1688, 1457.953
385.6509, 1705.875
386.1330, 1945.812
386.6151, 2124.391
387.0973, 2215.109
387.5794, 2344.609
388.0615, 2632.625
388.5436, 2989.797
389.0257, 3282.531
389.5078, 3441.719
389.9900, 3617.203
390.4721, 3973.656
390.9542, 4482.453
391.4363, 4922.844
391.9184, 5183.031
392.4005, 5399.328
392.8827, 5776.250
393.3648, 6325.172
393.8469, 6866.062
394.3290, 7320.344
394.8111, 7719.812
395.2932, 8093.297
395.7754, 8447.312
396.2575, 8817.500
396.7396, 9249.922
397.2217, 9740.047
397.7038, 10211.19
398.1859, 10649.55
398.6681, 11086.05
399.1501, 11540.98
399.6323, 12012.31
400.1144, 12488.75
400.5965, 12961.42
401.0786, 13438.41
401.5607, 13935.56
402.0428, 14448.20
402.5250, 14984.05
403.0071, 15550.59
403.4892, 16137.89
403.9713, 16736.22
404.4534, 17339.03
404.9355, 17942.84
405.4177, 18550.52
405.8998, 19171.72
406.3819, 19709.58
406.8640, 20100.48
407.3461, 20478.38
407.8282, 20894.30
408.3104, 21354.28
408.7925, 21861.80
409.2746, 22431.33
409.7567, 23041.88
410.2388, 23610.47
410.7209, 24094.44
411.2031, 24586.97
411.6852, 25111.94
412.1673, 25640.42
412.6494, 26137.55
413.1315, 26597.88
413.6136, 27055.38
414.0958, 27566.89
414.5779, 28167.12
415.0600, 28693.92
415.5421, 29083.20
416.0242, 29454.52
416.5063, 29827.02
416.9885, 30220.62
417.4706, 30658.58
417.9527, 31163.09
418.4348, 31721.78
418.9169, 32306.86
419.3990, 32932.59
419.8812, 33546.06
420.3633, 34144.11
420.8454, 34712.66
421.3275, 35225.39
421.8096, 35673.69
422.2917, 36094.97
422.7739, 36534.33
423.2560, 36986.91
423.7381, 37383.73
424.2202, 37658.16
424.7023, 37949.19
425.1844, 38394.47
425.6666, 38950.89
426.1487, 39467.20
426.6308, 39871.02
427.1129, 40202.64
427.5950, 40494.11
428.0771, 40743.34
428.5593, 41042.05
429.0414, 41484.94
429.5235, 41984.70
430.0056, 42347.58
430.4877, 42523.73
430.9698, 42679.86
431.4520, 42908.06
431.9341, 43173.16
432.4162, 43403.23
432.8983, 43577.77
433.3804, 43730.27
433.8625, 43901.83
434.3447, 44096.30
434.8268, 44259.64
435.3089, 44370.30
435.7910, 44465.28
436.2731, 44581.62
436.7552, 44705.06
437.2374, 44785.34
437.7195, 44789.80
438.2016, 44733.92
438.6837, 44678.39
439.1658, 44636.19
439.6479, 44577.56
440.1301, 44456.86
440.6122, 44345.14
441.0943, 44351.00
441.5764, 44475.80
442.0585, 44581.41
442.5406, 44506.05
443.0227, 44228.11
443.5049, 43931.42
443.9870, 43587.67
444.4691, 43256.77
444.9512, 42967.33
445.4333, 42704.11
445.9154, 42444.12
446.3976, 42183.23
446.8797, 41897.41
447.3618, 41515.78
447.8439, 40985.28
448.3260, 40516.44
448.8081, 40221.00
449.2903, 39941.39
449.7724, 39573.86
450.2545, 39115.25
450.7366, 38633.09
451.2187, 38204.75
451.7008, 37800.02
452.1830, 37288.64
452.6651, 36626.89
453.1472, 35966.86
453.6293, 35421.42
454.1114, 34927.94
454.5935, 34396.45
455.0757, 33801.31
455.5578, 33182.36
456.0399, 32547.34
456.5220, 31909.59
457.0041, 31316.39
457.4862, 30788.23
457.9684, 30293.31
458.4505, 29801.62
458.9326, 29315.89
459.4147, 28799.88
459.8968, 28249.44
460.3789, 27668.92
460.8611, 27036.00
461.3432, 26366.72
461.8253, 25735.91
462.3074, 25186.05
462.7895, 24707.62
463.2716, 24242.36
463.7538, 23806.62
464.2359, 23362.70
464.7180, 22853.39
465.2001, 22355.52
465.6822, 21952.95
466.1643, 21656.45
466.6465, 21422.77
467.1286, 21209.14
467.6107, 21011.80
468.0928, 20822.81
468.5749, 20668.64
469.0570, 20490.20
469.5392, 20232.58
470.0213, 19951.06
470.5034, 19737.95
470.9855, 19635.77
471.4676, 19586.44
471.9497, 19482.42
472.4319, 19305.27
472.9140, 19160.81
473.3961, 19126.38
473.8782, 19077.66
474.3603, 18916.86
474.8424, 18672.39
475.3246, 18456.20
475.8067, 18338.48
476.2888, 18296.81
476.7709, 18291.80
477.2530, 18334.28
477.7351, 18353.58
478.2173, 18276.67
478.6994, 18180.05
479.1815, 18188.69
479.6636, 18328.28
480.1457, 18496.41
480.6278, 18650.55
481.1100, 18795.78
481.5920, 18950.19
482.0742, 19117.95
482.5563, 19256.64
483.0384, 19312.36
483.5205, 19287.38
484.0026, 19323.30
484.4847, 19465.03
484.9669, 19615.70
485.4490, 19734.83
485.9311, 19833.28
486.4132, 19929.59
486.8953, 20030.48
487.3774, 20143.33
487.8596, 20290.06
488.3417, 20514.05
488.8238, 20642.56
489.3059, 20585.28
489.7880, 20536.34
490.2701, 20615.27
490.7523, 20782.94
491.2344, 20931.83
491.7165, 20995.03
492.1986, 21008.61
492.6807, 21076.98
493.1628, 21234.11
493.6450, 21351.23
494.1271, 21363.30
494.6092, 21353.72
495.0913, 21381.92
495.5734, 21449.83
496.0555, 21510.16
496.5377, 21527.00
497.0198, 21516.36
497.5019, 21532.55
497.9840, 21585.53
498.4661, 21611.22
498.9482, 21555.91
499.4304, 21446.97
499.9125, 21341.28
500.3946, 21234.09
500.8767, 21144.14
501.3588, 21073.59
501.8409, 21026.97
502.3231, 21019.78
502.8052, 21055.44
503.2873, 21075.78
503.7694, 21031.64
504.2515, 20918.16
504.7336, 20769.86
505.2158, 20550.83
505.6979, 20342.28
506.1800, 20180.16
506.6621, 20043.19
507.1442, 19910.22
507.6263, 19771.25
508.1085, 19615.39
508.5906, 19424.62
509.0727, 19179.75
509.5548, 18951.27
510.0369, 18793.59
510.5190, 18597.58
511.0012, 18306.94
511.4833, 17948.73
511.9654, 17567.25
512.4475, 17173.08
512.9296, 16797.14
513.4117, 16521.19
513.8939, 16365.33
514.3760, 16128.84
514.8581, 15709.27
515.3402, 15250.58
515.8223, 14893.14
516.3044, 14617.53
516.7866, 14301.25
517.2687, 13841.97
517.7508, 13341.12
518.2329, 12936.78
518.7150, 12622.92
519.1971, 12295.00
519.6793, 11897.80
520.1614, 11469.41
520.6435, 11115.17
521.1256, 10859.47
521.6077, 10570.56
522.0898, 10227.67
522.5720, 9847.125
523.0541, 9425.344
523.5362, 8978.172
524.0183, 8544.984
524.5004, 8159.188
524.9825, 7825.406
525.4647, 7531.078
525.9468, 7327.719
526.4289, 7084.062
526.9110, 6766.906
527.3931, 6426.594
527.8752, 6107.141
528.3574, 5813.250
528.8395, 5519.641
529.3216, 5190.672
529.8037, 4839.547
530.2858, 4551.281
530.7679, 4358.031
531.2501, 4163.016
531.7322, 3911.250
532.2143, 3643.188
532.6964, 3387.922
533.1785, 3149.281
533.6606, 2928.500
534.1428, 2742.578
534.6249, 2569.906
535.1070, 2335.047
535.5891, 2021.250
536.0712, 1745.781
536.5533, 1615.531
537.0355, 1602.766
537.5176, 1540.125
537.9997, 1401.156
538.4818, 1246.828
538.9639, 1080.766
539.4460, 911.2188
539.9282, 753.0469
540.4103, 610.6094
540.8924, 461.3125
541.3745, 277.1250
541.8566, 54.20312
542.3387, 111.0625
542.8209, 168.8984
543.3029, 222.1328
543.7850, 277.8984
544.2672, 342.7812
544.7493, 429.6406
545.2314, 539.9844
545.7135, 641.3828
546.1956, 673.4062
546.6777, 646.9141
547.1599, 675.9609
547.6420, 794.3594
548.1241, 908.3672
548.6062, 938.2656
549.0883, 926.8984
549.5704, 956.8281
550.0526, 1069.594
550.5347, 1161.484
551.0168, 1153.500
551.4989, 1082.211
551.9810, 1022.352
552.4631, 990.1484
552.9453, 971.6406
553.4274, 949.7969
553.9095, 926.1094
554.3916, 937.4922
554.8737, 1023.773
555.3558, 1092.320
555.8380, 1123.633
556.3201, 1125.172
556.8022, 1092.297
557.2843, 1029.625
557.7664, 955.8359
558.2485, 892.1875
558.7307, 835.9844
559.2128, 815.8828
559.6949, 869.9531
560.1770, 897.3203
560.6591, 843.1328
561.1412, 756.5625
561.6234, 703.7578
562.1055, 702.3359
562.5876, 711.3281
563.0697, 695.4922
563.5518, 661.1172
564.0339, 628.5078
564.5161, 602.9609
564.9982, 577.0312
565.4803, 554.0078
565.9624, 524.3203
566.4445, 456.6406
566.9266, 328.1797
567.4088, 194.8594
567.8909, 61.52344
568.3730, 59.75000
568.8551, 144.7422
569.3372, 194.7812
569.8193, 231.6250
570.3015, 279.5391
570.7836, 336.5781
571.2657, 394.0391
571.7478, 458.1562
572.2299, 512.2969
572.7120, 532.2422
573.1942, 553.6797
573.6763, 614.5234
574.1584, 715.3672
574.6405, 823.2812
575.1226, 904.7969
575.6047, 968.5391
576.0869, 1058.656
576.5690, 1188.047
577.0511, 1288.477
577.5332, 1308.344
578.0153, 1294.156
578.4974, 1326.602
578.9796, 1418.594
579.4617, 1504.625
579.9438, 1546.820
580.4259, 1578.523
580.9080, 1651.578
581.3901, 1759.828
581.8723, 1825.109
582.3544, 1786.320
582.8365, 1691.227
583.3186, 1701.930
583.8007, 1928.984
584.2828, 2095.547
584.7650, 2175.398
585.2471, 2214.922
585.7292, 2219.258
586.2113, 2209.031
586.6934, 2229.750
587.1755, 2315.977
587.6577, 2439.516
588.1398, 2538.914
588.6219, 2609.773
589.1040, 2683.234
589.5861, 2763.914
590.0682, 2850.766
590.5504, 2947.625
591.0325, 3052.039
591.5146, 3151.859
591.9967, 3248.602
592.4788, 3335.477
592.9609, 3402.062
593.4431, 3456.195
593.9252, 3517.234
594.4073, 3592.789
594.8894, 3681.727
595.3715, 3781.953
595.8536, 3894.758
596.3358, 4011.930
596.8179, 4175.422
597.3000, 4296.422
597.7821, 4308.539
598.2642, 4270.312
598.7463, 4259.445
599.2285, 4302.641
599.7106, 4383.820
600.1927, 4492.945
600.6748, 4627.766
601.1569, 4737.219
601.6390, 4812.766
602.1212, 4877.766
602.6033, 4941.711
603.0854, 5003.086
603.5675, 5065.367
604.0496, 5129.023
604.5317, 5199.961
605.0139, 5295.938
605.4960, 5386.453
605.9781, 5423.953
606.4602, 5410.570
606.9423, 5392.539
607.4244, 5400.273
607.9066, 5427.508
608.3887, 5456.555
608.8708, 5485.812
609.3529, 5535.172
609.8350, 5627.547
610.3171, 5720.320
610.7993, 5784.008
611.2814, 5820.312
611.7635, 5845.164
612.2456, 5863.172
612.7277, 5876.430
613.2098, 5901.336
613.6920, 5940.633
614.1741, 5960.094
614.6562, 5934.414
615.1383, 5911.953
615.6204, 5950.859
616.1025, 6038.211
616.5847, 6103.570
617.0668, 6123.555
617.5489, 6119.789
618.0310, 6094.750
618.5131, 6065.977
618.9952, 6061.391
619.4774, 6086.883
619.9595, 6126.648
620.4416, 6163.320
620.9237, 6195.508
621.4058, 6256.156
621.8879, 6404.867
622.3701, 6508.125
622.8522, 6521.664
623.3343, 6487.969
623.8164, 6444.555
624.2985, 6403.781
624.7806, 6372.969
625.2628, 6354.453
625.7448, 6350.547
626.2269, 6370.227
626.7090, 6412.258
627.1912, 6457.469
627.6733, 6500.906
628.1554, 6539.062
628.6375, 6561.832
629.1196, 6569.465
629.6017, 6566.273
630.0839, 6516.773
630.5660, 6485.477
631.0481, 6534.160
631.5302, 6638.121
632.0123, 6732.000
632.4944, 6785.281
632.9766, 6815.633
633.4587, 6857.289
633.9408, 6917.441
634.4229, 6954.965
634.9050, 6955.730
635.3871, 6946.902
635.8693, 6934.359
636.3514, 6923.754
636.8335, 6924.363
637.3156, 6939.891
637.7977, 6957.242
638.2798, 6960.355
638.7620, 6964.602
639.2441, 7007.090
639.7262, 7088.855
640.2083, 7149.691
640.6904, 7147.031
641.1725, 7101.746
641.6547, 7078.105
642.1368, 7105.133
642.6189, 7101.773
643.1010, 7026.145
643.5831, 6954.488
644.0652, 6943.656
644.5474, 6978.367
645.0295, 7011.414
645.5116, 7020.824
645.9937, 7007.633
646.4758, 6963.781
646.9579, 6889.438
647.4401, 6837.723
647.9222, 6824.344
648.4043, 6820.387
648.8864, 6805.336
649.3685, 6783.512
649.8506, 6771.777
650.3328, 6783.973
650.8149, 6785.617
651.2970, 6760.645
651.7791, 6720.289
652.2612, 6674.129
652.7433, 6626.562
653.2255, 6586.281
653.7076, 6560.797
654.1897, 6546.480
654.6718, 6525.027
655.1539, 6481.246
655.6360, 6460.898
656.1182, 6505.219
656.6003, 6542.477
657.0824, 6515.797
657.5645, 6448.605
658.0466, 6419.199
658.5287, 6483.180
659.0109, 6552.992
659.4930, 6543.828
659.9751, 6472.965
660.4572, 6382.301
660.9393, 6281.023
661.4214, 6184.996
661.9036, 6106.246
662.3857, 6044.164
662.8678, 5995.645
663.3499, 5989.414
663.8320, 5959.422
664.3141, 5881.285
664.7963, 5789.867
665.2784, 5713.129
665.7605, 5651.070
666.2426, 5589.621
666.7247, 5522.129
667.2068, 5447.359
667.6890, 5354.996
668.1711, 5244.504
668.6532, 5143.195
669.1353, 5062.617
669.6174, 4982.168
670.0995, 4872.098
670.5817, 4738.797
671.0638, 4653.777
671.5459, 4676.625
672.0280, 4675.453
672.5101, 4582.324
672.9922, 4460.559
673.4744, 4389.512
673.9565, 4369.891
674.4386, 4335.344
674.9207, 4230.848
675.4028, 4078.969
675.8849, 3948.871
676.3671, 3839.805
676.8492, 3756.055
677.3313, 3706.137
677.8134, 3674.902
678.2955, 3660.887
678.7776, 3655.359
679.2598, 3626.766
679.7419, 3562.445
680.2240, 3481.758
680.7061, 3366.957
681.1882, 3252.559
681.6703, 3211.055
682.1525, 3245.285
682.6346, 3266.176
683.1167, 3195.137
683.5988, 3056.477
684.0809, 2973.020
684.5630, 2983.922
685.0452, 2965.418
685.5273, 2861.949
686.0094, 2757.277
686.4915, 2710.516
686.9736, 2704.188
687.4557, 2678.145
687.9379, 2602.414
688.4200, 2512.020
688.9021, 2429.582
689.3842, 2358.715
689.8663, 2314.527
690.3484, 2297.785
690.8306, 2281.285
691.3127, 2244.238
691.7948, 2188.082
692.2769, 2115.887
692.7590, 2002.957
693.2411, 1914.250
693.7233, 1863.297
694.2054, 1828.230
694.6875, 1803.977
695.1696, 1783.883
695.6517, 1756.555
696.1339, 1717.145
696.6160, 1668.520
697.0981, 1604.598
697.5802, 1533.645
698.0623, 1482.754
698.5444, 1457.109
699.0266, 1443.574
699.5087, 1436.469
699.9908, 1432.293
700.4729, 1419.082
700.9550, 1401.445
701.4371, 1366.102
701.9193, 1302.098
702.4014, 1231.203
702.8835, 1156.066
703.3656, 1085.105
703.8477, 1031.273
704.3298, 1001.305
704.8120, 988.1914
705.2941, 998.7461
705.7762, 1023.617
706.2583, 1006.309
706.7404, 935.0664
707.2225, 869.8359
707.7046, 845.4883
708.1867, 849.9883
708.6688, 853.7773
709.1509, 858.4883
709.6331, 857.6016
710.1152, 858.3594
710.5973, 844.9766
711.0794, 795.1719
711.5615, 728.0195
712.0436, 677.3477
712.5258, 654.5820
713.0079, 646.3281
713.4900, 642.5586
713.9721, 641.2461
714.4542, 628.2930
714.9363, 603.5664
715.4185, 564.0508
715.9006, 496.1445
716.3827, 427.3359
716.8648, 412.6523
717.3469, 466.0586
717.8290, 485.6055
718.3112, 435.9570
718.7933, 379.6836
719.2754, 350.4297
719.7575, 333.2188
720.2396, 299.0195
720.7217, 243.1680
721.2039, 192.6992
721.6860, 175.2734
722.1681, 183.7266
722.6502, 201.4297
723.1323, 234.2578
723.6144, 219.9805
724.0966, 112.1719
724.5787, 9.851563
725.0608, 40.35547
725.5429, 17.69922
726.0250, 39.05469
726.5071, 17.85938
726.9893, 70.07422
727.4714, 90.25000
727.9535, 88.55078
728.4356, 69.76562
728.9177, 39.22656
729.3998, 11.52734
729.8820, 1.324219
730.3641, 4.484375
730.8462, 49.23438
731.3283, 135.7773
731.8104, 174.3008
732.2925, 132.2109
732.7747, 73.00000
733.2568, 48.93359
733.7389, 51.86328
734.2210, 36.25000
734.7031, 27.35938
735.1852, 63.73438
735.6674, 29.47266
736.1495, 14.61719
736.6316, 7.910156
737.1137, 34.12109
737.5958, 50.96484
738.0779, 10.61719
738.5601, 43.03906
739.0422, 39.48438
739.5243, 14.19141
740.0064, 51.24219
740.4885, 62.60156
740.9706, 77.69531
741.4528, 121.4961
741.9349, 170.6016
742.4170, 167.6016
742.8991, 91.69922
743.3812, 43.21484
743.8633, 47.14062
744.3455, 61.20703
744.8276, 68.24219
745.3097, 68.66406
745.7918, 67.10547
746.2739, 64.86719
746.7560, 57.34766
747.2382, 32.18359
747.7203, 1.871094
748.2024, 12.36328
748.6845, 1.593750
749.1666, 9.527344
749.6487, 0.9414060
750.1309, 14.92578
750.6130, 12.38672
751.0951, 8.632813
751.5772, 19.24609
752.0593, 13.80078
752.5414, 6.859375
753.0236, 5.316406
753.5057, 1.945313
753.9878, 12.00391
754.4699, 34.86328
754.9520, 56.72656
755.4341, 73.89844
755.9163, 80.04688
756.3984, 55.15625
756.8805, 10.08984
757.3626, 0.1484380
757.8447, 36.92578
758.3268, 66.51953
758.8090, 46.96094
759.2911, 4.277344
759.7732, 29.73438
760.2553, 22.56250
760.7374, 0.6328130
761.2195, 76.15234
761.7017, 130.1719
762.1838, 111.4453
762.6659, 55.21875
763.1480, 17.51562
763.6301, 14.32812
764.1122, 22.24609
764.5944, 18.64844
765.0765, 17.60938
765.5586, 49.00391
766.0407, 107.2812
766.5228, 158.4609
767.0049, 189.9453
767.4871, 202.0820
767.9692, 191.4727
768.4513, 155.7031
768.9334, 141.6797
769.4155, 157.1562
769.8976, 180.5781
770.3798, 218.9922
770.8619, 253.9141
771.3440, 270.7734
771.8261, 270.2891
772.3082, 260.6719
772.7903, 234.5117
773.2725, 213.5977
773.7546, 215.0469
774.2367, 230.8359
774.7188, 255.6406
775.2009, 285.0625
775.6830, 302.2969
776.1652, 295.3672
776.6473, 271.5117
777.1294, 243.0586
777.6115, 205.6797
778.0936, 196.4453
778.5757, 234.7734
779.0579, 269.4688
779.5400, 261.2266
780.0221, 237.7656
780.5042, 254.3164
780.9863, 328.6914
781.4684, 361.6289
781.9506, 287.5547
782.4327, 204.6602
782.9148, 180.6094
783.3969, 191.8086
783.8790, 187.9609
784.3611, 157.2930
784.8433, 131.4336
785.3254, 147.4375
785.8075, 187.4258
786.2896, 192.6641
786.7717, 162.7539
787.2538, 136.3633
787.7360, 121.2188
788.2181, 116.1641
788.7002, 120.0273
789.1823, 133.3789
789.6644, 160.7578
790.1465, 226.9258
790.6286, 270.2070
791.1107, 283.1055
791.5928, 275.0781
792.0750, 235.5977
792.5571, 182.9414
793.0392, 156.5625
793.5213, 175.3047
794.0034, 194.5273
794.4855, 165.5664
794.9677, 113.2930
795.4498, 90.43750
795.9319, 95.15234
796.4140, 85.60938
796.8961, 42.52734
797.3782, 5.449219
797.8604, 15.30859
798.3425, 15.54688
798.8246, 20.88281
799.3067, 18.80078
799.7888, 52.10938
800.2709, 57.45703
800.7531, 53.96094
801.2352, 58.01172
801.7173, 69.58594
802.1994, 79.57422
802.6815, 90.60156
803.1636, 91.71484
803.6458, 66.92969
804.1279, 35.09375
804.6100, 21.43750
805.0921, 22.43750
805.5742, 14.12109
806.0563, 17.14844
806.5385, 50.00781
807.0206, 42.22656
807.5027, 1.324219
807.9848, 12.91406
808.4669, 17.16797
808.9490, 42.57812
809.4312, 41.97266
809.9133, 28.05859
810.3954, 19.78906
810.8775, 19.06641
811.3596, 10.17188
811.8417, 23.18359
812.3239, 43.46875
812.8060, 31.28906
813.2881, 8.000000
813.7702, 3.929688
814.2523, 6.375000
814.7344, 19.15234
815.2166, 56.38281
815.6987, 99.39844
816.1808, 132.3984
816.6629, 154.7656
817.1450, 156.5742
817.6271, 140.9141
818.1093, 144.1602
818.5914, 188.5469
819.0735, 253.1914
819.5556, 297.4023
820.0377, 316.8555
820.5198, 338.0117
821.0020, 360.9258
821.4841, 385.0469
821.9662, 418.1914
822.4483, 446.4023
822.9304, 449.2930
823.4125, 428.1523
823.8947, 418.4727
824.3768, 434.6406
824.8589, 455.3398
825.3410, 467.1719
825.8231, 481.8633
826.3052, 518.3164
826.7874, 572.1094
827.2695, 619.3438
827.7516, 645.6836
828.2337, 665.2227
828.7158, 699.5312
829.1979, 744.3008
829.6801, 781.4258
830.1622, 809.1367
830.6443, 832.9141
831.1264, 854.7148
831.6085, 875.4805
832.0906, 895.5625
832.5728, 913.3398
833.0549, 939.8125
833.5370, 970.7188
834.0191, 1016.309
834.5012, 1098.414
834.9833, 1179.168
835.4655, 1222.398
835.9476, 1234.301
836.4297, 1253.492
836.9118, 1291.102
837.3939, 1339.438
837.8760, 1405.637
838.3582, 1473.352
838.8403, 1523.707
839.3224, 1557.582
839.8045, 1584.574
840.2866, 1609.301
840.7687, 1630.605
841.2509, 1644.258
841.7330, 1652.441
842.2151, 1665.672
842.6972, 1683.543
843.1793, 1717.926
843.6614, 1778.090
844.1436, 1840.859
844.6257, 1876.848
845.1078, 1886.746
845.5899, 1909.793
846.0720, 1971.020
846.5541, 2007.254
847.0363, 1986.590
847.5184, 1964.578
848.0005, 1980.605
848.4826, 2021.125
848.9647, 2048.820
849.4468, 2048.523
849.9290, 2060.770
850.4111, 2128.402
850.8932, 2202.738
851.3753, 2240.504
851.8574, 2243.211
852.3395, 2209.094
852.8217, 2144.227
853.3038, 2094.062
853.7859, 2110.477
854.2680, 2170.840
854.7501, 2205.273
855.2322, 2213.621
855.7144, 2213.863
856.1965, 2208.559
856.6786, 2203.164
857.1607, 2200.078
857.6428, 2200.805
858.1249, 2212.996
858.6071, 2256.121
859.0892, 2267.445
859.5713, 2216.582
860.0534, 2169.492
860.5355, 2143.711
861.0176, 2137.199
861.4998, 2152.855
861.9819, 2189.207
862.4640, 2220.664
862.9461, 2241.898
863.4282, 2249.129
863.9103, 2228.316
864.3925, 2198.410
864.8746, 2190.133
865.3567, 2201.359
865.8388, 2209.109
866.3209, 2201.402
866.8030, 2181.098
867.2852, 2142.695
867.7673, 2093.648
868.2494, 2078.105
868.7315, 2100.254
869.2136, 2122.750
869.6957, 2130.176
870.1779, 2124.785
870.6600, 2110.641
871.1421, 2089.582
871.6242, 2068.961
872.1063, 2034.262
872.5884, 2019.832
873.0705, 2055.559
873.5526, 2090.062
874.0347, 2091.883
874.5168, 2070.211
874.9990, 2046.555
875.4811, 2024.348
875.9632, 2002.648
876.4453, 1985.605
876.9274, 1965.516
877.4095, 1930.453
877.8917, 1887.023
878.3738, 1844.086
878.8559, 1806.934
879.3380, 1787.930
879.8201, 1804.867
880.3022, 1837.328
880.7844, 1844.914
881.2665, 1838.074
881.7486, 1866.055
882.2307, 1933.750
882.7128, 1982.801
883.1949, 1973.703
883.6771, 1936.660
884.1592, 1939.301
884.6413, 1992.348
885.1234, 2012.941
885.6055, 1992.590
886.0876, 1958.793
886.5698, 1916.301
887.0519, 1866.023
887.5340, 1799.215
888.0161, 1718.688
888.4982, 1666.727
888.9803, 1662.047
889.4625, 1661.098
889.9446, 1659.914
890.4267, 1657.863
890.9088, 1660.770
891.3909, 1661.086
891.8730, 1643.395
892.3552, 1603.121
892.8373, 1557.312
893.3194, 1506.461
893.8015, 1463.773
894.2836, 1454.719
894.7657, 1462.035
895.2479, 1445.148
895.7300, 1399.613
896.2121, 1357.102
896.6942, 1340.895
897.1763, 1343.652
897.6584, 1351.582
898.1406, 1365.293
898.6227, 1400.246
899.1048, 1462.207
899.5869, 1480.793
900.0690, 1412.555
900.5511, 1311.977
901.0333, 1262.047
901.5154, 1265.988
901.9975, 1246.645
902.4796, 1184.172
902.9617, 1135.531
903.4438, 1109.340
903.9260, 1102.191
904.4081, 1127.719
904.8902, 1168.809
905.3723, 1178.910
905.8544, 1140.359
906.3365, 1108.000
906.8187, 1099.641
907.3008, 1095.758
907.7829, 1094.414
908.2650, 1085.516
908.7471, 1051.766
909.2292, 994.1562
909.7114, 935.1250
910.1935, 883.9375
910.6756, 844.1328
911.1577, 824.8203
911.6398, 816.0977
912.1219, 801.9766
912.6041, 780.7578
913.0862, 755.1250
913.5683, 726.5195
914.0504, 693.5938
914.5325, 649.0586
915.0146, 598.2383
915.4968, 571.8594
915.9789, 570.9531
916.4610, 573.0156
916.9431, 574.1641
917.4252, 569.4609
917.9073, 554.9336
918.3895, 530.6992
918.8716, 496.1641
919.3537, 443.1289
919.8358, 399.9414
920.3179, 387.0312
920.8000, 353.4688
921.2822, 239.8008
921.7643, 120.7578
922.2464, 92.91016
922.7285, 151.8633
923.2106, 179.3438
923.6927, 126.6133
924.1749, 84.64453
924.6570, 93.95703
925.1391, 110.4453
925.6212, 93.57031
926.1033, 57.99609
926.5854, 45.75000
927.0676, 70.31641
927.5497, 79.53125
928.0318, 20.07031
928.5139, 52.61719
928.9960, 87.92969
929.4781, 93.51172
929.9603, 79.07812
930.4424, 51.82031
930.9245, 30.87109
931.4066, 28.74219
931.8887, 37.48047
932.3708, 41.17969
932.8530, 44.39844
933.3351, 77.35938
933.8172, 138.2422
934.2993, 166.7266
934.7814, 138.6602
935.2635, 88.58594
935.7457, 50.29688
936.2278, 25.62109
936.7099, 26.75781
937.1920, 61.85547
937.6741, 85.98438
938.1563, 92.38672
938.6384, 91.56250
939.1205, 84.97266
939.6026, 78.29688
940.0847, 83.64062
940.5668, 104.6836
941.0490, 115.6055
941.5311, 94.21484
942.0132, 93.04688
942.4953, 143.6797
942.9774, 198.0586
943.4595, 222.6797
943.9417, 221.8438
944.4238, 210.8359
944.9059, 190.9023
945.3880, 168.0234
945.8701, 142.2891
946.3522, 116.0625
946.8344, 86.80469
947.3165, 60.28906
947.7986, 48.11719
948.2807, 48.14453
948.7628, 42.54297
949.2449, 20.60156
949.7271, 6.800781
950.2092, 29.83594
950.6913, 51.37500
951.1734, 73.24219
951.6555, 98.04688
952.1376, 136.7812
952.6198, 191.2148
953.1019, 239.0000
953.5840, 254.3203
954.0661, 254.0625
954.5482, 289.5820
955.0303, 351.0352
955.5124, 362.2500
955.9945, 312.8281
956.4766, 282.4609
956.9587, 314.7227
957.4409, 383.5898
957.9230, 451.8164
958.4051, 519.5352
958.8872, 568.9727
959.3693, 602.3789
959.8514, 603.3867
960.3336, 549.6758
960.8157, 507.5820
961.2978, 536.2930
961.7799, 607.6094
962.2620, 641.7500
962.7441, 627.1523
963.2263, 610.5703
963.7084, 564.3555
964.1905, 554.6133
964.6726, 620.7930
965.1547, 711.3477
965.6368, 789.2305
966.1190, 853.6953
966.6011, 909.0352
967.0832, 967.5977
967.5653, 994.0430
968.0474, 945.6641
968.5295, 901.0352
969.0117, 912.0430
969.4938, 950.0703
969.9759, 978.4766
970.4580, 991.3984
970.9401, 995.1719
971.4222, 983.1875
971.9044, 977.6562
972.3865, 999.2383
972.8686, 1029.105
973.3507, 1052.418
973.8328, 1065.902
974.3149, 1062.008
974.7971, 1040.855
975.2792, 1025.809
975.7613, 1035.539
976.2434, 1061.016
976.7255, 1092.129
977.2076, 1128.754
977.6898, 1181.512
978.1719, 1243.469
978.6540, 1268.391
979.1361, 1234.648
979.6182, 1201.832
980.1003, 1254.172
980.5825, 1364.684
981.0646, 1446.082
981.5467, 1498.086
982.0288, 1516.359
982.5109, 1500.523
982.9930, 1477.652
983.4752, 1463.676
983.9573, 1459.477
984.4394, 1477.594
984.9215, 1519.504
985.4036, 1492.836
985.8857, 1376.016
986.3679, 1308.004
986.8500, 1336.441
987.3321, 1397.125
987.8142, 1441.004
988.2963, 1474.762
988.7784, 1519.902
989.2606, 1585.918
989.7427, 1623.137
990.2248, 1624.957
990.7069, 1609.664
991.1890, 1565.926
991.6711, 1521.316
992.1533, 1502.562
992.6354, 1511.438
993.1175, 1544.246
993.5996, 1639.398
994.0817, 1686.402
994.5638, 1642.445
995.0460, 1596.086
995.5281, 1580.816
996.0102, 1582.855
996.4923, 1585.980
996.9744, 1590.852
997.4565, 1606.742
997.9387, 1637.887
998.4208, 1673.312
998.9029, 1711.457
999.3850, 1754.477
999.8671, 1818.254
1000.349, 1873.480
1000.831, 1870.152
1001.313, 1811.527
1001.796, 1771.625
1002.278, 1788.617
1002.760, 1819.719
1003.242, 1853.586
1003.724, 1881.039
1004.206, 1886.961
1004.688, 1882.438
1005.170, 1888.020
1005.653, 1908.797
1006.135, 1942.234
1006.617, 1995.215
1007.099, 2051.504
1007.581, 2103.598
1008.063, 2142.809
1008.545, 2148.145
1009.027, 2130.266
1009.509, 2125.938
1009.992, 2146.184
1010.474, 2159.246
1010.956, 2124.973
1011.438, 2079.852
1011.920, 2082.227
1012.402, 2116.555
1012.884, 2141.438
1013.366, 2158.316
1013.849, 2202.965
1014.331, 2291.320
1014.813, 2396.602
1015.295, 2495.949
1015.777, 2583.883
1016.259, 2650.266
1016.741, 2693.961
1017.223, 2698.445
1017.705, 2663.965
1018.188, 2625.496
1018.670, 2600.941
1019.152, 2590.074
1019.634, 2595.133
1020.116, 2611.527
1020.598, 2618.449
1021.080, 2616.488
1021.562, 2619.020
1022.044, 2627.602
1022.527, 2660.258
1023.009, 2732.168
1023.491, 2811.293
1023.973, 2844.461
1024.455, 2834.688
1024.937, 2827.344
1025.419, 2821.016
1025.901, 2828.730
1026.384, 2855.906
1026.866, 2883.949
1027.348, 2899.246
1027.830, 2914.684
1028.312, 2953.578
1028.794, 3017.535
1029.276, 3086.227
1029.758, 3169.133
1030.240, 3223.605
1030.723, 3233.008
1031.205, 3235.078
1031.687, 3256.883
1032.169, 3284.641
1032.651, 3285.160
1033.133, 3249.297
1033.615, 3260.648
1034.097, 3341.277
1034.579, 3419.297
1035.062, 3477.793
1035.544, 3536.543
1036.026, 3617.562
1036.508, 3700.727
1036.990, 3739.016
1037.472, 3721.172
1037.954, 3718.867
1038.436, 3744.391
1038.919, 3765.105
1039.401, 3756.883
1039.883, 3761.234
1040.365, 3824.129
1040.847, 3913.551
1041.329, 3954.945
1041.811, 3935.152
1042.293, 3937.359
1042.776, 3987.004
1043.258, 4028.984
1043.740, 4056.801
1044.222, 4071.094
1044.704, 4057.273
1045.186, 4034.906
1045.668, 4045.438
1046.150, 4098.227
1046.632, 4138.457
1047.115, 4150.203
1047.597, 4179.840
1048.079, 4239.266
1048.561, 4305.906
1049.043, 4365.027
1049.525, 4414.047
1050.007, 4452.051
1050.489, 4479.984
1050.971, 4522.543
1051.454, 4613.543
1051.936, 4690.812
1052.418, 4712.738
1052.900, 4723.379
1053.382, 4757.074
1053.864, 4809.852
1054.346, 4871.664
1054.828, 4941.324
1055.311, 4999.371
1055.793, 5044.254
1056.275, 5068.691
1056.757, 5038.219
1057.239, 5010.031
1057.721, 5036.215
1058.203, 5092.004
1058.685, 5125.027
1059.167, 5127.859
1059.650, 5140.996
1060.132, 5206.793
1060.614, 5247.449
1061.096, 5216.980
1061.578, 5167.020
1062.060, 5133.297
1062.542, 5110.590
1063.024, 5082.926
1063.506, 5048.793
1063.989, 5020.859
1064.471, 5022.281
1064.953, 5005.012
1065.435, 4921.773
1065.917, 4839.199
1066.399, 4812.348
1066.881, 4818.512
1067.363, 4818.914
1067.846, 4807.660
1068.328, 4800.844
1068.810, 4813.742
1069.292, 4814.852
1069.774, 4784.742
1070.256, 4743.863
1070.738, 4714.430
1071.220, 4681.414
1071.703, 4617.496
1072.185, 4525.262
1072.667, 4444.984
1073.149, 4402.332
1073.631, 4347.617
1074.113, 4222.109
1074.595, 4113.738
1075.077, 4116.777
1075.559, 4155.602
1076.042, 4120.492
1076.524, 4016.324
1077.006, 3935.422
1077.488, 3920.824
1077.970, 3895.816
1078.452, 3797.332
1078.934, 3707.559
1079.416, 3696.988
1079.898, 3717.000
1080.380, 3713.973
1080.863, 3685.645
1081.345, 3649.867
1081.827, 3610.152
1082.309, 3564.805
1082.791, 3500.922
1083.273, 3448.219
1083.755, 3448.898
1084.237, 3449.867
1084.720, 3378.273
1085.202, 3258.590
1085.684, 3169.809
1086.166, 3132.883
1086.648, 3114.219
1087.130, 3120.988
1087.612, 3115.742
1088.094, 3093.297
1088.577, 3038.809
1089.059, 2918.926
1089.541, 2764.305
1090.023, 2629.602
1090.505, 2527.645
1090.987, 2454.355
1091.469, 2433.484
1091.951, 2410.980
1092.433, 2382.047
1092.916, 2325.637
1093.398, 2209.477
1093.880, 2059.273
1094.362, 1916.836
1094.844, 1787.215
1095.326, 1653.223
1095.808, 1496.535
1096.290, 1354.898
1096.772, 1250.688
1097.255, 1154.047
1097.737, 1027.352
1098.219, 910.3203
1098.701, 874.4375
1099.183, 908.1719
1099.665, 908.5234
1100.147, 841.7969
1100.629, 762.1406
1101.112, 670.1016
1101.594, 578.4922
1102.076, 504.5078
1102.558, 429.9922
1103.040, 339.3438
1103.522, 227.4766
1104.004, 77.99219
1104.486, 138.9844
1104.969, 302.0938
1105.451, 385.0781
1105.933, 418.3047
1106.415, 353.2500
1106.897, 295.0781
1107.379, 314.1797
1107.861, 407.6328
1108.343, 379.1641
1108.825, 440.2188
1109.307, 445.5000
1109.790, 317.2656
1110.272, 224.1328
1110.754, 223.6250
1111.236, 244.5312
1111.718, 252.6953
1112.200, 247.4531
1112.682, 241.2188
1113.164, 236.4922
1113.647, 168.4219
1114.129, 54.34375
1114.611, 185.0547
1115.093, 120.5625
1115.575, 80.05469
1116.057, 178.0234
1116.539, 325.9062
1117.021, 421.0078
1117.504, 471.5781
1117.986, 537.9766
1118.468, 639.4062
1118.950, 699.2109
1119.432, 671.1953
1119.914, 693.1562
1120.396, 833.9453
1120.878, 999.9688
1121.360, 1108.586
1121.843, 1182.336
1122.325, 1285.336
1122.807, 1432.609
1123.289, 1519.320
1123.771, 1517.562
1124.253, 1559.945
1124.735, 1691.867
1125.217, 1819.477
1125.699, 1870.352
1126.182, 1904.898
1126.664, 2031.508
1127.146, 2241.562
1127.628, 2376.125
1128.110, 2422.336
1128.592, 2476.211
1129.074, 2546.766
1129.556, 2636.406
1130.039, 2742.602
1130.521, 2851.469
1131.003, 2947.367
1131.485, 3030.430
1131.967, 3072.281
1132.449, 3084.578
1132.931, 3196.570
1133.413, 3408.828
1133.896, 3540.867
1134.378, 3538.594
1134.860, 3486.992
1135.342, 3403.211
1135.824, 3293.812
1136.306, 3163.430
1136.788, 3013.180
1137.270, 2985.523
1137.752, 3055.914
1138.234, 3025.602
1138.717, 2829.141
1139.199, 2688.195
1139.681, 2726.547
1140.163, 2831.805
1140.645, 2699.070
1141.127, 2469.641
1141.609, 2357.625
1142.091, 2315.695
1142.574, 2251.734
1143.056, 2165.180
1143.538, 2125.953
1144.020, 2135.688
1144.502, 2125.742
1144.984, 2006.273
1145.466, 1910.406
1145.948, 2025.812
1146.431, 2195.898
1146.913, 2224.367
1147.395, 2139.555
1147.877, 2014.328
1148.359, 1877.938
1148.841, 1748.289
1149.323, 1629.289
1149.805, 1540.508
1150.287, 1494.984
1150.770, 1465.281
1151.252, 1423.828
1151.734, 1405.195
1152.216, 1469.695
1152.698, 1566.016
1153.180, 1585.359
1153.662, 1485.656
1154.144, 1363.438
1154.626, 1230.289
1155.109, 1114.750
1155.591, 1024.250
1156.073, 955.4766
1156.555, 924.9531
1157.037, 875.3281
1157.519, 722.2812
1158.001, 498.3594
1158.483, 402.6875
1158.966, 585.9062
1159.448, 651.2031
1159.930, 399.4219
1160.412, 213.3594
1160.894, 266.4844
1161.376, 367.6562
1161.858, 348.0781
1162.340, 266.5469
1162.822, 234.7812
1163.305, 208.5312
1163.787, 164.0625
1164.269, 16.75000
1164.751, 8.265625
1165.233, 0.0000000E+00
##END=



