##NAMES=Harmotome
##RRUFFID=R070015
##IDEAL CHEMISTRY=Ba_2_(Si_12_Al_4_)O_32_&#183;12H_2_O
##LOCALITY=Old Kilpatrick, Dumbartonshire, Scotland
##OWNER=RRUFF
##SOURCE=Michael Scott
##DESCRIPTION=Colorless blocky crystals
##STATUS=The identification of this mineral has been confirmed by X-ray diffraction and chemical analysis
##URL=rruff.info/R070015
##MEASURED CHEMISTRY=(Ba_1.98_Ti_0.02_)_Σ=2_(Si_11.67_Al_4.33_)O_32_·12H_2_OK_0.16_Na_0.11_Ca_0.01_; H_2_O estimated by difference
154.0939, 0.0000000E+00
154.5760, 26.17334
155.0581, 29.52246
155.5403, 39.63623
156.0224, 21.26636
156.5045, 1.809570
156.9866, 0.4511720
157.4687, 3.238037
157.9508, 14.15356
158.4330, 17.61377
158.9151, 1.336426
159.3972, 8.608154
159.8793, 1.987793
160.3614, 14.91626
160.8435, 41.21973
161.3257, 76.43188
161.8078, 115.2229
162.2899, 146.4365
162.7720, 149.2878
163.2541, 172.8638
163.7362, 234.5330
164.2184, 311.6436
164.7005, 378.5688
165.1826, 426.2473
165.6647, 463.0964
166.1468, 507.3240
166.6289, 569.9426
167.1111, 621.9805
167.5932, 653.7864
168.0753, 675.8809
168.5574, 699.5281
169.0395, 728.5027
169.5216, 763.2644
170.0038, 806.9976
170.4859, 870.9199
170.9680, 920.2061
171.4501, 940.3582
171.9322, 945.9365
172.4143, 958.7041
172.8965, 986.8901
173.3786, 1018.893
173.8607, 1031.392
174.3428, 1017.546
174.8249, 1007.188
175.3070, 1004.021
175.7892, 1008.106
176.2713, 1023.132
176.7534, 1052.326
177.2355, 1083.881
177.7176, 1094.547
178.1997, 1080.779
178.6819, 1068.752
179.1640, 1064.532
179.6461, 1065.974
180.1282, 1071.278
180.6103, 1081.152
181.0924, 1090.817
181.5745, 1091.344
182.0567, 1082.227
182.5388, 1074.434
183.0209, 1073.021
183.5030, 1074.590
183.9851, 1073.116
184.4672, 1067.205
184.9494, 1059.943
185.4315, 1055.142
185.9136, 1053.114
186.3957, 1046.081
186.8778, 1021.207
187.3599, 991.4429
187.8421, 982.2537
188.3242, 1003.680
188.8063, 1030.547
189.2884, 1032.015
189.7705, 1012.260
190.2526, 989.8740
190.7348, 969.0349
191.2169, 948.5703
191.6990, 925.3267
192.1811, 897.9675
192.6632, 873.9949
193.1453, 854.7444
193.6275, 841.3860
194.1096, 839.2227
194.5917, 871.9507
195.0738, 910.2178
195.5559, 912.4856
196.0380, 871.1052
196.5202, 827.8718
197.0023, 813.8303
197.4844, 822.6758
197.9665, 823.4897
198.4486, 801.5886
198.9307, 767.3398
199.4129, 738.3315
199.8950, 716.4409
200.3771, 694.6838
200.8592, 663.8069
201.3413, 629.1223
201.8234, 603.4001
202.3056, 599.4587
202.7877, 601.8428
203.2698, 593.4507
203.7519, 573.6836
204.2340, 546.4849
204.7161, 507.1611
205.1983, 463.4292
205.6804, 429.0928
206.1625, 413.2246
206.6446, 404.2915
207.1267, 387.3232
207.6088, 360.7495
208.0910, 335.0845
208.5731, 315.7490
209.0552, 301.6011
209.5373, 291.9758
210.0194, 292.6206
210.5015, 292.4128
210.9837, 274.0757
211.4658, 236.2197
211.9479, 206.4741
212.4300, 202.6130
212.9121, 208.6357
213.3942, 202.3223
213.8764, 177.1982
214.3585, 145.6724
214.8406, 116.2417
215.3227, 89.10034
215.8048, 70.80493
216.2869, 69.59033
216.7691, 75.09961
217.2512, 72.14355
217.7333, 56.55786
218.2154, 45.44580
218.6975, 58.87427
219.1796, 94.35449
219.6618, 120.1050
220.1439, 126.4709
220.6260, 117.8723
221.1081, 98.38599
221.5902, 66.29663
222.0723, 37.25024
222.5545, 21.39209
223.0366, 17.64746
223.5187, 22.34766
224.0008, 41.93530
224.4829, 60.52783
224.9650, 60.73486
225.4472, 42.99585
225.9293, 23.71484
226.4114, 10.84399
226.8935, 3.379395
227.3756, 1.276367
227.8577, 2.790527
228.3399, 2.567871
228.8220, 1.127930
229.3041, 1.198975
229.7862, 2.200439
230.2683, 3.048828
230.7504, 9.722168
231.2325, 5.433594
231.7147, 14.79785
232.1968, 35.14819
232.6789, 44.80835
233.1610, 45.00928
233.6431, 35.92944
234.1252, 6.510254
234.6074, 28.02368
235.0895, 42.96777
235.5716, 35.05591
236.0537, 22.36816
236.5358, 13.79712
237.0179, 9.543701
237.5001, 11.03589
237.9822, 27.98730
238.4643, 43.69922
238.9464, 36.95288
239.4285, 7.238770
239.9106, 22.27393
240.3928, 40.76050
240.8749, 49.60791
241.3570, 52.62842
241.8391, 46.80811
242.3212, 39.84546
242.8033, 39.18945
243.2855, 43.65405
243.7676, 43.72339
244.2497, 32.76758
244.7318, 17.48682
245.2139, 9.571533
245.6960, 9.200195
246.1782, 15.08228
246.6603, 30.09082
247.1424, 51.30396
247.6245, 71.87622
248.1066, 93.49072
248.5887, 106.8198
249.0709, 91.65479
249.5530, 43.93579
250.0351, 7.090332
250.5172, 2.771484
250.9993, 18.13623
251.4814, 31.65796
251.9636, 38.88916
252.4457, 43.70813
252.9278, 50.13074
253.4099, 58.07129
253.8920, 67.32104
254.3741, 82.36072
254.8563, 96.38171
255.3384, 99.20764
255.8205, 89.61719
256.3026, 80.20862
256.7847, 82.40063
257.2668, 96.36987
257.7490, 108.6190
258.2311, 121.7969
258.7132, 130.8994
259.1953, 128.5486
259.6774, 116.7369
260.1595, 108.4982
260.6417, 113.2566
261.1238, 128.7112
261.6059, 138.9241
262.0880, 139.6604
262.5701, 140.1942
263.0522, 142.4385
263.5344, 147.3096
264.0165, 159.1414
264.4986, 182.1956
264.9807, 209.0918
265.4628, 216.2429
265.9449, 186.2056
266.4271, 165.6459
266.9092, 170.9165
267.3913, 188.0110
267.8734, 197.8666
268.3555, 194.2129
268.8376, 184.6434
269.3198, 181.5453
269.8019, 190.3500
270.2840, 195.2041
270.7661, 195.2235
271.2482, 191.8453
271.7303, 185.0287
272.2125, 175.2698
272.6946, 164.5685
273.1767, 153.8735
273.6588, 140.7234
274.1409, 142.8743
274.6230, 177.6029
275.1052, 209.5775
275.5873, 217.2635
276.0694, 205.3817
276.5515, 193.4894
277.0336, 196.8427
277.5157, 214.4066
277.9979, 224.0906
278.4800, 217.5065
278.9621, 212.2426
279.4442, 215.2372
279.9263, 221.2727
280.4084, 221.7722
280.8906, 212.2457
281.3727, 196.0544
281.8548, 182.6709
282.3369, 167.7595
282.8190, 162.7345
283.3011, 173.4363
283.7833, 190.7103
284.2654, 208.3076
284.7475, 223.8346
285.2296, 235.9342
285.7117, 241.0704
286.1938, 235.0547
286.6760, 234.0746
287.1581, 245.1464
287.6402, 255.7448
288.1223, 256.6111
288.6044, 248.7327
289.0865, 242.2758
289.5687, 248.5776
290.0508, 267.8694
290.5329, 277.4944
291.0150, 269.4154
291.4971, 259.4594
291.9792, 252.7697
292.4614, 247.0887
292.9435, 241.4998
293.4256, 237.1929
293.9077, 233.9578
294.3898, 228.0159
294.8719, 215.6575
295.3541, 206.4989
295.8362, 206.0198
296.3183, 209.4000
296.8004, 212.6532
297.2825, 215.0565
297.7646, 216.1360
298.2468, 215.1385
298.7289, 211.9463
299.2110, 208.6904
299.6931, 205.1150
300.1752, 203.2008
300.6573, 204.7882
301.1395, 209.4413
301.6216, 213.3367
302.1037, 210.8502
302.5858, 205.4406
303.0679, 209.9337
303.5500, 229.2048
304.0321, 251.3600
304.5143, 267.3640
304.9964, 278.8033
305.4785, 287.4890
305.9606, 288.1121
306.4427, 287.4821
306.9248, 297.7438
307.4070, 319.7947
307.8891, 337.4763
308.3712, 338.8171
308.8533, 328.0104
309.3354, 321.3533
309.8175, 319.9080
310.2997, 322.1125
310.7818, 330.7777
311.2639, 343.5549
311.7460, 350.9054
312.2281, 347.2061
312.7102, 339.5186
313.1924, 345.8134
313.6745, 373.1294
314.1566, 394.0242
314.6387, 398.8253
315.1208, 397.3368
315.6029, 401.3046
316.0851, 412.8102
316.5672, 424.5592
317.0493, 427.3550
317.5314, 417.9053
318.0135, 413.8380
318.4956, 415.4918
318.9778, 422.0377
319.4599, 441.1235
319.9420, 466.2629
320.4241, 477.2181
320.9062, 456.8914
321.3883, 410.1613
321.8705, 387.0093
322.3526, 409.4382
322.8347, 430.5841
323.3168, 447.5162
323.7989, 457.1354
324.2810, 453.7310
324.7632, 435.3666
325.2453, 411.4299
325.7274, 401.3185
326.2095, 413.2623
326.6916, 420.8718
327.1737, 421.6792
327.6559, 419.1213
328.1380, 414.8219
328.6201, 409.1257
329.1022, 401.7579
329.5843, 390.9949
330.0664, 376.7618
330.5486, 368.0063
331.0307, 367.3579
331.5128, 369.4031
331.9949, 377.1548
332.4770, 385.3846
332.9591, 383.4513
333.4413, 362.4535
333.9234, 332.4486
334.4055, 313.6277
334.8876, 308.0989
335.3697, 304.7108
335.8518, 304.8521
336.3340, 301.7303
336.8161, 286.3555
337.2982, 255.5330
337.7803, 223.4873
338.2624, 197.3438
338.7445, 177.9866
339.2267, 171.1721
339.7088, 182.6252
340.1909, 198.2865
340.6730, 203.4620
341.1551, 199.4551
341.6372, 191.5670
342.1194, 178.0541
342.6015, 163.1300
343.0836, 151.4075
343.5657, 143.0940
344.0478, 136.3451
344.5299, 130.0829
345.0121, 124.3967
345.4942, 119.4276
345.9763, 116.1868
346.4584, 112.5061
346.9405, 105.4458
347.4226, 97.74219
347.9048, 96.27344
348.3869, 104.0964
348.8690, 113.5773
349.3511, 110.7194
349.8332, 87.19165
350.3153, 66.01440
350.7975, 39.32263
351.2796, 20.56421
351.7617, 27.67603
352.2438, 56.01172
352.7259, 79.63684
353.2080, 73.40503
353.6902, 37.23157
354.1723, 12.93127
354.6544, 4.564453
355.1365, 5.278931
355.6186, 23.60022
356.1007, 47.39526
356.5829, 58.96094
357.0650, 49.40564
357.5471, 30.40955
358.0292, 27.08948
358.5113, 47.84937
358.9934, 57.48962
359.4756, 38.37952
359.9577, 14.58606
360.4398, 1.702515
360.9219, 0.2158200
361.4040, 1.453125
361.8861, 15.91809
362.3683, 39.31958
362.8504, 51.40527
363.3325, 48.08765
363.8146, 40.18542
364.2967, 33.32617
364.7788, 27.05225
365.2610, 20.65344
365.7431, 14.07788
366.2252, 7.198120
366.7073, 2.239990
367.1894, 13.23206
367.6715, 18.50586
368.1537, 14.75793
368.6358, 4.081299
369.1179, 12.05627
369.6000, 37.18054
370.0821, 53.65967
370.5642, 48.88074
371.0464, 36.51123
371.5285, 33.96655
372.0106, 43.47449
372.4927, 54.63953
372.9748, 58.03638
373.4569, 53.21753
373.9391, 47.49365
374.4212, 39.50818
374.9033, 32.22449
375.3854, 26.62598
375.8675, 22.44263
376.3496, 18.82507
376.8318, 15.33215
377.3139, 12.80139
377.7960, 13.35193
378.2781, 19.50488
378.7602, 24.09473
379.2423, 28.52759
379.7245, 30.33203
380.2066, 26.44946
380.6887, 17.66052
381.1708, 8.530762
381.6529, 3.101440
382.1350, 1.077148
382.6172, 1.469727
383.0993, 5.071777
383.5814, 8.294678
384.0635, 10.24487
384.5456, 11.62158
385.0277, 13.79358
385.5099, 17.84375
385.9920, 20.96155
386.4741, 16.94604
386.9562, 6.481567
387.4383, 4.260864
387.9204, 18.04224
388.4026, 36.56494
388.8847, 45.33093
389.3668, 44.72559
389.8489, 47.79248
390.3310, 61.88867
390.8131, 80.40039
391.2953, 97.22070
391.7774, 111.5770
392.2595, 118.9961
392.7416, 114.2122
393.2237, 100.2144
393.7058, 95.10938
394.1880, 98.25623
394.6701, 109.4351
395.1522, 135.4813
395.6343, 167.0391
396.1164, 190.7694
396.5985, 202.7709
397.0807, 211.0557
397.5628, 227.3511
398.0449, 255.7299
398.5270, 277.6414
399.0091, 291.3269
399.4912, 301.3723
399.9734, 307.6985
400.4555, 311.9688
400.9376, 316.7308
401.4197, 323.1002
401.9018, 331.8658
402.3839, 346.1199
402.8660, 368.4500
403.3481, 389.3783
403.8303, 407.7445
404.3124, 423.0648
404.7945, 432.4563
405.2766, 436.0148
405.7587, 441.5675
406.2408, 458.7982
406.7230, 483.1440
407.2051, 498.0928
407.6872, 500.1980
408.1693, 498.7854
408.6514, 497.2266
409.1335, 496.9384
409.6157, 503.3195
410.0978, 521.8375
410.5799, 542.4171
411.0620, 560.3750
411.5441, 574.5371
412.0262, 582.6646
412.5084, 584.1758
412.9905, 582.4631
413.4726, 582.4062
413.9547, 582.9624
414.4368, 587.6410
414.9189, 594.3778
415.4011, 605.8613
415.8832, 627.2245
416.3653, 656.6062
416.8474, 687.2115
417.3295, 715.3075
417.8116, 738.7600
418.2938, 749.0038
418.7759, 733.3463
419.2580, 726.7466
419.7401, 732.0933
420.2222, 746.2661
420.7043, 773.5892
421.1865, 813.0344
421.6686, 848.8389
422.1507, 863.1599
422.6328, 858.1240
423.1149, 854.8247
423.5970, 851.9651
424.0792, 854.5315
424.5613, 872.5481
425.0434, 896.5159
425.5255, 909.9634
426.0076, 906.8857
426.4897, 894.8384
426.9719, 878.2261
427.4540, 856.8096
427.9361, 830.4941
428.4182, 798.4873
428.9003, 769.4622
429.3824, 756.6545
429.8646, 763.5398
430.3467, 756.3865
430.8288, 726.8142
431.3109, 689.3899
431.7930, 648.1487
432.2751, 606.7803
432.7573, 572.6655
433.2394, 550.0459
433.7215, 536.1523
434.2036, 522.7842
434.6857, 510.7349
435.1678, 497.7251
435.6500, 477.9961
436.1321, 460.9749
436.6142, 456.4207
437.0963, 462.8223
437.5784, 468.6545
438.0605, 463.1343
438.5427, 449.2131
439.0248, 442.7661
439.5069, 445.8623
439.9890, 450.8899
440.4711, 450.4390
440.9532, 452.0354
441.4354, 468.2913
441.9175, 506.0886
442.3996, 537.1550
442.8817, 528.3628
443.3638, 498.2112
443.8459, 498.6997
444.3281, 542.3914
444.8102, 594.8804
445.2923, 624.5066
445.7744, 631.5830
446.2565, 650.6060
446.7386, 689.8125
447.2208, 731.9038
447.7029, 766.4104
448.1850, 799.1758
448.6671, 843.8799
449.1492, 905.2749
449.6313, 970.3911
450.1135, 1015.631
450.5956, 1027.480
451.0777, 1061.643
451.5598, 1139.412
452.0419, 1217.540
452.5240, 1277.849
453.0062, 1324.423
453.4883, 1367.306
453.9704, 1409.590
454.4525, 1456.436
454.9346, 1518.914
455.4167, 1598.531
455.8989, 1683.980
456.3810, 1773.826
456.8631, 1868.070
457.3452, 1968.887
457.8273, 2075.706
458.3094, 2175.204
458.7916, 2257.665
459.2737, 2333.206
459.7558, 2412.979
460.2379, 2497.440
460.7200, 2582.891
461.2021, 2666.022
461.6843, 2750.495
462.1664, 2847.550
462.6485, 2971.588
463.1306, 3082.854
463.6127, 3162.372
464.0948, 3238.394
464.5770, 3338.869
465.0591, 3461.506
465.5412, 3581.157
466.0233, 3677.275
466.5054, 3752.717
466.9875, 3827.344
467.4697, 3900.100
467.9518, 3973.463
468.4339, 4053.084
468.9160, 4130.483
469.3981, 4197.496
469.8802, 4252.887
470.3624, 4303.094
470.8445, 4347.555
471.3266, 4390.735
471.8087, 4446.674
472.2908, 4517.998
472.7729, 4596.694
473.2551, 4684.126
473.7372, 4774.123
474.2193, 4846.614
474.7014, 4889.226
475.1835, 4934.246
475.6656, 4991.250
476.1478, 5059.223
476.6299, 5142.087
477.1120, 5238.519
477.5941, 5332.898
478.0762, 5408.114
478.5583, 5463.539
479.0405, 5524.137
479.5226, 5586.275
480.0047, 5657.893
480.4868, 5753.464
480.9689, 5853.312
481.4510, 5932.887
481.9332, 5986.172
482.4153, 6029.540
482.8974, 6084.946
483.3795, 6150.390
483.8616, 6200.873
484.3438, 6238.662
484.8259, 6253.487
485.3080, 6227.445
485.7901, 6175.271
486.2722, 6120.762
486.7543, 6066.201
487.2365, 6012.433
487.7186, 5969.851
488.2007, 5926.526
488.6828, 5855.076
489.1649, 5748.821
489.6470, 5627.086
490.1292, 5512.681
490.6113, 5408.036
491.0934, 5267.887
491.5755, 5062.896
492.0576, 4860.853
492.5397, 4680.729
493.0219, 4514.956
493.5040, 4357.483
493.9861, 4205.561
494.4682, 4045.757
494.9503, 3856.518
495.4324, 3635.732
495.9146, 3429.135
496.3967, 3243.088
496.8788, 3064.873
497.3609, 2886.648
497.8430, 2712.731
498.3251, 2550.365
498.8073, 2405.435
499.2894, 2263.932
499.7715, 2113.165
500.2536, 1959.332
500.7357, 1814.596
501.2178, 1682.444
501.6999, 1562.490
502.1820, 1455.899
502.6642, 1362.998
503.1463, 1271.993
503.6284, 1184.294
504.1105, 1097.498
504.5926, 1005.907
505.0747, 917.3865
505.5569, 840.7432
506.0390, 779.0918
506.5211, 727.0901
507.0032, 680.8162
507.4853, 640.2463
507.9674, 593.4994
508.4496, 533.9854
508.9317, 479.6841
509.4138, 437.2057
509.8959, 404.8455
510.3780, 383.8252
510.8601, 377.8987
511.3423, 367.6946
511.8244, 333.7202
512.3065, 287.1826
512.7886, 252.0211
513.2708, 232.2806
513.7529, 218.5349
514.2350, 204.4631
514.7171, 189.8518
515.1992, 173.2579
515.6813, 144.7228
516.1635, 126.3988
516.6456, 129.0516
517.1277, 139.1047
517.6098, 147.6213
518.0919, 150.9473
518.5740, 142.9911
519.0562, 113.1870
519.5383, 66.35547
520.0204, 40.57300
520.5025, 42.63367
520.9846, 49.24146
521.4667, 55.59521
521.9489, 61.08948
522.4310, 64.97205
522.9131, 66.93286
523.3952, 64.21045
523.8773, 52.23596
524.3594, 36.57642
524.8416, 24.18579
525.3237, 15.63013
525.8058, 9.619873
526.2879, 5.321655
526.7700, 3.324829
527.2521, 5.405273
527.7343, 15.90479
528.2164, 24.35120
528.6985, 32.04871
529.1806, 36.77551
529.6627, 34.98010
530.1448, 28.90662
530.6270, 24.56946
531.1091, 25.30542
531.5912, 29.98633
532.0733, 38.05615
532.5554, 51.24146
533.0375, 57.17896
533.5197, 48.78638
534.0018, 36.93713
534.4839, 34.09021
534.9660, 38.89551
535.4481, 38.07971
535.9302, 13.63257
536.4124, 4.938965
536.8945, 15.99707
537.3766, 61.10132
537.8587, 87.37598
538.3408, 78.59033
538.8229, 55.45825
539.3051, 49.66016
539.7872, 69.08484
540.2693, 70.64648
540.7514, 29.18677
541.2335, 1.767822
541.7156, 4.538696
542.1978, 28.55823
542.6799, 37.85632
543.1620, 20.49719
543.6441, 1.961548
544.1262, 15.48853
544.6083, 53.02856
545.0905, 72.51404
545.5726, 66.73291
546.0547, 53.80029
546.5368, 45.14819
547.0189, 39.40466
547.5010, 30.69861
547.9832, 13.07947
548.4653, 1.517212
548.9474, 5.728638
549.4295, 14.56970
549.9116, 14.44092
550.3937, 5.589111
550.8758, 0.2250980
551.3579, 7.086670
551.8400, 24.26855
552.3221, 37.86975
552.8043, 51.11780
553.2864, 53.01611
553.7685, 29.46423
554.2506, 1.925171
554.7327, 16.98254
555.2148, 26.47278
555.6970, 29.27795
556.1791, 23.95789
556.6612, 14.48511
557.1433, 2.028564
557.6254, 11.48608
558.1075, 16.31653
558.5897, 7.833374
559.0718, 5.651489
559.5539, 12.11023
560.0360, 10.03564
560.5181, 6.941895
561.0002, 0.3901370
561.4824, 4.388916
561.9645, 5.956421
562.4466, 4.315063
562.9287, 1.532959
563.4108, 11.79822
563.8929, 21.38538
564.3751, 23.09436
564.8572, 18.21094
565.3393, 15.97717
565.8214, 17.26587
566.3035, 20.23364
566.7856, 25.32080
567.2678, 30.80725
567.7499, 32.29150
568.2320, 27.39880
568.7141, 23.66602
569.1962, 23.36963
569.6783, 25.15002
570.1605, 28.36511
570.6426, 32.51611
571.1247, 36.83313
571.6068, 40.94812
572.0889, 44.25745
572.5710, 45.26245
573.0532, 44.69006
573.5353, 39.50232
574.0174, 24.43567
574.4995, 9.291138
574.9816, 1.278198
575.4637, 7.242432
575.9459, 8.911865
576.4280, 2.747192
576.9101, 2.894653
577.3922, 2.338135
577.8743, 13.39478
578.3564, 16.10889
578.8386, 6.992554
579.3207, 4.113403
579.8028, 7.232544
580.2849, 2.513062
580.7670, 0.2067870
581.2491, 4.221069
581.7313, 4.192505
582.2134, 6.804321
582.6955, 19.68201
583.1776, 26.22485
583.6597, 25.61462
584.1418, 22.39160
584.6240, 19.09570
585.1061, 15.78674
585.5882, 13.26196
586.0703, 11.51697
586.5524, 6.829224
587.0345, 3.668701
587.5167, 14.88794
587.9988, 20.12048
588.4809, 18.98401
588.9630, 12.48328
589.4451, 5.149780
589.9272, 22.03162
590.4094, 32.53125
590.8915, 38.73071
591.3736, 44.82251
591.8557, 51.98877
592.3378, 57.07190
592.8199, 52.97766
593.3021, 41.06396
593.7842, 43.52283
594.2663, 67.83411
594.7484, 84.19153
595.2305, 72.28589
595.7126, 47.40918
596.1948, 34.52747
596.6769, 35.21277
597.1590, 42.18994
597.6411, 62.73071
598.1232, 81.31580
598.6053, 79.71912
599.0875, 64.19263
599.5696, 54.88025
600.0517, 61.55273
600.5338, 77.20264
601.0159, 89.86035
601.4980, 99.18860
601.9802, 103.5147
602.4623, 97.99597
602.9444, 94.20129
603.4265, 98.44336
603.9086, 107.5745
604.3907, 117.6384
604.8729, 129.4653
605.3550, 136.6675
605.8371, 129.8313
606.3192, 119.0312
606.8013, 119.3627
607.2834, 130.9770
607.7656, 145.8700
608.2477, 160.0178
608.7298, 170.7386
609.2119, 169.3487
609.6940, 146.9692
610.1761, 133.0335
610.6583, 135.5549
611.1404, 140.0859
611.6225, 141.1376
612.1046, 139.2875
612.5867, 135.7186
613.0688, 130.0516
613.5510, 125.6531
614.0331, 124.9219
614.5152, 127.9104
614.9973, 136.7169
615.4794, 151.0363
615.9615, 161.5369
616.4437, 160.3681
616.9258, 151.0549
617.4079, 148.9261
617.8900, 163.6239
618.3721, 170.5229
618.8542, 157.1483
619.3364, 146.9720
619.8185, 162.5281
620.3006, 192.6109
620.7827, 206.4553
621.2648, 185.4200
621.7469, 154.9191
622.2291, 143.7395
622.7112, 147.5940
623.1933, 150.8174
623.6754, 150.6064
624.1575, 149.3109
624.6396, 148.6160
625.1218, 148.2740
625.6039, 147.2552
626.0860, 141.0201
626.5681, 141.2876
627.0502, 156.6553
627.5323, 171.4430
628.0145, 172.2133
628.4966, 162.4100
628.9787, 155.4554
629.4608, 159.8351
629.9429, 166.2025
630.4250, 159.3594
630.9072, 142.6741
631.3893, 134.1274
631.8714, 138.9359
632.3535, 145.3630
632.8356, 143.5049
633.3177, 134.6053
633.7999, 128.4926
634.2820, 124.8273
634.7641, 123.2830
635.2462, 126.0853
635.7283, 130.6185
636.2104, 134.1512
636.6926, 136.4628
637.1747, 140.0657
637.6568, 148.6545
638.1389, 155.3131
638.6210, 144.3867
639.1031, 118.9530
639.5853, 105.9941
640.0674, 112.7487
640.5495, 122.4400
641.0316, 120.6094
641.5137, 110.1168
641.9958, 108.8179
642.4780, 130.3728
642.9601, 141.2043
643.4422, 129.5486
643.9243, 113.6909
644.4064, 104.9821
644.8885, 103.5504
645.3707, 107.5795
645.8528, 118.7558
646.3349, 128.0343
646.8170, 118.2710
647.2991, 94.11371
647.7813, 80.64160
648.2634, 82.50598
648.7455, 86.44073
649.2276, 82.90149
649.7097, 73.87360
650.1918, 67.74506
650.6740, 67.16736
651.1561, 64.71399
651.6382, 55.91589
652.1203, 50.11432
652.6024, 55.78973
653.0845, 68.31177
653.5667, 76.72974
654.0488, 76.22113
654.5309, 71.26556
655.0130, 65.35962
655.4951, 59.53351
655.9772, 58.18982
656.4594, 62.23761
656.9415, 60.21661
657.4236, 41.26764
657.9057, 14.99188
658.3878, 9.625183
658.8699, 43.66724
659.3521, 66.36792
659.8342, 70.59296
660.3163, 70.60095
660.7984, 76.14264
661.2805, 82.72681
661.7626, 78.35785
662.2448, 57.48706
662.7269, 37.95172
663.2090, 43.02856
663.6911, 61.69995
664.1732, 63.62988
664.6553, 46.84210
665.1375, 31.68469
665.6196, 29.01038
666.1017, 33.83990
666.5838, 36.06598
667.0659, 34.85187
667.5480, 33.27039
668.0302, 29.15198
668.5123, 27.06439
668.9944, 31.44604
669.4765, 37.64996
669.9586, 38.44110
670.4407, 32.04388
670.9229, 25.93103
671.4050, 27.94812
671.8871, 32.27655
672.3692, 28.22327
672.8513, 17.00610
673.3334, 6.942810
673.8156, 1.085327
674.2977, 0.3016360
674.7798, 7.089050
675.2619, 23.16156
675.7440, 32.65326
676.2261, 31.32581
676.7083, 29.09186
677.1904, 30.72919
677.6725, 31.29907
678.1546, 23.43030
678.6367, 7.393433
679.1188, 4.315186
679.6010, 3.863342
680.0831, 1.869385
680.5652, 8.508789
681.0473, 15.06866
681.5294, 19.11578
682.0115, 20.11591
682.4937, 20.56610
682.9758, 23.50360
683.4579, 28.11823
683.9400, 26.87946
684.4221, 16.79407
684.9042, 8.572266
685.3864, 4.112793
685.8685, 2.743713
686.3506, 6.249756
686.8327, 12.92206
687.3148, 14.41321
687.7969, 1.302002
688.2791, 8.098999
688.7612, 0.5606690
689.2433, 13.27368
689.7254, 20.00714
690.2075, 18.69781
690.6896, 15.99121
691.1718, 16.24969
691.6539, 18.23218
692.1360, 18.78821
692.6181, 17.73596
693.1002, 19.36786
693.5823, 26.54944
694.0645, 30.71381
694.5466, 23.80194
695.0287, 9.728577
695.5108, 1.537842
695.9929, 3.142212
696.4750, 2.306335
696.9572, 7.749390
697.4393, 16.37628
697.9214, 15.70605
698.4035, 8.063232
698.8856, 1.146912
699.3677, 9.824951
699.8499, 18.53186
700.3320, 31.06171
700.8141, 43.98590
701.2962, 42.31146
701.7783, 25.25195
702.2604, 14.34467
702.7426, 20.18921
703.2247, 34.91785
703.7068, 47.09882
704.1889, 58.01447
704.6710, 59.98096
705.1531, 40.64941
705.6353, 27.52118
706.1174, 34.13745
706.5995, 46.22937
707.0816, 46.41998
707.5637, 34.11224
708.0458, 27.02130
708.5280, 40.50562
709.0101, 59.21625
709.4922, 66.85400
709.9743, 66.70020
710.4564, 67.40228
710.9385, 70.90302
711.4207, 72.69702
711.9028, 67.88672
712.3849, 58.76837
712.8670, 57.36493
713.3491, 65.00220
713.8312, 76.53668
714.3134, 95.53485
714.7955, 113.1799
715.2776, 122.7014
715.7597, 125.8080
716.2418, 127.5376
716.7239, 129.3786
717.2061, 129.4830
717.6882, 121.2096
718.1703, 115.6368
718.6524, 126.8275
719.1345, 149.8621
719.6166, 169.1936
720.0988, 177.5072
720.5809, 180.6143
721.0630, 188.5196
721.5451, 199.0414
722.0272, 194.6641
722.5093, 172.0376
722.9915, 158.3679
723.4736, 168.6176
723.9557, 190.2881
724.4378, 202.7598
724.9199, 203.7090
725.4020, 205.5917
725.8842, 212.0901
726.3663, 214.9285
726.8484, 204.5513
727.3305, 193.9382
727.8126, 200.2100
728.2947, 222.6283
728.7769, 240.4963
729.2590, 237.3234
729.7411, 229.4000
730.2232, 240.9433
730.7053, 259.7521
731.1874, 251.6303
731.6696, 212.3462
732.1517, 174.4273
732.6338, 163.9574
733.1159, 174.5008
733.5980, 185.6278
734.0801, 199.1842
734.5623, 204.7368
735.0444, 194.7316
735.5265, 186.3259
736.0086, 195.1946
736.4907, 212.3716
736.9728, 217.9270
737.4550, 207.1519
737.9371, 195.9468
738.4192, 188.6982
738.9013, 181.2761
739.3834, 167.9568
739.8655, 153.2064
740.3477, 145.5988
740.8298, 147.6785
741.3119, 153.9788
741.7940, 161.8065
742.2761, 169.2098
742.7582, 171.8071
743.2404, 169.5445
743.7225, 160.7311
744.2046, 143.6049
744.6867, 127.4804
745.1688, 123.4911
745.6509, 130.8182
746.1331, 131.2098
746.6152, 117.8442
747.0973, 110.3652
747.5793, 115.4034
748.0615, 123.7552
748.5436, 131.1162
749.0257, 137.0453
749.5078, 141.0905
749.9899, 143.1587
750.4720, 143.2458
750.9542, 139.1008
751.4363, 134.5828
751.9184, 132.2086
752.4005, 133.6095
752.8826, 141.9375
753.3647, 158.6117
753.8469, 177.2337
754.3290, 187.9554
754.8111, 192.2018
755.2932, 201.9235
755.7753, 218.4618
756.2574, 231.2477
756.7396, 235.1460
757.2217, 234.9579
757.7038, 236.3525
758.1859, 239.1126
758.6680, 246.2410
759.1501, 266.8009
759.6323, 279.8131
760.1144, 276.5497
760.5965, 269.1333
761.0786, 264.1260
761.5607, 263.2621
762.0428, 272.3054
762.5250, 301.2189
763.0071, 328.5476
763.4892, 344.2294
763.9713, 347.2927
764.4534, 328.2206
764.9355, 295.1534
765.4177, 279.3810
765.8998, 297.1306
766.3819, 328.4816
766.8640, 342.7053
767.3461, 341.2256
767.8282, 344.7101
768.3104, 355.6913
768.7925, 355.8807
769.2746, 331.9125
769.7567, 304.5704
770.2388, 308.5983
770.7209, 348.4712
771.2031, 371.1196
771.6852, 366.1877
772.1673, 357.1537
772.6494, 343.9641
773.1315, 332.1089
773.6136, 329.0951
774.0958, 331.4927
774.5779, 325.3033
775.0600, 299.7707
775.5421, 276.1681
776.0242, 273.0452
776.5063, 278.2225
776.9885, 272.8256
777.4706, 258.5649
777.9527, 249.9878
778.4348, 254.0106
778.9169, 260.6870
779.3990, 255.3591
779.8812, 239.7716
780.3633, 227.2132
780.8454, 217.6275
781.3275, 214.0011
781.8096, 219.4694
782.2917, 226.4973
782.7739, 226.0592
783.2560, 218.1971
783.7381, 209.3321
784.2202, 199.7193
784.7023, 188.6521
785.1844, 171.8300
785.6666, 157.3461
786.1487, 152.8779
786.6308, 155.2812
787.1129, 155.5209
787.5950, 151.9627
788.0771, 143.8898
788.5593, 125.2856
789.0414, 106.2697
789.5235, 97.78619
790.0056, 97.84753
790.4877, 100.3119
790.9698, 102.3863
791.4520, 103.8005
791.9341, 104.7761
792.4162, 104.7502
792.8983, 101.7340
793.3804, 95.79327
793.8625, 86.08997
794.3447, 70.96899
794.8268, 61.77081
795.3089, 71.75488
795.7910, 96.44769
796.2731, 104.9302
796.7552, 86.71320
797.2374, 76.09106
797.7195, 86.24579
798.2016, 92.61566
798.6837, 74.89380
799.1658, 46.72400
799.6479, 34.52716
800.1301, 45.42151
800.6122, 53.44043
801.0943, 47.30487
801.5764, 40.04761
802.0585, 40.03503
802.5406, 44.02277
803.0228, 47.22308
803.5049, 48.44049
803.9870, 48.27814
804.4691, 46.39020
804.9512, 44.27057
805.4333, 45.30859
805.9155, 47.69055
806.3976, 45.03577
806.8797, 37.52850
807.3618, 32.38232
807.8439, 33.45966
808.3260, 36.41351
808.8082, 27.26300
809.2903, 3.928162
809.7724, 9.727600
810.2545, 11.13745
810.7366, 9.414795
811.2188, 9.848511
811.7009, 7.185791
812.1830, 9.793091
812.6651, 44.33099
813.1472, 58.87738
813.6293, 31.18280
814.1115, 14.07727
814.5936, 28.88251
815.0757, 48.99475
815.5578, 53.14911
816.0399, 44.22107
816.5220, 36.88586
817.0042, 38.07404
817.4863, 34.78815
817.9684, 9.887451
818.4505, 16.03558
818.9326, 16.56409
819.4147, 3.4180000E-02
819.8969, 8.199768
820.3790, 2.2217000E-02
820.8611, 8.692566
821.3432, 1.547852
821.8253, 21.36163
822.3074, 24.88934
822.7896, 14.40369
823.2717, 5.115417
823.7538, 0.3767090
824.2359, 1.974792
824.7180, 13.33594
825.2001, 28.74628
825.6823, 26.50281
826.1644, 2.166199
826.6465, 14.15991
827.1286, 3.087463
827.6107, 17.47937
828.0928, 10.53552
828.5750, 5.172241
829.0571, 10.93994
829.5392, 4.590515
830.0213, 1.880920
830.5034, 5.720825
830.9855, 12.10748
831.4677, 30.73785
831.9498, 46.17670
832.4319, 40.95221
832.9140, 19.37024
833.3961, 0.4144900
833.8782, 9.154236
834.3604, 13.57812
834.8425, 14.77924
835.3246, 13.11407
835.8067, 7.355957
836.2888, 0.6968990
836.7709, 6.934448
837.2531, 9.899597
837.7352, 10.46863
838.2173, 8.569031
838.6994, 5.486572
839.1815, 5.137817
839.6636, 7.044861
840.1458, 5.924255
840.6279, 0.3103030
841.1100, 1.759888
841.5921, 21.19696
842.0742, 48.99799
842.5563, 56.56915
843.0385, 38.30261
843.5206, 26.21613
844.0027, 22.44061
844.4848, 22.29932
844.9669, 24.73926
845.4490, 29.03131
845.9312, 36.37891
846.4133, 47.82574
846.8954, 47.78278
847.3775, 20.65192
847.8596, 3.407166
848.3417, 10.37622
848.8239, 23.25598
849.3060, 30.66168
849.7881, 32.36621
850.2702, 29.71063
850.7523, 21.13495
851.2344, 15.88507
851.7166, 21.31519
852.1987, 29.09656
852.6808, 33.90955
853.1629, 35.22583
853.6450, 30.91003
854.1271, 21.90027
854.6093, 16.02863
855.0914, 20.35541
855.5735, 29.36444
856.0556, 38.64911
856.5377, 45.30499
857.0198, 37.53198
857.5020, 16.94415
857.9841, 6.180115
858.4662, 18.19855
858.9483, 38.71735
859.4304, 42.41974
859.9125, 30.86377
860.3947, 36.09180
860.8768, 61.14117
861.3589, 74.55365
861.8410, 64.51910
862.3231, 47.50525
862.8052, 39.59656
863.2874, 38.56671
863.7695, 29.32098
864.2516, 1.579712
864.7337, 8.680908
865.2158, 33.35608
865.6979, 68.92041
866.1801, 64.24561
866.6622, 40.53741
867.1443, 26.83838
867.6264, 24.49115
868.1085, 23.38647
868.5906, 19.32068
869.0728, 19.01428
869.5549, 29.96729
870.0370, 41.90973
870.5191, 44.54248
871.0012, 39.71271
871.4833, 34.65094
871.9655, 30.21161
872.4476, 31.32782
872.9297, 48.60425
873.4118, 66.11163
873.8939, 63.45099
874.3760, 50.88763
874.8582, 53.85034
875.3403, 75.25037
875.8224, 87.79095
876.3045, 64.55652
876.7866, 30.32648
877.2687, 23.26276
877.7509, 33.02283
878.2330, 31.53210
878.7151, 17.96582
879.1972, 17.02014
879.6793, 40.96271
880.1614, 71.10016
880.6436, 79.60449
881.1257, 69.53424
881.6078, 61.75421
882.0899, 56.40302
882.5720, 50.63312
883.0541, 43.14764
883.5363, 38.58221
884.0184, 42.50006
884.5005, 49.32135
884.9826, 39.45148
885.4647, 1.099121
885.9468, 7.597229
886.4290, 43.18060
886.9111, 82.60590
887.3932, 76.29297
887.8753, 51.69983
888.3574, 40.65485
888.8395, 42.88062
889.3217, 51.28491
889.8038, 79.05481
890.2859, 94.23029
890.7680, 82.78235
891.2501, 68.20105
891.7322, 64.57629
892.2144, 67.24481
892.6965, 66.06580
893.1786, 59.26556
893.6607, 52.90552
894.1428, 47.70953
894.6249, 44.36218
895.1071, 42.51105
895.5892, 43.37280
896.0713, 49.74146
896.5534, 59.82257
897.0355, 68.48822
897.5176, 73.40033
897.9998, 78.34448
898.4819, 87.34814
898.9640, 95.67297
899.4461, 99.13971
899.9282, 97.29791
900.4103, 87.79034
900.8925, 71.57880
901.3746, 58.61310
901.8567, 57.85559
902.3388, 62.17432
902.8209, 60.54431
903.3030, 55.96161
903.7852, 58.21222
904.2673, 66.65472
904.7494, 67.40314
905.2315, 53.11786
905.7136, 35.51746
906.1957, 29.98889
906.6779, 35.09650
907.1600, 43.64990
907.6421, 55.08624
908.1242, 57.28516
908.6063, 47.20477
909.0884, 37.53644
909.5706, 37.05438
910.0527, 43.20557
910.5348, 51.89709
911.0169, 64.24878
911.4990, 68.29913
911.9811, 62.34344
912.4633, 52.42932
912.9454, 36.69263
913.4275, 26.33386
913.9096, 35.11340
914.3917, 58.81427
914.8738, 72.64099
915.3560, 74.48462
915.8381, 70.68115
916.3202, 55.47021
916.8023, 44.81952
917.2844, 50.42676
917.7665, 60.87311
918.2487, 58.45557
918.7308, 42.43622
919.2129, 36.42126
919.6950, 50.33466
920.1771, 60.38202
920.6592, 64.08679
921.1414, 62.19550
921.6235, 47.95312
922.1056, 30.36163
922.5877, 29.33185
923.0698, 51.70264
923.5519, 66.88885
924.0341, 66.52863
924.5162, 59.44415
924.9983, 34.91193
925.4804, 15.40186
925.9625, 31.29303
926.4446, 70.63275
926.9268, 93.86420
927.4089, 87.17676
927.8910, 74.02954
928.3731, 62.34967
928.8552, 53.19403
929.3373, 49.84552
929.8195, 48.24286
930.3016, 40.91937
930.7837, 28.71667
931.2658, 20.15277
931.7479, 18.93250
932.2300, 24.74097
932.7122, 46.18280
933.1943, 68.19385
933.6764, 68.24072
934.1585, 52.83740
934.6406, 37.61304
935.1227, 28.02130
935.6049, 27.15045
936.0870, 41.19373
936.5691, 57.44910
937.0512, 55.34418
937.5333, 43.20532
938.0154, 37.01086
938.4976, 38.39807
938.9797, 48.33893
939.4618, 66.57611
939.9439, 79.93164
940.4260, 71.76410
940.9081, 51.24323
941.3903, 40.35144
941.8724, 37.26434
942.3545, 34.18433
942.8366, 29.74176
943.3187, 22.19189
943.8008, 11.22156
944.2830, 0.9090580
944.7651, 7.896729
945.2471, 13.88361
945.7292, 6.050476
946.2114, 14.99554
946.6935, 29.17749
947.1756, 32.19690
947.6577, 29.31152
948.1398, 23.13080
948.6219, 16.52997
949.1041, 15.77789
949.5862, 21.02924
950.0683, 24.78271
950.5504, 26.59070
951.0325, 31.44531
951.5146, 42.68134
951.9968, 48.67188
952.4789, 38.06506
952.9610, 17.56860
953.4431, 8.062988
953.9252, 12.79138
954.4073, 11.72125
954.8895, 2.059753
955.3716, 4.830261
955.8537, 4.904663
956.3358, 1.432129
956.8179, 3.102600
957.3000, 8.270569
957.7822, 11.85504
958.2643, 12.97803
958.7464, 15.23737
959.2285, 21.40594
959.7106, 23.52509
960.1927, 18.15417
960.6749, 7.587524
961.1570, 8.819519
961.6391, 29.61078
962.1212, 37.18341
962.6033, 25.40643
963.0854, 11.79767
963.5676, 8.793518
964.0497, 23.15405
964.5318, 19.73682
965.0139, 11.16357
965.4960, 15.43793
965.9781, 32.67261
966.4603, 43.11865
966.9424, 46.84338
967.4245, 43.59424
967.9066, 25.76068
968.3887, 9.382629
968.8708, 2.427185
969.3530, 1.770996
969.8351, 2.621826
970.3172, 4.658325
970.7993, 10.94922
971.2814, 28.44128
971.7635, 40.82483
972.2457, 44.03406
972.7278, 42.25500
973.2099, 33.20319
973.6920, 22.97290
974.1741, 24.17865
974.6563, 39.13336
975.1384, 46.70374
975.6205, 37.78143
976.1026, 28.49084
976.5847, 22.08618
977.0668, 17.94678
977.5490, 17.11853
978.0311, 17.72321
978.5132, 14.64441
978.9953, 6.056519
979.4774, 6.143494
979.9595, 33.49072
980.4417, 50.35901
980.9238, 32.23572
981.4059, 7.538757
981.8880, 3.478088
982.3701, 1.426086
982.8522, 11.04492
983.3344, 35.33441
983.8165, 50.53339
984.2986, 40.19153
984.7807, 30.69183
985.2628, 35.75708
985.7449, 45.65497
986.2271, 53.98651
986.7092, 58.26849
987.1913, 51.82526
987.6734, 30.34839
988.1555, 19.41595
988.6376, 38.06970
989.1198, 57.80621
989.6019, 66.25189
990.0840, 67.47528
990.5661, 63.02954
991.0482, 55.53827
991.5303, 49.87927
992.0125, 46.78534
992.4946, 48.94623
992.9767, 66.03748
993.4588, 78.58008
993.9409, 71.60315
994.4230, 57.85229
994.9052, 48.85132
995.3873, 44.96313
995.8694, 43.60864
996.3515, 44.70398
996.8336, 45.36676
997.3157, 44.06543
997.7979, 42.52075
998.2800, 38.99536
998.7621, 37.95123
999.2442, 45.87451
999.7263, 59.55804
1000.208, 70.12708
1000.691, 75.55786
1001.173, 76.07349
1001.655, 63.06421
1002.137, 54.04590
1002.619, 69.51520
1003.101, 87.49457
1003.583, 80.43347
1004.065, 55.79742
1004.547, 41.34943
1005.030, 46.78259
1005.512, 49.27264
1005.994, 26.56158
1006.476, 11.68695
1006.958, 33.35944
1007.440, 66.60779
1007.922, 87.12445
1008.404, 94.37518
1008.887, 94.86804
1009.369, 89.46991
1009.851, 84.22809
1010.333, 79.97302
1010.815, 78.57532
1011.297, 85.85956
1011.779, 92.97510
1012.261, 88.77228
1012.743, 75.96790
1013.226, 63.35132
1013.708, 52.93634
1014.190, 49.36987
1014.672, 60.66486
1015.154, 71.69226
1015.636, 73.10455
1016.118, 71.69141
1016.600, 76.74561
1017.083, 84.20825
1017.565, 79.60571
1018.047, 57.27551
1018.529, 47.35846
1019.011, 77.23346
1019.493, 98.81940
1019.975, 82.15076
1020.457, 58.35687
1020.939, 55.12726
1021.422, 66.06372
1021.904, 70.73987
1022.386, 64.82739
1022.868, 59.64972
1023.350, 59.84454
1023.832, 59.95459
1024.314, 56.50665
1024.796, 53.59473
1025.279, 58.84845
1025.761, 65.40790
1026.243, 55.87341
1026.725, 25.98663
1027.207, 11.04199
1027.689, 29.94617
1028.171, 49.23584
1028.653, 69.15900
1029.135, 76.40613
1029.618, 47.98175
1030.100, 7.335876
1030.582, 3.372925
1031.064, 20.58435
1031.546, 38.93707
1032.028, 39.88574
1032.510, 43.72144
1032.992, 65.60663
1033.474, 78.98016
1033.957, 53.36542
1034.439, 18.47412
1034.921, 24.55060
1035.403, 73.34467
1035.885, 98.86481
1036.367, 79.92438
1036.849, 64.10046
1037.331, 53.11182
1037.814, 48.56909
1038.296, 57.19672
1038.778, 68.44208
1039.260, 68.97858
1039.742, 59.27692
1040.224, 51.90265
1040.706, 48.52277
1041.188, 44.74207
1041.671, 43.47571
1042.153, 36.42126
1042.635, 11.63831
1043.117, 9.859131
1043.599, 1.175659
1044.081, 30.19580
1044.563, 41.55798
1045.045, 20.87775
1045.527, 13.39270
1046.010, 27.77362
1046.492, 35.01678
1046.974, 21.31403
1047.456, 6.002625
1047.938, 6.372559
1048.420, 18.36389
1048.902, 30.55884
1049.384, 45.36530
1049.866, 45.99976
1050.349, 28.76886
1050.831, 11.38800
1051.313, 3.070313
1051.795, 11.32202
1052.277, 9.512451
1052.759, 2.947327
1053.241, 4.578369
1053.723, 14.54761
1054.205, 9.995239
1054.688, 11.15155
1055.170, 17.78125
1055.652, 2.278442
1056.134, 11.82709
1056.616, 9.688049
1057.098, 2.382202
1057.580, 8.464722
1058.062, 24.23834
1058.545, 28.83673
1059.027, 22.94556
1059.509, 13.79938
1059.991, 2.764893
1060.473, 4.618530
1060.955, 5.675171
1061.437, 7.278015
1061.919, 18.88312
1062.401, 34.79852
1062.884, 40.60614
1063.366, 38.54645
1063.848, 34.24609
1064.330, 29.77277
1064.812, 33.47589
1065.294, 47.22382
1065.776, 57.68188
1066.258, 51.46997
1066.740, 41.39868
1067.223, 47.01062
1067.705, 61.94922
1068.187, 79.16064
1068.669, 94.06775
1069.151, 92.53149
1069.633, 75.60681
1070.115, 67.90363
1070.597, 85.96149
1071.080, 109.7972
1071.562, 119.5989
1072.044, 126.2092
1072.526, 149.2847
1073.008, 173.8730
1073.490, 167.7168
1073.972, 137.5448
1074.454, 123.6849
1074.937, 143.5394
1075.419, 165.8847
1075.901, 168.9587
1076.383, 172.1797
1076.865, 195.7803
1077.347, 220.3477
1077.829, 221.2832
1078.311, 206.9779
1078.793, 200.4003
1079.276, 206.4803
1079.758, 215.6384
1080.240, 230.5730
1080.722, 240.1432
1081.204, 231.6863
1081.686, 225.9587
1082.168, 243.2511
1082.650, 268.7708
1083.132, 278.5997
1083.615, 271.7897
1084.097, 266.2864
1084.579, 261.1453
1085.061, 261.2049
1085.543, 269.6399
1086.025, 279.4330
1086.507, 288.9740
1086.989, 297.9603
1087.472, 306.3417
1087.954, 313.8431
1088.436, 318.7611
1088.918, 319.1903
1089.400, 325.4307
1089.882, 341.9362
1090.364, 350.8959
1090.846, 346.8527
1091.328, 336.0024
1091.811, 320.7152
1092.293, 306.0603
1092.775, 303.4335
1093.257, 312.2390
1093.739, 314.7993
1094.221, 310.5621
1094.703, 317.0902
1095.185, 337.4766
1095.667, 357.8643
1096.150, 371.6504
1096.632, 379.0258
1097.114, 378.4855
1097.596, 374.2057
1098.078, 381.2560
1098.560, 394.2896
1099.042, 387.2186
1099.524, 363.7306
1100.007, 355.2640
1100.489, 369.4532
1100.971, 382.1890
1101.453, 375.9111
1101.935, 361.9204
1102.417, 350.9027
1102.899, 343.8821
1103.381, 342.6085
1103.864, 346.4859
1104.346, 354.7196
1104.828, 366.8151
1105.310, 383.5797
1105.792, 406.6633
1106.274, 422.5168
1106.756, 421.5944
1107.238, 411.2559
1107.720, 386.0604
1108.203, 363.0335
1108.685, 365.3528
1109.167, 381.2930
1109.649, 381.7184
1110.131, 362.0229
1110.613, 352.1711
1111.095, 371.3875
1111.577, 383.8027
1112.059, 375.9752
1112.542, 366.4882
1113.024, 367.6759
1113.506, 370.3391
1113.988, 354.0709
1114.470, 326.9209
1114.952, 337.4916
1115.434, 416.9647
1115.916, 446.2609
1116.399, 397.0487
1116.881, 365.1011
1117.363, 381.0142
1117.845, 406.8168
1118.327, 415.8358
1118.809, 416.0005
1119.291, 424.4694
1119.773, 440.1790
1120.255, 438.0905
1120.738, 417.6838
1121.220, 393.5296
1121.702, 367.3943
1122.184, 354.9083
1122.666, 363.4171
1123.148, 374.0828
1123.630, 366.8636
1124.112, 349.6860
1124.594, 337.0518
1125.077, 328.9168
1125.559, 325.6816
1126.041, 327.9465
1126.523, 339.8632
1127.005, 358.0038
1127.487, 365.1369
1127.969, 351.7715
1128.451, 336.1390
1128.934, 337.9578
1129.416, 342.1102
1129.898, 326.4163
1130.380, 309.1329
1130.862, 322.0218
1131.344, 352.3334
1131.826, 360.7288
1132.308, 338.2368
1132.791, 319.5135
1133.273, 324.4990
1133.755, 324.7583
1134.237, 304.9073
1134.719, 284.0793
1135.201, 272.0165
1135.683, 266.9131
1136.165, 268.5542
1136.647, 275.1595
1137.130, 276.2946
1137.612, 267.4417
1138.094, 266.8361
1138.576, 282.8998
1139.058, 286.3313
1139.540, 265.4091
1140.022, 245.5045
1140.504, 244.0944
1140.986, 248.9800
1141.469, 240.1875
1141.951, 220.2462
1142.433, 207.5577
1142.915, 202.1281
1143.397, 206.5294
1143.879, 220.2533
1144.361, 233.0121
1144.843, 240.8696
1145.326, 238.0559
1145.808, 217.5433
1146.290, 193.1115
1146.772, 184.0327
1147.254, 185.7808
1147.736, 197.7764
1148.218, 211.8017
1148.700, 207.0278
1149.182, 186.5787
1149.665, 173.0410
1150.147, 174.9298
1150.629, 177.6849
1151.111, 171.5599
1151.593, 165.7184
1152.075, 163.9009
1152.557, 164.5672
1153.039, 170.2438
1153.521, 175.2700
1154.004, 169.0104
1154.486, 151.9052
1154.968, 139.4114
1155.450, 134.3693
1155.932, 132.0886
1156.414, 134.9672
1156.896, 136.8798
1157.378, 136.7247
1157.861, 134.1462
1158.343, 127.4143
1158.825, 120.3544
1159.307, 120.6209
1159.789, 127.5762
1160.271, 135.3036
1160.753, 144.3362
1161.235, 137.0864
1161.718, 111.9940
1162.200, 84.45612
1162.682, 60.31860
1163.164, 46.45251
1163.646, 49.50189
1164.128, 62.21967
1164.610, 76.29504
1165.092, 89.34790
1165.574, 100.2544
1166.057, 104.9837
1166.539, 89.14209
1167.021, 59.20941
1167.503, 40.41974
1167.985, 41.15045
1168.467, 46.91876
1168.949, 50.82440
1169.431, 55.61523
1169.913, 70.12299
1170.396, 78.04242
1170.878, 58.26086
1171.360, 31.36505
1171.842, 28.00757
1172.324, 43.76257
1172.806, 44.61053
1173.288, 21.31525
1173.770, 7.716064
1174.253, 7.249023
1174.735, 8.480774
1175.217, 8.314514
1175.699, 12.87189
1176.181, 27.66351
1176.663, 42.62354
1177.145, 43.35199
1177.627, 34.16730
1178.109, 34.29321
1178.592, 41.66644
1179.074, 34.42969
1179.556, 15.19916
1180.038, 11.02862
1180.520, 26.20483
1181.002, 39.67560
1181.484, 39.94214
1181.966, 30.62549
1182.448, 9.219543
1182.931, 13.53210
1183.413, 31.32642
1183.895, 39.35205
1184.377, 24.43939
1184.859, 1.743286
1185.341, 16.39691
1185.823, 16.66595
1186.305, 15.22308
1186.788, 12.46405
1187.270, 14.85828
1187.752, 32.19336
1188.234, 42.78357
1188.716, 35.78461
1189.198, 25.03387
1189.680, 18.29419
1190.162, 13.41211
1190.645, 5.748779
1191.127, 4.077881
1191.609, 6.277832
1192.091, 0.4240720
1192.573, 8.559387
1193.055, 20.26996
1193.537, 22.09045
1194.019, 10.49237
1194.501, 3.290100
1194.984, 14.31506
1195.466, 27.57336
1195.948, 19.06085
1196.430, 0.8193970
1196.912, 12.69592
1197.394, 19.06506
1197.876, 10.51825
1198.358, 7.006287
1198.840, 19.37891
1199.323, 23.43030
1199.805, 24.48816
1200.287, 23.12354
1200.769, 22.09888
1201.251, 25.44519
1201.733, 25.33923
1202.215, 14.65082
1202.697, 2.664795
1203.180, 5.098694
1203.662, 7.647644
1204.144, 1.290649
1204.626, 13.55426
1205.108, 16.40143
1205.590, 4.000732
1206.072, 8.285400
1206.554, 33.18359
1207.036, 45.78772
1207.519, 35.67267
1208.001, 18.42120
1208.483, 3.962952
1208.965, 2.942200
1209.447, 12.51587
1209.929, 33.42542
1210.411, 26.79254
1210.893, 7.469910
1211.375, 1.556946
1211.858, 0.1940920
1212.340, 4.538330
1212.822, 11.15362
1213.304, 22.91980
1213.786, 46.99036
1214.268, 61.47552
1214.750, 52.10382
1215.232, 34.73431
1215.715, 25.32220
1216.197, 20.39386
1216.679, 13.93140
1217.161, 12.01086
1217.643, 27.47260
1218.125, 56.62213
1218.607, 63.11774
1219.089, 43.26233
1219.572, 41.20355
1220.054, 57.93152
1220.536, 57.61298
1221.018, 32.76385
1221.500, 16.26990
1221.982, 23.28381
1222.464, 38.75769
1222.946, 31.11987
1223.428, 19.95020
1223.911, 38.42340
1224.393, 65.75372
1224.875, 74.88263
1225.357, 70.18903
1225.839, 64.77307
1226.321, 56.11652
1226.803, 46.09485
1227.285, 31.04285
1227.767, 20.34772
1228.250, 30.34229
1228.732, 35.76935
1229.214, 21.51465
1229.696, 20.09381
1230.178, 49.50964
1230.660, 84.88934
1231.142, 104.1090
1231.624, 106.0405
1232.107, 82.59192
1232.589, 39.99036
1233.071, 20.92572
1233.553, 23.75671
1234.035, 45.27783
1234.517, 78.49561
1234.999, 79.71667
1235.481, 36.78241
1235.964, 8.2457997E-02
1236.446, 8.913391
1236.928, 24.22083
1237.410, 14.65656
1237.892, 4.113770
1238.374, 13.80658
1238.856, 27.94470
1239.338, 25.88220
1239.820, 15.40118
1240.302, 22.45038
1240.785, 48.16876
1241.267, 50.61584
1241.749, 22.21722
1242.231, 11.90906
1242.713, 28.52972
1243.195, 35.70581
1243.677, 22.39014
1244.159, 6.675537
1244.641, 0.3930050
1245.124, 1.140808
1245.606, 3.563354
1246.088, 0.0000000E+00
##END=



