##NAMES=Hausmannite
##RRUFFID=R040091
##IDEAL CHEMISTRY=Mn^2+^Mn^3+^_2_O_4_
##LOCALITY=Germany
##OWNER=RRUFF
##SOURCE=University of Arizona Mineral Museum
##DESCRIPTION=Mass of black octahedral crystals
##STATUS=The identification of this mineral has been confirmed by X-ray diffraction and chemical analysis
##URL=rruff.info/R040091
##MEASURED CHEMISTRY=(Mn^2+^_0.96_Zn_0.02_Mg_0.02_)Mn^3+^_2.00_O_4_
103.2444, 0.0000000E+00
103.7265, 7.345089
104.2086, 11.01357
104.6907, 12.89455
105.1728, 13.27419
105.6550, 5.862137
106.1371, 0.8521310
106.6192, 1.040529
107.1013, 3.968262
107.5834, 6.705658
108.0655, 6.989298
108.5477, 2.498371
109.0298, 1.017292
109.5119, 6.313210
109.9940, 12.03449
110.4761, 14.96807
110.9582, 13.17533
111.4403, 10.52031
111.9225, 5.410675
112.4046, 2.058437
112.8867, 4.066799
113.3688, 6.695164
113.8509, 21.29835
114.3330, 31.45570
114.8152, 30.00577
115.2973, 27.76939
115.7794, 28.91003
116.2615, 34.26087
116.7436, 40.99639
117.2257, 50.39519
117.7079, 60.28329
118.1900, 66.56777
118.6721, 64.23396
119.1542, 59.42528
119.6363, 56.17329
120.1184, 54.14606
120.6006, 55.79868
121.0827, 65.00433
121.5648, 80.28335
122.0469, 95.07056
122.5290, 104.9703
123.0111, 111.9333
123.4933, 118.5771
123.9754, 125.1867
124.4575, 132.2289
124.9396, 141.1320
125.4217, 151.8587
125.9038, 161.4655
126.3860, 164.8769
126.8681, 161.6167
127.3502, 156.8408
127.8323, 154.8571
128.3144, 154.1621
128.7965, 150.8279
129.2787, 143.9674
129.7608, 137.4257
130.2429, 138.3876
130.7250, 145.8773
131.2071, 150.4789
131.6892, 142.8982
132.1714, 125.7491
132.6535, 117.0199
133.1356, 120.8322
133.6177, 131.6818
134.0998, 135.8877
134.5819, 132.9566
135.0640, 127.5948
135.5462, 123.1101
136.0283, 119.4818
136.5104, 116.2456
136.9925, 112.6610
137.4746, 109.0519
137.9567, 109.6953
138.4389, 116.0513
138.9210, 123.4433
139.4031, 126.3053
139.8852, 123.8175
140.3673, 120.1053
140.8494, 115.9750
141.3316, 111.1002
141.8137, 107.8239
142.2958, 106.7859
142.7779, 106.8266
143.2600, 105.2533
143.7421, 99.47885
144.2243, 96.25948
144.7064, 99.15366
145.1885, 115.2632
145.6706, 123.5827
146.1527, 120.4646
146.6348, 109.0774
147.1170, 102.2193
147.5991, 103.1149
148.0812, 105.6524
148.5633, 106.4496
149.0454, 105.5245
149.5275, 102.8390
150.0097, 96.35944
150.4918, 86.00658
150.9739, 80.92786
151.4560, 86.35182
151.9381, 94.42814
152.4202, 99.03859
152.9024, 97.14374
153.3845, 94.31745
153.8666, 91.10855
154.3487, 87.18264
154.8308, 85.01396
155.3129, 87.01974
155.7950, 90.40495
156.2772, 91.59189
156.7593, 87.45287
157.2414, 82.98534
157.7235, 80.18979
158.2056, 79.99074
158.6877, 79.80835
159.1699, 78.46005
159.6520, 76.64960
160.1341, 75.88399
160.6162, 79.01653
161.0983, 81.76118
161.5804, 81.30923
162.0626, 73.65982
162.5447, 67.61888
163.0268, 68.86601
163.5089, 75.48103
163.9910, 79.56512
164.4731, 75.06888
164.9553, 67.70633
165.4374, 62.21205
165.9195, 61.33910
166.4016, 61.69026
166.8837, 61.06459
167.3658, 59.60606
167.8480, 59.12140
168.3301, 62.16496
168.8122, 66.53142
169.2943, 69.25670
169.7764, 68.21509
170.2585, 65.54955
170.7407, 62.90543
171.2228, 60.51419
171.7049, 58.26103
172.1870, 56.41171
172.6691, 54.70357
173.1512, 52.61006
173.6334, 48.24060
174.1155, 43.95241
174.5976, 43.45726
175.0797, 47.95898
175.5618, 52.75159
176.0439, 52.16544
176.5260, 47.58447
177.0082, 43.92929
177.4903, 45.25380
177.9724, 49.27948
178.4545, 51.75673
178.9366, 51.96625
179.4187, 50.83908
179.9009, 49.15614
180.3830, 47.00479
180.8651, 45.07657
181.3472, 44.50607
181.8293, 44.60571
182.3114, 43.09024
182.7936, 38.05392
183.2757, 32.48392
183.7578, 33.25826
184.2399, 40.37451
184.7220, 46.78604
185.2041, 43.40840
185.6863, 32.62177
186.1684, 26.67589
186.6505, 31.79216
187.1326, 43.45833
187.6147, 48.87123
188.0968, 47.62352
188.5790, 43.73717
189.0611, 40.68083
189.5432, 38.55615
190.0253, 37.73367
190.5074, 39.74030
190.9895, 43.49065
191.4717, 43.16992
191.9538, 37.87570
192.4359, 31.79411
192.9180, 31.57918
193.4001, 37.33838
193.8822, 41.64453
194.3644, 39.73163
194.8465, 32.26373
195.3286, 28.58206
195.8107, 29.64040
196.2928, 33.00037
196.7749, 34.40013
197.2570, 33.64348
197.7392, 32.77690
198.2213, 32.97957
198.7034, 34.19304
199.1855, 34.80984
199.6676, 34.90271
200.1497, 34.38556
200.6319, 32.78839
201.1140, 30.14383
201.5961, 27.72502
202.0782, 26.16701
202.5603, 25.51678
203.0424, 25.74811
203.5246, 27.16028
204.0067, 29.34319
204.4888, 31.09317
204.9709, 32.62466
205.4530, 32.96729
205.9352, 30.82076
206.4173, 25.49254
206.8994, 21.47441
207.3815, 19.52507
207.8636, 19.43999
208.3457, 20.38544
208.8279, 22.71185
209.3100, 25.35387
209.7921, 27.70909
210.2742, 30.18799
210.7563, 30.85780
211.2384, 28.80574
211.7206, 24.23903
212.2027, 20.63344
212.6848, 17.89439
213.1669, 16.25055
213.6490, 16.06183
214.1311, 17.62221
214.6133, 19.86789
215.0954, 23.14157
215.5775, 27.50092
216.0596, 29.32225
216.5417, 27.51776
217.0238, 24.39964
217.5059, 22.97708
217.9881, 24.22978
218.4702, 24.97684
218.9523, 24.34061
219.4344, 22.19487
219.9165, 19.45851
220.3986, 15.75055
220.8808, 11.77133
221.3629, 8.355530
221.8450, 5.100647
222.3271, 3.199585
222.8092, 3.260620
223.2913, 5.825394
223.7735, 8.147324
224.2556, 9.908722
224.7377, 11.62141
225.2198, 14.44185
225.7019, 19.80637
226.1840, 23.84467
226.6662, 24.87292
227.1483, 21.52916
227.6304, 18.97415
228.1125, 17.17622
228.5946, 16.14424
229.0767, 15.89772
229.5589, 16.55269
230.0410, 17.81117
230.5231, 20.10284
231.0052, 25.82246
231.4873, 26.79605
231.9694, 20.81340
232.4516, 10.61038
232.9337, 3.830643
233.4158, 1.829529
233.8979, 1.272934
234.3800, 0.6440890
234.8621, 0.4493870
235.3443, 0.7205510
235.8264, 0.1764530
236.3085, 1.901306
236.7906, 3.299896
237.2727, 4.289810
237.7548, 5.062744
238.2369, 5.774689
238.7191, 6.687546
239.2012, 6.981125
239.6833, 6.550186
240.1654, 5.459320
240.6475, 3.940231
241.1296, 1.743744
241.6118, 0.5648960
242.0939, 2.831787
242.5760, 5.838181
243.0581, 7.097977
243.5402, 5.631516
244.0223, 2.102264
244.5045, 9.0484999E-02
244.9866, 0.4199070
245.4687, 1.212021
245.9508, 1.103271
246.4329, 1.075500
246.9150, 1.605606
247.3972, 0.9496770
247.8793, 5.851791
248.3614, 7.524139
248.8435, 3.804276
249.3256, 0.4754180
249.8077, 1.530197
250.2899, 3.033463
250.7720, 5.579498
251.2541, 4.517075
251.7362, 0.3320920
252.2183, 2.675507
252.7004, 4.377579
253.1826, 5.010834
253.6647, 4.556961
254.1468, 2.341751
254.6289, 0.4489290
255.1110, 1.210434
255.5931, 2.503860
256.0753, 1.423676
256.5574, 4.172058
257.0395, 9.211731
257.5216, 8.924850
258.0037, 0.3187260
258.4858, 6.122513
258.9680, 8.282684
259.4501, 6.556854
259.9322, 5.364960
260.4143, 4.874359
260.8964, 4.655075
261.3785, 4.475449
261.8607, 4.560730
262.3428, 4.009995
262.8249, 2.525742
263.3070, 0.2038270
263.7891, 2.255188
264.2712, 5.287262
264.7534, 7.653931
265.2355, 7.772751
265.7176, 4.518875
266.1997, 2.791031
266.6818, 3.934357
267.1639, 7.573883
267.6461, 10.10338
268.1282, 11.47084
268.6103, 11.82098
269.0924, 10.89249
269.5745, 8.128159
270.0566, 6.373093
270.5387, 6.478943
271.0208, 8.142227
271.5030, 8.572235
271.9851, 6.983490
272.4672, 5.956451
272.9493, 8.596069
273.4314, 15.86499
273.9135, 21.10199
274.3957, 22.41098
274.8778, 20.48566
275.3599, 19.47324
275.8420, 19.37721
276.3241, 20.20148
276.8062, 22.53801
277.2884, 26.70306
277.7705, 29.34532
278.2526, 29.14426
278.7347, 26.95927
279.2168, 26.72481
279.6989, 28.55899
280.1811, 31.95314
280.6632, 37.44897
281.1453, 45.19119
281.6274, 50.74878
282.1095, 52.50728
282.5916, 51.63176
283.0738, 52.91272
283.5559, 56.78940
284.0380, 60.21713
284.5201, 59.56802
285.0022, 55.10443
285.4843, 52.55498
285.9665, 53.50757
286.4486, 56.88515
286.9307, 59.77646
287.4128, 62.13622
287.8949, 64.28619
288.3770, 67.13467
288.8592, 70.35529
289.3413, 71.48532
289.8234, 70.00047
290.3055, 66.17712
290.7876, 59.64867
291.2697, 50.38812
291.7519, 41.75600
292.2340, 36.70740
292.7161, 34.61484
293.1982, 32.84300
293.6803, 30.93089
294.1624, 29.04608
294.6446, 27.62309
295.1267, 26.62563
295.6088, 25.70209
296.0909, 23.58423
296.5730, 21.29369
297.0551, 21.99039
297.5373, 27.64075
298.0194, 34.25027
298.5015, 35.28188
298.9836, 31.49026
299.4657, 27.86372
299.9478, 28.19511
300.4300, 30.89258
300.9121, 33.31886
301.3942, 34.99660
301.8763, 36.74185
302.3584, 38.98593
302.8405, 41.70985
303.3227, 45.12143
303.8048, 50.42091
304.2869, 56.27066
304.7690, 60.34604
305.2511, 61.09682
305.7332, 62.58189
306.2154, 69.55403
306.6975, 80.91447
307.1796, 92.96246
307.6617, 103.7830
308.1438, 113.5363
308.6259, 122.9726
309.1081, 132.4873
309.5901, 141.3189
310.0723, 147.2621
310.5544, 151.8617
311.0365, 158.5329
311.5186, 171.7025
312.0007, 185.9596
312.4828, 196.6877
312.9650, 202.6179
313.4471, 208.2918
313.9292, 217.9682
314.4113, 228.8835
314.8934, 236.3228
315.3755, 235.2877
315.8577, 232.6762
316.3398, 232.3149
316.8219, 235.3251
317.3040, 237.5326
317.7861, 238.6744
318.2682, 237.6013
318.7504, 232.8925
319.2325, 219.6362
319.7146, 206.4700
320.1967, 198.3072
320.6788, 196.3520
321.1609, 190.6494
321.6431, 175.2846
322.1252, 156.2644
322.6073, 139.6786
323.0894, 126.6921
323.5715, 116.2111
324.0536, 109.3549
324.5358, 106.5010
325.0179, 101.0245
325.5000, 88.18832
325.9821, 74.61124
326.4642, 65.38330
326.9464, 65.89658
327.4285, 65.14249
327.9106, 61.11801
328.3927, 54.03650
328.8748, 47.99567
329.3569, 43.75339
329.8391, 40.02240
330.3212, 35.90564
330.8033, 29.88266
331.2854, 25.84464
331.7675, 24.52069
332.2496, 25.55957
332.7318, 27.36462
333.2139, 31.77597
333.6960, 34.60223
334.1781, 32.86768
334.6602, 23.41910
335.1423, 17.25125
335.6245, 15.47012
336.1066, 17.12085
336.5887, 19.80832
337.0708, 24.55170
337.5529, 27.98169
338.0350, 27.55191
338.5172, 22.06567
338.9993, 19.46600
339.4814, 20.96317
339.9635, 24.36243
340.4456, 25.10205
340.9277, 22.72067
341.4099, 20.81644
341.8920, 21.64789
342.3741, 25.14777
342.8562, 26.72888
343.3383, 26.32053
343.8204, 24.80020
344.3026, 22.52277
344.7847, 19.55042
345.2668, 18.52167
345.7489, 21.86484
346.2310, 28.25986
346.7131, 32.80276
347.1953, 35.55588
347.6774, 35.96735
348.1595, 30.76282
348.6416, 21.93491
349.1237, 17.22809
349.6058, 21.48688
350.0880, 30.33871
350.5700, 36.46332
351.0522, 39.90302
351.5343, 42.48669
352.0164, 45.07034
352.4985, 47.83804
352.9806, 51.35568
353.4627, 56.71109
353.9449, 61.98236
354.4270, 64.34677
354.9091, 64.21417
355.3912, 64.61169
355.8733, 67.89627
356.3554, 72.68207
356.8376, 77.35278
357.3197, 80.98029
357.8018, 85.52478
358.2839, 92.40320
358.7660, 101.1970
359.2481, 110.8378
359.7303, 122.4350
360.2124, 133.5984
360.6945, 143.2805
361.1766, 150.1230
361.6587, 156.5793
362.1408, 163.7285
362.6230, 171.5930
363.1051, 179.6848
363.5872, 186.4075
364.0693, 194.6667
364.5514, 206.6652
365.0335, 223.9120
365.5157, 237.9695
365.9978, 246.1997
366.4799, 251.0575
366.9620, 255.1858
367.4441, 255.6287
367.9262, 258.6456
368.4084, 267.0204
368.8905, 281.0187
369.3726, 291.1276
369.8547, 295.2239
370.3368, 296.8785
370.8189, 298.6003
371.3011, 300.5018
371.7832, 302.4634
372.2653, 305.9665
372.7474, 309.7258
373.2295, 307.8730
373.7116, 299.1412
374.1938, 287.5674
374.6759, 275.2117
375.1580, 262.2419
375.6401, 248.2357
376.1222, 232.9330
376.6043, 216.5611
377.0865, 197.9988
377.5686, 176.4615
378.0507, 157.9256
378.5328, 147.1420
379.0149, 143.7752
379.4970, 136.8415
379.9792, 125.5599
380.4613, 112.7262
380.9434, 102.5251
381.4255, 94.64365
381.9076, 87.26172
382.3897, 79.76572
382.8719, 72.18256
383.3540, 64.66837
383.8361, 57.13028
384.3182, 50.12024
384.8003, 43.70667
385.2824, 38.20465
385.7646, 34.47893
386.2467, 33.52005
386.7288, 33.57971
387.2109, 33.02934
387.6930, 31.77327
388.1751, 29.42664
388.6573, 23.79915
389.1394, 17.72195
389.6215, 14.83447
390.1036, 17.12392
390.5857, 20.05870
391.0678, 20.97717
391.5499, 20.13922
392.0320, 18.73087
392.5142, 16.42220
392.9963, 14.40865
393.4784, 13.63342
393.9605, 14.60904
394.4426, 15.15498
394.9247, 15.03020
395.4069, 13.90520
395.8890, 11.36758
396.3711, 3.607086
396.8532, 1.860748
397.3353, 1.824951
397.8174, 4.262238
398.2996, 8.466507
398.7817, 10.15529
399.2638, 9.761642
399.7459, 7.450989
400.2280, 0.1282500
400.7101, 4.725876
401.1923, 6.110901
401.6744, 4.496094
402.1565, 1.834274
402.6386, 3.111343
403.1207, 7.178482
403.6028, 8.244537
404.0850, 4.925262
404.5671, 3.883972
405.0492, 6.342361
405.5313, 10.00243
406.0134, 10.00793
406.4955, 5.703888
406.9777, 1.640793
407.4598, 0.1214600
407.9419, 0.1772460
408.4240, 0.1803890
408.9061, 1.336227
409.3882, 2.463547
409.8704, 2.400177
410.3525, 1.351349
410.8346, 0.7393040
411.3167, 1.602249
411.7988, 2.668396
412.2809, 0.9257810
412.7631, 3.368057
413.2452, 7.453094
413.7273, 9.164185
414.2094, 9.288040
414.6915, 8.900009
415.1736, 7.906937
415.6558, 7.172150
416.1379, 9.058380
416.6200, 11.97174
417.1021, 11.92284
417.5842, 2.103943
418.0663, 8.126007
418.5485, 11.01903
419.0306, 4.790756
419.5127, 1.560089
419.9948, 4.473175
420.4769, 5.255936
420.9590, 5.538666
421.4412, 5.426590
421.9233, 5.187714
422.4054, 4.709854
422.8875, 4.023911
423.3696, 3.813080
423.8517, 4.449005
424.3339, 5.394547
424.8160, 6.375107
425.2981, 8.212509
425.7802, 8.795288
426.2623, 6.854797
426.7444, 3.797104
427.2266, 3.841095
427.7087, 9.864868
428.1908, 14.02440
428.6729, 12.32864
429.1550, 3.412704
429.6371, 1.590240
430.1193, 1.537811
430.6014, 0.5855410
431.0835, 0.9192660
431.5656, 0.7167360
432.0477, 2.198196
432.5298, 3.202087
433.0119, 3.534836
433.4940, 2.252655
433.9762, 0.6988530
434.4583, 4.220749
434.9404, 7.922211
435.4225, 11.52258
435.9046, 14.21153
436.3867, 15.91356
436.8689, 16.41893
437.3510, 14.29117
437.8331, 10.44858
438.3152, 7.931900
438.7973, 9.790802
439.2794, 13.04773
439.7616, 14.70898
440.2437, 14.43307
440.7258, 13.44501
441.2079, 12.24808
441.6900, 10.84372
442.1721, 9.233246
442.6543, 6.570084
443.1364, 4.518524
443.6185, 3.684464
444.1006, 4.043640
444.5827, 5.245712
445.0648, 8.276428
445.5470, 11.36972
446.0291, 13.65840
446.5112, 16.27570
446.9933, 16.16650
447.4754, 10.86197
447.9576, 3.396652
448.4397, 0.4956210
448.9218, 0.9991610
449.4039, 3.303757
449.8860, 5.381683
450.3681, 7.250549
450.8503, 8.135132
451.3324, 7.561035
451.8145, 6.833832
452.2966, 7.321716
452.7787, 9.154999
453.2608, 11.05049
453.7430, 12.92319
454.2251, 14.60559
454.7072, 15.39044
455.1893, 15.67419
455.6714, 16.55414
456.1535, 19.51628
456.6357, 23.69865
457.1178, 26.37172
457.5999, 27.31709
458.0820, 26.56044
458.5641, 21.84727
459.0462, 15.34073
459.5284, 11.80511
460.0105, 14.84547
460.4926, 20.58270
460.9747, 27.07526
461.4568, 34.01216
461.9389, 38.33688
462.4211, 35.43716
462.9032, 30.86307
463.3853, 29.44064
463.8674, 34.55859
464.3495, 38.96109
464.8316, 40.49695
465.3138, 39.85092
465.7959, 38.54199
466.2780, 35.37445
466.7601, 32.89377
467.2422, 31.91193
467.7243, 32.56863
468.2065, 34.33420
468.6886, 37.78271
469.1707, 41.69424
469.6528, 45.31097
470.1349, 49.37955
470.6170, 51.80817
471.0992, 51.26553
471.5813, 48.93039
472.0634, 49.97998
472.5455, 55.30807
473.0276, 59.74442
473.5097, 58.95752
473.9918, 53.47614
474.4739, 51.72293
474.9561, 54.98035
475.4382, 59.46045
475.9203, 59.51694
476.4024, 56.57932
476.8845, 54.83316
477.3666, 57.07309
477.8488, 59.94180
478.3309, 59.11798
478.8130, 54.93134
479.2951, 50.81467
479.7772, 49.03232
480.2593, 48.66443
480.7415, 49.29102
481.2236, 51.84140
481.7057, 52.65311
482.1878, 48.00626
482.6699, 40.78186
483.1520, 35.83734
483.6342, 37.90958
484.1163, 39.15207
484.5984, 35.73859
485.0805, 27.04364
485.5626, 22.70941
486.0447, 26.63382
486.5269, 31.96786
487.0090, 34.48767
487.4911, 33.19971
487.9732, 30.62067
488.4553, 26.19354
488.9374, 20.98642
489.4196, 18.35678
489.9017, 18.92209
490.3838, 19.62683
490.8659, 19.01038
491.3480, 17.33575
491.8301, 18.05591
492.3123, 21.38593
492.7944, 24.97833
493.2765, 27.03400
493.7586, 27.53293
494.2407, 26.24130
494.7228, 22.46683
495.2050, 18.02750
495.6871, 14.28680
496.1692, 11.56674
496.6513, 11.06500
497.1334, 16.27902
497.6155, 22.13962
498.0977, 24.00372
498.5798, 21.19894
499.0619, 17.72882
499.5440, 13.65103
500.0261, 10.77579
500.5082, 10.81226
500.9904, 18.47849
501.4725, 24.30576
501.9546, 26.38449
502.4367, 25.13416
502.9188, 22.35980
503.4009, 14.55487
503.8831, 9.234467
504.3652, 10.17728
504.8473, 19.56100
505.3294, 24.09531
505.8115, 21.79883
506.2936, 17.03915
506.7758, 15.20151
507.2579, 16.70132
507.7400, 17.54755
508.2221, 16.70282
508.7042, 14.87473
509.1863, 13.93527
509.6685, 13.85825
510.1506, 13.78342
510.6327, 14.18536
511.1148, 14.05566
511.5969, 9.964508
512.0790, 1.140442
512.5612, 6.287720
513.0433, 5.351746
513.5254, 0.2063600
514.0075, 4.608215
514.4896, 4.609955
514.9717, 4.157013
515.4539, 5.866913
515.9360, 9.042694
516.4181, 11.17374
516.9002, 10.70862
517.3823, 9.543884
517.8644, 8.160645
518.3466, 5.691681
518.8287, 5.958923
519.3108, 12.30197
519.7929, 19.43033
520.2750, 21.82538
520.7571, 17.11783
521.2393, 12.43402
521.7214, 8.319550
522.2035, 5.065155
522.6856, 4.237762
523.1677, 6.408081
523.6498, 8.412354
524.1320, 7.542114
524.6141, 4.466003
525.0962, 5.787079
525.5783, 12.38205
526.0604, 18.46512
526.5425, 16.30109
527.0247, 8.613434
527.5068, 2.384491
527.9889, 0.1604610
528.4710, 0.6556700
528.9531, 0.4401550
529.4352, 2.443481
529.9174, 3.221985
530.3995, 0.8026120
530.8816, 4.531281
531.3637, 3.843445
531.8458, 2.552582
532.3279, 6.962555
532.8101, 5.168762
533.2922, 1.565643
533.7743, 9.9243000E-02
534.2564, 5.110443
534.7385, 6.952362
535.2206, 2.807037
535.7027, 4.606110
536.1848, 7.540405
536.6669, 4.391357
537.1490, 0.2403870
537.6312, 2.869690
538.1133, 4.733337
538.5954, 5.022675
539.0775, 3.602081
539.5596, 2.564423
540.0417, 4.529053
540.5239, 8.460938
541.0060, 10.06531
541.4881, 7.874542
541.9702, 4.767792
542.4523, 3.703247
542.9344, 4.507233
543.4166, 6.486237
543.8987, 12.18829
544.3808, 16.82294
544.8629, 14.83862
545.3450, 6.426086
545.8271, 0.8180540
546.3093, 5.653931
546.7914, 12.27490
547.2735, 14.41666
547.7556, 6.093140
548.2377, 1.478668
548.7198, 3.869873
549.2020, 9.915466
549.6841, 14.71191
550.1662, 18.44788
550.6483, 20.79346
551.1304, 20.92807
551.6125, 19.37994
552.0947, 17.95630
552.5768, 16.30829
553.0589, 16.31467
553.5410, 20.92407
554.0231, 29.02158
554.5052, 32.82248
554.9874, 31.18613
555.4695, 27.85840
555.9516, 26.62289
556.4337, 26.99088
556.9158, 27.83801
557.3979, 29.33206
557.8801, 30.57089
558.3622, 30.64337
558.8443, 29.79974
559.3264, 28.86096
559.8085, 26.40125
560.2906, 25.39844
560.7728, 28.53970
561.2549, 37.52405
561.7370, 43.28867
562.2191, 43.08340
562.7012, 40.16583
563.1833, 36.73889
563.6655, 32.05371
564.1476, 28.42245
564.6297, 26.02463
565.1118, 24.78760
565.5939, 24.49561
566.0760, 25.14090
566.5582, 26.94128
567.0403, 31.23889
567.5224, 36.69153
568.0045, 37.71899
568.4866, 34.28284
568.9688, 29.51016
569.4509, 24.56580
569.9330, 20.26840
570.4151, 18.20023
570.8972, 19.88846
571.3793, 22.06757
571.8615, 21.54041
572.3436, 19.49066
572.8257, 17.86209
573.3078, 17.94656
573.7899, 17.98254
574.2720, 17.16290
574.7542, 15.64392
575.2363, 14.45746
575.7184, 13.20886
576.2005, 12.79419
576.6826, 13.77881
577.1647, 16.51614
577.6469, 19.00378
578.1290, 21.65198
578.6111, 23.24951
579.0932, 21.64868
579.5753, 16.69400
580.0574, 14.25455
580.5396, 15.96503
581.0217, 19.38498
581.5038, 20.65601
581.9859, 19.91998
582.4680, 17.89532
582.9501, 12.83948
583.4323, 7.963257
583.9144, 8.247498
584.3965, 13.13715
584.8786, 16.52136
585.3607, 12.69473
585.8428, 7.412079
586.3250, 5.392273
586.8071, 9.283997
587.2892, 11.83951
587.7713, 10.80569
588.2534, 7.907562
588.7355, 5.272491
589.2177, 3.251587
589.6998, 1.977264
590.1819, 1.260498
590.6640, 0.9000550
591.1461, 9.2162997E-02
591.6282, 2.109924
592.1104, 2.556519
592.5925, 1.500732
593.0746, 8.373383
593.5567, 8.035278
594.0388, 0.4371030
594.5209, 7.191986
595.0031, 7.861084
595.4852, 4.935516
595.9673, 4.371155
596.4494, 8.432983
596.9315, 11.58347
597.4136, 8.326996
597.8958, 2.028992
598.3779, 2.171448
598.8600, 0.4748540
599.3421, 2.110077
599.8242, 0.4375310
600.3063, 6.427124
600.7885, 10.89728
601.2706, 13.91083
601.7527, 15.05139
602.2348, 13.32809
602.7169, 8.227234
603.1990, 6.445984
603.6812, 8.543762
604.1633, 12.15921
604.6454, 15.57108
605.1275, 18.52673
605.6096, 19.07864
606.0917, 16.61392
606.5739, 12.44202
607.0560, 5.119690
607.5381, 2.939056
608.0202, 5.906708
608.5023, 2.745026
608.9844, 14.12088
609.4666, 23.98477
609.9487, 31.91440
610.4308, 35.67850
610.9129, 29.96698
611.3950, 23.81226
611.8771, 22.06320
612.3593, 26.64099
612.8414, 28.83936
613.3235, 27.80191
613.8056, 25.33795
614.2877, 22.07056
614.7698, 16.94623
615.2520, 16.49527
615.7341, 22.25345
616.2162, 31.24582
616.6983, 39.66476
617.1804, 47.29111
617.6625, 52.20071
618.1446, 51.98730
618.6267, 50.21707
619.1088, 52.36761
619.5909, 57.66019
620.0731, 62.59756
620.5552, 65.81924
621.0373, 67.42258
621.5194, 66.32025
622.0015, 61.96280
622.4836, 60.52695
622.9658, 67.07709
623.4479, 74.99310
623.9300, 79.33435
624.4121, 77.58148
624.8942, 76.61847
625.3763, 76.54623
625.8585, 77.21207
626.3406, 78.15445
626.8227, 79.20264
627.3048, 81.70227
627.7869, 85.48526
628.2690, 91.46039
628.7512, 103.9838
629.2333, 121.8789
629.7154, 136.7597
630.1975, 141.8422
630.6796, 142.3102
631.1617, 143.5310
631.6439, 145.7646
632.1260, 148.9796
632.6081, 152.9661
633.0902, 158.0474
633.5723, 164.0114
634.0544, 168.6690
634.5366, 179.1883
635.0187, 202.4247
635.5008, 228.4257
635.9829, 245.6879
636.4650, 248.3654
636.9471, 257.1772
637.4293, 276.4147
637.9114, 302.2502
638.3935, 326.3058
638.8756, 348.6513
639.3577, 371.7615
639.8398, 396.2130
640.3220, 422.6715
640.8041, 452.7257
641.2862, 486.3043
641.7683, 522.2261
642.2504, 560.1160
642.7325, 599.4554
643.2147, 638.3965
643.6968, 676.5333
644.1789, 718.6911
644.6610, 769.8594
645.1431, 824.3671
645.6252, 878.1011
646.1074, 929.4243
646.5895, 981.6469
647.0716, 1034.115
647.5537, 1087.992
648.0358, 1142.113
648.5179, 1195.575
649.0001, 1257.133
649.4822, 1329.830
649.9643, 1410.765
650.4464, 1494.582
650.9285, 1579.883
651.4106, 1661.638
651.8928, 1733.879
652.3749, 1800.325
652.8570, 1863.893
653.3391, 1925.005
653.8212, 1989.577
654.3033, 2071.600
654.7855, 2150.063
655.2676, 2210.632
655.7497, 2246.592
656.2318, 2274.610
656.7139, 2298.492
657.1960, 2312.442
657.6782, 2310.631
658.1603, 2291.758
658.6424, 2261.424
659.1245, 2220.106
659.6066, 2167.510
660.0887, 2104.515
660.5709, 2030.967
661.0530, 1943.771
661.5351, 1835.554
662.0172, 1719.976
662.4993, 1615.304
662.9814, 1518.696
663.4636, 1421.777
663.9457, 1309.621
664.4278, 1203.409
664.9099, 1118.877
665.3920, 1057.745
665.8741, 994.9365
666.3563, 924.0649
666.8384, 853.1766
667.3205, 787.0140
667.8026, 725.6215
668.2847, 667.1049
668.7668, 610.4977
669.2490, 558.8315
669.7311, 515.6741
670.2132, 481.0677
670.6953, 452.4591
671.1774, 430.8243
671.6595, 411.1272
672.1417, 385.7126
672.6238, 357.1988
673.1059, 330.8406
673.5880, 310.7999
674.0701, 291.6929
674.5522, 268.8183
675.0344, 244.1489
675.5165, 223.5302
675.9986, 210.4590
676.4807, 199.8214
676.9628, 190.8391
677.4449, 183.4916
677.9271, 174.1350
678.4092, 161.8541
678.8913, 150.0466
679.3734, 140.7343
679.8555, 133.8727
680.3376, 129.5063
680.8198, 127.9658
681.3019, 125.8392
681.7840, 119.8446
682.2661, 111.0738
682.7482, 101.1400
683.2303, 89.46356
683.7125, 79.20990
684.1946, 73.18948
684.6767, 69.12714
685.1588, 64.31323
685.6409, 53.70712
686.1230, 48.26080
686.6052, 52.58414
687.0873, 61.74503
687.5694, 64.79663
688.0515, 60.81912
688.5336, 53.29919
689.0157, 40.69049
689.4979, 26.64102
689.9800, 25.09180
690.4621, 35.28168
690.9442, 44.06793
691.4263, 42.37497
691.9084, 35.57959
692.3906, 30.46851
692.8727, 27.58206
693.3548, 24.63824
693.8369, 17.15863
694.3190, 10.51352
694.8011, 9.246582
695.2833, 16.64871
695.7654, 19.69315
696.2475, 15.37613
696.7296, 9.329437
697.2117, 6.322510
697.6938, 7.140381
698.1760, 6.719055
698.6581, 3.986542
699.1402, 1.601532
699.6223, 5.209198
700.1044, 12.94321
700.5865, 16.50290
701.0686, 11.46729
701.5507, 4.950989
702.0328, 4.816986
702.5150, 8.604218
702.9971, 11.09891
703.4792, 8.450623
703.9613, 6.102325
704.4434, 6.721619
704.9255, 9.640015
705.4077, 10.57379
705.8898, 8.091156
706.3719, 5.935699
706.8540, 5.573181
707.3361, 6.794373
707.8182, 2.981964
708.3004, 10.24939
708.7825, 14.51804
709.2646, 15.94916
709.7467, 6.040192
710.2288, 10.77930
710.7109, 9.652161
711.1931, 8.286957
711.6752, 15.09494
712.1573, 1.941223
712.6394, 4.719940
713.1215, 4.889923
713.6036, 3.671692
714.0858, 1.281647
714.5679, 1.645874
715.0500, 4.906982
715.5321, 9.720886
716.0142, 10.94861
716.4963, 7.031769
716.9785, 1.222717
717.4606, 0.8065190
717.9427, 0.4299010
718.4248, 0.9188840
718.9069, 0.9925540
719.3890, 3.363434
719.8712, 3.911194
720.3533, 3.111847
720.8354, 2.091675
721.3175, 2.156799
721.7996, 1.406281
722.2817, 2.215912
722.7639, 7.851715
723.2460, 10.33411
723.7281, 6.906281
724.2102, 4.102173
724.6923, 4.489410
725.1744, 7.749756
725.6566, 9.236694
726.1387, 8.872864
726.6208, 8.834137
727.1029, 12.21310
727.5850, 16.57227
728.0671, 15.33704
728.5493, 8.344299
729.0314, 1.968262
729.5135, 0.3013920
729.9956, 0.4579770
730.4777, 4.137085
730.9598, 11.97153
731.4420, 17.51175
731.9241, 17.99228
732.4062, 16.87747
732.8883, 17.00323
733.3704, 19.37228
733.8525, 18.11694
734.3347, 11.78220
734.8168, 4.727875
735.2989, 3.705780
735.7810, 7.334290
736.2631, 9.552551
736.7452, 8.862793
737.2274, 7.512939
737.7095, 7.561768
738.1916, 8.495972
738.6737, 9.460571
739.1558, 11.56985
739.6379, 12.03162
740.1201, 8.722595
740.6022, 3.334320
741.0843, 0.2823180
741.5664, 2.789093
742.0485, 1.546265
742.5306, 6.223724
743.0128, 17.02902
743.4949, 17.23608
743.9770, 7.294708
744.4591, 8.0963001E-02
744.9412, 6.000488
745.4233, 16.64999
745.9055, 19.15555
746.3876, 14.90228
746.8697, 10.75531
747.3518, 8.692047
747.8339, 9.080536
748.3160, 15.11768
748.7982, 27.48773
749.2803, 28.94522
749.7624, 10.70300
750.2445, 6.409271
750.7266, 11.52304
751.2087, 4.538177
751.6909, 1.351440
752.1730, 2.465240
752.6551, 2.695465
753.1372, 4.966766
753.6193, 16.00726
754.1014, 20.66449
754.5836, 17.56287
755.0657, 13.26648
755.5478, 10.34415
756.0299, 9.536865
756.5120, 11.25119
756.9941, 16.92813
757.4763, 20.46445
757.9584, 21.80997
758.4405, 21.16650
758.9226, 17.83768
759.4047, 10.93643
759.8868, 7.534546
760.3690, 8.655334
760.8511, 11.90247
761.3332, 15.45389
761.8153, 18.52756
762.2974, 18.27832
762.7795, 11.60947
763.2617, 6.304199
763.7438, 9.793182
764.2259, 17.90579
764.7080, 24.28882
765.1901, 28.27057
765.6722, 29.26581
766.1544, 26.21005
766.6365, 20.75381
767.1186, 15.84061
767.6007, 11.34729
768.0828, 8.450623
768.5649, 7.537994
769.0471, 8.280762
769.5292, 11.69955
770.0113, 16.66470
770.4934, 18.57047
770.9755, 11.61646
771.4576, 4.352448
771.9398, 3.686646
772.4219, 7.845154
772.9040, 10.75153
773.3861, 9.714569
773.8682, 8.521454
774.3503, 8.118164
774.8325, 8.414825
775.3146, 9.073578
775.7967, 10.35474
776.2788, 10.81845
776.7609, 9.335907
777.2430, 6.575775
777.7252, 4.234100
778.2073, 2.453461
778.6894, 1.830170
779.1715, 2.507996
779.6536, 4.578430
780.1357, 10.11484
780.6179, 18.89923
781.1000, 21.98270
781.5821, 10.70761
782.0642, 9.4329998E-02
782.5463, 3.501892
783.0284, 0.2185060
783.5105, 2.685486
783.9926, 3.683197
784.4747, 4.808990
784.9568, 8.139618
785.4390, 12.28378
785.9211, 12.97052
786.4032, 10.06564
786.8853, 6.733795
787.3674, 3.637726
787.8495, 2.079651
788.3317, 4.218994
788.8138, 11.99335
789.2959, 15.25421
789.7780, 8.192688
790.2601, 1.105347
790.7422, 1.873138
791.2244, 12.61508
791.7065, 14.96350
792.1886, 7.208160
792.6707, 1.658936
793.1528, 2.343994
793.6349, 2.328613
794.1171, 6.556580
794.5992, 9.764465
795.0813, 11.27197
795.5634, 8.734589
796.0455, 5.450775
796.5276, 4.610107
797.0098, 8.884125
797.4919, 11.21460
797.9740, 11.03452
798.4561, 9.337891
798.9382, 6.344849
799.4203, 1.851837
799.9025, 0.2795410
800.3846, 0.5611570
800.8667, 2.591156
801.3488, 4.332520
801.8309, 5.761627
802.3130, 6.915131
802.7952, 7.971069
803.2773, 8.406769
803.7594, 7.182617
804.2415, 5.553009
804.7236, 5.066803
805.2057, 7.044952
805.6879, 7.772736
806.1700, 6.948273
806.6521, 5.097656
807.1342, 1.740997
807.6163, 2.706421
808.0984, 3.305450
808.5806, 2.013733
809.0627, 8.899994
809.5448, 12.02112
810.0269, 12.89993
810.5090, 13.12897
810.9911, 13.73615
811.4733, 13.52567
811.9554, 12.49680
812.4375, 10.25272
812.9196, 5.594116
813.4017, 4.036591
813.8839, 7.371368
814.3660, 1.247803
814.8481, 7.898743
815.3302, 9.539490
815.8123, 5.302612
816.2944, 1.628540
816.7766, 2.5513001E-02
817.2587, 6.9945998E-02
817.7408, 3.296021
818.2229, 7.670105
818.7050, 10.31381
819.1871, 7.949493
819.6693, 7.294617
820.1514, 10.57773
820.6335, 14.91974
821.1156, 15.07394
821.5977, 10.27280
822.0798, 8.384277
822.5620, 11.66223
823.0441, 16.55902
823.5262, 18.61356
824.0083, 18.14426
824.4904, 15.71326
824.9725, 9.398407
825.4547, 4.510498
825.9368, 4.844360
826.4189, 7.986420
826.9010, 9.933929
827.3831, 9.124481
827.8652, 9.294617
828.3474, 10.76843
828.8295, 13.46490
829.3116, 18.68915
829.7937, 25.86212
830.2758, 28.68643
830.7579, 24.33896
831.2401, 18.04129
831.7222, 14.07123
832.2043, 12.61487
832.6864, 13.88876
833.1685, 23.24698
833.6506, 28.86017
834.1328, 24.15741
834.6149, 16.05832
835.0970, 14.56668
835.5791, 22.42706
836.0612, 25.43311
836.5433, 20.20551
837.0255, 12.41852
837.5076, 11.59906
837.9897, 15.33182
838.4718, 16.40894
838.9539, 11.12451
839.4360, 6.077911
839.9182, 6.968140
840.4003, 10.02747
840.8824, 10.66040
841.3645, 3.545044
841.8466, 0.3797910
842.3287, 3.398285
842.8109, 8.697479
843.2930, 10.39145
843.7751, 8.642151
844.2572, 7.930420
844.7393, 9.270172
845.2214, 11.23926
845.7036, 12.71875
846.1857, 13.72949
846.6678, 14.13333
847.1499, 13.93097
847.6320, 13.03296
848.1141, 9.914795
848.5963, 6.953552
849.0784, 6.948547
849.5605, 11.04599
850.0426, 13.21097
850.5247, 12.48071
851.0068, 10.25208
851.4890, 7.035614
851.9711, 3.678284
852.4532, 3.547333
852.9353, 8.324127
853.4174, 12.09979
853.8995, 8.599731
854.3817, 3.352997
854.8638, 2.300049
855.3459, 9.540802
855.8280, 14.47461
856.3101, 16.70880
856.7922, 17.16443
857.2744, 15.43561
857.7565, 11.97098
858.2386, 13.41492
858.7207, 21.15833
859.2028, 27.16931
859.6849, 21.52374
860.1671, 11.42545
860.6492, 4.934753
861.1313, 3.994995
861.6134, 4.569244
862.0955, 6.629395
862.5776, 9.238373
863.0598, 12.38171
863.5419, 16.65527
864.0240, 16.15936
864.5061, 9.963226
864.9882, 4.321594
865.4703, 7.463104
865.9524, 14.04617
866.4345, 12.59094
866.9166, 1.788177
867.3987, 6.489777
867.8809, 3.826477
868.3630, 1.447174
868.8451, 3.472290
869.3272, 1.572083
869.8093, 3.403015
870.2914, 9.524811
870.7736, 14.35559
871.2557, 13.14883
871.7378, 8.087280
872.2199, 8.745697
872.7020, 14.42770
873.1841, 18.69537
873.6663, 15.35660
874.1484, 10.66568
874.6305, 9.361053
875.1126, 11.71857
875.5947, 13.53149
876.0768, 13.92841
876.5590, 14.08911
877.0411, 14.91956
877.5232, 15.97192
878.0053, 14.02933
878.4874, 9.348572
878.9695, 5.905518
879.4517, 6.274597
879.9338, 8.642517
880.4159, 12.75153
880.8980, 17.55203
881.3801, 19.47659
881.8622, 13.96298
882.3444, 9.582550
882.8265, 8.661407
883.3086, 10.18338
883.7907, 11.82315
884.2728, 13.73254
884.7549, 13.49847
885.2371, 9.164001
885.7192, 4.150543
886.2013, 4.345093
886.6834, 7.621857
887.1655, 9.339935
887.6476, 4.450226
888.1298, 1.552582
888.6119, 4.069122
889.0940, 9.871185
889.5761, 16.74606
890.0582, 26.22525
890.5403, 30.07788
891.0225, 26.13922
891.5046, 18.76971
891.9867, 12.63504
892.4688, 8.119049
892.9509, 6.102570
893.4330, 7.440857
893.9152, 9.385986
894.3973, 11.90115
894.8794, 13.51175
895.3615, 12.31256
895.8436, 5.375397
896.3257, 3.081970
896.8079, 6.969452
897.2900, 11.73099
897.7721, 11.85498
898.2542, 8.582123
898.7363, 5.780609
899.2184, 3.776581
899.7006, 2.997406
900.1827, 4.489044
900.6648, 7.005798
901.1469, 9.807739
901.6290, 12.96417
902.1111, 15.46973
902.5933, 18.05566
903.0754, 18.51151
903.5575, 13.83414
904.0396, 5.601410
904.5217, 4.148102
905.0038, 8.949310
905.4860, 13.73322
905.9681, 14.53677
906.4502, 13.66400
906.9323, 12.14401
907.4144, 10.33142
907.8965, 10.26511
908.3787, 14.20227
908.8608, 16.72488
909.3429, 16.02548
909.8250, 13.00958
910.3071, 10.46176
910.7892, 8.347870
911.2714, 6.007965
911.7535, 2.417297
912.2356, 0.6080320
912.7177, 1.371368
913.1998, 0.2474670
913.6819, 1.937561
914.1641, 7.879364
914.6462, 10.70847
915.1283, 7.990662
915.6104, 3.386932
916.0925, 2.730743
916.5746, 5.870514
917.0568, 9.254791
917.5389, 12.64026
918.0210, 14.28146
918.5031, 10.77811
918.9852, 5.189270
919.4673, 1.044403
919.9495, 1.422791
920.4316, 0.8179020
920.9137, 5.952118
921.3958, 12.60236
921.8779, 13.64414
922.3600, 8.774902
922.8422, 7.645294
923.3243, 10.67468
923.8064, 13.50378
924.2885, 11.05841
924.7706, 7.337463
925.2527, 8.164246
925.7349, 14.20099
926.2170, 15.49979
926.6991, 0.1650390
927.1812, 11.19791
927.6633, 8.230835
928.1454, 6.033447
928.6276, 15.07065
929.1097, 18.89685
929.5918, 19.52719
930.0739, 16.86734
930.5560, 12.60849
931.0381, 7.830627
931.5203, 3.035797
932.0024, 0.6314090
932.4845, 3.262695
932.9666, 4.039795
933.4487, 2.838440
933.9308, 0.1357420
934.4130, 5.312683
934.8951, 12.67560
935.3772, 18.09122
935.8593, 20.55035
936.3414, 21.13672
936.8235, 20.61557
937.3057, 19.15619
937.7878, 16.87067
938.2699, 13.22736
938.7520, 10.06589
939.2341, 6.021057
939.7162, 4.212128
940.1984, 8.353394
940.6805, 18.79965
941.1626, 24.71545
941.6447, 25.77020
942.1268, 24.41312
942.6089, 20.93066
943.0911, 17.19724
943.5732, 15.59076
944.0553, 16.15823
944.5374, 16.09790
945.0195, 13.92651
945.5016, 11.93893
945.9838, 10.50452
946.4659, 9.880188
946.9480, 12.12354
947.4301, 16.99887
947.9122, 19.85422
948.3943, 16.46341
948.8764, 12.51099
949.3585, 15.33765
949.8406, 21.63824
950.3228, 24.70901
950.8049, 19.20007
951.2870, 15.46872
951.7691, 15.43253
952.2512, 16.49680
952.7333, 13.90024
953.2155, 8.359528
953.6976, 6.424927
954.1797, 9.506836
954.6618, 13.98615
955.1439, 18.90414
955.6260, 22.23108
956.1082, 20.91779
956.5903, 11.98270
957.0724, 8.966064
957.5545, 15.56836
958.0366, 22.34106
958.5187, 22.35782
959.0009, 17.31848
959.4830, 17.99533
959.9651, 23.32306
960.4472, 27.27448
960.9293, 27.40433
961.4114, 25.43823
961.8936, 20.49634
962.3757, 13.96664
962.8578, 12.25800
963.3399, 18.74161
963.8220, 22.68051
964.3041, 20.92621
964.7863, 16.39032
965.2684, 14.32184
965.7505, 14.27222
966.2326, 15.14658
966.7147, 17.45016
967.1968, 18.57196
967.6790, 15.19907
968.1611, 10.88318
968.6432, 9.705536
969.1253, 13.07602
969.6074, 15.69604
970.0895, 17.35593
970.5717, 18.94580
971.0538, 22.29233
971.5359, 25.89325
972.0180, 26.01041
972.5001, 22.67300
972.9822, 19.63232
973.4644, 15.73373
973.9465, 15.78696
974.4286, 26.03275
974.9107, 42.89755
975.3928, 45.55023
975.8749, 32.15079
976.3571, 20.58633
976.8392, 18.03113
977.3213, 20.02383
977.8034, 20.54697
978.2855, 20.61899
978.7676, 22.17203
979.2498, 31.29877
979.7319, 34.23877
980.2140, 24.16434
980.6961, 11.41541
981.1782, 7.794373
981.6603, 13.38373
982.1425, 18.13910
982.6246, 21.27573
983.1067, 23.18011
983.5888, 25.06519
984.0709, 25.94037
984.5530, 23.80954
985.0352, 17.62506
985.5173, 14.52213
985.9994, 16.24567
986.4815, 20.87939
986.9636, 28.56091
987.4457, 37.10010
987.9279, 40.48206
988.4100, 39.22934
988.8921, 36.57349
989.3742, 31.79123
989.8563, 26.95410
990.3384, 22.13641
990.8206, 18.78867
991.3027, 20.05658
991.7848, 28.53839
992.2669, 34.68198
992.7490, 37.36880
993.2311, 38.45520
993.7133, 41.03738
994.1954, 43.60178
994.6775, 41.91516
995.1596, 34.89987
995.6417, 28.24393
996.1238, 24.43420
996.6060, 22.31628
997.0881, 21.43005
997.5702, 21.68295
998.0523, 22.33292
998.5344, 23.54785
999.0165, 23.41882
999.4987, 20.58167
999.9808, 16.39847
1000.463, 11.47546
1000.945, 6.764374
1001.427, 4.631653
1001.909, 8.737305
1002.391, 11.33243
1002.873, 10.53589
1003.356, 8.807373
1003.838, 9.646820
1004.320, 12.76849
1004.802, 14.62518
1005.284, 14.65408
1005.766, 15.48877
1006.248, 20.77463
1006.730, 26.72833
1007.213, 30.63120
1007.695, 32.14923
1008.177, 29.36359
1008.659, 19.79999
1009.141, 12.29929
1009.623, 11.07843
1010.105, 14.13208
1010.587, 17.01373
1011.069, 19.99222
1011.552, 24.04068
1012.034, 34.85806
1012.516, 40.54163
1012.998, 31.43195
1013.480, 17.36230
1013.962, 10.75693
1014.444, 12.87082
1014.926, 14.10013
1015.409, 13.92618
1015.891, 11.35788
1016.373, 1.318390
1016.855, 9.161957
1017.337, 9.951630
1017.819, 2.8839000E-02
1018.301, 6.735931
1018.783, 4.371124
1019.265, 2.776123
1019.748, 5.809174
1020.230, 11.69943
1020.712, 14.87555
1021.194, 15.55203
1021.676, 14.76859
1022.158, 11.52524
1022.640, 9.272400
1023.122, 11.94714
1023.604, 16.27878
1024.087, 17.39752
1024.569, 13.15207
1025.051, 11.58121
1025.533, 13.24094
1026.015, 15.97308
1026.497, 19.14371
1026.979, 21.48776
1027.461, 19.55014
1027.943, 13.68506
1028.426, 9.363586
1028.908, 9.139191
1029.390, 10.59091
1029.872, 14.03235
1030.354, 17.97318
1030.836, 16.16330
1031.318, 9.142822
1031.800, 8.680511
1032.283, 21.44138
1032.765, 32.84509
1033.247, 24.93091
1033.729, 10.35950
1034.211, 4.863220
1034.693, 16.17609
1035.175, 20.92542
1035.657, 17.20685
1036.140, 12.03088
1036.622, 9.733765
1037.104, 9.925018
1037.586, 13.64175
1038.068, 19.62299
1038.550, 21.37961
1039.032, 9.927246
1039.514, 0.4492800
1039.996, 1.390320
1040.479, 2.111084
1040.961, 8.882111
1041.443, 19.27551
1041.925, 21.95166
1042.407, 13.93771
1042.889, 3.077820
1043.371, 7.437592
1043.853, 13.78806
1044.335, 9.160126
1044.818, 10.69669
1045.300, 18.01901
1045.782, 5.495972
1046.264, 4.950195
1046.746, 1.242584
1047.228, 11.02521
1047.710, 17.34680
1048.192, 18.56232
1048.675, 18.44543
1049.157, 18.85922
1049.639, 18.35974
1050.121, 16.31769
1050.603, 13.10544
1051.085, 8.209808
1051.567, 1.227356
1052.049, 0.8183590
1052.531, 2.881195
1053.014, 7.056183
1053.496, 6.712006
1053.978, 4.977295
1054.460, 4.887268
1054.942, 6.542877
1055.424, 7.737274
1055.906, 7.337219
1056.388, 8.898315
1056.870, 14.50580
1057.353, 21.02740
1057.835, 21.59335
1058.317, 18.26553
1058.799, 16.48672
1059.281, 18.84274
1059.763, 19.69638
1060.245, 14.80600
1060.727, 9.210327
1061.210, 6.505676
1061.692, 6.720428
1062.174, 6.188538
1062.656, 4.961884
1063.138, 5.744690
1063.620, 13.89987
1064.102, 21.59235
1064.584, 20.33905
1065.067, 13.38287
1065.549, 9.630585
1066.031, 11.46915
1066.513, 11.84106
1066.995, 9.508423
1067.477, 6.820007
1067.959, 6.398315
1068.441, 7.838837
1068.923, 10.68307
1069.406, 14.89160
1069.888, 19.17029
1070.370, 25.44809
1070.852, 28.62241
1071.334, 25.72678
1071.816, 18.60010
1072.298, 13.94937
1072.780, 11.62766
1073.262, 11.15015
1073.745, 12.82916
1074.227, 15.15262
1074.709, 17.41736
1075.191, 19.29559
1075.673, 20.20111
1076.155, 19.03317
1076.637, 19.20612
1077.119, 21.05014
1077.601, 22.36978
1078.084, 20.95462
1078.566, 18.43286
1079.048, 15.62854
1079.530, 13.57269
1080.012, 15.63824
1080.494, 28.62646
1080.976, 37.43753
1081.458, 39.11667
1081.941, 37.74570
1082.423, 39.64084
1082.905, 43.46555
1083.387, 43.85434
1083.869, 39.95007
1084.351, 37.40176
1084.833, 40.92862
1085.315, 45.26944
1085.797, 48.99750
1086.280, 51.25409
1086.762, 45.62180
1087.244, 32.18793
1087.726, 19.81036
1088.208, 10.33707
1088.690, 5.788116
1089.172, 13.75104
1089.654, 25.01196
1090.136, 26.93564
1090.619, 13.47534
1091.101, 6.357269
1091.583, 7.022736
1092.065, 8.874054
1092.547, 6.936279
1093.029, 3.389313
1093.511, 1.705383
1093.993, 1.964813
1094.476, 4.329010
1094.958, 11.74841
1095.440, 17.26535
1095.922, 19.37753
1096.404, 19.88657
1096.886, 22.08359
1097.368, 24.77673
1097.850, 21.12015
1098.333, 10.82001
1098.815, 3.369812
1099.297, 6.766235
1099.779, 12.74698
1100.261, 18.30606
1100.743, 22.56171
1101.225, 21.26044
1101.707, 14.48450
1102.189, 7.708252
1102.672, 2.307892
1103.154, 1.661499
1103.636, 2.716064
1104.118, 2.888702
1104.600, 3.609161
1105.082, 5.939850
1105.564, 3.717163
1106.046, 4.377197
1106.528, 12.03406
1107.011, 16.51514
1107.493, 17.81891
1107.975, 13.01028
1108.457, 5.186066
1108.939, 1.686371
1109.421, 8.640930
1109.903, 14.47046
1110.385, 19.01816
1110.868, 21.50082
1111.350, 20.01620
1111.832, 15.93063
1112.314, 14.57455
1112.796, 15.78378
1113.278, 18.55124
1113.760, 24.68964
1114.242, 29.38394
1114.724, 29.87579
1115.207, 28.26218
1115.689, 29.19858
1116.171, 32.43811
1116.653, 31.44009
1117.135, 24.51175
1117.617, 19.10355
1118.099, 23.63742
1118.581, 30.23184
1119.063, 32.57379
1119.546, 30.67230
1120.028, 28.80292
1120.510, 26.78738
1120.992, 26.70245
1121.474, 30.99380
1121.956, 33.70193
1122.438, 22.20459
1122.920, 6.899323
1123.403, 2.687775
1123.885, 18.03894
1124.367, 29.04587
1124.849, 35.30450
1125.331, 37.71021
1125.813, 35.06714
1126.295, 30.00629
1126.777, 28.60172
1127.260, 29.49969
1127.742, 28.98312
1128.224, 23.25153
1128.706, 19.55725
1129.188, 19.28320
1129.670, 20.45654
1130.152, 22.10883
1130.634, 23.55978
1131.116, 20.54843
1131.599, 13.52640
1132.081, 8.327759
1132.563, 5.867310
1133.045, 8.977020
1133.527, 23.41681
1134.009, 41.12885
1134.491, 45.50342
1134.973, 37.62732
1135.455, 33.90796
1135.938, 37.24222
1136.420, 39.80563
1136.902, 32.60065
1137.384, 24.96768
1137.866, 25.32837
1138.348, 32.27490
1138.830, 34.33304
1139.312, 31.38718
1139.795, 29.05612
1140.277, 29.25317
1140.759, 29.95505
1141.241, 29.28955
1141.723, 27.79712
1142.205, 25.87613
1142.687, 23.35321
1143.169, 21.96240
1143.651, 21.74454
1144.134, 22.69931
1144.616, 26.31650
1145.098, 29.43002
1145.580, 24.97733
1146.062, 17.28711
1146.544, 13.61188
1147.026, 20.31647
1147.508, 24.57281
1147.990, 26.55051
1148.473, 25.14740
1148.955, 15.39899
1149.437, 3.191345
1149.919, 3.752106
1150.401, 14.08429
1150.883, 21.68066
1151.365, 18.95453
1151.847, 16.71533
1152.330, 15.91782
1152.812, 17.35196
1153.294, 24.90009
1153.776, 35.32114
1154.258, 34.72440
1154.740, 23.17468
1155.222, 16.21823
1155.704, 29.15411
1156.186, 38.81409
1156.669, 35.03992
1157.151, 24.74673
1157.633, 23.02368
1158.115, 28.09708
1158.597, 28.86691
1159.079, 23.23318
1159.561, 15.76074
1160.043, 5.477936
1160.526, 1.786530
1161.008, 1.735535
1161.490, 3.813690
1161.972, 7.316559
1162.454, 8.836792
1162.936, 9.991425
1163.418, 11.37466
1163.900, 13.45886
1164.382, 19.00909
1164.865, 23.27023
1165.347, 20.61880
1165.829, 11.05551
1166.311, 7.923035
1166.793, 11.47165
1167.275, 15.07330
1167.757, 16.70135
1168.239, 15.61584
1168.721, 7.926758
1169.204, 1.232391
1169.686, 4.285339
1170.168, 1.052551
1170.650, 3.619995
1171.132, 2.935364
1171.614, 3.152466
1172.096, 8.309082
1172.578, 14.70593
1173.061, 18.50842
1173.543, 20.35724
1174.025, 21.53540
1174.507, 22.25598
1174.989, 22.52441
1175.471, 22.54321
1175.953, 21.43622
1176.435, 15.14014
1176.917, 8.530090
1177.400, 10.17688
1177.882, 18.08234
1178.364, 22.84729
1178.846, 23.07550
1179.328, 19.63885
1179.810, 11.03485
1180.292, 3.797180
1180.774, 8.094910
1181.256, 17.26385
1181.739, 20.94049
1182.221, 18.65863
1182.703, 15.91827
1183.185, 12.50378
1183.667, 11.59692
1184.149, 14.93994
1184.631, 18.68658
1185.113, 15.32690
1185.596, 8.693542
1186.078, 6.500427
1186.560, 10.07355
1187.042, 12.27301
1187.524, 11.21252
1188.006, 8.831055
1188.488, 4.339050
1188.970, 0.8391110
1189.453, 8.390381
1189.935, 20.87183
1190.417, 23.98840
1190.899, 12.06403
1191.381, 3.637878
1191.863, 2.697876
1192.345, 6.187073
1192.827, 15.30658
1193.309, 26.00836
1193.792, 26.80334
1194.274, 20.15228
1194.756, 11.55341
1195.238, 6.2683001E-02
1195.720, 6.011597
1196.202, 1.016479
1196.684, 5.079468
1197.166, 5.778809
1197.648, 3.399231
1198.131, 7.507996
1198.613, 15.76715
1199.095, 20.48608
1199.577, 15.91754
1200.059, 11.93823
1200.541, 10.88110
1201.023, 10.83374
1201.505, 11.26788
1201.988, 11.54675
1202.470, 6.779480
1202.952, 1.339905
1203.434, 5.300110
1203.916, 0.9785770
1204.398, 7.368225
1204.880, 12.95801
1205.362, 16.07819
1205.844, 12.31854
1206.327, 4.074646
1206.809, 3.661255
1207.291, 10.04224
1207.773, 14.04565
1208.255, 6.764587
1208.737, 2.531311
1209.219, 6.164673
1209.701, 12.77911
1210.183, 16.36731
1210.666, 17.62164
1211.148, 19.67889
1211.630, 22.54895
1212.112, 23.98596
1212.594, 21.61267
1213.076, 19.19043
1213.558, 17.53644
1214.040, 16.80823
1214.523, 18.43018
1215.005, 21.24750
1215.487, 19.75690
1215.969, 13.58978
1216.451, 9.145264
1216.933, 10.77588
1217.415, 13.54169
1217.897, 16.06976
1218.380, 17.83734
1218.862, 17.47382
1219.344, 15.39136
1219.826, 11.72540
1220.308, 6.341309
1220.790, 4.621826
1221.272, 15.07990
1221.754, 21.77979
1222.236, 17.02271
1222.719, 7.548401
1223.201, 10.19934
1223.683, 20.66791
1224.165, 25.73328
1224.647, 22.59003
1225.129, 16.88049
1225.611, 5.958740
1226.093, 1.745056
1226.575, 2.655518
1227.058, 0.7385860
1227.540, 1.969360
1228.022, 2.677063
1228.504, 7.142151
1228.986, 17.50244
1229.468, 26.02649
1229.950, 32.78778
1230.432, 33.17407
1230.915, 22.61340
1231.397, 6.863586
1231.879, 0.4839480
1232.361, 0.7027590
1232.843, 0.3187260
1233.325, 3.959839
1233.807, 3.737427
1234.289, 5.734253
1234.771, 14.36157
1235.254, 17.01984
1235.736, 16.01758
1236.218, 16.80389
1236.700, 18.42712
1237.182, 18.60321
1237.664, 15.81848
1238.146, 14.12830
1238.628, 14.28650
1239.110, 14.83594
1239.593, 15.18457
1240.075, 15.19092
1240.557, 13.89532
1241.039, 12.14221
1241.521, 11.91803
1242.003, 15.40063
1242.485, 16.31909
1242.967, 13.28088
1243.449, 10.00281
1243.932, 6.996216
1244.414, 5.420654
1244.896, 8.593811
1245.378, 14.47992
1245.860, 18.96338
1246.342, 20.45538
1246.824, 21.91302
1247.306, 25.33661
1247.789, 25.14404
1248.271, 13.36383
1248.753, 0.2033690
1249.235, 0.8704220
1249.717, 9.972229
1250.199, 13.82764
1250.681, 7.439331
1251.163, 3.582214
1251.646, 2.352905
1252.128, 3.164978
1252.610, 7.192383
1253.092, 11.70276
1253.574, 12.32166
1254.056, 11.68896
1254.538, 15.72729
1255.020, 27.01862
1255.502, 33.02289
1255.984, 33.34113
1256.467, 29.85321
1256.949, 18.77411
1257.431, 9.466919
1257.913, 13.27161
1258.395, 22.28271
1258.877, 24.04517
1259.359, 16.91357
1259.841, 9.210571
1260.324, 1.218750
1260.806, 2.973083
1261.288, 3.994141
1261.770, 10.15936
1262.252, 5.596375
1262.734, 1.412781
1263.216, 0.2002560
1263.698, 10.36591
1264.181, 18.34705
1264.663, 23.56586
1265.145, 24.50793
1265.627, 14.32593
1266.109, 6.709900
1266.591, 11.18250
1267.073, 18.73059
1267.555, 18.05078
1268.037, 10.75793
1268.520, 8.852112
1269.002, 12.30127
1269.484, 16.26471
1269.966, 20.14355
1270.448, 22.39252
1270.930, 21.91968
1271.412, 20.65149
1271.894, 21.28558
1272.376, 22.66943
1272.859, 20.98199
1273.341, 16.41309
1273.823, 11.14264
1274.305, 1.658569
1274.787, 1.046448
1275.269, 6.680603
1275.751, 14.87048
1276.233, 14.53308
1276.716, 8.207092
1277.198, 5.871460
1277.680, 6.744568
1278.162, 10.12720
1278.644, 19.80389
1279.126, 22.33582
1279.608, 14.58362
1280.090, 6.667419
1280.573, 11.91162
1281.055, 19.97375
1281.537, 15.45288
1282.019, 2.574646
1282.501, 2.335632
1282.983, 8.941711
1283.465, 13.74622
1283.947, 9.269592
1284.429, 5.060669
1284.911, 10.10632
1285.394, 17.75464
1285.876, 24.81281
1286.358, 25.38947
1286.840, 22.55548
1287.322, 11.73718
1287.804, 5.747314
1288.286, 5.853821
1288.768, 6.689514
1289.251, 2.197998
1289.733, 0.0000000E+00
##END=



