##NAMES=Hauyne
##RRUFFID=R070121
##IDEAL CHEMISTRY=Na_3_Ca(Si_3_Al_3_)O_12_(SO_4_)
##LOCALITY=Hesse, Germany
##OWNER=RRUFF
##SOURCE=Michael Scott
##DESCRIPTION=Blue cut gemstones
##STATUS=The identification of this mineral has been confirmed by single-crystal X-ray diffraction.
##URL=rruff.info/R070121
129.4506, 0.0000000E+00
129.9328, 5.823242
130.4149, 7.749023
130.8970, 11.22754
131.3791, 37.45996
131.8612, 70.25635
132.3433, 134.1221
132.8255, 239.9487
133.3076, 369.2222
133.7897, 474.4961
134.2718, 552.7134
134.7539, 619.4756
135.2360, 692.9731
135.7182, 776.0254
136.2003, 836.0605
136.6824, 860.7217
137.1645, 852.6592
137.6466, 849.0532
138.1287, 852.4072
138.6109, 855.9604
139.0930, 853.0420
139.5751, 846.7847
140.0572, 823.1382
140.5393, 771.0933
141.0214, 680.3794
141.5036, 606.6611
141.9857, 549.2588
142.4678, 508.7676
142.9499, 488.1426
143.4320, 493.4775
143.9141, 508.6470
144.3963, 525.9609
144.8784, 546.2646
145.3605, 567.3755
145.8426, 585.7510
146.3247, 603.2529
146.8068, 636.0522
147.2890, 692.0825
147.7711, 756.7153
148.2532, 820.7197
148.7353, 886.5928
149.2174, 948.7422
149.6995, 1003.946
150.1817, 1051.975
150.6638, 1102.624
151.1459, 1170.869
151.6280, 1235.664
152.1101, 1277.085
152.5922, 1271.213
153.0744, 1262.968
153.5565, 1263.356
154.0386, 1275.558
154.5207, 1287.019
155.0028, 1302.691
155.4849, 1315.664
155.9671, 1314.977
156.4492, 1290.771
156.9313, 1258.311
157.4134, 1220.880
157.8955, 1165.592
158.3777, 1129.967
158.8598, 1142.511
159.3419, 1185.809
159.8240, 1208.478
160.3061, 1163.155
160.7882, 1109.376
161.2704, 1087.537
161.7525, 1141.688
162.2346, 1192.251
162.7167, 1205.374
163.1988, 1185.199
163.6809, 1158.014
164.1631, 1120.153
164.6452, 1087.466
165.1273, 1076.089
165.6094, 1113.261
166.0915, 1157.159
166.5736, 1181.413
167.0558, 1185.055
167.5379, 1187.226
168.0200, 1197.795
168.5021, 1214.679
168.9842, 1234.554
169.4663, 1261.919
169.9485, 1288.395
170.4306, 1305.605
170.9127, 1311.336
171.3948, 1314.137
171.8769, 1326.502
172.3590, 1341.896
172.8412, 1344.098
173.3233, 1308.020
173.8054, 1259.719
174.2875, 1230.838
174.7696, 1228.017
175.2517, 1240.729
175.7339, 1265.007
176.2160, 1296.963
176.6981, 1314.786
177.1802, 1301.265
177.6623, 1266.480
178.1444, 1226.064
178.6266, 1176.681
179.1087, 1131.224
179.5908, 1113.484
180.0729, 1122.208
180.5550, 1136.915
181.0371, 1145.662
181.5193, 1147.756
182.0014, 1138.987
182.4835, 1107.132
182.9656, 1069.160
183.4477, 1066.840
183.9298, 1102.567
184.4120, 1140.850
184.8941, 1142.887
185.3762, 1114.285
185.8583, 1083.963
186.3404, 1058.078
186.8225, 1038.449
187.3047, 1025.624
187.7868, 1035.815
188.2689, 1045.612
188.7510, 1018.154
189.2331, 955.8184
189.7152, 895.2217
190.1974, 853.4473
190.6795, 828.5439
191.1616, 809.0205
191.6437, 795.8818
192.1258, 785.0479
192.6080, 767.5898
193.0901, 743.0576
193.5722, 722.2656
194.0543, 718.2070
194.5364, 729.2100
195.0185, 717.7236
195.5007, 672.4248
195.9828, 612.2959
196.4649, 584.0654
196.9470, 591.2178
197.4291, 606.1152
197.9112, 616.4727
198.3934, 623.0244
198.8755, 606.1230
199.3576, 554.5107
199.8397, 481.5039
200.3218, 434.9775
200.8039, 419.4258
201.2861, 414.6641
201.7682, 406.0615
202.2503, 393.2998
202.7324, 378.2998
203.2145, 359.2734
203.6966, 337.8037
204.1788, 326.4619
204.6609, 328.2773
205.1430, 333.0283
205.6251, 335.5938
206.1072, 340.3936
206.5893, 321.0010
207.0715, 257.2686
207.5536, 152.3242
208.0357, 99.96289
208.5178, 117.1807
208.9999, 159.9141
209.4820, 178.0176
209.9642, 166.4111
210.4463, 146.3066
210.9284, 121.4648
211.4105, 91.25195
211.8926, 64.29395
212.3747, 38.56641
212.8569, 18.36133
213.3390, 12.69727
213.8211, 28.94824
214.3032, 40.77734
214.7853, 36.53320
215.2674, 11.02734
215.7496, 3.432617
216.2317, 0.8369140
216.7138, 8.437500
217.1959, 3.255859
217.6780, 24.38965
218.1601, 49.83691
218.6423, 61.19629
219.1244, 51.10254
219.6065, 50.43262
220.0886, 64.57324
220.5707, 85.88770
221.0528, 94.52539
221.5350, 85.80371
222.0171, 72.78125
222.4992, 66.00098
222.9813, 83.33008
223.4634, 56.16797
223.9455, 46.82617
224.4277, 193.0732
224.9098, 259.8340
225.3919, 215.8896
225.8740, 142.2432
226.3561, 78.70996
226.8382, 22.05371
227.3204, 15.63574
227.8025, 30.37305
228.2846, 24.94629
228.7667, 10.92676
229.2488, 16.86914
229.7310, 45.69727
230.2131, 65.91602
230.6952, 66.40527
231.1773, 82.23535
231.6594, 124.8027
232.1415, 188.8760
232.6237, 232.3896
233.1058, 240.5791
233.5879, 245.7646
234.0700, 273.5557
234.5521, 341.5264
235.0342, 395.9824
235.5164, 422.8262
235.9985, 424.4307
236.4806, 445.8203
236.9627, 496.2676
237.4448, 555.4775
237.9269, 606.5547
238.4091, 639.3057
238.8912, 682.8564
239.3733, 744.9287
239.8554, 825.3633
240.3375, 900.3691
240.8196, 965.0605
241.3018, 1029.223
241.7839, 1101.786
242.2660, 1180.890
242.7481, 1272.239
243.2302, 1379.429
243.7123, 1503.185
244.1945, 1625.910
244.6766, 1746.543
245.1587, 1867.221
245.6408, 1991.948
246.1229, 2122.755
246.6050, 2253.814
247.0872, 2384.174
247.5693, 2513.825
248.0514, 2642.523
248.5335, 2769.861
249.0156, 2897.121
249.4977, 3022.623
249.9799, 3137.672
250.4620, 3267.799
250.9441, 3427.837
251.4262, 3624.820
251.9083, 3785.732
252.3904, 3899.702
252.8726, 3986.079
253.3547, 4066.910
253.8368, 4148.164
254.3189, 4213.132
254.8010, 4255.816
255.2831, 4273.951
255.7653, 4290.405
256.2474, 4310.900
256.7295, 4322.851
257.2116, 4306.086
257.6937, 4251.886
258.1758, 4188.669
258.6580, 4126.154
259.1401, 4065.955
259.6222, 3992.906
260.1043, 3910.674
260.5864, 3812.426
261.0685, 3683.223
261.5507, 3504.593
262.0328, 3341.358
262.5149, 3220.099
262.9970, 3150.185
263.4791, 3048.659
263.9612, 2900.491
264.4434, 2735.963
264.9255, 2599.781
265.4076, 2497.873
265.8897, 2403.529
266.3718, 2307.301
266.8539, 2209.191
267.3361, 2120.707
267.8182, 2048.271
268.3003, 1981.002
268.7824, 1891.537
269.2645, 1762.300
269.7466, 1665.687
270.2288, 1642.487
270.7109, 1703.401
271.1930, 1705.848
271.6751, 1633.572
272.1572, 1527.865
272.6393, 1444.690
273.1215, 1382.084
273.6036, 1344.183
274.0857, 1337.612
274.5678, 1364.405
275.0499, 1401.978
275.5320, 1460.373
276.0142, 1506.230
276.4963, 1481.710
276.9784, 1377.486
277.4605, 1274.296
277.9426, 1198.026
278.4247, 1147.373
278.9069, 1109.674
279.3890, 1085.743
279.8711, 1074.779
280.3532, 1080.436
280.8354, 1107.662
281.3175, 1136.467
281.7996, 1153.577
282.2817, 1156.454
282.7638, 1164.244
283.2459, 1182.409
283.7281, 1200.658
284.2102, 1202.033
284.6923, 1184.738
285.1744, 1158.920
285.6565, 1121.000
286.1386, 1078.811
286.6208, 1069.813
287.1029, 1097.493
287.5850, 1131.248
288.0671, 1135.276
288.5492, 1111.533
289.0313, 1077.619
289.5135, 1037.479
289.9956, 994.0195
290.4777, 951.0420
290.9598, 905.9580
291.4419, 866.3721
291.9240, 846.8447
292.4062, 844.5791
292.8883, 838.9785
293.3704, 822.5762
293.8525, 795.6094
294.3346, 756.1543
294.8167, 704.6973
295.2989, 652.3301
295.7810, 609.7148
296.2631, 575.6787
296.7452, 544.6611
297.2273, 514.9668
297.7094, 487.8838
298.1916, 465.9541
298.6737, 449.0176
299.1558, 430.5127
299.6379, 395.6113
300.1200, 354.2598
300.6021, 329.4941
301.0843, 340.8506
301.5664, 368.3623
302.0485, 393.6162
302.5306, 416.2061
303.0127, 417.6592
303.4948, 361.7930
303.9770, 277.6543
304.4591, 214.8027
304.9412, 211.5117
305.4233, 223.3154
305.9054, 198.6797
306.3875, 141.3018
306.8697, 93.67578
307.3518, 97.51270
307.8339, 125.8750
308.3160, 143.4229
308.7981, 132.4805
309.2802, 112.5605
309.7624, 95.69824
310.2445, 81.82715
310.7266, 70.95605
311.2087, 65.72266
311.6908, 62.29004
312.1729, 54.95605
312.6551, 16.44824
313.1372, 3.117188
313.6193, 82.80957
314.1014, 228.7461
314.5835, 319.7354
315.0656, 254.2803
315.5478, 138.9922
316.0299, 55.80273
316.5120, 35.33496
316.9941, 33.66992
317.4762, 44.33789
317.9583, 63.10449
318.4405, 75.57812
318.9226, 76.00000
319.4047, 69.57812
319.8868, 58.46875
320.3689, 38.77637
320.8510, 21.00586
321.3332, 4.574219
321.8153, 8.666016
322.2974, 13.64258
322.7795, 0.1621090
323.2616, 16.16309
323.7437, 27.63672
324.2259, 35.69922
324.7080, 36.08008
325.1901, 21.04883
325.6722, 1.491211
326.1543, 15.20312
326.6364, 9.041016
327.1186, 3.258789
327.6007, 3.806641
328.0828, 11.59473
328.5649, 24.39355
329.0470, 48.60449
329.5291, 75.67871
330.0113, 91.99512
330.4934, 88.71094
330.9755, 86.50586
331.4576, 93.90039
331.9397, 116.2236
332.4218, 120.6182
332.9040, 95.66113
333.3861, 61.53906
333.8682, 45.92871
334.3503, 59.82031
334.8324, 67.93359
335.3145, 59.86816
335.7967, 34.75098
336.2788, 9.344727
336.7609, 23.67383
337.2430, 45.29395
337.7251, 24.33789
338.2072, 55.26758
338.6894, 102.9863
339.1715, 88.04297
339.6536, 21.87793
340.1357, 8.951172
340.6178, 3.557617
341.0999, 23.53418
341.5821, 10.72461
342.0642, 35.90430
342.5463, 54.46387
343.0284, 21.50781
343.5105, 39.99414
343.9926, 61.23633
344.4748, 40.61914
344.9569, 4.920898
345.4390, 36.38672
345.9211, 79.01074
346.4032, 94.11719
346.8853, 67.35645
347.3675, 27.73242
347.8496, 32.31152
348.3317, 76.09375
348.8138, 116.0449
349.2959, 110.1406
349.7780, 80.92383
350.2602, 73.84375
350.7423, 91.73926
351.2244, 141.8867
351.7065, 269.4619
352.1887, 445.9424
352.6708, 575.0205
353.1529, 588.6279
353.6350, 533.0537
354.1171, 449.7363
354.5992, 335.0381
355.0814, 237.0654
355.5635, 201.6543
356.0456, 208.4805
356.5277, 221.7832
357.0098, 237.3643
357.4919, 245.6162
357.9741, 231.4893
358.4562, 193.6309
358.9383, 170.3281
359.4204, 198.3262
359.9025, 246.0303
360.3846, 278.2461
360.8668, 278.7324
361.3489, 265.9238
361.8310, 237.9473
362.3131, 197.2910
362.7952, 171.4092
363.2773, 179.6777
363.7595, 199.4619
364.2416, 214.9883
364.7237, 218.8848
365.2058, 223.4189
365.6879, 231.2217
366.1700, 241.4639
366.6522, 249.9355
367.1343, 254.2588
367.6164, 258.2158
368.0985, 263.5938
368.5806, 268.8662
369.0627, 278.3027
369.5449, 301.2031
370.0270, 326.7305
370.5091, 330.4834
370.9912, 296.4131
371.4733, 263.0049
371.9554, 243.8701
372.4376, 243.8584
372.9197, 237.7100
373.4018, 217.1953
373.8839, 198.1807
374.3660, 210.0840
374.8481, 268.0840
375.3303, 307.4082
375.8124, 301.2109
376.2945, 251.7627
376.7766, 225.1260
377.2587, 225.9111
377.7408, 237.4707
378.2230, 236.4424
378.7051, 221.0488
379.1872, 234.7021
379.6693, 302.8232
380.1514, 400.2764
380.6335, 446.8779
381.1157, 441.8164
381.5978, 412.6270
382.0799, 368.8721
382.5620, 316.4541
383.0441, 279.5479
383.5262, 265.0654
384.0084, 261.2656
384.4905, 248.8359
384.9726, 230.9688
385.4547, 223.9990
385.9368, 248.6367
386.4189, 286.1650
386.9011, 310.7168
387.3832, 320.2656
387.8653, 314.8975
388.3474, 289.3467
388.8295, 250.0498
389.3116, 209.1504
389.7938, 161.1152
390.2759, 121.3506
390.7580, 108.0986
391.2401, 124.0830
391.7222, 136.0234
392.2043, 122.4922
392.6865, 96.22461
393.1686, 71.35547
393.6507, 43.26270
394.1328, 27.63184
394.6149, 38.13672
395.0970, 70.20312
395.5792, 90.30273
396.0613, 73.21387
396.5434, 49.24023
397.0255, 39.26465
397.5076, 54.36621
397.9897, 76.78516
398.4719, 117.5742
398.9540, 163.0742
399.4361, 176.1738
399.9182, 115.4453
400.4003, 69.78516
400.8824, 76.01660
401.3646, 159.9326
401.8467, 210.7559
402.3288, 220.3340
402.8109, 209.2461
403.2930, 202.9277
403.7751, 197.6865
404.2573, 204.1084
404.7394, 225.2344
405.2215, 260.2803
405.7036, 303.5508
406.1857, 358.0762
406.6678, 415.6924
407.1500, 466.0752
407.6321, 508.6123
408.1142, 555.0830
408.5963, 607.9121
409.0784, 667.1387
409.5605, 730.3604
410.0427, 796.1982
410.5248, 868.3408
411.0069, 962.5967
411.4890, 1066.618
411.9711, 1138.515
412.4532, 1164.411
412.9354, 1185.807
413.4175, 1251.945
413.8996, 1353.791
414.3817, 1463.748
414.8638, 1571.334
415.3459, 1676.920
415.8281, 1779.926
416.3102, 1880.886
416.7923, 1975.475
417.2744, 2051.127
417.7565, 2121.229
418.2386, 2199.176
418.7208, 2293.082
419.2029, 2393.098
419.6850, 2490.836
420.1671, 2587.791
420.6492, 2705.249
421.1313, 2875.827
421.6135, 3050.790
422.0956, 3202.303
422.5777, 3287.936
423.0598, 3402.449
423.5420, 3572.267
424.0241, 3776.335
424.5062, 3967.369
424.9883, 4127.678
425.4704, 4291.303
425.9525, 4475.635
426.4347, 4688.530
426.9168, 4880.098
427.3989, 5043.881
427.8810, 5195.506
428.3631, 5350.379
428.8452, 5502.336
429.3274, 5676.667
429.8095, 5881.416
430.2916, 6111.887
430.7737, 6330.682
431.2558, 6531.630
431.7379, 6744.619
432.2201, 7005.052
432.7022, 7308.716
433.1843, 7585.791
433.6664, 7821.537
434.1485, 8029.985
434.6306, 8222.818
435.1128, 8402.691
435.5949, 8589.134
436.0770, 8818.949
436.5591, 9056.660
437.0412, 9221.405
437.5233, 9305.647
438.0055, 9375.368
438.4876, 9501.423
438.9697, 9650.062
439.4518, 9762.156
439.9339, 9779.935
440.4160, 9784.090
440.8982, 9842.668
441.3803, 9943.828
441.8624, 10012.47
442.3445, 9990.838
442.8266, 9938.143
443.3087, 9894.067
443.7909, 9886.042
444.2730, 9858.101
444.7551, 9799.110
445.2372, 9715.407
445.7193, 9620.461
446.2014, 9497.705
446.6836, 9378.548
447.1657, 9276.142
447.6478, 9198.174
448.1299, 9094.828
448.6120, 8956.536
449.0941, 8802.033
449.5763, 8651.394
450.0584, 8509.370
450.5405, 8366.483
451.0226, 8218.157
451.5047, 8067.804
451.9868, 7926.191
452.4690, 7794.571
452.9511, 7667.713
453.4332, 7533.759
453.9153, 7394.080
454.3974, 7299.825
454.8795, 7269.271
455.3617, 7240.150
455.8438, 7114.936
456.3259, 6908.125
456.8080, 6687.467
457.2901, 6485.683
457.7722, 6290.735
458.2544, 6073.375
458.7365, 5834.637
459.2186, 5634.367
459.7007, 5569.176
460.1828, 5549.047
460.6649, 5454.381
461.1471, 5218.144
461.6292, 4956.643
462.1113, 4715.302
462.5934, 4497.202
463.0755, 4308.414
463.5576, 4175.275
464.0398, 4050.581
464.5219, 3908.365
465.0040, 3739.111
465.4861, 3580.312
465.9682, 3442.949
466.4503, 3316.961
466.9325, 3189.773
467.4146, 3048.820
467.8967, 2924.801
468.3788, 2829.715
468.8609, 2758.281
469.3430, 2670.150
469.8252, 2556.916
470.3073, 2441.957
470.7894, 2337.529
471.2715, 2243.723
471.7536, 2160.699
472.2357, 2089.787
472.7179, 2027.420
473.2000, 1975.092
473.6821, 1932.539
474.1642, 1872.453
474.6463, 1780.477
475.1284, 1663.938
475.6106, 1534.895
476.0927, 1392.855
476.5748, 1261.730
477.0569, 1160.988
477.5390, 1083.729
478.0211, 1017.434
478.5033, 957.8516
478.9854, 911.1543
479.4675, 897.3984
479.9496, 901.8672
480.4317, 888.6074
480.9138, 821.3535
481.3960, 746.1934
481.8781, 694.3281
482.3602, 672.5234
482.8423, 639.3555
483.3244, 569.9121
483.8065, 490.0645
484.2887, 423.0723
484.7708, 373.6465
485.2529, 336.3145
485.7350, 313.2402
486.2171, 302.0430
486.6992, 295.1504
487.1814, 304.2988
487.6635, 299.9590
488.1456, 264.9395
488.6277, 191.2324
489.1098, 129.1914
489.5919, 80.61328
490.0741, 39.73633
490.5562, 2.972656
491.0383, 48.02539
491.5204, 81.48438
492.0026, 95.72461
492.4847, 98.61523
492.9668, 110.7031
493.4489, 131.4141
493.9310, 151.3438
494.4131, 159.3223
494.8953, 163.0801
495.3774, 180.3809
495.8595, 217.5625
496.3416, 249.5410
496.8237, 247.2207
497.3058, 226.9238
497.7880, 215.6016
498.2701, 231.4668
498.7522, 253.2539
499.2343, 279.6719
499.7164, 307.9668
500.1985, 311.1641
500.6807, 240.3711
501.1628, 170.9121
501.6449, 148.8945
502.1270, 230.2148
502.6091, 276.9336
503.0912, 271.8457
503.5734, 236.0215
504.0555, 202.3242
504.5376, 170.4531
505.0197, 143.6094
505.5018, 129.8281
505.9839, 126.3672
506.4661, 84.83203
506.9482, 7.021484
507.4303, 98.69141
507.9124, 143.9590
508.3945, 146.6250
508.8766, 155.9727
509.3588, 177.8477
509.8409, 209.5645
510.3230, 244.3770
510.8051, 284.9805
511.2872, 339.9180
511.7693, 420.4375
512.2515, 513.6934
512.7336, 606.4102
513.2157, 698.6035
513.6978, 794.2500
514.1799, 900.0547
514.6620, 1008.367
515.1442, 1110.238
515.6263, 1191.730
516.1084, 1287.975
516.5905, 1412.201
517.0726, 1560.182
517.5547, 1720.895
518.0369, 1890.102
518.5190, 2076.393
519.0011, 2284.811
519.4832, 2516.352
519.9653, 2749.393
520.4474, 2971.822
520.9296, 3207.986
521.4117, 3474.951
521.8938, 3771.486
522.3759, 4102.828
522.8580, 4467.512
523.3401, 4870.590
523.8223, 5340.238
524.3044, 5871.818
524.7865, 6426.814
525.2686, 6964.195
525.7507, 7514.102
526.2328, 8141.783
526.7150, 8841.812
527.1971, 9612.859
527.6792, 10452.07
528.1613, 11356.04
528.6434, 12352.71
529.1255, 13443.58
529.6077, 14607.79
530.0898, 15822.21
530.5719, 17095.84
531.0540, 18473.87
531.5361, 19971.79
532.0182, 21562.84
532.5004, 23227.74
532.9825, 24979.46
533.4646, 26823.21
533.9467, 28798.26
534.4288, 30847.97
534.9109, 32968.89
535.3931, 35144.39
535.8752, 37402.46
536.3573, 39751.53
536.8394, 42165.29
537.3215, 44655.48
537.8036, 47224.25
538.2858, 49763.39
538.7679, 52247.88
539.2500, 54694.58
539.7321, 57246.88
540.2142, 59904.25
540.6964, 62464.05
541.1785, 64806.39
541.6606, 66946.07
542.1427, 68883.70
542.6248, 70638.59
543.1069, 72104.45
543.5891, 73271.95
544.0712, 74075.88
544.5533, 74414.23
545.0354, 74252.44
545.5175, 73612.87
545.9996, 72519.65
546.4818, 70958.84
546.9639, 68895.02
547.4460, 66146.19
547.9281, 63030.38
548.4102, 59643.70
548.8923, 55932.99
549.3745, 52127.18
549.8566, 48176.23
550.3387, 44181.35
550.8208, 40213.25
551.3029, 36205.11
551.7850, 32450.28
552.2672, 28961.02
552.7493, 25756.75
553.2314, 22906.10
553.7135, 20407.54
554.1956, 18172.35
554.6777, 16162.80
555.1599, 14373.66
555.6420, 12838.12
556.1241, 11549.91
556.6062, 10433.74
557.0883, 9464.945
557.5704, 8628.424
558.0526, 7918.895
558.5347, 7382.275
559.0168, 6903.939
559.4989, 6440.549
559.9810, 5991.586
560.4631, 5577.977
560.9453, 5194.096
561.4274, 4862.238
561.9095, 4606.016
562.3916, 4425.879
562.8737, 4245.482
563.3558, 4057.195
563.8380, 3880.566
564.3201, 3719.916
564.8022, 3562.535
565.2843, 3507.264
565.7664, 3595.479
566.2485, 3723.822
566.7307, 3709.725
567.2128, 3563.156
567.6949, 3448.334
568.1770, 3433.002
568.6591, 3474.371
569.1412, 3493.137
569.6234, 3495.229
570.1055, 3519.994
570.5876, 3597.479
571.0697, 3707.625
571.5518, 3833.035
572.0339, 3973.969
572.5161, 4122.840
572.9982, 4285.658
573.4803, 4451.100
573.9624, 4604.676
574.4445, 4764.137
574.9266, 4888.592
575.4088, 4938.768
575.8909, 4952.977
576.3730, 5045.123
576.8551, 5271.088
577.3372, 5467.953
577.8193, 5568.242
578.3015, 5575.055
578.7836, 5605.803
579.2657, 5668.387
579.7478, 5716.738
580.2299, 5702.824
580.7120, 5637.990
581.1942, 5575.096
581.6763, 5523.137
582.1584, 5469.426
582.6405, 5412.031
583.1226, 5341.725
583.6047, 5240.125
584.0869, 5076.305
584.5690, 4898.617
585.0511, 4740.920
585.5332, 4597.639
586.0153, 4439.490
586.4974, 4218.799
586.9796, 4012.117
587.4617, 3866.500
587.9438, 3817.898
588.4259, 3715.928
588.9080, 3534.023
589.3901, 3322.486
589.8723, 3126.236
590.3544, 2942.895
590.8365, 2778.496
591.3186, 2634.025
591.8007, 2506.539
592.2828, 2400.566
592.7650, 2314.369
593.2471, 2208.924
593.7292, 2037.385
594.2113, 1847.756
594.6934, 1739.715
595.1755, 1706.713
595.6577, 1673.064
596.1398, 1573.506
596.6219, 1456.170
597.1040, 1368.451
597.5862, 1324.141
598.0683, 1288.766
598.5504, 1245.846
599.0325, 1206.611
599.5146, 1184.234
599.9968, 1180.154
600.4789, 1194.299
600.9610, 1233.264
601.4431, 1289.424
601.9252, 1340.078
602.4073, 1382.500
602.8895, 1426.922
603.3716, 1475.104
603.8537, 1527.434
604.3358, 1591.188
604.8179, 1665.510
605.3000, 1749.445
605.7822, 1854.092
606.2643, 1965.898
606.7464, 2054.646
607.2285, 2110.840
607.7106, 2169.924
608.1927, 2270.188
608.6749, 2386.295
609.1570, 2479.828
609.6391, 2541.629
610.1212, 2577.777
610.6033, 2585.584
611.0854, 2570.395
611.5676, 2548.588
612.0497, 2499.252
612.5318, 2466.502
613.0139, 2471.586
613.4960, 2518.979
613.9781, 2535.988
614.4603, 2513.969
614.9424, 2473.457
615.4245, 2424.311
615.9066, 2368.801
616.3887, 2340.100
616.8708, 2349.365
617.3530, 2366.045
617.8351, 2340.145
618.3172, 2287.191
618.7993, 2246.709
619.2814, 2240.850
619.7635, 2236.795
620.2457, 2214.857
620.7278, 2181.125
621.2099, 2149.871
621.6920, 2133.662
622.1741, 2117.705
622.6563, 2097.527
623.1384, 2071.398
623.6205, 2022.865
624.1026, 1935.041
624.5847, 1845.797
625.0668, 1778.219
625.5490, 1735.326
626.0311, 1688.537
626.5132, 1641.738
626.9953, 1587.613
627.4774, 1504.070
627.9595, 1397.688
628.4417, 1318.133
628.9238, 1281.863
629.4059, 1266.652
629.8880, 1255.918
630.3701, 1247.516
630.8522, 1231.691
631.3344, 1205.014
631.8165, 1168.449
632.2986, 1106.041
632.7807, 1018.230
633.2628, 965.8301
633.7449, 1005.338
634.2271, 1056.654
634.7092, 1071.373
635.1913, 1025.248
635.6734, 1012.955
636.1555, 1049.438
636.6376, 1101.947
637.1198, 1137.764
637.6019, 1156.768
638.0840, 1164.439
638.5661, 1157.693
639.0482, 1140.629
639.5303, 1112.338
640.0125, 1082.494
640.4946, 1086.826
640.9767, 1183.000
641.4588, 1285.170
641.9409, 1304.734
642.4230, 1254.900
642.9052, 1194.969
643.3873, 1131.582
643.8694, 1082.064
644.3515, 1061.207
644.8336, 1079.070
645.3157, 1081.400
645.7979, 1059.475
646.2800, 1026.895
646.7621, 993.7227
647.2442, 961.2969
647.7263, 919.8027
648.2084, 861.5684
648.6906, 805.7227
649.1727, 794.4570
649.6548, 819.7793
650.1369, 816.2910
650.6190, 752.8359
651.1011, 668.2344
651.5833, 614.4629
652.0654, 584.4434
652.5475, 555.9902
653.0296, 519.0684
653.5117, 478.9355
653.9938, 443.4844
654.4760, 411.6387
654.9581, 362.8457
655.4402, 258.1309
655.9223, 165.1094
656.4044, 121.7266
656.8865, 146.2773
657.3687, 149.0566
657.8508, 125.9199
658.3329, 87.74219
658.8150, 39.85938
659.2971, 17.12695
659.7792, 61.62500
660.2614, 90.02734
660.7435, 107.5195
661.2256, 121.6211
661.7077, 131.1641
662.1898, 132.9062
662.6719, 120.6621
663.1541, 105.0254
663.6362, 85.78516
664.1183, 67.88281
664.6004, 67.95312
665.0825, 119.1719
665.5646, 162.6816
666.0468, 169.8203
666.5289, 140.6836
667.0110, 120.1895
667.4931, 107.3594
667.9752, 104.7988
668.4573, 117.6523
668.9395, 146.7402
669.4216, 168.2754
669.9037, 180.7168
670.3858, 190.1895
670.8679, 212.7383
671.3500, 237.0801
671.8322, 230.7793
672.3143, 178.0938
672.7964, 117.6719
673.2785, 69.20117
673.7606, 35.52344
674.2427, 21.72852
674.7249, 51.32617
675.2070, 76.69336
675.6891, 91.68555
676.1712, 92.26367
676.6533, 61.64648
677.1354, 31.35352
677.6176, 97.56445
678.0997, 101.6445
678.5818, 51.47070
679.0639, 2.531250
679.5460, 46.44922
680.0281, 79.00000
680.5103, 74.03320
680.9924, 45.91602
681.4745, 31.08398
681.9566, 32.32227
682.4387, 23.79102
682.9208, 36.16602
683.4030, 104.6641
683.8851, 135.3711
684.3672, 103.4160
684.8493, 68.01367
685.3314, 29.45703
685.8135, 1.113281
686.2957, 0.5703130
686.7778, 50.54883
687.2599, 81.82031
687.7420, 82.24414
688.2241, 62.95508
688.7062, 41.63086
689.1884, 17.91602
689.6705, 15.92188
690.1526, 58.97461
690.6347, 117.7559
691.1168, 136.6035
691.5989, 122.4355
692.0811, 107.8105
692.5632, 115.6074
693.0453, 126.2871
693.5274, 126.1582
694.0095, 114.4316
694.4916, 100.5039
694.9738, 69.28711
695.4559, 52.00586
695.9380, 71.34961
696.4201, 146.1523
696.9022, 172.8965
697.3843, 131.7148
697.8665, 81.53516
698.3486, 86.53516
698.8307, 141.6328
699.3128, 186.2832
699.7949, 212.7344
700.2770, 227.2266
700.7592, 233.5234
701.2413, 233.9180
701.7234, 231.7617
702.2055, 224.9902
702.6876, 220.4102
703.1697, 223.2812
703.6519, 230.6406
704.1340, 236.1621
704.6161, 228.9297
705.0982, 234.3184
705.5803, 261.5254
706.0624, 305.9141
706.5446, 351.2910
707.0267, 407.1367
707.5088, 442.3828
707.9909, 431.8164
708.4730, 389.3457
708.9551, 361.5762
709.4373, 348.5762
709.9194, 350.9219
710.4015, 377.8652
710.8836, 415.0898
711.3657, 450.5449
711.8478, 483.5820
712.3300, 507.9219
712.8121, 522.6055
713.2942, 527.1953
713.7763, 518.2773
714.2584, 478.0234
714.7405, 466.3613
715.2227, 494.8496
715.7048, 536.7539
716.1869, 560.4473
716.6690, 565.7891
717.1511, 569.5508
717.6332, 572.3887
718.1154, 577.8906
718.5975, 595.5781
719.0796, 620.1250
719.5617, 639.1660
720.0438, 645.4258
720.5259, 648.6777
721.0081, 653.4180
721.4902, 659.4297
721.9723, 666.1562
722.4544, 682.6035
722.9365, 683.2305
723.4186, 652.1953
723.9008, 601.3262
724.3829, 587.6465
724.8650, 619.9727
725.3471, 654.6230
725.8292, 669.6543
726.3113, 669.3496
726.7935, 663.0234
727.2756, 653.3027
727.7577, 679.0508
728.2398, 818.4863
728.7219, 977.9414
729.2040, 1064.584
729.6862, 1070.770
730.1683, 1017.557
730.6504, 800.2852
731.1325, 604.2773
731.6146, 582.9355
732.0967, 837.6172
732.5789, 971.2246
733.0610, 953.1387
733.5431, 861.6621
734.0252, 768.2461
734.5073, 674.6289
734.9894, 582.0117
735.4716, 481.5371
735.9537, 394.3594
736.4358, 344.5703
736.9179, 326.1074
737.4000, 333.1934
737.8821, 393.6016
738.3643, 437.3555
738.8464, 407.5117
739.3286, 340.1973
739.8107, 301.1426
740.2928, 339.6680
740.7749, 360.0078
741.2570, 340.1055
741.7391, 293.4785
742.2213, 257.5234
742.7034, 230.3965
743.1855, 224.4980
743.6676, 257.9551
744.1497, 307.8086
744.6318, 319.2969
745.1140, 297.3594
745.5961, 273.8887
746.0782, 273.6094
746.5603, 272.4648
747.0424, 250.2754
747.5245, 209.1094
748.0067, 172.1094
748.4888, 134.8359
748.9709, 110.5000
749.4530, 102.7363
749.9351, 111.6094
750.4172, 147.3672
750.8994, 223.9297
751.3815, 280.9453
751.8636, 259.9746
752.3457, 181.5996
752.8278, 124.7168
753.3099, 94.37891
753.7921, 80.49219
754.2742, 90.43555
754.7563, 103.5234
755.2384, 94.08984
755.7205, 46.62891
756.2026, 15.07812
756.6848, 38.35938
757.1669, 70.48242
757.6490, 70.49805
758.1311, 18.17188
758.6132, 11.40039
759.0953, 8.652344
759.5775, 5.058594
760.0596, 1.644531
760.5417, 24.39453
761.0238, 30.29492
761.5059, 3.566406
761.9880, 16.81055
762.4702, 38.86914
762.9523, 122.2324
763.4344, 154.4199
763.9165, 40.96875
764.3986, 49.42188
764.8807, 51.52539
765.3629, 4.634766
765.8450, 9.804688
766.3271, 26.98242
766.8092, 51.33594
767.2913, 47.39453
767.7734, 26.63477
768.2556, 13.78516
768.7377, 8.912109
769.2198, 12.68555
769.7019, 21.95312
770.1840, 43.19922
770.6661, 102.2109
771.1483, 182.2891
771.6304, 231.4688
772.1125, 188.3770
772.5946, 148.0742
773.0767, 161.0996
773.5588, 218.1113
774.0410, 236.9492
774.5231, 189.6543
775.0052, 165.8906
775.4873, 216.9492
775.9694, 321.6953
776.4515, 366.0527
776.9337, 352.0156
777.4158, 335.6348
777.8979, 350.1426
778.3800, 385.1387
778.8621, 435.1582
779.3442, 497.8711
779.8264, 555.3457
780.3085, 595.4980
780.7906, 631.8496
781.2727, 671.9277
781.7548, 716.1191
782.2369, 764.5039
782.7191, 822.4102
783.2012, 872.0176
783.6833, 893.7227
784.1654, 892.2539
784.6475, 904.7617
785.1296, 932.3301
785.6118, 975.5371
786.0939, 1050.764
786.5760, 1135.406
787.0581, 1197.957
787.5402, 1232.184
788.0223, 1264.344
788.5045, 1301.078
788.9866, 1340.803
789.4687, 1381.289
789.9508, 1421.713
790.4329, 1465.350
790.9150, 1510.602
791.3972, 1564.004
791.8793, 1638.504
792.3614, 1729.379
792.8435, 1818.680
793.3256, 1904.723
793.8077, 1980.387
794.2899, 2030.779
794.7720, 2071.189
795.2541, 2124.420
795.7362, 2206.053
796.2183, 2276.855
796.7004, 2327.342
797.1826, 2363.480
797.6647, 2390.906
798.1468, 2410.676
798.6289, 2417.182
799.1110, 2405.529
799.5931, 2391.797
800.0753, 2403.461
800.5574, 2432.514
801.0395, 2450.111
801.5216, 2446.986
802.0037, 2437.863
802.4858, 2432.074
802.9680, 2428.348
803.4501, 2424.986
803.9322, 2425.895
804.4143, 2421.254
804.8964, 2409.543
805.3785, 2392.576
805.8607, 2371.562
806.3428, 2345.443
806.8249, 2324.211
807.3070, 2312.418
807.7891, 2300.240
808.2712, 2278.725
808.7534, 2244.695
809.2355, 2186.922
809.7176, 2077.826
810.1997, 1979.309
810.6818, 1935.492
811.1639, 1923.461
811.6461, 1902.826
812.1282, 1855.146
812.6103, 1819.215
813.0924, 1807.262
813.5745, 1802.609
814.0566, 1767.742
814.5388, 1703.242
815.0209, 1638.301
815.5030, 1576.150
815.9851, 1525.717
816.4672, 1514.105
816.9493, 1522.361
817.4315, 1508.379
817.9136, 1426.643
818.3957, 1350.875
818.8778, 1310.598
819.3599, 1295.773
819.8420, 1280.033
820.3242, 1266.008
820.8063, 1236.900
821.2884, 1188.049
821.7705, 1135.604
822.2526, 1089.465
822.7347, 1050.189
823.2169, 1027.916
823.6990, 1039.365
824.1811, 1054.096
824.6632, 1045.184
825.1453, 1018.793
825.6274, 985.8652
826.1096, 924.1992
826.5917, 883.6113
827.0738, 881.7598
827.5559, 905.2520
828.0380, 920.7012
828.5201, 928.1953
829.0023, 927.5293
829.4844, 917.1855
829.9665, 901.0430
830.4486, 880.2910
830.9307, 858.4629
831.4128, 846.1680
831.8950, 864.0273
832.3771, 877.7285
832.8592, 852.7715
833.3413, 811.3867
833.8234, 813.8008
834.3055, 913.5488
834.7877, 963.2109
835.2698, 919.9629
835.7519, 824.7773
836.2340, 775.8262
836.7161, 770.4160
837.1982, 774.5020
837.6804, 780.0684
838.1625, 783.5430
838.6446, 780.9062
839.1267, 773.0059
839.6088, 761.7266
840.0909, 743.6445
840.5731, 727.8438
841.0552, 706.7773
841.5373, 691.7949
842.0194, 713.3418
842.5015, 783.2383
842.9836, 841.8652
843.4658, 882.5957
843.9479, 892.6621
844.4300, 824.9414
844.9121, 705.0371
845.3942, 608.8027
845.8763, 573.4414
846.3585, 559.8711
846.8406, 557.2949
847.3227, 558.9941
847.8048, 551.1582
848.2869, 522.0488
848.7690, 500.1035
849.2512, 488.4785
849.7333, 486.3027
850.2154, 500.5664
850.6975, 527.8750
851.1796, 529.0273
851.6617, 488.2383
852.1439, 428.8281
852.6260, 356.5859
853.1081, 287.7793
853.5902, 249.0078
854.0723, 280.5273
854.5544, 303.2285
855.0366, 289.4375
855.5187, 266.0508
856.0008, 271.7402
856.4829, 313.9160
856.9650, 345.3379
857.4471, 359.4199
857.9293, 357.8984
858.4114, 333.5625
858.8935, 296.0586
859.3756, 268.3359
859.8577, 259.8965
860.3398, 255.2812
860.8220, 257.5234
861.3041, 253.9609
861.7862, 225.9727
862.2683, 146.7871
862.7504, 101.0137
863.2325, 96.79297
863.7147, 117.0156
864.1968, 156.2812
864.6789, 205.8613
865.1610, 216.0547
865.6431, 172.9102
866.1252, 124.2344
866.6074, 103.6426
867.0895, 104.5137
867.5716, 122.8965
868.0537, 172.2305
868.5358, 209.1426
869.0179, 235.6309
869.5001, 238.7012
869.9822, 201.8789
870.4643, 121.8086
870.9464, 75.83008
871.4285, 70.27734
871.9106, 73.69141
872.3928, 47.76758
872.8749, 17.29883
873.3570, 25.42773
873.8391, 83.46875
874.3212, 118.4805
874.8033, 89.53320
875.2855, 43.11328
875.7676, 3.201172
876.2497, 33.71875
876.7318, 43.62695
877.2139, 25.39844
877.6960, 17.31055
878.1782, 94.98438
878.6603, 189.4434
879.1424, 277.3262
879.6245, 353.4902
880.1067, 377.6191
880.5888, 291.8555
881.0709, 177.2207
881.5530, 73.00391
882.0352, 17.32812
882.5173, 80.96875
882.9994, 118.2793
883.4815, 126.5566
883.9636, 92.65625
884.4457, 31.97070
884.9279, 5.263672
885.4100, 6.263672
885.8921, 2.710938
886.3742, 23.86133
886.8563, 55.25586
887.3384, 68.17773
887.8206, 72.63086
888.3027, 124.3418
888.7848, 310.7715
889.2669, 414.6621
889.7490, 351.3711
890.2311, 179.4648
890.7133, 84.23242
891.1954, 64.30469
891.6775, 68.23438
892.1596, 75.07031
892.6417, 81.41406
893.1238, 89.47266
893.6060, 100.4746
894.0881, 108.9258
894.5702, 108.7109
895.0523, 106.7637
895.5344, 104.1738
896.0165, 104.2207
896.4987, 118.0176
896.9808, 147.6777
897.4629, 152.3008
897.9450, 109.9727
898.4271, 64.94727
898.9092, 80.55469
899.3914, 127.0137
899.8735, 155.3047
900.3556, 144.9297
900.8377, 131.9766
901.3198, 121.1055
901.8019, 115.6953
902.2841, 120.3926
902.7662, 137.9395
903.2483, 152.3301
903.7304, 163.3594
904.2125, 167.6934
904.6946, 156.4199
905.1768, 137.3242
905.6589, 124.0703
906.1410, 119.2012
906.6231, 112.5215
907.1052, 87.21680
907.5873, 69.04297
908.0695, 76.90039
908.5516, 113.2871
909.0337, 146.7969
909.5158, 177.8770
909.9979, 203.2793
910.4800, 214.7324
910.9622, 220.1562
911.4443, 241.2832
911.9264, 275.1855
912.4085, 301.3496
912.8906, 307.9473
913.3727, 304.9746
913.8549, 292.3750
914.3370, 273.0215
914.8191, 261.9395
915.3012, 259.1016
915.7833, 266.6758
916.2654, 293.6016
916.7476, 322.6211
917.2297, 307.0020
917.7118, 258.9922
918.1939, 219.2480
918.6760, 221.2656
919.1581, 219.9434
919.6403, 180.0488
920.1224, 125.2500
920.6045, 102.8008
921.0866, 122.7383
921.5687, 153.1641
922.0508, 195.4648
922.5330, 233.4531
923.0151, 239.1543
923.4972, 220.0176
923.9793, 199.8906
924.4614, 186.8633
924.9435, 163.6426
925.4257, 93.33594
925.9078, 22.53320
926.3899, 2.984375
926.8720, 58.91016
927.3541, 101.8066
927.8362, 129.8086
928.3184, 149.2227
928.8005, 167.3496
929.2826, 180.8262
929.7647, 170.2539
930.2468, 135.7891
930.7289, 119.6309
931.2111, 177.1074
931.6932, 238.7266
932.1753, 249.2559
932.6574, 204.8340
933.1395, 203.4766
933.6216, 272.9219
934.1038, 310.1465
934.5859, 254.6758
935.0680, 144.9238
935.5501, 80.77734
936.0322, 56.89844
936.5143, 51.51758
936.9965, 68.76562
937.4786, 85.49219
937.9607, 87.33203
938.4428, 78.79492
938.9249, 73.29688
939.4070, 71.86719
939.8892, 68.88086
940.3713, 60.95117
940.8534, 52.93945
941.3355, 62.87695
941.8176, 82.87109
942.2997, 76.81836
942.7819, 23.12500
943.2640, 22.08203
943.7461, 16.04492
944.2282, 8.898438
944.7103, 20.89844
945.1924, 16.42383
945.6746, 2.876953
946.1567, 24.53516
946.6388, 45.52539
947.1209, 27.47461
947.6030, 6.787109
948.0851, 17.44336
948.5673, 99.49609
949.0494, 155.0449
949.5315, 104.5586
950.0136, 41.25000
950.4957, 28.64258
950.9778, 58.62891
951.4600, 43.52539
951.9421, 31.66797
952.4242, 90.67578
952.9063, 100.0684
953.3884, 76.88672
953.8705, 32.87305
954.3527, 16.02344
954.8348, 24.92773
955.3169, 68.04688
955.7990, 154.1133
956.2811, 178.4160
956.7632, 180.7949
957.2454, 223.2520
957.7275, 317.5117
958.2096, 385.1680
958.6917, 406.8398
959.1738, 441.0820
959.6559, 578.4805
960.1381, 771.2715
960.6202, 933.4590
961.1023, 1043.150
961.5844, 1158.666
962.0665, 1280.850
962.5486, 1432.924
963.0308, 1639.965
963.5129, 1903.656
963.9950, 2106.430
964.4771, 2242.348
964.9592, 2407.293
965.4413, 2683.770
965.9235, 3018.012
966.4056, 3362.441
966.8877, 3708.695
967.3698, 4046.047
967.8519, 4328.004
968.3340, 4647.980
968.8162, 5050.598
969.2983, 5499.738
969.7804, 5913.520
970.2625, 6292.129
970.7446, 6677.699
971.2267, 7089.047
971.7089, 7493.590
972.1910, 7885.164
972.6731, 8248.027
973.1552, 8556.699
973.6373, 8792.008
974.1194, 8996.062
974.6016, 9154.621
975.0837, 9308.387
975.5658, 9499.695
976.0479, 9717.824
976.5300, 9895.836
977.0121, 10030.05
977.4943, 10171.79
977.9764, 10364.55
978.4585, 10581.30
978.9406, 10781.30
979.4227, 10965.05
979.9048, 11217.19
980.3870, 11574.31
980.8691, 11925.49
981.3512, 12216.32
981.8333, 12489.50
982.3154, 12851.43
982.7975, 13283.43
983.2797, 13714.80
983.7618, 14122.07
984.2439, 14524.09
984.7260, 14938.50
985.2081, 15350.97
985.6902, 15752.52
986.1724, 16158.62
986.6545, 16497.70
987.1366, 16764.27
987.6187, 16956.62
988.1008, 17045.92
988.5829, 17069.23
989.0651, 17104.19
989.5472, 17157.26
990.0293, 17129.82
990.5114, 16945.63
990.9935, 16705.01
991.4756, 16454.84
991.9578, 16189.20
992.4399, 15878.68
992.9220, 15521.68
993.4041, 15124.84
993.8862, 14658.30
994.3683, 14203.00
994.8505, 13869.03
995.3326, 13602.23
995.8147, 13302.90
996.2968, 12933.68
996.7789, 12538.75
997.2610, 12119.52
997.7432, 11685.04
998.2253, 11205.49
998.7074, 10714.34
999.1895, 10391.46
999.6716, 10264.45
1000.154, 10128.03
1000.636, 9866.055
1001.118, 9503.832
1001.600, 9012.844
1002.082, 8388.066
1002.564, 7910.270
1003.046, 7607.395
1003.529, 7349.387
1004.011, 7085.098
1004.493, 6820.238
1004.975, 6574.531
1005.457, 6338.895
1005.939, 6074.102
1006.421, 5689.148
1006.903, 5355.875
1007.385, 5171.285
1007.868, 5052.758
1008.350, 4895.551
1008.832, 4687.742
1009.314, 4528.180
1009.796, 4434.637
1010.278, 4357.086
1010.760, 4289.281
1011.242, 4185.379
1011.725, 3966.098
1012.207, 3615.586
1012.689, 3314.969
1013.171, 3124.000
1013.653, 2953.340
1014.135, 2768.996
1014.617, 2577.465
1015.099, 2404.629
1015.581, 2246.641
1016.064, 2084.836
1016.546, 1919.586
1017.028, 1736.480
1017.510, 1485.492
1017.992, 1227.117
1018.474, 1063.023
1018.956, 1045.102
1019.438, 964.1445
1019.921, 794.5352
1020.403, 615.9609
1020.885, 518.1172
1021.367, 466.6055
1021.849, 399.9727
1022.331, 313.7148
1022.813, 239.6367
1023.295, 215.3438
1023.778, 176.7109
1024.260, 83.54688
1024.742, 41.04688
1025.224, 84.05859
1025.706, 49.96484
1026.188, 29.38672
1026.670, 59.41016
1027.152, 108.4219
1027.634, 166.3789
1028.117, 216.2344
1028.599, 232.2148
1029.081, 173.8594
1029.563, 152.5977
1030.045, 180.8203
1030.527, 218.9844
1031.009, 233.8281
1031.491, 230.4219
1031.974, 222.1836
1032.456, 210.2031
1032.938, 200.8438
1033.420, 205.8242
1033.902, 205.7734
1034.384, 179.4258
1034.866, 143.1445
1035.348, 165.7617
1035.830, 255.0273
1036.313, 274.4766
1036.795, 167.2617
1037.277, 35.77344
1037.759, 12.96094
1038.241, 34.27344
1038.723, 7.527344
1039.205, 127.1523
1039.687, 187.4375
1040.169, 127.7070
1040.652, 61.17188
1041.134, 58.92578
1041.616, 113.1328
1042.098, 208.6562
1042.580, 335.6172
1043.062, 433.7539
1043.544, 451.3320
1044.026, 452.2305
1044.509, 457.3438
1044.991, 469.2539
1045.473, 491.5234
1045.955, 523.2305
1046.437, 578.3398
1046.919, 667.3047
1047.401, 741.5977
1047.883, 726.1953
1048.365, 675.8398
1048.848, 663.1875
1049.330, 705.4844
1049.812, 727.8438
1050.294, 708.3125
1050.776, 688.2656
1051.258, 678.6484
1051.740, 685.6289
1052.222, 754.5742
1052.704, 864.3906
1053.187, 929.5938
1053.669, 856.9883
1054.151, 799.2500
1054.633, 845.3438
1055.115, 939.5898
1055.597, 1006.262
1056.079, 1036.691
1056.561, 1096.844
1057.044, 1195.082
1057.526, 1281.844
1058.008, 1277.930
1058.490, 1260.117
1058.972, 1316.953
1059.454, 1448.656
1059.936, 1600.023
1060.418, 1786.680
1060.901, 1945.367
1061.383, 2046.812
1061.865, 2126.691
1062.347, 2258.559
1062.829, 2431.293
1063.311, 2616.734
1063.793, 2820.531
1064.275, 2994.656
1064.757, 3076.016
1065.240, 3152.613
1065.722, 3286.246
1066.204, 3475.750
1066.686, 3727.715
1067.168, 4045.148
1067.650, 4373.062
1068.132, 4700.008
1068.614, 5006.078
1069.096, 5267.727
1069.579, 5502.262
1070.061, 5747.320
1070.543, 5997.309
1071.025, 6287.805
1071.507, 6633.074
1071.989, 6999.746
1072.471, 7347.469
1072.953, 7689.336
1073.436, 8080.664
1073.918, 8523.465
1074.400, 8961.008
1074.882, 9337.230
1075.364, 9734.215
1075.846, 10198.34
1076.328, 10700.14
1076.810, 11108.57
1077.292, 11433.89
1077.775, 11805.64
1078.257, 12275.30
1078.739, 12773.25
1079.221, 13263.11
1079.703, 13745.63
1080.185, 14236.59
1080.667, 14750.69
1081.149, 15201.39
1081.631, 15575.25
1082.114, 15938.98
1082.596, 16343.30
1083.078, 16762.20
1083.560, 17159.75
1084.042, 17529.09
1084.524, 17844.61
1085.006, 18073.30
1085.488, 18274.51
1085.971, 18453.77
1086.453, 18618.28
1086.935, 18795.40
1087.417, 18967.30
1087.899, 19072.74
1088.381, 19103.63
1088.863, 19100.59
1089.345, 19115.02
1089.828, 19073.41
1090.310, 18918.50
1090.792, 18673.86
1091.274, 18461.13
1091.756, 18280.57
1092.238, 18038.72
1092.720, 17690.90
1093.202, 17302.91
1093.684, 16924.62
1094.167, 16552.77
1094.649, 16189.96
1095.131, 15849.75
1095.613, 15458.79
1096.095, 15015.50
1096.577, 14520.59
1097.059, 13913.20
1097.541, 13285.84
1098.024, 12876.03
1098.506, 12609.20
1098.988, 12271.50
1099.470, 11710.80
1099.952, 11171.47
1100.434, 10682.19
1100.916, 10238.17
1101.398, 9849.281
1101.880, 9495.664
1102.363, 9082.801
1102.845, 8599.723
1103.327, 8157.988
1103.809, 7847.320
1104.291, 7566.609
1104.773, 7252.738
1105.255, 6925.445
1105.737, 6682.188
1106.219, 6520.906
1106.702, 6332.023
1107.184, 6068.266
1107.666, 5833.098
1108.148, 5738.129
1108.630, 5712.332
1109.112, 5689.828
1109.594, 5668.645
1110.076, 5607.602
1110.559, 5497.254
1111.041, 5386.332
1111.523, 5294.957
1112.005, 5221.738
1112.487, 5156.285
1112.969, 5107.891
1113.451, 5096.062
1113.933, 5189.883
1114.416, 5224.297
1114.898, 5180.805
1115.380, 5094.781
1115.862, 4971.715
1116.344, 4833.840
1116.826, 4774.977
1117.308, 4787.879
1117.790, 4799.871
1118.272, 4776.172
1118.755, 4744.219
1119.237, 4725.219
1119.719, 4696.617
1120.201, 4609.707
1120.683, 4469.977
1121.165, 4320.914
1121.647, 4165.227
1122.129, 4043.695
1122.611, 4015.250
1123.094, 4008.742
1123.576, 3981.047
1124.058, 3929.211
1124.540, 3834.250
1125.022, 3692.695
1125.504, 3545.457
1125.986, 3401.320
1126.468, 3267.668
1126.951, 3166.805
1127.433, 3073.996
1127.915, 2954.605
1128.397, 2787.305
1128.879, 2654.887
1129.361, 2565.996
1129.843, 2482.035
1130.325, 2376.465
1130.807, 2262.535
1131.290, 2172.316
1131.772, 2093.367
1132.254, 1998.031
1132.736, 1870.977
1133.218, 1728.457
1133.700, 1545.938
1134.182, 1394.156
1134.664, 1369.484
1135.146, 1425.543
1135.629, 1406.000
1136.111, 1316.781
1136.593, 1248.348
1137.075, 1295.676
1137.557, 1304.727
1138.039, 1207.238
1138.521, 1069.891
1139.003, 1010.121
1139.486, 1015.871
1139.968, 1004.344
1140.450, 960.9844
1140.932, 939.4180
1141.414, 1014.754
1141.896, 1087.961
1142.378, 1090.156
1142.860, 1038.301
1143.343, 998.7070
1143.825, 971.3203
1144.307, 1009.883
1144.789, 1159.516
1145.271, 1281.555
1145.753, 1220.488
1146.235, 1090.211
1146.717, 1006.324
1147.199, 973.8594
1147.682, 951.6680
1148.164, 941.6680
1148.646, 947.7695
1149.128, 982.0156
1149.610, 1022.090
1150.092, 1025.160
1150.574, 1020.801
1151.056, 1065.516
1151.538, 1221.719
1152.021, 1292.102
1152.503, 1258.125
1152.985, 1208.402
1153.467, 1206.129
1153.949, 1231.230
1154.431, 1266.066
1154.913, 1303.465
1155.395, 1323.629
1155.878, 1287.504
1156.360, 1272.812
1156.842, 1294.195
1157.324, 1332.707
1157.806, 1375.062
1158.288, 1414.652
1158.770, 1429.074
1159.252, 1421.418
1159.734, 1436.504
1160.217, 1537.078
1160.699, 1603.797
1161.181, 1603.941
1161.663, 1558.820
1162.145, 1489.270
1162.627, 1411.844
1163.109, 1386.480
1163.591, 1422.672
1164.073, 1448.445
1164.556, 1427.793
1165.038, 1395.066
1165.520, 1361.195
1166.002, 1330.824
1166.484, 1318.012
1166.966, 1323.445
1167.448, 1348.105
1167.930, 1400.172
1168.413, 1441.109
1168.895, 1445.652
1169.377, 1434.598
1169.859, 1424.945
1170.341, 1417.105
1170.823, 1385.773
1171.305, 1331.633
1171.787, 1306.348
1172.270, 1373.070
1172.752, 1423.062
1173.234, 1355.629
1173.716, 1247.410
1174.198, 1188.215
1174.680, 1186.973
1175.162, 1195.129
1175.644, 1211.727
1176.126, 1221.000
1176.609, 1217.559
1177.091, 1204.539
1177.573, 1181.152
1178.055, 1147.742
1178.537, 1108.254
1179.019, 1065.574
1179.501, 999.6250
1179.983, 907.3086
1180.465, 830.4102
1180.948, 810.8047
1181.430, 810.8633
1181.912, 806.6797
1182.394, 793.1992
1182.876, 757.5273
1183.358, 690.7734
1183.840, 649.0625
1184.322, 642.3008
1184.805, 636.2500
1185.287, 593.1797
1185.769, 537.3164
1186.251, 489.9922
1186.733, 453.4531
1187.215, 437.8555
1187.697, 456.6484
1188.179, 446.5430
1188.661, 392.0977
1189.144, 312.1641
1189.626, 191.1914
1190.108, 77.40234
1190.590, 45.57812
1191.072, 110.9141
1191.554, 154.2891
1192.036, 167.6523
1192.518, 169.7070
1193.000, 165.7227
1193.483, 152.7930
1193.965, 128.3438
1194.447, 91.69922
1194.929, 37.62109
1195.411, 42.50781
1195.893, 96.39062
1196.375, 116.5195
1196.857, 128.1484
1197.340, 143.6953
1197.822, 155.8125
1198.304, 140.2109
1198.786, 115.5547
1199.268, 117.8047
1199.750, 178.7734
1200.232, 198.7773
1200.714, 163.5547
1201.197, 128.6367
1201.679, 136.6367
1202.161, 158.0625
1202.643, 123.5312
1203.125, 60.12109
1203.607, 27.96094
1204.089, 94.79688
1204.571, 105.7812
1205.053, 29.73047
1205.536, 32.32812
1206.018, 27.92969
1206.500, 144.8633
1206.982, 188.8008
1207.464, 175.1211
1207.946, 154.2773
1208.428, 147.8125
1208.910, 119.1602
1209.392, 51.27344
1209.875, 4.167969
1210.357, 23.33984
1210.839, 87.84766
1211.321, 98.10547
1211.803, 62.48047
1212.285, 36.73047
1212.767, 62.21484
1213.249, 51.95703
1213.732, 21.65234
1214.214, 91.23438
1214.696, 55.23828
1215.178, 29.73047
1215.660, 57.91016
1216.142, 28.37109
1216.624, 0.2851560
1217.106, 15.15234
1217.589, 23.67578
1218.071, 22.45312
1218.553, 26.05078
1219.035, 71.13672
1219.517, 127.7148
1219.999, 114.3398
1220.481, 29.85547
1220.963, 61.19141
1221.445, 366.7031
1221.927, 522.0195
1222.410, 380.8359
1222.892, 141.3672
1223.374, 108.2461
1223.856, 180.3203
1224.338, 182.6797
1224.820, 86.07812
1225.302, 25.82422
1225.784, 29.34766
1226.267, 44.89453
1226.749, 61.90625
1227.231, 73.96484
1227.713, 47.99219
1228.195, 19.09375
1228.677, 63.26172
1229.159, 212.5898
1229.641, 261.0352
1230.124, 149.2461
1230.606, 72.62500
1231.088, 120.8125
1231.570, 208.8906
1232.052, 190.7656
1232.534, 124.2578
1233.016, 103.4375
1233.498, 162.7891
1233.980, 182.4766
1234.463, 144.2070
1234.945, 117.3789
1235.427, 134.7305
1235.909, 176.7383
1236.391, 235.4453
1236.873, 289.7461
1237.355, 299.5000
1237.837, 236.6133
1238.320, 213.6406
1238.802, 237.6836
1239.284, 270.5469
1239.766, 303.7148
1240.248, 320.9414
1240.730, 279.1562
1241.212, 216.5820
1241.694, 196.0625
1242.177, 239.2422
1242.659, 263.0586
1243.141, 264.9102
1243.623, 264.2812
1244.105, 272.6094
1244.587, 283.4414
1245.069, 296.8203
1245.551, 304.7812
1246.033, 286.4141
1246.516, 220.5938
1246.998, 239.3906
1247.480, 350.5547
1247.962, 442.3320
1248.444, 435.3438
1248.926, 389.3672
1249.408, 330.3125
1249.890, 277.7891
1250.372, 257.5078
1250.855, 272.8672
1251.337, 307.9961
1251.819, 362.1836
1252.301, 401.6250
1252.783, 391.6133
1253.265, 371.0820
1253.747, 359.3242
1254.229, 356.6055
1254.712, 360.7188
1255.194, 371.7305
1255.676, 404.6758
1256.158, 462.8906
1256.640, 473.5078
1257.122, 314.0859
1257.604, 196.0938
1258.086, 257.5859
1258.568, 400.4219
1259.051, 495.5234
1259.533, 560.2734
1260.015, 539.6875
1260.497, 438.6211
1260.979, 357.8203
1261.461, 357.7266
1261.943, 385.2617
1262.425, 410.0898
1262.907, 436.5078
1263.390, 438.4688
1263.872, 435.7617
1264.354, 431.6992
1264.836, 424.4922
1265.318, 428.5703
1265.800, 461.9023
1266.282, 467.0234
1266.764, 430.2969
1267.247, 364.0625
1267.729, 280.7656
1268.211, 204.7812
1268.693, 257.0195
1269.175, 420.1680
1269.657, 530.6016
1270.139, 514.9414
1270.621, 503.3320
1271.104, 508.7773
1271.586, 533.9336
1272.068, 548.4570
1272.550, 553.6055
1273.032, 498.0586
1273.514, 400.1172
1273.996, 389.3438
1274.478, 532.2109
1274.960, 624.5586
1275.443, 631.8203
1275.925, 605.3203
1276.407, 605.2383
1276.889, 618.4375
1277.371, 628.2344
1277.853, 631.8438
1278.335, 621.1641
1278.817, 593.0000
1279.299, 545.6328
1279.782, 473.9766
1280.264, 409.7930
1280.746, 422.7930
1281.228, 440.9453
1281.710, 384.5234
1282.192, 288.6445
1282.674, 269.2617
1283.156, 331.2578
1283.639, 332.2031
1284.121, 254.6016
1284.603, 196.7969
1285.085, 252.8984
1285.567, 316.1211
1286.049, 363.0078
1286.531, 384.7852
1287.013, 328.2227
1287.495, 207.9531
1287.978, 178.1406
1288.460, 251.1914
1288.942, 319.5664
1289.424, 321.8789
1289.906, 312.4609
1290.388, 308.2461
1290.870, 296.0625
1291.352, 269.1523
1291.834, 233.6445
1292.317, 190.8125
1292.799, 144.4453
1293.281, 132.1836
1293.763, 216.9609
1294.245, 262.1680
1294.727, 235.9023
1295.209, 181.9492
1295.691, 144.0430
1296.174, 122.6875
1296.656, 122.2227
1297.138, 141.1289
1297.620, 165.2734
1298.102, 200.9102
1298.584, 214.3125
1299.066, 193.7500
1299.548, 171.8633
1300.031, 194.7812
1300.513, 216.8047
1300.995, 172.3555
1301.477, 85.44141
1301.959, 73.39453
1302.441, 148.8633
1302.923, 176.6797
1303.405, 134.4844
1303.887, 94.73438
1304.370, 139.6445
1304.852, 173.1602
1305.334, 93.11328
1305.816, 21.18359
1306.298, 20.10156
1306.780, 81.64844
1307.262, 133.3789
1307.744, 121.5664
1308.226, 122.2070
1308.709, 214.6445
1309.191, 271.4062
1309.673, 212.9297
1310.155, 116.9414
1310.637, 102.6016
1311.119, 119.6328
1311.601, 103.9102
1312.083, 65.00000
1312.566, 29.81641
1313.048, 0.0000000E+00
##END=



