##NAMES=Hazenite
##RRUFFID=R100029
##IDEAL CHEMISTRY=KNaMg_2_(PO_4_)_2_&#183;14H_2_O
##LOCALITY=Mono Lake, California, USA
##OWNER=RRUFF
##SOURCE=Hexiong Yang
##DESCRIPTION=Sprays of colorless bladed crystals, co-type sample
##STATUS=The identification of this mineral is confirmed by single-crystal X-ray diffraction and chemical analysis.
##URL=rruff.info/R100029
174.3805, 0.0000000E+00
174.8626, 0.1051640
175.3447, 0.7185970
175.8268, 2.899139
176.3090, 4.662262
176.7911, 3.777771
177.2732, 1.763428
177.7553, 1.263123
178.2374, 3.700165
178.7195, 7.006561
179.2017, 8.627808
179.6838, 8.680389
180.1659, 8.060974
180.6480, 6.808197
181.1301, 5.391632
181.6122, 4.986664
182.0944, 6.395538
182.5765, 8.632385
183.0586, 10.24109
183.5407, 11.18594
184.0228, 11.58368
184.5049, 11.11292
184.9871, 10.05347
185.4692, 9.433716
185.9513, 9.850891
186.4334, 10.80853
186.9155, 11.03552
187.3976, 10.46539
187.8798, 9.884827
188.3619, 10.38214
188.8440, 11.75403
189.3261, 12.59808
189.8082, 12.16718
190.2903, 10.85852
190.7725, 10.05414
191.2546, 9.761353
191.7367, 9.902588
192.2188, 10.51263
192.7009, 11.57666
193.1830, 12.68115
193.6652, 13.81146
194.1473, 14.90796
194.6294, 15.37579
195.1115, 15.07794
195.5936, 14.61066
196.0757, 14.74109
196.5579, 15.47968
197.0400, 16.43103
197.5221, 17.67517
198.0042, 19.14929
198.4863, 19.77802
198.9684, 19.34430
199.4506, 18.54407
199.9327, 18.44775
200.4148, 19.12567
200.8969, 19.85223
201.3790, 20.49188
201.8611, 21.05518
202.3433, 20.81458
202.8254, 19.45105
203.3075, 17.77173
203.7896, 17.30463
204.2717, 18.28052
204.7538, 19.23132
205.2360, 19.50751
205.7181, 19.03534
206.2002, 18.52509
206.6823, 17.97693
207.1644, 17.38647
207.6465, 16.68091
208.1287, 15.77618
208.6108, 15.07562
209.0929, 14.75214
209.5750, 14.82922
210.0571, 15.27936
210.5392, 16.30640
211.0214, 17.54938
211.5035, 18.29980
211.9856, 18.56555
212.4677, 18.34839
212.9498, 17.46393
213.4319, 15.51416
213.9141, 14.30121
214.3962, 14.00891
214.8783, 14.29846
215.3604, 14.51685
215.8425, 14.64148
216.3246, 14.97034
216.8067, 14.96295
217.2889, 14.71100
217.7710, 15.09833
218.2531, 16.81848
218.7352, 18.97174
219.2173, 19.04150
219.6994, 15.65906
220.1816, 12.88074
220.6637, 12.82794
221.1458, 16.90521
221.6279, 19.65204
222.1100, 20.73279
222.5921, 20.57318
223.0743, 20.18396
223.5564, 19.27130
224.0385, 18.67828
224.5206, 18.92487
225.0027, 20.54395
225.4848, 21.60419
225.9670, 21.88470
226.4491, 21.65149
226.9312, 21.59247
227.4133, 21.76129
227.8954, 22.01208
228.3775, 22.23267
228.8597, 22.27612
229.3418, 22.62402
229.8239, 23.25696
230.3060, 24.17902
230.7881, 25.47729
231.2702, 27.57355
231.7524, 29.39667
232.2345, 30.23114
232.7166, 29.83563
233.1987, 29.59430
233.6808, 29.67084
234.1629, 29.85400
234.6451, 29.56604
235.1272, 28.63031
235.6093, 27.50940
236.0914, 26.35388
236.5735, 24.96637
237.0556, 24.11145
237.5378, 24.25806
238.0199, 24.82733
238.5020, 24.24561
238.9841, 21.78052
239.4662, 19.26324
239.9483, 17.51196
240.4305, 17.00134
240.9126, 16.15918
241.3947, 14.86444
241.8768, 13.26440
242.3589, 11.71930
242.8410, 10.23706
243.3232, 8.771362
243.8053, 7.219788
244.2874, 5.192322
244.7695, 4.052185
245.2516, 4.180969
245.7337, 5.036865
246.2159, 5.432678
246.6980, 5.286194
247.1801, 4.817871
247.6622, 4.051208
248.1443, 2.796509
248.6264, 1.802002
249.1086, 1.157776
249.5907, 0.7315060
250.0728, 0.2008060
250.5549, 0.6802370
251.0370, 1.249756
251.5191, 1.130981
252.0013, 5.0597999E-02
252.4834, 0.5728760
252.9655, 3.2042999E-02
253.4476, 0.9459840
253.9297, 1.170837
254.4118, 0.3659060
254.8940, 0.6637570
255.3761, 1.800110
255.8582, 3.316895
256.3403, 3.754639
256.8224, 2.658691
257.3046, 0.8416140
257.7867, 0.5591430
258.2688, 1.112367
258.7509, 0.6233520
259.2330, 2.692261
259.7151, 3.941956
260.1973, 3.064087
260.6794, 0.5925290
261.1615, 2.2766000E-02
261.6436, 0.8125000
262.1257, 0.7417483
262.6078, 1.453491
263.0900, 3.614197
263.5721, 4.344543
264.0542, 7.061035
264.5363, 5.479370
265.0184, 1.709595
265.5005, 1.470398
265.9827, 4.926331
266.4648, 7.920349
266.9469, 9.060608
267.4290, 8.285339
267.9111, 8.263977
268.3932, 9.211365
268.8754, 10.57324
269.3575, 11.80841
269.8396, 12.99402
270.3217, 13.79285
270.8038, 13.93671
271.2859, 13.49335
271.7681, 13.78595
272.2502, 15.05945
272.7323, 16.56763
273.2144, 17.39221
273.6965, 17.33868
274.1786, 17.69580
274.6608, 18.88666
275.1429, 20.82812
275.6250, 22.79321
276.1071, 24.68988
276.5892, 26.65125
277.0714, 28.90466
277.5535, 31.55627
278.0356, 33.58936
278.5177, 34.63971
278.9998, 35.00464
279.4819, 35.96582
279.9641, 37.65527
280.4462, 39.68530
280.9283, 41.69299
281.4104, 43.70825
281.8925, 46.40527
282.3746, 50.04633
282.8568, 54.11163
283.3389, 56.75958
283.8210, 57.85663
284.3031, 58.99286
284.7852, 61.49030
285.2673, 65.21777
285.7495, 68.41528
286.2316, 70.86273
286.7137, 72.72107
287.1958, 74.17969
287.6779, 75.20758
288.1600, 76.14191
288.6422, 77.25134
289.1243, 78.51068
289.6064, 79.43304
290.0885, 79.95502
290.5706, 80.41547
291.0527, 81.57184
291.5349, 83.33063
292.0170, 84.67792
292.4991, 85.30688
292.9812, 85.20459
293.4633, 83.71259
293.9454, 80.55902
294.4276, 77.11615
294.9097, 75.47925
295.3918, 75.28137
295.8739, 74.69183
296.3560, 72.52228
296.8381, 69.42358
297.3203, 66.74078
297.8024, 64.51160
298.2845, 62.62390
298.7666, 61.30518
299.2487, 60.30878
299.7308, 58.84821
300.2130, 56.30884
300.6951, 53.21857
301.1772, 50.48267
301.6593, 48.12567
302.1414, 45.67340
302.6235, 42.41882
303.1057, 38.80310
303.5878, 35.80127
304.0699, 34.01617
304.5520, 32.75171
305.0341, 31.23334
305.5162, 29.49554
305.9984, 27.75397
306.4805, 26.18048
306.9626, 24.70178
307.4447, 23.25037
307.9268, 21.82019
308.4089, 20.34534
308.8911, 18.60535
309.3732, 16.71429
309.8553, 15.12482
310.3374, 14.29254
310.8195, 13.76959
311.3016, 13.08612
311.7838, 12.04297
312.2659, 11.08960
312.7480, 10.70367
313.2301, 10.64844
313.7122, 10.33185
314.1943, 5.012695
314.6765, 9.668701
315.1586, 12.14075
315.6407, 12.54028
316.1228, 4.520447
316.6049, 7.324524
317.0870, 5.862671
317.5692, 4.225769
318.0513, 8.473572
318.5334, 1.823914
319.0155, 6.041321
319.4976, 5.910889
319.9797, 7.776306
320.4619, 5.319336
320.9440, 4.213684
321.4261, 7.408752
321.9082, 8.222595
322.3903, 5.294373
322.8724, 7.286560
323.3546, 6.048718
323.8367, 1.403259
324.3188, 5.647400
324.8009, 3.247131
325.2830, 3.951721
325.7651, 2.699280
326.2473, 1.887695
326.7294, 2.196411
327.2115, 3.448792
327.6936, 4.175842
328.1757, 3.838989
328.6578, 3.293640
329.1400, 2.966064
329.6221, 3.245605
330.1042, 3.215698
330.5863, 2.825439
331.0684, 2.108948
331.5505, 1.147766
332.0327, 0.5502930
332.5148, 1.945862
332.9969, 2.618225
333.4790, 2.366638
333.9611, 1.924255
334.4432, 1.138428
334.9254, 0.2539060
335.4075, 0.2180180
335.8896, 0.1203000
336.3717, 1.4771000E-02
336.8538, 1.308655
337.3359, 4.146301
337.8180, 4.889465
338.3001, 2.674561
338.7823, 0.2987670
339.2644, 1.303650
339.7465, 0.1973880
340.2286, 1.258423
340.7107, 0.9730830
341.1928, 0.3936770
341.6750, 0.8538820
342.1571, 0.2178960
342.6392, 0.5767820
343.1213, 0.6967160
343.6034, 0.1234130
344.0855, 0.3893430
344.5677, 0.7794800
345.0498, 0.9843750
345.5319, 0.6222530
346.0140, 0.3382570
346.4961, 0.9966430
346.9782, 0.4606930
347.4604, 0.9708250
347.9425, 1.875488
348.4246, 2.125610
348.9067, 1.806091
349.3888, 2.505495
349.8709, 1.307800
350.3531, 2.625122
350.8352, 2.427063
351.3173, 1.296997
351.7994, 0.1069950
352.2815, 1.158020
352.7636, 1.864075
353.2458, 0.9369510
353.7279, 1.001953
354.2100, 2.612732
354.6921, 3.285950
355.1742, 3.441956
355.6563, 3.472107
356.1385, 3.369080
356.6206, 3.117432
357.1027, 2.224060
357.5848, 1.348511
358.0669, 1.323181
358.5490, 2.826355
359.0312, 4.531189
359.5133, 5.968445
359.9954, 6.997559
360.4775, 7.224976
360.9596, 5.563354
361.4417, 3.616394
361.9239, 2.486572
362.4060, 2.520508
362.8881, 2.852783
363.3702, 3.182556
363.8523, 3.601257
364.3344, 4.250183
364.8166, 5.709106
365.2987, 6.934814
365.7808, 7.479187
366.2629, 7.284973
366.7450, 6.865173
367.2271, 5.980835
367.7093, 5.073730
368.1914, 4.533142
368.6735, 4.811646
369.1556, 5.006592
369.6377, 4.864990
370.1198, 4.457153
370.6020, 4.418701
371.0841, 5.169983
371.5662, 5.902649
372.0483, 6.124268
372.5304, 5.250854
373.0125, 5.020813
373.4947, 5.914001
373.9768, 7.309631
374.4589, 7.647644
374.9410, 6.366455
375.4231, 5.176025
375.9052, 4.729797
376.3874, 5.106262
376.8695, 5.708313
377.3516, 6.726440
377.8337, 7.666443
378.3158, 7.735657
378.7979, 6.764648
379.2801, 6.238525
379.7622, 6.650146
380.2443, 7.809631
380.7264, 9.163330
381.2085, 10.81482
381.6906, 11.82410
382.1728, 10.83875
382.6549, 8.234314
383.1370, 6.485352
383.6191, 6.086731
384.1012, 6.553955
384.5833, 7.284424
385.0655, 8.243103
385.5476, 9.159180
386.0297, 10.29907
386.5118, 11.20923
386.9939, 10.70227
387.4760, 8.457764
387.9582, 6.392883
388.4403, 6.504028
388.9224, 8.122986
389.4045, 9.838806
389.8866, 11.70312
390.3687, 12.86841
390.8509, 12.04187
391.3330, 9.487244
391.8151, 7.524353
392.2972, 8.345886
392.7793, 10.08246
393.2614, 10.86902
393.7436, 9.508789
394.2257, 8.060425
394.7078, 7.295593
395.1899, 7.081909
395.6720, 7.185425
396.1541, 7.761414
396.6363, 8.401794
397.1184, 8.793213
397.6005, 8.687866
398.0826, 9.585876
398.5647, 13.12140
399.0468, 17.20251
399.5290, 19.39496
400.0111, 17.60480
400.4932, 16.12622
400.9753, 15.68652
401.4574, 16.25543
401.9395, 16.85663
402.4217, 17.45508
402.9038, 18.14465
403.3859, 19.01782
403.8680, 20.14172
404.3501, 21.39691
404.8322, 22.87469
405.3144, 24.29944
405.7965, 24.88892
406.2786, 24.30469
406.7607, 24.22375
407.2428, 25.69073
407.7249, 28.78815
408.2071, 31.31128
408.6892, 33.26123
409.1713, 34.63641
409.6534, 35.23706
410.1355, 35.06244
410.6176, 34.77808
411.0998, 34.34052
411.5819, 34.26257
412.0640, 36.08392
412.5461, 39.69281
413.0282, 43.11499
413.5103, 44.46698
413.9925, 44.54968
414.4746, 45.07831
414.9567, 46.44781
415.4388, 47.96844
415.9209, 49.05017
416.4030, 49.76544
416.8852, 50.28998
417.3673, 50.55695
417.8494, 50.76508
418.3315, 51.18427
418.8136, 51.82831
419.2957, 52.21191
419.7779, 51.34961
420.2600, 50.38788
420.7421, 50.48969
421.2242, 53.85388
421.7063, 56.38855
422.1884, 56.17499
422.6706, 53.93335
423.1527, 52.37762
423.6348, 52.50958
424.1169, 53.18109
424.5990, 54.00641
425.0811, 55.38556
425.5633, 55.95502
426.0454, 54.90186
426.5275, 53.35278
427.0096, 52.72931
427.4917, 53.64081
427.9738, 54.57318
428.4560, 55.24969
428.9381, 55.68103
429.4202, 56.01202
429.9023, 56.29272
430.3844, 56.36194
430.8665, 56.03107
431.3487, 55.22150
431.8308, 54.41846
432.3129, 53.56567
432.7950, 52.87152
433.2771, 52.98145
433.7592, 53.91132
434.2414, 54.49963
434.7235, 53.92291
435.2056, 52.55090
435.6877, 52.09229
436.1698, 52.75958
436.6519, 53.31195
437.1341, 52.41187
437.6162, 50.62280
438.0983, 49.19586
438.5804, 48.77661
439.0625, 48.49884
439.5446, 47.20886
440.0268, 45.21899
440.5089, 43.48541
440.9910, 42.82861
441.4731, 42.54010
441.9552, 42.04413
442.4373, 41.31561
442.9195, 40.22510
443.4016, 38.33441
443.8837, 36.17010
444.3658, 34.37091
444.8479, 33.59467
445.3300, 32.74286
445.8122, 31.43298
446.2943, 29.70782
446.7764, 27.92981
447.2585, 25.42969
447.7406, 23.44049
448.2227, 22.71252
448.7049, 24.49249
449.1870, 25.16675
449.6691, 24.20642
450.1512, 22.31012
450.6333, 20.67700
451.1154, 19.39185
451.5976, 18.43280
452.0797, 16.52161
452.5618, 17.38428
453.0439, 17.53723
453.5260, 17.03381
454.0081, 13.78290
454.4903, 14.10480
454.9724, 13.02173
455.4545, 11.89893
455.9366, 12.77759
456.4187, 10.02124
456.9008, 10.92865
457.3830, 10.45972
457.8651, 10.71399
458.3472, 9.566284
458.8293, 8.816589
459.3114, 9.454468
459.7935, 9.317444
460.2757, 7.952087
460.7578, 8.245850
461.2399, 5.628296
461.7220, 5.600952
462.2041, 7.670227
462.6862, 9.049133
463.1684, 7.978638
463.6505, 5.492737
464.1326, 4.010071
464.6147, 5.466980
465.0968, 7.366089
465.5789, 8.567810
466.0611, 8.976929
466.5432, 8.713806
467.0253, 7.151306
467.5074, 5.260315
467.9895, 3.854065
468.4716, 2.822144
468.9538, 2.491394
469.4359, 3.461487
469.9180, 5.139893
470.4001, 5.471375
470.8822, 3.534790
471.3643, 1.911499
471.8465, 1.810974
472.3286, 3.431335
472.8107, 4.569397
473.2928, 5.156677
473.7749, 5.432861
474.2570, 5.829285
474.7392, 6.344177
475.2213, 5.826782
475.7034, 3.513367
476.1855, 0.6531370
476.6676, 6.1584000E-02
477.1497, 1.545044
477.6319, 3.277893
478.1140, 4.405334
478.5961, 4.995728
479.0782, 5.046936
479.5603, 4.523621
480.0424, 3.881836
480.5246, 3.633362
481.0067, 3.454529
481.4888, 2.852539
481.9709, 0.8749390
482.4530, 0.6582030
482.9352, 0.5596920
483.4173, 0.7849120
483.8994, 2.158997
484.3815, 3.452332
484.8636, 4.438354
485.3457, 5.069580
485.8279, 5.433533
486.3100, 5.116516
486.7921, 3.252563
487.2742, 1.151367
487.7563, 1.9592000E-02
488.2384, 0.3884280
488.7206, 0.6126100
489.2027, 0.3761600
489.6848, 0.1680910
490.1669, 0.5371700
490.6490, 0.7865600
491.1311, 0.6594850
491.6133, 0.3949580
492.0954, 2.351379
492.5775, 2.294617
493.0596, 0.2430420
493.5417, 2.796448
494.0238, 1.860107
494.5060, 1.683777
494.9881, 3.493042
495.4702, 1.730225
495.9523, 1.080750
496.4344, 0.9801640
496.9165, 1.314270
497.3987, 0.7933144
497.8808, 2.196167
498.3629, 0.4901120
498.8450, 0.1771850
499.3271, 0.3558350
499.8092, 1.135193
500.2914, 2.048523
500.7735, 2.763611
501.2556, 2.981995
501.7377, 2.017334
502.2198, 1.268860
502.7019, 1.239136
503.1841, 1.652649
503.6662, 1.756104
504.1483, 1.140381
504.6304, 0.5885620
505.1125, 0.4226070
505.5946, 0.7123410
506.0768, 0.4283450
506.5589, 0.9985960
507.0410, 2.132935
507.5231, 1.455322
508.0052, 1.464172
508.4873, 3.352478
508.9695, 3.711609
509.4516, 3.064514
509.9337, 2.013306
510.4158, 0.6052860
510.8979, 0.2357180
511.3800, 0.2685550
511.8622, 1.487244
512.3443, 2.063232
512.8264, 2.001221
513.3085, 1.566956
513.7906, 0.6759030
514.2728, 0.3646850
514.7549, 1.223206
515.2370, 1.942932
515.7191, 2.148132
516.2012, 2.221054
516.6833, 2.113264
517.1655, 1.653137
517.6476, 1.374512
518.1297, 0.9235230
518.6118, 0.5406490
519.0939, 0.2711180
519.5760, 0.4289550
520.0582, 1.802795
520.5403, 2.967285
521.0224, 3.224670
521.5045, 2.121155
521.9866, 1.355713
522.4688, 0.6525880
522.9509, 0.5834960
523.4330, 2.412598
523.9151, 6.798645
524.3972, 9.227051
524.8793, 8.014038
525.3615, 4.823120
525.8436, 4.283691
526.3257, 6.356995
526.8078, 8.407471
527.2899, 8.718079
527.7720, 7.944458
528.2542, 7.497375
528.7363, 7.444031
529.2184, 7.641052
529.7005, 8.093262
530.1826, 8.685730
530.6647, 9.251892
531.1469, 9.675659
531.6290, 10.17419
532.1111, 10.96643
532.5932, 11.90680
533.0753, 12.69489
533.5574, 12.80115
534.0396, 13.16638
534.5217, 14.29028
535.0038, 16.23016
535.4859, 17.79993
535.9680, 18.88562
536.4501, 19.65466
536.9323, 20.11133
537.4144, 19.95807
537.8965, 20.32971
538.3786, 21.26746
538.8607, 22.70532
539.3428, 24.69342
539.8250, 27.31201
540.3071, 29.70184
540.7892, 31.71674
541.2713, 33.32690
541.7534, 34.18292
542.2355, 34.34082
542.7177, 34.34967
543.1998, 34.27747
543.6819, 34.44128
544.1640, 35.19794
544.6461, 36.64581
545.1282, 38.40918
545.6104, 40.52789
546.0925, 42.68115
546.5746, 44.48047
547.0567, 45.62762
547.5388, 46.65137
548.0209, 47.41821
548.5031, 48.17084
548.9852, 49.48016
549.4673, 52.19379
549.9494, 54.70276
550.4315, 56.60553
550.9136, 57.91870
551.3958, 58.79584
551.8779, 59.37878
552.3600, 59.86975
552.8421, 60.18927
553.3242, 60.28748
553.8063, 60.67627
554.2885, 61.48615
554.7706, 62.55414
555.2527, 63.53943
555.7348, 64.47693
556.2169, 65.61792
556.6990, 67.14825
557.1812, 68.75250
557.6633, 70.09955
558.1454, 71.14465
558.6275, 71.72125
559.1096, 71.69031
559.5917, 71.17664
560.0739, 70.09473
560.5560, 68.43732
561.0381, 67.23389
561.5202, 67.26477
562.0023, 67.72980
562.4844, 67.99603
562.9666, 68.16461
563.4487, 67.81860
563.9308, 66.86096
564.4129, 65.39081
564.8950, 63.52002
565.3771, 60.74194
565.8593, 58.92456
566.3414, 58.76556
566.8235, 59.83533
567.3056, 59.70618
567.7877, 58.23572
568.2698, 56.65692
568.7520, 55.84375
569.2341, 55.49829
569.7162, 54.39807
570.1983, 52.50299
570.6804, 50.34644
571.1625, 48.35468
571.6447, 46.47620
572.1268, 44.58636
572.6089, 42.53912
573.0910, 40.63922
573.5731, 39.26715
574.0552, 38.25580
574.5374, 37.13397
575.0195, 35.73749
575.5016, 34.11823
575.9837, 32.10858
576.4658, 29.78571
576.9479, 27.89105
577.4301, 26.71332
577.9122, 25.66962
578.3943, 24.46118
578.8764, 23.00067
579.3585, 21.98010
579.8406, 21.56702
580.3228, 21.21619
580.8049, 20.32849
581.2870, 18.93060
581.7691, 17.36578
582.2512, 15.50623
582.7333, 13.95276
583.2155, 14.00189
583.6976, 15.16656
584.1797, 15.94336
584.6617, 15.27411
585.1439, 14.15558
585.6260, 13.39539
586.1081, 12.96259
586.5902, 12.65430
587.0723, 13.23303
587.5544, 13.33099
588.0366, 11.74915
588.5187, 7.669800
589.0008, 5.010193
589.4829, 5.447876
589.9650, 6.683167
590.4471, 6.981079
590.9293, 5.685120
591.4114, 5.041748
591.8935, 5.461731
592.3756, 6.324768
592.8577, 6.483887
593.3398, 5.903870
593.8220, 5.186584
594.3041, 4.322083
594.7862, 3.596252
595.2683, 4.026794
595.7504, 5.425171
596.2325, 6.440552
596.7147, 5.834534
597.1968, 4.594849
597.6789, 3.864990
598.1610, 3.737915
598.6431, 3.649048
599.1252, 3.480713
599.6074, 3.112671
600.0895, 2.353088
600.5716, 0.3775020
601.0537, 0.5941770
601.5358, 0.9132690
602.0179, 3.161682
602.5001, 3.791870
602.9822, 1.633911
603.4643, 0.1970830
603.9464, 0.1967160
604.4285, 1.250244
604.9106, 2.374451
605.3928, 3.640808
605.8749, 4.148987
606.3570, 2.636841
606.8391, 7.0068002E-02
607.3212, 3.6986999E-02
607.8033, 2.220154
608.2855, 4.711975
608.7676, 5.845703
609.2497, 6.210083
609.7318, 6.564209
610.2139, 7.095947
610.6960, 7.277527
611.1782, 6.505005
611.6603, 5.375977
612.1424, 4.516968
612.6245, 4.336670
613.1066, 4.125122
613.5887, 3.713135
614.0709, 3.227966
614.5530, 2.941772
615.0351, 3.004456
615.5172, 2.982422
615.9993, 2.867310
616.4814, 2.577759
616.9636, 1.299927
617.4457, 1.106018
617.9278, 0.5634583
618.4099, 2.170105
618.8920, 3.4179999E-03
619.3741, 1.256226
619.8563, 1.532654
620.3384, 1.364014
620.8205, 1.080994
621.3026, 0.6534420
621.7847, 9.4054997E-02
622.2668, 1.560486
622.7490, 2.376770
623.2311, 1.227356
623.7132, 0.6525880
624.1953, 1.686279
624.6774, 0.7394410
625.1595, 2.0447001E-02
625.6417, 0.4201050
626.1238, 0.4443970
626.6059, 6.1096001E-02
627.0880, 1.371643
627.5701, 2.395752
628.0522, 2.591736
628.5344, 2.183350
629.0165, 2.530396
629.4986, 3.661255
629.9807, 4.390259
630.4628, 3.307739
630.9449, 1.396729
631.4271, 0.5379030
631.9092, 0.8923340
632.3913, 1.601563
632.8734, 2.445068
633.3555, 3.113037
633.8376, 3.216858
634.3198, 2.174988
634.8019, 1.536438
635.2840, 2.055542
635.7661, 3.074158
636.2482, 3.672424
636.7303, 3.519348
637.2125, 3.493286
637.6946, 3.898865
638.1767, 4.424194
638.6588, 4.040649
639.1409, 2.592834
639.6230, 1.367554
640.1052, 0.9262700
640.5873, 1.072754
641.0694, 1.413513
641.5515, 1.917297
642.0336, 2.080688
642.5157, 1.086304
642.9979, 0.1687010
643.4800, 0.5235600
643.9621, 0.1600340
644.4442, 0.8416140
644.9263, 0.7167970
645.4084, 0.5478520
645.8906, 1.027283
646.3727, 3.172852
646.8548, 4.204895
647.3369, 3.100403
647.8190, 1.438293
648.3011, 1.181885
648.7833, 2.908936
649.2654, 4.074036
649.7475, 4.196350
650.2296, 3.671814
650.7117, 3.153931
651.1938, 2.671997
651.6760, 2.597595
652.1581, 3.291382
652.6402, 4.328674
653.1223, 5.107849
653.6044, 5.668091
654.0865, 6.210632
654.5687, 7.489197
655.0508, 8.281067
655.5329, 7.308594
656.0150, 4.421875
656.4971, 2.547668
656.9792, 3.121521
657.4614, 4.262634
657.9435, 4.977966
658.4256, 5.163330
658.9077, 5.150330
659.3898, 4.910706
659.8719, 4.743896
660.3541, 5.117676
660.8362, 6.004578
661.3183, 6.701233
661.8004, 7.114075
662.2825, 7.284790
662.7646, 6.982117
663.2468, 6.518433
663.7289, 6.469727
664.2110, 7.723755
664.6931, 8.752502
665.1752, 8.192505
665.6573, 6.640747
666.1395, 5.405701
666.6216, 4.790833
667.1037, 4.660706
667.5858, 5.363892
668.0679, 6.700134
668.5500, 7.163330
669.0322, 6.341003
669.5143, 5.450867
669.9964, 4.965637
670.4785, 4.873535
670.9606, 5.240173
671.4427, 6.137573
671.9249, 6.720154
672.4070, 5.861450
672.8891, 4.276062
673.3712, 3.729858
673.8533, 4.501587
674.3354, 5.019836
674.8176, 3.452820
675.2997, 1.280334
675.7818, 0.1846920
676.2639, 1.227234
676.7460, 2.591736
677.2281, 4.184631
677.7103, 5.528442
678.1924, 5.988037
678.6745, 5.039185
679.1566, 4.352966
679.6387, 4.166382
680.1208, 4.236877
680.6030, 4.359741
681.0851, 4.644958
681.5672, 4.641602
682.0493, 3.829224
682.5314, 2.774963
683.0135, 2.726318
683.4957, 3.382813
683.9778, 3.628235
684.4599, 2.085144
684.9420, 0.5811770
685.4241, 0.6465450
685.9063, 2.169861
686.3884, 3.153259
686.8705, 2.663269
687.3526, 1.909973
687.8347, 1.424255
688.3168, 1.256409
688.7990, 1.048279
689.2811, 0.6848750
689.7632, 0.5532230
690.2453, 1.224915
690.7274, 2.589661
691.2095, 2.985474
691.6917, 2.198486
692.1738, 1.243225
692.6559, 1.358887
693.1380, 1.997803
693.6201, 2.155884
694.1022, 1.373657
694.5844, 0.7108760
695.0665, 0.8546140
695.5486, 1.437256
696.0307, 1.993225
696.5128, 2.227295
696.9949, 2.699097
697.4771, 3.878845
697.9592, 5.143799
698.4413, 5.021851
698.9234, 3.034790
699.4055, 1.692932
699.8876, 1.918884
700.3698, 2.986023
700.8519, 2.924988
701.3340, 1.873230
701.8161, 0.8585210
702.2982, 0.3676760
702.7803, 0.1740720
703.2625, 0.1500850
703.7446, 0.2612920
704.2267, 0.2814940
704.7088, 0.2766110
705.1909, 0.6188960
705.6730, 0.1460570
706.1552, 1.293091
706.6373, 2.275696
707.1194, 2.687317
707.6015, 2.753113
708.0836, 2.302246
708.5657, 1.239624
709.0479, 1.776794
709.5300, 4.159363
710.0121, 6.545593
710.4942, 7.168274
710.9763, 6.513550
711.4584, 5.601074
711.9406, 4.489624
712.4227, 3.576660
712.9048, 3.230591
713.3869, 3.200195
713.8690, 3.242371
714.3511, 3.394531
714.8333, 3.474487
715.3154, 3.432922
715.7975, 3.336060
716.2796, 3.218567
716.7617, 2.995911
717.2438, 3.158447
717.7260, 4.010803
718.2081, 4.933228
718.6902, 4.715332
719.1723, 3.474609
719.6544, 2.009949
720.1365, 0.1626590
720.6187, 1.152100
721.1008, 0.2776490
721.5829, 1.951050
722.0650, 3.608215
722.5471, 3.257996
723.0292, 2.742310
723.5114, 2.992859
723.9935, 3.747070
724.4756, 3.848328
724.9577, 2.643188
725.4398, 1.743469
725.9219, 1.704712
726.4041, 2.353271
726.8862, 2.907715
727.3683, 3.380615
727.8504, 3.877380
728.3325, 4.551147
728.8146, 5.282043
729.2968, 5.992065
729.7789, 6.623962
730.2610, 6.614197
730.7431, 4.559998
731.2252, 2.486023
731.7073, 2.061096
732.1895, 3.556885
732.6716, 4.947937
733.1537, 6.213928
733.6358, 6.932495
734.1179, 6.723694
734.6000, 5.294312
735.0822, 4.676086
735.5643, 5.093201
736.0464, 5.519958
736.5285, 4.826294
737.0106, 3.342590
737.4927, 2.304871
737.9749, 1.848389
738.4570, 1.773376
738.9391, 2.372681
739.4212, 3.055969
739.9033, 3.096008
740.3854, 2.091125
740.8676, 1.100525
741.3497, 0.2485350
741.8318, 0.3218380
742.3139, 0.5213010
742.7960, 0.3467410
743.2781, 0.2489620
743.7603, 1.427368
744.2424, 2.745911
744.7245, 3.609009
745.2066, 4.020813
745.6887, 4.124939
746.1708, 3.849915
746.6530, 3.501587
747.1351, 3.557556
747.6172, 3.758423
748.0993, 3.653442
748.5814, 2.581238
749.0635, 1.743225
749.5457, 1.565979
750.0278, 1.916504
750.5099, 2.528687
750.9920, 3.716187
751.4741, 4.568787
751.9562, 4.833496
752.4384, 4.743530
752.9205, 4.898315
753.4026, 5.296509
753.8847, 5.625305
754.3668, 5.923340
754.8489, 5.901367
755.3311, 4.876526
755.8132, 3.146851
756.2953, 1.609131
756.7774, 0.6260990
757.2595, 3.1493999E-02
757.7416, 0.4667360
758.2238, 0.6669920
758.7059, 0.5784910
759.1880, 0.1329350
759.6701, 0.4385380
760.1522, 1.268005
760.6343, 2.176270
761.1165, 1.985229
761.5986, 0.6448970
762.0807, 0.4174190
762.5628, 0.1486210
763.0449, 0.7513430
763.5270, 1.038574
764.0092, 0.8136600
764.4913, 0.6935420
764.9734, 1.235352
765.4555, 1.796875
765.9376, 1.981812
766.4197, 1.777283
766.9019, 1.515137
767.3840, 1.071228
767.8661, 0.7371220
768.3482, 0.5515140
768.8303, 0.5634160
769.3124, 1.490723
769.7946, 3.402405
770.2767, 5.028809
770.7588, 5.262207
771.2409, 4.616821
771.7230, 3.874573
772.2051, 3.137878
772.6873, 2.646057
773.1694, 2.504089
773.6515, 2.610352
774.1336, 3.118774
774.6157, 4.204346
775.0978, 4.508911
775.5800, 3.445496
776.0621, 2.422913
776.5442, 2.154663
777.0263, 2.725159
777.5084, 3.634583
777.9905, 4.957642
778.4727, 5.795410
778.9548, 5.169250
779.4369, 3.775757
779.9190, 2.742249
780.4011, 2.187134
780.8832, 2.316223
781.3654, 4.448303
781.8475, 6.431885
782.3296, 6.309387
782.8117, 2.833313
783.2938, 0.8893430
783.7759, 1.018250
784.2581, 2.129822
784.7402, 3.605164
785.2223, 5.584229
785.7044, 6.148865
786.1865, 5.391235
786.6686, 4.301086
787.1508, 3.253662
787.6329, 2.669434
788.1150, 3.274231
788.5971, 5.362671
789.0792, 7.248291
789.5613, 8.263489
790.0435, 8.658630
790.5256, 8.589722
791.0077, 7.951538
791.4898, 7.105774
791.9719, 5.801880
792.4540, 4.708801
792.9362, 4.486328
793.4183, 5.088745
793.9004, 6.270325
794.3825, 8.154358
794.8646, 9.488770
795.3467, 8.665955
795.8289, 6.756409
796.3110, 5.159180
796.7931, 4.105652
797.2752, 3.398071
797.7573, 3.112854
798.2394, 3.050842
798.7216, 2.985474
799.2037, 2.629211
799.6858, 3.167297
800.1679, 5.012939
800.6500, 6.862915
801.1321, 7.239136
801.6143, 6.422607
802.0964, 5.940247
802.5785, 5.989502
803.0606, 6.017029
803.5427, 5.324524
804.0248, 4.446289
804.5070, 4.012817
804.9891, 4.316223
805.4712, 4.514099
805.9533, 4.201233
806.4354, 3.897888
806.9175, 4.030579
807.3997, 4.763245
807.8818, 5.311401
808.3639, 5.682800
808.8460, 5.795471
809.3281, 5.199890
809.8102, 4.314819
810.2924, 4.487183
810.7745, 6.055969
811.2566, 7.183594
811.7387, 5.703064
812.2208, 3.710022
812.7029, 3.244385
813.1851, 5.564514
813.6672, 6.757385
814.1493, 6.242371
814.6314, 5.028015
815.1135, 3.682251
815.5956, 2.146912
816.0778, 1.492798
816.5599, 1.855835
817.0420, 2.461243
817.5241, 2.623840
818.0062, 2.473816
818.4883, 2.053223
818.9705, 1.272278
819.4526, 1.066589
819.9347, 2.797302
820.4168, 4.613586
820.8989, 4.910400
821.3810, 3.056091
821.8632, 2.222534
822.3453, 2.842773
822.8274, 3.550293
823.3095, 2.920105
823.7916, 1.304626
824.2737, 0.9240110
824.7559, 1.891907
825.2380, 2.704346
825.7201, 1.902771
826.2022, 0.4869380
826.6843, 0.6695560
827.1664, 1.465027
827.6486, 1.814270
828.1307, 1.188110
828.6128, 0.6006470
829.0949, 0.6748660
829.5770, 0.2629799
830.0591, 0.4428985
830.5413, 0.3021240
831.0234, 0.9044800
831.5055, 1.634766
831.9876, 1.893799
832.4697, 1.361511
832.9518, 0.1193850
833.4340, 0.5879520
833.9161, 0.5619510
834.3982, 1.976440
834.8803, 2.730225
835.3624, 2.705505
835.8445, 2.325317
836.3267, 1.466614
836.8088, 0.4899900
837.2909, 0.5077510
837.7730, 1.478882
838.2551, 2.260254
838.7372, 2.816956
839.2194, 2.746826
839.7015, 0.8699340
840.1836, 1.084473
840.6657, 0.8853150
841.1478, 1.086792
841.6299, 2.091187
842.1121, 0.7840580
842.5942, 2.466064
843.0763, 0.2886350
843.5584, 1.009083
844.0405, 1.486153
844.5226, 1.471863
845.0048, 2.043823
845.4869, 2.585388
845.9690, 1.488525
846.4511, 1.107605
846.9332, 1.269409
847.4153, 1.461426
847.8975, 1.502075
848.3796, 1.437439
848.8617, 1.074280
849.3438, 0.6168820
849.8259, 0.7843020
850.3080, 2.150940
850.7902, 2.841553
851.2723, 2.120667
851.7544, 0.8792110
852.2365, 1.450867
852.7186, 3.481262
853.2007, 4.830566
853.6829, 4.520142
854.1650, 3.578735
854.6471, 2.136353
855.1292, 0.8615720
855.6113, 0.8859860
856.0934, 4.781433
856.5756, 6.914673
857.0577, 5.833252
857.5398, 3.408447
858.0219, 2.175171
858.5040, 2.152649
858.9861, 3.009033
859.4683, 4.950684
859.9504, 6.789795
860.4325, 6.684753
860.9146, 5.543152
861.3967, 4.940002
861.8788, 5.518433
862.3610, 5.955994
862.8431, 5.896545
863.3252, 5.363037
863.8073, 4.274963
864.2894, 2.060303
864.7715, 1.290955
865.2537, 2.426208
865.7358, 3.684143
866.2179, 2.795471
866.7000, 0.6861570
867.1821, 0.1426390
867.6642, 1.517395
868.1464, 2.719055
868.6285, 1.835693
869.1106, 0.6372680
869.5927, 0.5672000
870.0748, 2.069580
870.5569, 3.153320
871.0391, 3.528442
871.5212, 3.987854
872.0033, 5.147827
872.4854, 6.845764
872.9675, 7.786255
873.4496, 8.009583
873.9318, 8.091064
874.4139, 8.418823
874.8960, 8.806946
875.3781, 9.296204
875.8602, 9.787598
876.3423, 9.590027
876.8245, 7.671692
877.3066, 6.005188
877.7887, 4.937927
878.2708, 4.575378
878.7529, 6.023376
879.2350, 9.289368
879.7172, 11.42871
880.1993, 10.72528
880.6814, 8.734314
881.1635, 6.736450
881.6456, 5.073364
882.1277, 4.542603
882.6099, 6.401733
883.0920, 8.353455
883.5741, 9.824524
884.0562, 10.98254
884.5383, 12.38818
885.0204, 14.33240
885.5026, 14.56372
885.9847, 12.28815
886.4668, 9.549622
886.9489, 9.337952
887.4310, 10.62830
887.9131, 11.43256
888.3953, 11.02991
888.8774, 10.91675
889.3595, 12.17651
889.8416, 13.67346
890.3237, 14.19427
890.8058, 12.85699
891.2880, 13.19891
891.7701, 15.88293
892.2522, 18.53571
892.7343, 18.45953
893.2164, 16.77240
893.6985, 16.58246
894.1807, 18.12018
894.6628, 19.94232
895.1449, 21.24573
895.6270, 22.31262
896.1091, 23.50708
896.5912, 24.88715
897.0734, 25.26465
897.5555, 24.05524
898.0376, 23.55908
898.5197, 25.03284
899.0018, 27.86682
899.4839, 30.40759
899.9661, 32.82422
900.4482, 34.79590
900.9303, 36.19446
901.4124, 36.88544
901.8945, 36.82971
902.3766, 36.66858
902.8588, 37.41162
903.3409, 39.31165
903.8230, 41.59729
904.3051, 44.42145
904.7872, 47.25787
905.2693, 48.98572
905.7515, 49.75134
906.2336, 50.44153
906.7157, 51.16620
907.1978, 52.22711
907.6799, 53.69757
908.1620, 55.71954
908.6442, 58.56683
909.1263, 63.37787
909.6084, 66.98254
910.0905, 68.85919
910.5726, 70.14160
911.0547, 71.79132
911.5369, 73.80170
912.0190, 76.10828
912.5011, 78.71558
912.9832, 81.58722
913.4653, 84.87543
913.9474, 88.29724
914.4296, 91.62677
914.9117, 94.84235
915.3938, 97.85352
915.8759, 100.2600
916.3580, 102.9847
916.8401, 106.4366
917.3223, 110.5004
917.8044, 114.7051
918.2865, 118.9872
918.7686, 123.0149
919.2507, 126.1495
919.7328, 129.3287
920.2150, 133.8960
920.6971, 139.2092
921.1792, 143.7847
921.6613, 146.7953
922.1434, 149.5294
922.6255, 151.7705
923.1077, 154.2429
923.5898, 158.7414
924.0719, 165.0598
924.5540, 169.7921
925.0361, 171.8317
925.5182, 173.9690
926.0004, 180.1417
926.4825, 187.4978
926.9646, 192.4807
927.4467, 193.3791
927.9288, 194.8145
928.4109, 197.3307
928.8931, 200.5032
929.3752, 204.6958
929.8573, 209.8320
930.3394, 211.7963
930.8215, 210.5809
931.3036, 208.5615
931.7858, 206.9155
932.2679, 205.7425
932.7500, 205.4998
933.2321, 206.0092
933.7142, 205.8264
934.1964, 203.9246
934.6785, 202.3070
935.1606, 201.7098
935.6427, 201.6163
936.1248, 200.4759
936.6069, 198.3253
937.0891, 195.7563
937.5712, 192.6915
938.0533, 189.7169
938.5354, 187.9680
939.0175, 186.3421
939.4996, 183.3735
939.9818, 177.5439
940.4639, 172.0307
940.9460, 166.6450
941.4281, 162.1160
941.9102, 159.9865
942.3923, 159.8671
942.8745, 157.5832
943.3566, 152.7195
943.8387, 147.7825
944.3208, 144.9683
944.8029, 142.9780
945.2850, 140.6776
945.7672, 137.9600
946.2493, 135.7274
946.7314, 134.4263
947.2135, 132.9214
947.6956, 130.8554
948.1777, 128.2079
948.6599, 124.7551
949.1420, 120.6492
949.6241, 116.8252
950.1062, 113.8853
950.5883, 111.1790
951.0704, 107.8945
951.5526, 104.5996
952.0347, 102.6058
952.5168, 103.7947
952.9989, 102.2809
953.4810, 96.73322
953.9631, 90.15814
954.4453, 86.59210
954.9274, 85.16956
955.4095, 82.68958
955.8916, 78.65637
956.3737, 74.86407
956.8558, 72.84552
957.3380, 71.25867
957.8201, 69.17731
958.3022, 66.53552
958.7843, 63.23431
959.2664, 58.87537
959.7485, 55.08246
960.2307, 52.91656
960.7128, 51.67841
961.1949, 50.12360
961.6770, 48.12701
962.1591, 45.29321
962.6412, 39.71436
963.1234, 35.19238
963.6055, 34.28461
964.0876, 35.04279
964.5697, 34.09448
965.0518, 31.04053
965.5339, 28.24677
966.0161, 25.98840
966.4982, 24.11560
966.9803, 22.50366
967.4624, 21.11688
967.9445, 20.11066
968.4266, 19.56091
968.9088, 18.45697
969.3909, 15.73273
969.8730, 12.98773
970.3551, 10.77899
970.8372, 9.167725
971.3193, 9.473083
971.8015, 11.78064
972.2836, 13.11609
972.7657, 11.01068
973.2478, 7.768555
973.7299, 5.957642
974.2120, 5.157227
974.6942, 4.498169
975.1763, 3.489197
975.6584, 2.951172
976.1405, 3.091919
976.6226, 3.623474
977.1047, 4.309265
977.5869, 5.101135
978.0690, 5.287781
978.5511, 4.721680
979.0332, 4.023499
979.5153, 3.788086
979.9974, 3.614502
980.4796, 3.095642
980.9617, 2.133850
981.4438, 1.298645
981.9259, 0.6184690
982.4080, 9.6252002E-02
982.8901, 0.2996220
983.3723, 0.5132450
983.8544, 0.2160030
984.3365, 0.3784790
984.8186, 0.7235110
985.3007, 5.9199999E-03
985.7828, 0.4223630
986.2650, 5.8594000E-02
986.7471, 0.8691410
987.2292, 2.019775
987.7113, 3.719849
988.1934, 4.262024
988.6755, 3.284363
989.1577, 1.947083
989.6398, 1.383240
990.1219, 1.466553
990.6040, 2.173889
991.0861, 3.441162
991.5682, 3.885742
992.0504, 2.143738
992.5325, 0.4500730
993.0146, 0.2008060
993.4967, 6.4940996E-02
993.9788, 0.4765630
994.4609, 1.400574
994.9431, 2.301270
995.4252, 3.233337
995.9073, 3.599243
996.3894, 2.174866
996.8715, 2.692225
997.3536, 1.688110
997.8358, 1.944153
998.3179, 1.812439
998.8000, 1.199646
999.2821, 0.3584590
999.7642, 0.7399900
1000.246, 1.939636
1000.728, 2.206665
1001.211, 1.528015
1001.693, 0.6095580
1002.175, 0.3842770
1002.657, 0.2143869
1003.139, 0.3882673
1003.621, 1.030029
1004.103, 1.580261
1004.585, 3.338135
1005.068, 4.556396
1005.550, 4.647400
1006.032, 4.265625
1006.514, 4.635254
1006.996, 5.264648
1007.478, 4.917297
1007.960, 2.497070
1008.442, 1.039063
1008.924, 2.383423
1009.407, 4.251343
1009.889, 5.284241
1010.371, 5.525146
1010.853, 5.158752
1011.335, 4.103333
1011.817, 3.603943
1012.299, 5.363220
1012.781, 7.319580
1013.263, 7.580200
1013.746, 6.457764
1014.228, 5.028870
1014.710, 2.587830
1015.192, 1.939819
1015.674, 4.074097
1016.156, 6.849426
1016.638, 6.542236
1017.120, 4.256592
1017.603, 3.599060
1018.085, 5.404663
1018.567, 6.885986
1019.049, 5.974731
1019.531, 4.540161
1020.013, 3.797058
1020.495, 3.722717
1020.977, 3.672241
1021.459, 3.672607
1021.942, 3.524902
1022.424, 3.050171
1022.906, 2.479126
1023.388, 2.217896
1023.870, 2.083191
1024.352, 1.710388
1024.834, 0.5016480
1025.316, 0.2201540
1025.799, 0.2651980
1026.281, 0.1021120
1026.763, 0.8488770
1027.245, 1.838867
1027.727, 1.954590
1028.209, 1.188843
1028.691, 0.8628540
1029.173, 2.983704
1029.656, 4.860291
1030.138, 4.001831
1030.620, 1.034912
1031.102, 8.7219000E-02
1031.584, 1.084106
1032.066, 2.458252
1032.548, 3.668701
1033.030, 4.474060
1033.512, 4.172424
1033.995, 3.323425
1034.477, 2.910156
1034.959, 3.319397
1035.441, 3.578491
1035.923, 3.128479
1036.405, 2.860291
1036.887, 3.582092
1037.369, 5.038025
1037.851, 4.624695
1038.334, 2.543640
1038.816, 0.5697630
1039.298, 0.2935180
1039.780, 0.6937870
1040.262, 1.267761
1040.744, 1.614929
1041.226, 0.7785640
1041.708, 2.254028
1042.191, 3.286560
1042.673, 1.551270
1043.155, 0.3471070
1043.637, 0.7777710
1044.119, 3.384277
1044.601, 4.879211
1045.083, 5.087769
1045.565, 4.905701
1046.047, 4.717468
1046.530, 4.025146
1047.012, 2.319031
1047.494, 0.2258910
1047.976, 0.1652830
1048.458, 0.8888550
1048.940, 1.231445
1049.422, 2.5208000E-02
1049.904, 1.171814
1050.386, 0.7863770
1050.869, 0.2686160
1051.351, 1.165527
1051.833, 1.814941
1052.315, 2.386902
1052.797, 2.829956
1053.279, 3.389648
1053.761, 4.751160
1054.243, 6.090393
1054.726, 5.165405
1055.208, 2.880981
1055.690, 1.813477
1056.172, 4.613525
1056.654, 6.254700
1057.136, 5.722961
1057.618, 4.270081
1058.100, 3.139221
1058.583, 2.376892
1059.065, 2.311829
1059.547, 2.951843
1060.029, 3.336182
1060.511, 2.540405
1060.993, 1.513062
1061.475, 0.5128780
1061.957, 0.2360230
1062.439, 0.4185180
1062.922, 2.878662
1063.404, 4.078064
1063.886, 2.893066
1064.368, 1.217468
1064.850, 1.505310
1065.332, 2.703735
1065.814, 3.497009
1066.296, 3.708069
1066.778, 3.026123
1067.261, 2.927427
1067.743, 2.331943
1068.225, 1.625244
1068.707, 1.119080
1069.189, 0.5297240
1069.671, 0.1865230
1070.153, 1.223022
1070.635, 3.836548
1071.118, 5.187683
1071.600, 2.745361
1072.082, 0.6369630
1072.564, 2.120178
1073.046, 1.565186
1073.528, 0.6166380
1074.010, 0.6726680
1074.492, 1.906738
1074.974, 3.134521
1075.457, 3.844055
1075.939, 3.126953
1076.421, 1.418640
1076.903, 0.5328370
1077.385, 0.7413330
1077.867, 1.354736
1078.349, 2.413086
1078.831, 3.411621
1079.313, 3.518250
1079.796, 3.152954
1080.278, 3.065002
1080.760, 3.370056
1081.242, 3.714905
1081.724, 3.888489
1082.206, 4.227112
1082.688, 5.015259
1083.170, 5.921753
1083.652, 5.679626
1084.135, 4.605408
1084.617, 4.348083
1085.099, 5.951172
1085.581, 7.126709
1086.063, 6.098145
1086.545, 4.255249
1087.027, 2.576355
1087.509, 0.9107060
1087.992, 1.908142
1088.474, 5.782104
1088.956, 9.155151
1089.438, 10.16870
1089.920, 9.594604
1090.402, 7.048828
1090.884, 3.775085
1091.366, 2.523621
1091.849, 4.984314
1092.331, 6.870483
1092.813, 7.904419
1093.295, 8.465637
1093.777, 8.876526
1094.259, 9.093506
1094.741, 9.134094
1095.223, 8.956055
1095.705, 8.298218
1096.188, 6.093933
1096.670, 4.684082
1097.152, 4.906067
1097.634, 5.955261
1098.116, 6.305481
1098.598, 6.122620
1099.080, 6.400391
1099.562, 7.438721
1100.044, 7.953674
1100.527, 6.077759
1101.009, 4.347656
1101.491, 5.136169
1101.973, 7.839294
1102.455, 8.957397
1102.937, 8.455566
1103.419, 7.268860
1103.901, 5.259155
1104.384, 3.802612
1104.866, 4.974731
1105.348, 7.123047
1105.830, 8.282654
1106.312, 7.805054
1106.794, 8.513550
1107.276, 10.86047
1107.758, 12.42407
1108.240, 11.60498
1108.723, 9.557251
1109.205, 7.493042
1109.687, 5.803345
1110.169, 5.384949
1110.651, 8.625916
1111.133, 9.891663
1111.615, 7.813965
1112.097, 5.371643
1112.579, 5.662354
1113.062, 7.844482
1113.544, 8.672363
1114.026, 8.290894
1114.508, 8.111938
1114.990, 9.505371
1115.472, 10.44757
1115.954, 9.829773
1116.436, 8.626709
1116.919, 8.262024
1117.401, 8.694580
1117.883, 9.406982
1118.365, 10.34674
1118.847, 11.09064
1119.329, 11.46625
1119.811, 11.35736
1120.293, 10.51062
1120.776, 9.214417
1121.258, 8.125000
1121.740, 7.216187
1122.222, 7.442871
1122.704, 9.376648
1123.186, 11.26648
1123.668, 11.41479
1124.150, 10.43805
1124.632, 8.669678
1125.115, 5.973389
1125.597, 4.382690
1126.079, 4.119934
1126.561, 4.863281
1127.043, 7.064575
1127.525, 9.262634
1128.007, 8.600708
1128.489, 6.348450
1128.971, 4.660950
1129.454, 4.260010
1129.936, 3.735229
1130.418, 2.745850
1130.900, 2.182739
1131.382, 2.669800
1131.864, 3.930664
1132.346, 5.250610
1132.828, 6.395203
1133.311, 6.808289
1133.793, 5.497803
1134.275, 4.521484
1134.757, 4.300964
1135.239, 4.616272
1135.721, 5.733765
1136.203, 7.382507
1136.685, 6.840271
1137.167, 4.366150
1137.650, 2.680664
1138.132, 4.264648
1138.614, 5.989746
1139.096, 6.188660
1139.578, 5.802124
1140.060, 6.337280
1140.542, 7.827332
1141.024, 7.917969
1141.506, 6.404358
1141.989, 4.667175
1142.471, 3.162292
1142.953, 2.348511
1143.435, 3.015564
1143.917, 4.630005
1144.399, 5.433167
1144.881, 5.342102
1145.363, 4.835327
1145.846, 3.967346
1146.328, 3.297180
1146.810, 3.498474
1147.292, 4.065796
1147.774, 4.530151
1148.256, 4.855469
1148.738, 5.418091
1149.220, 6.520386
1149.703, 6.546753
1150.185, 4.699341
1150.667, 2.523132
1151.149, 1.850342
1151.631, 2.217163
1152.113, 3.221375
1152.595, 4.968079
1153.077, 5.830383
1153.559, 5.374390
1154.042, 4.949829
1154.524, 5.140076
1155.006, 5.589722
1155.488, 5.721985
1155.970, 5.597107
1156.452, 5.256165
1156.934, 4.468262
1157.416, 4.298767
1157.898, 5.370972
1158.381, 6.037964
1158.863, 5.135315
1159.345, 3.387451
1159.827, 2.820129
1160.309, 3.161377
1160.791, 3.706177
1161.273, 4.615723
1161.755, 4.974304
1162.238, 4.338989
1162.720, 3.526123
1163.202, 3.158569
1163.684, 3.140747
1164.166, 2.837830
1164.648, 2.341858
1165.130, 2.072205
1165.612, 2.657410
1166.094, 2.978577
1166.577, 2.021362
1167.059, 1.073486
1167.541, 1.870117
1168.023, 4.156311
1168.505, 5.640930
1168.987, 6.291199
1169.469, 6.541016
1169.951, 6.431030
1170.433, 6.195679
1170.916, 5.905701
1171.398, 5.604004
1171.880, 5.371643
1172.362, 4.937744
1172.844, 4.843872
1173.326, 5.159729
1173.808, 5.170227
1174.290, 3.674072
1174.773, 2.507690
1175.255, 3.378662
1175.737, 5.017212
1176.219, 4.971497
1176.701, 3.239624
1177.183, 1.394958
1177.665, 0.4302980
1178.147, 1.312561
1178.630, 0.3746340
1179.112, 2.421326
1179.594, 3.184570
1180.076, 3.015991
1180.558, 3.300476
1181.040, 4.097168
1181.522, 3.835144
1182.004, 1.980774
1182.486, 0.6285400
1182.969, 2.605713
1183.451, 5.062378
1183.933, 5.196838
1184.415, 3.419922
1184.897, 3.681946
1185.379, 6.316467
1185.861, 6.845581
1186.343, 3.521606
1186.825, 0.2639160
1187.308, 2.110901
1187.790, 5.033875
1188.272, 4.670898
1188.754, 0.9628910
1189.236, 1.045959
1189.718, 1.272949
1190.200, 0.7796630
1190.682, 0.3125610
1191.165, 1.404114
1191.647, 1.889954
1192.129, 2.010803
1192.611, 1.954834
1193.093, 1.720764
1193.575, 1.647705
1194.057, 1.754333
1194.539, 1.792480
1195.021, 1.598328
1195.504, 1.402832
1195.986, 1.246948
1196.468, 1.349854
1196.950, 2.203247
1197.432, 4.086121
1197.914, 4.782288
1198.396, 4.120544
1198.878, 3.367859
1199.360, 3.084778
1199.843, 3.078125
1200.325, 3.405029
1200.807, 3.746643
1201.289, 3.592712
1201.771, 2.781311
1202.253, 2.035767
1202.735, 1.336426
1203.217, 0.9303590
1203.700, 1.173035
1204.182, 1.536682
1204.664, 1.235046
1205.146, 0.7121580
1205.628, 0.6916500
1206.110, 1.299255
1206.592, 2.322144
1207.074, 3.890198
1207.557, 5.046448
1208.039, 4.961365
1208.521, 4.323547
1209.003, 3.668457
1209.485, 3.078003
1209.967, 2.670654
1210.449, 2.135986
1210.931, 2.921021
1211.413, 5.322205
1211.896, 7.188477
1212.378, 6.536560
1212.860, 5.039063
1213.342, 4.655334
1213.824, 4.720764
1214.306, 3.618835
1214.788, 0.2440190
1215.270, 0.3734130
1215.752, 2.241516
1216.235, 4.629578
1216.717, 3.532532
1217.199, 1.577576
1217.681, 1.640259
1218.163, 2.818665
1218.645, 2.880432
1219.127, 1.223450
1219.609, 0.6681520
1220.092, 1.449036
1220.574, 2.212646
1221.056, 1.590149
1221.538, 2.067354
1222.020, 1.013977
1222.502, 1.794434
1222.984, 1.346985
1223.466, 0.9277950
1223.948, 1.474548
1224.431, 1.364167
1224.913, 1.706299
1225.395, 1.993286
1225.877, 1.933655
1226.359, 2.299561
1226.841, 2.933899
1227.323, 3.494995
1227.805, 4.166748
1228.287, 2.944214
1228.770, 0.4502560
1229.252, 2.873901
1229.734, 0.6063840
1230.216, 2.437866
1230.698, 3.677490
1231.180, 3.430359
1231.662, 2.154602
1232.144, 0.3795780
1232.627, 0.3662110
1233.109, 2.575867
1233.591, 5.389160
1234.073, 5.995300
1234.555, 5.476135
1235.037, 3.803101
1235.519, 1.789551
1236.001, 0.8316040
1236.484, 1.052856
1236.966, 2.222961
1237.448, 4.311279
1237.930, 5.879395
1238.412, 5.740417
1238.894, 5.039368
1239.376, 4.137268
1239.858, 3.236511
1240.340, 2.535461
1240.823, 2.079590
1241.305, 2.599121
1241.787, 4.097778
1242.269, 4.886719
1242.751, 2.599670
1243.233, 0.9483030
1243.715, 2.031433
1244.197, 4.218811
1244.679, 5.215515
1245.162, 5.112610
1245.644, 3.730896
1246.126, 1.220093
1246.608, 0.3607180
1247.090, 0.9697880
1247.572, 2.863342
1248.054, 4.617004
1248.536, 6.262085
1249.019, 8.067627
1249.501, 9.727051
1249.983, 9.849304
1250.465, 8.507629
1250.947, 8.035034
1251.429, 11.45264
1251.911, 12.77472
1252.393, 10.01654
1252.875, 6.100769
1253.358, 5.250977
1253.840, 6.157471
1254.322, 5.682068
1254.804, 3.779114
1255.286, 2.443848
1255.768, 2.518494
1256.250, 2.697266
1256.732, 2.726501
1257.214, 3.005432
1257.697, 4.771362
1258.179, 6.718384
1258.661, 6.072815
1259.143, 3.245789
1259.625, 2.188538
1260.107, 4.310425
1260.589, 5.809204
1261.071, 6.116333
1261.554, 5.867310
1262.036, 5.603943
1262.518, 5.293396
1263.000, 5.023438
1263.482, 4.607117
1263.964, 3.533447
1264.446, 1.654419
1264.928, 0.6931150
1265.411, 0.9222410
1265.893, 1.749207
1266.375, 2.633301
1266.857, 3.844788
1267.339, 5.011963
1267.821, 5.928223
1268.303, 6.397949
1268.785, 6.416565
1269.267, 7.002075
1269.750, 8.295105
1270.232, 8.830444
1270.714, 6.420166
1271.196, 4.022278
1271.678, 3.707214
1272.160, 4.619263
1272.642, 5.897400
1273.124, 7.414246
1273.606, 6.951660
1274.089, 4.492798
1274.571, 2.451111
1275.053, 2.364441
1275.535, 2.920654
1276.017, 3.886108
1276.499, 4.711609
1276.981, 4.223755
1277.463, 5.209900
1277.946, 3.627808
1278.428, 5.958496
1278.910, 7.636353
1279.392, 7.685669
1279.874, 6.605347
1280.356, 3.927612
1280.838, 1.340088
1281.320, 1.110474
1281.802, 2.097473
1282.285, 1.704285
1282.767, 0.2312620
1283.249, 0.4862670
1283.731, 0.3561400
1284.213, 1.467651
1284.695, 2.997437
1285.177, 4.020264
1285.659, 3.317749
1286.141, 1.835327
1286.624, 0.2603760
1287.106, 1.035034
1287.588, 0.9396360
1288.070, 1.192871
1288.552, 1.991516
1289.034, 1.191162
1289.516, 0.2197270
1289.998, 0.1680300
1290.481, 0.3754880
1290.963, 0.1429440
1291.445, 0.6479490
1291.927, 1.158508
1292.409, 1.677979
1292.891, 2.731689
1293.373, 3.248657
1293.855, 4.275818
1294.338, 6.839478
1294.820, 8.607666
1295.302, 7.229858
1295.784, 5.039673
1296.266, 3.505920
1296.748, 2.078796
1297.230, 3.026550
1297.712, 6.000366
1298.194, 8.533203
1298.677, 9.919678
1299.159, 9.180969
1299.641, 5.251892
1300.123, 1.565430
1300.605, 1.174011
1301.087, 2.662659
1301.569, 2.689941
1302.051, 1.718628
1302.533, 0.8832400
1303.016, 0.0000000E+00
##END=



