##NAMES=Hectorfloresite
##RRUFFID=R080117
##IDEAL CHEMISTRY=Na_9_(IO_3_)(SO_4_)_4_
##LOCALITY=Pampa Rica, Antofagasta Province, Chile
##OWNER=RRUFF
##SOURCE=Bob Jenkins
##DESCRIPTION=Pseudohexagonal light brown, twinned crystals associated with colorless thenardite
##STATUS=The identification of this mineral has been confirmed by single-crystal X-ray diffraction.
##URL=rruff.info/R080117
134.9497, 0.0000000E+00
135.4318, 0.5676880
135.9139, 3.942993
136.3960, 8.186462
136.8782, 12.06049
137.3603, 15.14148
137.8424, 18.36621
138.3245, 21.62604
138.8066, 24.99561
139.2887, 28.62225
139.7709, 32.58685
140.2530, 36.56598
140.7351, 40.25867
141.2172, 43.75739
141.6993, 46.85443
142.1814, 49.56403
142.6636, 51.72235
143.1457, 53.01495
143.6278, 53.37543
144.1099, 53.01343
144.5920, 52.62592
145.0741, 52.28809
145.5563, 51.07690
146.0384, 47.83813
146.5205, 42.28052
147.0026, 37.38922
147.4847, 32.82013
147.9668, 28.49390
148.4490, 25.14844
148.9311, 23.21796
149.4132, 21.22052
149.8953, 18.91577
150.3774, 16.28174
150.8595, 13.75867
151.3417, 10.91534
151.8238, 8.393372
152.3059, 6.833313
152.7880, 6.425171
153.2701, 7.185913
153.7522, 7.528625
154.2344, 6.482605
154.7165, 5.771973
155.1986, 5.515472
155.6807, 5.145905
156.1628, 4.347290
156.6449, 3.404297
157.1271, 2.544159
157.6092, 1.557129
158.0913, 0.6247560
158.5734, 0.1806340
159.0555, 0.6374210
159.5376, 0.3946840
160.0198, 1.8494001E-02
160.5019, 0.4196170
160.9840, 0.9159240
161.4661, 1.015015
161.9482, 0.2552490
162.4303, 0.4633480
162.9125, 0.1914060
163.3946, 1.049316
163.8767, 2.172211
164.3588, 2.462585
164.8409, 2.240234
165.3230, 2.026276
165.8052, 1.858765
166.2873, 1.788788
166.7694, 1.948822
167.2515, 2.429657
167.7336, 2.773346
168.2157, 2.662079
168.6979, 2.349060
169.1800, 2.145630
169.6621, 2.297791
170.1442, 2.558990
170.6263, 2.127228
171.1084, 0.2911070
171.5906, 1.087708
172.0727, 1.173553
172.5548, 0.5545960
173.0369, 4.8767000E-02
173.5190, 0.1631470
174.0011, 0.8265380
174.4833, 1.429016
174.9654, 2.195709
175.4475, 2.654724
175.9296, 2.510773
176.4117, 1.987823
176.8938, 1.486084
177.3760, 1.307800
177.8581, 1.464020
178.3402, 1.572937
178.8223, 2.006989
179.3044, 2.047760
179.7865, 1.192902
180.2687, 0.3441770
180.7508, 1.997009
181.2329, 3.382294
181.7150, 4.515839
182.1971, 4.498474
182.6792, 2.315613
183.1614, 4.9740002E-03
183.6435, 1.329590
184.1256, 1.623505
184.6077, 1.375275
185.0898, 0.9401860
185.5719, 0.2984620
186.0541, 0.3509520
186.5362, 1.153412
187.0183, 1.875702
187.5004, 2.125061
187.9825, 1.822632
188.4646, 1.684296
188.9468, 2.654602
189.4289, 4.436615
189.9110, 5.829041
190.3931, 6.352570
190.8752, 6.393402
191.3573, 6.532471
191.8395, 6.829041
192.3216, 7.171936
192.8037, 7.951508
193.2858, 8.729340
193.7679, 9.515076
194.2500, 10.25479
194.7322, 10.99725
195.2143, 11.95239
195.6964, 13.33554
196.1785, 14.59241
196.6606, 15.45605
197.1427, 15.99265
197.6249, 16.32959
198.1070, 16.41852
198.5891, 16.31024
199.0712, 16.55493
199.5533, 17.48361
200.0354, 18.42096
200.5176, 19.04788
200.9997, 19.47006
201.4818, 19.96463
201.9639, 20.82166
202.4460, 22.06131
202.9281, 22.87906
203.4103, 23.03271
203.8924, 22.94507
204.3745, 22.48785
204.8566, 21.84802
205.3387, 21.44614
205.8208, 21.70364
206.3030, 22.73077
206.7851, 23.39948
207.2672, 23.46707
207.7493, 23.45810
208.2314, 23.51028
208.7135, 23.65964
209.1957, 23.92276
209.6778, 24.32587
210.1599, 24.90564
210.6420, 25.36951
211.1241, 25.71436
211.6062, 25.96564
212.0884, 26.03616
212.5705, 25.97842
213.0526, 26.02661
213.5347, 26.44873
214.0168, 27.31042
214.4989, 27.72562
214.9811, 27.34476
215.4632, 26.82816
215.9453, 26.58102
216.4274, 26.61450
216.9095, 26.79160
217.3916, 27.10587
217.8737, 27.55350
218.3559, 27.69614
218.8380, 27.11893
219.3201, 26.48270
219.8022, 26.43341
220.2843, 27.00534
220.7664, 27.65201
221.2486, 27.99963
221.7307, 28.02081
222.2128, 27.74323
222.6949, 26.67279
223.1770, 25.54788
223.6591, 25.45206
224.1413, 26.58560
224.6234, 27.51257
225.1055, 26.70718
225.5876, 24.98645
226.0697, 23.83746
226.5518, 24.03088
227.0340, 24.80350
227.5161, 25.01498
227.9982, 24.53061
228.4803, 23.94055
228.9624, 23.54892
229.4445, 23.19214
229.9267, 22.81235
230.4088, 22.44931
230.8909, 22.03741
231.3730, 21.33365
231.8551, 20.07303
232.3372, 19.12326
232.8194, 19.09711
233.3015, 19.43600
233.7836, 19.52713
234.2657, 19.09839
234.7478, 18.33911
235.2299, 17.62527
235.7121, 16.88730
236.1942, 16.28986
236.6763, 15.95285
237.1584, 15.72281
237.6405, 15.43713
238.1227, 15.02023
238.6048, 14.56107
239.0869, 14.44598
239.5690, 15.01691
240.0511, 15.29703
240.5332, 14.87982
241.0154, 14.17349
241.4975, 13.57190
241.9796, 13.31534
242.4617, 13.34042
242.9438, 13.42230
243.4259, 13.56085
243.9081, 13.81808
244.3902, 14.26410
244.8723, 14.73135
245.3544, 15.08636
245.8365, 15.30408
246.3186, 15.39026
246.8008, 15.23792
247.2829, 14.26657
247.7650, 13.82684
248.2471, 14.14838
248.7292, 14.88702
249.2113, 15.95972
249.6935, 17.28958
250.1756, 18.46893
250.6577, 18.63120
251.1398, 16.33673
251.6219, 15.11108
252.1040, 15.66696
252.5862, 16.86856
253.0683, 17.81036
253.5504, 18.19714
254.0325, 18.15912
254.5146, 17.88550
254.9967, 17.09100
255.4789, 16.61270
255.9610, 16.48145
256.4431, 16.63660
256.9252, 17.05136
257.4073, 17.71210
257.8894, 18.52319
258.3716, 19.37387
258.8537, 20.32333
259.3358, 21.13617
259.8179, 22.03717
260.3000, 22.67407
260.7821, 22.58514
261.2643, 21.72705
261.7464, 20.68472
262.2285, 20.07870
262.7106, 20.00922
263.1927, 20.01813
263.6748, 20.16217
264.1570, 20.33929
264.6391, 20.49054
265.1212, 20.60251
265.6033, 20.64743
266.0854, 20.64819
266.5675, 20.58057
267.0497, 20.14661
267.5318, 19.05176
268.0139, 17.78873
268.4960, 16.80103
268.9781, 16.09866
269.4602, 15.27399
269.9424, 13.85330
270.4245, 12.00729
270.9066, 10.83954
271.3887, 10.95322
271.8708, 11.31726
272.3529, 11.25937
272.8351, 10.77402
273.3172, 9.910889
273.7993, 8.443665
274.2814, 6.681488
274.7635, 5.557648
275.2456, 5.461517
275.7278, 5.600983
276.2099, 5.413849
276.6920, 4.945129
277.1741, 4.589447
277.6562, 4.665558
278.1383, 4.874725
278.6205, 4.608459
279.1026, 3.665009
279.5847, 2.672272
280.0668, 1.935822
280.5489, 1.463745
281.0310, 1.390228
281.5132, 2.006958
281.9953, 2.798523
282.4774, 3.016541
282.9595, 2.583130
283.4416, 2.050293
283.9237, 1.741028
284.4059, 1.605743
284.8880, 1.431793
285.3701, 1.149750
285.8522, 0.8388670
286.3343, 0.5340580
286.8164, 0.2377320
287.2986, 8.8225998E-02
287.7807, 0.3327940
288.2628, 0.8046880
288.7449, 0.8836060
289.2270, 0.2507930
289.7091, 0.3545230
290.1913, 0.2270200
290.6734, 0.4565730
291.1555, 1.081635
291.6376, 1.367462
292.1197, 1.391205
292.6018, 1.308075
293.0840, 1.081482
293.5661, 0.8503110
294.0482, 0.7381590
294.5303, 0.6862490
295.0124, 0.5701600
295.4945, 0.2134400
295.9767, 0.1647030
296.4588, 5.7739001E-02
296.9409, 0.7300720
297.4230, 1.331360
297.9051, 1.043304
298.3872, 0.3852540
298.8694, 3.2928001E-02
299.3515, 3.6072001E-02
299.8336, 0.2811890
300.3157, 0.2462460
300.7978, 0.1374210
301.2799, 0.3879090
301.7621, 1.5564000E-02
302.2442, 0.4540710
302.7263, 0.2505190
303.2084, 0.8133240
303.6905, 1.948578
304.1726, 2.314209
304.6548, 1.878937
305.1369, 1.380310
305.6190, 0.9165040
306.1011, 0.5097350
306.5832, 0.1687010
307.0653, 0.1056820
307.5475, 0.3077090
308.0296, 0.4468380
308.5117, 0.5200500
308.9938, 0.4588620
309.4759, 0.1317750
309.9580, 0.1852110
310.4402, 0.2653500
310.9223, 0.1639710
311.4044, 0.1004940
311.8865, 0.4282840
312.3686, 0.9598390
312.8507, 0.8158570
313.3329, 0.3210450
313.8150, 1.627289
314.2971, 2.964996
314.7792, 4.122986
315.2613, 4.649445
315.7434, 4.051758
316.2256, 2.884735
316.7077, 2.395599
317.1898, 2.804688
317.6719, 3.268707
318.1540, 3.478577
318.6361, 3.519073
319.1183, 3.409576
319.6004, 3.083008
320.0825, 2.809723
320.5646, 3.042175
321.0467, 3.878265
321.5288, 4.596344
322.0110, 4.873901
322.4931, 4.994965
322.9752, 5.203552
323.4573, 5.540833
323.9394, 5.789520
324.4215, 5.553864
324.9037, 4.854340
325.3858, 4.726624
325.8679, 5.886108
326.3500, 7.134644
326.8321, 7.496155
327.3142, 7.090607
327.7964, 6.763885
328.2785, 7.090088
328.7606, 7.975952
329.2427, 9.060120
329.7248, 10.65417
330.2069, 11.85333
330.6891, 11.76398
331.1712, 10.93024
331.6533, 10.51538
332.1354, 11.25336
332.6175, 12.63113
333.0996, 13.61432
333.5818, 14.12210
334.0639, 14.50449
334.5460, 14.66089
335.0281, 14.88266
335.5102, 15.55066
335.9923, 16.82971
336.4745, 18.43134
336.9566, 20.16302
337.4387, 22.04059
337.9208, 23.59650
338.4029, 24.18063
338.8850, 24.75113
339.3671, 26.43204
339.8492, 29.40213
340.3314, 32.26755
340.8135, 33.64774
341.2956, 33.85550
341.7777, 34.85370
342.2598, 37.33441
342.7419, 40.21152
343.2241, 42.48605
343.7062, 44.28336
344.1883, 46.19141
344.6704, 48.71432
345.1525, 51.50830
345.6346, 53.65326
346.1168, 54.82019
346.5989, 56.24240
347.0810, 59.12161
347.5631, 62.82651
348.0452, 66.37762
348.5273, 69.31219
349.0095, 72.17673
349.4916, 75.65344
349.9737, 79.74020
350.4558, 83.93173
350.9379, 88.07166
351.4200, 92.10934
351.9022, 95.92953
352.3843, 99.35132
352.8664, 102.9547
353.3485, 107.1191
353.8306, 111.7637
354.3127, 116.7139
354.7949, 122.1878
355.2770, 127.5456
355.7591, 131.9068
356.2412, 135.3289
356.7233, 138.7296
357.2054, 142.8161
357.6876, 146.9111
358.1697, 149.9927
358.6518, 151.9056
359.1339, 152.9707
359.6160, 153.2351
360.0981, 152.8025
360.5803, 152.2836
361.0624, 151.7585
361.5445, 151.0248
362.0266, 150.0610
362.5087, 148.9112
362.9908, 147.4879
363.4730, 145.7228
363.9551, 143.6294
364.4372, 141.0238
364.9193, 137.5884
365.4014, 134.2110
365.8835, 131.4882
366.3657, 129.0761
366.8478, 126.2675
367.3299, 122.8361
367.8120, 118.9451
368.2941, 114.7764
368.7762, 110.3100
369.2584, 105.7360
369.7405, 100.8859
370.2226, 96.03604
370.7047, 91.49023
371.1868, 87.28918
371.6689, 83.38284
372.1511, 79.75867
372.6332, 76.43066
373.1153, 73.14777
373.5974, 69.58136
374.0795, 66.34534
374.5616, 63.77072
375.0438, 61.76089
375.5259, 59.97687
376.0080, 58.22443
376.4901, 56.62494
376.9722, 55.65091
377.4543, 55.90149
377.9365, 55.99005
378.4186, 55.40631
378.9007, 54.75504
379.3828, 54.72025
379.8649, 55.48322
380.3470, 56.73737
380.8292, 58.06763
381.3113, 59.46109
381.7934, 61.00543
382.2755, 62.67648
382.7576, 64.49750
383.2397, 66.45078
383.7219, 68.56216
384.2040, 70.92920
384.6861, 73.68503
385.1682, 76.77884
385.6503, 79.27460
386.1324, 80.71402
386.6146, 82.02292
387.0967, 83.75644
387.5788, 85.29977
388.0609, 85.88116
388.5430, 85.16785
389.0251, 83.42059
389.5073, 81.16583
389.9894, 78.56003
390.4715, 75.00772
390.9536, 70.08890
391.4357, 64.67136
391.9178, 59.00912
392.4000, 53.29422
392.8821, 47.87122
393.3642, 43.11377
393.8463, 39.02875
394.3284, 35.05811
394.8105, 30.93121
395.2927, 27.22885
395.7748, 24.24646
396.2569, 21.78726
396.7390, 19.47913
397.2211, 17.11484
397.7032, 14.85104
398.1854, 13.07266
398.6675, 11.85712
399.1496, 10.88400
399.6317, 10.34689
400.1138, 9.840790
400.5959, 9.012146
401.0781, 7.809387
401.5602, 6.555542
402.0423, 5.446991
402.5244, 4.504700
403.0065, 4.002258
403.4886, 4.274506
403.9708, 4.558472
404.4529, 4.187134
404.9350, 3.387115
405.4171, 2.799225
405.8992, 2.905853
406.3813, 3.277283
406.8635, 3.235565
407.3456, 2.751801
407.8277, 2.090912
408.3098, 1.203339
408.7919, 0.2960510
409.2740, 0.2890320
409.7562, 0.4806210
410.2383, 0.4941710
410.7204, 0.4114690
411.2025, 0.2509160
411.6846, 2.4261000E-02
412.1667, 0.3230590
412.6489, 0.5722350
413.1310, 0.3006290
413.6131, 0.4798280
414.0952, 0.9068600
414.5773, 0.4868770
415.0594, 0.1166990
415.5416, 0.3128970
416.0237, 8.7067001E-02
416.5058, 0.3379520
416.9879, 0.8948360
417.4700, 1.508026
417.9521, 1.764038
418.4343, 1.276031
418.9164, 0.9594420
419.3985, 1.534729
419.8806, 2.294586
420.3627, 1.944946
420.8448, 8.7615997E-02
421.3270, 2.135986
421.8091, 2.983154
422.2912, 1.787720
422.7733, 1.039917
423.2554, 1.029114
423.7375, 1.175262
424.2197, 1.075867
424.7018, 0.8123470
425.1839, 0.7722470
425.6660, 1.268463
426.1481, 2.194946
426.6302, 2.830261
427.1124, 2.933289
427.5945, 3.015045
428.0766, 2.972168
428.5587, 3.021851
429.0408, 3.425476
429.5229, 4.245422
430.0051, 5.254944
430.4872, 6.158386
430.9693, 6.947449
431.4514, 7.657410
431.9335, 8.046204
432.4156, 8.582977
432.8978, 9.631378
433.3799, 10.99652
433.8620, 12.13602
434.3441, 12.52005
434.8262, 12.59512
435.3083, 13.82019
435.7905, 16.69980
436.2726, 19.31927
436.7547, 20.72476
437.2368, 21.71014
437.7189, 22.89899
438.2010, 24.40466
438.6832, 26.12405
439.1653, 27.90231
439.6474, 29.78833
440.1295, 32.09824
440.6116, 34.92969
441.0938, 38.09506
441.5759, 41.36493
442.0580, 44.79251
442.5401, 48.66476
443.0222, 53.68845
443.5043, 58.74203
443.9865, 62.37402
444.4686, 64.76511
444.9507, 67.70773
445.4328, 72.10715
445.9149, 77.51559
446.3970, 82.76334
446.8792, 87.36484
447.3613, 93.07990
447.8434, 100.9838
448.3255, 109.9909
448.8076, 118.8786
449.2897, 127.4525
449.7719, 135.8920
450.2540, 144.3362
450.7361, 152.8107
451.2182, 161.4651
451.7003, 170.5025
452.1824, 179.4687
452.6646, 188.7596
453.1467, 197.7961
453.6288, 205.3776
454.1109, 210.9929
454.5930, 215.5368
455.0751, 220.7486
455.5573, 226.3123
456.0394, 233.2941
456.5215, 242.4173
457.0036, 252.0771
457.4857, 261.6307
457.9678, 270.8875
458.4500, 280.0046
458.9321, 289.4300
459.4142, 298.6800
459.8963, 305.0895
460.3784, 308.6495
460.8605, 309.0951
461.3427, 305.7709
461.8248, 300.0923
462.3069, 293.2519
462.7890, 285.5507
463.2711, 276.9245
463.7532, 266.9927
464.2354, 255.8189
464.7175, 245.0209
465.1996, 234.4682
465.6817, 224.8589
466.1638, 216.6762
466.6459, 209.7177
467.1281, 203.5719
467.6102, 198.3575
468.0923, 193.7354
468.5744, 189.7231
469.0565, 186.2272
469.5386, 182.2180
470.0208, 177.0949
470.5029, 171.3553
470.9850, 166.1963
471.4671, 161.8650
471.9492, 156.5186
472.4313, 149.2983
472.9135, 141.1077
473.3956, 132.7915
473.8777, 124.4597
474.3598, 115.7785
474.8419, 106.4005
475.3240, 96.46997
475.8062, 87.58154
476.2883, 80.17545
476.7704, 73.17334
477.2525, 66.01324
477.7346, 59.29431
478.2167, 53.88498
478.6989, 49.97443
479.1810, 46.81342
479.6631, 43.53500
480.1452, 40.14639
480.6273, 36.77835
481.1094, 32.89291
481.5916, 29.60788
482.0737, 27.65805
482.5558, 26.50372
483.0379, 25.18387
483.5200, 23.19666
484.0021, 20.95349
484.4843, 19.28372
484.9664, 18.32178
485.4485, 17.28522
485.9306, 15.77783
486.4127, 14.37979
486.8948, 13.51691
487.3770, 13.18594
487.8591, 13.07254
488.3412, 13.31650
488.8233, 13.57996
489.3054, 12.93018
489.7875, 11.26404
490.2697, 9.711578
490.7518, 8.863983
491.2339, 8.525513
491.7160, 8.194489
492.1981, 7.837219
492.6802, 7.516266
493.1624, 7.315247
493.6445, 7.183105
494.1266, 7.076874
494.6087, 6.983215
495.0908, 6.817841
495.5729, 6.503662
496.0551, 6.022491
496.5372, 5.488434
497.0193, 4.684814
497.5014, 4.121735
497.9835, 4.248169
498.4656, 4.603088
498.9478, 4.458435
499.4299, 3.599579
499.9120, 2.520996
500.3941, 1.973755
500.8762, 2.138336
501.3583, 2.091492
501.8405, 1.267059
502.3226, 0.8082280
502.8047, 1.551514
503.2868, 2.894165
503.7689, 3.684235
504.2510, 3.305481
504.7331, 2.346893
505.2152, 1.924011
505.6974, 2.151276
506.1795, 2.182648
506.6616, 1.591949
507.1437, 1.004028
507.6258, 0.8634030
508.1079, 1.136993
508.5901, 1.591125
509.0722, 2.509644
509.5543, 3.349457
510.0364, 3.084625
510.5185, 1.733276
511.0006, 0.5834960
511.4828, 0.2935490
511.9649, 0.5245670
512.4470, 0.5121460
512.9291, 7.8247003E-02
513.4113, 1.8798999E-02
513.8934, 0.9201350
514.3755, 2.063782
514.8576, 2.689575
515.3397, 2.754974
515.8218, 2.664490
516.3040, 2.733063
516.7861, 2.900665
517.2682, 2.738281
517.7503, 1.827057
518.2324, 1.104156
518.7145, 0.6538390
519.1967, 0.4216610
519.6788, 0.4390870
520.1609, 0.6579900
520.6430, 0.8529050
521.1251, 0.7524720
521.6072, 0.3697510
522.0894, 0.2437740
522.5715, 0.5679630
523.0536, 0.8426210
523.5357, 0.9070430
524.0178, 0.8316650
524.4999, 0.7088620
524.9821, 0.5675960
525.4642, 0.3139340
525.9463, 0.3604740
526.4284, 1.273865
526.9105, 1.526245
527.3926, 0.8110660
527.8748, 3.4453999E-02
528.3569, 0.3442690
528.8390, 0.2509770
529.3211, 0.2157900
529.8032, 0.3308410
530.2853, 0.4601140
530.7675, 0.5806880
531.2496, 0.6553650
531.7317, 0.5372010
532.2138, 0.1779170
532.6959, 0.1114200
533.1780, 0.1335750
533.6602, 1.107971
534.1423, 1.364990
534.6244, 0.2302250
535.1065, 0.7704160
535.5886, 1.024170
536.0707, 0.7819520
536.5529, 0.4184570
537.0350, 9.1034003E-02
537.5171, 0.1664430
537.9992, 0.2849120
538.4813, 0.2415770
538.9634, 0.1827700
539.4456, 0.1277470
539.9277, 4.4555999E-02
540.4098, 0.1602170
540.8919, 0.3897400
541.3740, 0.4375610
541.8561, 0.1712040
542.3383, 0.1981200
542.8204, 0.5224910
543.3025, 0.7731320
543.7846, 0.5585940
544.2667, 0.4802860
544.7488, 1.493378
545.2310, 1.317566
545.7131, 0.1073910
546.1952, 0.7372440
546.6773, 0.8642580
547.1594, 0.6968080
547.6415, 0.3395390
548.1237, 8.7798998E-02
548.6058, 0.3715520
549.0879, 0.4303280
549.5700, 0.2011410
550.0521, 0.5137940
550.5342, 2.169037
551.0164, 2.879791
551.4985, 2.031433
551.9806, 1.020996
552.4627, 0.2285160
552.9448, 0.2371220
553.4269, 0.2572940
553.9091, 0.2417300
554.3912, 1.023804
554.8733, 1.756805
555.3554, 2.481262
555.8375, 2.856232
556.3196, 2.572937
556.8018, 2.225281
557.2839, 2.301697
557.7660, 2.623810
558.2481, 2.671570
558.7302, 2.069153
559.2123, 1.346252
559.6945, 1.038300
560.1766, 1.083588
560.6587, 1.210724
561.1408, 1.338379
561.6229, 1.534027
562.1050, 1.944214
562.5872, 2.634949
563.0693, 2.997894
563.5514, 2.892273
564.0335, 2.592804
564.5156, 1.979858
564.9977, 1.327820
565.4799, 1.166840
565.9620, 1.699493
566.4441, 2.524872
566.9262, 3.047028
567.4083, 3.271484
567.8904, 3.158386
568.3726, 2.068756
568.8547, 1.303864
569.3368, 1.486786
569.8189, 2.247040
570.3010, 3.032684
570.7831, 3.691711
571.2653, 4.065002
571.7474, 3.700073
572.2295, 2.743103
572.7116, 2.498627
573.1937, 3.413239
573.6758, 4.473999
574.1580, 4.766479
574.6401, 4.489136
575.1222, 4.424896
575.6043, 5.062836
576.0864, 5.456940
576.5685, 4.839325
577.0507, 3.757751
577.5328, 3.151398
578.0149, 3.243988
578.4970, 3.585297
578.9791, 3.674957
579.4612, 3.490967
579.9434, 3.627136
580.4255, 4.702148
580.9076, 5.369781
581.3897, 5.050629
581.8718, 4.375793
582.3539, 4.006470
582.8361, 4.098663
583.3182, 4.421204
583.8003, 4.777924
584.2824, 5.124939
584.7645, 5.395111
585.2466, 5.618591
585.7288, 5.920227
586.2108, 6.391449
586.6929, 6.879272
587.1750, 7.119781
587.6572, 7.013275
588.1393, 7.017883
588.6214, 7.546814
589.1035, 8.200531
589.5856, 8.286499
590.0677, 7.829651
590.5499, 7.664459
591.0320, 8.449005
591.5141, 9.822845
591.9962, 10.46692
592.4783, 9.717987
592.9604, 9.083710
593.4426, 8.542297
593.9247, 8.251953
594.4068, 8.308472
594.8889, 8.705322
595.3710, 9.469757
595.8531, 10.75577
596.3353, 12.12659
596.8174, 12.31659
597.2995, 11.00510
597.7816, 10.40735
598.2637, 11.49948
598.7458, 12.93283
599.2280, 13.46231
599.7101, 13.28223
600.1922, 13.35880
600.6743, 13.90741
601.1564, 14.86398
601.6385, 16.40594
602.1207, 18.30811
602.6028, 19.88940
603.0849, 20.96783
603.5670, 22.18063
604.0491, 24.27441
604.5313, 27.44388
605.0134, 30.22821
605.4955, 32.25189
605.9776, 34.31552
606.4597, 36.82520
606.9418, 39.44180
607.4240, 41.59497
607.9061, 43.16721
608.3882, 44.71249
608.8703, 46.83527
609.3524, 49.51401
609.8345, 52.45764
610.3167, 55.63654
610.7988, 59.07428
611.2809, 62.66589
611.7630, 66.65042
612.2451, 71.40897
612.7272, 77.08997
613.2094, 83.09940
613.6915, 88.94193
614.1736, 94.98465
614.6557, 101.5398
615.1378, 108.7853
615.6199, 116.7673
616.1021, 125.4272
616.5842, 134.8437
617.0663, 145.2516
617.5484, 157.2737
618.0305, 169.4748
618.5126, 182.1312
618.9948, 194.7469
619.4769, 207.4717
619.9590, 219.8515
620.4411, 231.0867
620.9232, 241.0411
621.4053, 248.8708
621.8875, 253.0192
622.3696, 253.5192
622.8517, 252.3167
623.3338, 249.5920
623.8159, 245.4792
624.2980, 239.2662
624.7802, 231.6774
625.2623, 225.0731
625.7444, 219.4353
626.2265, 215.2102
626.7086, 212.8643
627.1907, 211.9228
627.6729, 211.9269
628.1550, 212.6899
628.6371, 213.7417
629.1192, 214.5703
629.6013, 215.3572
630.0834, 217.5837
630.5656, 221.7310
631.0477, 226.6055
631.5298, 232.9316
632.0119, 239.1036
632.4940, 244.4522
632.9761, 248.6402
633.4583, 250.9954
633.9404, 251.4560
634.4225, 249.5417
634.9046, 244.3214
635.3867, 235.8823
635.8688, 225.3986
636.3510, 212.8773
636.8331, 199.2290
637.3152, 185.2101
637.7973, 170.6487
638.2794, 156.9739
638.7615, 144.6454
639.2437, 132.6537
639.7258, 120.3519
640.2079, 108.1463
640.6900, 96.58719
641.1721, 85.80893
641.6542, 75.89371
642.1364, 66.88812
642.6185, 58.78580
643.1006, 51.95789
643.5827, 47.17191
644.0648, 41.99313
644.5469, 34.41589
645.0291, 26.80560
645.5112, 21.39575
645.9933, 18.34811
646.4754, 15.94000
646.9575, 13.36032
647.4396, 11.08966
647.9218, 9.800568
648.4039, 9.330933
648.8860, 9.015228
649.3681, 8.610962
649.8502, 8.008057
650.3323, 6.964935
650.8145, 5.270264
651.2966, 4.114868
651.7787, 3.809418
652.2608, 3.660706
652.7429, 3.527557
653.2250, 3.405029
653.7072, 3.376373
654.1893, 3.442932
654.6714, 3.344147
655.1535, 2.644775
655.6356, 1.585815
656.1177, 1.035187
656.5999, 1.072540
657.0820, 1.118958
657.5641, 0.7526550
658.0462, 0.3843990
658.5283, 0.9954530
659.0104, 2.874573
659.4926, 4.080536
659.9747, 4.141327
660.4568, 3.643616
660.9389, 2.669250
661.4210, 1.469330
661.9031, 0.4069210
662.3853, 0.3723140
662.8674, 0.8168640
663.3495, 0.7848210
663.8316, 0.2428280
664.3137, 0.2558900
664.7958, 0.8183290
665.2780, 1.137054
665.7601, 0.8792420
666.2422, 0.3967900
666.7243, 7.7483997E-02
667.2064, 2.6794000E-02
667.6885, 4.4464000E-02
668.1707, 2.3925999E-02
668.6528, 0.1156010
669.1349, 0.3023680
669.6170, 0.4774780
670.0991, 7.4280001E-02
670.5812, 1.239014
671.0634, 2.642578
671.5455, 2.579407
672.0276, 0.4382930
672.5097, 0.8506770
672.9918, 0.3515630
673.4739, 1.2787000E-02
673.9561, 0.8771670
674.4382, 2.028107
674.9203, 2.083435
675.4024, 0.7049560
675.8845, 0.7197880
676.3666, 0.9861150
676.8488, 0.5192260
677.3309, 0.2080690
677.8130, 6.4177997E-02
678.2951, 8.1878997E-02
678.7772, 0.2553710
679.2593, 0.4920650
679.7415, 0.9027100
680.2236, 1.697235
680.7057, 2.113525
681.1878, 1.921173
681.6699, 1.608490
682.1520, 1.264771
682.6342, 0.9855350
683.1163, 0.9308470
683.5984, 1.156128
684.0805, 1.410187
684.5626, 1.291779
685.0447, 0.9532170
685.5269, 1.170074
686.0090, 2.080780
686.4911, 2.830048
686.9732, 2.995270
687.4553, 2.847778
687.9374, 2.843689
688.4196, 3.020386
688.9017, 3.017639
689.3838, 2.791077
689.8659, 2.363739
690.3480, 1.425232
690.8301, 0.3933410
691.3123, 6.2408000E-02
691.7944, 0.6440430
692.2765, 1.469238
692.7586, 1.686676
693.2407, 1.374084
693.7228, 1.737946
694.2050, 3.148468
694.6871, 4.233795
695.1692, 4.362366
695.6513, 4.041443
696.1334, 3.825012
696.6155, 3.718079
697.0977, 3.459686
697.5798, 2.714722
698.0619, 2.031799
698.5440, 1.904175
699.0261, 2.122589
699.5082, 2.270294
699.9904, 2.221680
700.4725, 2.062042
700.9546, 1.865204
701.4367, 1.639343
701.9188, 1.503418
702.4009, 1.528168
702.8831, 1.504944
703.3652, 1.272705
703.8473, 1.055725
704.3294, 1.010376
704.8115, 1.136658
705.2936, 1.371490
705.7758, 1.853027
706.2579, 2.274170
706.7400, 2.349487
707.2221, 2.177338
707.7042, 1.932587
708.1863, 1.666901
708.6685, 1.456360
709.1506, 1.360229
709.6327, 1.384491
710.1148, 1.604340
710.5969, 2.208130
711.0790, 2.659698
711.5612, 2.995880
712.0433, 3.076813
712.5254, 2.618256
713.0075, 1.812012
713.4896, 1.236877
713.9717, 1.185272
714.4539, 1.313995
714.9360, 1.271179
715.4181, 1.179993
715.9002, 1.476624
716.3823, 2.208710
716.8644, 2.643829
717.3466, 2.163635
717.8287, 1.075073
718.3108, 0.5079960
718.7929, 0.6931760
719.2750, 0.9713130
719.7571, 1.644897
720.2393, 2.036041
720.7214, 1.541107
721.2035, 0.6335450
721.6856, 0.2550660
722.1677, 0.7790530
722.6498, 1.401672
723.1320, 1.447754
723.6141, 1.111053
724.0962, 0.7336120
724.5783, 0.3531490
725.0604, 5.3009000E-02
725.5425, 0.1220700
726.0247, 0.1748350
726.5068, 0.1167910
726.9889, 8.1573002E-02
727.4710, 0.3138730
727.9531, 0.7088620
728.4352, 0.8834530
728.9174, 0.5396120
729.3995, 9.0576001E-02
729.8816, 0.1685790
730.3637, 0.7803340
730.8458, 1.259308
731.3279, 1.038055
731.8101, 0.5185850
732.2922, 0.2362370
732.7743, 0.1824340
733.2564, 0.3022460
733.7385, 0.5605470
734.2206, 0.6717220
734.7028, 0.1820680
735.1849, 0.9890140
735.6670, 1.717255
736.1491, 1.944885
736.6312, 1.776062
737.1133, 0.7506410
737.5955, 0.3179320
738.0776, 0.6124270
738.5597, 0.2003170
739.0418, 0.1416930
739.5239, 0.1369930
740.0060, 0.4866940
740.4882, 9.7660003E-03
740.9703, 0.9227290
741.4524, 1.007172
741.9345, 2.0599000E-02
742.4166, 1.106049
742.8987, 1.363007
743.3809, 0.9581600
743.8630, 0.6935120
744.3451, 0.4603580
744.8272, 0.5664060
745.3093, 1.207825
745.7914, 1.990784
746.2736, 2.876068
746.7557, 3.710938
747.2378, 4.171814
747.7199, 4.055939
748.2020, 3.985657
748.6841, 4.607971
749.1663, 5.506500
749.6484, 5.959717
750.1305, 5.956238
750.6126, 6.023834
751.0947, 6.456940
751.5768, 6.943176
752.0590, 6.846863
752.5411, 5.943481
753.0232, 5.544739
753.5053, 6.255188
753.9874, 6.660522
754.4695, 6.012970
754.9517, 5.058777
755.4338, 4.668060
755.9159, 4.913574
756.3980, 5.042816
756.8801, 4.457855
757.3622, 3.800507
757.8444, 3.652588
758.3265, 3.927612
758.8086, 4.561066
759.2907, 5.479553
759.7728, 6.109528
760.2549, 5.770172
760.7371, 4.730591
761.2192, 4.751099
761.7013, 6.275024
762.1834, 7.665833
762.6655, 8.459290
763.1476, 9.242279
763.6298, 10.52020
764.1119, 12.09552
764.5940, 13.38455
765.0761, 14.00729
765.5582, 14.86337
766.0403, 16.38876
766.5225, 18.37173
767.0046, 20.68335
767.4867, 23.24460
767.9688, 25.90771
768.4509, 28.60693
768.9330, 31.33578
769.4152, 33.93076
769.8973, 36.37198
770.3794, 39.47647
770.8615, 43.13373
771.3436, 47.73526
771.8257, 53.20477
772.3079, 59.89752
772.7900, 68.20181
773.2721, 78.06549
773.7542, 89.58591
774.2363, 104.1356
774.7184, 118.9114
775.2006, 132.3131
775.6827, 145.1433
776.1648, 157.8496
776.6469, 170.9506
777.1290, 185.8918
777.6111, 203.2229
778.0933, 223.8868
778.5754, 250.2822
779.0575, 282.3370
779.5396, 317.3209
780.0217, 355.5042
780.5038, 394.5122
780.9860, 433.3789
781.4681, 471.5765
781.9502, 507.3133
782.4323, 536.9129
782.9144, 570.3170
783.3965, 606.3412
783.8787, 647.6591
784.3608, 694.1729
784.8429, 747.7853
785.3250, 811.4492
785.8071, 886.1304
786.2892, 969.1134
786.7714, 1061.402
787.2535, 1158.828
787.7356, 1257.794
788.2177, 1356.320
788.6998, 1444.482
789.1819, 1518.668
789.6641, 1580.672
790.1462, 1630.373
790.6283, 1667.880
791.1104, 1716.009
791.5925, 1771.013
792.0746, 1842.969
792.5568, 1948.489
793.0389, 2058.242
793.5210, 2169.333
794.0031, 2268.471
794.4852, 2317.996
794.9673, 2312.755
795.4495, 2244.489
795.9316, 2085.366
796.4137, 1873.738
796.8958, 1639.079
797.3779, 1397.624
797.8600, 1181.348
798.3422, 1006.671
798.8243, 867.4481
799.3064, 758.1117
799.7885, 679.0180
800.2706, 608.3323
800.7527, 546.2337
801.2349, 492.6315
801.7170, 447.1953
802.1991, 410.6768
802.6812, 384.8231
803.1633, 369.4166
803.6454, 361.1394
804.1276, 361.5305
804.6097, 366.8337
805.0918, 374.9053
805.5739, 387.7440
806.0560, 407.7750
806.5381, 434.7838
807.0203, 467.2977
807.5024, 504.9391
807.9845, 545.9535
808.4666, 587.9518
808.9487, 631.2181
809.4308, 677.9103
809.9130, 728.5212
810.3951, 779.8142
810.8772, 833.1231
811.3593, 878.9691
811.8414, 900.0958
812.3235, 899.8043
812.8057, 861.9800
813.2878, 766.7658
813.7699, 657.3715
814.2520, 528.5654
814.7341, 402.0681
815.2162, 297.3025
815.6984, 216.4428
816.1805, 154.6884
816.6626, 115.7031
817.1447, 88.88040
817.6268, 69.79419
818.1089, 56.40979
818.5911, 46.25433
819.0732, 38.55969
819.5553, 32.68204
820.0374, 28.25534
820.5195, 24.94199
821.0016, 22.15631
821.4838, 19.91837
821.9659, 17.77832
822.4480, 15.64017
822.9301, 13.69958
823.4122, 12.02405
823.8943, 10.64746
824.3765, 9.697449
824.8586, 9.281189
825.3407, 8.748077
825.8228, 7.977600
826.3049, 7.128296
826.7870, 6.078674
827.2692, 5.179382
827.7513, 4.844055
828.2334, 5.007111
828.7155, 5.347534
829.1976, 5.839783
829.6797, 6.287140
830.1619, 6.551331
830.6440, 6.602478
831.1261, 6.182312
831.6082, 5.297882
832.0903, 4.516113
832.5724, 4.222656
833.0546, 4.158936
833.5367, 3.778015
834.0188, 3.035828
834.5009, 2.623779
834.9830, 2.552277
835.4651, 2.460541
835.9473, 2.287689
836.4294, 2.109161
836.9115, 1.950134
837.3936, 1.862579
837.8757, 1.956726
838.3578, 2.489471
838.8400, 2.734375
839.3221, 2.285645
839.8042, 1.596985
840.2863, 0.9826050
840.7684, 0.5126650
841.2505, 0.2917180
841.7327, 0.3941040
842.2148, 0.5837100
842.6969, 0.5753480
843.1790, 0.4285890
843.6611, 0.2805790
844.1432, 0.1487430
844.6254, 0.1247560
845.1075, 0.2533870
845.5896, 0.4398190
846.0717, 0.5817870
846.5538, 0.6803280
847.0359, 0.5829470
847.5181, 0.1051030
848.0002, 0.2127380
848.4823, 0.2447510
848.9644, 0.1015930
849.4465, 0.2418210
849.9286, 0.6976320
850.4108, 1.008667
850.8929, 1.121643
851.3750, 1.157745
851.8571, 1.126770
852.3392, 1.023041
852.8214, 0.7092590
853.3035, 0.3364260
853.7856, 0.2725220
854.2677, 0.6008910
854.7498, 0.8836670
855.2319, 0.6191710
855.7141, 5.7587001E-02
856.1962, 0.2973940
856.6783, 0.4393620
857.1604, 0.2155150
857.6425, 0.4506230
858.1246, 0.8734130
858.6068, 0.3814090
859.0889, 0.6792910
859.5710, 0.9787900
860.0531, 0.2088320
860.5352, 0.5478820
861.0173, 1.501984
861.4995, 2.059967
861.9816, 1.722534
862.4637, 0.9744260
862.9458, 0.3912350
863.4279, 3.1097000E-02
863.9100, 0.1109620
864.3922, 0.1288760
864.8743, 0.3267210
865.3564, 9.5917001E-02
865.8385, 0.1860050
866.3206, 4.9469002E-02
866.8027, 0.7093810
867.2849, 1.113586
867.7670, 0.8149410
868.2491, 0.3352360
868.7312, 0.3631290
869.2133, 0.7483220
869.6954, 1.157867
870.1776, 1.534058
870.6597, 1.540222
871.1418, 0.9874270
871.6239, 0.3060000
872.1060, 0.1081540
872.5881, 0.3914790
873.0703, 0.5999450
873.5524, 0.7371220
874.0345, 0.7838130
874.5166, 0.6135860
874.9987, 0.4912410
875.4808, 0.7968140
875.9630, 1.322052
876.4451, 1.402802
876.9272, 0.7114560
877.4093, 0.1967160
877.8914, 0.1754760
878.3735, 0.2486270
878.8557, 9.0545997E-02
879.3378, 0.1050420
879.8199, 0.1093750
880.3020, 0.7634280
880.7841, 1.177917
881.2662, 0.6973270
881.7484, 8.3068997E-02
882.2305, 0.5506290
882.7126, 0.7144170
883.1947, 0.3923950
883.6768, 0.3273620
884.1589, 0.6275330
884.6411, 6.9945998E-02
885.1232, 1.157104
885.6053, 1.351318
886.0874, 0.6251830
886.5695, 0.1180730
887.0516, 0.1401670
887.5338, 0.1596680
888.0159, 0.1990360
888.4980, 0.5613400
888.9801, 0.4299320
889.4622, 0.1939090
889.9443, 0.6369630
890.4265, 1.149017
890.9086, 1.124298
891.3907, 0.2741090
891.8728, 1.467041
892.3549, 1.209595
892.8370, 0.1106570
893.3192, 0.6182860
893.8013, 0.7131350
894.2834, 0.4510190
894.7655, 0.4851380
895.2476, 1.293152
895.7297, 1.106232
896.2119, 0.3936770
896.6940, 5.4319999E-03
897.1761, 6.1370999E-02
897.6582, 8.2580999E-02
898.1403, 0.2864070
898.6224, 0.7993470
899.1046, 1.046356
899.5867, 1.082336
900.0688, 1.191223
900.5509, 1.393829
901.0330, 1.385559
901.5151, 0.9729000
901.9973, 0.5676880
902.4794, 0.8654480
902.9615, 1.867737
903.4436, 2.170105
903.9257, 1.442719
904.4078, 0.8815000
904.8900, 0.7808840
905.3721, 0.8521420
905.8542, 0.9654540
906.3363, 1.071045
906.8184, 0.9960020
907.3005, 0.6444400
907.7827, 0.3383790
908.2648, 0.1247560
908.7469, 0.2614140
909.2290, 0.5529480
909.7111, 1.600464
910.1932, 1.920044
910.6754, 1.470459
911.1575, 1.027374
911.6396, 0.9049380
912.1217, 1.015717
912.6038, 1.412735
913.0859, 1.923737
913.5681, 2.407547
914.0502, 2.757751
914.5323, 2.744308
915.0144, 2.289734
915.4965, 1.709732
915.9786, 1.390411
916.4607, 1.239807
916.9428, 0.8110350
917.4249, 0.1600490
917.9070, 0.1279750
918.3892, 6.0424998E-02
918.8713, 0.3820950
919.3534, 0.6154630
919.8355, 0.7192540
920.3176, 0.5078890
920.7997, 0.1904140
921.2819, 0.5695500
921.7640, 0.5856170
922.2461, 0.3378910
922.7282, 0.2861940
923.2103, 1.003616
923.6924, 1.514999
924.1746, 1.848557
924.6567, 1.868500
925.1388, 1.076752
925.6209, 0.6496730
926.1030, 1.052765
926.5851, 1.635773
927.0673, 2.130661
927.5494, 2.423553
928.0315, 2.221634
928.5136, 1.430115
928.9957, 1.052872
929.4778, 2.073547
929.9600, 3.256012
930.4421, 3.728470
930.9242, 3.638977
931.4063, 3.066788
931.8884, 2.193298
932.3705, 1.539368
932.8527, 1.408142
933.3348, 1.518188
933.8169, 1.434875
934.2990, 1.315353
934.7811, 1.807983
935.2632, 2.784485
935.7454, 3.098419
936.2275, 2.372025
936.7096, 1.524841
937.1917, 1.484833
937.6738, 2.039825
938.1559, 2.237106
938.6381, 1.996841
939.1202, 1.996445
939.6023, 2.366409
940.0844, 2.680130
940.5665, 2.772430
941.0486, 2.692749
941.5308, 2.426239
942.0129, 1.882751
942.4950, 1.684692
942.9771, 2.155991
943.4592, 2.418900
943.9413, 2.224884
944.4235, 2.007111
944.9056, 2.054962
945.3877, 2.246475
945.8698, 2.338013
946.3519, 2.328537
946.8340, 2.124329
947.3162, 1.385345
947.7983, 0.8332520
948.2804, 1.016113
948.7625, 1.485809
949.2446, 1.713013
949.7267, 1.628128
950.2089, 1.519119
950.6910, 1.524216
951.1731, 1.541153
951.6552, 1.437042
952.1373, 1.334763
952.6194, 1.274597
953.1016, 1.315979
953.5837, 1.751968
954.0658, 2.610672
954.5479, 3.389923
955.0300, 3.685593
955.5121, 3.607666
955.9943, 3.176132
956.4764, 2.543976
956.9585, 2.453690
957.4406, 2.941544
957.9227, 3.352463
958.4048, 3.371338
958.8870, 3.353271
959.3691, 3.814011
959.8512, 4.667648
960.3333, 5.230469
960.8154, 5.482437
961.2975, 5.549500
961.7797, 5.376678
962.2618, 5.262695
962.7439, 5.365921
963.2260, 5.711639
963.7081, 6.399857
964.1902, 7.549789
964.6724, 8.403442
965.1545, 8.706772
965.6366, 9.130646
966.1187, 9.902420
966.6008, 10.75778
967.0829, 11.53639
967.5651, 12.24327
968.0472, 12.94379
968.5293, 13.53598
969.0114, 14.40569
969.4935, 15.74811
969.9756, 17.22064
970.4578, 18.54022
970.9399, 20.00804
971.4220, 22.09096
971.9041, 24.68468
972.3862, 27.10411
972.8683, 28.83717
973.3505, 30.97195
973.8326, 34.24573
974.3147, 38.01376
974.7968, 41.66519
975.2789, 45.37988
975.7610, 49.34341
976.2432, 53.73929
976.7253, 59.09943
977.2074, 65.53461
977.6895, 73.45909
978.1716, 83.45818
978.6537, 95.14653
979.1359, 108.0148
979.6180, 122.1259
980.1001, 137.7361
980.5822, 154.9977
981.0643, 173.8342
981.5464, 193.3444
982.0286, 215.1747
982.5107, 242.6228
982.9928, 275.4273
983.4749, 313.6485
983.9570, 356.8724
984.4391, 401.7928
984.9213, 446.7008
985.4034, 490.5818
985.8855, 531.1005
986.3676, 569.1450
986.8497, 609.7930
987.3318, 652.4145
987.8140, 704.6836
988.2961, 767.5636
988.7782, 842.4846
989.2603, 930.8420
989.7424, 1032.092
990.2245, 1146.568
990.7067, 1275.044
991.1888, 1412.680
991.6709, 1563.973
992.1530, 1716.526
992.6351, 1871.594
993.1172, 2022.032
993.5994, 2161.020
994.0815, 2292.442
994.5636, 2427.486
995.0457, 2568.675
995.5278, 2705.967
996.0099, 2874.878
996.4921, 2994.551
996.9742, 3075.536
997.4563, 3073.366
997.9384, 2940.257
998.4205, 2691.842
998.9026, 2378.257
999.3848, 1970.578
999.8669, 1591.191
1000.349, 1245.081
1000.831, 954.3417
1001.313, 738.1934
1001.795, 577.1236
1002.277, 456.6163
1002.760, 370.4896
1003.242, 303.6727
1003.724, 255.7233
1004.206, 217.4538
1004.688, 186.7471
1005.170, 161.7747
1005.652, 142.3964
1006.134, 126.9810
1006.617, 113.7134
1007.099, 102.0720
1007.581, 91.85913
1008.063, 83.10956
1008.545, 75.28438
1009.027, 67.79710
1009.509, 61.17027
1009.991, 56.26965
1010.473, 52.61656
1010.956, 49.27499
1011.438, 45.94128
1011.920, 42.78265
1012.402, 39.96033
1012.884, 37.25336
1013.366, 34.20712
1013.848, 31.18367
1014.330, 28.91078
1014.813, 27.28735
1015.295, 25.83716
1015.777, 24.39398
1016.259, 23.04712
1016.741, 21.86014
1017.223, 20.84021
1017.705, 20.12222
1018.187, 19.57394
1018.669, 18.64310
1019.152, 17.36073
1019.634, 16.36092
1020.116, 15.87175
1020.598, 15.44527
1021.080, 14.62384
1021.562, 13.54219
1022.044, 12.62259
1022.526, 11.83435
1023.008, 10.74490
1023.491, 9.308945
1023.973, 8.335968
1024.455, 8.200333
1024.937, 8.321838
1025.419, 8.035614
1025.901, 7.440857
1026.383, 6.981155
1026.865, 6.659027
1027.348, 6.402863
1027.830, 6.182281
1028.312, 6.195236
1028.794, 6.587769
1029.276, 7.090256
1029.758, 7.436737
1030.240, 7.572861
1030.722, 6.959732
1031.204, 5.382080
1031.687, 4.032394
1032.169, 3.031342
1032.651, 2.206711
1033.133, 1.382553
1033.615, 0.8810420
1034.097, 1.200150
1034.579, 2.281448
1035.061, 3.295609
1035.544, 4.566345
1036.026, 4.835464
1036.508, 3.377167
1036.990, 2.072906
1037.472, 1.911331
1037.954, 2.239655
1038.436, 2.212479
1038.918, 1.845093
1039.401, 1.598160
1039.883, 1.465210
1040.365, 1.481339
1040.847, 2.001236
1041.329, 2.196335
1041.811, 1.359024
1042.293, 0.2302550
1042.775, 0.2353520
1043.257, 5.0278001E-02
1043.740, 0.2226870
1044.222, 0.8800050
1044.704, 1.169785
1045.186, 0.8840480
1045.668, 0.4240110
1046.150, 0.2059480
1046.632, 0.8071590
1047.114, 1.130768
1047.596, 1.183640
1048.079, 1.161789
1048.561, 1.083405
1049.043, 0.9315340
1049.525, 0.5305940
1050.007, 0.2560880
1050.489, 0.3977660
1050.971, 0.6923830
1051.453, 0.8681030
1051.936, 0.9005890
1052.418, 0.7777560
1052.900, 0.3391720
1053.382, 1.8784000E-02
1053.864, 1.5106000E-02
1054.346, 1.2177000E-02
1054.828, 0.2483670
1055.310, 0.4245760
1055.792, 9.9029997E-03
1056.275, 0.8737490
1056.757, 1.319565
1057.239, 0.8956300
1057.721, 0.5068660
1058.203, 0.4705350
1058.685, 0.4505160
1059.167, 0.2550810
1059.649, 2.0126000E-02
1060.131, 0.3311920
1060.614, 0.6168060
1061.096, 0.6430510
1061.578, 0.1704410
1062.060, 8.8454999E-02
1062.542, 0.2933650
1063.024, 0.7444310
1063.506, 0.9532470
1063.988, 1.044510
1064.471, 1.317917
1064.953, 1.633957
1065.435, 1.372665
1065.917, 0.1644900
1066.399, 0.9005280
1066.881, 1.360596
1067.363, 1.593674
1067.845, 1.848343
1068.328, 1.971085
1068.810, 1.704025
1069.292, 1.143906
1069.774, 0.6149600
1070.256, 0.1942750
1070.738, 0.1258390
1071.220, 0.2554470
1071.702, 0.3926850
1072.184, 0.6778720
1072.667, 1.009247
1073.149, 1.164810
1073.631, 1.287506
1074.113, 1.841278
1074.595, 2.995834
1075.077, 3.946945
1075.559, 3.816254
1076.041, 4.001831
1076.523, 5.886276
1077.006, 7.953323
1077.488, 8.394653
1077.970, 7.894669
1078.452, 8.286758
1078.934, 10.00195
1079.416, 11.74934
1079.898, 12.90630
1080.380, 14.02647
1080.862, 15.48485
1081.345, 16.96812
1081.827, 17.98949
1082.309, 18.89795
1082.791, 20.40685
1083.273, 22.62161
1083.755, 24.85593
1084.237, 26.82921
1084.719, 28.76523
1085.202, 30.55975
1085.684, 32.55681
1086.166, 35.12926
1086.648, 38.04253
1087.130, 40.94070
1087.612, 43.76294
1088.094, 46.64067
1088.576, 49.79703
1089.058, 52.63733
1089.541, 55.15794
1090.023, 57.01770
1090.505, 58.02913
1090.987, 58.20261
1091.469, 57.39008
1091.951, 55.74823
1092.433, 53.84689
1092.915, 51.63979
1093.397, 49.85406
1093.880, 48.85590
1094.362, 48.27574
1094.844, 47.85109
1095.326, 47.77863
1095.808, 48.45981
1096.290, 49.67978
1096.772, 50.71057
1097.254, 51.26819
1097.737, 52.17581
1098.219, 54.14326
1098.701, 55.96333
1099.183, 57.09171
1099.665, 57.83728
1100.147, 58.71590
1100.629, 59.35736
1101.111, 59.02805
1101.594, 57.58281
1102.076, 55.42636
1102.558, 52.69923
1103.040, 49.22330
1103.522, 44.01140
1104.004, 38.92377
1104.486, 35.30931
1104.968, 32.70499
1105.450, 30.23753
1105.932, 27.83945
1106.415, 26.13112
1106.897, 25.45508
1107.379, 25.17534
1107.861, 25.24771
1108.343, 25.54857
1108.825, 26.01643
1109.307, 26.68376
1109.789, 27.51469
1110.272, 28.56264
1110.754, 30.18297
1111.236, 32.69725
1111.718, 35.16988
1112.200, 37.20024
1112.682, 39.59462
1113.164, 42.56595
1113.646, 46.08177
1114.129, 50.15163
1114.611, 54.73416
1115.093, 59.72203
1115.575, 65.57510
1116.057, 70.40050
1116.539, 73.63788
1117.021, 76.72290
1117.503, 80.45840
1117.985, 83.48193
1118.468, 84.75688
1118.950, 84.80450
1119.432, 84.65970
1119.914, 84.38463
1120.396, 83.01448
1120.878, 79.96570
1121.360, 76.99049
1121.842, 73.94569
1122.324, 71.67770
1122.807, 70.82013
1123.289, 70.66196
1123.771, 70.29208
1124.253, 69.72406
1124.735, 69.56578
1125.217, 69.96153
1125.699, 70.36490
1126.181, 70.86755
1126.664, 71.03821
1127.146, 70.61813
1127.628, 70.17212
1128.110, 70.26686
1128.592, 70.62721
1129.074, 70.35092
1129.556, 69.29773
1130.038, 69.04506
1130.521, 69.56345
1131.003, 71.34464
1131.485, 74.70865
1131.967, 78.07874
1132.449, 80.55060
1132.931, 82.01811
1133.413, 82.21948
1133.895, 81.28104
1134.377, 80.23425
1134.859, 79.03860
1135.342, 76.46048
1135.824, 72.36217
1136.306, 68.45465
1136.788, 65.49396
1137.270, 62.78845
1137.752, 59.61435
1138.234, 56.20616
1138.716, 52.91177
1139.199, 49.89325
1139.681, 48.09456
1140.163, 47.34537
1140.645, 46.27893
1141.127, 44.58746
1141.609, 43.05434
1142.091, 42.14809
1142.573, 42.17348
1143.056, 43.95853
1143.538, 46.75392
1144.020, 49.20259
1144.502, 51.33714
1144.984, 53.45914
1145.466, 55.50133
1145.948, 56.94841
1146.430, 57.59357
1146.912, 57.86273
1147.395, 58.01807
1147.877, 58.11421
1148.359, 58.41689
1148.841, 58.55603
1149.323, 57.75185
1149.805, 56.41930
1150.287, 55.42848
1150.769, 55.04118
1151.251, 55.30757
1151.734, 56.43076
1152.216, 57.81088
1152.698, 58.74631
1153.180, 60.01665
1153.662, 62.09546
1154.144, 65.01131
1154.626, 68.88998
1155.108, 73.51295
1155.591, 78.32861
1156.073, 83.19193
1156.555, 87.96893
1157.037, 93.36011
1157.519, 97.73569
1158.001, 101.2576
1158.483, 102.7189
1158.965, 101.4459
1159.448, 97.49713
1159.930, 90.50043
1160.412, 80.51450
1160.894, 70.64912
1161.376, 60.87090
1161.858, 51.87950
1162.340, 43.65176
1162.822, 36.33809
1163.304, 30.06036
1163.786, 24.75613
1164.269, 20.28551
1164.751, 16.72105
1165.233, 14.41385
1165.715, 13.67802
1166.197, 12.91521
1166.679, 12.17426
1167.161, 11.29938
1167.643, 10.14120
1168.126, 9.040466
1168.608, 8.180954
1169.090, 7.628418
1169.572, 7.507080
1170.054, 7.690521
1170.536, 7.359787
1171.018, 6.488129
1171.500, 5.835785
1171.983, 5.465134
1172.465, 5.279709
1172.947, 5.234421
1173.429, 5.586914
1173.911, 6.628128
1174.393, 7.912613
1174.875, 8.587265
1175.357, 8.794662
1175.839, 9.010223
1176.322, 9.269638
1176.804, 9.621475
1177.286, 10.10762
1177.768, 10.94170
1178.250, 12.20387
1178.732, 13.26416
1179.214, 13.45181
1179.696, 13.20360
1180.178, 13.08966
1180.661, 12.94998
1181.143, 12.52798
1181.625, 11.87164
1182.107, 11.20004
1182.589, 10.50298
1183.071, 9.407578
1183.553, 7.585037
1184.035, 5.982407
1184.518, 5.350906
1185.000, 4.984146
1185.482, 4.532089
1185.964, 3.963379
1186.446, 3.123459
1186.928, 2.202454
1187.410, 1.626266
1187.892, 1.472443
1188.375, 1.434433
1188.857, 1.451614
1189.339, 1.563736
1189.821, 2.013504
1190.303, 2.279800
1190.785, 1.747040
1191.267, 1.193954
1191.749, 1.551956
1192.231, 2.588165
1192.714, 3.422043
1193.196, 4.071991
1193.678, 4.438385
1194.160, 4.437744
1194.642, 4.334778
1195.124, 4.049316
1195.606, 4.109070
1196.088, 4.955460
1196.570, 5.918243
1197.053, 5.982452
1197.535, 5.404053
1198.017, 5.578522
1198.499, 6.476257
1198.981, 6.921753
1199.463, 6.826584
1199.945, 5.854660
1200.427, 3.953094
1200.910, 2.382492
1201.392, 2.021469
1201.874, 2.269531
1202.356, 2.503235
1202.838, 2.581177
1203.320, 2.024979
1203.802, 1.140442
1204.284, 0.5758820
1204.766, 0.3696140
1205.249, 0.3648530
1205.731, 0.4991760
1206.213, 0.7635040
1206.695, 1.289917
1207.177, 1.613586
1207.659, 1.234467
1208.141, 0.6433560
1208.623, 0.2322240
1209.105, 9.8968998E-02
1209.588, 0.6883240
1210.070, 1.317093
1210.552, 1.201126
1211.034, 6.2560998E-02
1211.516, 0.6676180
1211.998, 0.4163670
1212.480, 7.5347997E-02
1212.962, 0.4017640
1213.445, 0.6129610
1213.927, 9.2437997E-02
1214.409, 0.5996700
1214.891, 0.9834290
1215.373, 1.006546
1215.855, 0.3237000
1216.337, 1.451660
1216.819, 2.136551
1217.302, 1.404343
1217.784, 0.8453370
1218.266, 0.8009030
1218.748, 0.9084930
1219.230, 1.004196
1219.712, 0.9537810
1220.194, 0.5059360
1220.676, 0.1103670
1221.158, 3.7964001E-02
1221.641, 0.5545650
1222.123, 0.7052610
1222.605, 0.4487460
1223.087, 0.2955470
1223.569, 0.3705900
1224.051, 0.6231230
1224.533, 1.043289
1225.015, 1.270996
1225.497, 0.7226410
1225.980, 5.8289999E-03
1226.462, 7.9010002E-02
1226.944, 3.6835000E-02
1227.426, 0.3092800
1227.908, 0.8834990
1228.390, 1.100601
1228.872, 0.8990330
1229.354, 0.6733090
1229.837, 0.4208830
1230.319, 0.3671570
1230.801, 0.6834110
1231.283, 1.090179
1231.765, 1.774200
1232.247, 2.202560
1232.729, 1.664658
1233.211, 0.7348630
1233.693, 0.4754030
1234.176, 0.8632970
1234.658, 1.205978
1235.140, 1.526566
1235.622, 1.707916
1236.104, 1.659180
1236.586, 1.818039
1237.068, 2.371674
1237.550, 2.873718
1238.032, 2.984909
1238.515, 2.921692
1238.997, 3.079910
1239.479, 3.348709
1239.961, 3.156281
1240.443, 2.661118
1240.925, 2.669876
1241.407, 3.129547
1241.889, 3.448822
1242.372, 3.454712
1242.854, 3.214966
1243.336, 2.678299
1243.818, 2.495438
1244.300, 3.814316
1244.782, 5.214249
1245.264, 5.142578
1245.746, 4.471329
1246.229, 4.236725
1246.711, 4.318085
1247.193, 4.168991
1247.675, 3.737762
1248.157, 3.536011
1248.639, 3.864899
1249.121, 4.253235
1249.603, 4.261078
1250.085, 4.021881
1250.568, 3.727844
1251.050, 3.496719
1251.532, 3.204453
1252.014, 2.825851
1252.496, 2.922699
1252.978, 3.211395
1253.460, 3.007538
1253.942, 2.334320
1254.424, 2.263214
1254.907, 3.127060
1255.389, 3.667877
1255.871, 3.432663
1256.353, 2.919891
1256.835, 2.107773
1257.317, 1.367111
1257.799, 1.088715
1258.281, 1.180817
1258.764, 1.841141
1259.246, 2.706375
1259.728, 2.837524
1260.210, 2.513657
1260.692, 2.923950
1261.174, 4.032867
1261.656, 4.599976
1262.138, 4.090256
1262.620, 3.359558
1263.103, 2.369049
1263.585, 1.833725
1264.067, 2.553711
1264.549, 3.327271
1265.031, 3.258438
1265.513, 2.751938
1265.995, 2.298706
1266.477, 1.951355
1266.959, 2.015106
1267.442, 2.621506
1267.924, 3.156799
1268.406, 3.698593
1268.888, 3.666519
1269.370, 2.853836
1269.852, 2.386383
1270.334, 2.867279
1270.816, 3.371796
1271.299, 2.830414
1271.781, 1.911133
1272.263, 2.170151
1272.745, 3.007080
1273.227, 2.871475
1273.709, 2.091064
1274.191, 1.488724
1274.673, 1.217407
1275.156, 1.286850
1275.638, 1.670395
1276.120, 1.916458
1276.602, 1.781555
1277.084, 1.447601
1277.566, 0.7739260
1278.048, 0.2050320
1278.530, 0.1603850
1279.012, 0.1483150
1279.495, 0.5768280
1279.977, 1.757309
1280.459, 2.826233
1280.941, 3.773453
1281.423, 4.402756
1281.905, 4.914215
1282.387, 4.248169
1282.869, 1.878601
1283.351, 0.4472350
1283.834, 0.6120150
1284.316, 1.096680
1284.798, 1.070709
1285.280, 0.7316890
1285.762, 0.3162990
1286.244, 0.0000000E+00
##END=



