##NAMES=Hedenbergite
##RRUFFID=R050030
##IDEAL CHEMISTRY=CaFe^2+^Si_2_O_6_
##LOCALITY=Heroult, Ontario, Canada
##OWNER=RRUFF
##SOURCE=University of Arizona Mineral Museum
##DESCRIPTION=Green fragments
##STATUS=The identification of this mineral has been confirmed by X-ray diffraction and chemical analysis
##URL=rruff.info/R050030
##MEASURED CHEMISTRY=(Ca_.993_Na_.007_)(Fe_.860_Mn_.111_Mg_.029_)(Si_.993_Al_.007_)_2_O_6_
134.7162, 0.0000000E+00
135.1983, 5.709473
135.6804, 2.613708
136.1626, 2.988525
136.6447, 2.445618
137.1268, 7.077820
137.6089, 26.12286
138.0910, 47.62097
138.5731, 66.72168
139.0553, 82.58405
139.5374, 99.83899
140.0195, 117.5159
140.5016, 136.6245
140.9837, 160.5764
141.4658, 191.0834
141.9480, 223.9272
142.4301, 256.3995
142.9122, 289.4650
143.3943, 320.2148
143.8764, 351.9586
144.3585, 384.0308
144.8407, 398.6019
145.3228, 389.1273
145.8049, 366.8118
146.2870, 341.7588
146.7691, 314.7241
147.2512, 284.0907
147.7334, 246.1761
148.2155, 195.5336
148.6976, 160.7678
149.1797, 147.1624
149.6618, 147.9951
150.1439, 154.2986
150.6261, 168.2985
151.1082, 185.6418
151.5903, 206.5094
152.0724, 235.4905
152.5545, 257.3710
153.0366, 263.8868
153.5188, 262.7933
154.0009, 269.1985
154.4830, 297.8337
154.9651, 324.7371
155.4472, 339.3667
155.9293, 333.5496
156.4115, 325.3871
156.8936, 316.5706
157.3757, 307.6919
157.8578, 300.6837
158.3399, 291.2849
158.8221, 286.7164
159.3042, 291.6063
159.7863, 312.9684
160.2684, 338.1733
160.7505, 362.2844
161.2326, 386.1595
161.7148, 414.6777
162.1969, 450.8391
162.6790, 492.7130
163.1611, 537.8628
163.6432, 592.7976
164.1253, 645.3440
164.6075, 688.2070
165.0896, 721.0576
165.5717, 751.2717
166.0538, 782.0508
166.5359, 813.0149
167.0180, 843.6340
167.5002, 869.2173
167.9823, 897.3108
168.4644, 932.2883
168.9465, 973.9905
169.4286, 1025.792
169.9107, 1092.623
170.3929, 1171.222
170.8750, 1256.536
171.3571, 1343.457
171.8392, 1437.797
172.3213, 1544.285
172.8034, 1663.702
173.2856, 1792.457
173.7677, 1927.779
174.2498, 2068.469
174.7319, 2212.343
175.2140, 2368.568
175.6961, 2524.330
176.1783, 2660.604
176.6604, 2775.746
177.1425, 2863.769
177.6246, 2915.581
178.1067, 2931.632
178.5888, 2918.001
179.0710, 2874.294
179.5531, 2804.270
180.0352, 2711.773
180.5173, 2583.558
180.9994, 2448.817
181.4815, 2352.090
181.9637, 2292.500
182.4458, 2268.293
182.9279, 2284.743
183.4100, 2336.965
183.8921, 2406.884
184.3742, 2492.132
184.8564, 2590.703
185.3385, 2696.122
185.8206, 2809.376
186.3027, 2928.690
186.7848, 3063.082
187.2669, 3208.341
187.7491, 3338.046
188.2312, 3452.476
188.7133, 3546.233
189.1954, 3599.515
189.6775, 3612.811
190.1596, 3572.975
190.6418, 3450.098
191.1239, 3243.925
191.6060, 3003.409
192.0881, 2727.917
192.5702, 2416.119
193.0524, 2124.293
193.5345, 1853.065
194.0166, 1601.394
194.4987, 1369.994
194.9808, 1158.558
195.4629, 975.6587
195.9451, 834.0411
196.4272, 731.4459
196.9093, 636.0483
197.3914, 545.1658
197.8735, 463.3450
198.3556, 402.0135
198.8378, 363.3057
199.3199, 330.3221
199.8020, 293.9977
200.2841, 254.3279
200.7662, 220.4688
201.2483, 193.7755
201.7305, 172.2678
202.2126, 152.0291
202.6947, 133.5479
203.1768, 116.0262
203.6589, 97.96094
204.1410, 78.70166
204.6232, 64.90137
205.1053, 58.45215
205.5874, 57.27625
206.0695, 54.86768
206.5516, 51.35400
207.0337, 46.27637
207.5159, 38.47070
207.9980, 27.01196
208.4801, 17.81836
208.9622, 12.10950
209.4443, 9.206787
209.9264, 5.433716
210.4086, 0.2507320
210.8907, 4.721802
211.3728, 5.868408
211.8549, 3.835571
212.3370, 2.455444
212.8191, 15.17993
213.3013, 32.98450
213.7834, 45.60193
214.2655, 52.51697
214.7476, 55.08301
215.2297, 53.32910
215.7118, 44.77234
216.1940, 38.37646
216.6761, 33.50598
217.1582, 30.60168
217.6403, 42.58472
218.1224, 75.84155
218.6045, 115.1981
219.0867, 146.4553
219.5688, 167.4652
220.0509, 184.6132
220.5330, 197.4204
221.0151, 205.9230
221.4972, 217.4984
221.9794, 232.1438
222.4615, 249.9803
222.9436, 271.5692
223.4257, 297.8214
223.9078, 326.3093
224.3899, 355.6019
224.8721, 385.8237
225.3542, 420.8669
225.8363, 462.7401
226.3184, 507.8220
226.8005, 552.4895
227.2827, 595.0908
227.7648, 640.0157
228.2469, 689.7483
228.7290, 745.4314
229.2111, 796.0500
229.6932, 842.7649
230.1754, 882.8450
230.6575, 913.9070
231.1396, 938.2197
231.6217, 948.9077
232.1038, 943.6661
232.5859, 921.5798
233.0681, 888.3462
233.5502, 843.3927
234.0323, 787.9553
234.5144, 721.8560
234.9965, 640.0007
235.4786, 556.4957
235.9608, 472.2667
236.4429, 384.3475
236.9250, 314.5924
237.4071, 269.1707
237.8892, 238.6339
238.3713, 208.6270
238.8535, 179.2552
239.3356, 150.2001
239.8177, 120.8608
240.2998, 90.08374
240.7819, 63.23584
241.2640, 40.03992
241.7462, 20.54175
242.2283, 4.716309
242.7104, 7.074341
243.1925, 15.73560
243.6746, 20.63928
244.1567, 19.60913
244.6389, 22.76648
245.1210, 33.05383
245.6031, 45.77515
246.0852, 51.71606
246.5673, 45.43701
247.0494, 41.73486
247.5316, 47.05225
248.0137, 65.76184
248.4958, 78.72510
248.9779, 84.73596
249.4600, 85.61328
249.9421, 84.57776
250.4243, 81.64722
250.9064, 76.61938
251.3885, 68.45312
251.8706, 54.67432
252.3527, 45.85828
252.8348, 42.41797
253.3170, 43.65222
253.7991, 49.41272
254.2812, 63.28821
254.7633, 74.80579
255.2454, 80.14795
255.7275, 78.68103
256.2097, 72.86572
256.6918, 60.81189
257.1739, 45.80920
257.6560, 34.07568
258.1381, 27.34033
258.6202, 20.17957
259.1024, 9.361694
259.5845, 7.253540
260.0666, 17.40576
260.5487, 17.89258
261.0308, 14.31982
261.5129, 18.11804
261.9951, 32.71802
262.4772, 46.29797
262.9593, 52.78015
263.4414, 49.48865
263.9235, 52.15063
264.4056, 61.08618
264.8878, 75.81055
265.3699, 97.29028
265.8520, 128.7892
266.3341, 157.6683
266.8162, 179.7502
267.2983, 194.5685
267.7805, 203.3308
268.2626, 201.8927
268.7447, 198.7008
269.2268, 211.1689
269.7089, 244.9117
270.1910, 275.0946
270.6732, 289.2852
271.1553, 284.4664
271.6374, 293.0334
272.1195, 319.0981
272.6016, 352.1661
273.0837, 373.0848
273.5659, 379.3446
274.0480, 386.7297
274.5301, 402.0671
275.0122, 425.6077
275.4943, 448.1199
275.9764, 468.2544
276.4586, 489.4008
276.9407, 518.5699
277.4228, 556.5103
277.9049, 592.2810
278.3870, 618.3629
278.8691, 635.5780
279.3513, 664.1675
279.8334, 706.3446
280.3155, 754.2070
280.7976, 797.2000
281.2798, 834.6770
281.7619, 873.0146
282.2440, 913.7688
282.7261, 957.1073
283.2082, 1005.270
283.6903, 1059.148
284.1725, 1114.568
284.6546, 1164.038
285.1367, 1207.587
285.6188, 1257.941
286.1009, 1319.564
286.5830, 1391.581
287.0652, 1474.125
287.5473, 1568.326
288.0294, 1661.646
288.5115, 1732.480
288.9936, 1785.145
289.4757, 1852.142
289.9579, 1951.335
290.4400, 2071.214
290.9221, 2180.788
291.4042, 2278.977
291.8863, 2380.375
292.3684, 2506.775
292.8506, 2651.253
293.3327, 2785.095
293.8148, 2894.708
294.2969, 2991.641
294.7790, 3102.848
295.2611, 3228.850
295.7433, 3353.858
296.2254, 3463.366
296.7075, 3562.898
297.1896, 3663.283
297.6717, 3768.429
298.1538, 3878.154
298.6360, 3992.909
299.1181, 4113.111
299.6002, 4230.837
300.0823, 4341.852
300.5644, 4446.536
301.0465, 4549.035
301.5287, 4659.804
302.0108, 4757.767
302.4929, 4819.697
302.9750, 4846.501
303.4571, 4841.982
303.9392, 4807.337
304.4214, 4745.088
304.9035, 4655.367
305.3856, 4535.630
305.8677, 4393.284
306.3498, 4232.918
306.8319, 4057.465
307.3141, 3872.259
307.7962, 3683.995
308.2783, 3488.566
308.7604, 3275.387
309.2425, 3036.500
309.7246, 2802.822
310.2068, 2586.435
310.6889, 2388.404
311.1710, 2209.360
311.6531, 2050.617
312.1352, 1909.273
312.6173, 1788.866
313.0995, 1698.825
313.5816, 1609.043
314.0637, 1493.329
314.5458, 1368.867
315.0279, 1266.506
315.5100, 1213.207
315.9922, 1172.946
316.4743, 1123.878
316.9564, 1057.747
317.4385, 1007.035
317.9206, 987.7683
318.4027, 988.7920
318.8849, 994.5197
319.3670, 995.4470
319.8491, 1005.058
320.3312, 1031.431
320.8133, 1078.393
321.2954, 1122.747
321.7776, 1153.505
322.2597, 1182.230
322.7418, 1221.240
323.2239, 1273.251
323.7060, 1334.771
324.1881, 1409.097
324.6703, 1497.729
325.1524, 1580.531
325.6345, 1650.968
326.1166, 1716.838
326.5987, 1785.010
327.0808, 1854.093
327.5630, 1927.047
328.0451, 2003.466
328.5272, 2083.480
329.0093, 2171.431
329.4914, 2275.089
329.9735, 2377.568
330.4557, 2466.340
330.9378, 2529.194
331.4199, 2599.881
331.9020, 2682.601
332.3841, 2775.699
332.8662, 2872.439
333.3484, 2975.828
333.8305, 3076.852
334.3126, 3173.007
334.7947, 3266.115
335.2768, 3346.885
335.7589, 3418.336
336.2411, 3475.085
336.7232, 3505.698
337.2053, 3509.535
337.6874, 3488.247
338.1695, 3443.606
338.6516, 3376.968
339.1338, 3275.586
339.6159, 3134.161
340.0980, 2967.260
340.5801, 2801.180
341.0622, 2634.288
341.5443, 2463.934
342.0265, 2275.053
342.5086, 2074.364
342.9907, 1914.132
343.4728, 1801.444
343.9549, 1706.770
344.4370, 1590.344
344.9192, 1456.797
345.4013, 1342.313
345.8834, 1265.836
346.3655, 1217.911
346.8476, 1179.824
347.3297, 1151.852
347.8119, 1129.268
348.2940, 1105.253
348.7761, 1082.982
349.2582, 1072.505
349.7403, 1077.682
350.2225, 1095.334
350.7046, 1120.894
351.1867, 1154.580
351.6688, 1197.395
352.1509, 1253.155
352.6331, 1317.119
353.1152, 1381.887
353.5973, 1443.730
354.0794, 1512.851
354.5615, 1596.026
355.0436, 1692.312
355.5258, 1800.695
356.0079, 1921.406
356.4900, 2054.180
356.9721, 2198.619
357.4542, 2354.502
357.9363, 2522.095
358.4185, 2699.347
358.9006, 2888.937
359.3827, 3095.104
359.8648, 3320.340
360.3469, 3560.777
360.8290, 3816.429
361.3112, 4089.968
361.7933, 4372.369
362.2754, 4659.690
362.7575, 4955.250
363.2396, 5264.847
363.7217, 5593.267
364.2039, 5929.289
364.6860, 6265.594
365.1681, 6603.333
365.6502, 6959.936
366.1323, 7368.299
366.6144, 7780.026
367.0966, 8163.378
367.5787, 8479.442
368.0608, 8809.600
368.5429, 9179.583
369.0250, 9575.250
369.5071, 9917.118
369.9893, 10190.09
370.4714, 10425.88
370.9535, 10645.84
371.4356, 10882.35
371.9177, 11024.66
372.3998, 11065.83
372.8820, 11014.46
373.3641, 10893.93
373.8462, 10715.64
374.3283, 10439.85
374.8104, 10037.04
375.2925, 9493.357
375.7747, 8939.928
376.2568, 8369.172
376.7389, 7794.392
377.2210, 7236.068
377.7031, 6693.995
378.1852, 6173.644
378.6674, 5672.341
379.1495, 5193.395
379.6316, 4721.202
380.1137, 4256.645
380.5958, 3826.961
381.0779, 3473.617
381.5601, 3182.815
382.0422, 2912.203
382.5243, 2644.261
383.0064, 2393.081
383.4885, 2187.235
383.9706, 2021.143
384.4528, 1868.335
384.9349, 1705.476
385.4170, 1543.649
385.8991, 1397.803
386.3812, 1269.053
386.8633, 1155.392
387.3455, 1057.989
387.8276, 974.4580
388.3097, 897.6753
388.7918, 826.6934
389.2739, 759.9905
389.7560, 696.4036
390.2382, 635.8696
390.7203, 579.7284
391.2024, 526.7454
391.6845, 479.3030
392.1666, 439.5430
392.6487, 413.9189
393.1309, 391.1583
393.6130, 369.6626
394.0951, 348.6761
394.5772, 322.4592
395.0593, 280.6400
395.5414, 239.0260
396.0236, 207.6382
396.5057, 198.5635
396.9878, 186.4038
397.4699, 169.3744
397.9520, 147.9432
398.4341, 123.3021
398.9163, 85.18103
399.3984, 54.75085
399.8805, 42.56470
400.3626, 59.78931
400.8447, 60.98218
401.3268, 34.07922
401.8090, 1.091675
402.2911, 15.20398
402.7732, 0.6630860
403.2553, 15.34131
403.7374, 20.81055
404.2195, 17.51184
404.7017, 11.82324
405.1838, 2.343750
405.6659, 6.457153
406.1480, 8.295898
406.6301, 2.986694
407.1122, 4.503906
407.5944, 17.36499
408.0765, 36.01965
408.5586, 48.38330
409.0407, 54.83020
409.5228, 56.70605
410.0049, 49.80139
410.4871, 38.76587
410.9692, 38.82703
411.4513, 53.73975
411.9334, 70.88074
412.4155, 75.20679
412.8976, 70.02808
413.3798, 64.93030
413.8619, 64.87573
414.3440, 66.75183
414.8261, 67.29211
415.3082, 66.44006
415.7903, 65.87634
416.2725, 68.94153
416.7546, 72.09229
417.2367, 71.22107
417.7188, 59.39636
418.2009, 49.45325
418.6830, 50.93628
419.1652, 60.17566
419.6473, 63.56104
420.1294, 51.03162
420.6115, 35.56909
421.0937, 24.20044
421.5758, 20.12891
422.0579, 15.60803
422.5400, 9.482910
423.0221, 2.337036
423.5042, 5.026733
423.9864, 15.69482
424.4685, 22.95679
424.9506, 23.28625
425.4327, 15.64905
425.9148, 14.77405
426.3969, 22.18652
426.8791, 34.60046
427.3612, 50.86914
427.8433, 74.63879
428.3254, 89.55664
428.8075, 88.65515
429.2896, 79.12317
429.7718, 89.03857
430.2539, 122.7209
430.7360, 153.0123
431.2181, 158.0055
431.7002, 140.2402
432.1823, 138.6493
432.6645, 157.5875
433.1466, 184.6578
433.6287, 204.5692
434.1108, 218.0183
434.5929, 228.4301
435.0750, 238.7844
435.5572, 246.1582
436.0393, 243.6284
436.5214, 231.5618
437.0035, 217.7162
437.4856, 207.0265
437.9677, 198.7856
438.4499, 192.8665
438.9320, 192.4590
439.4141, 188.8690
439.8962, 175.4552
440.3783, 154.0398
440.8604, 128.8765
441.3426, 86.57312
441.8247, 52.96582
442.3068, 49.02478
442.7889, 85.66260
443.2710, 110.0042
443.7531, 98.08435
444.2353, 70.52368
444.7174, 49.89111
445.1995, 41.00525
445.6816, 37.73059
446.1637, 42.57996
446.6458, 54.30249
447.1280, 59.66760
447.6101, 54.69165
448.0922, 47.72913
448.5743, 43.31396
449.0564, 42.18555
449.5385, 41.55078
450.0207, 41.43030
450.5028, 41.67896
450.9849, 42.46838
451.4670, 44.22375
451.9491, 44.23145
452.4312, 39.62366
452.9134, 31.68164
453.3955, 31.47498
453.8776, 39.87927
454.3597, 49.70483
454.8418, 54.32568
455.3239, 54.44470
455.8061, 52.67932
456.2882, 49.26123
456.7703, 44.74268
457.2524, 36.14075
457.7345, 25.82117
458.2166, 23.38843
458.6988, 44.20789
459.1809, 71.14050
459.6630, 84.83533
460.1451, 82.11902
460.6272, 74.62073
461.1093, 64.44812
461.5915, 54.66663
462.0736, 49.37415
462.5557, 51.32434
463.0378, 56.57605
463.5199, 67.69910
464.0020, 82.96533
464.4842, 89.78503
464.9663, 74.36011
465.4484, 57.24304
465.9305, 48.85339
466.4126, 52.22620
466.8947, 60.71472
467.3769, 80.19751
467.8590, 103.0773
468.3411, 116.3489
468.8232, 116.0746
469.3053, 110.3734
469.7874, 98.09851
470.2696, 81.01526
470.7517, 80.71313
471.2338, 102.3240
471.7159, 124.5439
472.1980, 125.2015
472.6801, 105.0760
473.1623, 94.83362
473.6444, 100.7549
474.1265, 114.1212
474.6086, 119.7279
475.0907, 119.2161
475.5728, 122.2562
476.0550, 134.7236
476.5371, 152.5846
477.0192, 169.7776
477.5013, 186.5487
477.9834, 205.5278
478.4655, 229.2849
478.9477, 255.6919
479.4298, 281.2830
479.9119, 302.7122
480.3940, 326.8582
480.8761, 355.8916
481.3582, 390.1726
481.8404, 430.4913
482.3225, 486.6754
482.8046, 540.2295
483.2867, 581.3740
483.7688, 604.6338
484.2509, 632.2561
484.7331, 666.6416
485.2152, 705.5537
485.6973, 748.3621
486.1794, 799.6562
486.6615, 846.9078
487.1436, 886.9531
487.6258, 921.7744
488.1079, 962.0029
488.5900, 1010.166
489.0721, 1056.083
489.5542, 1093.378
490.0363, 1122.163
490.5185, 1152.070
491.0006, 1185.062
491.4827, 1212.562
491.9648, 1218.437
492.4470, 1206.531
492.9291, 1198.990
493.4112, 1214.115
493.8933, 1228.450
494.3754, 1202.842
494.8575, 1140.930
495.3397, 1067.190
495.8218, 987.5011
496.3039, 908.2253
496.7860, 837.3896
497.2681, 775.9349
497.7502, 719.4044
498.2324, 667.2667
498.7145, 617.7034
499.1966, 567.2371
499.6787, 506.0092
500.1608, 453.0441
500.6429, 413.2369
501.1251, 386.5315
501.6072, 372.6074
502.0893, 382.6246
502.5714, 395.0405
503.0535, 400.3090
503.5356, 397.3577
504.0178, 389.3281
504.4999, 371.8269
504.9820, 353.3750
505.4641, 347.5366
505.9462, 356.1205
506.4283, 367.6909
506.9105, 379.5641
507.3926, 391.8342
507.8747, 404.1362
508.3568, 416.4067
508.8389, 431.2594
509.3210, 453.7581
509.8032, 480.5574
510.2853, 501.0447
510.7674, 511.9803
511.2495, 524.4427
511.7316, 548.2491
512.2137, 582.2627
512.6959, 623.5559
513.1780, 684.2496
513.6601, 740.8403
514.1422, 773.0515
514.6243, 784.4192
515.1064, 800.6761
515.5886, 838.3716
516.0707, 878.4741
516.5528, 909.7014
517.0349, 925.3395
517.5170, 944.2388
517.9991, 972.9717
518.4813, 1002.340
518.9634, 1022.199
519.4455, 1033.793
519.9276, 1034.694
520.4097, 1022.300
520.8918, 998.5547
521.3740, 975.9108
521.8561, 956.7230
522.3382, 931.0330
522.8203, 888.8527
523.3024, 831.6329
523.7845, 780.6608
524.2667, 738.6982
524.7488, 695.7839
525.2309, 632.1619
525.7130, 554.2909
526.1951, 486.7679
526.6772, 439.2188
527.1594, 404.5604
527.6415, 379.0609
528.1236, 361.1936
528.6057, 343.2330
529.0878, 320.3823
529.5699, 296.3922
530.0521, 273.7274
530.5342, 251.6824
531.0163, 231.2118
531.4984, 209.6144
531.9805, 191.4298
532.4626, 180.7090
532.9448, 177.2775
533.4269, 184.7582
533.9090, 209.8882
534.3911, 245.4248
534.8732, 263.3893
535.3553, 253.0381
535.8375, 246.4758
536.3196, 258.4957
536.8017, 290.5144
537.2838, 321.1382
537.7659, 350.8921
538.2480, 378.4865
538.7302, 398.4279
539.2123, 413.1562
539.6944, 439.2728
540.1765, 483.3362
540.6586, 534.8997
541.1407, 581.9917
541.6229, 625.3047
542.1050, 668.0673
542.5871, 713.3601
543.0692, 758.0652
543.5513, 796.3438
544.0334, 827.7239
544.5156, 864.9753
544.9977, 919.5244
545.4798, 979.2769
545.9619, 1034.120
546.4440, 1079.395
546.9261, 1123.871
547.4083, 1168.916
547.8904, 1214.040
548.3725, 1258.318
548.8546, 1307.873
549.3367, 1347.152
549.8188, 1372.503
550.3010, 1384.200
550.7831, 1387.330
551.2652, 1384.645
551.7473, 1364.045
552.2294, 1314.631
552.7115, 1237.980
553.1937, 1147.330
553.6758, 1040.700
554.1579, 932.6782
554.6400, 840.6541
555.1221, 761.5043
555.6042, 688.0779
556.0864, 618.4907
556.5685, 551.5667
557.0506, 483.8778
557.5327, 417.4969
558.0148, 361.3354
558.4969, 324.1804
558.9791, 295.1000
559.4612, 268.9142
559.9433, 245.8152
560.4254, 222.0403
560.9075, 195.5930
561.3896, 169.0013
561.8718, 143.6165
562.3539, 113.9946
562.8360, 95.52783
563.3181, 93.97546
563.8002, 102.2013
564.2823, 103.8185
564.7645, 98.61145
565.2466, 87.11047
565.7287, 64.36560
566.2108, 35.13110
566.6929, 27.22766
567.1750, 41.57556
567.6572, 57.67468
568.1393, 57.90698
568.6214, 47.47961
569.1035, 34.80444
569.5856, 19.31274
570.0677, 9.089355
570.5499, 19.02429
571.0320, 36.86951
571.5141, 43.33716
571.9962, 17.72449
572.4783, 7.016724
572.9604, 15.96509
573.4426, 11.83667
573.9247, 9.744873
574.4068, 17.18921
574.8889, 22.33386
575.3710, 19.42578
575.8531, 5.979614
576.3353, 2.001343
576.8174, 2.897827
577.2995, 0.6110840
577.7816, 1.313477
578.2637, 2.767944
578.7458, 5.055420
579.2280, 8.412720
579.7101, 12.60242
580.1922, 18.14673
580.6743, 24.56287
581.1564, 29.12122
581.6385, 30.50867
582.1207, 29.35596
582.6028, 25.25146
583.0849, 18.68677
583.5670, 13.14331
584.0491, 10.24475
584.5313, 9.473755
585.0134, 10.69385
585.4955, 14.37048
585.9776, 18.41150
586.4597, 25.28699
586.9418, 30.96252
587.4240, 30.60632
587.9061, 19.63196
588.3882, 9.378540
588.8703, 1.232056
589.3524, 9.742798
589.8345, 6.496948
590.3167, 12.52454
590.7988, 27.79626
591.2809, 28.98596
591.7630, 19.08899
592.2451, 14.15247
592.7272, 14.43127
593.2094, 13.31006
593.6915, 4.318359
594.1736, 9.797852
594.6557, 26.19458
595.1378, 46.42065
595.6199, 58.72290
596.1021, 45.02576
596.5842, 20.15894
597.0663, 5.225586
597.5485, 18.36389
598.0306, 31.01282
598.5127, 32.38330
598.9948, 25.28674
599.4769, 22.44983
599.9590, 27.68896
600.4412, 33.52319
600.9233, 36.81946
601.4054, 37.15771
601.8875, 42.65527
602.3696, 55.06921
602.8517, 68.21948
603.3339, 76.52612
603.8160, 80.37036
604.2981, 83.11584
604.7802, 84.84094
605.2623, 86.46277
605.7444, 88.02808
606.2266, 90.35974
606.7087, 95.77234
607.1908, 111.1770
607.6729, 123.8318
608.1550, 118.1085
608.6371, 100.3137
609.1193, 90.81067
609.6014, 110.9668
610.0835, 130.0449
610.5656, 127.9270
611.0477, 98.29700
611.5298, 89.51904
612.0120, 119.1243
612.4941, 153.8923
612.9762, 170.3907
613.4583, 161.4752
613.9404, 160.2798
614.4225, 169.5154
614.9047, 184.2782
615.3868, 200.1023
615.8689, 216.6537
616.3510, 226.9187
616.8331, 226.2216
617.3152, 221.6522
617.7974, 225.4556
618.2795, 235.3365
618.7616, 242.6434
619.2437, 237.9623
619.7258, 232.3278
620.2079, 231.7931
620.6901, 236.8862
621.1722, 251.9478
621.6543, 288.7141
622.1364, 328.8977
622.6185, 360.1827
623.1006, 378.9799
623.5828, 395.4218
624.0649, 406.0281
624.5470, 417.4713
625.0291, 440.9673
625.5112, 481.0212
625.9933, 507.0076
626.4755, 507.8345
626.9576, 498.8279
627.4397, 513.4893
627.9218, 549.1448
628.4039, 585.8527
628.8860, 611.7744
629.3682, 634.1543
629.8503, 662.1051
630.3324, 694.6895
630.8145, 728.9692
631.2966, 763.4050
631.7787, 799.5593
632.2609, 838.1973
632.7430, 880.2087
633.2251, 923.2688
633.7072, 963.5791
634.1893, 1007.010
634.6714, 1057.952
635.1536, 1114.511
635.6357, 1183.933
636.1178, 1270.608
636.5999, 1365.370
637.0820, 1445.099
637.5641, 1507.992
638.0463, 1592.516
638.5284, 1718.188
639.0105, 1867.799
639.4926, 2010.167
639.9747, 2148.008
640.4568, 2291.542
640.9390, 2430.137
641.4211, 2590.573
641.9032, 2801.552
642.3853, 3063.910
642.8674, 3349.062
643.3495, 3650.100
643.8317, 3966.046
644.3138, 4299.692
644.7959, 4646.953
645.2780, 5018.577
645.7601, 5412.027
646.2422, 5831.445
646.7244, 6291.154
647.2065, 6791.940
647.6886, 7307.856
648.1707, 7836.001
648.6528, 8364.259
649.1349, 8870.084
649.6171, 9357.067
650.0992, 9859.693
650.5813, 10401.62
651.0634, 10963.00
651.5455, 11519.07
652.0276, 12075.35
652.5098, 12636.07
652.9919, 13233.41
653.4740, 13814.13
653.9561, 14349.10
654.4382, 14835.95
654.9203, 15273.01
655.4025, 15692.51
655.8846, 16037.26
656.3667, 16270.54
656.8488, 16403.92
657.3309, 16389.98
657.8130, 16225.61
658.2952, 15918.00
658.7773, 15453.24
659.2594, 14835.78
659.7415, 14165.90
660.2236, 13468.26
660.7057, 12728.49
661.1879, 11909.71
661.6700, 11036.27
662.1521, 10183.00
662.6342, 9364.137
663.1163, 8593.832
663.5984, 7883.984
664.0806, 7233.218
664.5627, 6622.897
665.0448, 6056.581
665.5269, 5531.767
666.0090, 5042.577
666.4911, 4590.526
666.9733, 4195.827
667.4554, 3866.011
667.9375, 3578.593
668.4196, 3321.419
668.9017, 3092.908
669.3839, 2874.962
669.8660, 2666.560
670.3481, 2470.219
670.8302, 2286.178
671.3123, 2117.234
671.7944, 1969.455
672.2766, 1851.892
672.7587, 1746.809
673.2408, 1644.496
673.7229, 1546.582
674.2050, 1452.963
674.6871, 1358.512
675.1693, 1273.276
675.6514, 1201.478
676.1335, 1140.693
676.6156, 1080.574
677.0977, 1019.745
677.5798, 963.3228
678.0620, 914.3914
678.5441, 872.0759
679.0262, 833.3149
679.5083, 798.1382
679.9904, 760.7104
680.4725, 709.5057
680.9547, 655.4941
681.4368, 618.5864
681.9189, 602.4945
682.4010, 589.6501
682.8831, 568.3621
683.3652, 545.2537
683.8474, 527.3093
684.3295, 522.4611
684.8116, 512.6582
685.2937, 491.6707
685.7758, 465.8997
686.2579, 442.8207
686.7401, 420.6390
687.2222, 406.6914
687.7043, 404.2246
688.1864, 409.0864
688.6685, 413.8356
689.1506, 418.1121
689.6328, 415.9783
690.1149, 399.7195
690.5970, 378.7623
691.0791, 367.5497
691.5612, 364.6116
692.0433, 362.7035
692.5255, 354.9612
693.0076, 349.2684
693.4897, 351.7316
693.9718, 363.5148
694.4539, 374.3250
694.9360, 381.3655
695.4182, 388.3671
695.9003, 398.2892
696.3824, 413.0928
696.8645, 420.9418
697.3466, 419.9253
697.8287, 416.9539
698.3109, 422.5145
698.7930, 433.7455
699.2751, 434.5161
699.7572, 420.6443
700.2393, 400.9432
700.7214, 382.3929
701.2036, 364.7838
701.6857, 347.7869
702.1678, 332.3784
702.6499, 316.2927
703.1320, 298.1440
703.6141, 278.7035
704.0963, 259.8850
704.5784, 243.1826
705.0605, 224.5459
705.5426, 201.3748
706.0247, 175.6577
706.5068, 158.0293
706.9890, 149.4200
707.4711, 140.2610
707.9532, 123.4985
708.4353, 103.0714
708.9174, 90.97876
709.3995, 86.35498
709.8817, 81.22522
710.3638, 67.00317
710.8459, 51.92505
711.3280, 44.40613
711.8101, 46.17102
712.2922, 46.93408
712.7744, 41.21582
713.2565, 35.44446
713.7386, 34.09558
714.2207, 39.56409
714.7028, 43.80811
715.1849, 48.06885
715.6671, 48.99060
716.1492, 39.74561
716.6313, 21.68176
717.1134, 11.74109
717.5955, 15.42944
718.0776, 19.79065
718.5598, 3.295166
719.0419, 23.29993
719.5240, 38.97351
720.0061, 30.34387
720.4882, 16.53687
720.9703, 2.046265
721.4525, 10.99683
721.9346, 17.79456
722.4167, 13.69983
722.8988, 8.532349
723.3809, 3.517212
723.8630, 1.171631
724.3452, 5.110962
724.8273, 8.468872
725.3094, 9.744507
725.7915, 6.183228
726.2736, 0.4863280
726.7557, 2.590332
727.2379, 10.90039
727.7200, 15.37842
728.2021, 4.319946
728.6842, 9.061890
729.1663, 15.13135
729.6484, 12.91626
730.1306, 5.980347
730.6127, 16.25525
731.0948, 33.01196
731.5769, 30.71155
732.0590, 1.971313
732.5411, 13.00879
733.0233, 11.62292
733.5054, 3.271240
733.9875, 6.863770
734.4696, 18.21448
734.9517, 19.97375
735.4338, 9.255981
735.9160, 3.912476
736.3981, 11.92725
736.8802, 14.58386
737.3623, 10.98242
737.8444, 3.895020
738.3266, 15.43665
738.8087, 19.43286
739.2908, 16.38354
739.7729, 6.119141
740.2551, 20.46362
740.7372, 37.26318
741.2193, 39.47888
741.7014, 31.68628
742.1835, 21.86621
742.6656, 10.12939
743.1478, 3.423462
743.6299, 3.737671
744.1120, 10.39331
744.5941, 26.51440
745.0762, 48.37927
745.5583, 66.13977
746.0405, 71.45239
746.5226, 75.04712
747.0047, 82.65649
747.4868, 93.70251
747.9689, 104.1451
748.4510, 115.7499
748.9332, 123.7672
749.4153, 126.5970
749.8974, 124.3508
750.3795, 116.9929
750.8616, 103.4026
751.3438, 93.53796
751.8259, 96.43481
752.3080, 107.2542
752.7901, 114.5100
753.2722, 118.5408
753.7543, 122.5829
754.2365, 128.1428
754.7186, 133.0068
755.2007, 137.7609
755.6828, 143.0642
756.1649, 145.5657
756.6470, 139.9117
757.1292, 133.7855
757.6113, 133.5504
758.0934, 142.1853
758.5755, 143.5059
759.0576, 135.4233
759.5397, 125.6315
760.0219, 122.5247
760.5040, 124.6976
760.9861, 128.1528
761.4682, 132.6367
761.9503, 134.2422
762.4324, 127.4142
762.9146, 117.1351
763.3967, 109.1370
763.8788, 104.1047
764.3609, 102.7885
764.8430, 110.0985
765.3251, 118.1169
765.8073, 117.0778
766.2894, 104.6376
766.7715, 96.60815
767.2536, 93.80884
767.7357, 92.45435
768.2178, 80.31677
768.7000, 62.38184
769.1821, 61.75317
769.6642, 99.12854
770.1463, 134.1635
770.6284, 122.5863
771.1105, 85.16858
771.5927, 61.63147
772.0748, 84.39368
772.5569, 98.31189
773.0390, 83.67578
773.5211, 52.86340
774.0032, 37.78833
774.4854, 42.57666
774.9675, 47.76843
775.4496, 47.83826
775.9317, 44.34338
776.4138, 39.73975
776.8959, 33.80090
777.3781, 29.47241
777.8602, 29.73169
778.3423, 33.29419
778.8244, 42.14038
779.3065, 53.57300
779.7886, 58.23071
780.2708, 41.66748
780.7529, 30.48181
781.2350, 38.50708
781.7171, 61.98767
782.1992, 62.44275
782.6813, 33.44775
783.1635, 7.056274
783.6456, 2.410522
784.1277, 12.77551
784.6098, 13.88501
785.0919, 6.774780
785.5740, 4.055420
786.0562, 23.01575
786.5383, 43.89539
787.0204, 48.63330
787.5025, 36.27612
787.9846, 24.04614
788.4667, 12.17761
788.9489, 3.897949
789.4310, 3.390503
789.9131, 12.55762
790.3952, 13.27124
790.8773, 3.470703
791.3594, 5.689453
791.8416, 3.782227
792.3237, 4.418701
792.8058, 6.396240
793.2879, 2.200928
793.7700, 1.117676
794.2521, 0.3620610
794.7343, 4.846558
795.2164, 11.82104
795.6985, 22.32141
796.1806, 28.91235
796.6627, 32.01709
797.1448, 31.04993
797.6270, 23.60095
798.1091, 7.608887
798.5912, 1.947510
799.0733, 8.447876
799.5554, 15.76465
800.0375, 11.03687
800.5197, 0.2475590
801.0018, 8.175537
801.4839, 11.39734
801.9660, 10.85095
802.4481, 3.989990
802.9302, 4.468872
803.4124, 10.44275
803.8945, 11.83740
804.3766, 14.28516
804.8587, 18.97205
805.3408, 23.14246
805.8229, 23.37073
806.3051, 19.69775
806.7872, 19.23901
807.2693, 23.06079
807.7514, 27.27698
808.2335, 29.26172
808.7156, 28.56799
809.1978, 23.90173
809.6799, 13.73792
810.1620, 3.866455
810.6441, 8.458130
811.1262, 16.32617
811.6083, 11.48279
812.0905, 18.72070
812.5726, 30.59766
813.0547, 16.76990
813.5368, 3.020386
814.0189, 2.791382
814.5010, 13.37634
814.9832, 20.28345
815.4653, 12.26465
815.9474, 2.481934
816.4295, 4.813232
816.9116, 11.79114
817.3937, 13.73682
817.8759, 4.572266
818.3580, 2.380493
818.8401, 3.341553
819.3222, 1.566772
819.8043, 0.3461910
820.2864, 2.640747
820.7686, 3.418945
821.2507, 1.716553
821.7328, 0.8635250
822.2149, 9.727173
822.6970, 22.56311
823.1791, 21.67297
823.6613, 3.135132
824.1434, 21.19861
824.6255, 0.4451900
825.1076, 32.97156
825.5897, 49.64246
826.0718, 26.39734
826.5540, 12.17053
827.0361, 10.44153
827.5182, 13.74988
828.0003, 11.80786
828.4824, 4.763794
828.9645, 5.347168
829.4467, 16.37268
829.9288, 31.43945
830.4109, 45.91577
830.8930, 58.71423
831.3751, 68.23340
831.8572, 73.47583
832.3394, 76.49268
832.8215, 76.24158
833.3036, 75.06140
833.7857, 74.75220
834.2678, 72.63904
834.7499, 80.32336
835.2321, 101.1434
835.7142, 125.6886
836.1963, 140.4381
836.6784, 148.7379
837.1605, 162.8085
837.6426, 185.5469
838.1248, 211.0162
838.6069, 232.7220
839.0890, 255.5309
839.5711, 285.0468
840.0532, 328.9720
840.5353, 367.4006
841.0175, 396.1294
841.4996, 421.9298
841.9817, 451.1958
842.4638, 483.6814
842.9459, 520.1322
843.4280, 561.2166
843.9102, 603.9298
844.3923, 643.3516
844.8744, 682.1663
845.3565, 725.2323
845.8386, 775.9440
846.3207, 822.7137
846.8029, 863.7980
847.2850, 896.6553
847.7671, 918.4873
848.2492, 923.1890
848.7313, 935.7369
849.2134, 962.3207
849.6956, 980.2070
850.1777, 958.7964
850.6598, 908.7091
851.1419, 870.7954
851.6240, 851.3271
852.1061, 827.3973
852.5883, 776.4233
853.0704, 715.6069
853.5525, 658.1968
854.0346, 604.0745
854.5167, 564.3431
854.9988, 553.1680
855.4810, 538.3923
855.9631, 490.1505
856.4452, 407.3462
856.9273, 350.3993
857.4094, 321.8566
857.8915, 304.1318
858.3737, 288.5752
858.8558, 271.2776
859.3379, 244.6884
859.8200, 207.2914
860.3021, 178.0725
860.7842, 167.1139
861.2664, 164.5118
861.7485, 167.7872
862.2306, 179.0914
862.7127, 170.4514
863.1948, 136.2932
863.6769, 106.2701
864.1591, 106.4835
864.6412, 125.1923
865.1233, 134.5751
865.6054, 134.3278
866.0875, 132.6975
866.5696, 137.1606
867.0518, 139.7278
867.5339, 133.7227
868.0160, 118.5118
868.4981, 106.8167
868.9802, 96.81055
869.4623, 93.58740
869.9445, 104.6135
870.4266, 123.8958
870.9087, 126.1709
871.3908, 112.2931
871.8729, 97.84412
872.3550, 91.62854
872.8372, 89.19336
873.3193, 86.52234
873.8014, 84.69739
874.2835, 89.15088
874.7656, 104.5868
875.2477, 121.1948
875.7299, 138.2601
876.2120, 154.0061
876.6941, 161.6226
877.1762, 161.4326
877.6583, 161.2157
878.1404, 166.2490
878.6226, 170.3264
879.1047, 161.5723
879.5869, 146.0978
880.0690, 137.8289
880.5511, 148.1609
881.0332, 156.6207
881.5153, 158.1678
881.9974, 154.4293
882.4796, 147.0691
882.9617, 132.3204
883.4438, 127.0811
883.9259, 137.7939
884.4080, 155.5295
884.8901, 168.5972
885.3723, 177.8969
885.8544, 184.5496
886.3365, 184.9838
886.8186, 188.7074
887.3007, 205.4244
887.7828, 225.7982
888.2650, 236.0975
888.7471, 230.7362
889.2292, 229.9812
889.7113, 236.2533
890.1934, 245.3003
890.6755, 253.4629
891.1577, 259.8408
891.6398, 259.8781
892.1219, 250.6588
892.6040, 245.8831
893.0861, 260.5081
893.5682, 280.9075
894.0504, 293.0386
894.5325, 286.6110
895.0146, 295.4933
895.4967, 328.0304
895.9788, 360.4054
896.4609, 369.8569
896.9431, 360.2511
897.4252, 355.5068
897.9073, 356.9082
898.3894, 357.0793
898.8715, 343.7957
899.3536, 331.5718
899.8358, 336.1462
900.3179, 360.8108
900.8000, 375.8896
901.2821, 374.9709
901.7642, 369.1285
902.2463, 361.0059
902.7285, 351.8046
903.2106, 351.1035
903.6927, 358.6514
904.1748, 367.4120
904.6569, 374.1035
905.1390, 379.2451
905.6212, 386.6827
906.1033, 393.8824
906.5854, 390.4629
907.0675, 357.2504
907.5496, 333.2531
908.0317, 333.4927
908.5139, 346.9312
908.9960, 336.0005
909.4781, 300.5999
909.9602, 272.1378
910.4423, 265.2864
910.9244, 265.0045
911.4066, 251.1971
911.8887, 231.2305
912.3708, 218.5188
912.8529, 230.0916
913.3350, 232.9763
913.8171, 213.1704
914.2993, 187.9258
914.7814, 184.8040
915.2635, 206.8129
915.7456, 207.6555
916.2277, 176.9143
916.7098, 140.7057
917.1920, 132.7982
917.6741, 137.9131
918.1562, 133.2156
918.6383, 111.6060
919.1204, 89.12549
919.6025, 63.04944
920.0847, 44.16174
920.5668, 42.18616
921.0489, 60.76062
921.5310, 69.59949
922.0131, 67.81152
922.4952, 63.56323
922.9774, 65.85144
923.4595, 68.68481
923.9416, 62.14722
924.4237, 46.16418
924.9058, 28.83374
925.3879, 7.214722
925.8701, 8.588745
926.3522, 13.81311
926.8343, 9.607544
927.3164, 5.354980
927.7985, 1.311035
928.2806, 5.771118
928.7628, 22.23572
929.2449, 37.88049
929.7270, 34.42908
930.2091, 16.91003
930.6912, 1.115967
931.1733, 18.31262
931.6555, 30.12488
932.1376, 32.78223
932.6197, 30.14087
933.1018, 27.72864
933.5839, 25.36548
934.0660, 24.62219
934.5482, 26.21606
935.0303, 28.08191
935.5124, 26.13794
935.9945, 22.96423
936.4766, 24.17810
936.9587, 34.77136
937.4409, 39.44897
937.9230, 25.12732
938.4051, 9.202759
938.8872, 6.335693
939.3693, 20.06934
939.8514, 24.98779
940.3336, 20.13623
940.8157, 12.99609
941.2978, 8.812988
941.7799, 6.677002
942.2620, 6.004395
942.7441, 6.566650
943.2263, 5.718506
943.7084, 0.3024900
944.1905, 4.426270
944.6726, 6.434570
945.1547, 5.983887
945.6368, 3.832520
946.1190, 0.2524410
946.6011, 2.069580
947.0832, 0.4826660
947.5653, 6.071533
948.0474, 13.06543
948.5295, 21.72119
949.0117, 32.62573
949.4938, 54.38208
949.9759, 67.19604
950.4580, 63.84839
950.9401, 52.86987
951.4222, 46.00220
951.9044, 43.21094
952.3865, 45.10278
952.8686, 52.73926
953.3507, 60.41577
953.8328, 56.88892
954.3149, 52.23682
954.7971, 61.67944
955.2792, 93.84131
955.7613, 117.0491
956.2434, 125.3196
956.7255, 124.9690
957.2076, 115.5452
957.6898, 97.67603
958.1719, 96.45752
958.6540, 111.6858
959.1361, 128.9673
959.6182, 141.8135
960.1003, 149.6604
960.5825, 151.3474
961.0646, 147.4121
961.5467, 140.4780
962.0288, 122.1921
962.5109, 115.6982
962.9930, 132.2075
963.4752, 158.9817
963.9573, 160.9658
964.4394, 142.2117
964.9215, 127.6272
965.4036, 125.0981
965.8857, 130.0398
966.3679, 143.2778
966.8500, 159.7915
967.3321, 173.2217
967.8142, 183.0305
968.2963, 187.8655
968.7784, 184.8035
969.2606, 182.5544
969.7427, 194.7183
970.2248, 215.2009
970.7069, 217.6643
971.1890, 200.3972
971.6711, 188.8108
972.1533, 200.5759
972.6354, 222.8943
973.1175, 251.8926
973.5996, 286.5127
974.0817, 307.1592
974.5638, 309.1619
975.0460, 314.2688
975.5281, 335.7217
976.0102, 362.2239
976.4923, 363.3047
976.9744, 348.7190
977.4565, 347.1184
977.9387, 379.3569
978.4208, 416.9185
978.9029, 458.8757
979.3850, 495.9165
979.8671, 511.1487
980.3492, 497.6406
980.8314, 504.8254
981.3135, 541.0471
981.7956, 585.3728
982.2777, 618.2966
982.7598, 643.4951
983.2419, 662.9038
983.7241, 674.8105
984.2062, 695.7703
984.6883, 738.0161
985.1704, 784.2585
985.6525, 826.0352
986.1346, 864.7678
986.6168, 913.5332
987.0989, 971.9197
987.5810, 1039.188
988.0631, 1125.091
988.5452, 1210.755
989.0273, 1267.077
989.5095, 1309.127
989.9916, 1375.353
990.4737, 1489.953
990.9558, 1604.492
991.4379, 1712.208
991.9200, 1817.426
992.4022, 1915.359
992.8843, 2013.616
993.3664, 2153.200
993.8485, 2343.730
994.3306, 2553.824
994.8127, 2757.409
995.2949, 2974.143
995.7770, 3217.904
996.2591, 3485.203
996.7412, 3794.872
997.2233, 4139.828
997.7054, 4538.383
998.1876, 5001.661
998.6697, 5525.207
999.1518, 6093.690
999.6339, 6718.500
1000.116, 7449.305
1000.598, 8337.337
1001.080, 9310.407
1001.562, 10338.21
1002.044, 11442.44
1002.527, 12709.81
1003.009, 14137.87
1003.491, 15630.66
1003.973, 17148.69
1004.455, 18704.45
1004.937, 20293.76
1005.419, 21911.05
1005.901, 23528.45
1006.384, 25135.39
1006.866, 26753.18
1007.348, 28410.09
1007.830, 30026.87
1008.312, 31584.66
1008.794, 33062.11
1009.276, 34430.50
1009.758, 35662.30
1010.240, 36585.02
1010.723, 37189.54
1011.205, 37362.77
1011.687, 37035.04
1012.169, 36198.39
1012.651, 34889.10
1013.133, 33020.09
1013.615, 30909.02
1014.097, 28549.76
1014.580, 26092.84
1015.062, 23708.73
1015.544, 21424.38
1016.026, 19263.23
1016.508, 17231.97
1016.990, 15396.48
1017.472, 13800.95
1017.954, 12406.93
1018.436, 11189.81
1018.919, 10157.09
1019.401, 9275.221
1019.883, 8543.929
1020.365, 7912.565
1020.847, 7369.142
1021.329, 6897.083
1021.811, 6485.811
1022.293, 6134.389
1022.776, 5832.513
1023.258, 5593.675
1023.740, 5380.158
1024.222, 5193.954
1024.704, 5022.586
1025.186, 4849.767
1025.668, 4677.945
1026.150, 4521.367
1026.632, 4381.486
1027.115, 4254.138
1027.597, 4156.394
1028.079, 4053.337
1028.561, 3916.880
1029.043, 3748.965
1029.525, 3579.384
1030.007, 3409.509
1030.489, 3250.517
1030.972, 3116.317
1031.454, 2986.880
1031.936, 2826.479
1032.418, 2647.976
1032.900, 2481.243
1033.382, 2338.727
1033.864, 2201.942
1034.346, 2068.463
1034.828, 1940.219
1035.311, 1821.979
1035.793, 1712.359
1036.275, 1609.504
1036.757, 1512.392
1037.239, 1415.674
1037.721, 1299.719
1038.203, 1195.959
1038.685, 1137.199
1039.167, 1118.380
1039.650, 1079.811
1040.132, 1017.333
1040.614, 953.9155
1041.096, 897.3823
1041.578, 846.0354
1042.060, 799.3584
1042.542, 756.9084
1043.024, 717.3718
1043.507, 680.2419
1043.989, 646.6833
1044.471, 618.8271
1044.953, 592.8984
1045.435, 566.3762
1045.917, 539.2327
1046.399, 506.7695
1046.881, 469.5764
1047.364, 438.1865
1047.846, 424.0073
1048.328, 414.1072
1048.810, 402.5732
1049.292, 387.8530
1049.774, 364.7793
1050.256, 328.5427
1050.738, 302.0654
1051.220, 292.0476
1051.703, 287.4102
1052.185, 275.2380
1052.667, 260.0427
1053.149, 250.3398
1053.631, 249.5540
1054.113, 246.5596
1054.595, 241.4951
1055.077, 229.5583
1055.559, 203.5938
1056.042, 167.7397
1056.524, 152.9246
1057.006, 156.4668
1057.488, 156.4727
1057.970, 131.0273
1058.452, 108.6194
1058.934, 112.6292
1059.416, 130.2671
1059.899, 137.1934
1060.381, 129.8245
1060.863, 119.8567
1061.345, 108.1628
1061.827, 97.39307
1062.309, 90.86841
1062.791, 86.52075
1063.273, 80.93994
1063.755, 73.66528
1064.238, 69.19751
1064.720, 77.36499
1065.202, 76.22388
1065.684, 53.29712
1066.166, 21.09448
1066.648, 20.00171
1067.130, 43.17871
1067.612, 58.10522
1068.094, 51.26489
1068.577, 41.50781
1069.059, 39.82104
1069.541, 41.13672
1070.023, 40.75464
1070.505, 37.80249
1070.987, 30.19849
1071.469, 17.37842
1071.951, 8.959473
1072.434, 16.68140
1072.916, 28.62744
1073.398, 31.37354
1073.880, 26.20776
1074.362, 18.59570
1074.844, 9.859375
1075.326, 3.092285
1075.808, 25.12085
1076.291, 43.49902
1076.773, 33.69238
1077.255, 5.833008
1077.737, 9.348633
1078.219, 5.842529
1078.701, 2.294189
1079.183, 11.07129
1079.665, 17.15698
1080.147, 20.86060
1080.630, 21.31958
1081.112, 9.866455
1081.594, 11.72656
1082.076, 24.11304
1082.558, 18.79541
1083.040, 7.809082
1083.522, 2.937500
1084.004, 12.17627
1084.486, 16.23291
1084.969, 13.66284
1085.451, 8.285156
1085.933, 0.5725100
1086.415, 9.661133
1086.897, 18.93823
1087.379, 25.46948
1087.861, 22.67798
1088.343, 12.14844
1088.826, 1.070068
1089.308, 14.29370
1089.790, 23.09412
1090.272, 19.93127
1090.754, 11.68311
1091.236, 12.03125
1091.718, 18.85535
1092.200, 17.91809
1092.682, 6.329590
1093.165, 5.231445
1093.647, 10.79285
1094.129, 12.87036
1094.611, 11.80286
1095.093, 8.597900
1095.575, 10.79639
1096.057, 18.87964
1096.539, 24.92944
1097.022, 24.77502
1097.504, 23.50342
1097.986, 28.49988
1098.468, 34.41357
1098.950, 33.84998
1099.432, 23.09558
1099.914, 11.23352
1100.396, 4.406006
1100.879, 11.28748
1101.361, 9.907593
1101.843, 41.47461
1102.325, 46.20056
1102.807, 29.52478
1103.289, 14.70325
1103.771, 10.59607
1104.253, 9.191528
1104.735, 8.164185
1105.218, 9.359497
1105.700, 18.68042
1106.182, 33.22253
1106.664, 38.15161
1107.146, 31.81860
1107.628, 21.42712
1108.110, 2.637817
1108.592, 15.43616
1109.074, 8.187500
1109.557, 54.13550
1110.039, 60.15393
1110.521, 25.66003
1111.003, 1.031860
1111.485, 2.372437
1111.967, 14.50293
1112.449, 30.90295
1112.931, 45.63025
1113.414, 51.65125
1113.896, 46.96814
1114.378, 39.85962
1114.860, 29.50293
1115.342, 20.58557
1115.824, 17.17651
1116.306, 15.82031
1116.788, 7.247314
1117.271, 3.530396
1117.753, 5.212646
1118.235, 18.38269
1118.717, 32.80640
1119.199, 33.93677
1119.681, 28.21204
1120.163, 17.37842
1120.645, 5.504395
1121.127, 7.289063
1121.609, 21.73328
1122.092, 34.00952
1122.574, 36.78320
1123.056, 35.65625
1123.538, 30.75464
1124.020, 24.78589
1124.502, 24.25391
1124.984, 28.29297
1125.466, 29.40210
1125.949, 26.19006
1126.431, 20.53296
1126.913, 7.258911
1127.395, 2.302368
1127.877, 3.256348
1128.359, 21.28992
1128.841, 30.58167
1129.323, 30.68774
1129.806, 31.68750
1130.288, 39.27698
1130.770, 44.96948
1131.252, 36.08167
1131.734, 21.88159
1132.216, 15.24207
1132.698, 20.51611
1133.180, 22.71716
1133.662, 21.55151
1134.145, 16.22656
1134.627, 2.157715
1135.109, 11.70410
1135.591, 8.279297
1136.073, 5.504517
1136.555, 12.08496
1137.037, 0.8029790
1137.519, 11.56189
1138.001, 20.71887
1138.484, 23.48682
1138.966, 7.519165
1139.448, 17.09460
1139.930, 22.05322
1140.412, 8.422729
1140.894, 0.3161620
1141.376, 11.03345
1141.858, 21.25378
1142.341, 24.92480
1142.823, 24.80005
1143.305, 24.20264
1143.787, 23.82385
1144.269, 28.88220
1144.751, 41.42969
1145.233, 46.52136
1145.715, 24.33862
1146.198, 3.911377
1146.680, 4.057373
1147.162, 18.42920
1147.644, 16.18860
1148.126, 0.7755130
1148.608, 12.59229
1149.090, 12.35254
1149.572, 9.046143
1150.054, 8.756470
1150.536, 8.007690
1151.019, 3.996948
1151.501, 3.233276
1151.983, 13.28247
1152.465, 26.52161
1152.947, 34.12793
1153.429, 27.84094
1153.911, 17.85620
1154.393, 11.65796
1154.876, 9.243408
1155.358, 11.36560
1155.840, 19.80493
1156.322, 26.91406
1156.804, 32.92688
1157.286, 35.53882
1157.768, 30.61047
1158.250, 22.60828
1158.733, 14.88403
1159.215, 9.634277
1159.697, 11.95984
1160.179, 30.05835
1160.661, 38.40942
1161.143, 31.72278
1161.625, 21.37671
1162.107, 18.26355
1162.589, 21.45837
1163.072, 33.51196
1163.554, 53.33496
1164.036, 62.54993
1164.518, 45.97693
1165.000, 37.11951
1165.482, 46.93665
1165.964, 63.18896
1166.446, 63.92908
1166.928, 55.29517
1167.411, 46.20471
1167.893, 38.26050
1168.375, 31.54907
1168.857, 24.74402
1169.339, 20.74622
1169.821, 20.94214
1170.303, 24.58325
1170.785, 31.59302
1171.268, 40.42322
1171.750, 46.49829
1172.232, 48.64673
1172.714, 47.10059
1173.196, 33.66907
1173.678, 25.10950
1174.160, 36.68835
1174.642, 62.93201
1175.125, 61.34668
1175.607, 37.79333
1176.089, 23.45544
1176.571, 41.04590
1177.053, 58.49915
1177.535, 59.36243
1178.017, 55.30627
1178.499, 57.76392
1178.981, 66.79492
1179.464, 67.36865
1179.946, 59.85352
1180.428, 54.44543
1180.910, 61.51160
1181.392, 68.07764
1181.874, 65.08972
1182.356, 58.25562
1182.838, 57.09290
1183.320, 61.89795
1183.803, 61.89172
1184.285, 56.06836
1184.767, 51.31091
1185.249, 56.04822
1185.731, 61.04907
1186.213, 54.86682
1186.695, 43.90833
1187.177, 50.14111
1187.660, 75.26428
1188.142, 91.40234
1188.624, 93.66541
1189.106, 88.71179
1189.588, 79.27747
1190.070, 67.53271
1190.552, 51.98486
1191.034, 34.77307
1191.516, 31.43079
1191.999, 43.26465
1192.481, 57.10071
1192.963, 71.17859
1193.445, 80.78784
1193.927, 75.50867
1194.409, 66.47095
1194.891, 65.65735
1195.373, 74.10168
1195.855, 77.92737
1196.338, 77.46826
1196.820, 74.43274
1197.302, 67.71533
1197.784, 60.84045
1198.266, 60.16711
1198.748, 60.78552
1199.230, 56.59070
1199.712, 45.25366
1200.195, 38.52563
1200.677, 36.55481
1201.159, 37.80444
1201.641, 44.58948
1202.123, 50.37073
1202.605, 39.81970
1203.087, 25.73669
1203.569, 31.81323
1204.052, 74.50391
1204.534, 88.66296
1205.016, 70.63318
1205.498, 49.95581
1205.980, 47.35938
1206.462, 52.08264
1206.944, 55.33167
1207.426, 56.69434
1207.908, 54.01855
1208.391, 44.91650
1208.873, 38.69604
1209.355, 35.69373
1209.837, 36.69226
1210.319, 45.93933
1210.801, 56.45715
1211.283, 61.09924
1211.765, 59.91772
1212.247, 53.32812
1212.730, 38.11621
1213.212, 30.27332
1213.694, 32.73962
1214.176, 37.52173
1214.658, 37.42297
1215.140, 34.91772
1215.622, 28.92419
1216.104, 22.04443
1216.587, 30.48865
1217.069, 63.82654
1217.551, 79.96631
1218.033, 69.79260
1218.515, 52.34521
1218.997, 47.46716
1219.479, 47.94568
1219.961, 45.22839
1220.443, 39.42578
1220.926, 39.85486
1221.408, 48.93787
1221.890, 55.30652
1222.372, 56.39966
1222.854, 53.42078
1223.336, 43.49133
1223.818, 33.35449
1224.300, 31.89917
1224.782, 40.56519
1225.265, 46.78223
1225.747, 50.86182
1226.229, 50.03235
1226.711, 41.97095
1227.193, 32.35474
1227.675, 24.49231
1228.157, 21.97217
1228.639, 31.08875
1229.122, 54.80554
1229.604, 57.59607
1230.086, 34.75061
1230.568, 23.76135
1231.050, 45.72620
1231.532, 71.22754
1232.014, 61.34521
1232.496, 38.57007
1232.979, 32.35400
1233.461, 47.34717
1233.943, 52.88318
1234.425, 48.64001
1234.907, 42.80334
1235.389, 36.23499
1235.871, 34.08655
1236.353, 48.96680
1236.835, 67.35071
1237.318, 68.39294
1237.800, 47.49365
1238.282, 40.15210
1238.764, 47.04260
1239.246, 56.33325
1239.728, 66.03064
1240.210, 69.50061
1240.692, 52.07056
1241.175, 29.84863
1241.657, 26.22913
1242.139, 45.64539
1242.621, 55.01379
1243.103, 54.41467
1243.585, 52.74585
1244.067, 59.35901
1244.549, 62.53955
1245.031, 47.76794
1245.514, 28.77209
1245.996, 26.66711
1246.478, 44.06799
1246.960, 43.03418
1247.442, 23.69580
1247.924, 8.616455
1248.406, 16.23706
1248.888, 28.64160
1249.370, 37.68579
1249.853, 44.76819
1250.335, 52.67700
1250.817, 61.12170
1251.299, 62.38794
1251.781, 56.63452
1252.263, 52.34338
1252.745, 55.68762
1253.227, 61.18762
1253.710, 68.48950
1254.192, 75.06750
1254.674, 76.79968
1255.156, 73.71436
1255.638, 62.96729
1256.120, 45.40771
1256.602, 33.04639
1257.084, 39.91199
1257.567, 43.52039
1258.049, 33.14551
1258.531, 20.32080
1259.013, 25.97913
1259.495, 42.97229
1259.977, 41.07251
1260.459, 20.52197
1260.941, 7.117188
1261.423, 17.49133
1261.906, 30.93152
1262.388, 45.55164
1262.870, 56.40430
1263.352, 52.56030
1263.834, 40.49548
1264.316, 36.46582
1264.798, 41.14075
1265.280, 42.12561
1265.762, 28.69580
1266.245, 23.71936
1266.727, 34.29443
1267.209, 47.93579
1267.691, 47.29248
1268.173, 38.62720
1268.655, 31.82336
1269.137, 27.72986
1269.619, 23.15796
1270.102, 13.51904
1270.584, 15.88245
1271.066, 37.00964
1271.548, 60.20117
1272.030, 62.72559
1272.512, 56.02722
1272.994, 53.31470
1273.476, 55.35901
1273.958, 53.74609
1274.441, 47.60754
1274.923, 40.83142
1275.405, 33.89575
1275.887, 28.27222
1276.369, 27.84119
1276.851, 28.45129
1277.333, 24.22510
1277.815, 16.80359
1278.297, 17.24133
1278.780, 25.72729
1279.262, 40.46838
1279.744, 63.19348
1280.226, 77.93787
1280.708, 62.81799
1281.190, 43.17163
1281.672, 40.07593
1282.154, 47.20703
1282.637, 37.82275
1283.119, 14.70276
1283.601, 3.365112
1284.083, 10.95264
1284.565, 16.78625
1285.047, 0.1317140
1285.529, 11.74951
1286.011, 3.893433
1286.494, 16.40979
1286.976, 31.70508
1287.458, 41.51709
1287.940, 42.36316
1288.422, 32.52246
1288.904, 22.30945
1289.386, 6.843506
1289.868, 6.087402
1290.350, 35.09180
1290.833, 70.64221
1291.315, 56.92712
1291.797, 17.77051
1292.279, 3.380127
1292.761, 27.01355
1293.243, 35.75354
1293.725, 16.35266
1294.207, 1.340454
1294.689, 3.654541
1295.172, 1.749756
1295.654, 4.976074
1296.136, 7.365601
1296.618, 14.26843
1297.100, 27.26562
1297.582, 30.92163
1298.064, 21.66321
1298.546, 22.70581
1299.029, 43.43408
1299.511, 58.52441
1299.993, 41.32214
1300.475, 15.06519
1300.957, 8.514893
1301.439, 18.49683
1301.921, 18.72339
1302.403, 8.868530
1302.885, 1.225220
1303.368, 0.0000000E+00
##END=



