##NAMES=Hedyphane
##RRUFFID=R070425
##IDEAL CHEMISTRY=Ca_2_Pb^2+^_3_(As^5+^O_4_)_3_Cl
##LOCALITY=Langban, Filipstad, Varmland, Sweden
##OWNER=RRUFF
##SOURCE=Michael Scott
##DESCRIPTION=Aggregates of prismatic colorless crystals
##STATUS=The identification of this mineral has been confirmed only by single crystal X-ray diffraction.
##URL=rruff.info/R070425
##MEASURED CHEMISTRY=Pb_3_(Ca_1.55_Ba_0.20_Pb_0.10_)_1.85_[(AsO_4_)_2.55_(PO_4_)_0.15_(SiO_4_)_0.17_]_2.87_[(OH)_0.55_Cl_0.37_]_0.92_. The darker phase is lizardite.
156.7058, 0.0000000E+00
157.1879, 17.25879
157.6700, 27.82715
158.1522, 15.87451
158.6343, 1.578125
159.1164, 2.403320
159.5985, 1.949707
160.0806, 1.198242
160.5627, 7.739258
161.0449, 18.43945
161.5270, 33.05859
162.0091, 51.65332
162.4912, 75.51074
162.9733, 103.0181
163.4554, 132.9434
163.9376, 166.9600
164.4197, 202.1875
164.9018, 233.2134
165.3839, 259.7080
165.8660, 281.9663
166.3481, 297.0210
166.8303, 308.3843
167.3124, 322.4185
167.7945, 347.6807
168.2766, 375.4771
168.7587, 385.3306
169.2408, 371.1206
169.7230, 352.5493
170.2051, 340.3838
170.6872, 331.1646
171.1693, 318.8149
171.6514, 296.3687
172.1335, 270.7554
172.6157, 262.2778
173.0978, 277.6221
173.5799, 292.0073
174.0620, 297.7983
174.5441, 295.1035
175.0262, 282.3667
175.5084, 256.2725
175.9905, 221.3208
176.4726, 188.4570
176.9547, 154.0659
177.4368, 129.4595
177.9189, 122.7222
178.4010, 125.8218
178.8832, 127.6377
179.3653, 121.8643
179.8474, 112.3706
180.3295, 112.1885
180.8116, 129.8716
181.2937, 141.4697
181.7759, 138.1245
182.2580, 125.9492
182.7401, 111.6855
183.2222, 97.28857
183.7043, 84.00537
184.1864, 75.23633
184.6686, 73.23779
185.1507, 71.98779
185.6328, 74.92236
186.1149, 75.76562
186.5970, 64.97510
187.0791, 36.01074
187.5613, 1.108887
188.0434, 19.10254
188.5255, 7.936523
189.0076, 6.553223
189.4897, 19.44824
189.9718, 31.60742
190.4540, 46.02539
190.9361, 64.42969
191.4182, 81.64844
191.9003, 83.74414
192.3824, 60.10205
192.8645, 39.78076
193.3467, 27.05908
193.8288, 19.74316
194.3109, 15.57959
194.7930, 13.65479
195.2751, 15.02490
195.7572, 21.98975
196.2394, 36.50098
196.7215, 53.72510
197.2036, 83.61133
197.6857, 110.0942
198.1678, 115.2568
198.6499, 93.71387
199.1321, 60.40234
199.6142, 43.50488
200.0963, 51.79004
200.5784, 59.95361
201.0605, 63.80273
201.5426, 67.81934
202.0248, 76.95947
202.5069, 92.17480
202.9890, 107.7227
203.4711, 113.7842
203.9532, 105.2847
204.4353, 98.31055
204.9175, 96.64209
205.3996, 94.52246
205.8817, 88.51172
206.3638, 77.74561
206.8459, 63.03174
207.3280, 42.73242
207.8102, 7.882324
208.2923, 8.428711
208.7744, 7.535156
209.2565, 29.11230
209.7386, 39.96240
210.2207, 38.84619
210.7029, 36.60596
211.1850, 48.80762
211.6671, 84.62061
212.1492, 99.91602
212.6313, 73.64844
213.1134, 46.20312
213.5956, 37.13916
214.0777, 46.34033
214.5598, 59.70264
215.0419, 68.74121
215.5240, 72.56250
216.0061, 77.58740
216.4883, 76.67432
216.9704, 83.85254
217.4525, 115.9702
217.9346, 163.1021
218.4167, 197.3657
218.8988, 190.0425
219.3810, 139.0356
219.8631, 122.9136
220.3452, 181.1562
220.8273, 237.7720
221.3094, 274.0449
221.7915, 292.8740
222.2737, 303.7822
222.7558, 312.6313
223.2379, 319.5986
223.7200, 324.4146
224.2021, 317.1738
224.6842, 319.2461
225.1664, 345.0986
225.6485, 381.1133
226.1306, 406.6670
226.6127, 409.0024
227.0948, 393.6670
227.5770, 383.8657
228.0591, 383.4980
228.5412, 383.9385
229.0233, 379.4243
229.5054, 376.3301
229.9875, 385.0571
230.4697, 411.6577
230.9518, 445.8896
231.4339, 461.7676
231.9160, 445.2241
232.3981, 432.6509
232.8802, 429.1479
233.3624, 430.6997
233.8445, 436.5928
234.3266, 445.5112
234.8087, 451.9126
235.2908, 445.4810
235.7729, 417.2295
236.2551, 400.0571
236.7372, 398.1138
237.2193, 406.3149
237.7014, 425.9185
238.1835, 454.6567
238.6656, 483.0933
239.1478, 499.9497
239.6299, 502.4302
240.1120, 505.6558
240.5941, 513.2539
241.0762, 518.4868
241.5583, 514.5693
242.0405, 504.5615
242.5226, 498.8389
243.0047, 510.7280
243.4868, 542.6548
243.9689, 563.4932
244.4510, 570.4961
244.9332, 567.8252
245.4153, 546.3813
245.8974, 515.0547
246.3795, 495.6890
246.8616, 506.3896
247.3437, 543.7520
247.8259, 577.5786
248.3080, 616.9717
248.7901, 638.9355
249.2722, 626.0947
249.7543, 594.1802
250.2364, 568.5537
250.7186, 563.7676
251.2007, 572.9243
251.6828, 574.7407
252.1649, 561.5747
252.6470, 557.1392
253.1291, 576.6021
253.6113, 604.5425
254.0934, 624.1655
254.5755, 628.7417
255.0576, 625.4956
255.5397, 624.6592
256.0219, 625.6426
256.5040, 631.3223
256.9861, 651.1211
257.4682, 670.9854
257.9503, 678.5049
258.4324, 670.6729
258.9146, 660.6123
259.3967, 667.1953
259.8788, 691.8516
260.3609, 698.7949
260.8430, 664.0234
261.3251, 624.4072
261.8073, 607.7695
262.2894, 614.1543
262.7715, 624.0186
263.2536, 627.1143
263.7357, 623.0527
264.2178, 607.5801
264.7000, 572.2627
265.1821, 537.7783
265.6642, 520.8613
266.1463, 517.2129
266.6284, 513.5664
267.1105, 503.1240
267.5927, 488.3877
268.0748, 474.2432
268.5569, 460.6396
269.0390, 448.1953
269.5211, 438.3779
270.0032, 429.9688
270.4854, 421.0576
270.9675, 412.8408
271.4496, 402.5322
271.9317, 383.9951
272.4138, 356.8340
272.8959, 336.1543
273.3781, 338.5693
273.8602, 347.5254
274.3423, 329.8037
274.8244, 267.5518
275.3065, 208.2412
275.7886, 190.1992
276.2708, 203.8945
276.7529, 208.8574
277.2350, 187.4385
277.7171, 155.6113
278.1992, 141.3564
278.6813, 147.8975
279.1635, 152.5000
279.6456, 145.8906
280.1277, 132.2822
280.6098, 117.3809
281.0919, 101.7461
281.5740, 89.16016
282.0562, 86.72168
282.5383, 95.77832
283.0204, 97.35156
283.5025, 83.55664
283.9846, 65.01758
284.4667, 49.83984
284.9489, 39.05176
285.4310, 33.08594
285.9131, 34.66699
286.3952, 43.13574
286.8773, 39.03125
287.3594, 11.86523
287.8416, 16.45801
288.3237, 37.07422
288.8058, 50.43848
289.2879, 58.19141
289.7700, 60.51562
290.2521, 59.14941
290.7343, 61.52344
291.2164, 78.23047
291.6985, 85.45410
292.1806, 70.34961
292.6627, 47.09180
293.1448, 32.98242
293.6270, 34.10254
294.1091, 45.54980
294.5912, 59.71191
295.0733, 85.23633
295.5554, 95.87793
296.0375, 82.08496
296.5197, 61.51367
297.0018, 47.78613
297.4839, 41.48242
297.9660, 33.37891
298.4481, 13.11426
298.9302, 21.58203
299.4124, 53.26660
299.8945, 75.34180
300.3766, 101.0283
300.8587, 141.6846
301.3408, 189.6475
301.8229, 226.4336
302.3050, 237.0391
302.7871, 229.8369
303.2693, 249.3516
303.7514, 318.9814
304.2335, 381.7080
304.7156, 414.2451
305.1977, 439.4971
305.6798, 484.0713
306.1620, 558.2139
306.6441, 646.3330
307.1262, 723.4092
307.6083, 786.4521
308.0904, 848.3994
308.5725, 909.4951
309.0547, 971.4043
309.5368, 1035.006
310.0189, 1100.472
310.5010, 1165.745
310.9831, 1226.240
311.4652, 1283.216
311.9474, 1349.782
312.4295, 1428.230
312.9116, 1514.832
313.3937, 1610.924
313.8758, 1712.958
314.3579, 1810.386
314.8401, 1895.575
315.3222, 1974.647
315.8043, 2062.163
316.2864, 2161.451
316.7685, 2248.903
317.2506, 2305.178
317.7328, 2342.297
318.2149, 2379.859
318.6970, 2420.404
319.1791, 2460.715
319.6612, 2500.609
320.1433, 2538.686
320.6255, 2568.577
321.1076, 2586.062
321.5897, 2597.243
322.0718, 2616.878
322.5539, 2650.626
323.0360, 2661.609
323.5182, 2619.047
324.0003, 2556.560
324.4824, 2519.517
324.9645, 2515.319
325.4466, 2520.695
325.9287, 2515.887
326.4109, 2499.853
326.8930, 2472.755
327.3751, 2420.340
327.8572, 2370.230
328.3393, 2340.267
328.8214, 2326.047
329.3036, 2312.463
329.7857, 2290.474
330.2678, 2262.409
330.7499, 2239.520
331.2320, 2235.115
331.7141, 2219.155
332.1963, 2176.221
332.6784, 2125.761
333.1605, 2085.904
333.6426, 2063.013
334.1247, 2056.457
334.6068, 2069.334
335.0890, 2118.266
335.5711, 2140.442
336.0532, 2107.684
336.5353, 2076.319
337.0174, 2080.578
337.4995, 2113.842
337.9817, 2145.759
338.4638, 2150.021
338.9459, 2131.036
339.4280, 2129.314
339.9101, 2157.168
340.3922, 2184.795
340.8744, 2203.976
341.3565, 2217.799
341.8386, 2227.847
342.3207, 2233.106
342.8028, 2242.650
343.2849, 2275.117
343.7671, 2335.257
344.2492, 2384.860
344.7313, 2414.586
345.2134, 2429.548
345.6955, 2430.520
346.1776, 2418.265
346.6598, 2403.139
347.1419, 2383.674
347.6240, 2366.709
348.1061, 2375.886
348.5882, 2421.372
349.0703, 2467.271
349.5525, 2486.796
350.0346, 2485.978
350.5167, 2477.395
350.9988, 2454.551
351.4809, 2429.933
351.9630, 2413.657
352.4452, 2404.604
352.9273, 2398.160
353.4094, 2395.360
353.8915, 2392.438
354.3736, 2375.583
354.8557, 2336.881
355.3379, 2303.835
355.8200, 2294.915
356.3021, 2289.973
356.7842, 2260.312
357.2663, 2200.113
357.7484, 2132.950
358.2306, 2085.577
358.7127, 2061.859
359.1948, 2037.108
359.6769, 2016.103
360.1590, 1990.593
360.6411, 1952.141
361.1233, 1905.681
361.6054, 1864.290
362.0875, 1837.396
362.5696, 1817.791
363.0517, 1775.227
363.5338, 1678.386
364.0160, 1609.948
364.4981, 1593.272
364.9802, 1596.931
365.4623, 1599.761
365.9444, 1595.350
366.4265, 1581.482
366.9087, 1547.087
367.3908, 1488.919
367.8729, 1461.910
368.3550, 1497.990
368.8371, 1530.026
369.3192, 1516.543
369.8014, 1473.030
370.2835, 1437.717
370.7656, 1430.918
371.2477, 1440.405
371.7298, 1448.409
372.2119, 1455.383
372.6941, 1456.032
373.1762, 1440.393
373.6583, 1422.086
374.1404, 1425.365
374.6225, 1460.077
375.1046, 1483.488
375.5868, 1462.482
376.0689, 1416.311
376.5510, 1384.292
377.0331, 1375.345
377.5152, 1373.369
377.9973, 1363.772
378.4795, 1345.756
378.9616, 1320.740
379.4437, 1281.704
379.9258, 1242.079
380.4079, 1209.146
380.8900, 1182.425
381.3722, 1160.702
381.8543, 1143.899
382.3364, 1129.570
382.8185, 1109.731
383.3006, 1080.693
383.7827, 1050.689
384.2649, 1017.437
384.7470, 985.0000
385.2291, 955.3916
385.7112, 929.6289
386.1933, 909.0059
386.6754, 895.5322
387.1576, 889.6309
387.6397, 884.7305
388.1218, 887.6035
388.6039, 882.9453
389.0860, 855.9727
389.5681, 820.8262
390.0503, 801.4678
390.5324, 810.5586
391.0145, 831.5859
391.4966, 840.0654
391.9787, 835.5732
392.4608, 822.1504
392.9430, 796.6748
393.4251, 765.8906
393.9072, 735.0137
394.3893, 704.1172
394.8714, 677.3125
395.3535, 661.3652
395.8357, 649.2031
396.3178, 626.0088
396.7999, 589.8076
397.2820, 557.4600
397.7641, 544.2139
398.2462, 544.9346
398.7284, 531.3984
399.2105, 490.3789
399.6926, 450.5439
400.1747, 424.6729
400.6568, 406.9453
401.1389, 388.4697
401.6211, 366.1602
402.1032, 339.6299
402.5853, 306.1006
403.0674, 257.2412
403.5495, 228.8389
404.0316, 246.0322
404.5138, 257.1406
404.9959, 230.0215
405.4780, 174.1113
405.9601, 116.1270
406.4422, 71.66602
406.9243, 40.49805
407.4065, 24.81055
407.8886, 34.92090
408.3707, 39.39160
408.8528, 30.34180
409.3349, 14.94580
409.8170, 5.697266
410.2992, 30.06836
410.7813, 46.73486
411.2634, 42.51465
411.7455, 21.09814
412.2276, 1.215820
412.7097, 27.60645
413.1919, 44.77295
413.6740, 30.57129
414.1561, 1.056152
414.6382, 9.096680
415.1203, 24.66602
415.6024, 57.39307
416.0846, 50.84424
416.5667, 15.48438
417.0488, 18.36768
417.5309, 41.54346
418.0130, 52.27783
418.4951, 46.70410
418.9773, 19.24219
419.4594, 4.203613
419.9415, 17.84814
420.4236, 30.67285
420.9057, 52.78027
421.3878, 80.09717
421.8700, 97.47949
422.3521, 93.39404
422.8342, 75.13818
423.3163, 74.10352
423.7984, 99.28271
424.2805, 127.0264
424.7627, 155.0664
425.2448, 182.2368
425.7269, 206.8452
426.2090, 230.1709
426.6911, 257.4048
427.1732, 301.6436
427.6554, 359.1768
428.1375, 385.7300
428.6196, 368.1377
429.1017, 347.0518
429.5838, 341.2432
430.0659, 346.7515
430.5481, 355.9141
431.0302, 364.3350
431.5123, 378.0400
431.9944, 412.1953
432.4765, 458.3848
432.9586, 481.5234
433.4408, 468.2378
433.9229, 445.4229
434.4050, 446.9092
434.8871, 476.5029
435.3692, 491.8882
435.8513, 479.4741
436.3335, 462.6655
436.8156, 452.0903
437.2977, 448.6006
437.7798, 451.7852
438.2619, 461.7754
438.7440, 478.0615
439.2262, 499.4634
439.7083, 530.0293
440.1904, 557.1069
440.6725, 581.8413
441.1546, 603.0312
441.6367, 621.8232
442.1189, 636.8579
442.6010, 642.1987
443.0831, 627.2676
443.5652, 602.0933
444.0473, 609.0859
444.5294, 661.4648
445.0116, 709.0337
445.4937, 731.5229
445.9758, 740.1406
446.4579, 743.1582
446.9400, 740.8667
447.4221, 738.8379
447.9043, 737.9111
448.3864, 740.1646
448.8685, 752.9634
449.3506, 778.1895
449.8327, 801.3770
450.3148, 811.1045
450.7970, 808.1318
451.2791, 804.1821
451.7612, 792.2334
452.2433, 787.4683
452.7254, 805.5767
453.2076, 830.0571
453.6897, 834.6060
454.1718, 812.7578
454.6539, 783.6943
455.1360, 772.4092
455.6181, 782.1343
456.1003, 791.4487
456.5824, 810.9360
457.0645, 818.6797
457.5466, 798.9746
458.0287, 765.0977
458.5108, 739.3521
458.9930, 732.2852
459.4751, 730.6875
459.9572, 713.4556
460.4393, 680.3940
460.9214, 653.7002
461.4035, 643.5820
461.8857, 632.6851
462.3678, 599.9409
462.8499, 550.4702
463.3320, 511.5806
463.8141, 496.4922
464.2962, 490.2358
464.7784, 484.7324
465.2605, 477.6904
465.7426, 461.5835
466.2247, 433.0181
466.7068, 394.0283
467.1889, 347.7993
467.6711, 281.8032
468.1532, 235.6030
468.6353, 229.2178
469.1174, 225.2803
469.5995, 196.0532
470.0816, 148.3320
470.5638, 107.6963
471.0459, 90.69824
471.5280, 90.30469
472.0101, 84.73096
472.4922, 69.79492
472.9743, 61.31885
473.4565, 76.27783
473.9386, 88.69141
474.4207, 78.22217
474.9028, 45.68311
475.3849, 11.51611
475.8670, 13.97705
476.3492, 32.12793
476.8313, 44.73340
477.3134, 52.17871
477.7955, 57.33887
478.2776, 61.12012
478.7597, 63.70068
479.2419, 64.90430
479.7240, 61.82959
480.2061, 64.30322
480.6882, 84.87207
481.1703, 104.6382
481.6524, 102.2827
482.1346, 79.76807
482.6167, 56.76367
483.0988, 47.89014
483.5809, 50.90283
484.0630, 54.08789
484.5451, 62.83301
485.0273, 62.33496
485.5094, 35.23438
485.9915, 9.877930
486.4736, 18.54639
486.9557, 59.37939
487.4378, 90.08154
487.9200, 67.95654
488.4021, 10.76758
488.8842, 28.77197
489.3663, 49.31104
489.8484, 56.71924
490.3305, 46.58447
490.8127, 28.50879
491.2948, 23.43701
491.7769, 36.57861
492.2590, 47.34424
492.7411, 46.17432
493.2232, 40.51416
493.7054, 36.16357
494.1875, 35.04102
494.6696, 42.94775
495.1517, 67.06689
495.6338, 102.1606
496.1159, 113.4619
496.5981, 67.56738
497.0802, 44.97754
497.5623, 75.57764
498.0444, 116.2681
498.5265, 125.5508
499.0086, 102.8716
499.4908, 84.98438
499.9729, 109.8442
500.4550, 163.4600
500.9371, 190.3765
501.4192, 184.8623
501.9013, 176.4849
502.3835, 175.0552
502.8656, 180.0864
503.3477, 192.3428
503.8298, 215.2632
504.3119, 230.7378
504.7940, 219.2417
505.2762, 204.0186
505.7583, 217.6694
506.2404, 258.6338
506.7225, 296.8896
507.2046, 312.1187
507.6867, 309.2373
508.1689, 309.7588
508.6510, 319.3862
509.1331, 323.8989
509.6152, 317.4658
510.0973, 309.8120
510.5794, 307.3618
511.0616, 310.6875
511.5437, 317.4751
512.0258, 326.1123
512.5079, 336.9795
512.9901, 353.1226
513.4722, 376.2476
513.9543, 393.2568
514.4364, 394.3525
514.9185, 391.6274
515.4006, 403.1328
515.8828, 430.4658
516.3649, 451.1108
516.8470, 455.5967
517.3291, 452.4561
517.8112, 443.7466
518.2933, 433.4868
518.7755, 434.9619
519.2576, 456.1665
519.7397, 489.1899
520.2218, 516.4810
520.7039, 545.8672
521.1860, 553.4893
521.6682, 518.9253
522.1503, 484.4062
522.6324, 469.4854
523.1145, 473.4888
523.5966, 490.6807
524.0787, 520.7500
524.5609, 556.3740
525.0430, 587.5913
525.5251, 614.3857
526.0072, 633.3687
526.4893, 642.8462
526.9714, 645.6865
527.4536, 641.6074
527.9357, 631.7046
528.4178, 626.5117
528.8999, 623.9346
529.3820, 630.0957
529.8641, 656.7266
530.3463, 692.8115
530.8284, 717.9712
531.3105, 725.7373
531.7926, 722.1079
532.2747, 713.8286
532.7568, 699.0205
533.2390, 686.3638
533.7211, 665.6172
534.2032, 659.9326
534.6853, 690.3379
535.1674, 734.7734
535.6495, 763.2925
536.1317, 766.8960
536.6138, 759.8813
537.0959, 749.9199
537.5780, 740.1431
538.0601, 743.3413
538.5422, 762.2212
539.0244, 774.4863
539.5065, 762.3853
539.9886, 733.3306
540.4707, 718.4536
540.9528, 726.4717
541.4349, 732.1904
541.9171, 727.5298
542.3992, 720.0503
542.8813, 721.0576
543.3634, 730.8096
543.8455, 735.8218
544.3276, 721.5938
544.8098, 691.5581
545.2919, 670.0679
545.7740, 662.0645
546.2561, 663.7031
546.7382, 673.2524
547.2203, 688.3584
547.7025, 713.6416
548.1846, 746.5869
548.6666, 766.5962
549.1487, 759.6104
549.6309, 739.9893
550.1130, 714.7310
550.5951, 687.8130
551.0772, 679.4932
551.5593, 700.3848
552.0414, 730.2139
552.5236, 734.9980
553.0057, 703.6235
553.4878, 686.0815
553.9699, 687.9614
554.4520, 694.0415
554.9341, 704.9189
555.4163, 715.3550
555.8984, 713.8174
556.3805, 695.2925
556.8626, 675.0249
557.3447, 674.5205
557.8268, 691.3213
558.3090, 700.3555
558.7911, 696.4380
559.2732, 692.9038
559.7553, 700.9160
560.2374, 715.7896
560.7195, 721.8638
561.2017, 711.2061
561.6838, 705.5010
562.1659, 721.9043
562.6480, 740.2925
563.1301, 732.5786
563.6122, 701.6064
564.0944, 677.7896
564.5765, 684.4702
565.0586, 713.1812
565.5407, 731.7681
566.0228, 741.3193
566.5049, 737.9238
566.9871, 700.5747
567.4692, 666.3940
567.9513, 666.5127
568.4334, 693.4795
568.9155, 708.8706
569.3976, 682.3286
569.8798, 649.9287
570.3619, 652.1104
570.8440, 679.7173
571.3261, 702.2427
571.8082, 710.3364
572.2903, 711.1182
572.7725, 712.2437
573.2546, 713.3525
573.7367, 718.2065
574.2188, 735.9702
574.7009, 746.3584
575.1830, 741.0503
575.6652, 727.4414
576.1473, 711.2866
576.6294, 694.8120
577.1115, 682.9937
577.5936, 684.0083
578.0757, 693.2231
578.5579, 692.7104
579.0400, 680.5371
579.5221, 674.5454
580.0042, 686.8164
580.4863, 706.5557
580.9684, 712.5537
581.4506, 703.2642
581.9327, 690.6543
582.4148, 671.2725
582.8969, 653.7256
583.3790, 643.2407
583.8611, 639.2944
584.3433, 641.3916
584.8254, 649.4658
585.3075, 657.1958
585.7896, 652.4380
586.2717, 633.6328
586.7538, 620.6440
587.2360, 613.8149
587.7181, 613.7295
588.2002, 630.6157
588.6823, 651.8057
589.1644, 654.4888
589.6465, 629.2710
590.1287, 602.4248
590.6108, 586.0122
591.0929, 575.3467
591.5750, 565.3081
592.0571, 555.1719
592.5392, 544.3911
593.0214, 531.7520
593.5035, 520.9463
593.9856, 525.2178
594.4677, 555.6733
594.9498, 574.7734
595.4319, 572.5620
595.9141, 564.5747
596.3962, 554.9800
596.8783, 545.3481
597.3604, 539.2266
597.8425, 539.4341
598.3246, 540.6577
598.8068, 541.1479
599.2889, 538.6475
599.7710, 523.2300
600.2531, 492.9551
600.7352, 467.1689
601.2173, 462.8726
601.6995, 477.3848
602.1816, 489.5698
602.6637, 501.8418
603.1458, 507.4854
603.6279, 503.9004
604.1100, 496.0039
604.5922, 483.5820
605.0743, 469.6553
605.5564, 463.2559
606.0385, 473.4507
606.5206, 487.2407
607.0027, 482.9868
607.4849, 463.0117
607.9670, 445.7451
608.4491, 436.2734
608.9312, 428.6167
609.4133, 414.1196
609.8954, 392.4185
610.3776, 385.2012
610.8597, 411.7095
611.3418, 427.1270
611.8239, 409.7202
612.3060, 383.4834
612.7881, 375.3291
613.2703, 385.9814
613.7524, 394.0220
614.2345, 379.2280
614.7166, 353.5112
615.1987, 349.2207
615.6808, 367.5176
616.1630, 382.0186
616.6451, 386.5967
617.1272, 382.0806
617.6093, 365.6143
618.0914, 336.8574
618.5735, 317.0117
619.0557, 317.7407
619.5378, 314.9570
620.0199, 289.7793
620.5020, 260.6094
620.9841, 254.9380
621.4662, 274.9956
621.9484, 295.3818
622.4305, 290.7720
622.9126, 269.2979
623.3947, 265.3994
623.8768, 282.9727
624.3589, 294.8604
624.8411, 290.9492
625.3232, 280.1562
625.8053, 274.3628
626.2874, 273.1831
626.7695, 264.5918
627.2516, 235.7759
627.7338, 211.3047
628.2159, 208.6201
628.6980, 216.4521
629.1801, 217.7593
629.6622, 208.8438
630.1443, 197.5298
630.6265, 190.3750
631.1086, 187.6553
631.5907, 192.9463
632.0728, 210.5923
632.5549, 218.9375
633.0370, 210.0015
633.5192, 189.9805
634.0013, 159.8213
634.4834, 120.6792
634.9655, 97.61328
635.4476, 108.7935
635.9297, 123.9600
636.4119, 129.3730
636.8940, 126.2739
637.3761, 113.7368
637.8582, 93.49805
638.3403, 76.94629
638.8224, 76.45410
639.3046, 89.36621
639.7867, 100.4731
640.2688, 109.9976
640.7509, 117.7090
641.2330, 126.8809
641.7151, 130.3047
642.1973, 117.4551
642.6794, 90.21826
643.1615, 69.10254
643.6436, 57.94434
644.1257, 55.39600
644.6078, 69.96240
645.0900, 88.50049
645.5721, 87.66943
646.0542, 65.10352
646.5363, 41.60254
647.0184, 37.22607
647.5005, 47.14600
647.9827, 49.30811
648.4648, 41.86865
648.9469, 33.39844
649.4290, 24.39209
649.9111, 18.03809
650.3932, 19.46143
650.8754, 26.59131
651.3575, 27.26318
651.8396, 15.85156
652.3217, 2.952637
652.8038, 10.87842
653.2859, 21.09668
653.7681, 18.47021
654.2502, 3.652344
654.7323, 10.63721
655.2144, 13.54639
655.6965, 7.538574
656.1786, 2.611816
656.6608, 9.8145001E-02
657.1429, 4.242188
657.6250, 13.57031
658.1071, 23.75342
658.5892, 30.81445
659.0714, 34.07129
659.5535, 32.41309
660.0356, 19.73047
660.5177, 12.14868
660.9998, 17.37109
661.4819, 27.90649
661.9641, 40.91260
662.4462, 52.09473
662.9283, 49.71631
663.4104, 23.94751
663.8925, 10.69604
664.3746, 24.48730
664.8568, 18.32642
665.3389, 9.273926
665.8210, 4.930176
666.3031, 17.16382
666.7852, 19.95264
667.2673, 14.71851
667.7495, 10.54541
668.2316, 9.829590
668.7137, 4.047119
669.1958, 15.10278
669.6779, 33.66821
670.1600, 36.12305
670.6422, 27.46313
671.1243, 25.36426
671.6064, 39.47607
672.0885, 61.25562
672.5706, 79.77368
673.0527, 94.75146
673.5349, 106.7461
674.0170, 116.6853
674.4991, 121.6331
674.9812, 117.0161
675.4633, 105.4390
675.9454, 97.11450
676.4276, 94.84448
676.9097, 96.02466
677.3918, 100.7932
677.8739, 106.2703
678.3560, 111.8608
678.8381, 115.1313
679.3203, 114.0005
679.8024, 109.4128
680.2845, 109.9043
680.7666, 123.7236
681.2487, 143.4241
681.7308, 158.8755
682.2130, 170.6096
682.6951, 177.2896
683.1772, 177.4541
683.6593, 175.1267
684.1414, 178.1265
684.6235, 190.6614
685.1057, 187.0195
685.5878, 143.2378
686.0699, 110.8230
686.5520, 112.1904
687.0341, 125.7161
687.5162, 127.9197
687.9984, 115.6973
688.4805, 102.9905
688.9626, 96.19287
689.4447, 93.98413
689.9268, 95.50952
690.4089, 100.3687
690.8911, 110.1238
691.3732, 124.8542
691.8553, 133.7891
692.3374, 124.4685
692.8195, 99.70947
693.3016, 85.03784
693.7838, 85.20923
694.2659, 84.97949
694.7480, 82.78101
695.2301, 78.15308
695.7122, 67.96411
696.1943, 54.62964
696.6765, 47.31226
697.1586, 52.52246
697.6407, 57.80615
698.1228, 52.88916
698.6049, 46.40308
699.0870, 53.38989
699.5692, 71.19971
700.0513, 81.62769
700.5334, 73.06836
701.0155, 52.68848
701.4976, 31.95068
701.9797, 10.16870
702.4619, 3.223633
702.9440, 18.66821
703.4261, 33.09619
703.9082, 30.87207
704.3903, 18.92554
704.8724, 13.92383
705.3546, 17.53564
705.8367, 22.65186
706.3188, 32.84155
706.8009, 39.77588
707.2830, 33.45850
707.7651, 22.13013
708.2473, 22.21191
708.7294, 37.94702
709.2115, 52.48047
709.6936, 45.92896
710.1757, 26.99146
710.6578, 18.62012
711.1400, 20.39893
711.6221, 19.97705
712.1042, 12.16992
712.5863, 4.740234
713.0684, 9.074951
713.5505, 26.24219
714.0327, 32.21362
714.5148, 13.58594
714.9969, 1.935059
715.4790, 10.15918
715.9611, 20.52051
716.4432, 15.26855
716.9254, 2.149658
717.4075, 11.21094
717.8896, 2.220947
718.3717, 18.79858
718.8538, 24.80591
719.3359, 22.38330
719.8181, 11.49146
720.3002, 5.488525
720.7823, 15.44629
721.2644, 7.552734
721.7465, 7.477295
722.2286, 0.1445310
722.7108, 36.45435
723.1929, 52.92163
723.6750, 37.71118
724.1571, 19.11572
724.6392, 8.743896
725.1213, 6.409180
725.6035, 12.92554
726.0856, 31.85376
726.5677, 47.56323
727.0498, 58.99341
727.5319, 64.73950
728.0140, 59.56982
728.4962, 49.91602
728.9783, 46.09937
729.4604, 50.46362
729.9425, 56.42847
730.4246, 57.26636
730.9067, 55.86279
731.3889, 61.80444
731.8710, 73.51953
732.3531, 72.80225
732.8352, 52.14966
733.3173, 32.88916
733.7994, 38.83765
734.2816, 67.31689
734.7637, 83.39111
735.2458, 84.75195
735.7279, 77.24194
736.2100, 44.86011
736.6921, 19.47095
737.1743, 32.04883
737.6564, 67.08618
738.1385, 79.58643
738.6206, 48.62305
739.1027, 15.36938
739.5848, 1.612305
740.0670, 1.146240
740.5491, 1.052979
741.0312, 0.9411620
741.5133, 7.154541
741.9954, 18.69800
742.4775, 28.68164
742.9597, 23.69751
743.4418, 5.728516
743.9239, 4.047363
744.4060, 23.83203
744.8881, 30.83081
745.3702, 7.247559
745.8524, 28.24292
746.3345, 49.18237
746.8166, 52.98682
747.2987, 68.28101
747.7808, 103.1721
748.2629, 138.6379
748.7451, 173.7676
749.2272, 205.2307
749.7093, 225.2935
750.1914, 238.0098
750.6735, 259.6426
751.1556, 299.1248
751.6378, 347.9700
752.1199, 403.3079
752.6020, 460.5698
753.0841, 510.1021
753.5662, 551.3181
754.0483, 588.2141
754.5305, 622.3984
755.0126, 659.3633
755.4947, 709.1145
755.9768, 771.8896
756.4589, 843.0117
756.9410, 926.1562
757.4232, 1011.022
757.9053, 1096.896
758.3874, 1179.116
758.8695, 1246.213
759.3516, 1294.165
759.8337, 1362.454
760.3159, 1472.499
760.7980, 1584.650
761.2801, 1686.678
761.7622, 1779.874
762.2443, 1865.691
762.7264, 1945.583
763.2086, 2022.636
763.6907, 2096.199
764.1728, 2171.674
764.6549, 2262.073
765.1370, 2357.378
765.6191, 2431.673
766.1013, 2483.315
766.5834, 2533.286
767.0655, 2594.581
767.5476, 2657.206
768.0297, 2697.981
768.5118, 2712.190
768.9940, 2736.260
769.4761, 2776.238
769.9582, 2813.139
770.4403, 2838.689
770.9224, 2857.546
771.4045, 2878.123
771.8867, 2900.827
772.3688, 2910.252
772.8509, 2893.188
773.3330, 2877.957
773.8151, 2882.011
774.2972, 2887.843
774.7794, 2876.285
775.2615, 2847.512
775.7436, 2813.973
776.2257, 2780.084
776.7078, 2746.969
777.1899, 2716.321
777.6721, 2687.160
778.1542, 2655.440
778.6363, 2622.477
779.1184, 2599.583
779.6005, 2593.792
780.0826, 2594.578
780.5648, 2581.395
781.0469, 2553.220
781.5290, 2538.723
782.0111, 2543.674
782.4932, 2547.206
782.9753, 2539.998
783.4575, 2527.631
783.9396, 2515.666
784.4217, 2504.183
784.9038, 2497.515
785.3859, 2500.428
785.8680, 2503.747
786.3502, 2509.255
786.8323, 2510.746
787.3144, 2499.968
787.7965, 2479.971
788.2786, 2463.196
788.7607, 2457.210
789.2429, 2447.568
789.7250, 2415.629
790.2071, 2376.031
790.6892, 2354.169
791.1713, 2347.773
791.6534, 2337.347
792.1356, 2313.652
792.6177, 2284.744
793.0998, 2260.025
793.5819, 2240.237
794.0640, 2230.149
794.5461, 2230.571
795.0283, 2227.556
795.5104, 2214.372
795.9925, 2200.315
796.4746, 2193.428
796.9567, 2194.076
797.4388, 2209.880
797.9210, 2255.864
798.4031, 2294.839
798.8852, 2312.679
799.3673, 2335.438
799.8494, 2376.455
800.3315, 2433.414
800.8137, 2501.673
801.2958, 2580.341
801.7779, 2667.665
802.2600, 2759.964
802.7421, 2862.854
803.2242, 2981.384
803.7064, 3114.539
804.1885, 3259.318
804.6706, 3415.870
805.1527, 3593.336
805.6348, 3805.026
806.1169, 4035.068
806.5991, 4237.777
807.0812, 4422.254
807.5633, 4655.480
808.0454, 4950.928
808.5275, 5271.192
809.0096, 5595.445
809.4918, 5922.686
809.9739, 6240.059
810.4560, 6534.041
810.9381, 6872.792
811.4202, 7272.007
811.9023, 7693.114
812.3845, 8141.417
812.8666, 8589.893
813.3487, 9000.188
813.8308, 9371.542
814.3129, 9748.520
814.7950, 10144.60
815.2772, 10536.45
815.7593, 10926.55
816.2414, 11300.21
816.7235, 11653.88
817.2056, 11980.04
817.6877, 12264.32
818.1699, 12499.58
818.6520, 12698.42
819.1341, 12881.87
819.6162, 13032.82
820.0983, 13130.40
820.5804, 13171.27
821.0626, 13143.52
821.5447, 13044.20
822.0268, 12902.32
822.5089, 12749.69
822.9910, 12580.24
823.4731, 12367.97
823.9553, 12110.89
824.4374, 11818.31
824.9195, 11491.78
825.4016, 11127.57
825.8837, 10713.26
826.3658, 10266.04
826.8480, 9849.929
827.3301, 9478.796
827.8122, 9106.975
828.2943, 8739.520
828.7764, 8365.055
829.2585, 7971.112
829.7407, 7572.710
830.2228, 7181.705
830.7049, 6798.781
831.1870, 6454.463
831.6691, 6174.815
832.1512, 5912.171
832.6334, 5649.616
833.1155, 5390.019
833.5976, 5131.146
834.0797, 4876.645
834.5618, 4637.244
835.0439, 4417.555
835.5261, 4214.104
836.0082, 4022.029
836.4903, 3843.856
836.9724, 3690.543
837.4545, 3555.245
837.9366, 3405.845
838.4188, 3233.673
838.9009, 3078.153
839.3830, 2988.635
839.8651, 2944.260
840.3472, 2862.913
840.8293, 2743.986
841.3115, 2635.663
841.7936, 2545.874
842.2757, 2465.818
842.7578, 2390.958
843.2399, 2322.301
843.7220, 2259.331
844.2042, 2203.106
844.6863, 2147.592
845.1684, 2090.076
845.6505, 2037.974
846.1326, 1994.541
846.6147, 1954.790
847.0969, 1918.266
847.5790, 1885.363
848.0611, 1843.324
848.5432, 1771.652
849.0253, 1713.013
849.5074, 1690.448
849.9896, 1674.041
850.4717, 1640.314
850.9538, 1594.524
851.4359, 1550.644
851.9180, 1511.808
852.4001, 1480.722
852.8823, 1470.264
853.3644, 1460.206
853.8465, 1419.055
854.3286, 1363.097
854.8107, 1334.121
855.2928, 1334.132
855.7750, 1319.572
856.2571, 1258.529
856.7392, 1177.438
857.2213, 1117.664
857.7034, 1076.645
858.1855, 1049.289
858.6677, 1034.317
859.1498, 1019.721
859.6319, 999.8850
860.1140, 973.8340
860.5961, 937.9387
861.0782, 893.3540
861.5604, 870.0518
862.0425, 878.9863
862.5246, 863.6597
863.0067, 800.7935
863.4888, 730.9829
863.9709, 684.5798
864.4531, 656.7417
864.9352, 630.5298
865.4173, 601.0317
865.8994, 583.3611
866.3815, 581.8640
866.8636, 586.3306
867.3458, 606.3467
867.8279, 622.1616
868.3100, 611.2612
868.7921, 573.0190
869.2742, 522.9539
869.7563, 434.0354
870.2385, 374.4915
870.7206, 398.9971
871.2027, 440.5444
871.6848, 439.6785
872.1669, 405.7195
872.6490, 371.5732
873.1312, 347.8501
873.6133, 330.8538
874.0954, 321.4941
874.5775, 314.2896
875.0596, 304.3777
875.5417, 291.2026
876.0239, 272.4951
876.5060, 249.3176
876.9881, 227.6506
877.4702, 210.7156
877.9523, 200.2876
878.4344, 204.2742
878.9166, 217.3066
879.3987, 217.4512
879.8808, 204.4602
880.3629, 193.5664
880.8450, 191.0310
881.3271, 193.0093
881.8093, 196.9783
882.2914, 200.7024
882.7735, 185.6240
883.2556, 147.0569
883.7377, 124.9587
884.2198, 130.5415
884.7020, 137.7407
885.1841, 127.7944
885.6662, 110.8831
886.1483, 110.7698
886.6304, 133.9082
887.1125, 146.6040
887.5947, 142.2988
888.0768, 136.8271
888.5589, 134.5354
889.0410, 132.1755
889.5231, 126.3259
890.0052, 118.2439
890.4874, 112.9729
890.9695, 118.2344
891.4516, 112.6145
891.9337, 83.03833
892.4158, 53.18701
892.8979, 35.82788
893.3801, 25.49609
893.8622, 14.61792
894.3443, 2.130615
894.8264, 10.09473
895.3085, 23.55884
895.7906, 33.70801
896.2728, 35.30176
896.7549, 34.38989
897.2370, 36.15649
897.7191, 41.21753
898.2012, 51.73779
898.6833, 68.63818
899.1655, 78.02930
899.6476, 58.09814
900.1297, 32.91187
900.6118, 34.81299
901.0939, 53.97461
901.5760, 69.18970
902.0582, 76.71265
902.5403, 84.62671
903.0224, 98.95972
903.5045, 109.9705
903.9866, 95.53516
904.4688, 67.13501
904.9509, 65.78125
905.4330, 88.92163
905.9151, 104.0022
906.3972, 100.4033
906.8793, 87.34058
907.3615, 71.98877
907.8436, 56.70801
908.3257, 50.62085
908.8078, 53.80542
909.2899, 52.44971
909.7720, 44.05859
910.2542, 40.09302
910.7363, 47.74390
911.2184, 57.64844
911.7005, 56.92041
912.1826, 45.51807
912.6647, 22.60669
913.1469, 23.09351
913.6290, 42.96387
914.1111, 16.68774
914.5932, 14.64258
915.0753, 26.79077
915.5574, 23.86426
916.0396, 15.54980
916.5217, 3.264404
917.0038, 20.33521
917.4859, 78.63550
917.9680, 115.0469
918.4501, 98.49512
918.9323, 71.01538
919.4144, 60.22241
919.8965, 65.88330
920.3786, 86.85596
920.8607, 136.5513
921.3428, 171.4834
921.8250, 176.0027
922.3071, 175.4514
922.7892, 183.6523
923.2713, 191.7151
923.7534, 182.6562
924.2355, 159.9351
924.7177, 154.4077
925.1998, 193.1157
925.6819, 221.0310
926.1640, 205.0300
926.6461, 179.3469
927.1282, 170.2234
927.6104, 171.8767
928.0925, 168.9592
928.5746, 159.0032
929.0567, 155.8086
929.5388, 177.8779
930.0209, 196.9885
930.5031, 186.4932
930.9852, 164.6560
931.4673, 150.6602
931.9494, 146.7859
932.4315, 155.2634
932.9136, 176.4805
933.3958, 188.9568
933.8779, 164.6772
934.3600, 129.1584
934.8421, 111.2356
935.3242, 108.5623
935.8063, 121.8755
936.2885, 146.5596
936.7706, 166.5759
937.2527, 173.5190
937.7348, 171.2837
938.2169, 162.5242
938.6990, 148.7744
939.1812, 129.1865
939.6633, 107.5237
940.1454, 100.6101
940.6275, 110.7395
941.1096, 121.1433
941.5917, 119.6548
942.0739, 114.0369
942.5560, 123.0828
943.0381, 141.1086
943.5202, 133.4785
944.0023, 101.2114
944.4844, 76.00000
944.9666, 67.57397
945.4487, 69.86084
945.9308, 78.92700
946.4129, 91.36206
946.8950, 95.62891
947.3771, 91.74756
947.8593, 97.05298
948.3414, 113.6575
948.8235, 127.8545
949.3056, 134.4033
949.7877, 136.2512
950.2698, 136.2314
950.7520, 134.5999
951.2341, 130.6318
951.7162, 121.7021
952.1983, 131.7258
952.6804, 170.0076
953.1625, 198.5452
953.6447, 198.1270
954.1268, 182.6543
954.6089, 168.6108
955.0910, 156.4341
955.5731, 153.6108
956.0552, 163.1990
956.5374, 169.2161
957.0195, 165.8511
957.5016, 171.3750
957.9837, 203.0640
958.4658, 238.6174
958.9479, 239.7854
959.4301, 203.1172
959.9122, 181.7097
960.3943, 186.6711
960.8764, 183.8870
961.3585, 162.7056
961.8406, 142.6155
962.3228, 135.9253
962.8049, 136.7395
963.2870, 135.5728
963.7691, 133.0686
964.2512, 129.7107
964.7333, 122.7124
965.2155, 120.3745
965.6976, 129.3972
966.1797, 137.3225
966.6618, 135.0718
967.1439, 126.2888
967.6260, 117.5117
968.1082, 106.1860
968.5903, 104.5005
969.0724, 124.2578
969.5545, 137.9939
970.0366, 140.8401
970.5187, 135.5122
971.0009, 117.4717
971.4830, 92.51196
971.9651, 80.42725
972.4472, 86.23584
972.9293, 89.87817
973.4114, 85.57373
973.8936, 84.79199
974.3757, 94.84448
974.8578, 108.3948
975.3399, 120.7148
975.8220, 128.9248
976.3041, 127.3015
976.7863, 109.6514
977.2684, 100.0720
977.7505, 109.0840
978.2326, 121.2209
978.7147, 131.2637
979.1968, 139.7219
979.6790, 142.1804
980.1611, 143.9128
980.6432, 164.9695
981.1253, 221.4846
981.6074, 259.5134
982.0895, 249.4712
982.5717, 233.1196
983.0538, 223.6619
983.5359, 224.8857
984.0180, 242.9678
984.5001, 274.7815
984.9822, 308.0002
985.4644, 339.5615
985.9465, 371.0928
986.4286, 413.1116
986.9107, 444.7795
987.3928, 455.9976
987.8749, 448.7803
988.3571, 421.1855
988.8392, 377.2153
989.3213, 329.2803
989.8034, 276.4160
990.2855, 234.4375
990.7676, 222.3965
991.2498, 209.8828
991.7319, 165.8931
992.2140, 117.4888
992.6961, 100.5056
993.1782, 113.0908
993.6603, 128.9204
994.1425, 143.7759
994.6246, 148.1145
995.1067, 128.6790
995.5888, 106.6238
996.0709, 93.58423
996.5530, 88.23804
997.0352, 88.04492
997.5173, 92.82471
997.9994, 105.0911
998.4815, 131.1853
998.9636, 149.1299
999.4457, 143.5569
999.9279, 131.6860
1000.410, 121.6953
1000.892, 115.2898
1001.374, 114.5583
1001.856, 118.3513
1002.338, 123.0977
1002.821, 130.3262
1003.303, 131.8567
1003.785, 116.3982
1004.267, 102.2153
1004.749, 103.3628
1005.231, 111.5237
1005.713, 117.2251
1006.195, 119.6304
1006.677, 121.1646
1007.160, 122.3420
1007.642, 123.0305
1008.124, 129.0220
1008.606, 127.9089
1009.088, 102.1892
1009.570, 70.89404
1010.052, 56.89868
1010.534, 60.15552
1011.017, 70.87988
1011.499, 91.50171
1011.981, 98.33984
1012.463, 61.61597
1012.945, 30.79297
1013.427, 47.20264
1013.909, 77.91675
1014.391, 85.90747
1014.873, 72.32788
1015.356, 55.07153
1015.838, 36.21216
1016.320, 26.49756
1016.802, 36.24194
1017.284, 48.82080
1017.766, 54.82544
1018.248, 59.61816
1018.730, 72.65356
1019.213, 89.32983
1019.695, 95.46606
1020.177, 85.90088
1020.659, 70.05249
1021.141, 47.51489
1021.623, 29.63257
1022.105, 16.00464
1022.587, 14.41455
1023.069, 43.05762
1023.552, 87.50732
1024.034, 114.1504
1024.516, 117.1460
1024.998, 106.9451
1025.480, 59.76221
1025.962, 30.11670
1026.444, 59.84448
1026.926, 99.73291
1027.409, 110.6240
1027.891, 100.2888
1028.373, 89.65601
1028.855, 81.17651
1029.337, 75.56323
1029.819, 71.95142
1030.301, 74.51440
1030.783, 89.34619
1031.266, 99.52490
1031.748, 88.71021
1032.230, 72.56250
1032.712, 83.06006
1033.194, 123.0227
1033.676, 146.0378
1034.158, 140.7964
1034.640, 132.4666
1035.122, 117.2170
1035.604, 108.3372
1036.087, 120.6865
1036.569, 141.0886
1037.051, 147.9690
1037.533, 137.2097
1038.015, 135.6270
1038.497, 158.9546
1038.979, 172.7207
1039.461, 163.3076
1039.944, 158.1865
1040.426, 177.2280
1040.908, 199.7710
1041.390, 194.0337
1041.872, 165.0781
1042.354, 171.0986
1042.836, 245.1797
1043.318, 280.1230
1043.800, 256.0469
1044.283, 221.6895
1044.765, 184.7285
1045.247, 159.3916
1045.729, 164.6948
1046.211, 193.0117
1046.693, 208.2026
1047.175, 206.8931
1047.657, 204.5630
1048.140, 201.0049
1048.622, 194.2061
1049.104, 181.0132
1049.586, 172.1489
1050.068, 180.1045
1050.550, 195.1670
1051.032, 187.3057
1051.514, 152.3452
1051.996, 135.0977
1052.479, 137.2393
1052.961, 148.3594
1053.443, 168.9785
1053.925, 182.5630
1054.407, 177.5581
1054.889, 160.9082
1055.371, 143.3818
1055.853, 125.5063
1056.335, 114.9937
1056.818, 112.3115
1057.300, 126.2710
1057.782, 158.0122
1058.264, 177.4629
1058.746, 168.2734
1059.228, 147.6826
1059.710, 138.1416
1060.192, 134.8291
1060.675, 116.2271
1061.157, 88.37451
1061.639, 87.78516
1062.121, 115.0874
1062.603, 142.1602
1063.085, 157.5410
1063.567, 160.8130
1064.049, 148.8989
1064.531, 130.1006
1065.014, 117.5415
1065.496, 110.1348
1065.978, 105.0273
1066.460, 102.6655
1066.942, 108.5654
1067.424, 122.3237
1067.906, 129.0562
1068.388, 115.3481
1068.870, 101.1108
1069.353, 115.9385
1069.835, 138.8936
1070.317, 140.1538
1070.799, 126.7896
1071.281, 113.4878
1071.763, 103.9238
1072.245, 98.39307
1072.727, 97.23291
1073.210, 98.54297
1073.692, 108.3989
1074.174, 112.5732
1074.656, 93.21680
1075.138, 65.70898
1075.620, 50.99658
1076.102, 45.02344
1076.584, 25.68945
1077.067, 13.92725
1077.549, 30.14502
1078.031, 23.82520
1078.513, 68.28320
1078.995, 63.70801
1079.477, 39.87939
1079.959, 6.093262
1080.441, 25.58594
1080.923, 34.82861
1081.406, 21.16357
1081.888, 17.24365
1082.370, 30.23535
1082.852, 30.38281
1083.334, 4.261719
1083.816, 36.99219
1084.298, 48.73047
1084.780, 51.56494
1085.262, 61.96094
1085.745, 75.55615
1086.227, 68.96484
1086.709, 32.69092
1087.191, 2.241699
1087.673, 29.85938
1088.155, 38.74121
1088.637, 3.041992
1089.119, 27.91357
1089.602, 11.92822
1090.084, 25.46045
1090.566, 25.64014
1091.048, 12.61914
1091.530, 34.92236
1092.012, 37.13379
1092.494, 41.58887
1092.976, 55.37793
1093.458, 49.98975
1093.941, 6.179199
1094.423, 38.53125
1094.905, 32.63770
1095.387, 7.673828
1095.869, 19.00537
1096.351, 6.268555
1096.833, 2.465332
1097.315, 9.591309
1097.797, 22.95508
1098.280, 40.64844
1098.762, 58.59424
1099.244, 72.92529
1099.726, 83.59814
1100.208, 90.55273
1100.690, 94.69824
1101.172, 101.0605
1101.654, 108.6274
1102.137, 117.9341
1102.619, 125.9263
1103.101, 121.6040
1103.583, 99.45605
1104.065, 75.06787
1104.547, 52.27783
1105.029, 42.70703
1105.511, 61.65918
1105.994, 93.04443
1106.476, 125.0283
1106.958, 151.7720
1107.440, 159.8281
1107.922, 148.0874
1108.404, 137.3550
1108.886, 139.5239
1109.368, 151.9287
1109.850, 171.0576
1110.333, 174.6602
1110.815, 160.1494
1111.297, 132.8857
1111.779, 114.0142
1112.261, 99.41699
1112.743, 100.3726
1113.225, 129.0591
1113.707, 131.2158
1114.189, 79.24072
1114.672, 68.29395
1115.154, 126.5117
1115.636, 193.6665
1116.118, 200.8032
1116.600, 178.3569
1117.082, 174.8564
1117.564, 202.5029
1118.046, 202.4609
1118.529, 158.9014
1119.011, 124.8711
1119.493, 102.8271
1119.975, 110.7373
1120.457, 161.1680
1120.939, 207.1611
1121.421, 196.4990
1121.903, 149.8418
1122.385, 123.2510
1122.868, 119.0869
1123.350, 130.3730
1123.832, 147.6738
1124.314, 131.3857
1124.796, 81.45703
1125.278, 52.68262
1125.760, 73.98145
1126.242, 110.1582
1126.724, 132.5400
1127.207, 138.6191
1127.689, 140.5195
1128.171, 134.3662
1128.653, 115.6689
1129.135, 92.32324
1129.617, 84.22852
1130.099, 98.74609
1130.581, 108.4844
1131.064, 80.62012
1131.546, 62.26855
1132.028, 87.52832
1132.510, 114.3174
1132.992, 133.9805
1133.474, 145.0801
1133.956, 131.7432
1134.438, 100.5986
1134.921, 99.09082
1135.403, 156.9785
1135.885, 163.3867
1136.367, 60.13965
1136.849, 4.104492
1137.331, 13.36230
1137.813, 52.72070
1138.295, 46.58496
1138.777, 24.09375
1139.260, 0.0000000E+00
##END=



