##NAMES=Heidornite
##RRUFFID=R141086
##IDEAL CHEMISTRY=Na_2_Ca_3_B_5_O_8_(SO_4_)_2_(OH)_2_Cl
##LOCALITY=Bahrenborstel, Hannover, Germany
##OWNER=RRUFF
##SOURCE=Rock Currier
##DESCRIPTION=Colorless massive in anhydrite
##STATUS=The identification of this mineral has been confirmed only by single crystal X-ray diffraction.
##URL=rruff.info/R141086
125.9420, 0.0000000E+00
126.4241, 0.2013240
126.9062, 2.646454
127.3883, 7.672409
127.8704, 14.76009
128.3525, 22.58286
128.8347, 29.86552
129.3168, 36.49500
129.7989, 41.59373
130.2810, 43.84091
130.7631, 43.75613
131.2452, 43.68478
131.7274, 44.11850
132.2095, 44.96028
132.6916, 46.13454
133.1737, 47.70706
133.6558, 49.10425
134.1379, 50.52217
134.6201, 51.91899
135.1022, 50.69887
135.5843, 45.39491
136.0664, 36.55510
136.5485, 28.16473
137.0306, 19.93410
137.5128, 12.77382
137.9949, 7.444443
138.4770, 3.917526
138.9591, 2.320465
139.4412, 3.086639
139.9233, 6.395660
140.4055, 9.458588
140.8876, 12.16380
141.3697, 14.73274
141.8518, 17.70462
142.3339, 21.53041
142.8160, 24.73775
143.2982, 26.86673
143.7803, 27.96063
144.2624, 27.74184
144.7445, 25.97250
145.2266, 22.94769
145.7087, 19.39117
146.1909, 14.54160
146.6730, 10.14592
147.1551, 6.810638
147.6372, 4.760422
148.1193, 3.365448
148.6014, 2.541290
149.0836, 2.329407
149.5657, 2.869614
150.0478, 4.882294
150.5299, 7.073380
151.0120, 8.889496
151.4941, 10.46504
151.9763, 11.50073
152.4584, 11.89044
152.9405, 11.69362
153.4226, 11.22534
153.9047, 9.698242
154.3868, 8.429764
154.8690, 8.137100
155.3511, 9.579453
155.8332, 11.28139
156.3153, 13.01918
156.7974, 14.81345
157.2795, 16.90834
157.7617, 19.04150
158.2438, 21.66798
158.7259, 24.96901
159.2080, 29.43771
159.6901, 34.21524
160.1722, 39.09747
160.6544, 44.11043
161.1365, 49.18817
161.6186, 54.58461
162.1007, 59.88895
162.5828, 64.83855
163.0649, 69.66673
163.5471, 73.79623
164.0292, 76.72534
164.5113, 78.51224
164.9934, 80.54192
165.4755, 83.37851
165.9576, 86.88721
166.4398, 90.99843
166.9219, 95.72592
167.4040, 100.5357
167.8861, 105.5653
168.3682, 110.8585
168.8503, 115.8356
169.3325, 120.5260
169.8146, 125.3486
170.2967, 130.6665
170.7788, 136.7003
171.2609, 143.6410
171.7430, 151.2858
172.2252, 159.5964
172.7073, 169.2556
173.1894, 181.4069
173.6715, 195.5068
174.1536, 209.8662
174.6357, 224.5773
175.1179, 238.9927
175.6000, 253.1312
176.0821, 267.3195
176.5642, 278.6779
177.0463, 285.7385
177.5284, 287.9359
178.0106, 283.5108
178.4927, 269.3754
178.9748, 248.4869
179.4569, 225.3741
179.9390, 199.7003
180.4211, 173.9381
180.9033, 149.9542
181.3854, 127.7436
181.8675, 107.9072
182.3496, 90.76195
182.8317, 76.21031
183.3138, 63.15515
183.7960, 51.67247
184.2781, 41.62030
184.7602, 33.03764
185.2423, 25.83264
185.7244, 20.02637
186.2065, 16.05423
186.6887, 13.54027
187.1708, 10.94229
187.6529, 7.995895
188.1350, 5.122040
188.6171, 3.109879
189.0992, 1.928802
189.5814, 1.242935
190.0635, 0.8036580
190.5456, 0.6411060
191.0277, 1.095039
191.5098, 2.321785
191.9919, 3.988403
192.4741, 5.304878
192.9562, 6.238838
193.4383, 7.432076
193.9204, 9.509644
194.4025, 12.40647
194.8846, 15.01019
195.3668, 17.18527
195.8489, 19.00336
196.3310, 20.69773
196.8131, 22.30489
197.2952, 23.50263
197.7773, 24.05408
198.2595, 23.94839
198.7416, 23.45531
199.2237, 22.60748
199.7058, 21.40416
200.1879, 19.86481
200.6700, 17.97475
201.1522, 15.72906
201.6343, 12.93092
202.1164, 9.487053
202.5985, 6.438889
203.0806, 3.958504
203.5627, 1.958267
204.0449, 0.2319340
204.5270, 1.203644
205.0091, 2.426872
205.4912, 3.444740
205.9733, 4.220970
206.4554, 5.060608
206.9376, 6.150337
207.4197, 7.281509
207.9018, 7.581543
208.3839, 6.769272
208.8660, 5.839729
209.3481, 5.645119
209.8303, 6.503754
210.3124, 6.599518
210.7945, 5.455887
211.2766, 3.446136
211.7587, 2.131882
212.2408, 1.754150
212.7230, 1.560616
213.2051, 1.115982
213.6872, 0.4550250
214.1693, 0.6096420
214.6514, 2.210602
215.1335, 4.229240
215.6157, 6.047142
216.0978, 7.598869
216.5799, 9.086502
217.0620, 10.62092
217.5441, 12.15198
218.0262, 13.90130
218.5084, 15.97797
218.9905, 18.31571
219.4726, 20.50210
219.9547, 22.59612
220.4368, 24.49462
220.9189, 26.12109
221.4011, 27.48923
221.8832, 28.59922
222.3653, 29.52103
222.8474, 30.19116
223.3295, 30.28611
223.8116, 29.58534
224.2938, 28.66518
224.7759, 27.85567
225.2580, 27.20280
225.7401, 26.55612
226.2222, 25.81430
226.7043, 25.06930
227.1865, 24.65740
227.6686, 24.60764
228.1507, 24.86504
228.6328, 25.40379
229.1149, 26.21747
229.5970, 27.33630
230.0792, 28.84198
230.5613, 30.65685
231.0434, 32.39804
231.5255, 33.85374
232.0076, 35.51939
232.4897, 37.71716
232.9719, 40.84039
233.4540, 43.61916
233.9361, 46.05929
234.4182, 48.13182
234.9003, 49.79625
235.3824, 51.17274
235.8646, 51.97047
236.3467, 51.99413
236.8288, 50.95621
237.3109, 49.79523
237.7930, 48.68451
238.2751, 47.43367
238.7573, 45.43069
239.2394, 42.14780
239.7215, 38.86241
240.2036, 36.11232
240.6857, 34.03868
241.1678, 32.18327
241.6500, 30.50084
242.1321, 29.05335
242.6142, 27.97370
243.0963, 27.29515
243.5784, 26.94939
244.0605, 26.93727
244.5427, 27.35224
245.0248, 27.84895
245.5069, 28.39143
245.9890, 29.02689
246.4711, 29.87543
246.9532, 30.97291
247.4354, 32.25897
247.9175, 33.69016
248.3996, 35.29172
248.8817, 36.96959
249.3638, 38.62978
249.8459, 40.42821
250.3281, 42.66391
250.8102, 45.46972
251.2923, 48.50186
251.7744, 51.70883
252.2565, 55.09729
252.7386, 58.49269
253.2208, 61.95629
253.7029, 65.38455
254.1850, 68.66672
254.6671, 71.78544
255.1492, 74.81264
255.6313, 77.86143
256.1135, 81.03847
256.5956, 83.45616
257.0777, 85.04630
257.5598, 85.90706
258.0419, 86.12189
258.5240, 85.60195
259.0062, 84.61332
259.4883, 83.07086
259.9704, 80.93616
260.4525, 79.08759
260.9346, 77.61526
261.4167, 76.29720
261.8989, 74.88119
262.3810, 73.33784
262.8631, 71.78964
263.3452, 70.22957
263.8273, 68.66439
264.3094, 67.44423
264.7916, 66.53404
265.2737, 65.96307
265.7558, 65.85162
266.2379, 66.34686
266.7200, 67.14590
267.2021, 68.26215
267.6843, 69.56902
268.1664, 70.49754
268.6485, 70.90828
269.1306, 71.51500
269.6127, 72.81059
270.0948, 74.78436
270.5770, 77.09417
271.0591, 79.60169
271.5412, 82.40783
272.0233, 86.09247
272.5054, 90.65698
272.9875, 95.96304
273.4697, 101.7911
273.9518, 108.1176
274.4339, 115.3951
274.9160, 123.7831
275.3981, 133.0518
275.8802, 142.7733
276.3624, 152.8062
276.8445, 163.3023
277.3266, 174.4790
277.8087, 186.3909
278.2908, 198.3483
278.7729, 210.6546
279.2551, 222.5588
279.7372, 232.2896
280.2193, 239.9069
280.7014, 245.0952
281.1835, 248.3533
281.6656, 249.6421
282.1478, 245.8417
282.6299, 236.2089
283.1120, 222.6927
283.5941, 207.9400
284.0762, 191.8357
284.5583, 175.5378
285.0405, 159.0564
285.5226, 142.5213
286.0047, 127.0384
286.4868, 112.5452
286.9689, 99.33380
287.4510, 87.89420
287.9332, 78.19885
288.4153, 69.62578
288.8974, 62.23847
289.3795, 55.87708
289.8616, 50.33426
290.3438, 45.65768
290.8259, 41.47125
291.3080, 37.34116
291.7901, 33.34471
292.2722, 29.71221
292.7543, 26.61646
293.2365, 23.92965
293.7186, 21.41124
294.2007, 19.08337
294.6828, 16.90013
295.1649, 14.74628
295.6470, 12.70723
296.1292, 11.00703
296.6113, 9.801537
297.0934, 8.886131
297.5755, 7.965309
298.0576, 7.035538
298.5397, 6.108879
299.0219, 5.112831
299.5040, 4.119705
299.9861, 3.288048
300.4682, 2.634666
300.9503, 2.181870
301.4324, 2.131020
301.9146, 2.369896
302.3967, 2.420288
302.8788, 1.811195
303.3609, 0.8837970
303.8430, 8.7738000E-02
304.3251, 0.5515440
304.8073, 0.9216610
305.2894, 0.7613530
305.7715, 0.2389450
306.2536, 0.2397380
306.7357, 0.5136490
307.2178, 0.6096950
307.7000, 0.4959180
308.1821, 0.1476970
308.6642, 0.2041850
309.1463, 0.3980260
309.6284, 0.4837340
310.1105, 0.5405580
310.5927, 0.7451550
311.0748, 0.8285520
311.5569, 0.4890060
312.0390, 0.2731320
312.5211, 0.9428330
313.0032, 1.077988
313.4854, 1.033356
313.9675, 1.184235
314.4496, 1.729370
314.9317, 2.432526
315.4138, 3.268684
315.8959, 4.207260
316.3781, 5.081833
316.8602, 5.795456
317.3423, 6.424911
317.8244, 7.002663
318.3065, 7.339409
318.7886, 7.906158
319.2708, 8.987267
319.7529, 10.43262
320.2350, 11.82524
320.7171, 12.90594
321.1992, 13.98871
321.6813, 15.17276
322.1635, 16.31454
322.6456, 17.91464
323.1277, 20.54789
323.6098, 23.62426
324.0919, 26.16776
324.5740, 27.24255
325.0562, 28.44480
325.5383, 30.31924
326.0204, 33.07290
326.5025, 35.76917
326.9846, 38.14822
327.4667, 40.51797
327.9489, 43.23235
328.4310, 46.06029
328.9131, 49.50401
329.3952, 53.79733
329.8773, 58.96316
330.3594, 64.19604
330.8416, 69.15072
331.3237, 74.40107
331.8058, 80.37572
332.2879, 87.56314
332.7700, 94.69994
333.2521, 101.7040
333.7343, 108.6458
334.2164, 115.8993
334.6985, 123.6014
335.1806, 131.2373
335.6627, 138.6351
336.1448, 145.8861
336.6270, 152.5179
337.1091, 158.5904
337.5912, 163.9034
338.0733, 168.1057
338.5554, 171.0962
339.0375, 173.1650
339.5197, 174.2403
340.0018, 174.2624
340.4839, 174.1426
340.9660, 173.6272
341.4481, 173.5672
341.9302, 175.2690
342.4124, 178.8455
342.8945, 182.4571
343.3766, 185.2994
343.8587, 187.7786
344.3408, 191.7865
344.8229, 197.3413
345.3051, 204.1640
345.7872, 212.3258
346.2693, 221.6325
346.7514, 231.1563
347.2335, 240.5471
347.7156, 250.2665
348.1978, 261.2592
348.6799, 273.3360
349.1620, 284.9875
349.6441, 295.4909
350.1262, 304.9944
350.6083, 313.9042
351.0905, 322.5740
351.5726, 329.7188
352.0547, 334.2551
352.5368, 336.1599
353.0189, 335.3593
353.5010, 331.6713
353.9832, 325.3657
354.4653, 316.4863
354.9474, 304.8627
355.4295, 291.4734
355.9116, 276.2778
356.3937, 259.9708
356.8759, 243.7723
357.3580, 227.5936
357.8401, 211.8834
358.3222, 196.9842
358.8043, 182.7731
359.2864, 169.3185
359.7686, 156.3218
360.2507, 144.1918
360.7328, 133.4445
361.2149, 124.3266
361.6970, 116.1939
362.1791, 108.8353
362.6613, 102.2678
363.1434, 96.54159
363.6255, 91.81091
364.1076, 87.81787
364.5897, 84.42744
365.0718, 81.69456
365.5540, 79.55939
366.0361, 78.16477
366.5182, 77.31110
367.0003, 76.76524
367.4824, 76.54842
367.9645, 76.59637
368.4467, 77.11204
368.9288, 78.13025
369.4109, 78.61219
369.8930, 78.38689
370.3751, 77.75913
370.8572, 76.94707
371.3394, 76.15891
371.8215, 74.85832
372.3036, 73.01192
372.7857, 70.62391
373.2678, 67.66829
373.7499, 63.98776
374.2321, 59.96715
374.7142, 55.73497
375.1963, 51.14738
375.6784, 46.83299
376.1605, 42.82912
376.6426, 39.07928
377.1248, 35.66316
377.6069, 32.57909
378.0890, 29.60313
378.5711, 26.59698
379.0532, 23.61246
379.5353, 21.31085
380.0175, 19.75993
380.4996, 18.45452
380.9817, 16.87389
381.4638, 15.07375
381.9459, 13.46148
382.4280, 12.14436
382.9102, 11.04620
383.3923, 10.09231
383.8744, 9.266907
384.3565, 8.486359
384.8386, 7.625572
385.3207, 6.782143
385.8029, 6.236931
386.2850, 6.059036
386.7671, 5.931602
387.2492, 5.448738
387.7313, 4.762230
388.2134, 4.224777
388.6956, 4.218544
389.1777, 4.293121
389.6598, 4.042419
390.1419, 3.470413
390.6240, 2.764313
391.1061, 1.808212
391.5883, 0.8712080
392.0704, 0.2481310
392.5525, 0.2237850
393.0346, 0.2468260
393.5167, 6.4346001E-02
393.9988, 0.2669530
394.4810, 0.5874630
394.9631, 0.8610690
395.4452, 1.095566
395.9273, 1.284470
396.4094, 1.405930
396.8915, 1.550903
397.3737, 1.716820
397.8558, 1.922989
398.3379, 2.193176
398.8200, 2.726242
399.3021, 3.116936
399.7842, 3.219139
400.2664, 3.035561
400.7485, 2.995384
401.2306, 3.216537
401.7127, 3.471764
402.1948, 3.622490
402.6769, 3.652138
403.1591, 3.593819
403.6412, 3.340515
404.1233, 3.050636
404.6054, 3.250526
405.0875, 4.254608
405.5696, 4.811310
406.0518, 4.128136
406.5339, 2.144684
407.0160, 1.151230
407.4981, 1.344749
407.9802, 1.995804
408.4623, 2.295853
408.9445, 2.249847
409.4266, 2.189301
409.9087, 2.163933
410.3908, 2.205559
410.8729, 2.554474
411.3550, 3.190521
411.8372, 3.540642
412.3193, 2.911575
412.8014, 1.711884
413.2835, 0.9407730
413.7656, 0.7917790
414.2477, 0.7980580
414.7299, 0.4170460
415.2120, 0.2005460
415.6941, 0.6736830
416.1762, 0.5666960
416.6583, 0.4095000
417.1404, 0.7276690
417.6226, 1.520195
418.1047, 2.357979
418.5868, 2.973251
419.0689, 3.528152
419.5510, 4.190613
420.0331, 4.975365
420.5153, 5.905602
420.9974, 7.199982
421.4795, 8.658714
421.9616, 9.704872
422.4437, 9.582001
422.9258, 9.558228
423.4080, 10.21257
423.8901, 11.78423
424.3722, 13.34614
424.8543, 14.98517
425.3364, 16.51066
425.8185, 17.68854
426.3007, 17.88843
426.7828, 18.70524
427.2649, 20.59801
427.7470, 23.36220
428.2291, 25.74328
428.7112, 27.64505
429.1934, 29.29203
429.6755, 30.71783
430.1576, 31.76112
430.6397, 33.39157
431.1218, 35.72716
431.6039, 38.49081
432.0861, 41.33313
432.5682, 44.25455
433.0503, 47.20988
433.5324, 50.04787
434.0145, 52.95803
434.4966, 56.70748
434.9788, 61.31570
435.4609, 66.20071
435.9430, 70.72119
436.4251, 75.18623
436.9072, 80.43152
437.3893, 86.72045
437.8715, 93.63777
438.3536, 100.5797
438.8357, 107.7453
439.3178, 115.6876
439.7999, 125.1038
440.2820, 135.2067
440.7642, 145.1653
441.2463, 155.0160
441.7284, 165.0238
442.2105, 175.9648
442.6926, 186.9409
443.1747, 197.0802
443.6569, 205.7077
444.1390, 214.0248
444.6211, 222.0037
445.1032, 229.8958
445.5853, 238.1701
446.0674, 247.0115
446.5496, 256.2505
447.0317, 265.6857
447.5138, 275.0573
447.9959, 285.6313
448.4780, 297.0574
448.9601, 309.9816
449.4423, 325.1826
449.9244, 342.3175
450.4065, 362.2180
450.8886, 385.4781
451.3707, 411.4686
451.8528, 438.5482
452.3350, 466.9588
452.8171, 496.2516
453.2992, 526.8286
453.7813, 558.8338
454.2634, 591.3551
454.7455, 624.8079
455.2277, 658.2165
455.7098, 691.9722
456.1919, 725.3531
456.6740, 756.0226
457.1561, 783.5806
457.6382, 806.9307
458.1204, 824.2417
458.6025, 835.4207
459.0846, 838.6608
459.5667, 831.2757
460.0488, 815.9170
460.5309, 795.4470
461.0131, 769.9418
461.4952, 741.4157
461.9773, 708.3534
462.4594, 674.1507
462.9415, 643.3271
463.4236, 618.1520
463.9058, 596.8011
464.3879, 577.6785
464.8700, 561.2549
465.3521, 549.9445
465.8342, 544.9222
466.3163, 544.6318
466.7985, 548.2706
467.2806, 556.1092
467.7627, 567.3032
468.2448, 581.5258
468.7269, 599.0566
469.2090, 620.4130
469.6912, 645.7337
470.1733, 675.2632
470.6554, 709.5676
471.1375, 748.3436
471.6196, 788.7055
472.1017, 830.3484
472.5839, 874.5368
473.0660, 924.2249
473.5481, 979.2394
474.0302, 1032.791
474.5123, 1084.419
474.9944, 1134.336
475.4766, 1185.541
475.9587, 1236.678
476.4408, 1279.253
476.9229, 1311.261
477.4050, 1331.634
477.8871, 1338.964
478.3693, 1333.095
478.8514, 1312.334
479.3335, 1271.974
479.8156, 1217.188
480.2977, 1152.984
480.7798, 1078.415
481.2620, 1001.796
481.7441, 924.8566
482.2262, 849.6432
482.7083, 779.2192
483.1904, 712.9988
483.6725, 652.9755
484.1547, 601.1934
484.6368, 557.5701
485.1189, 517.7162
485.6010, 480.5175
486.0831, 447.3340
486.5652, 419.1951
487.0474, 397.6017
487.5295, 377.5101
488.0116, 358.9353
488.4937, 342.1950
488.9758, 327.4907
489.4579, 314.6797
489.9401, 304.2790
490.4222, 296.3345
490.9043, 290.8587
491.3864, 287.6230
491.8685, 286.6417
492.3506, 287.8355
492.8328, 291.0670
493.3149, 296.3711
493.7970, 304.2975
494.2791, 315.1136
494.7612, 327.5757
495.2433, 340.3391
495.7255, 353.7571
496.2076, 368.8919
496.6897, 386.7652
497.1718, 405.9042
497.6539, 425.3316
498.1360, 444.7374
498.6182, 463.3656
499.1003, 482.8125
499.5824, 499.8345
500.0645, 512.7424
500.5466, 522.5369
501.0287, 523.7512
501.5109, 514.6981
501.9930, 496.3717
502.4751, 469.8163
502.9572, 429.8253
503.4393, 387.7607
503.9214, 342.7165
504.4036, 296.7313
504.8857, 255.5132
505.3678, 218.8172
505.8499, 186.6082
506.3320, 158.9615
506.8141, 135.9444
507.2963, 116.7246
507.7784, 101.3050
508.2605, 89.11626
508.7426, 79.82671
509.2247, 73.32391
509.7068, 67.93771
510.1890, 63.42725
510.6711, 59.77928
511.1532, 57.06247
511.6353, 55.26045
512.1174, 54.34038
512.5995, 54.54657
513.0817, 55.46236
513.5638, 56.47565
514.0459, 57.60274
514.5280, 59.45140
515.0101, 62.38704
515.4922, 66.25197
515.9744, 70.86362
516.4565, 76.22511
516.9386, 82.30446
517.4207, 88.95245
517.9028, 96.34131
518.3849, 104.7525
518.8671, 114.0555
519.3492, 124.6216
519.8313, 137.0853
520.3134, 151.1853
520.7955, 164.7131
521.2776, 177.5091
521.7598, 190.0139
522.2419, 202.6287
522.7240, 215.8243
523.2061, 227.3987
523.6882, 238.0653
524.1703, 245.5580
524.6525, 246.6954
525.1346, 241.6797
525.6167, 233.0754
526.0988, 221.3255
526.5809, 206.8309
527.0630, 189.3110
527.5452, 169.2920
528.0273, 149.4587
528.5094, 131.2063
528.9915, 113.9760
529.4736, 96.50076
529.9557, 78.56726
530.4379, 62.30696
530.9200, 48.72911
531.4021, 37.36787
531.8842, 27.73871
532.3663, 20.25368
532.8484, 13.73076
533.3306, 8.017258
533.8127, 3.082291
534.2948, 0.9699860
534.7769, 3.691208
535.2590, 6.117920
535.7411, 8.572556
536.2233, 11.02692
536.7054, 12.70348
537.1875, 13.35928
537.6696, 13.67577
538.1517, 14.16658
538.6339, 14.87828
539.1160, 15.04034
539.5981, 14.56134
540.0802, 13.65842
540.5623, 12.45247
541.0444, 11.00723
541.5266, 9.684326
542.0087, 8.731064
542.4908, 7.801392
542.9729, 6.383316
543.4550, 4.564529
543.9371, 2.653000
544.4193, 1.139481
544.9014, 0.6237950
545.3835, 3.245346
545.8656, 6.801544
546.3477, 10.66049
546.8298, 14.74719
547.3120, 18.97812
547.7941, 23.24031
548.2762, 27.18033
548.7583, 31.66156
549.2404, 37.06508
549.7225, 42.95007
550.2047, 48.49808
550.6868, 53.14465
551.1689, 58.57272
551.6510, 65.21088
552.1331, 72.96246
552.6152, 81.10017
553.0974, 89.64859
553.5795, 98.47234
554.0616, 107.4286
554.5437, 116.5678
555.0258, 126.2042
555.5079, 136.4253
555.9901, 146.9357
556.4722, 157.2266
556.9543, 167.7182
557.4364, 179.3663
557.9185, 192.9642
558.4006, 206.9999
558.8828, 220.3179
559.3649, 233.2115
559.8470, 246.6646
560.3291, 262.0331
560.8112, 277.1283
561.2933, 291.2203
561.7755, 304.2541
562.2576, 316.3806
562.7397, 327.7123
563.2218, 337.8684
563.7039, 346.8028
564.1860, 354.9265
564.6682, 360.8613
565.1503, 364.8660
565.6324, 366.4497
566.1145, 364.8727
566.5966, 360.0281
567.0787, 352.9143
567.5609, 343.7245
568.0430, 332.4585
568.5251, 318.9482
569.0072, 303.2487
569.4893, 286.7987
569.9714, 269.6982
570.4536, 252.4281
570.9357, 235.5257
571.4178, 219.0663
571.8999, 202.8549
572.3820, 186.4861
572.8641, 170.6310
573.3463, 156.0872
573.8284, 142.8194
574.3105, 130.8891
574.7926, 120.7817
575.2747, 111.8336
575.7568, 103.2538
576.2390, 94.20422
576.7211, 86.38123
577.2032, 80.01569
577.6853, 74.98186
578.1674, 71.23170
578.6495, 69.14357
579.1317, 67.19490
579.6138, 64.28967
580.0959, 60.78658
580.5780, 59.97148
581.0601, 61.99368
581.5422, 64.98567
582.0244, 67.56122
582.5065, 69.89850
582.9886, 72.22672
583.4707, 74.49213
583.9528, 77.40472
584.4349, 81.74780
584.9171, 87.11790
585.3992, 92.91479
585.8813, 98.76666
586.3634, 105.2043
586.8455, 111.8081
587.3276, 119.1063
587.8098, 128.3455
588.2919, 140.5258
588.7740, 153.9534
589.2561, 168.1040
589.7382, 182.9698
590.2203, 198.8733
590.7025, 215.4916
591.1846, 233.4139
591.6667, 253.1509
592.1488, 274.8031
592.6309, 296.7805
593.1130, 319.0751
593.5952, 341.9638
594.0773, 367.1454
594.5594, 393.6534
595.0415, 418.0521
595.5236, 442.3350
596.0057, 459.1709
596.4879, 461.6945
596.9700, 450.4180
597.4521, 426.2638
597.9342, 381.5063
598.4163, 331.0387
598.8984, 280.0509
599.3806, 229.2667
599.8627, 184.4586
600.3448, 146.8756
600.8269, 115.8582
601.3090, 91.00810
601.7911, 73.11606
602.2733, 57.99762
602.7554, 46.00142
603.2375, 36.24239
603.7196, 28.29337
604.2017, 22.15494
604.6838, 17.21307
605.1660, 13.43878
605.6481, 10.62738
606.1302, 8.560532
606.6123, 7.283630
607.0944, 6.785660
607.5765, 7.320099
608.0587, 8.232010
608.5408, 8.706802
609.0229, 8.932602
609.5050, 9.565796
609.9871, 10.87810
610.4692, 12.81006
610.9514, 15.47469
611.4335, 18.89160
611.9156, 22.02072
612.3977, 24.16232
612.8798, 26.36983
613.3619, 29.20798
613.8441, 32.82060
614.3262, 36.81473
614.8083, 41.27040
615.2904, 46.09985
615.7725, 51.03821
616.2546, 56.05556
616.7368, 61.64935
617.2189, 67.99500
617.7010, 74.84534
618.1831, 81.90720
618.6652, 89.12105
619.1473, 96.28906
619.6295, 103.3855
620.1116, 110.3189
620.5937, 116.7592
621.0758, 122.7791
621.5579, 129.0821
622.0400, 137.1746
622.5222, 144.6568
623.0043, 149.9860
623.4864, 152.7251
623.9685, 154.6915
624.4506, 156.2695
624.9327, 157.0646
625.4149, 156.6352
625.8970, 154.4240
626.3791, 152.6287
626.8612, 151.3237
627.3433, 150.4880
627.8254, 149.6700
628.3076, 148.9417
628.7897, 150.0881
629.2718, 153.5918
629.7539, 159.1444
630.2360, 166.7112
630.7181, 175.9556
631.2003, 185.7298
631.6824, 195.6882
632.1645, 205.8106
632.6466, 217.1924
633.1287, 229.2859
633.6108, 238.0231
634.0930, 241.3574
634.5751, 241.6552
635.0572, 239.1798
635.5393, 233.0077
636.0214, 229.0861
636.5035, 227.2288
636.9857, 227.8582
637.4678, 231.1547
637.9499, 236.9832
638.4320, 246.3067
638.9141, 259.2126
639.3962, 275.2635
639.8784, 294.2585
640.3605, 315.8730
640.8426, 339.6609
641.3247, 365.7524
641.8068, 393.0503
642.2889, 423.2671
642.7711, 453.8275
643.2532, 479.6568
643.7353, 499.1744
644.2174, 512.4189
644.6995, 517.3239
645.1816, 514.9244
645.6638, 512.2646
646.1459, 511.0542
646.6280, 509.1713
647.1101, 507.4066
647.5922, 506.3165
648.0743, 495.7757
648.5565, 475.5541
649.0386, 446.4799
649.5207, 407.0487
650.0028, 358.5411
650.4849, 310.5991
650.9670, 263.9132
651.4492, 220.4860
651.9313, 182.6361
652.4134, 150.0050
652.8955, 122.7015
653.3776, 100.7958
653.8597, 82.80179
654.3419, 68.73126
654.8240, 57.61992
655.3061, 48.24265
655.7882, 40.82413
656.2703, 34.49055
656.7524, 29.26337
657.2346, 24.96720
657.7167, 21.14345
658.1988, 17.72208
658.6809, 14.97266
659.1630, 13.24418
659.6451, 12.28310
660.1273, 10.44263
660.6094, 7.640099
661.0915, 5.014587
661.5736, 3.337395
662.0557, 2.332008
662.5378, 1.583298
663.0200, 1.064346
663.5021, 0.4572910
663.9842, 0.7424770
664.4663, 1.984146
664.9484, 2.688553
665.4305, 2.579262
665.9127, 2.482964
666.3948, 2.511322
666.8769, 2.694000
667.3590, 3.096542
667.8411, 4.030746
668.3232, 4.489395
668.8054, 4.258614
669.2875, 3.665604
669.7696, 3.249306
670.2517, 3.012085
670.7338, 2.818520
671.2159, 2.581497
671.6981, 2.428963
672.1802, 2.672737
672.6623, 3.214523
673.1444, 3.719536
673.6265, 4.172905
674.1086, 4.384834
674.5908, 4.091568
675.0729, 3.366241
675.5550, 2.696854
676.0371, 2.117279
676.5192, 1.735077
677.0013, 1.685623
677.4835, 2.023026
677.9656, 2.036751
678.4477, 1.571762
678.9298, 1.066750
679.4119, 0.9560620
679.8940, 1.245865
680.3762, 0.8572850
680.8583, 0.3371960
681.3404, 1.624481
681.8225, 2.131271
682.3046, 2.213272
682.7867, 2.703781
683.2689, 3.927284
683.7510, 5.036400
684.2331, 5.138161
684.7152, 4.847565
685.1973, 4.948105
685.6794, 5.850822
686.1616, 6.921280
686.6437, 8.200882
687.1258, 9.545235
687.6079, 10.64507
688.0900, 11.33751
688.5721, 12.17982
689.0543, 13.30392
689.5364, 14.65364
690.0185, 16.06451
690.5006, 17.53661
690.9827, 19.20745
691.4648, 21.29267
691.9470, 23.55658
692.4291, 25.75417
692.9112, 27.86523
693.3933, 29.77316
693.8754, 30.94347
694.3575, 32.28495
694.8397, 34.73261
695.3218, 38.50802
695.8039, 41.24079
696.2860, 42.33224
696.7681, 42.60122
697.2502, 42.45887
697.7324, 41.98888
698.2145, 40.58234
698.6966, 38.05237
699.1787, 35.11352
699.6608, 32.40054
700.1429, 29.88990
700.6251, 27.25941
701.1072, 24.40346
701.5893, 21.79756
702.0714, 19.94910
702.5535, 18.64235
703.0356, 17.58086
703.5178, 16.82193
703.9999, 16.07131
704.4820, 14.91584
704.9641, 13.78831
705.4462, 13.38584
705.9283, 14.31110
706.4105, 15.03407
706.8926, 15.36488
707.3747, 15.38509
707.8568, 15.22958
708.3389, 14.87904
708.8210, 14.60848
709.3032, 14.53383
709.7853, 14.57531
710.2674, 14.51500
710.7495, 14.40832
711.2316, 14.49297
711.7137, 15.07584
712.1959, 15.75037
712.6780, 16.21378
713.1601, 16.48695
713.6422, 16.77321
714.1243, 17.11324
714.6064, 17.49899
715.0886, 17.95345
715.5707, 18.48419
716.0528, 18.91172
716.5349, 19.24781
717.0170, 19.45904
717.4991, 19.47465
717.9813, 19.32521
718.4634, 19.18170
718.9455, 19.03886
719.4276, 19.13219
719.9097, 20.05082
720.3918, 21.14840
720.8740, 21.39723
721.3561, 20.48142
721.8382, 19.70074
722.3203, 19.90553
722.8024, 20.42593
723.2845, 20.70152
723.7667, 20.61903
724.2488, 20.33695
724.7309, 19.66895
725.2130, 18.97357
725.6951, 18.72824
726.1772, 19.00659
726.6594, 19.08810
727.1415, 18.86347
727.6236, 18.47724
728.1057, 18.05325
728.5878, 17.62450
729.0699, 17.27235
729.5521, 16.96210
730.0342, 16.79099
730.5163, 16.92539
730.9984, 17.23164
731.4805, 17.47347
731.9626, 17.54800
732.4448, 17.65073
732.9269, 17.67104
733.4090, 17.75727
733.8911, 18.44814
734.3732, 19.87772
734.8553, 21.34136
735.3375, 22.52461
735.8196, 23.56643
736.3017, 24.83859
736.7838, 26.35656
737.2659, 28.11868
737.7480, 29.65982
738.2302, 31.75683
738.7123, 35.36481
739.1944, 40.29495
739.6765, 45.58829
740.1586, 50.82503
740.6407, 56.40658
741.1229, 62.46066
741.6050, 69.02061
742.0871, 76.05704
742.5692, 83.63120
743.0513, 91.58417
743.5334, 99.81199
744.0156, 108.3906
744.4977, 117.2435
744.9798, 126.3850
745.4619, 136.8658
745.9440, 149.3078
746.4261, 163.5263
746.9083, 179.2530
747.3904, 196.4529
747.8725, 216.0185
748.3546, 238.4796
748.8367, 263.1325
749.3188, 289.7693
749.8010, 317.9972
750.2831, 347.7715
750.7652, 379.3452
751.2473, 412.1268
751.7294, 447.0147
752.2115, 483.6653
752.6937, 519.2370
753.1758, 554.6253
753.6579, 582.3841
754.1400, 598.8409
754.6221, 601.4902
755.1042, 584.5912
755.5864, 544.7673
756.0685, 495.3369
756.5506, 436.5645
757.0327, 375.1647
757.5148, 319.4541
757.9969, 268.6046
758.4791, 224.8385
758.9612, 188.9841
759.4433, 159.2630
759.9254, 134.6196
760.4075, 114.9405
760.8896, 98.52001
761.3718, 85.33965
761.8539, 74.50200
762.3360, 65.15118
762.8181, 57.21526
763.3002, 50.63249
763.7823, 45.64905
764.2645, 41.38722
764.7466, 37.47686
765.2287, 33.96404
765.7108, 30.81029
766.1929, 28.19967
766.6750, 25.71895
767.1572, 23.24210
767.6393, 20.95604
768.1214, 19.30028
768.6035, 18.32960
769.0856, 17.19383
769.5677, 15.60197
770.0499, 13.86573
770.5320, 12.35835
771.0141, 11.09368
771.4962, 10.10970
771.9783, 9.616173
772.4604, 9.199524
772.9426, 8.587280
773.4247, 7.899399
773.9068, 7.427834
774.3889, 7.346809
774.8710, 7.292450
775.3531, 7.265739
775.8353, 7.198799
776.3174, 6.880516
776.7995, 6.307716
777.2816, 5.617218
777.7637, 4.819405
778.2458, 3.979195
778.7280, 3.118057
779.2101, 2.291618
779.6922, 1.689636
780.1743, 1.447266
780.6564, 1.402161
781.1385, 1.704781
781.6207, 2.190735
782.1028, 2.112236
782.5849, 0.8927990
783.0670, 1.9912999E-02
783.5491, 0.1681290
784.0313, 0.2553020
784.5134, 0.5268710
784.9955, 0.6476140
785.4776, 0.6348880
785.9597, 0.3939060
786.4418, 9.7632997E-02
786.9240, 0.1282580
787.4061, 0.3711850
787.8882, 0.4024430
788.3703, 0.2069780
788.8524, 0.8729480
789.3345, 1.371094
789.8167, 1.682838
790.2988, 1.761597
790.7809, 1.452202
791.2630, 1.213394
791.7451, 1.291534
792.2272, 1.545128
792.7094, 1.189186
793.1915, 0.2575530
793.6736, 0.4422910
794.1557, 0.1692120
794.6378, 0.4288710
795.1199, 0.4603730
795.6021, 4.9231999E-02
796.0842, 0.2110820
796.5663, 0.1598510
797.0484, 0.5253980
797.5305, 0.5429460
798.0126, 0.2611770
798.4948, 0.1496730
798.9769, 0.2953340
799.4590, 0.3924560
799.9411, 0.2597350
800.4232, 9.7350003E-03
800.9053, 2.9129000E-02
801.3875, 0.3373030
801.8696, 0.5299300
802.3517, 0.3871540
802.8338, 7.3170001E-03
803.3159, 0.6476060
803.7980, 1.503899
804.2802, 2.154099
804.7623, 2.310532
805.2444, 2.396141
805.7265, 2.573540
806.2086, 2.822304
806.6907, 2.909119
807.1729, 2.749153
807.6550, 2.791527
808.1371, 3.295464
808.6192, 4.135513
809.1013, 5.042976
809.5834, 6.003128
810.0656, 6.931519
810.5477, 7.773262
811.0298, 8.571098
811.5119, 9.301010
811.9940, 9.993408
812.4761, 10.86169
812.9583, 12.16346
813.4404, 13.35528
813.9225, 14.21376
814.4046, 14.81549
814.8867, 15.62321
815.3688, 16.62587
815.8510, 17.91930
816.3331, 19.61768
816.8152, 21.60493
817.2973, 23.74874
817.7794, 26.01262
818.2615, 28.22887
818.7437, 30.30707
819.2258, 32.28975
819.7079, 34.12058
820.1900, 35.85729
820.6721, 37.82007
821.1542, 40.14581
821.6364, 42.41312
822.1185, 44.47189
822.6006, 46.36804
823.0827, 48.47688
823.5648, 50.73326
824.0469, 52.74661
824.5291, 54.58334
825.0112, 55.86693
825.4933, 56.01999
825.9754, 55.30721
826.4575, 54.57521
826.9396, 54.47177
827.4218, 53.92561
827.9039, 52.49252
828.3860, 50.44827
828.8681, 48.66750
829.3502, 47.08810
829.8323, 46.10770
830.3145, 46.10483
830.7966, 46.47402
831.2787, 46.06480
831.7608, 45.03903
832.2429, 43.91464
832.7250, 42.53392
833.2072, 41.50840
833.6893, 41.52052
834.1714, 42.12733
834.6535, 42.12479
835.1356, 41.06934
835.6177, 40.12573
836.0999, 39.50038
836.5820, 39.07276
837.0641, 38.62756
837.5462, 38.16763
838.0283, 37.69384
838.5104, 37.15221
838.9926, 36.69820
839.4747, 36.43412
839.9568, 36.39773
840.4389, 36.64447
840.9210, 37.05206
841.4031, 37.88573
841.8853, 39.68717
842.3674, 41.77882
842.8495, 42.98044
843.3316, 42.91670
843.8137, 43.62131
844.2958, 45.56754
844.7780, 48.05716
845.2601, 50.14757
845.7422, 51.92744
846.2243, 53.65103
846.7064, 55.36368
847.1885, 57.03561
847.6707, 58.27190
848.1528, 59.64665
848.6349, 61.89235
849.1170, 65.53983
849.5991, 69.07872
850.0812, 72.43722
850.5634, 75.83302
851.0455, 79.52710
851.5276, 83.41968
852.0097, 87.17007
852.4918, 90.72466
852.9739, 94.44734
853.4561, 98.82929
853.9382, 103.4812
854.4203, 107.8702
854.9024, 111.6927
855.3845, 115.9951
855.8666, 121.4138
856.3488, 127.0824
856.8309, 132.2039
857.3130, 136.6436
857.7951, 142.0609
858.2772, 148.5181
858.7593, 155.2133
859.2415, 161.4178
859.7236, 167.3563
860.2057, 173.7851
860.6878, 180.7280
861.1699, 186.9279
861.6520, 192.7379
862.1342, 196.8716
862.6163, 198.3011
863.0984, 197.0652
863.5805, 194.8917
864.0626, 191.9624
864.5447, 187.6016
865.0269, 181.5222
865.5090, 173.6900
865.9911, 163.4657
866.4732, 151.2290
866.9553, 139.2298
867.4374, 129.1320
867.9196, 119.6220
868.4017, 109.9594
868.8838, 100.2032
869.3659, 90.98792
869.8480, 82.07430
870.3301, 74.24863
870.8123, 67.81018
871.2944, 62.51939
871.7765, 57.60762
872.2586, 53.09973
872.7407, 48.57056
873.2228, 43.47554
873.7050, 38.76408
874.1871, 35.59948
874.6692, 33.56221
875.1513, 31.69447
875.6334, 29.95791
876.1155, 28.05458
876.5977, 25.74271
877.0798, 23.35328
877.5619, 21.52262
878.0440, 20.28470
878.5261, 19.12592
879.0082, 17.92060
879.4904, 16.77753
879.9725, 15.92411
880.4546, 15.18934
880.9367, 14.23341
881.4188, 12.75876
881.9009, 11.50764
882.3831, 10.80228
882.8652, 10.41299
883.3473, 10.15084
883.8294, 10.11024
884.3115, 9.812614
884.7936, 9.214996
885.2758, 8.465996
885.7579, 7.628616
886.2400, 6.773674
886.7221, 6.068588
887.2042, 5.541466
887.6863, 5.082336
888.1685, 4.526726
888.6506, 4.088608
889.1327, 4.043327
889.6148, 4.505661
890.0969, 4.400543
890.5790, 3.528297
891.0612, 2.594246
891.5433, 2.056679
892.0254, 1.791122
892.5075, 1.284706
892.9896, 0.5785450
893.4717, 2.6054000E-02
893.9539, 5.8449000E-02
894.4360, 1.0124000E-02
894.9181, 2.3414999E-02
895.4002, 9.9441998E-02
895.8823, 0.1897430
896.3644, 0.2811810
896.8466, 0.4061280
897.3287, 0.6074450
897.8108, 0.8169630
898.2929, 0.7501530
898.7750, 0.4775010
899.2571, 0.4817580
899.7393, 1.176208
900.2214, 1.866310
900.7035, 1.879578
901.1856, 1.508972
901.6677, 1.247879
902.1498, 1.300659
902.6320, 1.337852
903.1141, 1.334137
903.5962, 1.314812
904.0783, 1.326164
904.5604, 1.361496
905.0425, 1.338264
905.5247, 1.235909
906.0068, 1.080299
906.4889, 0.8289340
906.9710, 0.5898820
907.4531, 0.5411300
907.9352, 0.8314060
908.4174, 0.8166430
908.8995, 0.2227550
909.3816, 0.4762950
909.8637, 1.040230
910.3458, 1.477905
910.8279, 1.529053
911.3101, 1.181129
911.7922, 1.071709
912.2743, 1.825508
912.7564, 2.952469
913.2385, 4.047157
913.7206, 5.056427
914.2028, 5.794395
914.6849, 5.879082
915.1670, 6.050133
915.6491, 6.493011
916.1312, 7.192993
916.6133, 8.117577
917.0955, 9.274536
917.5776, 10.55879
918.0597, 12.00173
918.5418, 13.46941
919.0239, 14.77299
919.5060, 15.98807
919.9882, 17.23805
920.4703, 18.38683
920.9524, 19.84242
921.4345, 21.80903
921.9166, 23.96846
922.3987, 25.86633
922.8809, 27.47401
923.3630, 29.46355
923.8451, 31.98361
924.3272, 34.52383
924.8093, 36.42451
925.2914, 38.04846
925.7736, 39.89835
926.2557, 42.13705
926.7378, 44.10805
927.2199, 45.42384
927.7020, 46.58846
928.1841, 47.98772
928.6663, 49.61331
929.1484, 50.17519
929.6305, 49.64479
930.1126, 48.81310
930.5947, 48.20743
931.0768, 47.56790
931.5590, 46.62451
932.0411, 45.35895
932.5232, 43.78596
933.0053, 41.64952
933.4874, 39.48624
933.9695, 37.47152
934.4517, 35.49918
934.9338, 33.17451
935.4159, 30.50455
935.8980, 28.05415
936.3801, 26.09805
936.8622, 24.22176
937.3444, 21.77229
937.8265, 19.18271
938.3086, 17.09236
938.7907, 15.98424
939.2728, 14.79864
939.7549, 13.26586
940.2371, 11.70544
940.7192, 10.30437
941.2013, 9.064644
941.6834, 8.154190
942.1655, 7.592293
942.6476, 7.106461
943.1298, 6.468422
943.6119, 5.793350
944.0940, 5.073982
944.5761, 4.333008
945.0582, 4.083138
945.5403, 5.325386
946.0225, 5.949867
946.5046, 4.987076
946.9867, 2.969444
947.4688, 2.136055
947.9509, 2.432739
948.4330, 2.875381
948.9152, 3.137703
949.3973, 3.249130
949.8794, 3.020180
950.3615, 2.701538
950.8436, 2.738937
951.3257, 3.730385
951.8079, 4.389442
952.2900, 4.555603
952.7721, 4.508606
953.2542, 4.539360
953.7363, 4.648895
954.2184, 4.960983
954.7006, 5.528053
955.1827, 5.786255
955.6648, 4.835190
956.1469, 3.708862
956.6290, 3.451927
957.1111, 4.292252
957.5933, 4.555031
958.0754, 3.981926
958.5575, 3.273941
959.0396, 2.733147
959.5217, 2.328415
960.0038, 2.021713
960.4860, 1.776253
960.9681, 1.398079
961.4502, 0.7125020
961.9323, 6.5361001E-02
962.4144, 1.117149
962.8965, 2.108566
963.3787, 2.262054
963.8608, 1.207062
964.3429, 0.2233200
964.8250, 0.5551760
965.3071, 1.185143
965.7892, 1.647774
966.2714, 2.034187
966.7535, 2.533241
967.2356, 3.145172
967.7177, 4.020538
968.1998, 5.426132
968.6819, 6.958511
969.1641, 8.283592
969.6462, 9.385918
970.1283, 10.68618
970.6104, 12.20390
971.0925, 13.88350
971.5746, 15.74455
972.0568, 17.74121
972.5389, 19.87270
973.0210, 22.09775
973.5031, 24.21429
973.9852, 26.01071
974.4673, 27.83746
974.9495, 29.69994
975.4316, 31.70979
975.9137, 34.00710
976.3958, 36.57758
976.8779, 39.47620
977.3600, 42.67411
977.8422, 46.36230
978.3243, 50.82798
978.8064, 55.92390
979.2885, 61.28757
979.7706, 66.69018
980.2527, 73.29951
980.7349, 81.12292
981.2170, 90.39099
981.6991, 101.2122
982.1812, 113.5153
982.6633, 126.1898
983.1454, 139.3606
983.6276, 154.3739
984.1097, 170.8215
984.5918, 190.5744
985.0739, 213.5596
985.5560, 240.9037
986.0381, 275.4094
986.5203, 313.9037
987.0024, 365.1170
987.4845, 430.0750
987.9666, 508.1339
988.4487, 602.3948
988.9308, 708.5330
989.4130, 817.4370
989.8951, 927.9678
990.3772, 1037.523
990.8593, 1141.366
991.3414, 1246.158
991.8235, 1353.200
992.3057, 1462.268
992.7878, 1591.547
993.2699, 1739.401
993.7520, 1922.194
994.2341, 2140.716
994.7162, 2406.837
995.1984, 2735.801
995.6805, 3128.054
996.1626, 3575.009
996.6447, 4082.458
997.1268, 4640.234
997.6089, 5239.188
998.0911, 5895.669
998.5732, 6677.146
999.0553, 7584.107
999.5374, 8387.960
1000.020, 9080.797
1000.502, 9367.923
1000.984, 8839.770
1001.466, 7854.329
1001.948, 6651.088
1002.430, 5239.146
1002.912, 4043.897
1003.394, 3107.412
1003.876, 2364.918
1004.359, 1814.350
1004.841, 1421.930
1005.323, 1124.309
1005.805, 909.8523
1006.287, 743.5333
1006.769, 621.9608
1007.251, 524.7117
1007.733, 448.9573
1008.216, 389.1738
1008.698, 338.2684
1009.180, 296.5818
1009.662, 260.7818
1010.144, 231.0547
1010.626, 205.7022
1011.108, 184.6736
1011.590, 166.8788
1012.072, 150.9688
1012.555, 136.7172
1013.037, 124.5642
1013.519, 115.6657
1014.001, 107.8739
1014.483, 100.5779
1014.965, 93.73042
1015.447, 87.11727
1015.929, 80.75360
1016.411, 75.10167
1016.894, 70.36288
1017.376, 66.28916
1017.858, 62.96143
1018.340, 60.08478
1018.822, 57.33710
1019.304, 54.58180
1019.786, 52.13472
1020.268, 49.99266
1020.751, 48.09781
1021.233, 46.52012
1021.715, 45.20563
1022.197, 43.86592
1022.679, 42.51805
1023.161, 41.41235
1023.643, 40.70132
1024.125, 40.23654
1024.607, 40.20747
1025.090, 40.28648
1025.572, 39.73283
1026.054, 38.49474
1026.536, 37.29837
1027.018, 36.30154
1027.500, 35.20924
1027.982, 33.56757
1028.464, 31.72907
1028.947, 30.16129
1029.429, 29.06008
1029.911, 27.60298
1030.393, 25.73248
1030.875, 23.50024
1031.357, 20.79532
1031.839, 17.82526
1032.321, 15.32748
1032.803, 13.25658
1033.286, 11.31574
1033.768, 9.366493
1034.250, 7.544205
1034.732, 5.804993
1035.214, 4.269043
1035.696, 3.168549
1036.178, 2.607529
1036.660, 1.795570
1037.143, 0.6189800
1037.625, 0.4888530
1038.107, 1.137733
1038.589, 1.513069
1039.071, 1.788307
1039.553, 1.989944
1040.035, 2.212166
1040.517, 2.566566
1041.000, 2.789604
1041.482, 2.734360
1041.964, 2.569832
1042.446, 2.808441
1042.928, 3.317612
1043.410, 3.585365
1043.892, 3.531914
1044.374, 3.002151
1044.856, 1.430161
1045.339, 0.3232880
1045.821, 1.441010
1046.303, 1.786629
1046.785, 2.445534
1047.267, 3.442734
1047.749, 4.513802
1048.231, 5.363647
1048.713, 6.247551
1049.195, 7.535004
1049.677, 9.133415
1050.160, 10.74046
1050.642, 12.12283
1051.124, 13.73235
1051.606, 15.65116
1052.088, 17.76543
1052.570, 19.96590
1053.052, 22.22758
1053.534, 24.21840
1054.017, 25.88212
1054.499, 27.91013
1054.981, 31.06626
1055.463, 34.43267
1055.945, 37.45628
1056.427, 40.17291
1056.909, 42.73762
1057.391, 45.15395
1057.874, 47.46033
1058.356, 49.75757
1058.838, 51.78300
1059.320, 53.29424
1059.802, 54.33025
1060.284, 54.95287
1060.766, 55.07912
1061.248, 55.10406
1061.730, 55.07932
1062.213, 54.83769
1062.695, 54.36105
1063.177, 53.58360
1063.659, 52.16881
1064.141, 50.16650
1064.623, 47.89501
1065.105, 45.39968
1065.587, 42.71989
1066.070, 39.76590
1066.552, 36.74641
1067.034, 33.81173
1067.516, 30.91942
1067.998, 28.48268
1068.480, 26.64244
1068.962, 24.86678
1069.444, 22.68349
1069.927, 20.34833
1070.409, 17.85694
1070.891, 15.29597
1071.373, 13.59840
1071.855, 13.11929
1072.337, 12.54665
1072.819, 11.39774
1073.301, 10.03947
1073.783, 9.035637
1074.266, 8.327522
1074.748, 7.749718
1075.230, 7.146912
1075.712, 6.999504
1076.194, 7.688972
1076.676, 8.591629
1077.158, 9.544357
1077.640, 10.45905
1078.122, 10.20599
1078.604, 8.932526
1079.087, 7.891869
1079.569, 7.823151
1080.051, 8.165260
1080.533, 8.664276
1081.015, 9.344803
1081.497, 10.18161
1081.979, 11.06432
1082.461, 12.64210
1082.944, 15.01694
1083.426, 17.66917
1083.908, 20.04765
1084.390, 22.42573
1084.872, 25.01530
1085.354, 27.87783
1085.836, 31.31350
1086.318, 35.51079
1086.801, 40.02960
1087.283, 44.68165
1087.765, 49.75059
1088.247, 55.97495
1088.729, 63.04133
1089.211, 69.86476
1089.693, 76.03954
1090.175, 83.12406
1090.657, 92.18017
1091.140, 101.9793
1091.622, 111.6913
1092.104, 121.4825
1092.586, 132.6597
1093.068, 145.2587
1093.550, 159.0386
1094.032, 174.2012
1094.514, 190.2419
1094.997, 207.2297
1095.479, 224.6238
1095.961, 242.3116
1096.443, 261.5990
1096.925, 276.7749
1097.407, 287.7253
1097.889, 295.7301
1098.371, 303.2516
1098.854, 307.3021
1099.336, 303.3640
1099.818, 292.3884
1100.300, 278.3336
1100.782, 261.2035
1101.264, 242.3196
1101.746, 221.4462
1102.228, 200.1039
1102.710, 179.9721
1103.193, 161.2128
1103.675, 143.5952
1104.157, 127.1949
1104.639, 112.4620
1105.121, 99.62964
1105.603, 88.44157
1106.085, 78.82506
1106.567, 70.48623
1107.049, 62.77200
1107.531, 55.59071
1108.014, 49.02579
1108.496, 42.99366
1108.978, 37.50027
1109.460, 32.52147
1109.942, 28.09302
1110.424, 24.35353
1110.906, 21.26219
1111.388, 18.46464
1111.871, 15.96440
1112.353, 13.71105
1112.835, 11.71096
1113.317, 9.906898
1113.799, 8.243835
1114.281, 6.766365
1114.763, 5.553352
1115.245, 4.973946
1115.728, 3.855789
1116.210, 2.000549
1116.692, 0.2779390
1117.174, 0.3912510
1117.656, 0.5140000
1118.138, 1.037949
1118.620, 1.869926
1119.102, 2.525589
1119.584, 2.711800
1120.067, 2.889023
1120.549, 3.177109
1121.031, 3.415733
1121.513, 3.432381
1121.995, 3.216942
1122.477, 2.598892
1122.959, 1.574150
1123.441, 0.8102570
1123.924, 1.090630
1124.406, 1.224640
1124.888, 0.7057110
1125.370, 0.3130490
1125.852, 1.487442
1126.334, 2.808723
1126.816, 4.053482
1127.298, 5.107956
1127.781, 6.381538
1128.263, 8.338249
1128.745, 10.51619
1129.227, 12.52946
1129.709, 14.38635
1130.191, 16.28023
1130.673, 18.19486
1131.155, 20.68336
1131.637, 24.17957
1132.120, 28.00171
1132.602, 31.27672
1133.084, 34.51596
1133.566, 38.36435
1134.048, 43.03431
1134.530, 47.88805
1135.012, 52.82016
1135.494, 58.42957
1135.976, 65.33687
1136.458, 73.10590
1136.941, 80.87806
1137.423, 88.88583
1137.905, 97.65889
1138.387, 107.6419
1138.869, 118.0999
1139.351, 128.7138
1139.833, 140.2087
1140.315, 153.0241
1140.798, 167.1999
1141.280, 182.8436
1141.762, 200.0349
1142.244, 218.3414
1142.726, 237.6189
1143.208, 258.4052
1143.690, 281.5110
1144.172, 305.3870
1144.655, 329.2428
1145.137, 352.0322
1145.619, 371.8143
1146.101, 388.2437
1146.583, 399.3493
1147.065, 405.4497
1147.547, 404.1121
1148.029, 394.3929
1148.511, 377.3460
1148.994, 354.4018
1149.476, 326.0822
1149.958, 296.7361
1150.440, 266.7192
1150.922, 237.8039
1151.404, 210.2783
1151.886, 185.0864
1152.368, 162.8720
1152.851, 143.4938
1153.333, 126.8123
1153.815, 112.8405
1154.297, 100.8860
1154.779, 91.05009
1155.261, 82.31155
1155.743, 73.70294
1156.225, 65.97474
1156.708, 60.38628
1157.190, 57.18053
1157.672, 53.51361
1158.154, 49.24915
1158.636, 45.68915
1159.118, 43.93974
1159.600, 42.90715
1160.082, 41.44150
1160.564, 39.81569
1161.047, 38.51822
1161.529, 37.67916
1162.011, 37.02020
1162.493, 36.57425
1162.975, 36.16924
1163.457, 35.62920
1163.939, 35.06979
1164.421, 34.62150
1164.903, 34.29719
1165.385, 34.53408
1165.868, 35.06502
1166.350, 35.57960
1166.832, 35.98848
1167.314, 36.54558
1167.796, 37.60727
1168.278, 38.94553
1168.760, 40.10043
1169.242, 41.09824
1169.725, 42.21223
1170.207, 43.84302
1170.689, 44.93176
1171.171, 45.04739
1171.653, 45.09529
1172.135, 46.41422
1172.617, 48.60678
1173.099, 50.76121
1173.582, 52.50211
1174.064, 54.23415
1174.546, 55.84979
1175.028, 57.76738
1175.510, 60.33858
1175.992, 62.95634
1176.474, 64.03651
1176.956, 64.14040
1177.438, 64.86673
1177.921, 66.55686
1178.403, 68.47276
1178.885, 70.86814
1179.367, 72.79057
1179.849, 73.83562
1180.331, 74.17265
1180.813, 74.23425
1181.295, 74.01544
1181.778, 73.49055
1182.260, 72.64462
1182.742, 71.52716
1183.224, 69.82668
1183.706, 68.18763
1184.188, 67.03114
1184.670, 66.22525
1185.152, 65.10922
1185.635, 63.72733
1186.117, 62.28355
1186.599, 60.96591
1187.081, 59.37306
1187.563, 57.08192
1188.045, 54.63786
1188.527, 52.39080
1189.009, 50.36162
1189.491, 48.77433
1189.974, 47.53719
1190.456, 45.96932
1190.938, 43.47948
1191.420, 40.93274
1191.902, 38.84035
1192.384, 36.81018
1192.866, 34.36488
1193.348, 31.48331
1193.830, 28.89676
1194.313, 26.58565
1194.795, 24.49460
1195.277, 22.66215
1195.759, 20.95589
1196.241, 19.24902
1196.723, 17.70193
1197.205, 16.66001
1197.687, 16.15740
1198.169, 15.00224
1198.652, 13.16892
1199.134, 11.32262
1199.616, 9.842628
1200.098, 8.594002
1200.580, 7.545471
1201.062, 6.673004
1201.544, 5.981606
1202.026, 5.480431
1202.509, 4.741890
1202.991, 3.728020
1203.473, 2.881393
1203.955, 2.700325
1204.437, 2.607521
1204.919, 2.285652
1205.401, 1.748993
1205.883, 0.9217760
1206.365, 0.2185440
1206.848, 0.7404400
1207.330, 0.4903340
1207.812, 0.1834260
1208.294, 0.5394970
1208.776, 0.8759160
1209.258, 0.7012940
1209.740, 0.1187740
1210.222, 0.6745150
1210.705, 1.689613
1211.187, 2.273239
1211.669, 2.233902
1212.151, 2.408684
1212.633, 3.865631
1213.115, 5.324211
1213.597, 5.768463
1214.079, 5.493965
1214.562, 5.317276
1215.044, 4.918442
1215.526, 4.874374
1216.008, 4.447388
1216.490, 4.492950
1216.972, 4.073349
1217.454, 3.313141
1217.936, 3.113770
1218.418, 3.064423
1218.901, 2.625275
1219.383, 2.297775
1219.865, 1.999146
1220.347, 1.254730
1220.829, 0.6662450
1221.311, 0.8492890
1221.793, 0.6082310
1222.275, 0.0000000E+00
##END=



