##NAMES=Heinrichite
##RRUFFID=R060254
##IDEAL CHEMISTRY=Ba(U^6+^O_2_)_2_(As^5+^O_4_)_2_&#183;10H_2_O
##LOCALITY=White King mine, 14 miles northwest of Lakeview, Lake County, Oregon, USA
##OWNER=RRUFF
##SOURCE=Michael Scott
##DESCRIPTION=Pale yellow scaly aggregates
##STATUS=The identification of this mineral is not yet confirmed.
##URL=rruff.info/R060254
116.1212, 0.0000000E+00
116.6033, 3.298523
117.0854, 3.891357
117.5675, 0.1076660
118.0496, 0.1612550
118.5317, 3.283569
119.0139, 4.977844
119.4960, 2.428162
119.9781, 0.9965820
120.4602, 2.236877
120.9423, 5.283508
121.4244, 9.415039
121.9066, 12.52142
122.3887, 14.97937
122.8708, 14.84174
123.3529, 9.926880
123.8350, 4.992615
124.3171, 2.450256
124.7993, 2.280762
125.2814, 2.723328
125.7635, 1.892639
126.2456, 0.6578980
126.7277, 1.907349
127.2098, 1.182129
127.6920, 0.5747680
128.1741, 2.468811
128.6562, 4.336365
129.1383, 6.235168
129.6204, 8.663818
130.1025, 11.58997
130.5847, 13.36884
131.0668, 12.80731
131.5489, 10.45447
132.0310, 8.086609
132.5131, 5.414429
132.9952, 3.658386
133.4774, 3.658875
133.9595, 5.429932
134.4416, 8.313110
134.9237, 12.52026
135.4058, 18.56757
135.8879, 22.47070
136.3701, 21.11670
136.8522, 18.87207
137.3343, 18.23053
137.8164, 19.80286
138.2985, 22.41455
138.7806, 24.18115
139.2628, 25.15033
139.7449, 24.98676
140.2270, 21.97107
140.7091, 18.78070
141.1912, 18.13037
141.6733, 21.23755
142.1555, 26.89252
142.6376, 30.92242
143.1197, 31.13666
143.6018, 32.03973
144.0839, 34.00122
144.5660, 36.96271
145.0482, 40.89319
145.5303, 45.85693
146.0124, 51.70032
146.4945, 57.40253
146.9766, 63.43689
147.4587, 68.89801
147.9409, 73.81293
148.4230, 77.99292
148.9051, 80.42444
149.3872, 79.39526
149.8693, 75.90106
150.3514, 75.60461
150.8336, 82.11639
151.3157, 89.70355
151.7978, 93.09540
152.2799, 91.83759
152.7620, 89.00085
153.2441, 86.78680
153.7263, 84.59210
154.2084, 81.10101
154.6905, 74.59235
155.1726, 66.70551
155.6547, 61.38806
156.1368, 60.30750
156.6190, 58.84583
157.1011, 53.62476
157.5832, 46.24762
158.0653, 39.74780
158.5474, 36.15076
159.0295, 35.29120
159.5117, 35.03888
159.9938, 36.15546
160.4759, 37.15210
160.9580, 37.03149
161.4401, 36.24628
161.9222, 35.98425
162.4044, 37.36987
162.8865, 40.64996
163.3686, 44.23718
163.8507, 48.57465
164.3328, 52.83673
164.8149, 56.23438
165.2971, 59.00061
165.7792, 62.26862
166.2613, 67.77301
166.7434, 77.68982
167.2255, 82.96802
167.7076, 79.22034
168.1898, 74.53021
168.6719, 74.95636
169.1540, 81.58240
169.6361, 90.85083
170.1182, 97.99713
170.6003, 102.5702
171.0825, 105.6519
171.5646, 106.6589
172.0467, 106.2601
172.5288, 106.3177
173.0109, 107.4769
173.4930, 109.8915
173.9752, 114.3756
174.4573, 121.0200
174.9394, 127.6827
175.4215, 133.6745
175.9036, 139.3455
176.3857, 145.5131
176.8679, 152.9289
177.3500, 159.7603
177.8321, 163.0773
178.3142, 162.4845
178.7963, 163.0909
179.2784, 169.2757
179.7606, 180.2535
180.2427, 189.1949
180.7248, 193.5361
181.2069, 195.6372
181.6890, 197.0439
182.1711, 197.8089
182.6533, 199.4193
183.1354, 204.6251
183.6175, 214.3338
184.0996, 220.4378
184.5817, 218.1374
185.0638, 213.3169
185.5460, 208.6946
186.0281, 204.8920
186.5102, 201.6469
186.9923, 199.0875
187.4744, 198.4559
187.9565, 194.9988
188.4387, 186.9485
188.9208, 177.2061
189.4029, 167.4730
189.8850, 158.3037
190.3671, 149.6359
190.8492, 140.8755
191.3314, 130.8865
191.8135, 123.0140
192.2956, 119.2236
192.7777, 116.5164
193.2598, 112.2098
193.7419, 105.4089
194.2241, 96.92163
194.7062, 88.93805
195.1883, 79.90765
195.6704, 73.62085
196.1525, 72.11530
196.6346, 72.65289
197.1168, 72.36401
197.5989, 70.03485
198.0810, 66.19403
198.5631, 62.43848
199.0452, 58.37982
199.5273, 54.42950
200.0095, 50.14081
200.4916, 46.15039
200.9737, 43.27277
201.4558, 41.82660
201.9379, 41.78308
202.4200, 43.45734
202.9022, 49.00507
203.3843, 52.37421
203.8664, 49.27167
204.3485, 42.02692
204.8306, 37.48608
205.3127, 39.63190
205.7949, 45.08759
206.2770, 46.09033
206.7591, 40.72791
207.2412, 35.49048
207.7233, 34.76685
208.2054, 37.82349
208.6876, 39.99567
209.1697, 38.38593
209.6518, 35.73761
210.1339, 36.34406
210.6160, 41.31897
211.0981, 46.78400
211.5803, 48.82697
212.0624, 47.42883
212.5445, 47.89594
213.0266, 54.18793
213.5087, 61.94684
213.9908, 67.07172
214.4730, 68.74402
214.9551, 68.92834
215.4372, 69.54706
215.9193, 70.66010
216.4014, 71.85822
216.8836, 72.52203
217.3657, 73.53918
217.8478, 75.99329
218.3299, 80.17188
218.8120, 84.44580
219.2941, 86.89813
219.7763, 87.75470
220.2584, 85.84692
220.7405, 79.88788
221.2226, 71.94495
221.7047, 62.99811
222.1868, 53.36914
222.6690, 43.34503
223.1511, 32.78821
223.6332, 19.50110
224.1153, 10.97437
224.5974, 11.64130
225.0795, 14.16364
225.5617, 12.61920
226.0438, 5.569092
226.5259, 3.312866
227.0080, 7.463562
227.4901, 3.679626
227.9722, 0.6754150
228.4544, 0.6463010
228.9365, 1.548706
229.4186, 3.210571
229.9007, 5.886658
230.3828, 8.713623
230.8649, 10.18976
231.3471, 9.886414
231.8292, 8.673828
232.3113, 5.541260
232.7934, 2.166626
233.2755, 0.2894290
233.7576, 1.440430
234.2398, 1.345703
234.7219, 8.8561997E-02
235.2040, 4.431335
235.6861, 6.980591
236.1682, 6.570129
236.6503, 5.078064
237.1325, 3.957764
237.6146, 3.628723
238.0967, 3.957886
238.5788, 4.878479
239.0609, 7.033142
239.5430, 8.189697
240.0252, 6.954102
240.5073, 5.331177
240.9894, 5.720764
241.4715, 8.682190
241.9536, 12.22083
242.4357, 13.63788
242.9179, 12.47272
243.4000, 11.09930
243.8821, 10.11908
244.3642, 8.855164
244.8463, 5.975891
245.3284, 1.091614
245.8106, 3.481873
246.2927, 4.807678
246.7748, 2.817444
247.2569, 0.2128300
247.7390, 3.717834
248.2211, 7.601563
248.7033, 9.834229
249.1854, 10.14685
249.6675, 9.024963
250.1496, 5.999634
250.6317, 1.443420
251.1138, 1.661377
251.5960, 1.780762
252.0781, 0.5186160
252.5602, 5.8044001E-02
253.0423, 0.7480470
253.5244, 1.328369
254.0065, 5.8228001E-02
254.4887, 2.557678
254.9708, 3.628967
255.4529, 1.072815
255.9350, 2.638123
256.4171, 3.901794
256.8992, 2.267456
257.3813, 0.2161250
257.8635, 2.478577
258.3456, 4.575928
258.8277, 6.589722
259.3098, 8.556702
259.7919, 10.42462
260.2740, 12.52130
260.7562, 15.24469
261.2383, 16.45685
261.7204, 12.40967
262.2025, 6.706482
262.6846, 3.991455
263.1667, 6.496582
263.6489, 11.44342
264.1310, 15.35419
264.6131, 18.32233
265.0952, 19.82947
265.5773, 17.89661
266.0594, 15.05688
266.5416, 13.89124
267.0237, 15.46625
267.5058, 17.91675
267.9879, 18.79449
268.4700, 17.89673
268.9521, 16.37177
269.4343, 12.86060
269.9164, 9.799255
270.3985, 9.784302
270.8806, 13.67120
271.3627, 18.31195
271.8448, 19.44916
272.3270, 16.29700
272.8091, 13.74854
273.2912, 13.42139
273.7733, 13.77911
274.2554, 13.94983
274.7375, 13.77563
275.2197, 13.60345
275.7018, 13.49963
276.1839, 13.24207
276.6660, 14.49243
277.1481, 21.41296
277.6302, 27.05505
278.1124, 26.37750
278.5945, 19.77484
279.0766, 12.54108
279.5587, 10.40167
280.0408, 14.12518
280.5229, 16.50372
281.0051, 15.40015
281.4872, 14.09210
281.9693, 14.68646
282.4514, 16.67987
282.9335, 17.94519
283.4156, 16.05939
283.8978, 10.90918
284.3799, 7.830383
284.8620, 9.319458
285.3441, 10.84473
285.8262, 10.11523
286.3083, 7.838013
286.7905, 6.040466
287.2726, 6.258301
287.7547, 8.286072
288.2368, 10.24664
288.7189, 12.77527
289.2010, 14.37964
289.6832, 14.82227
290.1653, 14.11047
290.6474, 11.99036
291.1295, 8.051025
291.6116, 2.979858
292.0938, 0.1297000
292.5759, 0.5246580
293.0580, 0.4454350
293.5401, 3.331848
294.0222, 7.043884
294.5043, 10.44843
294.9865, 13.07104
295.4686, 14.79626
295.9507, 15.24463
296.4328, 13.19391
296.9149, 12.07745
297.3970, 12.23590
297.8792, 13.30865
298.3613, 15.65723
298.8434, 19.23090
299.3255, 22.49371
299.8076, 22.29932
300.2897, 15.79645
300.7719, 12.35828
301.2540, 13.40753
301.7361, 16.39575
302.2182, 20.51434
302.7003, 25.32568
303.1824, 29.87128
303.6646, 33.15991
304.1467, 35.70862
304.6288, 37.02771
305.1109, 36.04388
305.5930, 34.82239
306.0751, 34.09442
306.5573, 33.97803
307.0394, 34.31317
307.5215, 34.91528
308.0036, 35.81055
308.4857, 37.58490
308.9678, 40.47406
309.4500, 43.93359
309.9321, 48.88354
310.4142, 54.07019
310.8963, 57.38293
311.3784, 57.21069
311.8605, 54.29718
312.3427, 53.70844
312.8248, 57.57892
313.3069, 60.72473
313.7890, 62.09857
314.2711, 62.33136
314.7532, 61.85583
315.2354, 60.74445
315.7175, 59.90137
316.1996, 62.78693
316.6817, 75.15582
317.1638, 81.85547
317.6459, 77.80127
318.1281, 69.90955
318.6102, 64.11761
319.0923, 62.35181
319.5744, 62.84534
320.0565, 62.96301
320.5386, 63.23767
321.0208, 61.75909
321.5029, 57.97504
321.9850, 53.07843
322.4671, 46.54645
322.9492, 39.01501
323.4313, 33.12189
323.9135, 32.69702
324.3956, 39.74347
324.8777, 41.95923
325.3598, 33.82922
325.8419, 25.96735
326.3240, 22.88995
326.8062, 23.67163
327.2883, 24.72852
327.7704, 23.30774
328.2525, 19.54620
328.7346, 15.79291
329.2167, 10.83490
329.6989, 7.372681
330.1810, 6.910156
330.6631, 8.134583
331.1452, 9.064941
331.6273, 8.577759
332.1094, 7.306946
332.5916, 7.485535
333.0737, 11.26990
333.5558, 12.67969
334.0379, 8.402588
334.5200, 2.843323
335.0021, 0.6553340
335.4843, 3.249817
335.9664, 7.534607
336.4485, 8.217041
336.9306, 3.629517
337.4127, 0.4083860
337.8948, 1.271057
338.3770, 1.152954
338.8591, 1.844849
339.3412, 7.346313
339.8233, 13.10303
340.3055, 17.24738
340.7876, 19.81122
341.2697, 20.22583
341.7518, 15.90057
342.2339, 11.86993
342.7160, 10.37683
343.1982, 10.76440
343.6803, 11.16547
344.1624, 10.21570
344.6445, 8.282104
345.1266, 7.327881
345.6087, 8.310669
346.0909, 8.702637
346.5730, 7.007751
347.0551, 4.565002
347.5372, 3.285583
348.0193, 4.162292
348.5014, 5.737488
348.9836, 4.880127
349.4657, 0.3999630
349.9478, 2.604797
350.4299, 1.487976
350.9120, 0.9979860
351.3941, 3.375610
351.8763, 5.250732
352.3584, 5.947571
352.8405, 3.972290
353.3226, 0.8040770
353.8047, 3.839661
354.2868, 3.643433
354.7690, 2.385132
355.2511, 1.212402
355.7332, 0.1786500
356.2153, 0.7305910
356.6974, 1.362305
357.1795, 1.850586
357.6617, 3.071716
358.1438, 6.052307
358.6259, 7.569580
359.1080, 3.915222
359.5901, 1.975220
360.0722, 5.277893
360.5544, 3.481934
361.0365, 0.7171630
361.5186, 3.766479
362.0007, 5.567444
362.4828, 6.894348
362.9649, 8.486694
363.4471, 9.436279
363.9292, 8.433289
364.4113, 4.948792
364.8934, 1.275269
365.3755, 0.8688960
365.8576, 1.674316
366.3398, 2.282837
366.8219, 3.302307
367.3040, 3.623535
367.7861, 1.129272
368.2682, 3.816467
368.7503, 6.769897
369.2325, 3.161499
369.7146, 2.737244
370.1967, 2.249634
370.6788, 6.486633
371.1609, 14.54730
371.6430, 13.51312
372.1252, 6.091187
372.6073, 1.452942
373.0894, 2.911072
373.5715, 5.845886
374.0536, 6.284180
374.5357, 4.728027
375.0179, 4.506042
375.5000, 8.044739
375.9821, 13.13586
376.4642, 14.36334
376.9463, 10.18042
377.4284, 6.300659
377.9106, 4.791931
378.3927, 4.969421
378.8748, 5.715820
379.3569, 6.746277
379.8390, 8.263916
380.3211, 10.94391
380.8033, 15.27850
381.2854, 17.60571
381.7675, 16.30713
382.2496, 13.87360
382.7317, 11.72754
383.2138, 10.17169
383.6960, 9.756592
384.1781, 11.14172
384.6602, 14.13831
385.1423, 15.99207
385.6244, 16.84393
386.1065, 16.64850
386.5887, 14.08557
387.0708, 10.69049
387.5529, 9.204590
388.0350, 10.88458
388.5171, 14.44220
388.9992, 17.11700
389.4814, 19.49731
389.9635, 19.80591
390.4456, 16.05261
390.9277, 11.58203
391.4098, 8.818726
391.8919, 8.233643
392.3741, 9.234619
392.8562, 11.45856
393.3383, 15.40131
393.8204, 17.68463
394.3025, 17.72839
394.7846, 16.82544
395.2668, 14.43097
395.7489, 11.41132
396.2310, 9.484924
396.7131, 9.810059
397.1952, 11.58972
397.6773, 12.42633
398.1595, 11.66632
398.6416, 10.99976
399.1237, 9.919495
399.6058, 9.433899
400.0879, 11.04956
400.5700, 14.85706
401.0522, 18.62860
401.5343, 19.52051
402.0164, 17.08044
402.4985, 14.34235
402.9806, 10.03070
403.4627, 6.796509
403.9449, 6.285034
404.4270, 7.820618
404.9091, 9.615601
405.3912, 10.72546
405.8733, 11.22205
406.3554, 10.94995
406.8376, 9.003113
407.3197, 8.505066
407.8018, 12.86725
408.2839, 18.37097
408.7660, 20.81512
409.2481, 18.82361
409.7303, 15.07056
410.2124, 11.82910
410.6945, 9.099976
411.1766, 6.578613
411.6587, 3.602051
412.1408, 1.733154
412.6230, 3.052002
413.1051, 7.047180
413.5872, 9.864990
414.0693, 8.807495
414.5514, 5.919861
415.0335, 4.589417
415.5157, 5.119202
415.9978, 5.928467
416.4799, 5.915894
416.9620, 5.432678
417.4441, 5.436340
417.9262, 6.570374
418.4084, 7.619812
418.8905, 7.846130
419.3726, 7.213806
419.8547, 6.090210
420.3368, 4.499390
420.8189, 2.803833
421.3011, 1.411194
421.7832, 1.8127000E-02
422.2653, 0.1831050
422.7474, 2.857544
423.2295, 6.561951
423.7116, 11.00977
424.1938, 15.72089
424.6759, 18.66437
425.1580, 18.03253
425.6401, 14.25018
426.1222, 11.86511
426.6043, 12.02399
427.0865, 11.84222
427.5686, 9.376099
428.0507, 6.491699
428.5328, 5.802490
429.0149, 8.090576
429.4970, 12.03003
429.9792, 15.42682
430.4613, 18.55927
430.9434, 20.44525
431.4255, 21.02667
431.9076, 20.67188
432.3897, 18.80487
432.8719, 16.05261
433.3540, 14.09778
433.8361, 14.37769
434.3182, 16.58801
434.8003, 18.60614
435.2824, 20.81195
435.7646, 22.15955
436.2467, 21.71167
436.7288, 20.71521
437.2109, 20.46954
437.6930, 21.38202
438.1751, 22.94983
438.6573, 24.58405
439.1394, 26.27118
439.6215, 28.33606
440.1036, 32.00116
440.5857, 34.66223
441.0678, 34.13513
441.5500, 31.12054
442.0321, 28.33398
442.5142, 27.45453
442.9963, 27.53833
443.4784, 26.37891
443.9605, 23.63062
444.4427, 22.44147
444.9248, 25.59259
445.4069, 30.72046
445.8890, 33.35815
446.3711, 32.21606
446.8532, 31.71631
447.3354, 35.88568
447.8175, 42.27509
448.2996, 45.07611
448.7817, 42.66498
449.2638, 38.71509
449.7459, 37.02600
450.2281, 37.76941
450.7102, 38.59906
451.1923, 39.34808
451.6744, 40.23309
452.1565, 41.24847
452.6386, 42.49719
453.1208, 44.38226
453.6029, 47.22180
454.0850, 50.50116
454.5671, 52.80566
455.0492, 53.29401
455.5313, 53.89691
456.0135, 54.77887
456.4956, 55.69153
456.9777, 56.43610
457.4598, 56.99268
457.9419, 57.43365
458.4240, 57.73999
458.9062, 57.90228
459.3883, 58.87317
459.8704, 62.35364
460.3525, 64.70538
460.8346, 63.09979
461.3167, 60.67346
461.7989, 62.09521
462.2810, 69.21954
462.7631, 78.01251
463.2452, 81.90320
463.7273, 80.44977
464.2094, 79.78558
464.6916, 80.72205
465.1737, 81.52271
465.6558, 80.70044
466.1379, 78.80463
466.6200, 77.95599
467.1021, 79.98444
467.5843, 83.46301
468.0664, 85.66156
468.5485, 86.49902
469.0306, 86.78558
469.5127, 86.57867
469.9948, 86.20648
470.4770, 86.33057
470.9591, 87.28601
471.4412, 87.69525
471.9233, 86.81781
472.4054, 84.96967
472.8875, 82.79816
473.3697, 80.45660
473.8518, 77.11487
474.3339, 71.53937
474.8160, 63.79901
475.2981, 57.89813
475.7802, 55.82227
476.2624, 53.46112
476.7445, 48.57574
477.2266, 42.13220
477.7087, 35.70172
478.1908, 29.82825
478.6729, 25.14917
479.1551, 22.94861
479.6372, 24.75946
480.1193, 26.44391
480.6014, 28.47614
481.0835, 29.36627
481.5656, 27.45294
482.0478, 23.70081
482.5299, 20.76184
483.0120, 20.51044
483.4941, 22.15814
483.9762, 22.63080
484.4583, 21.29144
484.9405, 20.00476
485.4226, 19.20367
485.9047, 18.55981
486.3868, 17.77179
486.8689, 16.82635
487.3510, 16.05804
487.8332, 15.85211
488.3153, 16.09851
488.7974, 16.31573
489.2795, 16.68890
489.7616, 16.79449
490.2437, 16.07446
490.7259, 15.17133
491.2080, 14.81232
491.6901, 15.48071
492.1722, 16.14410
492.6543, 15.81451
493.1364, 14.78613
493.6186, 13.32092
494.1007, 11.24255
494.5828, 9.758179
495.0649, 10.51172
495.5470, 13.77380
496.0291, 16.44061
496.5113, 19.47260
496.9934, 20.91394
497.4755, 18.47687
497.9576, 13.54718
498.4397, 9.483032
498.9218, 7.940918
499.4040, 7.921387
499.8861, 7.177673
500.3682, 4.561584
500.8503, 3.402039
501.3324, 4.634644
501.8145, 6.338196
502.2967, 7.574524
502.7788, 8.225830
503.2609, 8.425415
503.7430, 8.190796
504.2251, 7.662659
504.7072, 7.414978
505.1894, 7.593872
505.6715, 7.753357
506.1536, 8.229980
506.6357, 8.371948
507.1178, 7.121338
507.5999, 4.495178
508.0821, 2.616577
508.5642, 4.187134
509.0463, 7.692871
509.5284, 8.172668
510.0105, 4.662781
510.4926, 1.163696
510.9748, 8.3619999E-03
511.4569, 0.7229610
511.9390, 2.065063
512.4211, 4.645630
512.9032, 6.704834
513.3853, 6.575989
513.8674, 5.547424
514.3495, 6.510742
514.8317, 10.10559
515.3138, 13.00336
515.7959, 11.33881
516.2780, 4.600220
516.7601, 1.087769
517.2422, 2.310486
517.7244, 4.486389
518.2065, 7.735535
518.6886, 10.68677
519.1707, 11.46759
519.6528, 9.449219
520.1349, 5.523376
520.6171, 0.1687010
521.0992, 8.201050
521.5813, 11.48358
522.0634, 3.555420
522.5455, 3.564819
523.0276, 4.858887
523.5098, 2.292419
523.9919, 0.1541750
524.4740, 0.8230590
524.9561, 0.3836060
525.4382, 0.4974980
525.9203, 1.836609
526.4025, 2.602783
526.8846, 2.386780
527.3667, 1.725708
527.8488, 0.5852050
528.3309, 0.7496340
528.8130, 0.4965820
529.2952, 3.776611
529.7773, 8.052917
530.2594, 8.286682
530.7415, 5.271545
531.2236, 2.361206
531.7057, 0.9248050
532.1879, 0.6409910
532.6700, 0.9874270
533.1521, 2.359985
533.6342, 3.488983
534.1163, 4.333832
534.5984, 4.944519
535.0806, 5.912018
535.5627, 6.711151
536.0448, 5.519806
536.5269, 0.9295960
537.0090, 5.194916
537.4911, 6.882019
537.9733, 1.984528
538.4554, 2.623505
538.9375, 7.768188
539.4196, 11.08716
539.9017, 9.773773
540.3839, 4.809814
540.8660, 0.6446230
541.3481, 0.4223630
541.8302, 2.769379
542.3123, 4.861389
542.7944, 6.708313
543.2766, 8.085938
543.7587, 9.083344
544.2408, 9.386047
544.7229, 8.605225
545.2050, 6.683563
545.6871, 4.222412
546.1693, 0.3603520
546.6514, 4.262085
547.1335, 3.121460
547.6156, 2.410278
548.0977, 6.498535
548.5798, 5.196808
549.0620, 0.5191040
549.5441, 0.7233280
550.0262, 5.826202
550.5083, 10.07724
550.9904, 10.52591
551.4725, 9.767883
551.9547, 9.503082
552.4368, 9.906158
552.9189, 10.51474
553.4010, 11.06747
553.8831, 11.46646
554.3652, 11.26569
554.8474, 10.29074
555.3295, 9.224335
555.8116, 7.876129
556.2937, 6.700745
556.7758, 5.920471
557.2579, 5.615326
557.7401, 6.092712
558.2222, 8.479736
558.7043, 11.39651
559.1864, 11.97440
559.6685, 10.11981
560.1506, 9.061707
560.6328, 11.12320
561.1149, 14.22507
561.5970, 13.10349
562.0791, 5.864624
562.5612, 1.284393
563.0433, 2.892395
563.5255, 6.342041
564.0076, 8.405090
564.4897, 8.862335
564.9718, 8.580261
565.4539, 7.997925
565.9360, 7.273743
566.4182, 7.066071
566.9003, 8.422028
567.3824, 8.265778
567.8645, 4.619537
568.3466, 1.078857
568.8287, 0.2410280
569.3109, 1.675079
569.7930, 3.114075
570.2751, 2.951355
570.7572, 2.121826
571.2393, 2.857056
571.7214, 5.328064
572.2036, 7.215118
572.6857, 7.422974
573.1678, 7.114471
573.6499, 8.009735
574.1320, 10.06909
574.6141, 10.98596
575.0963, 8.927032
575.5784, 6.427002
576.0605, 5.809509
576.5426, 6.697174
577.0247, 7.508820
577.5068, 7.517883
577.9890, 7.172485
578.4711, 7.379059
578.9532, 8.339783
579.4353, 7.845764
579.9174, 4.345245
580.3995, 2.207123
580.8817, 5.031189
581.3638, 10.41119
581.8459, 13.48892
582.3280, 11.86566
582.8101, 7.906860
583.2922, 5.163666
583.7744, 3.691620
584.2565, 2.530182
584.7386, 1.770599
585.2207, 0.9641720
585.7029, 0.7604680
586.1850, 2.831360
586.6671, 3.500000
587.1492, 1.504730
587.6313, 0.8802490
588.1135, 1.545166
588.5956, 1.409882
589.0777, 3.172668
589.5598, 7.578949
590.0419, 11.73038
590.5240, 12.31451
591.0062, 9.130035
591.4883, 7.184753
591.9704, 7.543396
592.4525, 7.707367
592.9346, 6.924408
593.4167, 5.675385
593.8989, 4.293427
594.3810, 2.973572
594.8631, 1.853149
595.3452, 1.926636
595.8273, 3.391907
596.3094, 4.086121
596.7916, 3.363312
597.2737, 2.951721
597.7558, 4.449036
598.2379, 6.241150
598.7200, 6.077148
599.2021, 3.483673
599.6843, 1.695496
600.1664, 3.507782
600.6485, 6.497986
601.1306, 6.568268
601.6127, 3.825073
602.0948, 2.316620
602.5770, 4.706818
603.0591, 9.333679
603.5412, 11.57510
604.0233, 9.510498
604.5054, 7.687836
604.9875, 6.297821
605.4697, 5.738800
605.9518, 6.231476
606.4339, 7.430725
606.9160, 8.563171
607.3981, 9.202850
607.8802, 9.561523
608.3624, 9.320068
608.8445, 8.290344
609.3266, 8.370880
609.8087, 11.17657
610.2908, 13.45197
610.7729, 12.42584
611.2551, 8.963318
611.7372, 5.546570
612.2193, 2.173187
612.7014, 0.1888120
613.1835, 0.2479250
613.6656, 1.127991
614.1478, 2.090393
614.6299, 2.188538
615.1120, 1.879333
615.5941, 1.530273
616.0762, 1.138245
616.5583, 1.534729
617.0405, 3.806305
617.5226, 5.508301
618.0047, 5.710266
618.4868, 5.490356
618.9689, 5.916687
619.4510, 7.129242
619.9332, 8.601410
620.4153, 10.44278
620.8974, 12.09076
621.3795, 10.47748
621.8616, 4.572723
622.3438, 0.9295650
622.8259, 2.947571
623.3080, 7.621704
623.7901, 11.30112
624.2722, 14.04077
624.7543, 15.32465
625.2365, 13.65869
625.7186, 11.62384
626.2007, 11.73288
626.6828, 13.26041
627.1649, 13.76813
627.6470, 12.13879
628.1292, 10.04733
628.6113, 10.56522
629.0934, 14.82239
629.5755, 16.93124
630.0576, 14.85953
630.5397, 12.63626
631.0219, 11.36804
631.5040, 10.71396
631.9861, 10.10385
632.4682, 9.369812
632.9503, 8.700073
633.4324, 8.436493
633.9146, 8.384888
634.3967, 7.754883
634.8788, 6.415741
635.3609, 5.226563
635.8430, 4.603516
636.3251, 4.535248
636.8073, 5.133301
637.2894, 6.924774
637.7715, 8.064545
638.2536, 6.995026
638.7357, 6.160492
639.2178, 8.460327
639.7000, 12.80804
640.1821, 15.82629
640.6642, 15.54218
641.1463, 13.05664
641.6284, 10.78241
642.1105, 8.732605
642.5927, 7.159668
643.0748, 6.008575
643.5569, 5.524567
644.0390, 5.931702
644.5211, 6.859650
645.0032, 8.009125
645.4854, 9.649017
645.9675, 10.57187
646.4496, 9.279694
646.9317, 6.975891
647.4138, 6.162537
647.8959, 7.160797
648.3781, 8.030243
648.8602, 6.887512
649.3423, 4.205475
649.8244, 2.977966
650.3065, 5.116272
650.7886, 6.070801
651.2708, 4.355316
651.7529, 2.198364
652.2350, 0.5091250
652.7171, 8.7890998E-02
653.1992, 2.080475
653.6813, 9.053467
654.1635, 16.28207
654.6456, 15.06805
655.1277, 6.423462
655.6098, 2.269684
656.0919, 5.635223
656.5740, 10.64365
657.0562, 12.72308
657.5383, 12.19720
658.0204, 11.91953
658.5025, 12.85693
658.9846, 12.82312
659.4667, 10.18347
659.9489, 6.869781
660.4310, 4.720367
660.9131, 4.035156
661.3952, 4.438477
661.8773, 5.741333
662.3594, 7.767212
662.8416, 10.14767
663.3237, 13.28360
663.8058, 15.32578
664.2879, 15.77899
664.7700, 15.16452
665.2521, 13.86841
665.7343, 12.20972
666.2164, 10.20752
666.6985, 6.639984
667.1806, 3.635406
667.6627, 3.078674
668.1448, 4.464417
668.6270, 7.582031
669.1091, 12.20010
669.5912, 15.88425
670.0733, 15.94153
670.5554, 12.78943
671.0375, 9.705688
671.5197, 5.868011
672.0018, 3.674133
672.4839, 3.981903
672.9660, 5.293732
673.4481, 7.037476
673.9302, 8.878540
674.4124, 10.21664
674.8945, 10.67575
675.3766, 10.59634
675.8587, 9.832031
676.3408, 8.774017
676.8229, 9.867279
677.3051, 13.74683
677.7872, 17.18466
678.2693, 17.11316
678.7514, 13.90591
679.2335, 12.19186
679.7156, 13.04813
680.1978, 13.49564
680.6799, 13.14615
681.1620, 12.50528
681.6441, 11.75021
682.1262, 11.04788
682.6083, 10.75021
683.0905, 11.11682
683.5726, 12.00018
684.0547, 13.61102
684.5368, 15.88474
685.0189, 15.09656
685.5010, 9.334015
685.9832, 3.297546
686.4653, 0.7056270
686.9474, 1.192810
687.4295, 2.450531
687.9116, 4.597534
688.3937, 7.272034
688.8759, 12.13474
689.3580, 16.31519
689.8401, 15.95190
690.3222, 11.69247
690.8043, 7.637604
691.2864, 6.451263
691.7686, 7.190918
692.2507, 7.623230
692.7328, 7.643433
693.2149, 8.170166
693.6970, 10.21484
694.1791, 11.49792
694.6613, 9.236572
695.1434, 5.187469
695.6255, 3.541840
696.1076, 6.619751
696.5897, 8.686096
697.0718, 5.514862
697.5540, 0.8431700
698.0361, 0.6889040
698.5182, 0.9764710
699.0003, 3.519745
699.4824, 5.652863
699.9645, 7.005554
700.4467, 6.208160
700.9288, 2.132935
701.4109, 0.1624450
701.8930, 1.843262
702.3751, 4.204956
702.8572, 6.451904
703.3394, 8.154816
703.8215, 8.515747
704.3036, 7.217621
704.7857, 5.219604
705.2678, 1.751617
705.7499, 1.356720
706.2321, 0.5246890
706.7142, 3.567505
707.1963, 5.968170
707.6784, 3.907013
708.1605, 5.5388998E-02
708.6426, 2.7434999E-02
709.1248, 5.283081
709.6069, 8.489227
710.0890, 8.355957
710.5711, 7.495880
711.0532, 6.918579
711.5353, 6.164246
712.0175, 4.099640
712.4996, 0.4037480
712.9817, 2.119507
713.4638, 0.9331360
713.9459, 1.980469
714.4280, 3.947693
714.9102, 4.943939
715.3923, 5.627197
715.8744, 6.267242
716.3565, 6.627930
716.8386, 6.114655
717.3207, 4.304382
717.8029, 4.729034
718.2850, 11.33447
718.7671, 15.19836
719.2492, 11.56848
719.7313, 6.060150
720.2134, 4.920471
720.6956, 8.464203
721.1777, 11.12237
721.6598, 9.181885
722.1419, 4.867371
722.6240, 0.3992610
723.1061, 5.773773
723.5883, 7.394775
724.0704, 3.960175
724.5525, 1.068726
725.0346, 4.348450
725.5167, 5.882019
725.9988, 5.418762
726.4810, 2.4261000E-02
726.9631, 3.151306
727.4452, 1.229370
727.9273, 1.685272
728.4094, 2.022156
728.8915, 0.4176640
729.3737, 0.3739320
729.8558, 4.536255
730.3379, 9.163147
730.8200, 9.685638
731.3021, 7.514984
731.7842, 7.013733
732.2664, 8.896301
732.7485, 9.743500
733.2306, 6.648987
733.7127, 0.8693540
734.1948, 2.549500
734.6769, 1.737091
735.1591, 1.957733
735.6412, 5.227997
736.1233, 7.609833
736.6054, 6.457977
737.0875, 3.133881
737.5696, 0.1955570
738.0518, 1.605438
738.5339, 2.673096
739.0160, 3.387268
739.4981, 3.572540
739.9802, 2.614197
740.4623, 0.6314090
740.9445, 1.369995
741.4266, 3.038239
741.9087, 3.692566
742.3908, 1.710358
742.8729, 4.223663
743.3550, 7.108704
743.8372, 3.781158
744.3193, 0.9514770
744.8014, 0.9375310
745.2835, 2.211304
745.7656, 3.164276
746.2477, 3.537903
746.7299, 3.754944
747.2120, 3.907440
747.6941, 4.143860
748.1762, 4.437988
748.6583, 4.954376
749.1404, 6.774139
749.6226, 10.17398
750.1047, 12.43005
750.5868, 10.31644
751.0689, 4.438965
751.5510, 1.499908
752.0331, 3.326691
752.5153, 4.601593
752.9974, 2.962463
753.4795, 1.796082
753.9616, 4.135315
754.4437, 8.836823
754.9258, 12.22424
755.4080, 12.79764
755.8901, 12.30661
756.3722, 11.56552
756.8543, 10.91071
757.3364, 11.09140
757.8185, 11.94287
758.3007, 12.26987
758.7828, 11.21878
759.2649, 9.478424
759.7470, 8.526855
760.2291, 8.212799
760.7112, 9.398743
761.1934, 12.88507
761.6755, 16.61237
762.1576, 19.62708
762.6397, 22.33463
763.1218, 25.50735
763.6039, 29.38110
764.0861, 31.60120
764.5682, 30.01648
765.0503, 27.69901
765.5324, 26.35120
766.0145, 26.20233
766.4966, 28.38535
766.9788, 33.04480
767.4609, 37.63553
767.9430, 39.75809
768.4251, 39.73126
768.9072, 38.50946
769.3893, 35.32715
769.8715, 35.24783
770.3536, 41.17123
770.8357, 47.91412
771.3178, 50.65320
771.7999, 50.22845
772.2820, 50.50330
772.7642, 51.80060
773.2463, 53.59155
773.7284, 56.22513
774.2105, 58.91385
774.6926, 60.23178
775.1747, 60.95898
775.6569, 63.60779
776.1390, 69.57288
776.6211, 76.62384
777.1032, 81.77100
777.5853, 85.29370
778.0674, 88.69113
778.5496, 92.00143
779.0317, 95.85339
779.5138, 100.9083
779.9959, 106.1447
780.4780, 109.2109
780.9601, 108.5150
781.4423, 111.4857
781.9244, 120.8477
782.4065, 131.1364
782.8886, 141.9783
783.3707, 151.5335
783.8528, 156.8671
784.3350, 158.3712
784.8171, 160.9683
785.2992, 168.6231
785.7813, 178.6338
786.2634, 187.6532
786.7455, 195.8713
787.2277, 203.9831
787.7098, 212.1610
788.1919, 220.6886
788.6740, 229.7104
789.1561, 239.2638
789.6382, 249.3198
790.1204, 259.1014
790.6025, 271.1381
791.0846, 287.1133
791.5667, 303.6459
792.0488, 319.7551
792.5309, 335.3158
793.0131, 349.6934
793.4952, 362.4670
793.9773, 375.2228
794.4594, 387.1617
794.9415, 401.1848
795.4236, 421.1576
795.9058, 444.9999
796.3879, 468.2404
796.8700, 489.4590
797.3521, 509.4596
797.8342, 528.4585
798.3163, 547.3677
798.7985, 571.4561
799.2806, 601.6210
799.7627, 632.3301
800.2448, 663.1082
800.7269, 693.4775
801.2090, 722.2802
801.6912, 750.1783
802.1733, 780.8420
802.6554, 814.9801
803.1375, 850.8469
803.6196, 889.0554
804.1017, 927.8868
804.5839, 966.1451
805.0660, 1003.873
805.5481, 1041.164
806.0302, 1078.279
806.5123, 1114.715
806.9944, 1150.606
807.4766, 1185.313
807.9587, 1216.218
808.4408, 1243.737
808.9229, 1274.743
809.4050, 1312.223
809.8871, 1350.022
810.3693, 1380.460
810.8514, 1403.642
811.3335, 1429.416
811.8156, 1460.471
812.2977, 1489.758
812.7798, 1518.109
813.2620, 1542.859
813.7441, 1560.053
814.2262, 1572.116
814.7083, 1586.663
815.1904, 1608.381
815.6725, 1626.042
816.1547, 1636.090
816.6368, 1636.949
817.1189, 1625.313
817.6010, 1602.802
818.0831, 1575.454
818.5652, 1545.741
819.0474, 1508.702
819.5295, 1456.868
820.0116, 1391.303
820.4937, 1321.119
820.9758, 1245.856
821.4579, 1168.183
821.9401, 1086.824
822.4222, 1007.081
822.9043, 933.7959
823.3864, 867.2689
823.8685, 802.1712
824.3506, 735.9999
824.8328, 675.1544
825.3149, 622.2261
825.7970, 573.5389
826.2791, 526.1255
826.7612, 480.5601
827.2433, 438.6340
827.7255, 400.8392
828.2076, 366.5268
828.6897, 335.1334
829.1718, 306.7936
829.6539, 282.4960
830.1360, 261.6825
830.6182, 241.2648
831.1003, 220.1303
831.5824, 200.7301
832.0645, 186.4370
832.5466, 176.7499
833.0287, 166.5836
833.5109, 155.9631
833.9930, 144.7664
834.4751, 131.9272
834.9572, 119.8192
835.4393, 111.5236
835.9214, 105.6091
836.4036, 97.62103
836.8857, 85.44467
837.3678, 74.88376
837.8499, 67.35791
838.3320, 61.96747
838.8141, 59.74945
839.2963, 58.72223
839.7784, 55.03299
840.2605, 47.66309
840.7426, 40.31824
841.2247, 36.55548
841.7068, 34.93863
842.1890, 32.60718
842.6711, 29.77460
843.1532, 28.15866
843.6353, 28.26331
844.1174, 27.42172
844.5995, 22.79309
845.0817, 15.80289
845.5638, 13.50049
846.0459, 18.48706
846.5280, 20.82248
847.0101, 18.10315
847.4922, 14.82877
847.9744, 13.43597
848.4565, 12.88449
848.9386, 11.50891
849.4207, 9.038422
849.9028, 6.834198
850.3849, 5.596039
850.8671, 4.381775
851.3492, 1.708862
851.8313, 0.7919010
852.3134, 9.3139999E-02
852.7955, 3.559357
853.2776, 6.269348
853.7598, 5.222900
854.2419, 2.311676
854.7240, 0.3223270
855.2061, 2.394440
855.6882, 2.007477
856.1703, 0.9861450
856.6525, 2.807251
857.1346, 1.095917
857.6167, 2.101868
858.0988, 2.725708
858.5809, 0.1875610
859.0630, 0.9702450
859.5452, 0.1549680
860.0273, 0.9936220
860.5094, 2.540924
860.9915, 3.767914
861.4736, 4.046753
861.9557, 3.422913
862.4379, 2.226654
862.9200, 0.7007140
863.4021, 2.487610
863.8842, 1.045990
864.3663, 1.038544
864.8484, 1.546753
865.3306, 0.7634280
865.8127, 0.1077270
866.2948, 0.6061710
866.7769, 0.9883120
867.2590, 1.487610
867.7411, 2.051636
868.2233, 2.747894
868.7054, 3.457672
869.1875, 3.314972
869.6696, 2.053253
870.1517, 0.9924620
870.6339, 1.405243
871.1160, 3.120911
871.5981, 5.486298
872.0802, 9.022491
872.5623, 11.76697
873.0444, 13.44720
873.5266, 14.46375
874.0087, 14.18771
874.4908, 13.67288
874.9729, 15.28720
875.4550, 19.66397
875.9371, 22.54660
876.4193, 22.54169
876.9014, 21.92514
877.3835, 20.56857
877.8656, 19.79135
878.3477, 21.15106
878.8298, 24.60461
879.3120, 28.85220
879.7941, 33.60638
880.2762, 37.66727
880.7583, 39.33258
881.2404, 39.86942
881.7225, 40.76154
882.2047, 42.32169
882.6868, 45.44263
883.1689, 50.54068
883.6510, 55.92368
884.1331, 59.26413
884.6152, 60.91284
885.0974, 63.35562
885.5795, 66.76068
886.0616, 70.37897
886.5437, 74.38834
887.0258, 77.69022
887.5079, 79.04370
887.9901, 79.12369
888.4722, 80.50949
888.9543, 83.86221
889.4364, 87.01425
889.9185, 89.05212
890.4006, 91.89102
890.8828, 97.03387
891.3649, 103.0076
891.8470, 108.4360
892.3291, 113.0291
892.8112, 116.0822
893.2933, 116.5826
893.7755, 116.3966
894.2576, 116.6622
894.7397, 116.9153
895.2218, 117.2079
895.7039, 116.9046
896.1860, 113.6466
896.6682, 106.1507
897.1503, 99.02911
897.6324, 99.50806
898.1145, 104.4007
898.5966, 103.4316
899.0787, 97.13129
899.5609, 93.28067
900.0430, 94.43463
900.5251, 96.77557
901.0072, 96.69870
901.4893, 94.77960
901.9714, 94.07574
902.4536, 95.58591
902.9357, 94.89868
903.4178, 89.91086
903.8999, 85.81775
904.3820, 86.43073
904.8641, 89.06146
905.3463, 88.80475
905.8284, 85.12573
906.3105, 82.37280
906.7926, 82.12378
907.2747, 81.44498
907.7568, 79.00375
908.2390, 76.16492
908.7211, 74.78546
909.2032, 74.22021
909.6853, 71.75507
910.1674, 65.74036
910.6495, 59.97147
911.1317, 58.13086
911.6138, 57.46045
912.0959, 55.02789
912.5780, 51.07343
913.0601, 45.98657
913.5422, 40.26901
914.0244, 36.22336
914.5065, 36.40823
914.9886, 38.27948
915.4707, 35.82373
915.9528, 29.94052
916.4349, 26.53796
916.9171, 26.40417
917.3992, 26.57336
917.8813, 25.54092
918.3634, 23.42285
918.8455, 20.17020
919.3276, 15.65060
919.8098, 12.80600
920.2919, 12.04602
920.7740, 11.93338
921.2561, 12.41531
921.7382, 12.99658
922.2203, 13.42676
922.7025, 13.61639
923.1846, 13.21701
923.6667, 11.84302
924.1488, 10.70340
924.6309, 10.55832
925.1130, 9.933441
925.5952, 7.601166
926.0773, 4.743988
926.5594, 2.840210
927.0415, 1.964172
927.5236, 1.211548
928.0057, 0.3910520
928.4879, 1.079071
928.9700, 1.756775
929.4521, 5.115692
929.9342, 4.955261
930.4163, 2.153137
930.8984, 8.2700001E-03
931.3806, 0.2921140
931.8627, 8.6731002E-02
932.3448, 0.1310120
932.8269, 0.5131530
933.3090, 2.6031001E-02
933.7911, 1.121735
934.2733, 2.266937
934.7554, 3.222046
935.2375, 3.185211
935.7196, 1.506500
936.2017, 0.9476010
936.6838, 2.562897
937.1660, 3.381317
937.6481, 2.198212
938.1302, 1.727753
938.6123, 4.319366
939.0944, 4.066193
939.5765, 2.256500
940.0587, 0.3246150
940.5408, 3.363007
941.0229, 4.376251
941.5050, 2.033051
941.9871, 7.9285003E-02
942.4692, 1.710724
942.9514, 2.622650
943.4335, 1.451508
943.9156, 0.2338260
944.3977, 5.2429002E-02
944.8798, 2.377350
945.3619, 3.052643
945.8441, 1.040588
946.3262, 3.922272
946.8083, 2.384399
947.2904, 0.3014830
947.7725, 1.558228
948.2546, 1.623779
948.7368, 1.651459
949.2189, 1.992737
949.7010, 2.274261
950.1831, 2.625488
950.6652, 2.456787
951.1473, 0.4323730
951.6295, 2.240906
952.1116, 3.363403
952.5937, 2.755585
953.0758, 1.404266
953.5579, 0.2152100
954.0400, 1.570282
954.5222, 1.437714
955.0043, 0.5448000
955.4864, 1.190155
955.9685, 3.259552
956.4506, 5.766418
956.9327, 8.403900
957.4149, 9.227600
957.8970, 6.053162
958.3791, 0.7391970
958.8612, 0.6517940
959.3433, 2.239014
959.8254, 3.841827
960.3076, 3.541107
960.7897, 3.094727
961.2718, 3.286163
961.7539, 3.537109
962.2360, 2.801025
962.7181, 1.213623
963.2003, 2.267334
963.6824, 9.149536
964.1645, 11.99017
964.6466, 6.312958
965.1287, 0.8595580
965.6108, 1.493256
966.0930, 4.666626
966.5751, 4.520905
967.0572, 0.3816830
967.5393, 0.8757930
968.0214, 4.020508
968.5035, 8.474548
968.9857, 11.01917
969.4678, 12.18503
969.9499, 12.08038
970.4320, 11.04712
970.9141, 9.112976
971.3962, 5.920258
971.8784, 5.253235
972.3605, 11.81073
972.8426, 18.29727
973.3247, 19.53293
973.8068, 17.80396
974.2889, 15.26627
974.7711, 12.85355
975.2532, 12.05856
975.7353, 13.84766
976.2174, 15.44461
976.6995, 12.57446
977.1816, 9.219727
977.6638, 12.53723
978.1459, 19.80396
978.6280, 23.61987
979.1101, 22.61145
979.5922, 19.91968
980.0743, 17.42148
980.5565, 15.99405
981.0386, 18.25674
981.5207, 22.74127
982.0028, 24.15741
982.4849, 22.37027
982.9670, 18.21243
983.4492, 11.93741
983.9313, 7.792572
984.4134, 10.28656
984.8955, 17.05411
985.3776, 20.65100
985.8597, 20.96951
986.3419, 20.42688
986.8240, 19.21814
987.3061, 17.70001
987.7882, 17.52628
988.2703, 14.67465
988.7524, 16.88049
989.2346, 16.04489
989.7167, 16.10757
990.1988, 18.50818
990.6809, 16.61978
991.1630, 19.73532
991.6451, 22.54495
992.1273, 21.83746
992.6094, 19.73825
993.0915, 19.60535
993.5736, 21.60388
994.0557, 22.32468
994.5378, 21.39661
995.0200, 19.80490
995.5021, 16.02612
995.9842, 13.71075
996.4663, 15.63034
996.9484, 19.56711
997.4305, 22.42133
997.9127, 23.96954
998.3948, 22.29761
998.8769, 12.63095
999.3590, 6.181274
999.8411, 8.354584
1000.323, 13.01886
1000.805, 16.98474
1001.287, 19.14749
1001.770, 17.29456
1002.252, 10.76501
1002.734, 6.317413
1003.216, 8.392029
1003.698, 11.03833
1004.180, 10.95801
1004.662, 9.918701
1005.144, 9.591614
1005.627, 9.823883
1006.109, 9.775024
1006.591, 9.144165
1007.073, 8.981903
1007.555, 10.84238
1008.037, 12.70386
1008.519, 11.99545
1009.001, 10.19922
1009.483, 10.17035
1009.966, 11.69769
1010.448, 11.90240
1010.930, 9.326874
1011.412, 7.340454
1011.894, 11.00171
1012.376, 16.10178
1012.858, 15.38770
1013.340, 10.98471
1013.823, 8.280548
1014.305, 8.101227
1014.787, 8.735809
1015.269, 9.246429
1015.751, 9.721466
1016.233, 9.988190
1016.715, 10.30066
1017.197, 12.14822
1017.679, 14.82693
1018.162, 14.83389
1018.644, 11.66196
1019.126, 8.790039
1019.608, 8.467926
1020.090, 10.11267
1020.572, 13.89639
1021.054, 19.16217
1021.536, 20.30289
1022.018, 17.31104
1022.501, 13.50153
1022.983, 9.417603
1023.465, 6.254181
1023.947, 4.766754
1024.429, 4.816895
1024.911, 6.642883
1025.393, 10.36893
1025.875, 12.75870
1026.358, 13.60156
1026.840, 13.28726
1027.322, 11.69345
1027.804, 9.920715
1028.286, 8.660278
1028.768, 8.110260
1029.250, 9.087280
1029.732, 12.06281
1030.214, 12.87747
1030.697, 10.75110
1031.179, 8.905090
1031.661, 7.980072
1032.143, 8.102905
1032.625, 9.905396
1033.107, 12.37738
1033.589, 12.47174
1034.071, 9.428925
1034.553, 7.409515
1035.036, 6.451569
1035.518, 6.529694
1036.000, 8.578735
1036.482, 10.11710
1036.964, 8.416901
1037.446, 5.021484
1037.928, 4.609589
1038.410, 8.310303
1038.893, 11.09918
1039.375, 13.78415
1039.857, 14.23340
1040.339, 10.31290
1040.821, 5.673035
1041.303, 2.360321
1041.785, 0.6961060
1042.267, 1.633850
1042.750, 6.329742
1043.232, 8.863525
1043.714, 7.584412
1044.196, 6.324738
1044.678, 6.036438
1045.160, 5.973511
1045.642, 5.296265
1046.124, 4.477356
1046.606, 4.834045
1047.089, 7.071686
1047.571, 9.079773
1048.053, 9.645599
1048.535, 9.761169
1049.017, 9.863464
1049.499, 9.877533
1049.981, 9.543365
1050.463, 9.087555
1050.945, 8.930786
1051.428, 9.076752
1051.910, 9.823181
1052.392, 12.30408
1052.874, 13.95670
1053.356, 13.96884
1053.838, 12.87329
1054.320, 9.306671
1054.802, 5.497070
1055.285, 6.752838
1055.767, 14.49277
1056.249, 18.91412
1056.731, 14.17813
1057.213, 9.930573
1057.695, 10.64529
1058.177, 12.35788
1058.659, 11.48856
1059.141, 9.484802
1059.624, 9.945129
1060.106, 13.49319
1060.588, 15.33661
1061.070, 13.22519
1061.552, 10.18832
1062.034, 5.524902
1062.516, 2.190918
1062.998, 4.083588
1063.480, 8.254089
1063.963, 9.087158
1064.445, 5.879486
1064.927, 3.816071
1065.409, 5.961395
1065.891, 8.026794
1066.373, 7.371094
1066.855, 6.855408
1067.337, 10.20090
1067.820, 14.43243
1068.302, 13.81851
1068.784, 8.255066
1069.266, 4.735901
1069.748, 7.109009
1070.230, 9.892334
1070.712, 11.18002
1071.194, 11.47653
1071.677, 10.75690
1072.159, 9.531952
1072.641, 8.454956
1073.123, 7.559601
1073.605, 6.407623
1074.087, 4.572693
1074.569, 3.361542
1075.051, 4.166626
1075.533, 5.093750
1076.016, 5.090973
1076.498, 4.701691
1076.980, 4.482117
1077.462, 4.665253
1077.944, 6.000824
1078.426, 9.636627
1078.908, 11.27640
1079.390, 5.819489
1079.873, 1.297272
1080.355, 4.582672
1080.837, 10.63831
1081.319, 13.78690
1081.801, 14.02267
1082.283, 13.76074
1082.765, 13.75159
1083.247, 13.03531
1083.729, 10.40182
1084.212, 7.853058
1084.694, 5.945343
1085.176, 5.208710
1085.658, 7.337799
1086.140, 10.76111
1086.622, 11.60699
1087.104, 8.852234
1087.586, 6.160004
1088.068, 4.872681
1088.551, 4.291504
1089.033, 4.510254
1089.515, 4.883240
1089.997, 5.016632
1090.479, 4.820068
1090.961, 4.138428
1091.443, 2.975464
1091.925, 1.861053
1092.408, 0.3230590
1092.890, 0.2047420
1093.372, 2.161652
1093.854, 4.391205
1094.336, 2.995758
1094.818, 0.7416690
1095.300, 2.825378
1095.782, 8.997772
1096.265, 12.62747
1096.747, 10.19379
1097.229, 7.624268
1097.711, 7.756226
1098.193, 7.316650
1098.675, 2.720795
1099.157, 2.343323
1099.639, 3.120667
1100.121, 0.1626590
1100.604, 2.415131
1101.086, 3.611481
1101.568, 4.732361
1102.050, 5.539856
1102.532, 7.060486
1103.014, 13.14462
1103.496, 17.22729
1103.978, 10.20612
1104.460, 3.076141
1104.943, 9.216492
1105.425, 5.193542
1105.907, 1.072449
1106.389, 1.351379
1106.871, 3.637573
1107.353, 6.847748
1107.835, 9.457062
1108.317, 9.997955
1108.800, 9.396179
1109.282, 9.604248
1109.764, 10.84338
1110.246, 10.13190
1110.728, 4.215729
1111.210, 0.8187260
1111.692, 3.606384
1112.174, 6.075562
1112.656, 4.254028
1113.139, 0.9767150
1113.621, 0.3451540
1114.103, 0.1865230
1114.585, 0.9640200
1115.067, 2.687042
1115.549, 3.345215
1116.031, 1.517029
1116.513, 0.6879580
1116.995, 3.246216
1117.478, 5.800079
1117.960, 4.512695
1118.442, 6.727539
1118.924, 7.691376
1119.406, 6.804688
1119.888, 9.088318
1120.370, 6.197662
1120.852, 4.119141
1121.335, 4.555054
1121.817, 5.244293
1122.299, 4.553528
1122.781, 5.162720
1123.263, 5.317139
1123.745, 5.191345
1124.227, 5.887360
1124.709, 5.224335
1125.192, 5.427002
1125.674, 7.148712
1126.156, 8.648743
1126.638, 9.324677
1127.120, 8.771088
1127.602, 5.998688
1128.084, 1.949341
1128.566, 1.792053
1129.048, 6.167328
1129.531, 8.839966
1130.013, 9.586975
1130.495, 7.644470
1130.977, 2.222015
1131.459, 2.133545
1131.941, 1.471527
1132.423, 2.732758
1132.905, 2.900421
1133.387, 1.678711
1133.870, 4.186462
1134.352, 10.15659
1134.834, 10.46851
1135.316, 3.495972
1135.798, 0.3671260
1136.280, 4.746002
1136.762, 12.15451
1137.244, 13.14154
1137.727, 9.774872
1138.209, 8.396210
1138.691, 8.381195
1139.173, 6.733063
1139.655, 3.560089
1140.137, 1.281830
1140.619, 0.7710880
1141.101, 1.832886
1141.583, 4.675812
1142.066, 7.752075
1142.548, 8.950745
1143.030, 8.501282
1143.512, 5.681824
1143.994, 1.865356
1144.476, 0.6229550
1144.958, 2.385559
1145.440, 5.846375
1145.922, 10.55484
1146.405, 13.60211
1146.887, 10.77118
1147.369, 6.281494
1147.851, 4.727814
1148.333, 4.806305
1148.815, 5.005737
1149.297, 4.887634
1149.779, 3.794128
1150.262, 1.694397
1150.744, 0.2592160
1151.226, 0.7233890
1151.708, 1.747345
1152.190, 3.380402
1152.672, 4.280273
1153.154, 1.531708
1153.636, 1.580872
1154.119, 0.9316410
1154.601, 8.014496
1155.083, 12.00900
1155.565, 10.10172
1156.047, 7.576233
1156.529, 5.440216
1157.011, 3.796783
1157.493, 3.135376
1157.975, 3.108704
1158.458, 3.276550
1158.940, 3.467346
1159.422, 3.429352
1159.904, 3.125732
1160.386, 2.784515
1160.868, 0.7048650
1161.350, 1.283325
1161.832, 8.642151
1162.314, 13.69357
1162.797, 10.53339
1163.279, 5.915131
1163.761, 7.228210
1164.243, 4.592346
1164.725, 2.997803
1165.207, 4.510162
1165.689, 1.296814
1166.171, 4.680603
1166.654, 7.311981
1167.136, 7.360718
1167.618, 6.421814
1168.100, 5.146332
1168.582, 4.545380
1169.064, 6.981384
1169.546, 11.71542
1170.028, 10.40384
1170.510, 2.796722
1170.993, 0.2494200
1171.475, 4.029755
1171.957, 7.534973
1172.439, 8.282257
1172.921, 7.507080
1173.403, 6.143738
1173.885, 4.672211
1174.367, 4.135010
1174.849, 4.315063
1175.332, 4.603607
1175.814, 4.870300
1176.296, 4.558624
1176.778, 3.742035
1177.260, 3.368225
1177.742, 3.893097
1178.224, 4.831268
1178.706, 6.399109
1179.189, 7.346222
1179.671, 5.106445
1180.153, 1.850891
1180.635, 0.4450380
1181.117, 0.8779910
1181.599, 3.122650
1182.081, 6.607086
1182.563, 8.868530
1183.046, 8.592010
1183.528, 7.801208
1184.010, 6.935974
1184.492, 6.285217
1184.974, 6.588684
1185.456, 7.108978
1185.938, 7.083435
1186.420, 6.625000
1186.902, 6.252380
1187.385, 6.068909
1187.867, 5.270966
1188.349, 2.660980
1188.831, 0.9797060
1189.313, 0.8446350
1189.795, 1.493500
1190.277, 3.280273
1190.759, 4.991486
1191.241, 4.581604
1191.724, 2.726685
1192.206, 2.009918
1192.688, 2.539642
1193.170, 3.981964
1193.652, 7.266541
1194.134, 8.282562
1194.616, 5.509308
1195.098, 2.373871
1195.581, 0.4436950
1196.063, 0.4169920
1196.545, 3.839111
1197.027, 9.381714
1197.509, 10.92664
1197.991, 8.743164
1198.473, 6.757233
1198.955, 5.335266
1199.438, 6.152863
1199.920, 9.503662
1200.402, 11.28485
1200.884, 8.462585
1201.366, 4.340881
1201.848, 2.770416
1202.330, 3.002747
1202.812, 4.425537
1203.294, 6.194916
1203.776, 6.618225
1204.259, 5.773438
1204.741, 4.058929
1205.223, 1.871155
1205.705, 0.9313960
1206.187, 2.761292
1206.669, 4.655090
1207.151, 4.766449
1207.633, 4.179230
1208.116, 2.938690
1208.598, 2.097809
1209.080, 3.615997
1209.562, 6.350891
1210.044, 6.909271
1210.526, 4.488037
1211.008, 2.809021
1211.490, 3.361603
1211.973, 3.481567
1212.455, 1.593567
1212.937, 0.3128360
1213.419, 1.380646
1213.901, 2.916962
1214.383, 2.931793
1214.865, 1.929230
1215.347, 1.416870
1215.829, 1.092712
1216.312, 4.005341
1216.794, 11.50803
1217.276, 14.80682
1217.758, 11.68015
1218.240, 9.065460
1218.722, 10.52289
1219.204, 12.53308
1219.686, 10.96567
1220.168, 7.423553
1220.651, 5.820282
1221.133, 5.847046
1221.615, 6.577911
1222.097, 7.756958
1222.579, 8.755798
1223.061, 9.381500
1223.543, 9.364716
1224.025, 8.582031
1224.508, 7.684265
1224.990, 7.228912
1225.472, 6.943634
1225.954, 6.478729
1226.436, 6.101593
1226.918, 6.370575
1227.400, 6.832642
1227.882, 6.534241
1228.365, 5.546326
1228.847, 4.932434
1229.329, 5.151062
1229.811, 4.937531
1230.293, 2.956909
1230.775, 1.858490
1231.257, 3.058777
1231.739, 4.808197
1232.221, 6.668762
1232.703, 7.938141
1233.186, 7.455566
1233.668, 5.523193
1234.150, 3.955933
1234.632, 2.214203
1235.114, 3.394318
1235.596, 8.416290
1236.078, 12.17734
1236.560, 13.54855
1237.043, 12.96667
1237.525, 10.45007
1238.007, 7.706696
1238.489, 7.214050
1238.971, 7.749268
1239.453, 5.600464
1239.935, 1.681091
1240.417, 1.602051
1240.900, 3.644379
1241.382, 2.732635
1241.864, 0.9882510
1242.346, 5.425659
1242.828, 9.660583
1243.310, 12.07568
1243.792, 10.20154
1244.274, 7.410706
1244.756, 6.174835
1245.239, 5.534210
1245.721, 4.517487
1246.203, 3.460052
1246.685, 2.690247
1247.167, 2.450592
1247.649, 3.810608
1248.131, 8.088928
1248.613, 10.16864
1249.095, 7.087982
1249.578, 5.378845
1250.060, 7.138947
1250.542, 8.966614
1251.024, 9.455963
1251.506, 8.543060
1251.988, 5.451599
1252.470, 7.305359
1252.952, 2.661438
1253.435, 9.082520
1253.917, 12.79999
1254.399, 13.74341
1254.881, 12.66370
1255.363, 9.834778
1255.845, 6.569672
1256.327, 3.503082
1256.809, 0.8773190
1257.292, 1.570526
1257.774, 2.245209
1258.256, 3.339813
1258.738, 10.26816
1259.220, 10.73553
1259.702, 7.830109
1260.184, 6.952759
1260.666, 8.473328
1261.148, 11.15724
1261.630, 14.69322
1262.113, 16.02525
1262.595, 11.18140
1263.077, 8.281464
1263.559, 11.95985
1264.041, 14.64325
1264.523, 9.962891
1265.005, 4.272705
1265.487, 3.374893
1265.970, 5.895599
1266.452, 9.218857
1266.934, 13.41794
1267.416, 13.58708
1267.898, 8.963928
1268.380, 6.383316
1268.862, 6.629181
1269.344, 6.310379
1269.827, 4.308853
1270.309, 2.160980
1270.791, 0.9114990
1271.273, 0.6907040
1271.755, 1.136246
1272.237, 2.604279
1272.719, 7.741470
1273.201, 13.31960
1273.683, 14.41917
1274.166, 11.96901
1274.648, 7.664749
1275.130, 3.051498
1275.612, 2.915100
1276.094, 10.58536
1276.576, 15.96614
1277.058, 13.66083
1277.540, 10.23058
1278.022, 6.676620
1278.505, 4.460999
1278.987, 6.058243
1279.469, 8.419678
1279.951, 7.592438
1280.433, 4.474060
1280.915, 2.749710
1281.397, 2.603302
1281.879, 2.960419
1282.362, 3.919586
1282.844, 4.378021
1283.326, 4.146866
1283.808, 3.041214
1284.290, 0.9951930
1284.772, 4.6523999E-02
1285.254, 1.226746
1285.736, 0.0000000E+00
##END=



