##NAMES=Helvine
##RRUFFID=R060059
##IDEAL CHEMISTRY=Mn^2+^_4_(BeSiO_4_)_3_S
##LOCALITY=Schwarzenberg, Saxony, Germany
##OWNER=RRUFF
##SOURCE=University of Arizona Mineral Museum
##DESCRIPTION=Yellow-tan colored tetrahedra
##STATUS=The identification of this mineral has been confirmed by X-ray diffraction and chemical analysis
##URL=rruff.info/R060059
##MEASURED CHEMISTRY=(Mn^2+^_2.93_Fe^2+^_0.48_Zn_0.35_Ca_0.15_Fe^3+^_0.09_)_Σ=4_Be_3.00_((Si_0.97_Al_0.03_)_Σ=1_O_4_)_3_S_1.00_; BeO assumed by stoichiometry
111.1827, 0.0000000E+00
111.6648, 0.5816920
112.1469, 0.3060150
112.6290, 0.2642970
113.1111, 1.652866
113.5933, 3.114735
114.0754, 4.004272
114.5575, 5.086559
115.0396, 6.715141
115.5217, 9.506420
116.0038, 12.00727
116.4859, 13.81216
116.9681, 15.00447
117.4502, 15.92829
117.9323, 16.08834
118.4144, 16.32526
118.8965, 17.25816
119.3786, 19.63584
119.8608, 22.18972
120.3429, 24.11657
120.8250, 25.52325
121.3071, 27.28921
121.7892, 29.95304
122.2713, 33.24807
122.7535, 36.85545
123.2356, 40.95240
123.7177, 45.12986
124.1998, 48.83556
124.6819, 52.08995
125.1640, 55.66936
125.6462, 59.99628
126.1283, 65.13628
126.6104, 71.23008
127.0925, 78.06268
127.5746, 86.00497
128.0567, 95.78226
128.5389, 107.6425
129.0210, 120.3964
129.5031, 134.2905
129.9852, 148.5501
130.4673, 159.3294
130.9494, 164.8328
131.4316, 165.1573
131.9137, 159.4554
132.3958, 146.9748
132.8779, 131.2865
133.3600, 114.7080
133.8421, 97.39699
134.3243, 81.45863
134.8064, 67.83152
135.2885, 56.59029
135.7706, 48.04045
136.2527, 42.31728
136.7348, 39.04887
137.2169, 37.72163
137.6991, 38.50449
138.1812, 40.14858
138.6633, 42.18063
139.1454, 44.82471
139.6275, 46.14230
140.1096, 45.76184
140.5918, 43.83052
141.0739, 40.93616
141.5560, 36.76648
142.0381, 32.30622
142.5202, 28.33057
143.0023, 24.95947
143.4845, 21.79863
143.9666, 18.73682
144.4487, 15.73585
144.9308, 13.31989
145.4129, 11.43190
145.8951, 10.13982
146.3772, 9.541302
146.8593, 10.15615
147.3414, 10.62046
147.8235, 10.49905
148.3056, 9.532238
148.7878, 9.268684
149.2699, 9.943115
149.7520, 11.21211
150.2341, 12.60942
150.7162, 14.23313
151.1983, 15.90064
151.6805, 17.53447
152.1626, 18.95852
152.6447, 20.76046
153.1268, 23.16512
153.6089, 25.92838
154.0910, 28.62971
154.5732, 31.07299
155.0553, 33.61636
155.5374, 36.34409
156.0195, 39.20633
156.5016, 42.35041
156.9837, 46.25629
157.4659, 50.55625
157.9480, 54.50316
158.4301, 57.87450
158.9122, 60.14130
159.3943, 61.08873
159.8764, 60.23087
160.3586, 59.31950
160.8407, 59.03299
161.3228, 59.07444
161.8049, 58.56005
162.2870, 56.68666
162.7691, 54.72627
163.2512, 53.36077
163.7334, 52.42587
164.2155, 52.09506
164.6976, 52.67911
165.1797, 53.97692
165.6618, 55.24673
166.1439, 55.69352
166.6261, 56.16994
167.1082, 57.43307
167.5903, 60.25291
168.0724, 63.32283
168.5545, 65.85547
169.0366, 67.83998
169.5188, 69.85493
170.0009, 72.14706
170.4830, 74.64867
170.9651, 77.33045
171.4472, 80.36092
171.9293, 83.41858
172.4115, 85.96282
172.8936, 88.07506
173.3757, 90.75302
173.8578, 95.04796
174.3399, 100.2864
174.8220, 105.4958
175.3042, 110.6475
175.7863, 115.3957
176.2684, 120.0015
176.7505, 124.4412
177.2326, 127.0202
177.7147, 126.5268
178.1969, 123.0922
178.6790, 116.9961
179.1611, 107.1249
179.6432, 95.13332
180.1253, 83.10258
180.6074, 71.10686
181.0896, 59.60471
181.5717, 48.52274
182.0538, 38.27191
182.5359, 29.74251
183.0180, 24.20441
183.5001, 20.64079
183.9823, 17.06537
184.4644, 13.44041
184.9465, 10.20428
185.4286, 8.060902
185.9107, 6.856445
186.3928, 5.908398
186.8750, 4.902760
187.3571, 3.916386
187.8392, 3.169441
188.3213, 2.680527
188.8034, 2.395210
189.2855, 2.361797
189.7677, 2.550877
190.2498, 2.647060
190.7319, 2.461609
191.2140, 2.043354
191.6961, 1.572147
192.1782, 0.9867100
192.6603, 0.5531500
193.1425, 0.7903140
193.6246, 1.691902
194.1067, 2.639507
194.5888, 3.404110
195.0709, 3.978104
195.5530, 4.238979
196.0352, 4.080917
196.5173, 3.828606
196.9994, 4.131756
197.4815, 5.042629
197.9636, 5.850487
198.4457, 6.200077
198.9279, 6.085827
199.4100, 5.865421
199.8921, 5.547089
200.3742, 5.126431
200.8563, 4.592007
201.3384, 3.932270
201.8206, 3.188190
202.3027, 2.383301
202.7848, 1.516590
203.2669, 0.4978410
203.7490, 0.7997740
204.2311, 2.114460
204.7133, 2.897247
205.1954, 3.091581
205.6775, 2.990959
206.1596, 2.580395
206.6417, 1.743320
207.1238, 1.474419
207.6060, 1.989067
208.0881, 2.903742
208.5702, 3.357677
209.0523, 3.241404
209.5344, 3.003012
210.0165, 2.883499
210.4987, 2.945471
210.9808, 2.810448
211.4629, 2.401009
211.9450, 1.842875
212.4271, 1.399090
212.9092, 1.042721
213.3914, 0.8668540
213.8735, 1.024075
214.3556, 1.715418
214.8377, 1.924948
215.3198, 1.465998
215.8019, 0.6065640
216.2841, 2.9479999E-02
216.7662, 0.1324080
217.2483, 0.3102050
217.7304, 0.7209910
218.2125, 1.435312
218.6946, 2.143295
219.1767, 2.817707
219.6589, 3.491362
220.1410, 4.315479
220.6231, 5.444702
221.1052, 6.438026
221.5873, 7.061214
222.0694, 7.125843
222.5516, 7.345219
223.0337, 7.790518
223.5158, 8.366684
223.9979, 8.871202
224.4800, 9.309063
224.9621, 9.659353
225.4443, 9.861153
225.9264, 9.733585
226.4085, 9.930426
226.8906, 10.53902
227.3727, 11.43645
227.8548, 12.38252
228.3370, 13.42275
228.8191, 14.42288
229.3012, 15.32848
229.7833, 16.08705
230.2654, 16.85823
230.7475, 17.57071
231.2297, 18.31982
231.7118, 19.34128
232.1939, 20.76869
232.6760, 22.24886
233.1581, 23.65652
233.6402, 24.94852
234.1224, 26.25535
234.6045, 27.57564
235.0866, 28.92570
235.5687, 30.31021
236.0508, 31.64112
236.5329, 33.16291
237.0151, 35.13676
237.4972, 38.12643
237.9793, 39.87071
238.4614, 40.14922
238.9435, 39.29166
239.4256, 37.87519
239.9078, 35.65973
240.3899, 33.29649
240.8720, 30.91693
241.3541, 28.34572
241.8362, 26.40222
242.3183, 25.29400
242.8005, 24.68666
243.2826, 24.02018
243.7647, 23.39366
244.2468, 22.55570
244.7289, 21.35522
245.2110, 19.63737
245.6931, 18.20388
246.1753, 17.16980
246.6574, 16.34522
247.1395, 15.44038
247.6216, 14.44926
248.1037, 13.40258
248.5858, 12.27539
249.0680, 11.03962
249.5501, 9.932587
250.0322, 8.966007
250.5143, 8.118130
250.9964, 7.355442
251.4785, 6.649551
251.9607, 6.076096
252.4428, 5.625187
252.9249, 5.284126
253.4070, 5.242241
253.8891, 5.684317
254.3712, 6.253206
254.8534, 6.508202
255.3355, 6.300241
255.8176, 6.077667
256.2997, 5.933760
256.7818, 5.872585
257.2639, 5.840521
257.7461, 5.852232
258.2282, 5.876505
258.7103, 5.879032
259.1924, 5.847466
259.6745, 5.806717
260.1566, 5.672331
260.6388, 5.454893
261.1209, 5.763124
261.6030, 6.830994
262.0851, 7.925684
262.5672, 8.358545
263.0493, 7.919811
263.5315, 7.555935
264.0136, 7.462624
264.4957, 7.637615
264.9778, 7.776705
265.4599, 7.783796
265.9420, 7.759480
266.4242, 7.815144
266.9063, 7.977215
267.3884, 8.323635
267.8705, 8.931417
268.3526, 9.711010
268.8347, 10.25877
269.3169, 10.46805
269.7990, 10.72639
270.2811, 11.34137
270.7632, 12.41304
271.2453, 13.34192
271.7274, 14.02620
272.2096, 14.48784
272.6917, 14.98550
273.1738, 15.59026
273.6559, 16.22544
274.1380, 16.77546
274.6201, 17.18278
275.1023, 17.70412
275.5844, 18.34378
276.0665, 19.14247
276.5486, 20.28074
277.0307, 21.83521
277.5128, 23.35440
277.9950, 24.53637
278.4771, 25.34319
278.9592, 26.37325
279.4413, 27.75687
279.9234, 29.23580
280.4055, 30.23875
280.8877, 30.70071
281.3698, 31.21928
281.8519, 32.11548
282.3340, 33.38649
282.8161, 34.60226
283.2982, 35.79218
283.7804, 36.86602
284.2625, 37.61733
284.7446, 38.04515
285.2267, 38.43573
285.7088, 38.80215
286.1909, 39.19125
286.6730, 40.06601
287.1552, 41.54523
287.6373, 43.04931
288.1194, 43.89937
288.6015, 44.12861
289.0836, 44.10191
289.5657, 43.89273
290.0479, 43.52505
290.5300, 43.04833
291.0121, 42.45688
291.4942, 41.85248
291.9763, 41.43655
292.4584, 41.14892
292.9406, 40.57494
293.4227, 39.49834
293.9048, 38.15422
294.3869, 37.04436
294.8690, 36.16453
295.3511, 35.41915
295.8333, 34.83315
296.3154, 34.33093
296.7975, 33.58922
297.2796, 32.41033
297.7617, 31.16920
298.2438, 30.53789
298.7260, 30.46184
299.2081, 30.46267
299.6902, 30.22583
300.1723, 29.83306
300.6544, 29.41292
301.1365, 28.94873
301.6187, 28.57569
302.1008, 28.59829
302.5829, 28.90095
303.0650, 29.04810
303.5471, 28.80892
304.0292, 28.25142
304.5114, 27.35348
304.9935, 26.02049
305.4756, 24.80788
305.9577, 24.35683
306.4398, 24.42123
306.9219, 24.42606
307.4041, 24.21561
307.8862, 23.74681
308.3683, 22.97221
308.8504, 21.89552
309.3325, 20.51369
309.8146, 18.45106
310.2968, 16.16885
310.7789, 14.32664
311.2610, 13.54139
311.7431, 13.06584
312.2252, 12.42746
312.7073, 11.62156
313.1895, 10.67890
313.6716, 9.494671
314.1537, 8.229641
314.6358, 7.060436
315.1179, 5.984438
315.6000, 5.075830
316.0822, 4.403982
316.5643, 3.942720
317.0464, 3.584642
317.5285, 3.357761
318.0106, 3.171021
318.4927, 2.968544
318.9749, 2.771975
319.4570, 2.502110
319.9391, 2.007729
320.4212, 1.415579
320.9033, 1.008821
321.3854, 1.101698
321.8676, 1.225384
322.3497, 1.118704
322.8318, 0.6303770
323.3139, 0.2993320
323.7960, 0.3534280
324.2781, 0.5931470
324.7603, 0.7351420
325.2424, 0.5582710
325.7245, 0.4299470
326.2066, 0.5361400
326.6887, 0.9763740
327.1708, 1.156189
327.6530, 0.8108770
328.1351, 0.2827210
328.6172, 0.1166360
329.0993, 0.4007610
329.5814, 0.5245820
330.0635, 0.3990100
330.5457, 4.3570999E-02
331.0278, 0.1989820
331.5099, 0.2306000
331.9920, 0.2679630
332.4741, 0.4555850
332.9562, 1.009377
333.4384, 1.266935
333.9205, 1.050783
334.4026, 0.5025020
334.8847, 0.1390900
335.3668, 2.5506999E-02
335.8489, 1.4732000E-02
336.3311, 5.7190001E-02
336.8132, 0.1987020
337.2953, 0.2494450
337.7774, 0.1602900
338.2595, 1.8923000E-02
338.7416, 1.7988000E-02
339.2238, 0.2275620
339.7059, 0.3573090
340.1880, 0.2371290
340.6701, 0.1496870
341.1522, 0.2376140
341.6343, 9.4677001E-02
342.1164, 0.4911100
342.5985, 0.6105000
343.0807, 0.4326020
343.5628, 0.2017630
344.0449, 0.1113610
344.5270, 0.4143090
345.0091, 0.2064800
345.4912, 0.5893230
345.9734, 1.363972
346.4555, 1.482212
346.9376, 1.023970
347.4197, 0.8233320
347.9018, 1.111805
348.3839, 1.619175
348.8661, 1.806450
349.3482, 1.697935
349.8303, 1.638435
350.3124, 1.933018
350.7945, 2.439636
351.2766, 2.768026
351.7588, 2.840981
352.2409, 2.853834
352.7230, 3.069048
353.2051, 3.421394
353.6872, 3.722147
354.1693, 3.819695
354.6515, 3.839291
355.1336, 3.904543
355.6157, 4.018684
356.0978, 4.265640
356.5799, 4.908188
357.0620, 5.686186
357.5442, 6.201342
358.0263, 6.050806
358.5084, 5.835579
358.9905, 6.079561
359.4726, 6.693995
359.9547, 7.215195
360.4369, 7.302063
360.9190, 7.227932
361.4011, 7.205267
361.8832, 7.253771
362.3653, 7.407244
362.8474, 7.877008
363.3296, 8.459663
363.8117, 8.729269
364.2938, 8.132923
364.7759, 7.517982
365.2580, 7.390398
365.7401, 7.996952
366.2223, 8.217896
366.7044, 7.559084
367.1865, 6.481352
367.6686, 5.492466
368.1507, 4.665981
368.6328, 3.946539
369.1150, 3.298166
369.5971, 2.719381
370.0792, 2.340788
370.5613, 2.378506
371.0434, 2.457380
371.5255, 2.345076
372.0077, 1.850639
372.4898, 1.460531
372.9719, 1.227322
373.4540, 1.107729
373.9361, 0.9464240
374.4182, 0.6449200
374.9004, 0.4688820
375.3825, 0.6083200
375.8646, 1.220646
376.3467, 1.425838
376.8288, 1.082783
377.3109, 0.5109920
377.7931, 0.1665060
378.2752, 9.0792000E-02
378.7573, 5.1964000E-02
379.2394, 4.1400001E-04
379.7215, 7.1084999E-02
380.2036, 0.2328090
380.6858, 0.5085530
381.1679, 0.7508750
381.6500, 0.8170260
382.1321, 0.7164250
382.6142, 0.5455910
383.0963, 0.2952580
383.5785, 2.0334000E-02
384.0606, 0.1683500
384.5427, 0.2750300
385.0248, 0.3767130
385.5069, 0.6106170
385.9890, 0.8661920
386.4712, 0.8170760
386.9533, 0.3896350
387.4354, 7.9657003E-02
387.9175, 0.1460670
388.3996, 3.9925002E-02
388.8817, 0.1252330
389.3639, 0.2200810
389.8460, 0.6294590
390.3281, 0.7167260
390.8102, 0.4957890
391.2923, 0.2044470
391.7744, 6.2403001E-02
392.2566, 0.2961710
392.7387, 0.4937550
393.2208, 0.6636430
393.7029, 0.7822820
394.1850, 0.8342650
394.6671, 0.8259010
395.1493, 0.7754250
395.6314, 0.4939500
396.1135, 0.3247830
396.5956, 0.5659790
397.0777, 1.460167
397.5598, 1.938057
398.0419, 1.292376
398.5240, 0.2702870
399.0062, 0.2652440
399.4883, 0.1942120
399.9704, 0.7476020
400.4525, 1.326332
400.9346, 1.924227
401.4167, 2.185421
401.8989, 1.928041
402.3810, 1.485300
402.8631, 1.041948
403.3452, 0.4269980
403.8273, 0.1536250
404.3094, 0.3784100
404.7916, 0.8965760
405.2737, 1.240175
405.7558, 1.367369
406.2379, 1.427134
406.7200, 1.507246
407.2021, 1.617739
407.6843, 1.422173
408.1664, 0.7916200
408.6485, 0.1917840
409.1306, 0.3134780
409.6127, 1.158760
410.0948, 1.685217
410.5770, 1.502052
411.0591, 0.9595150
411.5412, 1.066578
412.0233, 1.829378
412.5054, 2.503582
412.9875, 2.410267
413.4697, 1.798876
413.9518, 1.259125
414.4339, 0.8467690
414.9160, 0.6521450
415.3981, 0.9233950
415.8802, 1.494253
416.3624, 1.976587
416.8445, 2.242197
417.3266, 2.313148
417.8087, 2.090073
418.2908, 1.605108
418.7729, 1.256229
419.2551, 1.417398
419.7372, 1.783829
420.2193, 2.056702
420.7014, 2.163397
421.1835, 2.181217
421.6656, 2.038576
422.1478, 1.805851
422.6299, 1.658079
423.1120, 1.793423
423.5941, 1.921881
424.0762, 1.896324
424.5583, 1.664547
425.0405, 1.475609
425.5226, 1.311501
426.0047, 1.235540
426.4868, 1.314980
426.9689, 1.708326
427.4510, 2.061581
427.9332, 2.339647
428.4153, 2.559925
428.8974, 2.734146
429.3795, 2.842035
429.8616, 2.933958
430.3438, 3.062969
430.8259, 3.135504
431.3080, 3.488642
431.7901, 4.298071
432.2722, 5.177233
432.7543, 5.342539
433.2365, 4.708216
433.7186, 4.225700
434.2007, 4.243635
434.6828, 4.638359
435.1649, 4.979105
435.6470, 5.266277
436.1292, 5.496752
436.6113, 5.636555
437.0934, 5.711914
437.5755, 5.785856
438.0576, 5.832771
438.5397, 5.951725
439.0219, 6.330286
439.5040, 6.913458
439.9861, 7.504322
440.4682, 8.111572
440.9503, 8.627775
441.4324, 8.849777
441.9146, 8.767042
442.3967, 8.788101
442.8788, 9.298855
443.3609, 9.986263
443.8430, 10.51020
444.3251, 10.61699
444.8073, 10.78213
445.2894, 11.30787
445.7715, 12.02507
446.2536, 12.48568
446.7357, 12.70437
447.2178, 12.49606
447.7000, 11.68727
448.1821, 10.08963
448.6642, 8.710239
449.1463, 7.645729
449.6284, 6.768675
450.1105, 5.945726
450.5927, 5.161598
451.0747, 4.432556
451.5569, 3.702435
452.0390, 3.030512
452.5211, 2.693106
453.0032, 2.841702
453.4853, 2.924311
453.9674, 2.572104
454.4496, 1.746315
454.9317, 1.248034
455.4138, 1.147635
455.8959, 1.196180
456.3780, 1.020927
456.8601, 0.6355150
457.3423, 0.4985520
457.8244, 0.8127250
458.3065, 1.327805
458.7886, 1.565657
459.2707, 1.549959
459.7528, 1.463413
460.2350, 1.395863
460.7171, 1.345205
461.1992, 1.307409
461.6813, 1.278982
462.1634, 1.263794
462.6455, 1.276094
463.1277, 1.287188
463.6098, 1.256124
464.0919, 1.170750
464.5740, 1.036659
465.0561, 0.8198830
465.5382, 0.5392700
466.0204, 0.3059750
466.5025, 4.9208000E-02
466.9846, 7.8290999E-02
467.4667, 5.6205999E-02
467.9488, 0.7687850
468.4309, 1.094923
468.9131, 0.6368120
469.3952, 0.1080150
469.8773, 0.4853000
470.3594, 0.2028580
470.8415, 3.3043001E-02
471.3236, 0.2073460
471.8058, 0.6595080
472.2879, 0.7810900
472.7700, 0.4545750
473.2521, 8.6038999E-02
473.7342, 2.3623999E-02
474.2163, 0.1498200
474.6985, 0.1688800
475.1806, 1.9633999E-02
475.6627, 0.2933520
476.1448, 0.5441470
476.6269, 0.7563400
477.1090, 0.7824940
477.5912, 0.4556730
478.0733, 1.4231000E-02
478.5554, 0.2370570
479.0375, 0.2286890
479.5196, 0.1351010
480.0017, 1.6713999E-02
480.4839, 0.1626490
480.9660, 0.1876930
481.4481, 3.1447999E-02
481.9302, 6.7123003E-02
482.4123, 0.2129860
482.8944, 0.6166440
483.3766, 0.7683390
483.8587, 8.2630001E-02
484.3408, 0.4327200
484.8229, 0.2089750
485.3050, 0.6538850
485.7871, 1.239744
486.2693, 1.429655
486.7514, 1.259193
487.2335, 0.6211660
487.7156, 1.108067
488.1977, 1.856844
488.6798, 1.034039
489.1620, 0.3708520
489.6441, 1.027971
490.1262, 0.6551530
490.6083, 0.2626570
491.0904, 2.5774000E-02
491.5725, 6.0431998E-02
492.0547, 4.2498000E-02
492.5368, 0.3806990
493.0189, 0.6460700
493.5010, 0.5190180
493.9831, 8.9895003E-02
494.4652, 4.5428999E-02
494.9474, 0.4763910
495.4295, 0.9949590
495.9116, 1.170284
496.3937, 1.078423
496.8758, 0.9121740
497.3579, 0.6392560
497.8401, 0.4277230
498.3222, 0.5308000
498.8043, 0.8706870
499.2864, 1.156408
499.7685, 1.158119
500.2506, 1.094227
500.7328, 1.103451
501.2149, 1.196129
501.6970, 1.395117
502.1791, 1.941542
502.6612, 2.486446
503.1433, 2.700434
503.6255, 2.210958
504.1076, 1.764595
504.5897, 1.385536
505.0718, 1.108601
505.5539, 1.055397
506.0360, 1.414669
506.5181, 1.712393
507.0002, 1.732719
507.4824, 1.447796
507.9645, 1.414066
508.4466, 1.720833
508.9287, 2.069767
509.4108, 2.120281
509.8929, 1.876282
510.3751, 1.820885
510.8572, 2.052641
511.3393, 2.449863
511.8214, 2.866007
512.3035, 3.287727
512.7856, 3.645487
513.2678, 3.947193
513.7499, 4.144581
514.2320, 4.051857
514.7141, 3.703678
515.1962, 3.520714
515.6783, 3.922096
516.1605, 4.550215
516.6426, 5.080084
517.1247, 5.459719
517.6068, 5.708370
518.0889, 5.734921
518.5710, 5.662025
519.0532, 5.665367
519.5353, 5.825975
520.0174, 6.017920
520.4995, 6.168070
520.9816, 6.299021
521.4637, 6.626364
521.9459, 7.294559
522.4280, 7.972807
522.9101, 8.518883
523.3922, 8.946198
523.8743, 9.148190
524.3564, 9.026596
524.8386, 8.857445
525.3207, 9.032640
525.8028, 9.549881
526.2849, 10.03773
526.7670, 10.43205
527.2491, 10.70376
527.7313, 10.73837
528.2134, 10.62104
528.6955, 10.59787
529.1776, 10.84881
529.6597, 11.21156
530.1418, 11.58713
530.6240, 11.98719
531.1061, 12.24243
531.5882, 12.05326
532.0703, 11.71037
532.5524, 11.52847
533.0345, 11.69582
533.5167, 11.85028
533.9988, 11.83771
534.4809, 11.73697
534.9630, 11.68335
535.4451, 11.84402
535.9272, 11.88123
536.4094, 11.68487
536.8915, 11.28777
537.3736, 10.91975
537.8557, 10.54548
538.3378, 10.25576
538.8199, 10.16396
539.3021, 10.32869
539.7842, 10.20086
540.2663, 9.724247
540.7484, 9.134216
541.2305, 8.749498
541.7126, 8.535109
542.1948, 8.189716
542.6769, 7.587803
543.1590, 7.018892
543.6411, 7.045475
544.1232, 7.520409
544.6053, 7.891474
545.0875, 7.740908
545.5696, 7.357649
546.0517, 7.073412
546.5338, 7.000420
547.0159, 7.075274
547.4980, 7.198862
547.9802, 7.395262
548.4623, 7.686529
548.9444, 8.106651
549.4265, 8.564795
549.9086, 9.146622
550.3907, 9.728113
550.8729, 10.11385
551.3550, 10.02528
551.8371, 10.22905
552.3192, 11.02465
552.8013, 12.24442
553.2834, 12.88605
553.7656, 12.75376
554.2477, 12.76436
554.7298, 13.60715
555.2119, 15.16414
555.6940, 16.15978
556.1761, 16.54924
556.6583, 16.72085
557.1404, 16.92350
557.6225, 17.21392
558.1046, 17.73082
558.5867, 18.53821
559.0688, 19.50787
559.5510, 20.77204
560.0331, 22.09202
560.5152, 23.02124
560.9973, 22.81766
561.4794, 22.69238
561.9615, 23.39137
562.4437, 24.81927
562.9258, 25.98524
563.4079, 26.51823
563.8900, 26.89306
564.3721, 27.33918
564.8542, 27.92155
565.3364, 28.39094
565.8185, 28.81883
566.3006, 29.03821
566.7827, 28.86607
567.2648, 28.28411
567.7469, 27.40398
568.2291, 26.15289
568.7112, 24.74112
569.1933, 23.60008
569.6754, 22.70476
570.1575, 21.72528
570.6396, 20.38926
571.1218, 18.94118
571.6039, 17.76366
572.0860, 16.85405
572.5681, 16.10861
573.0502, 15.58295
573.5323, 15.13021
574.0145, 14.54816
574.4966, 13.74418
574.9787, 13.17221
575.4608, 13.19859
575.9429, 13.45594
576.4250, 13.58625
576.9072, 13.38880
577.3893, 13.24779
577.8714, 13.29894
578.3535, 13.40949
578.8356, 13.26062
579.3177, 12.76102
579.7999, 12.21956
580.2820, 11.67764
580.7641, 11.17056
581.2462, 11.08203
581.7283, 11.46581
582.2104, 11.76694
582.6926, 11.60027
583.1747, 11.05233
583.6568, 10.21861
584.1389, 9.045797
584.6210, 8.084618
585.1031, 8.109337
585.5853, 8.606483
586.0674, 8.809856
586.5495, 8.296593
587.0316, 7.817987
587.5137, 7.857027
587.9958, 8.139431
588.4779, 8.166344
588.9600, 7.580210
589.4421, 7.001223
589.9243, 6.645727
590.4064, 6.478653
590.8885, 6.170637
591.3706, 5.472628
591.8527, 4.935406
592.3348, 4.948114
592.8170, 5.629833
593.2991, 5.912399
593.7812, 5.738535
594.2633, 5.393665
594.7454, 5.076496
595.2275, 4.817432
595.7097, 4.828833
596.1918, 5.234470
596.6739, 5.636559
597.1560, 5.484060
597.6381, 4.978098
598.1202, 4.549015
598.6024, 4.432158
599.0845, 4.392988
599.5666, 4.276747
600.0487, 4.124996
600.5308, 4.070431
601.0129, 4.302277
601.4951, 4.473549
601.9772, 4.384800
602.4593, 3.984476
602.9414, 3.824795
603.4235, 4.078550
603.9056, 4.354460
604.3878, 4.370245
604.8699, 4.080524
605.3520, 3.786745
605.8341, 3.452198
606.3162, 3.243359
606.7983, 3.557491
607.2805, 4.265766
607.7626, 4.588394
608.2447, 4.130247
608.7268, 3.500515
609.2089, 3.537695
609.6910, 4.037708
610.1732, 4.440477
610.6553, 4.431778
611.1374, 4.263458
611.6195, 4.012625
612.1016, 3.705509
612.5837, 3.528162
613.0659, 3.714859
613.5480, 3.891651
614.0301, 3.842905
614.5122, 3.493042
614.9943, 3.251019
615.4764, 3.180340
615.9586, 3.139740
616.4407, 2.960863
616.9228, 2.606287
617.4049, 2.478106
617.8870, 2.675072
618.3691, 2.970900
618.8513, 3.043932
619.3334, 2.916967
619.8155, 2.672010
620.2976, 2.235510
620.7797, 1.825298
621.2618, 1.791065
621.7440, 2.007557
622.2261, 2.106390
622.7082, 1.796591
623.1903, 1.409527
623.6724, 1.081556
624.1545, 0.8275990
624.6367, 0.7329270
625.1188, 0.9955040
625.6009, 1.266035
626.0830, 1.360624
626.5651, 1.206331
627.0472, 1.171427
627.5294, 1.312099
628.0115, 1.481770
628.4936, 1.529284
628.9757, 1.453691
629.4578, 1.366983
629.9399, 1.298742
630.4221, 1.183519
630.9042, 0.8244130
631.3863, 0.3247740
631.8684, 2.1586999E-02
632.3505, 0.1962990
632.8326, 0.4420410
633.3148, 0.3440780
633.7969, 2.2785001E-02
634.2790, 0.1645070
634.7611, 4.9114000E-02
635.2432, 0.3069420
635.7253, 0.5085090
636.2075, 0.6446650
636.6896, 0.5725800
637.1717, 9.2073001E-02
637.6538, 0.3531060
638.1359, 0.5278050
638.6180, 0.3852730
639.1002, 0.2629470
639.5823, 0.1487830
640.0644, 8.9376003E-02
640.5465, 0.1725310
641.0286, 0.3658940
641.5107, 0.4815410
641.9929, 0.4743270
642.4750, 0.4438860
642.9571, 0.4897040
643.4392, 0.5942920
643.9213, 0.7351400
644.4034, 1.059200
644.8856, 1.230511
645.3677, 0.9813540
645.8498, 0.4458920
646.3319, 4.6587002E-02
646.8140, 0.7167240
647.2961, 1.003616
647.7783, 0.5343930
648.2604, 0.5392360
648.7425, 0.9569740
649.2246, 0.4896180
649.7067, 0.1042270
650.1888, 0.4905800
650.6710, 0.6739980
651.1531, 0.7397770
651.6352, 0.6817590
652.1173, 0.5681670
652.5994, 0.3423270
653.0815, 0.1262210
653.5637, 0.2364880
654.0458, 0.7771110
654.5279, 1.234852
655.0100, 1.175346
655.4921, 0.8523080
655.9742, 0.5466160
656.4564, 0.3003310
656.9385, 0.1191840
657.4206, 6.0678001E-02
657.9027, 0.1530950
658.3848, 4.7700000E-03
658.8669, 0.6389960
659.3491, 1.070036
659.8312, 1.105423
660.3133, 0.9028360
660.7954, 0.9542470
661.2775, 1.277475
661.7596, 1.565851
662.2418, 1.639099
662.7239, 1.601830
663.2060, 1.662334
663.6881, 1.820364
664.1702, 2.076014
664.6523, 2.514618
665.1345, 2.994343
665.6166, 3.430502
666.0987, 3.819931
666.5808, 4.043436
667.0629, 3.913769
667.5450, 3.704866
668.0272, 3.593035
668.5093, 3.578678
668.9914, 3.674191
669.4735, 3.910791
669.9556, 4.219151
670.4377, 4.524317
670.9199, 4.818518
671.4020, 5.201298
671.8841, 5.710182
672.3662, 6.246824
672.8483, 6.678541
673.3304, 7.015043
673.8126, 7.269976
674.2947, 7.379997
674.7768, 7.503748
675.2589, 7.870672
675.7410, 8.353935
676.2231, 8.663197
676.7053, 8.360302
677.1874, 8.201555
677.6695, 8.651333
678.1516, 9.580770
678.6337, 9.978577
679.1158, 9.540396
679.5980, 9.096893
680.0801, 8.987349
680.5622, 9.184668
681.0443, 9.345215
681.5264, 9.485611
682.0085, 9.427425
682.4907, 8.966396
682.9728, 8.224644
683.4549, 7.417904
683.9370, 6.565039
684.4191, 5.785944
684.9012, 5.169033
685.3834, 4.680635
685.8655, 4.309153
686.3476, 4.098314
686.8297, 3.888603
687.3118, 3.677048
687.7939, 3.429235
688.2761, 3.100180
688.7582, 2.581150
689.2403, 2.228216
689.7224, 2.118309
690.2045, 2.127407
690.6866, 2.033543
691.1688, 1.837883
691.6509, 1.690315
692.1330, 1.604628
692.6151, 1.627563
693.0972, 1.925993
693.5793, 2.378368
694.0615, 2.624918
694.5436, 2.305189
695.0257, 1.908163
695.5078, 1.736322
695.9899, 1.744446
696.4720, 1.700384
696.9542, 1.292875
697.4363, 1.095528
697.9183, 1.418320
698.4005, 2.204220
698.8826, 2.502390
699.3647, 2.198767
699.8468, 1.760603
700.3289, 1.356932
700.8110, 1.012800
701.2932, 1.027393
701.7753, 1.404236
702.2574, 1.751614
702.7395, 1.829020
703.2216, 1.700365
703.7037, 1.341475
704.1859, 0.7018260
704.6680, 0.2319740
705.1501, 0.2295890
705.6322, 0.4561860
706.1143, 0.6854230
706.5964, 0.9952010
707.0786, 1.212572
707.5607, 1.323313
708.0428, 1.334965
708.5249, 1.261316
709.0070, 1.079195
709.4891, 0.9665990
709.9713, 0.9449710
710.4534, 0.9970090
710.9355, 1.187637
711.4176, 1.446377
711.8997, 1.507082
712.3818, 1.183678
712.8640, 0.7965340
713.3461, 0.6086920
713.8282, 0.5573880
714.3103, 0.5328730
714.7924, 0.4234700
715.2745, 0.4099330
715.7567, 0.6460400
716.2388, 1.039133
716.7209, 1.259779
717.2030, 1.188332
717.6851, 1.207783
718.1672, 1.518700
718.6494, 1.982849
719.1315, 1.964640
719.6136, 1.486563
720.0957, 1.146143
720.5778, 1.537165
721.0599, 2.150396
721.5421, 2.195663
722.0242, 1.739183
722.5063, 1.337843
722.9884, 1.344513
723.4705, 1.448595
723.9526, 1.490273
724.4348, 1.438469
724.9169, 1.340410
725.3990, 1.193150
725.8811, 1.025177
726.3632, 0.8295440
726.8453, 0.5943280
727.3275, 0.5079820
727.8096, 0.5960520
728.2917, 0.7085300
728.7738, 0.6219690
729.2559, 0.4652120
729.7380, 0.6586550
730.2202, 1.296877
730.7023, 1.794046
731.1844, 1.502865
731.6665, 0.9585490
732.1486, 0.7441940
732.6307, 1.202141
733.1129, 1.506266
733.5950, 1.362101
734.0771, 1.092083
734.5592, 1.005840
735.0413, 1.202961
735.5234, 1.236410
736.0056, 1.026264
736.4877, 0.7576450
736.9698, 0.6352630
737.4519, 0.6159230
737.9340, 0.6422330
738.4161, 0.7036110
738.8983, 0.8220920
739.3804, 1.135193
739.8625, 1.497105
740.3446, 1.666939
740.8267, 1.346392
741.3088, 1.069889
741.7910, 0.9604340
742.2731, 1.000523
742.7552, 1.207926
743.2373, 1.740761
743.7194, 2.096546
744.2015, 2.122740
744.6837, 1.952915
745.1658, 1.968939
745.6479, 2.141048
746.1300, 2.097744
746.6121, 1.457338
747.0942, 0.7594240
747.5764, 0.8647670
748.0585, 1.538836
748.5406, 2.061733
749.0227, 1.827057
749.5048, 1.573843
749.9869, 1.830954
750.4691, 2.525282
750.9512, 2.759212
751.4333, 2.151249
751.9154, 1.589401
752.3975, 1.392235
752.8796, 1.519707
753.3618, 1.674421
753.8439, 1.839935
754.3260, 1.962265
754.8081, 2.023209
755.2902, 2.037121
755.7723, 2.018572
756.2545, 1.997780
756.7366, 1.977196
757.2187, 1.833317
757.7008, 1.762428
758.1829, 1.941566
758.6650, 2.409979
759.1472, 2.648859
759.6293, 2.526949
760.1114, 2.336084
760.5935, 2.175577
761.0756, 2.041668
761.5577, 2.014870
762.0399, 2.139072
762.5220, 2.366535
763.0041, 2.635395
763.4862, 2.896278
763.9683, 3.198441
764.4504, 3.541676
764.9326, 3.676704
765.4147, 3.229385
765.8968, 2.665871
766.3789, 2.316982
766.8610, 2.251173
767.3431, 2.352865
767.8253, 2.799051
768.3074, 3.184553
768.7895, 3.178600
769.2716, 2.718420
769.7537, 2.481527
770.2358, 2.518959
770.7180, 2.546751
771.2001, 2.133057
771.6822, 1.544037
772.1643, 1.398422
772.6464, 1.828981
773.1285, 2.222248
773.6107, 2.134974
774.0928, 1.851294
774.5749, 1.622831
775.0570, 1.503777
775.5391, 1.400309
776.0212, 1.274878
776.5034, 1.197805
776.9855, 1.268629
777.4676, 1.510672
777.9497, 1.621037
778.4318, 1.555609
778.9139, 1.434193
779.3961, 1.461115
779.8782, 1.519321
780.3603, 1.308067
780.8424, 0.6682110
781.3245, 0.1621440
781.8066, 0.2192210
782.2888, 0.5262640
782.7709, 0.7742270
783.2530, 0.9380150
783.7351, 0.9873960
784.2172, 0.8441560
784.6993, 0.6749360
785.1815, 0.7105030
785.6636, 0.9632490
786.1457, 1.018879
786.6278, 0.7837850
787.1099, 0.5320260
787.5920, 0.6977460
788.0742, 1.049732
788.5563, 1.139679
789.0384, 0.7555850
789.5205, 0.3682980
790.0026, 0.2021540
790.4847, 0.1655600
790.9669, 0.1580750
791.4490, 0.1805800
791.9311, 0.2218170
792.4132, 0.3236060
792.8953, 0.3897040
793.3774, 0.2007120
793.8596, 0.2152820
794.3417, 0.3099650
794.8238, 6.3005000E-02
795.3059, 0.5615290
795.7880, 0.8707070
796.2701, 1.029043
796.7523, 1.108694
797.2344, 1.152895
797.7165, 1.065386
798.1986, 0.6480770
798.6807, 0.1578430
799.1628, 8.7591000E-02
799.6450, 2.7290000E-02
800.1271, 0.1271800
800.6092, 0.1999240
801.0913, 0.2311780
801.5734, 0.1569670
802.0555, 6.6809999E-03
802.5377, 2.2606000E-02
803.0198, 0.1488820
803.5019, 0.2910520
803.9840, 0.1314320
804.4661, 0.1805930
804.9482, 0.4501740
805.4304, 0.7095220
805.9125, 0.7846280
806.3946, 0.3811190
806.8767, 7.7412002E-02
807.3588, 0.1134410
807.8409, 0.4391370
808.3230, 0.7376370
808.8051, 0.6553650
809.2872, 0.4390320
809.7693, 0.4466300
810.2515, 0.5850200
810.7336, 0.5557250
811.2157, 0.2481440
811.6978, 5.8288999E-02
812.1799, 0.2027990
812.6620, 0.2113610
813.1442, 0.1001170
813.6263, 0.4109020
814.1084, 0.5403610
814.5905, 3.4010001E-03
815.0726, 0.6710220
815.5547, 0.8511100
816.0369, 0.5106030
816.5190, 0.1846940
817.0011, 8.5078999E-02
817.4832, 0.2754900
817.9653, 0.2270320
818.4474, 0.1165490
818.9296, 0.3650440
819.4117, 1.255077
819.8938, 1.764824
820.3759, 1.012934
820.8580, 0.1315940
821.3401, 0.8509650
821.8223, 0.9690860
822.3044, 0.9930780
822.7865, 0.8977990
823.2686, 0.7560500
823.7507, 0.6305790
824.2328, 0.5221820
824.7150, 0.4406340
825.1971, 0.3896750
825.6792, 0.3394490
826.1613, 0.2252040
826.6434, 0.1179470
827.1255, 8.6758003E-02
827.6077, 0.1356850
828.0898, 0.2963750
828.5719, 0.6930480
829.0540, 1.110275
829.5361, 1.411671
830.0182, 1.583364
830.5004, 1.753159
830.9825, 1.947884
831.4646, 2.009064
831.9467, 1.678459
832.4288, 1.133713
832.9109, 0.7805750
833.3931, 0.6543460
833.8752, 0.5352330
834.3573, 0.2167320
834.8394, 8.9270003E-02
835.3215, 0.2342220
835.8036, 0.1822340
836.2858, 3.6899999E-02
836.7679, 0.2422680
837.2500, 0.5498700
837.7321, 0.8542400
838.2142, 1.144955
838.6964, 1.306629
839.1785, 1.328373
839.6606, 1.283464
840.1427, 1.154812
840.6248, 1.024611
841.1069, 0.9529420
841.5891, 0.9508590
842.0712, 1.091204
842.5533, 1.604557
843.0354, 2.055035
843.5175, 2.265759
843.9996, 2.249592
844.4818, 2.152834
844.9639, 1.947981
845.4460, 1.831093
845.9281, 1.990017
846.4102, 2.269829
846.8923, 2.269014
847.3745, 2.058079
847.8566, 1.949625
848.3387, 2.247345
848.8208, 2.568649
849.3029, 2.702885
849.7850, 2.676485
850.2672, 2.668472
850.7493, 2.637445
851.2314, 2.715689
851.7135, 2.945818
852.1956, 3.292597
852.6777, 3.711164
853.1599, 4.155941
853.6420, 4.366650
854.1241, 4.056463
854.6062, 3.682699
855.0883, 3.659477
855.5704, 3.886143
856.0526, 4.159477
856.5347, 4.421019
857.0168, 4.719036
857.4989, 5.156603
857.9810, 5.612402
858.4631, 5.838184
858.9453, 5.825279
859.4274, 5.704746
859.9095, 5.426674
860.3916, 5.258488
860.8737, 5.646090
861.3558, 6.384937
861.8380, 7.109200
862.3201, 7.701391
862.8022, 8.240446
863.2843, 8.850605
863.7664, 9.370682
864.2485, 9.587320
864.7307, 9.250854
865.2128, 9.367508
865.6949, 10.01994
866.1770, 10.93143
866.6591, 11.93552
867.1412, 12.97196
867.6234, 13.80453
868.1055, 14.35847
868.5876, 15.00513
869.0697, 16.15759
869.5518, 17.43032
870.0339, 18.46068
870.5161, 19.03793
870.9982, 20.00543
871.4803, 21.48472
871.9624, 23.08753
872.4445, 24.47659
872.9266, 25.68540
873.4088, 27.40550
873.8909, 29.63210
874.3730, 32.06891
874.8551, 34.61544
875.3372, 37.16426
875.8193, 39.53208
876.3015, 41.74520
876.7836, 44.39513
877.2657, 47.85530
877.7478, 51.42297
878.2299, 54.85761
878.7120, 58.30962
879.1942, 62.43386
879.6763, 67.24351
880.1584, 72.25726
880.6405, 77.21080
881.1226, 82.20499
881.6047, 87.21663
882.0869, 92.35427
882.5690, 97.90871
883.0511, 104.0397
883.5332, 110.5547
884.0153, 117.5073
884.4974, 124.8026
884.9796, 132.2098
885.4617, 139.8147
885.9438, 147.3895
886.4259, 154.9625
886.9080, 162.4381
887.3901, 169.4359
887.8723, 176.2891
888.3544, 183.7057
888.8365, 192.4149
889.3186, 200.6596
889.8007, 207.9010
890.2828, 214.2024
890.7650, 219.7104
891.2471, 224.5659
891.7292, 228.3518
892.2113, 231.0539
892.6934, 232.6972
893.1755, 233.1453
893.6577, 232.5502
894.1398, 231.3644
894.6219, 229.6475
895.1040, 226.9390
895.5861, 222.8515
896.0682, 217.7317
896.5504, 211.4675
897.0325, 203.9547
897.5146, 196.8737
897.9967, 190.4657
898.4788, 183.9046
898.9609, 176.4728
899.4431, 168.5230
899.9252, 161.2877
900.4073, 154.7692
900.8894, 148.7643
901.3715, 143.9450
901.8536, 138.9590
902.3358, 132.3907
902.8179, 124.7730
903.3000, 118.5101
903.7821, 114.5575
904.2642, 110.7219
904.7463, 106.6932
905.2285, 102.4680
905.7106, 97.74661
906.1927, 92.71396
906.6748, 88.24453
907.1569, 84.76791
907.6390, 81.44640
908.1212, 77.54400
908.6033, 73.34570
909.0854, 69.26711
909.5675, 65.12611
910.0496, 61.63190
910.5317, 59.01337
911.0139, 56.76123
911.4960, 54.36095
911.9781, 51.84509
912.4602, 49.61551
912.9423, 47.71795
913.4244, 45.75275
913.9066, 43.07636
914.3887, 40.32761
914.8708, 38.22842
915.3529, 36.87865
915.8350, 35.50317
916.3171, 33.89677
916.7993, 32.35167
917.2813, 30.94614
917.7634, 29.70146
918.2455, 28.90404
918.7277, 28.52728
919.2098, 27.94691
919.6919, 26.57077
920.1740, 25.02619
920.6561, 23.97455
921.1382, 23.25266
921.6204, 22.42333
922.1025, 21.23306
922.5846, 20.10431
923.0667, 19.10863
923.5488, 18.19647
924.0309, 17.24362
924.5131, 16.24150
924.9952, 15.39251
925.4773, 14.76696
925.9594, 14.22512
926.4415, 13.61643
926.9236, 13.01980
927.4058, 12.52149
927.8879, 12.18323
928.3700, 11.89873
928.8521, 11.68839
929.3342, 11.47386
929.8163, 11.20628
930.2985, 10.88897
930.7806, 10.63444
931.2627, 10.44208
931.7448, 10.39847
932.2269, 10.69692
932.7090, 11.01609
933.1912, 10.94993
933.6733, 10.55971
934.1554, 10.42827
934.6375, 10.94509
935.1196, 11.42412
935.6017, 11.65437
936.0839, 11.72772
936.5660, 12.07439
937.0481, 12.66046
937.5302, 12.92297
938.0123, 12.45048
938.4944, 12.00104
938.9766, 12.48454
939.4587, 13.41721
939.9408, 14.06430
940.4229, 13.80879
940.9050, 13.92326
941.3871, 14.57992
941.8693, 15.43812
942.3514, 16.28674
942.8335, 17.07131
943.3156, 17.18376
943.7977, 16.55255
944.2798, 15.80878
944.7620, 15.56593
945.2441, 15.37920
945.7262, 14.81415
946.2083, 13.81655
946.6904, 12.95261
947.1725, 12.42199
947.6547, 11.73853
948.1368, 10.61205
948.6189, 9.236004
949.1010, 8.375359
949.5831, 7.927973
950.0652, 7.280701
950.5474, 5.888998
951.0295, 4.492207
951.5116, 3.569036
951.9937, 3.004045
952.4758, 2.609297
952.9579, 2.404959
953.4401, 2.266577
953.9222, 2.221046
954.4043, 2.166990
954.8864, 1.941801
955.3685, 1.596870
955.8506, 1.344580
956.3328, 1.220703
956.8149, 1.039539
957.2970, 0.5001930
957.7791, 7.7249999E-03
958.2612, 0.1412730
958.7433, 0.1482750
959.2255, 0.3261150
959.7076, 0.3618390
960.1897, 0.3762170
960.6718, 0.3899840
961.1539, 0.4483220
961.6360, 0.8715420
962.1182, 1.474291
962.6003, 1.599392
963.0824, 0.3264640
963.5645, 0.8128850
964.0466, 1.105614
964.5287, 0.8943020
965.0109, 0.7678450
965.4930, 0.7641070
965.9751, 0.6408210
966.4572, 0.3264080
966.9393, 4.4381998E-02
967.4214, 0.1789000
967.9036, 0.4939990
968.3857, 0.5521320
968.8678, 0.2474370
969.3499, 3.9216999E-02
969.8320, 0.2589800
970.3141, 0.4644470
970.7963, 0.4253100
971.2784, 0.1539270
971.7605, 0.1701700
972.2426, 0.5475810
972.7247, 0.8898940
973.2068, 1.205820
973.6890, 1.407986
974.1711, 1.297640
974.6532, 0.9919220
975.1353, 0.7628480
975.6174, 0.6211030
976.0995, 0.6974120
976.5817, 1.191004
977.0638, 1.703503
977.5459, 1.593739
978.0280, 0.9236370
978.5101, 0.3441160
978.9922, 5.7810001E-02
979.4744, 0.2814830
979.9565, 0.1828630
980.4386, 5.6420001E-03
980.9207, 3.5688002E-02
981.4028, 0.1585060
981.8849, 0.1006430
982.3671, 0.4247650
982.8492, 0.7454320
983.3313, 0.4177360
983.8134, 0.2689910
984.2955, 0.3707430
984.7776, 1.6169000E-02
985.2598, 0.2739010
985.7419, 0.1067600
986.2240, 2.8229000E-02
986.7061, 0.2126620
987.1882, 0.5960410
987.6703, 0.7513790
988.1525, 0.6655180
988.6346, 0.3185730
989.1167, 0.3824620
989.5988, 0.9943500
990.0809, 0.9137270
990.5630, 0.4490550
991.0452, 8.5341997E-02
991.5273, 0.1234990
992.0094, 0.2261940
992.4915, 8.7771997E-02
992.9736, 1.3506000E-02
993.4557, 0.1791500
993.9379, 0.5223160
994.4200, 0.6657350
994.9021, 0.6116240
995.3842, 0.5803410
995.8663, 0.6881690
996.3484, 0.8252740
996.8306, 0.8640040
997.3127, 0.8200910
997.7948, 0.7464220
998.2769, 0.4451370
998.7590, 0.5078390
999.2411, 1.123898
999.7233, 1.822746
1000.205, 2.176502
1000.688, 2.213974
1001.170, 1.945950
1001.652, 1.398512
1002.134, 1.059628
1002.616, 1.495527
1003.098, 2.046064
1003.580, 2.237902
1004.062, 2.117704
1004.544, 2.095287
1005.027, 2.167830
1005.509, 2.373028
1005.991, 2.778118
1006.473, 3.212431
1006.955, 3.379372
1007.437, 3.382105
1007.919, 3.431551
1008.401, 3.611383
1008.883, 3.763889
1009.366, 3.675901
1009.848, 3.691628
1010.330, 4.137457
1010.812, 5.034416
1011.294, 5.362089
1011.776, 5.123730
1012.258, 5.000999
1012.740, 5.709826
1013.223, 6.530067
1013.705, 6.689188
1014.187, 6.380045
1014.669, 6.287640
1015.151, 6.637411
1015.633, 6.979605
1016.115, 7.242855
1016.597, 7.485067
1017.079, 7.783020
1017.562, 8.122557
1018.044, 8.466953
1018.526, 8.817223
1019.008, 9.102692
1019.490, 9.270508
1019.972, 9.362438
1020.454, 9.387379
1020.936, 9.352015
1021.419, 9.357304
1021.901, 9.454746
1022.383, 9.375519
1022.865, 8.922531
1023.347, 8.287792
1023.829, 7.629574
1024.311, 7.027620
1024.793, 6.618412
1025.275, 6.711279
1025.758, 6.562786
1026.240, 5.997417
1026.722, 5.363596
1027.204, 5.011084
1027.686, 4.874218
1028.168, 4.637125
1028.650, 4.302761
1029.132, 3.971167
1029.615, 3.658136
1030.097, 3.385921
1030.579, 3.165085
1031.061, 3.005606
1031.543, 2.965858
1032.025, 3.103048
1032.507, 3.119244
1032.989, 2.899508
1033.471, 2.633430
1033.953, 2.680599
1034.436, 2.868502
1034.918, 2.813120
1035.400, 2.392349
1035.882, 2.025278
1036.364, 1.673212
1036.846, 1.566441
1037.328, 1.997688
1037.810, 2.864002
1038.293, 2.910969
1038.775, 2.220924
1039.257, 1.570667
1039.739, 1.412315
1040.221, 1.456083
1040.703, 1.592306
1041.185, 1.752388
1041.667, 1.775501
1042.150, 1.627552
1042.632, 1.523489
1043.114, 1.459627
1043.596, 1.439207
1044.078, 1.550026
1044.560, 1.695879
1045.042, 1.625299
1045.524, 1.337152
1046.006, 1.143980
1046.489, 1.263542
1046.971, 1.330000
1047.453, 1.191202
1047.935, 0.9908890
1048.417, 1.144901
1048.899, 1.577887
1049.381, 1.646851
1049.863, 1.014997
1050.345, 0.5168020
1050.828, 1.109032
1051.310, 1.969654
1051.792, 2.283203
1052.274, 1.951519
1052.756, 1.428421
1053.238, 0.6373960
1053.720, 1.3489000E-02
1054.202, 0.1571710
1054.685, 1.2625000E-02
1055.167, 0.3493840
1055.649, 0.8063810
1056.131, 1.119213
1056.613, 1.148283
1057.095, 1.081417
1057.577, 0.8673190
1058.059, 0.6746940
1058.542, 0.8050440
1059.024, 1.169596
1059.506, 1.078918
1059.988, 0.4925560
1060.470, 1.2789000E-02
1060.952, 0.1824490
1061.434, 0.4634020
1061.916, 0.4516890
1062.398, 0.2507900
1062.880, 0.3730470
1063.363, 0.9096240
1063.845, 1.176285
1064.327, 0.9443860
1064.809, 0.5541080
1065.291, 0.3501030
1065.773, 0.2827630
1066.255, 0.2909740
1066.737, 0.3698120
1067.220, 0.5225390
1067.702, 0.8677040
1068.184, 1.045567
1068.666, 0.7346690
1069.148, 0.1793060
1069.630, 0.3253020
1070.112, 0.9708820
1070.594, 1.379333
1071.077, 0.9777130
1071.559, 0.5919020
1072.041, 0.5999030
1072.523, 0.7660520
1073.005, 0.8435920
1073.487, 0.8194920
1073.969, 0.9044380
1074.451, 1.109558
1074.933, 1.271017
1075.416, 1.208241
1075.898, 1.095179
1076.380, 1.103413
1076.862, 1.199678
1077.344, 1.226103
1077.826, 1.191732
1078.308, 0.9986630
1078.790, 0.5487690
1079.272, 0.1700860
1079.755, 0.5213970
1080.237, 1.183891
1080.719, 1.392576
1081.201, 1.013594
1081.683, 0.5619600
1082.165, 2.0579999E-02
1082.647, 0.3434430
1083.129, 0.4032380
1083.611, 0.2385830
1084.094, 0.1039750
1084.576, 1.4757000E-02
1085.058, 0.2015400
1085.540, 0.5198250
1086.022, 0.8201980
1086.504, 1.149725
1086.986, 1.317650
1087.468, 1.048380
1087.951, 0.2319030
1088.433, 0.1932470
1088.915, 0.9913220
1089.397, 1.707439
1089.879, 1.769613
1090.361, 1.459688
1090.843, 0.8019280
1091.325, 3.7119001E-02
1091.807, 0.2871740
1092.290, 0.2451780
1092.772, 0.5371020
1093.254, 0.4830320
1093.736, 0.3286510
1094.218, 0.2803760
1094.700, 0.3240570
1095.182, 0.4751210
1095.664, 0.7068940
1096.146, 0.8206390
1096.629, 0.5902330
1097.111, 0.4174420
1097.593, 0.4396150
1098.075, 0.5448970
1098.557, 0.4963670
1099.039, 0.3273910
1099.521, 0.2211130
1100.003, 0.2111230
1100.486, 0.2557660
1100.968, 0.3865590
1101.450, 0.5095480
1101.932, 0.5592880
1102.414, 0.5441000
1102.896, 0.5049250
1103.378, 0.4402870
1103.860, 0.3387740
1104.343, 0.1663530
1104.825, 3.0526999E-02
1105.307, 6.5056004E-02
1105.789, 0.1898370
1106.271, 0.3276770
1106.753, 0.5221790
1107.235, 0.4674510
1107.717, 4.8447002E-02
1108.199, 0.2064650
1108.682, 0.1755910
1109.164, 0.8149130
1109.646, 0.9915960
1110.128, 0.8379100
1110.610, 0.6479780
1111.092, 0.5090830
1111.574, 0.3247130
1112.056, 5.1480001E-03
1112.538, 0.2081200
1113.021, 6.3718997E-02
1113.503, 0.6502150
1113.985, 1.025030
1114.467, 1.170294
1114.949, 1.142679
1115.431, 0.8038690
1115.913, 0.4895340
1116.395, 0.2659570
1116.878, 0.1782230
1117.360, 0.3862740
1117.842, 0.8645780
1118.324, 1.131712
1118.806, 1.142220
1119.288, 1.040995
1119.770, 0.8481540
1120.252, 0.6561970
1120.734, 0.4590820
1121.217, 0.3158650
1121.699, 0.6188450
1122.181, 1.464863
1122.663, 1.845722
1123.145, 1.393415
1123.627, 0.7451570
1124.109, 0.4854050
1124.591, 0.4970170
1125.073, 0.7213290
1125.556, 1.207907
1126.038, 1.439716
1126.520, 1.392452
1127.002, 1.122969
1127.484, 0.5425780
1127.966, 7.2350003E-02
1128.448, 0.2238750
1128.930, 6.2440999E-02
1129.413, 0.1429230
1129.895, 0.3498190
1130.377, 0.5326400
1130.859, 0.7061880
1131.341, 0.8228530
1131.823, 0.7975980
1132.305, 0.7055090
1132.787, 0.9032630
1133.270, 1.271570
1133.752, 1.391218
1134.234, 0.7975120
1134.716, 0.3082600
1135.198, 0.1005760
1135.680, 9.5360003E-02
1136.162, 0.2883190
1136.644, 0.6477780
1137.126, 0.9305380
1137.609, 1.132824
1138.091, 1.239447
1138.573, 1.143045
1139.055, 1.060406
1139.537, 1.188639
1140.019, 1.352369
1140.501, 1.236843
1140.983, 0.8587760
1141.465, 0.5232120
1141.948, 0.2547250
1142.430, 0.1022490
1142.912, 8.9968003E-02
1143.394, 0.2191050
1143.876, 0.6628820
1144.358, 1.262794
1144.840, 1.345333
1145.322, 0.8266940
1145.805, 0.4316060
1146.287, 0.3116360
1146.769, 0.3069310
1147.251, 0.1996150
1147.733, 0.1463910
1148.215, 0.4340110
1148.697, 1.085829
1149.179, 1.207102
1149.661, 0.6128140
1150.144, 9.9422000E-02
1150.626, 0.1469190
1151.108, 0.1677780
1151.590, 0.1310480
1152.072, 0.5539130
1152.554, 0.8372290
1153.036, 0.9362240
1153.518, 0.8221360
1154.000, 0.3317910
1154.483, 6.8474002E-02
1154.965, 0.4255390
1155.447, 1.047838
1155.929, 1.159679
1156.411, 0.9660260
1156.893, 0.9108980
1157.375, 1.275604
1157.857, 1.393126
1158.340, 1.112881
1158.822, 0.7287620
1159.304, 0.3746740
1159.786, 8.0390997E-02
1160.268, 4.6665002E-02
1160.750, 3.7041001E-02
1161.232, 8.1860004E-03
1161.714, 0.1013200
1162.197, 0.1419200
1162.679, 5.4292999E-02
1163.161, 1.9358000E-02
1163.643, 3.1424001E-02
1164.125, 0.1991250
1164.607, 0.5860920
1165.089, 1.106907
1165.571, 1.283573
1166.053, 0.3408660
1166.536, 0.3217410
1167.018, 1.3979000E-02
1167.500, 0.5945210
1167.982, 0.7573760
1168.464, 0.5215190
1168.946, 0.2970490
1169.428, 0.1207310
1169.910, 0.1406670
1170.392, 0.8223420
1170.875, 1.328831
1171.357, 0.9836750
1171.839, 0.2925610
1172.321, 9.0778001E-02
1172.803, 0.3594070
1173.285, 0.4643210
1173.767, 0.3307590
1174.249, 0.2075350
1174.732, 0.3406280
1175.214, 0.4802570
1175.696, 0.4158940
1176.178, 0.2423270
1176.660, 0.2439540
1177.142, 0.4268400
1177.624, 0.4247340
1178.106, 0.1407890
1178.589, 4.5947999E-02
1179.071, 0.3495080
1179.553, 0.8350980
1180.035, 1.012552
1180.517, 0.9239560
1180.999, 0.8266600
1181.481, 0.7171690
1181.963, 0.6574970
1182.445, 0.6714710
1182.927, 0.7008900
1183.410, 0.6526050
1183.892, 0.6187190
1184.374, 0.7075410
1184.856, 0.9149760
1185.338, 1.134008
1185.820, 1.385151
1186.302, 1.306690
1186.784, 0.6777380
1187.267, 4.3981999E-02
1187.749, 4.3467000E-02
1188.231, 0.1844580
1188.713, 0.5381050
1189.195, 1.017101
1189.677, 1.244883
1190.159, 1.204693
1190.641, 1.008736
1191.124, 0.5770650
1191.606, 0.2503360
1192.088, 0.6763480
1192.570, 1.316946
1193.052, 1.407082
1193.534, 0.7118190
1194.016, 0.3515090
1194.498, 0.3624270
1194.980, 0.5002570
1195.463, 0.7558770
1195.945, 0.9204770
1196.427, 0.5454750
1196.909, 8.1749996E-03
1197.391, 0.1401670
1197.873, 0.4310860
1198.355, 0.6562980
1198.837, 0.4732000
1199.319, 0.2711910
1199.802, 0.3488410
1200.284, 0.4711380
1200.766, 0.2029550
1201.248, 0.1848850
1201.730, 0.1644780
1202.212, 0.6237950
1202.694, 1.045427
1203.176, 1.043652
1203.658, 0.9716300
1204.141, 1.140659
1204.623, 1.332247
1205.105, 1.179081
1205.587, 0.8595750
1206.069, 0.7975850
1206.551, 1.242460
1207.033, 1.386526
1207.515, 1.156200
1207.998, 0.9286710
1208.480, 1.106445
1208.962, 1.368082
1209.444, 1.235504
1209.926, 0.8705120
1210.408, 0.7618010
1210.890, 1.080133
1211.372, 1.281870
1211.854, 1.323664
1212.337, 1.324402
1212.819, 1.421692
1213.301, 1.512276
1213.783, 1.483227
1214.265, 1.345345
1214.747, 1.117994
1215.229, 0.6782590
1215.711, 0.6320110
1216.193, 1.110992
1216.676, 1.500378
1217.158, 1.031075
1217.640, 0.3363610
1218.122, 3.1406000E-02
1218.604, 8.3443001E-02
1219.086, 0.2302210
1219.568, 0.4637150
1220.050, 0.7607980
1220.533, 1.148088
1221.015, 1.404778
1221.497, 1.131393
1221.979, 0.7774750
1222.461, 0.9037780
1222.943, 1.370222
1223.425, 1.438120
1223.907, 0.9349230
1224.390, 0.7018640
1224.872, 0.8571990
1225.354, 1.106251
1225.836, 1.175205
1226.318, 1.204884
1226.800, 1.372713
1227.282, 1.628107
1227.764, 1.704082
1228.246, 1.588091
1228.729, 1.318859
1229.211, 0.8758010
1229.693, 0.5099120
1230.175, 0.5957110
1230.657, 0.7469120
1231.139, 0.5400470
1231.621, 8.0205999E-02
1232.103, 6.0026001E-02
1232.585, 0.1580890
1233.068, 0.3170640
1233.550, 0.3435590
1234.032, 0.3599990
1234.514, 0.4686240
1234.996, 0.6168290
1235.478, 0.8015270
1235.960, 0.9805950
1236.442, 0.9842850
1236.925, 0.8068560
1237.407, 0.6817970
1237.889, 0.6551700
1238.371, 0.6219840
1238.853, 0.4648380
1239.335, 0.2929530
1239.817, 0.1648540
1240.299, 0.1048410
1240.781, 0.2571540
1241.264, 0.5964870
1241.746, 0.8734210
1242.228, 1.051212
1242.710, 1.121387
1243.192, 1.012535
1243.674, 0.8694550
1244.156, 0.7822970
1244.638, 0.7225930
1245.120, 0.5451300
1245.603, 0.2946300
1246.085, 0.3392720
1246.567, 0.7842920
1247.049, 1.122637
1247.531, 0.9451390
1248.013, 0.7215250
1248.495, 0.6457860
1248.977, 0.6934430
1249.460, 0.8386840
1249.942, 1.053259
1250.424, 1.267944
1250.906, 1.478220
1251.388, 1.507019
1251.870, 1.048325
1252.352, 0.6638360
1252.834, 0.5570560
1253.317, 0.6257150
1253.799, 0.7401430
1254.281, 0.8403660
1254.763, 0.6637990
1255.245, 0.1375980
1255.727, 3.6929999E-03
1256.209, 1.009310
1256.691, 1.583872
1257.173, 1.137722
1257.656, 0.2875040
1258.138, 0.1737400
1258.620, 0.4623130
1259.102, 0.5230520
1259.584, 0.2498420
1260.066, 7.7491999E-02
1260.548, 7.9092003E-02
1261.030, 0.1467190
1261.512, 0.2473790
1261.995, 0.4221840
1262.477, 0.8750650
1262.959, 1.364952
1263.441, 1.554686
1263.923, 1.394014
1264.405, 1.052999
1264.887, 0.4321560
1265.369, 7.4362002E-02
1265.852, 0.1449660
1266.334, 0.4176940
1266.816, 0.7707080
1267.298, 1.075153
1267.780, 1.154560
1268.262, 1.006084
1268.744, 0.9041310
1269.226, 0.8612250
1269.708, 0.8943230
1270.191, 1.047871
1270.673, 1.165607
1271.155, 1.153774
1271.637, 1.059566
1272.119, 0.8043860
1272.601, 0.4822790
1273.083, 0.5595250
1273.565, 0.9823020
1274.047, 1.002243
1274.530, 0.3717020
1275.012, 0.1591760
1275.494, 3.7696999E-02
1275.976, 0.3954560
1276.458, 0.6157910
1276.940, 0.7253880
1277.422, 0.8197590
1277.904, 0.8914910
1278.387, 0.5161130
1278.869, 0.6755430
1279.351, 0.7565610
1279.833, 0.8210700
1280.315, 0.6394160
1280.797, 0.0000000E+00
##END=



