##NAMES=Hematophanite
##RRUFFID=R070638
##IDEAL CHEMISTRY=Pb_4_Fe^3+^_3_O_8_Cl
##LOCALITY=Kombat mine, Kombat, Grootfontein District, Otjozondjupa Region, Namibia
##OWNER=RRUFF
##SOURCE=William W. Pinch
##DESCRIPTION=Submetallic deep red-brown tabular crystals with colorless calcite, also associated with R070639 britvinite
##STATUS=The identification of this mineral has been confirmed by single-crystal X-ray diffraction.
##URL=rruff.info/R070638
##MEASURED CHEMISTRY=Pb_4.00_(Fe^3+^_2.99_Mn^3+^_0.01_)_Î£=3_O_8_Cl_1.00_ ; Mn^3+^ by charge balance
123.3804, 0.0000000E+00
123.8625, 5.494385
124.3446, 4.063232
124.8267, 1.908936
125.3088, 0.4565430
125.7909, 11.39258
126.2731, 21.46875
126.7552, 20.32275
127.2373, 24.30542
127.7194, 45.20288
128.2015, 83.85205
128.6837, 127.8894
129.1658, 158.4917
129.6479, 166.7087
130.1300, 178.6353
130.6121, 195.3328
131.0942, 216.1460
131.5764, 241.9932
132.0585, 273.1653
132.5406, 307.1538
133.0227, 334.6609
133.5048, 344.0793
133.9869, 359.7478
134.4691, 388.9324
134.9512, 426.8132
135.4333, 465.0938
135.9154, 499.1704
136.3975, 528.1450
136.8796, 545.8093
137.3618, 540.3291
137.8439, 537.2539
138.3260, 551.9387
138.8081, 582.5388
139.2902, 614.7471
139.7723, 639.2065
140.2545, 654.6870
140.7366, 659.4468
141.2187, 639.4763
141.7008, 615.0371
142.1829, 611.6440
142.6650, 635.3975
143.1472, 662.6221
143.6293, 664.1367
144.1114, 645.6995
144.5935, 633.2480
145.0756, 650.4709
145.5577, 690.3137
146.0399, 723.4387
146.5220, 743.5164
147.0041, 749.8740
147.4862, 742.1660
147.9683, 722.3669
148.4504, 700.9170
148.9326, 678.0659
149.4147, 651.4814
149.8968, 626.2039
150.3789, 618.9507
150.8610, 612.1707
151.3431, 597.7378
151.8252, 577.7231
152.3074, 555.6553
152.7895, 538.0037
153.2716, 521.7913
153.7537, 497.6206
154.2358, 465.2363
154.7179, 431.7739
155.2001, 405.1975
155.6822, 389.4236
156.1643, 377.8169
156.6464, 354.2690
157.1285, 300.9187
157.6106, 256.0293
158.0928, 227.4238
158.5749, 208.6768
159.0570, 190.4141
159.5391, 166.7832
160.0212, 138.7800
160.5033, 119.0498
160.9855, 114.0071
161.4676, 109.3411
161.9497, 101.1389
162.4318, 89.68750
162.9139, 76.36279
163.3960, 61.44629
163.8782, 45.00879
164.3603, 33.91577
164.8424, 33.72729
165.3245, 33.98828
165.8066, 26.94800
166.2887, 12.28101
166.7709, 3.597900
167.2530, 15.23389
167.7351, 22.53003
168.2172, 27.56836
168.6993, 29.87134
169.1814, 30.26343
169.6636, 29.51611
170.1457, 27.57373
170.6278, 25.10962
171.1099, 22.00757
171.5920, 18.47656
172.0741, 16.69702
172.5563, 20.01318
173.0384, 25.97754
173.5205, 27.14453
174.0026, 20.50732
174.4847, 11.11597
174.9668, 0.2607420
175.4490, 11.48511
175.9311, 15.53467
176.4132, 0.3579100
176.8953, 35.44800
177.3774, 58.94067
177.8595, 57.42578
178.3417, 48.42065
178.8238, 41.42017
179.3059, 37.63770
179.7880, 36.11133
180.2701, 35.87573
180.7522, 36.92041
181.2344, 35.30347
181.7165, 41.23730
182.1986, 44.68579
182.6807, 36.48633
183.1628, 14.48022
183.6449, 11.68652
184.1271, 25.19629
184.6092, 18.43115
185.0913, 13.45020
185.5734, 15.16797
186.0555, 18.13599
186.5376, 16.11475
187.0198, 6.634766
187.5019, 5.434570
187.9840, 7.428955
188.4661, 7.840088
188.9482, 25.59229
189.4303, 46.83618
189.9125, 69.14087
190.3946, 89.82373
190.8767, 107.7236
191.3588, 123.0137
191.8409, 136.9221
192.3230, 151.6621
192.8052, 162.5305
193.2873, 163.5725
193.7694, 160.3743
194.2515, 162.3557
194.7336, 175.2939
195.2157, 198.3103
195.6979, 224.2312
196.1800, 261.1841
196.6621, 292.2073
197.1442, 307.8306
197.6263, 311.5674
198.1084, 314.3340
198.5906, 323.3862
199.0727, 338.4045
199.5548, 352.3872
200.0369, 359.6594
200.5190, 370.5459
201.0011, 394.4705
201.4833, 430.1892
201.9654, 464.5605
202.4475, 487.0229
202.9296, 498.5352
203.4117, 513.9688
203.8938, 540.4836
204.3760, 566.9512
204.8581, 579.2407
205.3402, 575.7881
205.8223, 576.5566
206.3044, 603.1687
206.7865, 648.3660
207.2687, 685.7600
207.7508, 707.9729
208.2329, 720.4397
208.7150, 726.8000
209.1971, 724.0796
209.6792, 727.4263
210.1614, 758.5759
210.6435, 806.1987
211.1256, 843.6865
211.6077, 856.3997
212.0898, 852.9504
212.5719, 849.8274
213.0541, 843.9053
213.5362, 846.7864
214.0183, 876.2009
214.5004, 921.1860
214.9825, 953.6980
215.4646, 950.9358
215.9468, 921.3923
216.4289, 899.5413
216.9110, 884.3491
217.3931, 881.2175
217.8752, 898.3743
218.3573, 929.3577
218.8395, 955.5571
219.3216, 960.1907
219.8037, 945.3562
220.2858, 938.3203
220.7679, 942.9495
221.2500, 952.3499
221.7322, 967.2456
222.2143, 984.8652
222.6964, 998.0164
223.1785, 998.5222
223.6606, 985.4124
224.1427, 975.1628
224.6249, 972.1643
225.1070, 968.0178
225.5891, 956.2444
226.0712, 939.5989
226.5533, 927.3982
227.0354, 929.7454
227.5176, 949.0046
227.9997, 966.6843
228.4818, 980.8945
228.9639, 995.0552
229.4460, 1011.967
229.9281, 1030.418
230.4103, 1045.720
230.8924, 1050.071
231.3745, 1037.359
231.8566, 1044.408
232.3387, 1088.958
232.8208, 1137.279
233.3030, 1172.313
233.7851, 1194.056
234.2672, 1213.490
234.7493, 1241.944
235.2314, 1283.748
235.7135, 1324.260
236.1957, 1360.133
236.6778, 1398.536
237.1599, 1443.973
237.6420, 1496.041
238.1241, 1550.132
238.6062, 1600.283
239.0884, 1644.022
239.5705, 1692.409
240.0526, 1743.658
240.5347, 1800.460
241.0168, 1864.563
241.4989, 1935.468
241.9811, 2011.748
242.4632, 2093.385
242.9453, 2183.464
243.4274, 2269.793
243.9095, 2338.139
244.3916, 2413.140
244.8738, 2517.132
245.3559, 2649.578
245.8380, 2788.707
246.3201, 2909.033
246.8022, 3002.181
247.2843, 3100.916
247.7665, 3201.768
248.2486, 3310.447
248.7307, 3432.841
249.2128, 3568.967
249.6949, 3710.529
250.1770, 3846.641
250.6592, 3970.802
251.1413, 4116.827
251.6234, 4304.673
252.1055, 4499.339
252.5876, 4674.023
253.0697, 4824.980
253.5519, 4970.703
254.0340, 5127.975
254.5161, 5297.753
254.9982, 5481.402
255.4803, 5694.946
255.9624, 5910.556
256.4445, 6102.942
256.9267, 6269.501
257.4088, 6432.140
257.8909, 6616.570
258.3730, 6830.786
258.8551, 7018.286
259.3372, 7153.179
259.8194, 7277.359
260.3015, 7426.913
260.7836, 7605.270
261.2657, 7789.649
261.7478, 7960.064
262.2299, 8114.471
262.7121, 8257.198
263.1942, 8387.665
263.6763, 8506.304
264.1584, 8612.553
264.6405, 8706.524
265.1227, 8790.319
265.6048, 8865.177
266.0869, 8930.192
266.5690, 8985.441
267.0511, 9044.103
267.5332, 9084.588
268.0154, 9086.815
268.4975, 9050.004
268.9796, 8989.688
269.4617, 8916.459
269.9438, 8828.199
270.4259, 8729.434
270.9081, 8624.610
271.3902, 8506.106
271.8723, 8372.582
272.3544, 8222.175
272.8365, 8043.065
273.3186, 7814.539
273.8008, 7541.214
274.2829, 7293.491
274.7650, 7090.622
275.2471, 6900.149
275.7292, 6699.820
276.2113, 6490.110
276.6935, 6275.866
277.1756, 6060.749
277.6577, 5843.618
278.1398, 5629.700
278.6219, 5417.991
279.1040, 5209.207
279.5862, 5006.740
280.0683, 4809.100
280.5504, 4605.568
281.0325, 4382.761
281.5146, 4152.072
281.9967, 3953.321
282.4789, 3806.877
282.9610, 3671.133
283.4431, 3520.939
283.9252, 3358.312
284.4073, 3197.797
284.8894, 3045.142
285.3716, 2900.980
285.8537, 2762.625
286.3358, 2632.181
286.8179, 2504.981
287.3000, 2375.808
287.7821, 2246.344
288.2643, 2128.282
288.7464, 2029.396
289.2285, 1942.484
289.7106, 1847.377
290.1927, 1734.684
290.6748, 1631.305
291.1570, 1561.365
291.6391, 1513.082
292.1212, 1445.605
292.6033, 1332.946
293.0854, 1206.592
293.5675, 1134.703
294.0497, 1134.791
294.5318, 1130.420
295.0139, 1082.781
295.4960, 1008.214
295.9781, 944.3665
296.4602, 904.5220
296.9424, 876.3364
297.4245, 839.0479
297.9066, 791.5271
298.3887, 745.1990
298.8708, 702.2390
299.3529, 663.1162
299.8351, 628.7732
300.3172, 599.4487
300.7993, 574.1458
301.2814, 552.6985
301.7635, 535.6353
302.2456, 516.5371
302.7278, 495.6772
303.2099, 471.6189
303.6920, 439.1162
304.1741, 395.7917
304.6562, 355.0730
305.1383, 334.2859
305.6205, 335.0383
306.1026, 334.3071
306.5847, 329.1179
307.0668, 320.7268
307.5489, 310.5139
308.0310, 298.9597
308.5132, 285.9989
308.9953, 270.4944
309.4774, 252.5735
309.9595, 238.8654
310.4416, 235.1519
310.9237, 231.9102
311.4059, 220.2920
311.8880, 200.4763
312.3701, 179.8909
312.8522, 164.1902
313.3343, 154.0032
313.8164, 145.9380
314.2986, 143.6694
314.7807, 140.1685
315.2628, 132.1650
315.7449, 119.9915
316.2270, 102.8040
316.7091, 77.31055
317.1913, 47.36462
317.6734, 34.52844
318.1555, 52.08862
318.6376, 69.61365
319.1197, 76.13342
319.6018, 74.00940
320.0840, 67.89880
320.5661, 59.53003
321.0482, 50.62451
321.5303, 47.51587
322.0124, 57.81763
322.4945, 62.78259
322.9767, 53.56677
323.4588, 37.63538
323.9409, 26.74292
324.4230, 25.64355
324.9051, 29.53833
325.3872, 28.78137
325.8694, 20.96985
326.3515, 12.67310
326.8336, 0.1993410
327.3157, 11.11084
327.7978, 10.81213
328.2799, 2.561401
328.7621, 19.19385
329.2442, 25.38574
329.7263, 15.46619
330.2084, 8.276978
330.6905, 5.475830
331.1726, 4.084717
331.6548, 0.3818360
332.1369, 7.167114
332.6190, 8.759644
333.1011, 4.342285
333.5832, 37.28638
334.0653, 55.00610
334.5475, 50.48889
335.0296, 40.38232
335.5117, 29.47119
335.9938, 19.63025
336.4759, 13.51245
336.9580, 14.12085
337.4402, 21.23499
337.9223, 19.97290
338.4044, 0.9411620
338.8865, 15.93958
339.3686, 27.51648
339.8507, 33.20361
340.3329, 31.34265
340.8150, 20.30298
341.2971, 3.321777
341.7792, 5.652466
342.2613, 0.9226070
342.7434, 5.435913
343.2256, 15.05090
343.7077, 24.33606
344.1898, 28.71802
344.6719, 26.48010
345.1540, 21.11084
345.6361, 20.06470
346.1183, 27.37695
346.6004, 31.12402
347.0825, 27.37354
347.5646, 22.47034
348.0467, 21.10938
348.5288, 24.14429
349.0110, 29.05237
349.4931, 33.02588
349.9752, 36.29932
350.4573, 37.79114
350.9394, 34.31348
351.4215, 31.74744
351.9037, 35.80591
352.3858, 44.33411
352.8679, 48.70947
353.3500, 38.80505
353.8321, 15.27124
354.3142, 4.3212999E-02
354.7964, 3.814209
355.2785, 2.439697
355.7606, 3.499634
356.2427, 12.15430
356.7248, 20.42920
357.2069, 27.05762
357.6891, 31.76978
358.1712, 33.41113
358.6533, 31.04456
359.1354, 27.67834
359.6175, 23.40002
360.0996, 19.25671
360.5818, 17.16577
361.0639, 18.82214
361.5460, 19.99719
362.0281, 13.19788
362.5102, 2.878052
362.9923, 15.08276
363.4745, 14.24036
363.9566, 10.89038
364.4387, 17.47119
364.9208, 36.88489
365.4029, 53.44983
365.8850, 52.08435
366.3672, 36.31152
366.8493, 25.75635
367.3314, 26.77649
367.8135, 31.06079
368.2956, 27.99939
368.7777, 18.32715
369.2599, 13.98291
369.7420, 26.81775
370.2241, 46.18079
370.7062, 50.93909
371.1883, 36.21704
371.6704, 22.00476
372.1526, 28.21936
372.6347, 50.96851
373.1168, 67.36877
373.5989, 71.45837
374.0810, 70.54590
374.5631, 70.69299
375.0453, 71.66248
375.5274, 69.24951
376.0095, 58.67480
376.4916, 43.62793
376.9737, 39.49536
377.4558, 57.26416
377.9380, 72.01355
378.4201, 72.05090
378.9022, 63.02942
379.3843, 54.45728
379.8664, 49.52429
380.3485, 49.69299
380.8307, 58.82861
381.3128, 84.27063
381.7949, 105.1556
382.2770, 118.8934
382.7591, 128.2454
383.2412, 136.0992
383.7234, 142.8630
384.2055, 145.9908
384.6876, 141.4830
385.1697, 125.5780
385.6518, 118.0480
386.1339, 120.0751
386.6161, 127.8126
387.0982, 144.4771
387.5803, 165.8975
388.0624, 181.2162
388.5445, 181.1371
389.0266, 168.0419
389.5088, 167.8093
389.9909, 192.9454
390.4730, 217.4838
390.9551, 238.2896
391.4372, 255.6327
391.9193, 270.4944
392.4015, 283.3071
392.8836, 293.6260
393.3657, 299.4008
393.8478, 296.4546
394.3299, 299.3236
394.8120, 314.4779
395.2942, 332.5343
395.7763, 347.9574
396.2584, 359.6832
396.7405, 368.5641
397.2226, 372.7140
397.7047, 372.2048
398.1869, 383.0709
398.6690, 417.5444
399.1511, 451.4159
399.6332, 467.4186
400.1153, 470.6493
400.5974, 476.5110
401.0796, 492.4509
401.5617, 516.3229
402.0438, 546.2999
402.5259, 585.4958
403.0080, 620.6125
403.4901, 639.4119
403.9723, 649.9558
404.4544, 665.1125
404.9365, 689.1807
405.4186, 716.0226
405.9007, 741.7455
406.3828, 765.7396
406.8650, 784.7244
407.3471, 794.2612
407.8292, 802.7554
408.3113, 827.8904
408.7934, 874.9994
409.2755, 911.1663
409.7577, 916.4880
410.2398, 907.6973
410.7219, 906.4650
411.2040, 917.5282
411.6861, 938.9316
412.1682, 970.7156
412.6504, 1014.328
413.1325, 1041.379
413.6146, 1039.133
414.0967, 1032.090
414.5788, 1033.607
415.0609, 1042.313
415.5431, 1051.364
416.0252, 1056.943
416.5073, 1059.593
416.9894, 1060.787
417.4715, 1054.422
417.9536, 1054.285
418.4358, 1068.813
418.9179, 1086.545
419.4000, 1095.002
419.8821, 1091.113
420.3642, 1081.956
420.8463, 1076.621
421.3285, 1075.277
421.8106, 1074.938
422.2927, 1077.460
422.7748, 1080.228
423.2569, 1081.130
423.7390, 1080.517
424.2212, 1080.187
424.7033, 1081.626
425.1854, 1084.645
425.6675, 1086.840
426.1496, 1087.687
426.6317, 1087.733
427.1139, 1088.163
427.5960, 1088.587
428.0781, 1086.695
428.5602, 1080.288
429.0423, 1074.240
429.5244, 1074.677
430.0066, 1082.300
430.4887, 1093.409
430.9708, 1109.112
431.4529, 1125.256
431.9350, 1136.193
432.4171, 1141.555
432.8993, 1149.156
433.3814, 1166.197
433.8635, 1187.036
434.3456, 1198.283
434.8277, 1196.530
435.3098, 1199.553
435.7920, 1223.099
436.2741, 1266.611
436.7562, 1310.803
437.2383, 1358.331
437.7204, 1403.275
438.2025, 1442.457
438.6847, 1476.459
439.1668, 1506.585
439.6489, 1532.832
440.1310, 1556.969
440.6131, 1583.809
441.0952, 1618.824
441.5774, 1649.028
442.0595, 1666.966
442.5416, 1684.750
443.0237, 1717.718
443.5058, 1764.984
443.9879, 1808.757
444.4701, 1833.367
444.9522, 1837.231
445.4343, 1840.509
445.9164, 1845.611
446.3985, 1847.898
446.8806, 1848.776
447.3628, 1845.297
447.8449, 1832.196
448.3270, 1805.792
448.8091, 1769.138
449.2912, 1728.990
449.7733, 1684.043
450.2555, 1641.087
450.7376, 1611.167
451.2197, 1577.425
451.7018, 1521.957
452.1839, 1442.366
452.6660, 1362.200
453.1482, 1302.635
453.6303, 1260.061
454.1124, 1216.496
454.5945, 1169.512
455.0766, 1118.374
455.5587, 1061.515
456.0409, 1001.070
456.5230, 944.0997
457.0051, 893.2201
457.4872, 844.4995
457.9693, 794.3774
458.4514, 743.2678
458.9336, 693.7668
459.4157, 646.2430
459.8978, 602.1835
460.3799, 566.6633
460.8620, 542.2307
461.3441, 520.5885
461.8262, 500.5955
462.3083, 481.5540
462.7905, 464.7621
463.2726, 449.6948
463.7547, 431.8733
464.2368, 405.0541
464.7189, 366.8641
465.2010, 341.0135
465.6832, 336.0435
466.1653, 333.6598
466.6474, 329.5343
467.1295, 323.8081
467.6116, 316.7480
468.0938, 308.2699
468.5759, 300.5149
469.0580, 299.7235
469.5401, 310.2123
470.0222, 315.3088
470.5043, 302.9396
470.9865, 290.9941
471.4686, 294.2351
471.9507, 312.1492
472.4328, 327.7505
472.9149, 326.7653
473.3970, 313.0626
473.8792, 299.1731
474.3613, 283.9127
474.8434, 273.7213
475.3255, 277.7100
475.8076, 289.3070
476.2897, 294.5691
476.7719, 286.2753
477.2540, 277.8107
477.7361, 281.5770
478.2182, 292.9977
478.7003, 297.6710
479.1824, 290.0619
479.6646, 276.0625
480.1467, 264.6306
480.6288, 256.7732
481.1109, 248.1859
481.5930, 236.2657
482.0751, 225.4733
482.5573, 220.2966
483.0394, 219.6417
483.5215, 217.9622
484.0036, 210.7073
484.4857, 199.4519
484.9678, 195.0468
485.4500, 209.1030
485.9321, 214.3569
486.4142, 200.6274
486.8963, 180.4893
487.3784, 166.4146
487.8605, 161.4335
488.3427, 158.8434
488.8248, 150.3976
489.3069, 135.7594
489.7890, 123.2855
490.2711, 113.0955
490.7532, 105.7058
491.2354, 103.4869
491.7175, 103.8739
492.1996, 100.6375
492.6817, 89.85010
493.1638, 76.03967
493.6459, 62.63611
494.1281, 49.93823
494.6102, 43.21545
495.0923, 46.81982
495.5744, 54.59204
496.0565, 55.26489
496.5386, 47.61792
497.0208, 40.35083
497.5029, 36.31519
497.9850, 33.08655
498.4671, 29.68079
498.9492, 25.29883
499.4313, 15.36572
499.9135, 6.265625
500.3956, 37.30542
500.8777, 47.36072
501.3598, 10.39197
501.8419, 16.34619
502.3240, 17.68420
502.8062, 6.819092
503.2883, 1.957520
503.7704, 4.159424
504.2525, 3.532471
504.7346, 4.995972
505.2167, 8.986572
505.6989, 11.64282
506.1810, 10.57373
506.6631, 10.85608
507.1452, 16.76599
507.6273, 25.67261
508.1094, 31.76624
508.5916, 32.41858
509.0737, 29.33960
509.5558, 22.96216
510.0379, 13.52283
510.5200, 8.236328
511.0021, 12.23914
511.4843, 18.42358
511.9664, 14.04907
512.4485, 2.875610
512.9306, 14.10449
513.4127, 10.00659
513.8948, 1.287598
514.3770, 1.464844
514.8591, 2.042725
515.3412, 6.466187
515.8233, 8.203247
516.3054, 7.575317
516.7875, 6.595215
517.2697, 5.350708
517.7518, 3.605835
518.2339, 2.455933
518.7160, 6.886963
519.1981, 1.312500
519.6802, 14.60974
520.1624, 30.47241
520.6445, 33.18457
521.1266, 22.28625
521.6087, 17.61255
522.0908, 24.23413
522.5729, 29.65027
523.0551, 25.58093
523.5372, 17.58789
524.0193, 14.69141
524.5014, 20.65637
524.9835, 29.92847
525.4656, 38.54700
525.9478, 46.13599
526.4299, 50.45312
526.9120, 50.18347
527.3941, 48.33118
527.8762, 48.74707
528.3583, 51.60022
528.8405, 52.31360
529.3226, 45.65039
529.8047, 40.96509
530.2868, 44.55347
530.7689, 55.25586
531.2510, 70.65442
531.7332, 90.14709
532.2153, 109.5870
532.6974, 118.0991
533.1795, 106.7172
533.6616, 100.5834
534.1437, 106.3315
534.6259, 111.6837
535.1080, 104.0079
535.5901, 87.67004
536.0722, 80.57629
536.5543, 99.89661
537.0364, 135.3187
537.5186, 153.1691
538.0007, 149.2725
538.4828, 143.7469
538.9649, 141.4795
539.4470, 106.2032
539.9291, 156.7781
540.4113, 187.6860
540.8934, 199.9771
541.3755, 137.9127
541.8576, 171.8613
542.3397, 167.3292
542.8218, 161.2175
543.3040, 208.6752
543.7861, 157.4172
544.2682, 204.0204
544.7503, 211.5582
545.2324, 236.9723
545.7145, 223.6687
546.1967, 222.3236
546.6788, 259.7030
547.1609, 275.6378
547.6430, 257.8724
548.1251, 284.4143
548.6072, 231.7880
549.0894, 266.5742
549.5715, 272.9952
550.0536, 261.2869
550.5357, 251.1951
551.0178, 252.1909
551.4999, 258.1888
551.9821, 261.0665
552.4642, 258.4479
552.9463, 252.6191
553.4284, 242.7882
553.9105, 230.8993
554.3926, 225.6874
554.8748, 229.5752
555.3569, 237.4332
555.8390, 245.6523
556.3211, 254.1204
556.8032, 260.2167
557.2853, 265.4722
557.7675, 265.8391
558.2496, 255.0909
558.7317, 239.2472
559.2138, 229.3337
559.6959, 226.9384
560.1780, 228.1984
560.6602, 228.2388
561.1423, 225.7638
561.6244, 224.5266
562.1065, 229.3845
562.5886, 231.6549
563.0707, 224.6843
563.5529, 213.0732
564.0350, 205.5895
564.5171, 206.0673
564.9992, 210.8065
565.4813, 216.4434
565.9634, 222.7830
566.4456, 223.5007
566.9277, 216.2942
567.4098, 206.5374
567.8919, 199.7108
568.3740, 194.8994
568.8561, 189.4150
569.3383, 179.0798
569.8204, 172.1370
570.3025, 178.5804
570.7846, 192.0371
571.2667, 197.8489
571.7488, 189.6427
572.2310, 175.4905
572.7131, 170.8083
573.1952, 181.3456
573.6773, 185.3400
574.1594, 176.8005
574.6415, 167.9741
575.1237, 162.6343
575.6058, 161.1919
576.0879, 164.0712
576.5700, 173.1265
577.0521, 183.4342
577.5342, 184.8632
578.0164, 176.9646
578.4985, 172.9432
578.9806, 179.3796
579.4627, 185.3865
579.9448, 175.2607
580.4269, 151.3727
580.9091, 136.4874
581.3912, 140.5776
581.8733, 149.8315
582.3554, 157.1063
582.8375, 161.7938
583.3196, 163.2863
583.8018, 161.2643
584.2839, 156.9535
584.7660, 152.0306
585.2481, 144.9365
585.7302, 141.8435
586.2123, 144.9637
586.6945, 149.6108
587.1766, 157.0251
587.6587, 164.0837
588.1408, 164.4362
588.6229, 153.8441
589.1050, 139.6920
589.5872, 131.7294
590.0693, 129.8411
590.5514, 132.6831
591.0335, 142.2406
591.5156, 152.3784
591.9977, 158.5889
592.4799, 160.7955
592.9620, 155.5601
593.4441, 133.0973
593.9262, 112.2579
594.4083, 102.4084
594.8904, 102.4858
595.3726, 113.5259
595.8547, 135.4819
596.3368, 157.3090
596.8189, 161.8887
597.3010, 145.0696
597.7831, 130.9543
598.2653, 118.5353
598.7474, 110.2610
599.2295, 111.6241
599.7116, 116.3563
600.1937, 113.8105
600.6758, 98.99512
601.1580, 82.83496
601.6401, 78.60999
602.1222, 83.69421
602.6043, 84.75195
603.0864, 78.92590
603.5685, 71.64526
604.0507, 66.04712
604.5328, 62.74731
605.0149, 64.66907
605.4970, 83.54236
605.9791, 93.89014
606.4612, 78.81763
606.9434, 53.84070
607.4255, 39.17334
607.9076, 39.06580
608.3897, 43.67273
608.8718, 43.16052
609.3539, 37.58728
609.8361, 28.75940
610.3182, 9.229248
610.8003, 0.9382320
611.2824, 14.24390
611.7645, 36.39185
612.2466, 45.49182
612.7288, 37.53845
613.2109, 24.86694
613.6930, 10.38770
614.1751, 1.663208
614.6572, 8.0321997E-02
615.1393, 16.06506
615.6215, 28.34033
616.1036, 24.98047
616.5857, 10.15137
617.0678, 1.162354
617.5499, 9.750122
618.0320, 13.59094
618.5142, 6.224854
618.9963, 1.043701
619.4784, 3.136108
619.9605, 16.25940
620.4426, 26.98169
620.9247, 28.54138
621.4069, 20.76331
621.8890, 3.522095
622.3711, 50.98157
622.8532, 74.20837
623.3353, 46.87939
623.8174, 4.461182
624.2996, 18.74023
624.7817, 23.63159
625.2638, 20.82251
625.7459, 6.425781
626.2280, 8.834106
626.7101, 17.37256
627.1923, 19.91919
627.6744, 18.34583
628.1565, 13.31970
628.6386, 7.300415
629.1207, 4.171143
629.6028, 4.170654
630.0850, 6.076904
630.5671, 12.95398
631.0492, 18.57788
631.5313, 21.06250
632.0134, 20.97412
632.4955, 18.19727
632.9777, 11.88049
633.4598, 7.870239
633.9419, 15.58105
634.4240, 30.46606
634.9061, 35.70544
635.3882, 27.94458
635.8704, 19.28613
636.3525, 18.63440
636.8346, 24.80945
637.3167, 30.25745
637.7988, 35.01453
638.2809, 39.09131
638.7631, 40.60657
639.2452, 42.69080
639.7273, 48.42029
640.2094, 57.86890
640.6915, 69.35767
641.1736, 82.60376
641.6558, 96.01392
642.1379, 102.9003
642.6200, 101.7723
643.1021, 100.2178
643.5842, 96.51343
644.0663, 97.03345
644.5485, 110.9148
645.0306, 137.6565
645.5127, 159.4644
645.9948, 162.9398
646.4769, 166.9437
646.9590, 190.6200
647.4412, 226.7429
647.9233, 256.2416
648.4054, 271.5593
648.8875, 278.5391
649.3696, 284.6047
649.8517, 288.0627
650.3339, 299.3816
650.8160, 326.5226
651.2981, 352.1461
651.7802, 367.6187
652.2623, 379.3861
652.7444, 397.6541
653.2266, 426.0315
653.7087, 454.4778
654.1908, 473.0756
654.6729, 486.6995
655.1550, 505.9238
655.6371, 531.8740
656.1193, 562.1051
656.6014, 596.9655
657.0835, 633.3544
657.5656, 658.7855
658.0477, 658.0480
658.5298, 667.1676
659.0120, 696.5839
659.4941, 727.3933
659.9762, 745.9009
660.4583, 754.1600
660.9404, 762.4049
661.4225, 776.8976
661.9047, 793.7941
662.3868, 806.9573
662.8689, 816.4709
663.3510, 823.2904
663.8331, 827.0216
664.3152, 829.6909
664.7974, 836.0745
665.2795, 845.0532
665.7616, 840.2736
666.2437, 803.5946
666.7258, 773.8893
667.2079, 773.6808
667.6901, 784.0286
668.1722, 781.5933
668.6543, 762.6205
669.1364, 741.3540
669.6185, 731.6881
670.1006, 731.1863
670.5828, 726.2252
671.0649, 718.2874
671.5470, 700.6919
672.0291, 664.5282
672.5112, 622.5553
672.9933, 587.2611
673.4755, 558.6212
673.9576, 537.4105
674.4397, 532.3597
674.9218, 527.3612
675.4039, 505.3098
675.8860, 473.3574
676.3682, 450.3790
676.8503, 443.4845
677.3324, 442.7927
677.8145, 434.0026
678.2966, 416.1825
678.7787, 397.9861
679.2609, 376.9177
679.7430, 360.6302
680.2251, 356.5582
680.7072, 355.6536
681.1893, 344.8892
681.6714, 320.5835
682.1536, 297.1421
682.6357, 285.7926
683.1178, 279.7190
683.5999, 269.5132
684.0820, 254.7791
684.5641, 239.1254
685.0463, 223.5771
685.5284, 212.3278
686.0105, 217.5592
686.4926, 254.2723
686.9747, 272.0930
687.4568, 252.1133
687.9390, 231.4165
688.4211, 228.3760
688.9032, 234.7297
689.3853, 232.5613
689.8674, 213.5627
690.3495, 195.4850
690.8317, 195.9674
691.3138, 207.1317
691.7959, 213.5663
692.2780, 213.0625
692.7601, 203.4553
693.2422, 180.7921
693.7244, 150.5800
694.2065, 134.6903
694.6886, 143.1185
695.1707, 151.1200
695.6528, 160.9873
696.1349, 166.2075
696.6171, 160.8113
697.0992, 147.8218
697.5813, 135.2726
698.0634, 126.8850
698.5455, 121.6232
699.0276, 116.3538
699.5098, 110.7354
699.9919, 106.7216
700.4740, 105.0588
700.9561, 102.3536
701.4382, 95.02185
701.9203, 84.09583
702.4025, 77.71460
702.8846, 81.67334
703.3667, 82.51477
703.8488, 75.63770
704.3309, 68.66187
704.8130, 68.53967
705.2952, 73.32434
705.7773, 74.54962
706.2594, 65.61560
706.7415, 53.72192
707.2236, 50.51770
707.7057, 54.62408
708.1879, 55.88580
708.6700, 51.46045
709.1521, 44.79340
709.6342, 38.76093
710.1163, 33.45001
710.5984, 29.54425
711.0806, 26.33221
711.5627, 25.65717
712.0448, 32.36981
712.5269, 38.60437
713.0090, 35.22021
713.4911, 23.92206
713.9733, 15.43793
714.4554, 17.85443
714.9375, 25.93402
715.4196, 31.50861
715.9017, 34.74188
716.3839, 36.10260
716.8660, 35.17133
717.3481, 35.39557
717.8302, 42.23608
718.3123, 56.40216
718.7944, 58.52618
719.2766, 36.84076
719.7587, 18.54700
720.2408, 6.659973
720.7229, 1.457336
721.2050, 6.358521
721.6871, 19.09821
722.1693, 29.74225
722.6514, 32.55353
723.1335, 28.95306
723.6156, 17.04907
724.0977, 1.010071
724.5798, 8.399536
725.0620, 0.7680660
725.5441, 14.37329
726.0262, 20.41541
726.5083, 18.90344
726.9904, 16.87848
727.4725, 14.77277
727.9547, 11.57648
728.4368, 5.444031
728.9189, 0.6505740
729.4010, 4.984314
729.8831, 6.855286
730.3652, 4.823792
730.8474, 4.516357
731.3295, 15.52948
731.8116, 19.27362
732.2937, 17.09790
732.7758, 15.60986
733.2579, 16.46313
733.7401, 18.61115
734.2222, 21.69348
734.7043, 25.48425
735.1864, 24.76172
735.6685, 11.38104
736.1506, 4.345459
736.6328, 12.23694
737.1149, 22.29828
737.5970, 23.62872
738.0791, 17.01239
738.5612, 11.11292
739.0433, 11.23407
739.5255, 13.04865
740.0076, 9.999268
740.4897, 4.451721
740.9718, 5.463379
741.4539, 15.13037
741.9360, 24.54382
742.4182, 25.53357
742.9003, 19.02008
743.3824, 12.75836
743.8645, 3.997192
744.3466, 0.3609010
744.8287, 7.570557
745.3109, 15.73553
745.7930, 18.80884
746.2751, 17.08032
746.7572, 13.07135
747.2393, 5.138184
747.7214, 0.8911130
748.2036, 1.858032
748.6857, 9.416992
749.1678, 14.31384
749.6499, 15.30182
750.1320, 14.75421
750.6141, 14.59796
751.0963, 14.18073
751.5784, 10.00000
752.0605, 1.467957
752.5426, 6.691711
753.0247, 0.9006960
753.5068, 8.346497
753.9890, 21.30157
754.4711, 33.85974
754.9532, 33.89087
755.4353, 9.771179
755.9174, 10.33795
756.3995, 9.198486
756.8817, 2.103088
757.3638, 12.32318
757.8459, 19.41028
758.3280, 23.31628
758.8101, 23.81647
759.2922, 22.11401
759.7744, 21.12024
760.2565, 21.19373
760.7386, 17.86462
761.2207, 8.083984
761.7028, 9.2772998E-02
762.1849, 0.4158330
762.6671, 6.046631
763.1492, 9.475891
763.6313, 11.20050
764.1134, 9.239014
764.5955, 1.516418
765.0776, 12.07806
765.5598, 16.14093
766.0419, 14.35925
766.5240, 9.069885
767.0061, 1.193665
767.4882, 7.283447
767.9703, 14.88733
768.4525, 21.13092
768.9346, 22.31390
769.4167, 17.73846
769.8988, 11.74414
770.3809, 4.678589
770.8630, 0.1133420
771.3452, 5.133972
771.8273, 27.40332
772.3094, 39.27148
772.7915, 30.76984
773.2736, 23.36505
773.7557, 31.79102
774.2379, 43.77289
774.7200, 38.86298
775.2021, 13.26355
775.6842, 8.908936
776.1663, 6.063660
776.6484, 9.625122
777.1306, 20.71753
777.6127, 26.12616
778.0948, 29.16980
778.5769, 31.42603
779.0590, 32.51294
779.5411, 30.96783
780.0233, 26.47101
780.5054, 26.58325
780.9875, 36.33240
781.4696, 42.72601
781.9517, 38.01746
782.4338, 31.84613
782.9160, 33.93689
783.3981, 43.41309
783.8802, 53.24432
784.3623, 61.43842
784.8444, 66.04816
785.3265, 65.42053
785.8087, 61.67932
786.2908, 57.31091
786.7729, 52.87311
787.2550, 47.81396
787.7371, 41.20172
788.2192, 34.97986
788.7014, 36.87274
789.1835, 47.78137
789.6656, 55.36542
790.1477, 56.87378
790.6298, 56.00238
791.1119, 53.15247
791.5941, 50.12115
792.0762, 55.13684
792.5583, 79.99200
793.0404, 94.00714
793.5225, 82.83514
794.0046, 67.84790
794.4868, 64.29791
794.9689, 69.47858
795.4510, 73.79871
795.9331, 72.97577
796.4152, 70.77820
796.8973, 71.23120
797.3795, 73.24414
797.8616, 73.23688
798.3437, 71.15668
798.8258, 71.63446
799.3079, 77.40161
799.7900, 85.35339
800.2722, 89.36243
800.7543, 87.58820
801.2364, 90.67206
801.7185, 105.5114
802.2006, 115.4250
802.6827, 114.0956
803.1649, 106.5975
803.6470, 97.16296
804.1291, 86.24487
804.6112, 77.37421
805.0933, 70.68549
805.5754, 67.27319
806.0576, 70.70483
806.5397, 77.88007
807.0218, 83.73828
807.5039, 86.89728
807.9860, 87.58160
808.4681, 84.98682
808.9503, 81.10742
809.4324, 83.40564
809.9145, 91.99579
810.3966, 97.59540
810.8787, 98.38782
811.3608, 97.46307
811.8430, 96.86029
812.3251, 96.47217
812.8072, 96.24701
813.2893, 96.20862
813.7714, 94.99170
814.2535, 93.90973
814.7357, 93.07776
815.2178, 90.74799
815.6999, 87.95160
816.1820, 87.92560
816.6641, 92.63641
817.1462, 96.56348
817.6284, 93.95355
818.1105, 88.29346
818.5926, 85.91656
819.0747, 86.22839
819.5568, 84.10895
820.0389, 77.51868
820.5211, 69.11481
821.0032, 62.16589
821.4853, 56.52441
821.9674, 53.45050
822.4495, 51.94910
822.9316, 54.39630
823.4138, 68.88947
823.8959, 83.02863
824.3780, 76.91974
824.8601, 50.19812
825.3422, 33.22797
825.8243, 35.54773
826.3065, 40.20483
826.7886, 40.82361
827.2707, 40.14008
827.7528, 43.52997
828.2349, 49.59027
828.7170, 49.07581
829.1992, 33.31116
829.6813, 15.16852
830.1633, 12.63055
830.6454, 21.49438
831.1276, 29.11859
831.6097, 33.54224
832.0918, 36.61359
832.5739, 40.14813
833.0560, 41.37250
833.5381, 30.43188
834.0203, 1.845703
834.5024, 13.64038
834.9845, 8.726990
835.4666, 1.406372
835.9487, 0.6480100
836.4308, 2.863770
836.9130, 3.031982
837.3951, 0.6915280
837.8772, 2.548401
838.3593, 6.997681
838.8414, 11.65900
839.3235, 19.21350
839.8057, 25.01575
840.2878, 19.42542
840.7699, 2.126099
841.2520, 12.58136
841.7341, 12.07550
842.2162, 2.643860
842.6984, 7.020996
843.1805, 15.91125
843.6626, 16.87744
844.1447, 8.021484
844.6268, 1.547974
845.1089, 4.170471
845.5911, 1.143921
846.0732, 1.453308
846.5553, 2.667236
847.0374, 6.457275
847.5195, 18.03186
848.0016, 26.27142
848.4838, 21.99585
848.9659, 10.77692
849.4480, 2.996399
849.9301, 0.4027100
850.4122, 0.6320190
850.8943, 6.393616
851.3765, 12.21405
851.8586, 7.743774
852.3407, 0.9152830
852.8228, 2.502197
853.3049, 5.801392
853.7870, 16.56323
854.2692, 24.81415
854.7513, 30.40552
855.2334, 32.48334
855.7155, 31.46625
856.1976, 28.38513
856.6797, 23.45166
857.1619, 20.61401
857.6440, 23.67163
858.1261, 31.81512
858.6082, 41.66351
859.0903, 55.82153
859.5724, 63.06940
860.0546, 58.37915
860.5367, 51.53180
861.0188, 48.78955
861.5009, 48.68683
861.9830, 47.43195
862.4651, 43.26166
862.9473, 42.06061
863.4294, 47.08167
863.9115, 53.17108
864.3936, 56.51593
864.8757, 59.13617
865.3578, 66.06104
865.8400, 78.09198
866.3221, 86.66431
866.8042, 81.99500
867.2863, 72.66638
867.7684, 69.95898
868.2505, 72.63141
868.7327, 78.60742
869.2148, 86.71863
869.6969, 89.39423
870.1790, 78.57483
870.6611, 59.60699
871.1432, 51.06451
871.6254, 53.64789
872.1075, 62.69604
872.5896, 82.14581
873.0717, 96.25787
873.5538, 90.98846
874.0359, 74.84326
874.5181, 71.47754
875.0002, 88.72882
875.4823, 101.5541
875.9644, 108.6174
876.4465, 112.5944
876.9286, 113.3110
877.4108, 112.2346
877.8929, 111.0632
878.3750, 110.0519
878.8571, 108.3873
879.3392, 101.5332
879.8214, 97.96698
880.3035, 109.6666
880.7856, 127.0511
881.2677, 133.8522
881.7498, 128.6290
882.2319, 120.2708
882.7141, 113.8087
883.1962, 111.0862
883.6783, 119.5882
884.1604, 136.3088
884.6425, 139.2355
885.1246, 125.1601
885.6068, 112.7629
886.0889, 112.3527
886.5710, 118.7786
887.0531, 121.6747
887.5352, 119.7014
888.0173, 122.3203
888.4995, 138.2321
888.9816, 143.8104
889.4637, 119.2031
889.9458, 90.43237
890.4279, 85.60608
890.9100, 102.8345
891.3922, 114.8303
891.8743, 112.9446
892.3564, 110.4753
892.8385, 117.8530
893.3206, 123.8033
893.8027, 113.2320
894.2849, 92.15265
894.7670, 80.22784
895.2491, 86.76141
895.7312, 96.94305
896.2133, 96.22717
896.6954, 92.13983
897.1776, 98.66699
897.6597, 112.7267
898.1418, 121.0269
898.6239, 118.8790
899.1060, 110.3439
899.5881, 99.63586
900.0703, 89.00671
900.5524, 85.51154
901.0345, 89.11462
901.5166, 95.62653
901.9987, 105.9124
902.4808, 111.3668
902.9630, 103.0306
903.4451, 85.83649
903.9272, 79.30524
904.4093, 91.98755
904.8914, 97.04254
905.3735, 84.29193
905.8557, 75.23492
906.3378, 84.29382
906.8199, 99.92554
907.3020, 105.0826
907.7841, 97.63708
908.2662, 88.88538
908.7484, 79.69794
909.2305, 71.95459
909.7126, 67.57513
910.1947, 64.48529
910.6768, 57.79688
911.1589, 49.51813
911.6411, 50.12976
912.1232, 70.51965
912.6053, 90.04144
913.0874, 83.68530
913.5695, 64.24133
914.0516, 52.99542
914.5338, 51.17078
915.0159, 52.49628
915.4980, 54.07593
915.9801, 56.11383
916.4622, 59.67596
916.9443, 64.14526
917.4265, 65.44287
917.9086, 63.53571
918.3907, 58.35992
918.8728, 48.66840
919.3549, 40.90363
919.8370, 42.17694
920.3192, 50.69855
920.8013, 53.92236
921.2834, 47.59644
921.7655, 46.64093
922.2476, 59.46375
922.7297, 68.68896
923.2119, 61.67859
923.6940, 45.79059
924.1761, 32.97412
924.6582, 23.57220
925.1403, 17.36914
925.6224, 14.53693
926.1046, 14.64685
926.5867, 20.13678
927.0688, 26.78192
927.5509, 30.23877
928.0330, 30.18701
928.5151, 28.60413
928.9973, 26.08203
929.4794, 22.78674
929.9615, 16.52649
930.4436, 11.02307
930.9257, 13.02716
931.4078, 20.31866
931.8900, 24.30396
932.3721, 21.29858
932.8542, 16.31989
933.3363, 15.26819
933.8184, 16.47369
934.3005, 14.93005
934.7827, 11.23578
935.2648, 9.615662
935.7469, 11.23199
936.2290, 14.76367
936.7111, 19.43604
937.1932, 24.42249
937.6754, 26.33044
938.1575, 24.63153
938.6396, 24.57990
939.1217, 27.58557
939.6038, 29.46851
940.0859, 28.02350
940.5681, 24.02454
941.0502, 18.25604
941.5323, 9.526245
942.0144, 5.370667
942.4965, 11.85486
942.9786, 14.24353
943.4608, 2.996704
943.9429, 8.179871
944.4250, 5.882385
944.9071, 6.767822
945.3892, 14.53064
945.8713, 12.26288
946.3535, 10.05505
946.8356, 12.41412
947.3177, 13.83124
947.7998, 9.328857
948.2819, 1.684570
948.7640, 4.791992
949.2462, 8.976013
949.7283, 10.12360
950.2104, 5.480347
950.6925, 0.1147460
951.1746, 2.010559
951.6567, 2.063965
952.1389, 3.675171
952.6210, 6.903015
953.1031, 9.063049
953.5852, 8.378113
954.0673, 7.131409
954.5494, 10.25256
955.0316, 14.74976
955.5137, 9.875488
955.9958, 2.775696
956.4779, 8.048645
956.9600, 0.3189700
957.4421, 10.22809
957.9243, 12.21136
958.4064, 7.423889
958.8885, 3.559448
959.3706, 0.4678960
959.8527, 2.653198
960.3348, 12.61682
960.8170, 18.80463
961.2991, 11.57819
961.7812, 1.246033
962.2633, 0.2864990
962.7454, 22.43652
963.2275, 29.10260
963.7097, 8.745667
964.1918, 4.624390
964.6739, 4.625427
965.1560, 20.47833
965.6381, 25.66089
966.1202, 20.69098
966.6024, 20.82697
967.0845, 34.94336
967.5666, 41.05621
968.0487, 29.79132
968.5308, 17.58545
969.0129, 13.04810
969.4951, 13.85394
969.9772, 16.33765
970.4593, 20.18945
970.9414, 21.96979
971.4235, 16.37286
971.9056, 13.30695
972.3878, 22.30133
972.8699, 33.53467
973.3520, 33.51086
973.8341, 24.89417
974.3162, 23.08374
974.7983, 37.04102
975.2805, 49.83942
975.7626, 46.59460
976.2447, 36.64429
976.7268, 27.33264
977.2089, 21.34888
977.6910, 25.77808
978.1732, 40.80426
978.6553, 52.09778
979.1374, 44.99152
979.6195, 31.89917
980.1016, 35.20056
980.5837, 48.69940
981.0659, 54.00256
981.5480, 49.79474
982.0301, 44.79199
982.5122, 43.33917
982.9943, 44.89441
983.4764, 49.31055
983.9586, 56.12567
984.4407, 64.12573
984.9228, 73.24963
985.4049, 74.26941
985.8870, 63.90210
986.3691, 54.59656
986.8513, 57.09790
987.3334, 67.16687
987.8155, 70.82867
988.2976, 66.11725
988.7797, 70.02246
989.2618, 87.84650
989.7440, 98.73499
990.2261, 92.42627
990.7082, 78.24524
991.1903, 66.57172
991.6724, 57.45270
992.1545, 52.86139
992.6367, 51.98956
993.1188, 57.78418
993.6009, 78.30328
994.0830, 95.76685
994.5651, 97.43079
995.0472, 89.66235
995.5294, 85.60406
996.0115, 86.55737
996.4936, 85.52972
996.9757, 80.89972
997.4578, 76.60583
997.9399, 72.65607
998.4221, 68.96265
998.9042, 64.36676
999.3863, 59.69733
999.8684, 57.69116
1000.351, 60.90289
1000.833, 61.54797
1001.315, 54.92084
1001.797, 47.80566
1002.279, 43.82617
1002.761, 43.20557
1003.243, 46.42719
1003.725, 52.75073
1004.207, 57.70703
1004.690, 58.47198
1005.172, 58.50549
1005.654, 60.59430
1006.136, 62.40314
1006.618, 61.88403
1007.100, 58.94244
1007.582, 52.77594
1008.064, 43.58960
1008.547, 37.49664
1009.029, 42.79565
1009.511, 48.69098
1009.993, 41.22064
1010.475, 29.27405
1010.957, 30.25934
1011.439, 42.90918
1011.921, 47.53119
1012.403, 33.44861
1012.886, 15.45087
1013.368, 11.95581
1013.850, 15.76941
1014.332, 12.60968
1014.814, 5.075745
1015.296, 1.147644
1015.778, 2.908447
1016.260, 9.815125
1016.742, 22.70654
1017.225, 36.23779
1017.707, 41.89923
1018.189, 40.17548
1018.671, 29.28625
1019.153, 11.22284
1019.635, 1.634033
1020.117, 6.324951
1020.599, 15.96875
1021.082, 22.15527
1021.564, 24.14038
1022.046, 16.00537
1022.528, 0.7785640
1023.010, 5.326660
1023.492, 5.482727
1023.974, 15.37061
1024.456, 15.80542
1024.938, 12.86786
1025.421, 16.15869
1025.903, 24.85437
1026.385, 27.97894
1026.867, 24.81451
1027.349, 22.75226
1027.831, 23.16974
1028.313, 25.59528
1028.795, 30.62976
1029.278, 35.63208
1029.760, 33.22961
1030.242, 21.26910
1030.724, 21.19708
1031.206, 37.28876
1031.688, 50.05829
1032.170, 52.31451
1032.652, 53.81317
1033.135, 63.38281
1033.617, 78.75580
1034.099, 91.61237
1034.581, 102.0482
1035.063, 109.5225
1035.545, 113.6674
1036.027, 115.1519
1036.509, 111.0609
1036.991, 108.3915
1037.474, 116.6006
1037.956, 134.1321
1038.438, 144.5671
1038.920, 142.9046
1039.402, 143.8575
1039.884, 150.1500
1040.366, 156.4507
1040.848, 164.2830
1041.330, 168.2226
1041.813, 157.5086
1042.295, 130.9438
1042.777, 115.7507
1043.259, 116.2266
1043.741, 121.7220
1044.223, 142.0987
1044.705, 155.8316
1045.187, 144.7028
1045.670, 121.7314
1046.152, 110.5703
1046.634, 114.4083
1047.116, 112.4646
1047.598, 95.57312
1048.080, 83.10956
1048.562, 82.23218
1049.044, 84.58350
1049.526, 85.72369
1050.009, 85.18250
1050.491, 82.45026
1050.973, 77.10754
1051.455, 71.20294
1051.937, 65.70013
1052.419, 58.81659
1052.901, 50.35474
1053.383, 39.83862
1053.865, 22.94269
1054.348, 3.823181
1054.830, 4.108154
1055.312, 6.066772
1055.794, 12.97784
1056.276, 8.081482
1056.758, 2.728516
1057.240, 2.190979
1057.722, 3.966797
1058.205, 6.727905
1058.687, 9.279602
1059.169, 7.811096
1059.651, 0.5501100
1060.133, 8.264343
1060.615, 14.03638
1061.097, 17.30438
1061.579, 16.61938
1062.062, 13.94379
1062.544, 11.11389
1063.026, 8.596130
1063.508, 7.113464
1063.990, 7.715332
1064.472, 7.864136
1064.954, 5.456116
1065.436, 3.453491
1065.918, 6.895569
1066.401, 10.45258
1066.883, 2.792786
1067.365, 15.20813
1067.847, 23.47833
1068.329, 6.592896
1068.811, 8.843811
1069.293, 11.88501
1069.775, 8.415955
1070.257, 1.061096
1070.740, 12.01831
1071.222, 17.66278
1071.704, 17.09045
1072.186, 15.61859
1072.668, 13.89758
1073.150, 13.75537
1073.632, 19.64203
1074.114, 24.30341
1074.597, 17.01324
1075.079, 5.606873
1075.561, 6.827576
1076.043, 23.52936
1076.525, 36.81317
1077.007, 37.00488
1077.489, 33.58307
1077.971, 28.35217
1078.453, 24.30048
1078.936, 25.59894
1079.418, 29.70514
1079.900, 29.98071
1080.382, 24.81586
1080.864, 24.04633
1081.346, 40.02728
1081.828, 52.72485
1082.310, 46.73962
1082.792, 36.88745
1083.275, 38.88007
1083.757, 48.04681
1084.239, 51.52625
1084.721, 46.08917
1085.203, 38.94336
1085.685, 28.95178
1086.167, 23.26031
1086.649, 27.64136
1087.131, 36.45367
1087.614, 47.27454
1088.096, 57.34033
1088.578, 61.25012
1089.060, 57.32184
1089.542, 53.19379
1090.024, 52.71863
1090.506, 51.89429
1090.988, 47.40485
1091.471, 42.62988
1091.953, 40.95593
1092.435, 41.70459
1092.917, 41.66614
1093.399, 39.43799
1093.881, 42.76947
1094.363, 67.30109
1094.845, 82.20807
1095.328, 58.74377
1095.810, 30.68768
1096.292, 34.60858
1096.774, 59.10852
1097.256, 69.39539
1097.738, 55.89349
1098.220, 44.80341
1098.702, 44.70880
1099.184, 48.46552
1099.667, 54.58569
1100.149, 61.90527
1100.631, 72.36316
1101.113, 82.66168
1101.595, 84.14929
1102.077, 73.43756
1102.559, 65.10492
1103.041, 63.81573
1103.523, 64.14136
1104.006, 66.50421
1104.488, 67.47986
1104.970, 61.51324
1105.452, 52.52472
1105.934, 51.01245
1106.416, 60.38434
1106.898, 66.24896
1107.380, 63.74402
1107.863, 60.57477
1108.345, 57.74329
1108.827, 56.32733
1109.309, 58.29175
1109.791, 62.00464
1110.273, 62.91791
1110.755, 59.10712
1111.237, 60.21106
1111.719, 74.23151
1112.202, 83.30084
1112.684, 78.93610
1113.166, 72.89532
1113.648, 73.13452
1114.130, 76.45050
1114.612, 74.62726
1115.094, 65.52844
1115.576, 61.46014
1116.058, 66.44727
1116.541, 70.20032
1117.023, 69.02435
1117.505, 68.31989
1117.987, 73.21869
1118.469, 79.98901
1118.951, 80.42688
1119.433, 73.39471
1119.915, 70.70667
1120.398, 74.25806
1120.880, 78.59442
1121.362, 85.73743
1121.844, 87.73804
1122.326, 76.36572
1122.808, 60.85474
1123.290, 58.05341
1123.772, 68.40570
1124.255, 74.80951
1124.737, 78.12000
1125.219, 76.76654
1125.701, 67.30688
1126.183, 60.22272
1126.665, 61.05334
1127.147, 66.48364
1127.629, 71.86316
1128.111, 77.24756
1128.594, 74.48566
1129.076, 60.54865
1129.558, 59.15070
1130.040, 76.41296
1130.522, 88.49847
1131.004, 82.46356
1131.486, 70.48700
1131.968, 68.76514
1132.450, 75.24951
1132.933, 78.54382
1133.415, 78.73114
1133.897, 80.29944
1134.379, 83.72321
1134.861, 86.64490
1135.343, 88.10986
1135.825, 87.77466
1136.307, 84.93848
1136.790, 80.51526
1137.272, 77.48627
1137.754, 75.28870
1138.236, 68.95764
1138.718, 59.49219
1139.200, 59.90875
1139.682, 74.24292
1140.164, 87.79474
1140.646, 86.34326
1141.129, 78.69519
1141.611, 81.44159
1142.093, 90.44232
1142.575, 96.63275
1143.057, 98.80682
1143.539, 93.55402
1144.021, 81.37927
1144.503, 72.24762
1144.985, 73.76300
1145.468, 79.44055
1145.950, 84.88043
1146.432, 87.22913
1146.914, 77.09875
1147.396, 62.07745
1147.878, 59.53687
1148.360, 70.87329
1148.842, 84.89075
1149.325, 97.43427
1149.807, 104.4553
1150.289, 98.01459
1150.771, 89.17963
1151.253, 88.62262
1151.735, 92.19427
1152.217, 94.95941
1152.699, 95.45227
1153.182, 91.69238
1153.664, 82.06659
1154.146, 73.52820
1154.628, 67.28418
1155.110, 65.53711
1155.592, 73.17719
1156.074, 82.97455
1156.556, 87.66809
1157.038, 88.38312
1157.521, 90.38354
1158.003, 95.53052
1158.485, 95.43304
1158.967, 80.55719
1159.449, 70.87347
1159.931, 75.90527
1160.413, 84.12964
1160.895, 88.78424
1161.377, 90.82294
1161.860, 92.19818
1162.342, 92.89081
1162.824, 94.43811
1163.306, 98.90375
1163.788, 100.4111
1164.270, 98.09351
1164.752, 93.32251
1165.234, 84.93549
1165.717, 75.88916
1166.199, 69.31726
1166.681, 65.75665
1167.163, 71.70624
1167.645, 93.63824
1168.127, 94.11041
1168.609, 63.89423
1169.091, 43.47913
1169.573, 48.92566
1170.056, 65.57660
1170.538, 80.46472
1171.020, 92.33789
1171.502, 95.88879
1171.984, 91.67944
1172.466, 89.43164
1172.948, 89.73035
1173.430, 88.87958
1173.912, 85.58972
1174.395, 78.90997
1174.877, 66.97412
1175.359, 57.30280
1175.841, 67.64221
1176.323, 87.74445
1176.805, 84.16687
1177.287, 65.83655
1177.769, 62.31860
1178.252, 75.38513
1178.734, 86.41638
1179.216, 86.17834
1179.698, 81.19513
1180.180, 75.76483
1180.662, 72.02539
1181.144, 72.74530
1181.626, 75.72430
1182.109, 79.15771
1182.591, 81.74371
1183.073, 80.05511
1183.555, 73.61542
1184.037, 70.11420
1184.519, 79.37158
1185.001, 84.76575
1185.483, 73.30170
1185.965, 59.28668
1186.448, 52.86591
1186.930, 51.69086
1187.412, 53.12836
1187.894, 55.91095
1188.376, 53.32983
1188.858, 36.51447
1189.340, 28.08289
1189.822, 39.43640
1190.304, 49.51556
1190.787, 50.47906
1191.269, 46.54352
1191.751, 38.34711
1192.233, 28.91516
1192.715, 29.58191
1193.197, 45.74762
1193.679, 45.98358
1194.161, 21.28864
1194.644, 8.756714
1195.126, 19.55475
1195.608, 33.86438
1196.090, 40.43774
1196.572, 40.17914
1197.054, 33.27429
1197.536, 20.78571
1198.018, 14.76135
1198.500, 15.39038
1198.983, 25.23840
1199.465, 43.85187
1199.947, 55.62170
1200.429, 54.17633
1200.911, 46.97980
1201.393, 40.37646
1201.875, 35.52087
1202.357, 37.27521
1202.839, 41.20142
1203.322, 35.36493
1203.804, 23.04150
1204.286, 15.54095
1204.768, 15.04022
1205.250, 16.76990
1205.732, 18.88922
1206.214, 19.01794
1206.696, 12.69037
1207.179, 6.213623
1207.661, 4.523804
1208.143, 6.550781
1208.625, 12.31805
1209.107, 20.02380
1209.589, 25.92914
1210.071, 29.42383
1210.553, 29.13318
1211.036, 22.12738
1211.518, 16.28503
1212.000, 16.45947
1212.482, 16.26294
1212.964, 7.929382
1213.446, 1.212708
1213.928, 2.070129
1214.410, 16.91870
1214.892, 23.13818
1215.375, 16.85077
1215.857, 12.47534
1216.339, 11.46698
1216.821, 9.861206
1217.303, 5.512634
1217.785, 3.012878
1218.267, 7.399292
1218.749, 14.63971
1219.231, 13.37811
1219.714, 4.469727
1220.196, 1.465271
1220.678, 3.784424
1221.160, 3.381897
1221.642, 0.9378050
1222.124, 3.918640
1222.606, 2.746704
1223.088, 0.8000490
1223.571, 3.147156
1224.053, 5.877808
1224.535, 0.8649900
1225.017, 7.118774
1225.499, 10.19891
1225.981, 8.786804
1226.463, 4.919250
1226.945, 0.1456300
1227.427, 2.066956
1227.910, 3.210083
1228.392, 8.090454
1228.874, 9.601196
1229.356, 8.117432
1229.838, 0.4094240
1230.320, 8.536621
1230.802, 7.253174
1231.284, 1.944641
1231.766, 12.89099
1232.249, 29.17200
1232.731, 32.02649
1233.213, 7.068909
1233.695, 5.925049
1234.177, 7.483521
1234.659, 19.64117
1235.141, 14.19507
1235.623, 0.7117920
1236.106, 8.639587
1236.588, 13.22449
1237.070, 5.168274
1237.552, 15.99719
1238.034, 27.05890
1238.516, 26.70117
1238.998, 21.89148
1239.480, 14.78046
1239.963, 9.679871
1240.445, 10.16052
1240.927, 13.22687
1241.409, 14.91461
1241.891, 17.06824
1242.373, 23.05463
1242.855, 31.67706
1243.337, 43.07880
1243.819, 54.50757
1244.302, 56.76868
1244.784, 47.23419
1245.266, 34.19525
1245.748, 16.44055
1246.230, 5.995483
1246.712, 21.52136
1247.194, 37.99268
1247.676, 31.39600
1248.158, 16.88165
1248.641, 19.27771
1249.123, 36.20667
1249.605, 43.62335
1250.087, 45.17468
1250.569, 47.43011
1251.051, 47.64276
1251.533, 47.73950
1252.015, 43.74695
1252.498, 32.37085
1252.980, 26.20898
1253.462, 21.84155
1253.944, 11.67645
1254.426, 2.001038
1254.908, 1.467102
1255.390, 19.68347
1255.872, 30.73132
1256.354, 32.54431
1256.837, 26.59595
1257.319, 12.98804
1257.801, 8.983765
1258.283, 25.44226
1258.765, 42.77869
1259.247, 35.87158
1259.729, 19.74060
1260.211, 9.159912
1260.693, 5.935791
1261.176, 13.41858
1261.658, 23.75769
1262.140, 39.38782
1262.622, 53.57581
1263.104, 55.55066
1263.586, 35.55518
1264.068, 19.36829
1264.550, 13.79419
1265.033, 14.28979
1265.515, 19.42175
1265.997, 22.75952
1266.479, 16.44617
1266.961, 4.016113
1267.443, 0.1105960
1267.925, 0.0000000E+00
##END=



