##NAMES=Hematite
##RRUFFID=R060190
##IDEAL CHEMISTRY=Fe_2_O_3_
##LOCALITY=Florence mine, Egremont, Cumbria, England
##OWNER=RRUFF
##SOURCE=Lloyd Twaites
##DESCRIPTION=Red tinged, steel-gray fragment of a botryoidal mass
##STATUS=The identification of this mineral has been confirmed by X-ray diffraction and chemical analysis
##URL=rruff.info/R060190
##MEASURED CHEMISTRY=Fe_2.00_O_3_
182.866, 0.000
183.348, 5.421
183.830, 11.532
184.312, 16.777
184.795, 12.978
185.277, 4.171
185.759, 0.391
186.241, 7.558
186.723, 13.660
187.205, 14.952
187.687, 13.294
188.169, 13.220
188.652, 16.055
189.134, 21.778
189.616, 24.222
190.098, 23.342
190.580, 21.865
191.062, 16.790
191.544, 10.174
192.026, 4.343
192.508, 0.870
192.991, 0.359
193.473, 1.229
193.955, 1.451
194.437, 1.563
194.919, 2.007
195.401, 2.400
195.883, 1.812
196.365, 0.659
196.848, 4.607
197.330, 5.934
197.812, 1.141
198.294, 4.964
198.776, 1.561
199.258, 6.468
199.740, 15.233
200.222, 22.601
200.704, 28.331
201.186, 30.585
201.669, 26.075
202.151, 21.161
202.633, 15.279
203.115, 9.847
203.597, 6.833
204.079, 7.448
204.561, 11.160
205.044, 15.255
205.526, 20.629
206.008, 25.380
206.490, 29.299
206.972, 32.446
207.454, 34.824
207.936, 36.392
208.418, 37.392
208.900, 38.703
209.383, 39.267
209.865, 41.609
210.347, 45.825
210.829, 51.967
211.311, 60.064
211.793, 70.182
212.275, 82.113
212.757, 95.523
213.240, 111.759
213.722, 127.752
214.204, 141.386
214.686, 155.403
215.168, 171.264
215.650, 189.733
216.132, 212.659
216.614, 244.870
217.096, 291.840
217.579, 340.093
218.061, 388.662
218.543, 438.067
219.025, 488.379
219.507, 539.654
219.989, 593.512
220.471, 653.818
220.953, 727.699
221.435, 794.511
221.918, 846.769
222.400, 897.713
222.882, 960.661
223.364, 1037.056
223.846, 1114.752
224.328, 1178.441
224.810, 1234.018
225.292, 1258.976
225.775, 1265.151
226.257, 1237.660
226.739, 1155.497
227.221, 1021.465
227.703, 867.277
228.185, 727.450
228.667, 601.412
229.149, 493.778
229.631, 406.365
230.113, 334.134
230.596, 277.663
231.078, 235.310
231.560, 202.683
232.042, 176.038
232.524, 155.401
233.006, 140.047
233.488, 132.001
233.971, 127.671
234.453, 126.274
234.935, 127.673
235.417, 132.229
235.899, 141.196
236.381, 154.490
236.863, 164.133
237.345, 164.029
237.827, 166.576
238.309, 177.153
238.792, 193.090
239.274, 208.817
239.756, 220.524
240.238, 229.027
240.720, 238.673
241.202, 249.702
241.684, 262.408
242.166, 277.465
242.649, 293.845
243.131, 311.050
243.613, 329.533
244.095, 347.177
244.577, 357.402
245.059, 359.945
245.541, 354.900
246.023, 343.809
246.505, 325.898
246.988, 298.000
247.470, 257.639
247.952, 213.121
248.434, 178.838
248.916, 156.650
249.398, 139.131
249.880, 128.123
250.362, 118.784
250.844, 106.878
251.327, 91.168
251.809, 75.597
252.291, 65.779
252.773, 62.550
253.255, 57.833
253.737, 44.674
254.219, 33.508
254.702, 33.599
255.184, 45.631
255.666, 58.665
256.148, 62.982
256.630, 59.311
257.112, 55.330
257.594, 50.331
258.076, 47.504
258.558, 50.330
259.040, 57.961
259.523, 64.583
260.005, 66.042
260.487, 63.584
260.969, 60.920
261.451, 57.147
261.933, 55.709
262.415, 60.677
262.897, 70.144
263.380, 78.747
263.862, 82.882
264.344, 85.312
264.826, 91.103
265.308, 101.065
265.790, 111.457
266.272, 121.130
266.754, 129.302
267.237, 133.706
267.719, 128.111
268.201, 122.949
268.683, 131.024
269.165, 151.914
269.647, 170.592
270.129, 177.162
270.611, 176.722
271.093, 183.722
271.576, 204.008
272.058, 223.570
272.540, 229.242
273.022, 226.119
273.504, 233.967
273.986, 263.785
274.468, 304.559
274.950, 332.585
275.432, 343.497
275.915, 356.078
276.397, 375.073
276.879, 400.145
277.361, 430.449
277.843, 465.395
278.325, 504.488
278.807, 547.096
279.289, 592.459
279.772, 646.157
280.254, 708.960
280.736, 779.238
281.218, 855.838
281.700, 938.959
282.182, 1028.597
282.664, 1121.917
283.146, 1216.305
283.629, 1329.710
284.111, 1472.953
284.593, 1624.277
285.075, 1770.520
285.557, 1914.071
286.039, 2063.326
286.521, 2226.528
287.003, 2401.979
287.485, 2575.618
287.967, 2755.728
288.450, 2926.627
288.932, 3083.730
289.414, 3229.102
289.896, 3372.558
290.378, 3519.371
290.860, 3658.236
291.342, 3756.127
291.824, 3820.586
292.307, 3825.691
292.789, 3757.451
293.271, 3640.314
293.753, 3485.244
294.235, 3299.226
294.717, 3103.042
295.199, 2926.755
295.681, 2768.914
296.164, 2639.275
296.646, 2554.534
297.128, 2481.680
297.610, 2408.214
298.092, 2330.929
298.574, 2248.357
299.056, 2158.662
299.538, 2062.351
300.020, 1958.368
300.503, 1841.959
300.985, 1722.279
301.467, 1599.108
301.949, 1476.236
302.431, 1360.295
302.913, 1255.452
303.395, 1160.030
303.877, 1068.418
304.359, 979.399
304.842, 897.534
305.324, 824.740
305.806, 759.323
306.288, 700.244
306.770, 647.747
307.252, 599.682
307.734, 553.419
308.216, 508.860
308.698, 468.945
309.181, 436.753
309.663, 408.078
310.145, 376.184
310.627, 340.065
311.109, 306.956
311.591, 280.910
312.073, 260.872
312.556, 244.807
313.038, 233.225
313.520, 222.604
314.002, 208.476
314.484, 191.119
314.966, 174.549
315.448, 157.857
315.930, 143.260
316.412, 135.326
316.895, 133.819
317.377, 129.624
317.859, 114.102
318.341, 88.529
318.823, 73.218
319.305, 76.216
319.787, 80.363
320.269, 78.984
320.751, 72.903
321.234, 63.764
321.716, 51.936
322.198, 39.196
322.680, 31.054
323.162, 32.284
323.644, 32.173
324.126, 27.869
324.608, 23.136
325.091, 22.349
325.573, 26.364
326.055, 32.020
326.537, 35.370
327.019, 36.775
327.501, 34.335
327.983, 21.904
328.465, 11.594
328.947, 11.192
329.430, 18.736
329.912, 26.467
330.394, 28.332
330.876, 24.859
331.358, 21.703
331.840, 19.699
332.322, 16.824
332.804, 11.955
333.286, 6.143
333.769, 0.431
334.251, 5.135
334.733, 9.253
335.215, 8.490
335.697, 1.176
336.179, 3.034
336.661, 2.741
337.143, 9.841
337.625, 9.896
338.108, 1.753
338.590, 4.672
339.072, 2.495
339.554, 18.638
340.036, 22.362
340.518, 5.257
341.000, 13.969
341.483, 16.606
341.965, 6.271
342.447, 3.474
342.929, 10.141
343.411, 13.653
343.893, 12.495
344.375, 6.926
344.857, 1.993
345.339, 1.421
345.822, 3.817
346.304, 2.881
346.786, 5.838
347.268, 12.453
347.750, 11.213
348.232, 5.801
348.714, 2.718
349.196, 4.336
349.678, 8.658
350.161, 12.489
350.643, 17.298
351.125, 18.151
351.607, 12.820
352.089, 5.318
352.571, 3.354
353.053, 11.962
353.535, 17.496
354.017, 16.962
354.500, 10.262
354.982, 2.732
355.464, 11.836
355.946, 20.566
356.428, 15.686
356.910, 4.295
357.392, 2.905
357.874, 0.527
358.357, 7.091
358.839, 10.743
359.321, 9.231
359.803, 7.408
360.285, 5.359
360.767, 3.973
361.249, 4.593
361.731, 7.222
362.214, 9.192
362.696, 7.144
363.178, 2.184
363.660, 0.095
364.142, 1.900
364.624, 5.743
365.106, 12.250
365.588, 19.899
366.070, 24.279
366.552, 19.632
367.035, 14.224
367.517, 18.117
367.999, 30.261
368.481, 40.524
368.963, 43.603
369.445, 41.741
369.927, 41.101
370.409, 42.176
370.892, 43.284
371.374, 41.815
371.856, 40.940
372.338, 46.826
372.820, 60.607
373.302, 74.292
373.784, 77.469
374.266, 66.147
374.749, 61.942
375.231, 70.290
375.713, 79.457
376.195, 84.247
376.677, 85.296
377.159, 84.743
377.641, 83.592
378.123, 82.665
378.605, 85.405
379.088, 94.299
379.570, 102.788
380.052, 111.112
380.534, 117.879
381.016, 121.489
381.498, 121.675
381.980, 120.445
382.462, 118.765
382.944, 116.677
383.427, 118.689
383.909, 127.118
384.391, 137.215
384.873, 145.861
385.355, 153.465
385.837, 161.256
386.319, 170.687
386.801, 180.030
387.284, 186.189
387.766, 189.192
388.248, 192.923
388.730, 198.811
389.212, 207.009
389.694, 217.305
390.176, 228.783
390.658, 243.983
391.140, 266.936
391.623, 292.977
392.105, 314.052
392.587, 328.799
393.069, 342.922
393.551, 362.568
394.033, 387.533
394.515, 417.616
394.997, 455.366
395.479, 494.901
395.962, 534.161
396.444, 573.129
396.926, 611.984
397.408, 649.919
397.890, 689.280
398.372, 735.692
398.854, 788.493
399.336, 848.293
399.819, 917.516
400.301, 990.747
400.783, 1063.712
401.265, 1136.361
401.747, 1211.396
402.229, 1289.404
402.711, 1371.280
403.193, 1465.777
403.676, 1578.867
404.158, 1692.066
404.640, 1795.092
405.122, 1890.870
405.604, 1984.581
406.086, 2080.577
406.568, 2170.363
407.050, 2244.596
407.532, 2305.251
408.014, 2362.526
408.497, 2422.397
408.979, 2476.562
409.461, 2511.357
409.943, 2528.919
410.425, 2520.911
410.907, 2478.617
411.389, 2415.398
411.871, 2339.370
412.354, 2253.159
412.836, 2160.351
413.318, 2063.555
413.800, 1962.036
414.282, 1851.902
414.764, 1721.292
415.246, 1595.759
415.728, 1479.440
416.211, 1370.112
416.693, 1267.378
417.175, 1170.931
417.657, 1078.184
418.139, 984.107
418.621, 887.428
419.103, 805.514
419.585, 748.131
420.067, 696.205
420.550, 635.888
421.032, 572.371
421.514, 519.778
421.996, 488.948
422.478, 467.592
422.960, 438.794
423.442, 402.996
423.924, 370.864
424.406, 348.096
424.889, 330.045
425.371, 308.256
425.853, 281.481
426.335, 256.664
426.817, 235.072
427.299, 216.834
427.781, 202.872
428.263, 192.972
428.746, 185.436
429.228, 179.457
429.710, 174.782
430.192, 166.596
430.674, 149.932
431.156, 135.745
431.638, 126.993
432.120, 121.295
432.603, 116.044
433.085, 110.369
433.567, 104.624
434.049, 99.542
434.531, 95.304
435.013, 90.150
435.495, 84.275
435.977, 77.047
436.459, 66.309
436.941, 54.047
437.424, 44.931
437.906, 40.607
438.388, 40.614
438.870, 46.937
439.352, 59.008
439.834, 66.703
440.316, 65.736
440.798, 59.355
441.281, 52.075
441.763, 43.665
442.245, 35.952
442.727, 26.584
443.209, 19.970
443.691, 23.831
444.173, 36.236
444.655, 44.667
445.138, 39.469
445.620, 23.071
446.102, 11.849
446.584, 6.948
447.066, 6.338
447.548, 14.127
448.030, 23.592
448.512, 28.594
448.994, 27.887
449.477, 24.363
449.959, 20.047
450.441, 14.953
450.923, 12.611
451.405, 14.708
451.887, 16.780
452.369, 17.399
452.851, 16.368
453.333, 12.743
453.816, 4.667
454.298, 2.893
454.780, 5.613
455.262, 4.272
455.744, 1.170
456.226, 3.483
456.708, 8.230
457.190, 11.173
457.672, 11.910
458.155, 13.274
458.637, 19.075
459.119, 22.012
459.601, 14.644
460.083, 1.220
460.565, 7.983
461.047, 7.687
461.530, 1.597
462.012, 1.707
462.494, 0.256
462.976, 0.484
463.458, 4.682
463.940, 8.926
464.422, 12.164
464.904, 13.826
465.386, 12.246
465.868, 2.679
466.351, 9.708
466.833, 10.079
467.315, 3.800
467.797, 15.005
468.279, 15.530
468.761, 10.626
469.243, 8.357
469.725, 8.667
470.208, 12.781
470.690, 25.414
471.172, 38.826
471.654, 43.143
472.136, 38.381
472.618, 32.213
473.100, 30.216
473.582, 31.783
474.065, 32.196
474.547, 25.971
475.029, 25.517
475.511, 37.299
475.993, 52.138
476.475, 60.880
476.957, 62.308
477.439, 62.522
477.921, 67.294
478.404, 75.876
478.886, 88.197
479.368, 109.138
479.850, 125.297
480.332, 124.778
480.814, 115.554
481.296, 108.979
481.778, 107.760
482.260, 109.654
482.743, 113.945
483.225, 120.200
483.707, 127.565
484.189, 135.945
484.671, 145.336
485.153, 156.140
485.635, 168.931
486.117, 180.074
486.599, 184.843
487.082, 191.448
487.564, 207.083
488.046, 225.184
488.528, 235.747
489.010, 236.115
489.492, 233.694
489.974, 238.854
490.457, 252.609
490.939, 263.192
491.421, 269.522
491.903, 273.839
492.385, 275.635
492.867, 276.677
493.349, 280.455
493.831, 289.335
494.313, 298.226
494.796, 302.535
495.278, 303.191
495.760, 303.606
496.242, 304.851
496.724, 304.220
497.206, 297.587
497.688, 283.970
498.170, 276.900
498.652, 287.472
499.135, 292.181
499.617, 276.536
500.099, 250.432
500.581, 229.254
501.063, 218.628
501.545, 213.510
502.027, 207.337
502.509, 200.321
502.991, 190.724
503.474, 176.313
503.956, 161.997
504.438, 148.858
504.920, 137.620
505.402, 130.008
505.884, 128.678
506.366, 127.104
506.848, 117.836
507.331, 103.110
507.813, 91.077
508.295, 83.888
508.777, 78.503
509.259, 71.356
509.741, 62.054
510.223, 56.251
510.705, 56.992
511.188, 57.696
511.670, 55.930
512.152, 52.399
512.634, 48.271
513.116, 44.160
513.598, 40.056
514.080, 36.109
514.562, 32.507
515.044, 26.980
515.526, 17.106
516.009, 8.671
516.491, 4.130
516.973, 2.876
517.455, 4.277
517.937, 9.093
518.419, 14.203
518.901, 18.548
519.383, 22.021
519.865, 23.595
520.348, 23.072
520.830, 20.410
521.312, 15.087
521.794, 6.995
522.276, 0.712
522.758, 5.799
523.240, 8.489
523.722, 2.861
524.205, 5.094
524.687, 9.223
525.169, 8.451
525.651, 5.402
526.133, 3.722
526.615, 3.255
527.097, 0.194
527.579, 9.189
528.062, 15.640
528.544, 13.190
529.026, 6.261
529.508, 0.773
529.990, 2.397
530.472, 4.765
530.954, 7.075
531.436, 9.076
531.919, 10.138
532.401, 10.283
532.883, 10.795
533.365, 13.182
533.847, 16.608
534.329, 15.052
534.811, 1.412
535.293, 7.570
535.775, 5.952
536.258, 2.253
536.740, 5.766
537.222, 15.659
537.704, 21.078
538.186, 9.580
538.668, 11.206
539.150, 19.257
539.632, 13.103
540.114, 7.260
540.597, 8.009
541.079, 11.724
541.561, 12.734
542.043, 11.240
542.525, 6.951
543.007, 6.397
543.489, 17.566
543.971, 15.134
544.453, 2.457
544.936, 8.991
545.418, 13.041
545.900, 12.433
546.382, 13.459
546.864, 17.381
547.346, 19.049
547.828, 15.565
548.310, 12.163
548.792, 11.424
549.275, 12.880
549.757, 15.114
550.239, 18.230
550.721, 20.976
551.203, 22.294
551.685, 22.188
552.167, 20.238
552.649, 16.109
553.132, 11.541
553.614, 7.770
554.096, 4.468
554.578, 6.390
555.060, 18.641
555.542, 29.262
556.024, 34.501
556.506, 36.478
556.989, 37.482
557.471, 38.260
557.953, 39.066
558.435, 40.671
558.917, 42.760
559.399, 42.484
559.881, 38.894
560.363, 36.150
560.846, 37.625
561.328, 40.576
561.810, 38.934
562.292, 29.694
562.774, 25.136
563.256, 34.301
563.738, 46.356
564.220, 50.130
564.702, 46.116
565.185, 41.026
565.667, 38.810
566.149, 39.022
566.631, 40.568
567.113, 43.955
567.595, 47.345
568.077, 51.396
568.559, 54.614
569.041, 57.068
569.524, 58.091
570.006, 55.612
570.488, 46.263
570.970, 36.336
571.452, 32.004
571.934, 32.302
572.416, 34.735
572.898, 38.854
573.380, 42.633
573.863, 43.488
574.345, 41.030
574.827, 41.349
575.309, 46.990
575.791, 52.352
576.273, 54.921
576.755, 57.212
577.237, 62.713
577.719, 71.786
578.202, 80.655
578.684, 88.186
579.166, 92.834
579.648, 85.829
580.130, 64.775
580.612, 50.382
581.094, 54.728
581.576, 69.788
582.059, 78.936
582.541, 79.933
583.023, 83.153
583.505, 92.733
583.987, 102.516
584.469, 106.962
584.951, 108.111
585.433, 112.108
585.916, 122.367
586.398, 134.299
586.880, 138.554
587.362, 133.907
587.844, 132.465
588.326, 134.918
588.808, 140.697
589.290, 152.959
589.773, 167.814
590.255, 176.609
590.737, 173.095
591.219, 172.835
591.701, 187.298
592.183, 207.566
592.665, 221.494
593.147, 227.414
593.629, 231.216
594.112, 236.898
594.594, 243.587
595.076, 248.312
595.558, 248.252
596.040, 254.423
596.522, 270.901
597.004, 291.312
597.486, 313.897
597.968, 337.753
598.451, 359.804
598.933, 375.558
599.415, 392.278
599.897, 419.330
600.379, 452.974
600.861, 479.960
601.343, 496.345
601.825, 514.182
602.307, 548.061
602.790, 598.285
603.272, 636.271
603.754, 649.433
604.236, 666.112
604.718, 689.841
605.200, 720.103
605.682, 761.696
606.164, 812.777
606.646, 855.215
607.129, 867.426
607.611, 867.076
608.093, 888.159
608.575, 928.748
609.057, 965.933
609.539, 993.066
610.021, 1006.663
610.503, 999.083
610.986, 962.154
611.468, 937.135
611.950, 936.884
612.432, 932.641
612.914, 912.124
613.396, 881.679
613.878, 849.776
614.360, 818.848
614.843, 788.295
615.325, 759.235
615.807, 729.965
616.289, 692.552
616.771, 645.618
617.253, 604.987
617.735, 581.328
618.217, 565.838
618.700, 539.043
619.182, 493.755
619.664, 455.608
620.146, 430.967
620.628, 408.814
621.110, 383.323
621.592, 355.622
622.074, 327.342
622.556, 299.060
623.039, 274.702
623.521, 262.493
624.003, 260.004
624.485, 249.333
624.967, 227.198
625.449, 205.081
625.931, 189.237
626.413, 178.494
626.895, 169.503
627.378, 162.624
627.860, 156.350
628.342, 152.624
628.824, 147.757
629.306, 136.990
629.788, 122.728
630.270, 111.260
630.752, 105.878
631.234, 103.432
631.717, 98.950
632.199, 92.402
632.681, 84.418
633.163, 73.742
633.645, 65.804
634.127, 65.958
634.609, 71.458
635.091, 72.354
635.573, 66.962
636.056, 60.460
636.538, 51.236
637.020, 43.143
637.502, 39.544
637.984, 39.796
638.466, 41.111
638.948, 41.969
639.430, 42.979
639.913, 47.169
640.395, 54.388
640.877, 51.845
641.359, 33.540
641.841, 17.304
642.323, 18.078
642.805, 31.518
643.287, 38.606
643.769, 36.251
644.252, 32.544
644.734, 26.170
645.216, 21.707
645.698, 24.176
646.180, 31.594
646.662, 37.346
647.144, 37.393
647.627, 35.357
648.109, 38.304
648.591, 45.935
649.073, 48.318
649.555, 43.276
650.037, 35.005
650.519, 23.467
651.001, 11.070
651.483, 8.939
651.966, 29.212
652.448, 41.863
652.930, 34.632
653.412, 23.889
653.894, 22.909
654.376, 30.224
654.858, 37.700
655.340, 41.057
655.822, 40.879
656.305, 37.409
656.787, 31.223
657.269, 27.506
657.751, 27.399
658.233, 29.321
658.715, 32.536
659.197, 36.831
659.679, 40.662
660.161, 43.051
660.644, 46.401
661.126, 54.517
661.608, 60.693
662.090, 58.996
662.572, 51.406
663.054, 43.858
663.536, 39.224
664.018, 35.645
664.500, 30.513
664.983, 24.325
665.465, 19.092
665.947, 15.061
666.429, 12.269
666.911, 10.838
667.393, 10.598
667.875, 11.012
668.357, 13.226
668.839, 14.743
669.322, 13.890
669.804, 12.489
670.286, 12.357
670.768, 13.706
671.250, 17.509
671.732, 24.887
672.214, 30.315
672.696, 26.216
673.179, 16.718
673.661, 12.101
674.143, 13.155
674.625, 14.587
675.107, 13.301
675.589, 10.727
676.071, 10.345
676.553, 13.249
677.036, 15.625
677.518, 18.685
678.000, 19.900
678.482, 17.314
678.964, 12.689
679.446, 8.380
679.928, 4.968
680.410, 3.691
680.893, 7.612
681.375, 12.729
681.857, 12.634
682.339, 8.278
682.821, 5.436
683.303, 6.780
683.785, 10.397
684.267, 13.737
684.749, 16.856
685.232, 15.106
685.714, 2.576
686.196, 5.109
686.678, 5.326
687.160, 19.719
687.642, 20.546
688.124, 5.246
688.606, 6.510
689.088, 5.670
689.571, 0.803
690.053, 2.741
690.535, 5.004
691.017, 7.258
691.499, 9.667
691.981, 10.177
692.463, 4.796
692.945, 4.877
693.427, 5.898
693.910, 4.256
694.392, 11.006
694.874, 8.172
695.356, 2.078
695.838, 0.184
696.320, 2.433
696.802, 3.639
697.284, 2.778
697.766, 1.700
698.249, 0.366
698.731, 1.454
699.213, 1.322
699.695, 7.647
700.177, 14.464
700.659, 20.983
701.141, 24.614
701.623, 18.310
702.106, 3.655
702.588, 6.863
703.070, 10.594
703.552, 9.936
704.034, 6.082
704.516, 0.283
704.998, 4.346
705.480, 5.275
705.963, 5.059
706.445, 3.596
706.927, 1.812
707.409, 1.965
707.891, 6.467
708.373, 6.954
708.855, 0.034
709.337, 6.423
709.820, 5.157
710.302, 0.043
710.784, 3.222
711.266, 3.876
711.748, 3.978
712.230, 4.766
712.712, 4.892
713.194, 0.237
713.676, 11.397
714.159, 15.130
714.641, 5.794
715.123, 2.978
715.605, 3.468
716.087, 0.217
716.569, 1.970
717.051, 1.041
717.533, 0.867
718.015, 3.536
718.498, 6.056
718.980, 4.535
719.462, 2.000
719.944, 5.155
720.426, 15.299
720.908, 24.768
721.390, 25.049
721.872, 19.269
722.354, 15.998
722.837, 14.798
723.319, 13.571
723.801, 11.568
724.283, 9.559
724.765, 8.728
725.247, 9.125
725.729, 7.198
726.211, 4.955
726.693, 8.914
727.176, 6.896
727.658, 24.164
728.140, 26.755
728.622, 17.304
729.104, 10.793
729.586, 15.207
730.068, 21.140
730.550, 20.399
731.033, 16.109
731.515, 12.969
731.997, 11.823
732.479, 12.911
732.961, 16.638
733.443, 21.477
733.925, 24.570
734.407, 26.228
734.890, 22.731
735.372, 10.303
735.854, 0.244
736.336, 0.144
736.818, 5.845
737.300, 8.506
737.782, 6.741
738.264, 6.971
738.747, 12.953
739.229, 18.171
739.711, 19.313
740.193, 17.308
740.675, 12.023
741.157, 4.179
741.639, 0.018
742.121, 7.545
742.603, 20.658
743.086, 28.882
743.568, 32.478
744.050, 32.562
744.532, 29.641
745.014, 25.178
745.496, 20.620
745.978, 15.992
746.460, 10.867
746.942, 4.186
747.425, 0.145
747.907, 1.397
748.389, 0.401
748.871, 9.106
749.353, 21.548
749.835, 28.165
750.317, 24.968
750.799, 20.011
751.281, 15.662
751.764, 12.115
752.246, 8.030
752.728, 4.530
753.210, 5.290
753.692, 12.103
754.174, 19.480
754.656, 18.977
755.138, 13.197
755.620, 13.996
756.103, 21.935
756.585, 25.012
757.067, 16.911
757.549, 6.248
758.031, 6.311
758.513, 18.754
758.995, 26.038
759.477, 25.320
759.960, 23.426
760.442, 18.992
760.924, 15.657
761.406, 19.131
761.888, 27.947
762.370, 31.602
762.852, 22.898
763.334, 12.126
763.817, 1.927
764.299, 5.262
764.781, 4.797
765.263, 1.916
765.745, 8.354
766.227, 11.063
766.709, 12.544
767.191, 16.253
767.674, 21.515
768.156, 23.424
768.638, 21.221
769.120, 18.246
769.602, 15.894
770.084, 14.239
770.566, 13.602
771.048, 14.399
771.530, 15.844
772.013, 19.357
772.495, 21.448
772.977, 19.111
773.459, 16.160
773.941, 17.832
774.423, 23.559
774.905, 25.110
775.387, 14.392
775.869, 4.665
776.352, 5.105
776.834, 10.334
777.316, 14.831
777.798, 17.012
778.280, 14.890
778.762, 6.272
779.244, 3.483
779.726, 4.883
780.208, 0.676
780.691, 4.923
781.173, 6.920
781.655, 9.703
782.137, 15.325
782.619, 21.654
783.101, 24.126
783.583, 21.145
784.065, 21.129
784.547, 28.664
785.030, 34.270
785.512, 30.891
785.994, 25.020
786.476, 25.919
786.958, 33.337
787.440, 35.679
787.922, 22.642
788.404, 12.523
788.887, 17.944
789.369, 28.457
789.851, 31.813
790.333, 28.016
790.815, 24.482
791.297, 25.306
791.779, 27.895
792.261, 30.320
792.744, 31.607
793.226, 27.206
793.708, 17.097
794.190, 9.301
794.672, 7.870
795.154, 10.948
795.636, 16.804
796.118, 26.189
796.601, 28.463
797.083, 19.314
797.565, 13.207
798.047, 17.343
798.529, 24.007
799.011, 23.649
799.493, 16.978
799.975, 14.148
800.457, 18.219
800.940, 22.411
801.422, 26.484
801.904, 28.841
802.386, 27.731
802.868, 23.825
803.350, 18.565
803.832, 11.897
804.314, 7.013
804.796, 5.767
805.279, 8.171
805.761, 17.847
806.243, 31.860
806.725, 39.785
807.207, 37.513
807.689, 29.393
808.171, 17.797
808.653, 5.198
809.135, 8.278
809.618, 28.818
810.100, 41.726
810.582, 38.815
811.064, 32.567
811.546, 34.285
812.028, 42.199
812.510, 46.099
812.992, 45.483
813.474, 41.633
813.957, 28.444
814.439, 18.550
814.921, 20.936
815.403, 29.386
815.885, 33.683
816.367, 32.094
816.849, 28.783
817.331, 21.262
817.814, 16.539
818.296, 23.059
818.778, 34.157
819.260, 37.612
819.742, 31.881
820.224, 26.118
820.706, 26.335
821.188, 29.572
821.670, 32.333
822.153, 34.203
822.635, 35.385
823.117, 36.179
823.599, 36.061
824.081, 34.774
824.563, 32.472
825.045, 25.291
825.528, 31.208
826.010, 33.946
826.492, 33.676
826.974, 21.387
827.456, 24.621
827.938, 21.635
828.420, 18.396
828.902, 23.817
829.384, 13.280
829.867, 18.562
830.349, 17.530
830.831, 19.388
831.313, 14.988
831.795, 12.523
832.277, 16.317
832.759, 9.682
833.241, 5.087
833.723, 3.772
834.206, 10.112
834.688, 18.345
835.170, 25.252
835.652, 29.904
836.134, 30.652
836.616, 27.513
837.098, 23.263
837.580, 19.924
838.062, 18.290
838.545, 19.867
839.027, 23.322
839.509, 23.904
839.991, 20.974
840.473, 18.912
840.955, 21.231
841.437, 24.199
841.919, 16.535
842.401, 2.785
842.884, 8.137
843.366, 5.239
843.848, 17.186
844.330, 18.207
844.812, 14.887
845.294, 16.996
845.776, 25.324
846.258, 27.888
846.740, 20.808
847.223, 13.658
847.705, 4.727
848.187, 0.926
848.669, 2.706
849.151, 12.327
849.633, 17.976
850.115, 16.549
850.597, 14.799
851.080, 15.222
851.562, 15.548
852.044, 13.466
852.526, 10.515
853.008, 9.588
853.490, 11.215
853.972, 12.606
854.454, 11.137
854.937, 9.464
855.419, 10.057
855.901, 12.676
856.383, 18.857
856.865, 27.273
857.347, 30.756
857.829, 24.609
858.311, 14.441
858.794, 8.814
859.276, 7.168
859.758, 6.515
860.240, 6.722
860.722, 8.780
861.204, 13.412
861.686, 18.014
862.168, 18.869
862.650, 15.668
863.133, 17.402
863.615, 27.504
864.097, 30.231
864.579, 18.880
865.061, 7.666
865.543, 8.053
866.025, 16.059
866.507, 21.442
866.989, 24.563
867.472, 24.071
867.954, 15.166
868.436, 8.403
868.918, 8.570
869.400, 11.822
869.882, 14.650
870.364, 16.693
870.846, 18.302
871.328, 19.597
871.811, 20.206
872.293, 19.849
872.775, 19.446
873.257, 20.821
873.739, 22.649
874.221, 21.960
874.703, 17.753
875.185, 11.390
875.667, 0.029
876.150, 9.833
876.632, 8.200
877.114, 0.896
877.596, 8.703
878.078, 13.170
878.560, 15.756
879.042, 17.266
879.524, 18.309
880.007, 20.451
880.489, 23.148
880.971, 23.355
881.453, 20.949
881.935, 18.740
882.417, 17.860
882.899, 18.501
883.381, 21.728
883.864, 26.873
884.346, 25.600
884.828, 16.143
885.310, 9.166
885.792, 6.656
886.274, 7.406
886.756, 11.789
887.238, 17.908
887.721, 20.155
888.203, 16.734
888.685, 14.581
889.167, 13.335
889.649, 13.862
890.131, 20.155
890.613, 25.725
891.095, 22.702
891.577, 11.976
892.060, 4.087
892.542, 0.804
893.024, 1.474
893.506, 6.164
893.988, 14.343
894.470, 18.844
894.952, 19.911
895.434, 17.691
895.916, 11.999
896.399, 8.206
896.881, 10.283
897.363, 13.318
897.845, 15.164
898.327, 15.273
898.809, 11.118
899.291, 4.454
899.773, 2.334
900.255, 8.977
900.738, 16.422
901.220, 16.777
901.702, 14.708
902.184, 9.828
902.666, 17.594
903.148, 22.289
903.630, 24.078
904.112, 14.259
904.594, 19.441
905.077, 18.642
905.559, 17.563
906.041, 24.811
906.523, 16.678
907.005, 23.826
907.487, 24.874
907.969, 24.509
908.451, 34.218
908.934, 35.212
909.416, 28.205
909.898, 18.583
910.380, 5.782
910.862, 0.788
911.344, 1.890
911.826, 7.152
912.308, 9.843
912.791, 10.894
913.273, 13.007
913.755, 16.857
914.237, 18.904
914.719, 19.033
915.201, 17.184
915.683, 10.902
916.165, 6.066
916.648, 11.433
917.130, 25.775
917.612, 30.563
918.094, 19.575
918.576, 9.560
919.058, 3.153
919.540, 9.533
920.022, 2.118
920.504, 19.226
920.987, 20.156
921.469, 1.597
921.951, 7.326
922.433, 7.064
922.915, 17.789
923.397, 14.493
923.879, 7.157
924.361, 2.208
924.843, 0.006
925.326, 0.312
925.808, 1.165
926.290, 4.125
926.772, 12.661
927.254, 18.025
927.736, 10.512
928.218, 0.580
928.700, 2.947
929.182, 3.453
929.665, 10.336
930.147, 15.027
930.629, 17.000
931.111, 13.837
931.593, 9.427
932.075, 7.554
932.557, 7.770
933.039, 8.412
933.521, 9.206
934.004, 10.894
934.486, 16.661
934.968, 23.702
935.450, 29.375
935.932, 32.553
936.414, 29.875
936.896, 22.723
937.378, 16.118
937.861, 12.177
938.343, 11.068
938.825, 15.216
939.307, 20.963
939.789, 20.505
940.271, 15.322
940.753, 8.958
941.235, 2.866
941.718, 0.218
942.200, 1.744
942.682, 6.935
943.164, 14.218
943.646, 22.170
944.128, 23.468
944.610, 18.653
945.092, 13.604
945.575, 9.826
946.057, 9.690
946.539, 15.874
947.021, 24.266
947.503, 23.572
947.985, 14.201
948.467, 10.387
948.949, 13.196
949.431, 15.042
949.914, 12.990
950.396, 10.565
950.878, 11.805
951.360, 15.414
951.842, 18.741
952.324, 21.919
952.806, 24.210
953.288, 26.195
953.770, 23.893
954.253, 13.491
954.735, 2.574
955.217, 2.429
955.699, 12.512
956.181, 15.351
956.663, 6.690
957.145, 3.827
957.627, 12.491
958.109, 19.409
958.592, 15.548
959.074, 6.897
959.556, 4.470
960.038, 9.258
960.520, 11.153
961.002, 8.810
961.484, 6.187
961.966, 2.397
962.448, 0.676
962.931, 4.338
963.413, 11.304
963.895, 16.677
964.377, 19.956
964.859, 21.398
965.341, 20.196
965.823, 18.284
966.305, 14.750
966.788, 11.883
967.270, 13.065
967.752, 16.427
968.234, 15.149
968.716, 5.082
969.198, 0.016
969.680, 4.671
970.162, 9.096
970.644, 9.981
971.127, 9.299
971.609, 8.016
972.091, 6.763
972.573, 7.860
973.055, 14.145
973.537, 17.889
974.019, 15.254
974.502, 13.200
974.984, 16.730
975.466, 21.220
975.948, 21.003
976.430, 16.300
976.912, 11.485
977.394, 5.898
977.876, 3.331
978.358, 5.653
978.841, 8.459
979.323, 9.847
979.805, 9.364
980.287, 7.224
980.769, 3.302
981.251, 2.019
981.733, 7.198
982.215, 11.435
982.697, 11.752
983.180, 11.200
983.662, 11.975
984.144, 13.283
984.626, 13.736
985.108, 13.137
985.590, 12.190
986.072, 10.804
986.554, 9.279
987.036, 6.975
987.519, 5.842
988.001, 9.694
988.483, 15.142
988.965, 15.608
989.447, 9.904
989.929, 4.052
990.411, 1.721
990.893, 4.521
991.375, 0.236
991.858, 5.164
992.340, 5.890
992.822, 3.782
993.304, 3.902
993.786, 7.453
994.268, 9.332
994.750, 4.261
995.232, 0.853
995.715, 6.272
996.197, 13.166
996.679, 15.066
997.161, 12.480
997.643, 7.090
998.125, 1.016
998.607, 5.818
999.089, 2.405
999.571, 2.293
1000.054, 6.231
1000.536, 8.311
1001.018, 5.340
1001.500, 0.149
1001.982, 0.298
1002.464, 8.332
1002.946, 14.617
1003.428, 13.474
1003.911, 10.812
1004.393, 9.915
1004.875, 9.358
1005.357, 6.911
1005.839, 3.559
1006.321, 2.793
1006.803, 6.035
1007.285, 7.231
1007.767, 0.891
1008.250, 6.468
1008.732, 1.810
1009.214, 12.622
1009.696, 13.482
1010.178, 6.678
1010.660, 1.554
1011.142, 0.728
1011.624, 0.798
1012.107, 0.980
1012.589, 0.824
1013.071, 2.551
1013.553, 4.269
1014.035, 4.228
1014.517, 18.099
1014.999, 22.905
1015.481, 13.600
1015.963, 5.286
1016.446, 4.965
1016.928, 5.861
1017.410, 4.688
1017.892, 2.829
1018.374, 1.137
1018.856, 0.119
1019.338, 1.179
1019.820, 5.289
1020.302, 7.013
1020.785, 0.781
1021.267, 4.741
1021.749, 5.160
1022.231, 18.505
1022.713, 26.212
1023.195, 29.028
1023.677, 30.997
1024.159, 33.050
1024.642, 33.326
1025.124, 30.288
1025.606, 26.694
1026.088, 24.172
1026.570, 21.071
1027.052, 14.700
1027.534, 6.975
1028.016, 1.986
1028.499, 0.539
1028.981, 0.448
1029.463, 1.489
1029.945, 1.538
1030.427, 20.874
1030.909, 37.382
1031.391, 29.924
1031.873, 10.480
1032.355, 8.200
1032.838, 30.012
1033.320, 40.875
1033.802, 25.077
1034.284, 13.271
1034.766, 16.569
1035.248, 22.241
1035.730, 20.985
1036.212, 16.350
1036.694, 15.638
1037.177, 19.585
1037.659, 24.355
1038.141, 34.905
1038.623, 38.918
1039.105, 26.659
1039.587, 16.029
1040.069, 18.532
1040.551, 28.039
1041.034, 36.030
1041.516, 43.062
1041.998, 40.822
1042.480, 19.777
1042.962, 7.428
1043.444, 12.024
1043.926, 17.914
1044.408, 15.882
1044.891, 11.891
1045.373, 15.467
1045.855, 26.480
1046.337, 33.183
1046.819, 35.595
1047.301, 32.773
1047.783, 20.110
1048.265, 13.001
1048.747, 21.325
1049.229, 34.405
1049.712, 37.846
1050.194, 32.855
1050.676, 30.012
1051.158, 29.955
1051.640, 28.845
1052.122, 26.063
1052.604, 23.774
1053.086, 23.079
1053.569, 22.228
1054.051, 18.718
1054.533, 14.135
1055.015, 8.801
1055.497, 14.468
1055.979, 17.381
1056.461, 17.467
1056.943, 7.673
1057.426, 11.079
1057.908, 9.266
1058.390, 7.239
1058.872, 12.485
1059.354, 4.312
1059.836, 9.430
1060.318, 9.351
1060.800, 11.777
1061.282, 8.792
1061.765, 7.415
1062.247, 11.299
1062.729, 12.270
1063.211, 8.667
1063.693, 11.079
1064.175, 2.744
1064.657, 4.728
1065.139, 11.028
1065.621, 17.156
1066.104, 21.323
1066.586, 25.987
1067.068, 31.891
1067.550, 33.974
1068.032, 21.723
1068.514, 4.946
1068.996, 0.667
1069.478, 4.847
1069.961, 10.494
1070.443, 15.436
1070.925, 16.367
1071.407, 12.101
1071.889, 9.474
1072.371, 15.727
1072.853, 23.598
1073.335, 26.130
1073.818, 25.788
1074.300, 25.944
1074.782, 26.134
1075.264, 23.847
1075.746, 18.264
1076.228, 13.960
1076.710, 14.083
1077.192, 15.178
1077.674, 16.486
1078.156, 16.739
1078.639, 11.995
1079.121, 6.623
1079.603, 10.137
1080.085, 22.046
1080.567, 29.906
1081.049, 27.720
1081.531, 25.114
1082.013, 24.487
1082.495, 24.719
1082.978, 27.291
1083.460, 28.456
1083.942, 21.389
1084.424, 8.575
1084.906, 3.488
1085.388, 11.248
1085.870, 17.257
1086.352, 21.537
1086.835, 23.169
1087.317, 20.267
1087.799, 16.529
1088.281, 14.099
1088.763, 13.066
1089.245, 13.923
1089.727, 17.300
1090.209, 17.785
1090.692, 13.039
1091.174, 13.061
1091.656, 21.042
1092.138, 30.603
1092.620, 39.423
1093.102, 44.144
1093.584, 37.971
1094.066, 22.996
1094.548, 17.233
1095.031, 21.045
1095.513, 22.223
1095.995, 19.326
1096.477, 17.788
1096.959, 20.018
1097.441, 23.828
1097.923, 27.293
1098.405, 30.081
1098.887, 32.204
1099.370, 32.677
1099.852, 23.786
1100.334, 8.847
1100.816, 6.215
1101.298, 18.953
1101.780, 28.763
1102.262, 22.675
1102.744, 12.558
1103.227, 13.419
1103.709, 18.390
1104.191, 17.083
1104.673, 12.435
1105.155, 9.585
1105.637, 9.764
1106.119, 1.360
1106.601, 12.994
1107.083, 19.761
1107.566, 21.922
1108.048, 5.682
1108.530, 13.216
1109.012, 11.220
1109.494, 8.827
1109.976, 19.691
1110.458, 6.132
1110.940, 16.816
1111.422, 17.830
1111.905, 23.256
1112.387, 19.085
1112.869, 17.873
1113.351, 26.247
1113.833, 29.314
1114.315, 24.043
1114.797, 19.691
1115.279, 21.367
1115.762, 21.790
1116.244, 21.949
1116.726, 17.876
1117.208, 6.020
1117.690, 2.070
1118.172, 3.343
1118.654, 0.600
1119.136, 11.050
1119.619, 21.853
1120.101, 22.187
1120.583, 12.381
1121.065, 6.582
1121.547, 4.977
1122.029, 2.092
1122.511, 2.984
1122.993, 2.125
1123.475, 8.961
1123.958, 20.137
1124.440, 18.550
1124.922, 11.320
1125.404, 17.760
1125.886, 31.419
1126.368, 32.067
1126.850, 21.766
1127.332, 13.278
1127.814, 9.939
1128.297, 7.520
1128.779, 2.921
1129.261, 0.039
1129.743, 2.787
1130.225, 8.642
1130.707, 19.285
1131.189, 28.007
1131.671, 21.830
1132.154, 5.468
1132.636, 2.949
1133.118, 1.764
1133.600, 7.969
1134.082, 13.634
1134.564, 16.880
1135.046, 14.980
1135.528, 12.475
1136.010, 13.941
1136.493, 16.152
1136.975, 12.881
1137.457, 4.173
1137.939, 0.510
1138.421, 1.643
1138.903, 1.625
1139.385, 2.952
1139.867, 4.948
1140.349, 1.581
1140.832, 4.281
1141.314, 10.949
1141.796, 16.990
1142.278, 19.282
1142.760, 17.904
1143.242, 15.173
1143.724, 11.133
1144.206, 11.049
1144.689, 15.538
1145.171, 16.498
1145.653, 10.010
1146.135, 3.716
1146.617, 7.320
1147.099, 14.409
1147.581, 10.569
1148.063, 2.875
1148.546, 8.411
1149.028, 22.268
1149.510, 29.351
1149.992, 26.659
1150.474, 19.245
1150.956, 7.798
1151.438, 0.351
1151.920, 2.966
1152.402, 7.523
1152.885, 3.807
1153.367, 0.391
1153.849, 6.714
1154.331, 19.325
1154.813, 20.374
1155.295, 6.036
1155.777, 0.135
1156.259, 14.551
1156.741, 21.095
1157.224, 8.801
1157.706, 0.596
1158.188, 3.540
1158.670, 12.604
1159.152, 18.179
1159.634, 20.434
1160.116, 19.381
1160.598, 14.315
1161.081, 14.287
1161.563, 19.937
1162.045, 19.308
1162.527, 9.635
1163.009, 3.092
1163.491, 6.790
1163.973, 14.023
1164.455, 17.128
1164.938, 16.882
1165.420, 12.686
1165.902, 7.414
1166.384, 9.403
1166.866, 15.930
1167.348, 16.449
1167.830, 9.457
1168.312, 3.840
1168.794, 4.137
1169.276, 7.224
1169.759, 13.855
1170.241, 19.718
1170.723, 20.554
1171.205, 19.111
1171.687, 18.042
1172.169, 17.504
1172.651, 17.042
1173.133, 16.554
1173.616, 16.642
1174.098, 18.415
1174.580, 18.985
1175.062, 19.405
1175.544, 15.397
1176.026, 1.269
1176.508, 8.664
1176.990, 1.874
1177.473, 23.520
1177.955, 26.883
1178.437, 12.716
1178.919, 5.722
1179.401, 5.619
1179.883, 4.984
1180.365, 2.689
1180.847, 4.218
1181.329, 12.099
1181.812, 19.395
1182.294, 18.003
1182.776, 14.314
1183.258, 18.154
1183.740, 23.798
1184.222, 23.002
1184.704, 17.927
1185.186, 11.372
1185.668, 5.571
1186.151, 7.454
1186.633, 22.571
1187.115, 32.105
1187.597, 26.206
1188.079, 19.011
1188.561, 15.603
1189.043, 12.564
1189.525, 5.130
1190.008, 1.503
1190.490, 1.887
1190.972, 14.054
1191.454, 16.849
1191.936, 7.460
1192.418, 5.067
1192.900, 11.520
1193.382, 15.653
1193.865, 14.230
1194.347, 12.980
1194.829, 15.957
1195.311, 19.185
1195.793, 15.714
1196.275, 9.274
1196.757, 8.517
1197.239, 10.198
1197.721, 6.588
1198.203, 0.274
1198.686, 0.595
1199.168, 4.988
1199.650, 11.388
1200.132, 16.979
1200.614, 20.062
1201.096, 18.011
1201.578, 15.512
1202.060, 15.014
1202.543, 15.255
1203.025, 14.571
1203.507, 14.018
1203.989, 16.153
1204.471, 20.895
1204.953, 23.522
1205.435, 24.173
1205.917, 21.691
1206.400, 15.205
1206.882, 9.763
1207.364, 6.818
1207.846, 7.195
1208.328, 12.111
1208.810, 17.634
1209.292, 16.842
1209.774, 11.983
1210.256, 6.434
1210.739, 1.985
1211.221, 6.039
1211.703, 14.931
1212.185, 14.662
1212.667, 3.451
1213.149, 3.172
1213.631, 4.523
1214.113, 14.021
1214.595, 24.031
1215.078, 28.122
1215.560, 15.823
1216.042, 2.324
1216.524, 3.688
1217.006, 12.886
1217.488, 14.499
1217.970, 8.632
1218.452, 9.557
1218.935, 20.470
1219.417, 22.009
1219.899, 10.926
1220.381, 6.802
1220.863, 16.078
1221.345, 23.868
1221.827, 19.344
1222.309, 10.090
1222.792, 4.032
1223.274, 3.950
1223.756, 16.098
1224.238, 31.806
1224.720, 33.686
1225.202, 25.767
1225.684, 21.672
1226.166, 23.304
1226.648, 20.583
1227.130, 6.377
1227.613, 3.170
1228.095, 1.320
1228.577, 4.184
1229.059, 15.098
1229.541, 23.024
1230.023, 22.682
1230.505, 17.846
1230.987, 14.901
1231.470, 13.253
1231.952, 7.935
1232.434, 1.495
1232.916, 0.634
1233.398, 10.427
1233.880, 17.928
1234.362, 19.217
1234.844, 17.875
1235.327, 15.914
1235.809, 14.834
1236.291, 18.134
1236.773, 20.550
1237.255, 13.076
1237.737, 4.495
1238.219, 4.855
1238.701, 11.054
1239.183, 20.035
1239.666, 28.775
1240.148, 28.365
1240.630, 13.324
1241.112, 3.668
1241.594, 4.606
1242.076, 6.341
1242.558, 7.633
1243.040, 9.746
1243.522, 13.235
1244.005, 15.271
1244.487, 12.232
1244.969, 7.207
1245.451, 7.180
1245.933, 10.374
1246.415, 11.234
1246.897, 10.511
1247.379, 11.162
1247.861, 13.286
1248.344, 14.515
1248.826, 17.426
1249.308, 20.740
1249.790, 25.630
1250.272, 27.680
1250.754, 20.644
1251.236, 15.531
1251.718, 15.842
1252.201, 18.167
1252.683, 20.846
1253.165, 22.506
1253.647, 21.169
1254.129, 17.316
1254.611, 13.183
1255.093, 8.353
1255.575, 3.386
1256.057, 1.423
1256.540, 3.475
1257.022, 18.724
1257.504, 28.289
1257.986, 23.279
1258.468, 15.807
1258.950, 18.846
1259.432, 22.554
1259.914, 15.419
1260.396, 6.027
1260.879, 0.167
1261.361, 0.613
1261.843, 8.266
1262.325, 21.213
1262.807, 27.834
1263.289, 24.262
1263.771, 20.784
1264.253, 17.539
1264.736, 11.860
1265.218, 2.963
1265.700, 0.619
1266.182, 5.074
1266.664, 8.851
1267.146, 5.908
1267.628, 0.805
1268.110, 0.000
##END=



