##NAMES=Hematite
##RRUFFID=R040024
##IDEAL CHEMISTRY=Fe_2_O_3_
##LOCALITY=near Covered Wells, Papago Indian Reservation, Arizona, USA
##OWNER=RRUFF
##SOURCE=University of Arizona Mineral Museum
##DESCRIPTION=Reddish-black foliatated mass
##STATUS=The identification of this mineral has been confirmed by X-ray diffraction and chemical analysis
##URL=rruff.info/R040024
##MEASURED CHEMISTRY=(Fe_1.99_Al_0.01_)_Î£=2_O_3_
142.2531, 0.0000000E+00
142.7353, 2.394104
143.2174, 4.902069
143.6995, 0.1697080
144.1816, 6.086395
144.6637, 9.576935
145.1458, 10.80417
145.6280, 2.127197
146.1101, 5.890137
146.5922, 4.718597
147.0743, 3.370605
147.5564, 8.996246
148.0385, 1.877533
148.5207, 7.394928
149.0028, 7.917145
149.4849, 10.70908
149.9670, 8.573517
150.4491, 7.960175
150.9312, 12.43219
151.4134, 14.04089
151.8955, 11.38281
152.3776, 14.61923
152.8597, 7.584564
153.3418, 9.335114
153.8239, 14.88135
154.3061, 12.39886
154.7882, 15.30484
155.2703, 16.13226
155.7524, 7.950256
156.2345, 15.66898
156.7166, 16.87933
157.1988, 10.69965
157.6809, 14.28217
158.1630, 14.85812
158.6451, 13.89041
159.1272, 7.452576
159.6093, 14.62485
160.0915, 17.92905
160.5736, 18.18030
161.0557, 8.871216
161.5378, 14.93250
162.0199, 16.01678
162.5020, 14.58795
162.9841, 19.28802
163.4663, 11.21561
163.9484, 15.72397
164.4305, 15.18939
164.9126, 16.96823
165.3947, 13.84808
165.8768, 10.74246
166.3590, 10.71393
166.8411, 13.23755
167.3232, 15.71188
167.8053, 13.34265
168.2874, 9.439240
168.7695, 1.796875
169.2517, 9.559967
169.7338, 13.65680
170.2159, 14.28452
170.6980, 1.041534
171.1801, 5.719879
171.6622, 3.226257
172.1444, 0.4441530
172.6265, 7.664490
173.1086, 3.528809
173.5907, 5.092072
174.0728, 8.333466
174.5549, 13.49335
175.0371, 17.21603
175.5192, 14.20319
176.0013, 5.628204
176.4834, 2.028625
176.9655, 3.677216
177.4476, 1.184204
177.9298, 2.375977
178.4119, 8.038025
178.8940, 12.74673
179.3761, 10.93747
179.8582, 2.796234
180.3403, 5.642975
180.8225, 9.279694
181.3046, 8.964508
181.7867, 7.247589
182.2688, 4.014343
182.7509, 0.2401120
183.2330, 1.522980
183.7152, 1.008667
184.1973, 0.4639280
184.6794, 2.943359
185.1615, 7.902649
185.6436, 12.19031
186.1257, 15.10391
186.6079, 16.35614
187.0900, 13.91434
187.5721, 6.696289
188.0542, 0.6718440
188.5363, 4.0801998E-02
189.0184, 8.069305
189.5006, 14.70825
189.9827, 13.65225
190.4648, 6.238220
190.9469, 0.4266660
191.4290, 3.194214
191.9111, 4.783844
192.3932, 4.089996
192.8754, 1.007782
193.3575, 2.629608
193.8396, 5.917694
194.3217, 8.875488
194.8038, 11.21851
195.2859, 13.01730
195.7681, 14.10342
196.2502, 13.57834
196.7323, 11.10834
197.2144, 8.972870
197.6965, 9.082062
198.1786, 11.49960
198.6608, 14.28766
199.1429, 16.83640
199.6250, 19.49344
200.1071, 24.81094
200.5892, 33.47180
201.0714, 41.75937
201.5535, 45.04294
202.0356, 42.49231
202.5177, 42.41837
202.9998, 48.30423
203.4819, 59.30914
203.9641, 63.23691
204.4462, 57.67227
204.9283, 50.08102
205.4104, 49.81024
205.8925, 58.66974
206.3746, 67.02719
206.8568, 71.95013
207.3389, 73.34317
207.8210, 74.76801
208.3031, 75.50845
208.7852, 77.34842
209.2673, 83.14413
209.7495, 93.75339
210.2316, 105.6911
210.7137, 117.8796
211.1958, 130.2058
211.6779, 142.8413
212.1600, 154.7200
212.6422, 168.0185
213.1243, 186.7079
213.6064, 210.8301
214.0885, 239.7185
214.5706, 273.7841
215.0527, 314.6668
215.5349, 355.2169
216.0170, 393.7213
216.4991, 432.6596
216.9812, 478.9761
217.4633, 536.2125
217.9454, 592.8307
218.4276, 641.8804
218.9097, 677.4893
219.3918, 721.8770
219.8739, 779.8524
220.3560, 845.8682
220.8381, 901.1110
221.3203, 936.9675
221.8024, 975.4519
222.2845, 1031.090
222.7666, 1116.457
223.2487, 1188.714
223.7308, 1242.348
224.2129, 1279.925
224.6951, 1317.346
225.1772, 1371.266
225.6593, 1402.443
226.1414, 1384.479
226.6235, 1306.353
227.1056, 1200.980
227.5878, 1056.564
228.0699, 882.4307
228.5520, 735.9099
229.0341, 622.7045
229.5162, 532.7055
229.9983, 457.8493
230.4805, 399.1904
230.9626, 355.5569
231.4447, 330.8498
231.9268, 324.1584
232.4089, 319.9609
232.8910, 317.9265
233.3732, 318.6356
233.8553, 321.7967
234.3374, 323.6205
234.8195, 334.9720
235.3016, 360.8505
235.7837, 401.7551
236.2659, 437.3009
236.7480, 463.8797
237.2301, 488.5202
237.7122, 518.1987
238.1943, 554.6974
238.6764, 592.0653
239.1586, 630.1485
239.6407, 669.1964
240.1228, 706.7810
240.6049, 740.3729
241.0870, 774.8328
241.5691, 816.1894
242.0513, 867.5868
242.5334, 920.4390
243.0155, 973.3480
243.4976, 1026.578
243.9797, 1079.615
244.4618, 1142.398
244.9440, 1196.335
245.4261, 1218.666
245.9082, 1208.468
246.3903, 1167.499
246.8724, 1091.099
247.3545, 972.9115
247.8367, 853.0775
248.3188, 725.6990
248.8009, 602.5098
249.2830, 500.5517
249.7651, 425.6366
250.2472, 363.6099
250.7294, 311.8458
251.2115, 271.4853
251.6936, 235.6488
252.1757, 204.5676
252.6578, 177.9533
253.1399, 154.2755
253.6220, 133.1220
254.1042, 115.6125
254.5863, 102.6443
255.0684, 94.89212
255.5505, 88.52454
256.0326, 84.41916
256.5147, 81.07953
256.9969, 75.84692
257.4790, 68.18515
257.9611, 59.53641
258.4432, 49.63495
258.9253, 37.21667
259.4074, 28.66577
259.8896, 24.69946
260.3717, 23.99814
260.8538, 24.42215
261.3359, 26.47198
261.8180, 28.60153
262.3001, 31.01010
262.7823, 34.85309
263.2644, 33.50089
263.7465, 23.50928
264.2286, 10.01715
264.7107, 3.891113
265.1928, 7.020233
265.6750, 12.59949
266.1571, 18.91055
266.6392, 26.90979
267.1213, 31.80930
267.6034, 31.91425
268.0855, 29.19986
268.5677, 27.76114
269.0498, 27.68295
269.5319, 29.10397
270.0140, 32.66327
270.4961, 39.00671
270.9782, 41.89661
271.4604, 39.84567
271.9425, 35.83453
272.4246, 34.32172
272.9067, 35.21536
273.3888, 38.94916
273.8709, 47.38922
274.3531, 61.60477
274.8352, 70.41614
275.3173, 72.14288
275.7994, 70.57544
276.2815, 72.32928
276.7636, 77.45871
277.2458, 83.99365
277.7279, 91.22873
278.2100, 99.35016
278.6921, 108.8092
279.1742, 119.8551
279.6563, 131.0633
280.1385, 139.2391
280.6206, 143.7904
281.1027, 150.5380
281.5848, 164.3560
282.0669, 185.0060
282.5490, 198.3694
283.0312, 202.1836
283.5133, 202.8847
283.9954, 211.5652
284.4775, 228.6890
284.9596, 246.1651
285.4417, 259.0665
285.9239, 268.3650
286.4060, 282.4723
286.8881, 301.7721
287.3702, 324.3726
287.8523, 348.9656
288.3344, 375.9457
288.8166, 400.3281
289.2987, 416.9000
289.7808, 428.0713
290.2629, 445.7201
290.7450, 471.2494
291.2271, 498.3947
291.7093, 518.8558
292.1914, 533.0923
292.6735, 545.2568
293.1556, 558.3549
293.6377, 570.8235
294.1198, 577.0494
294.6020, 576.4304
295.0841, 572.3231
295.5662, 567.6543
296.0483, 562.5568
296.5304, 557.6703
297.0125, 555.3445
297.4947, 553.0916
297.9768, 546.4492
298.4589, 535.4444
298.9410, 518.9229
299.4231, 494.6178
299.9052, 463.5238
300.3873, 429.3341
300.8694, 390.5555
301.3516, 350.8260
301.8337, 314.4231
302.3158, 281.2371
302.7979, 252.2599
303.2800, 229.2039
303.7621, 210.8029
304.2443, 193.7251
304.7264, 177.7468
305.2085, 162.2133
305.6906, 145.4984
306.1727, 127.7491
306.6548, 111.9193
307.1370, 101.5715
307.6191, 94.55646
308.1012, 87.70810
308.5833, 80.96274
309.0654, 73.18854
309.5475, 61.79022
310.0297, 47.16476
310.5118, 35.62662
310.9939, 33.38660
311.4760, 35.90338
311.9581, 37.86313
312.4402, 36.08630
312.9224, 34.27692
313.4045, 35.53613
313.8866, 39.38919
314.3687, 41.48895
314.8508, 38.39066
315.3329, 33.12027
315.8151, 28.42169
316.2972, 25.41089
316.7793, 22.73447
317.2614, 19.44305
317.7435, 15.80515
318.2256, 13.29318
318.7078, 14.97681
319.1899, 16.52563
319.6720, 14.75327
320.1541, 2.958679
320.6362, 5.253906
321.1183, 3.517853
321.6005, 5.563446
322.0826, 12.00409
322.5647, 12.93478
323.0468, 10.95572
323.5289, 7.199280
324.0110, 2.447174
324.4932, 8.073700
324.9753, 4.678772
325.4574, 4.240051
325.9395, 8.634308
326.4216, 2.626526
326.9037, 4.074097
327.3859, 7.757263
327.8680, 8.524139
328.3501, 5.783264
328.8322, 4.849854
329.3143, 18.53284
329.7964, 24.93649
330.2786, 18.93860
330.7607, 11.27856
331.2428, 5.353943
331.7249, 1.796936
332.2070, 1.688385
332.6891, 5.740265
333.1713, 9.405487
333.6534, 10.87912
334.1355, 8.594421
334.6176, 6.928070
335.0997, 7.803040
335.5818, 12.01871
336.0640, 13.28781
336.5461, 10.69186
337.0282, 6.163666
337.5103, 1.930420
337.9924, 1.929199
338.4745, 5.635986
338.9567, 9.571503
339.4388, 13.64484
339.9209, 15.89581
340.4030, 16.16592
340.8851, 14.94135
341.3672, 12.34561
341.8494, 8.202942
342.3315, 4.369049
342.8136, 0.9555970
343.2957, 1.751648
343.7778, 1.869781
344.2599, 1.093079
344.7421, 3.586151
345.2242, 0.2955630
345.7063, 7.741241
346.1884, 9.992950
346.6705, 1.822723
347.1526, 10.89133
347.6348, 14.12650
348.1169, 8.162842
348.5990, 1.622498
349.0811, 2.040558
349.5632, 7.029785
350.0453, 9.727539
350.5275, 7.849854
351.0096, 5.427216
351.4917, 9.220184
351.9738, 17.88693
352.4559, 25.00339
352.9380, 25.75375
353.4202, 22.75803
353.9023, 19.10703
354.3844, 14.68314
354.8665, 11.67163
355.3486, 12.10571
355.8307, 15.44321
356.3129, 20.51764
356.7950, 31.67139
357.2771, 41.23047
357.7592, 40.24966
358.2413, 26.48013
358.7234, 14.85861
359.2056, 16.66202
359.6877, 25.51007
360.1698, 32.47256
360.6519, 33.02402
361.1340, 31.82602
361.6161, 30.46002
362.0982, 28.99554
362.5804, 28.91568
363.0625, 31.20938
363.5446, 34.90817
364.0267, 39.13565
364.5088, 45.01514
364.9909, 50.03976
365.4731, 51.41486
365.9552, 43.74258
366.4373, 53.37460
366.9194, 59.33521
367.4015, 61.82159
367.8836, 50.43207
368.3658, 56.95761
368.8479, 56.30139
369.3300, 55.34952
369.8121, 64.39227
370.2942, 55.01410
370.7763, 63.89575
371.2585, 65.48682
371.7406, 70.41241
372.2227, 68.11246
372.7048, 72.44989
373.1869, 75.67316
373.6690, 76.99774
374.1512, 78.74356
374.6333, 80.96677
375.1154, 83.48007
375.5975, 86.26807
376.0796, 89.36099
376.5617, 92.75107
377.0439, 96.80591
377.5260, 100.4863
378.0081, 101.7178
378.4902, 99.78387
378.9723, 99.40616
379.4544, 102.5199
379.9366, 108.1630
380.4187, 112.3525
380.9008, 114.7368
381.3829, 117.9292
381.8650, 125.8842
382.3471, 137.3278
382.8293, 144.7756
383.3114, 144.1173
383.7935, 141.0853
384.2756, 147.5271
384.7577, 162.6285
385.2398, 179.3555
385.7220, 194.6861
386.2041, 208.5467
386.6862, 219.9913
387.1683, 227.2045
387.6504, 235.0102
388.1325, 250.7928
388.6147, 271.7469
389.0968, 289.2324
389.5789, 296.3552
390.0610, 299.4753
390.5431, 302.4380
391.0252, 304.8369
391.5074, 313.2119
391.9895, 334.9388
392.4716, 364.6267
392.9537, 394.1540
393.4358, 418.3778
393.9179, 443.8655
394.4001, 474.3014
394.8822, 509.8233
395.3643, 547.0188
395.8464, 584.6461
396.3285, 623.5425
396.8106, 664.0316
397.2928, 703.1810
397.7749, 748.2684
398.2570, 802.0820
398.7391, 862.4168
399.2212, 921.5275
399.7033, 977.2562
400.1855, 1034.324
400.6676, 1094.977
401.1497, 1159.061
401.6318, 1225.587
402.1139, 1294.297
402.5960, 1365.707
403.0782, 1441.654
403.5603, 1524.129
404.0424, 1606.162
404.5245, 1687.016
405.0066, 1766.066
405.4887, 1840.586
405.9709, 1908.360
406.4530, 1971.400
406.9351, 2034.006
407.4172, 2097.676
407.8993, 2152.489
408.3814, 2196.678
408.8636, 2230.881
409.3457, 2259.076
409.8278, 2283.280
410.3099, 2294.998
410.7920, 2289.784
411.2741, 2267.951
411.7563, 2231.336
412.2384, 2181.192
412.7205, 2113.888
413.2026, 2016.484
413.6847, 1892.588
414.1668, 1764.478
414.6490, 1639.923
415.1311, 1519.977
415.6132, 1403.304
416.0953, 1288.173
416.5774, 1180.395
417.0595, 1081.886
417.5417, 992.0826
418.0238, 907.9315
418.5059, 828.5305
418.9880, 755.1542
419.4701, 689.3763
419.9522, 630.6952
420.4344, 579.4292
420.9165, 537.9209
421.3986, 502.7479
421.8807, 470.7574
422.3628, 443.0561
422.8449, 416.9425
423.3270, 392.3290
423.8091, 369.2331
424.2913, 347.0547
424.7734, 328.2943
425.2555, 308.6777
425.7376, 285.8147
426.2197, 254.5439
426.7018, 232.4742
427.1840, 224.3740
427.6661, 222.6152
428.1482, 214.9235
428.6303, 198.1541
429.1124, 181.9237
429.5945, 168.5405
430.0767, 158.0154
430.5588, 149.6316
431.0409, 144.1291
431.5230, 139.0294
432.0051, 131.2551
432.4872, 120.6719
432.9694, 112.5137
433.4515, 108.1768
433.9336, 106.1804
434.4157, 102.8712
434.8978, 98.32901
435.3799, 94.57422
435.8621, 94.45941
436.3442, 96.03168
436.8263, 94.16248
437.3084, 87.94992
437.7905, 80.16049
438.2726, 72.75568
438.7548, 65.93561
439.2369, 60.16248
439.7190, 55.72693
440.2011, 52.35425
440.6832, 49.65680
441.1653, 47.63870
441.6475, 47.09518
442.1296, 49.98410
442.6117, 53.83160
443.0938, 56.39508
443.5759, 57.50076
444.0580, 56.74545
444.5402, 51.42520
445.0223, 43.71448
445.5044, 40.44739
445.9865, 50.58606
446.4686, 59.11154
446.9507, 59.17575
447.4329, 46.37161
447.9150, 34.96405
448.3971, 22.82895
448.8792, 13.25302
449.3613, 10.75305
449.8434, 19.88333
450.3256, 27.55466
450.8077, 30.86484
451.2898, 30.06348
451.7719, 27.43677
452.2540, 21.80750
452.7361, 17.30258
453.2183, 19.74960
453.7004, 29.71625
454.1825, 29.29581
454.6646, 12.91818
455.1467, 9.147888
455.6288, 15.98907
456.1110, 8.613983
456.5931, 0.2478030
457.0752, 3.565643
457.5573, 3.443024
458.0394, 4.668213
458.5215, 7.566406
459.0037, 9.802734
459.4858, 7.863495
459.9679, 3.954895
460.4500, 2.222504
460.9321, 7.073181
461.4142, 11.46802
461.8964, 9.870880
462.3785, 3.149200
462.8606, 13.60550
463.3427, 0.9119570
463.8248, 6.393219
464.3069, 8.601624
464.7891, 9.549957
465.2712, 1.419312
465.7533, 3.827637
466.2354, 6.672577
466.7175, 5.144440
467.1996, 10.06723
467.6818, 1.519623
468.1639, 2.396454
468.6460, 8.167175
469.1281, 3.335968
469.6102, 1.777496
470.0923, 10.82138
470.5745, 0.4837340
471.0566, 10.20929
471.5387, 15.34250
472.0208, 11.13376
472.5029, 2.338715
472.9850, 0.7921750
473.4672, 7.350128
473.9493, 13.53857
474.4314, 13.42853
474.9135, 8.841095
475.3956, 11.33850
475.8777, 21.89709
476.3599, 32.86588
476.8420, 35.55844
477.3241, 32.44360
477.8062, 29.77048
478.2883, 27.77628
478.7704, 27.66647
479.2526, 33.20761
479.7347, 43.22375
480.2168, 51.50980
480.6989, 49.46472
481.1810, 46.54938
481.6631, 52.42325
482.1453, 72.43024
482.6274, 88.18408
483.1095, 87.19876
483.5916, 78.91162
484.0737, 75.47806
484.5558, 86.08563
485.0379, 94.99280
485.5201, 96.11127
486.0022, 89.90680
486.4843, 90.52313
486.9664, 102.0545
487.4485, 116.9005
487.9306, 131.6025
488.4128, 147.2222
488.8949, 157.9021
489.3770, 162.2856
489.8591, 163.9946
490.3412, 169.5913
490.8233, 179.8293
491.3055, 189.5331
491.7876, 196.3132
492.2697, 200.9444
492.7518, 207.8441
493.2339, 217.1202
493.7160, 228.6270
494.1982, 244.3035
494.6803, 261.6413
495.1624, 273.2774
495.6445, 276.3324
496.1266, 277.6050
496.6087, 285.3102
497.0909, 297.2635
497.5730, 308.0143
498.0551, 315.0723
498.5372, 319.6158
499.0193, 322.4924
499.5014, 323.7776
499.9836, 322.7274
500.4657, 316.4627
500.9478, 309.4351
501.4299, 305.3137
501.9120, 311.6513
502.3941, 313.1959
502.8763, 303.1655
503.3584, 286.4883
503.8405, 277.8619
504.3226, 285.2521
504.8047, 290.1924
505.2868, 286.0604
505.7690, 271.8920
506.2511, 256.4280
506.7332, 238.2360
507.2153, 221.5077
507.6974, 212.4214
508.1795, 211.7025
508.6617, 206.1901
509.1438, 192.1216
509.6259, 173.5875
510.1080, 159.1323
510.5901, 148.4940
511.0722, 138.6693
511.5544, 125.2581
512.0365, 112.3984
512.5186, 110.0593
513.0007, 118.8812
513.4828, 124.9397
513.9650, 114.7984
514.4471, 96.80524
514.9292, 81.44519
515.4113, 72.71350
515.8934, 66.67776
516.3755, 60.91306
516.8576, 56.20743
517.3397, 54.91812
517.8218, 61.80365
518.3040, 68.68716
518.7861, 72.43713
519.2682, 72.57648
519.7503, 69.98602
520.2324, 63.18085
520.7145, 53.79132
521.1967, 45.81738
521.6788, 38.10361
522.1609, 32.59232
522.6430, 29.87207
523.1251, 29.60846
523.6072, 25.08295
524.0894, 15.49310
524.5715, 8.279144
525.0536, 6.852448
525.5357, 11.35364
526.0178, 14.70593
526.4999, 16.81085
526.9821, 17.77759
527.4642, 17.60153
527.9463, 16.57288
528.4284, 14.58707
528.9105, 10.88354
529.3926, 8.126068
529.8748, 10.20551
530.3569, 15.41092
530.8390, 18.94897
531.3211, 17.91592
531.8032, 15.37036
532.2853, 13.11655
532.7675, 11.51331
533.2496, 8.917328
533.7317, 4.455536
534.2138, 0.8359070
534.6959, 6.305298
535.1780, 15.35455
535.6602, 19.01367
536.1423, 13.79407
536.6244, 3.645386
537.1065, 8.6577997E-02
537.5886, 5.867126
538.0707, 10.16180
538.5529, 6.875610
539.0350, 3.087494
539.5171, 5.361145
539.9992, 1.119354
540.4813, 8.697906
540.9634, 10.04477
541.4456, 6.434296
541.9277, 1.484894
542.4098, 5.252838
542.8919, 10.27020
543.3740, 7.758148
543.8561, 9.7046003E-02
544.3383, 6.791504
544.8204, 11.84717
545.3025, 13.76425
545.7846, 10.14221
546.2667, 1.048401
546.7488, 6.983765
547.2310, 13.50586
547.7131, 16.86377
548.1952, 15.73138
548.6773, 4.065674
549.1594, 3.219055
549.6415, 3.188751
550.1237, 0.3478390
550.6058, 0.7452390
551.0879, 4.446259
551.5700, 6.923767
552.0521, 3.525146
552.5342, 4.568787
553.0164, 9.388611
553.4985, 10.48114
553.9806, 11.06909
554.4627, 13.65851
554.9448, 17.79745
555.4269, 22.48328
555.9091, 28.44040
556.3912, 30.86255
556.8733, 20.32874
557.3554, 2.625641
557.8375, 10.38824
558.3196, 11.76282
558.8018, 9.166901
559.2839, 7.431183
559.7660, 6.151886
560.2481, 3.675507
560.7302, 1.912201
561.2123, 7.819275
561.6945, 12.73621
562.1766, 16.41827
562.6587, 19.32300
563.1408, 21.90649
563.6229, 23.39532
564.1050, 23.14001
564.5872, 20.99579
565.0693, 17.03418
565.5514, 9.869324
566.0335, 1.827637
566.5156, 0.3297120
566.9977, 3.907410
567.4799, 8.424194
567.9620, 9.509399
568.4441, 8.703857
568.9262, 12.19312
569.4083, 20.03168
569.8904, 27.13428
570.3726, 27.62274
570.8547, 25.24774
571.3368, 26.12488
571.8189, 32.56396
572.3010, 39.17896
572.7831, 41.71436
573.2653, 42.25989
573.7474, 44.05035
574.2295, 53.19806
574.7116, 58.58698
575.1937, 53.89362
575.6758, 40.30511
576.1580, 32.27411
576.6401, 32.12360
577.1222, 35.27173
577.6043, 40.02777
578.0864, 46.84418
578.5685, 54.23108
579.0507, 63.40808
579.5328, 70.77698
580.0149, 69.92334
580.4970, 61.20465
580.9791, 58.13330
581.4612, 65.65057
581.9434, 76.90100
582.4255, 78.94989
582.9076, 73.81427
583.3897, 69.71918
583.8718, 70.40222
584.3539, 74.61255
584.8361, 83.40955
585.3182, 96.48224
585.8003, 105.9561
586.2824, 102.5858
586.7645, 97.29572
587.2466, 98.40485
587.7288, 110.8999
588.2109, 123.1417
588.6930, 133.4573
589.1751, 142.9774
589.6572, 153.5224
590.1393, 167.4039
590.6215, 177.3115
591.1036, 180.2073
591.5857, 178.4690
592.0678, 182.3703
592.5499, 192.5383
593.0320, 202.7361
593.5142, 208.2682
593.9963, 211.7307
594.4784, 221.8800
594.9605, 238.8895
595.4426, 256.9902
595.9247, 271.5657
596.4069, 284.9088
596.8890, 300.3801
597.3711, 319.5729
597.8532, 337.8448
598.3353, 353.3173
598.8174, 366.4252
599.2996, 377.6395
599.7817, 379.3157
600.2638, 386.8165
600.7459, 408.0039
601.2280, 441.6985
601.7101, 468.6062
602.1923, 484.4731
602.6744, 499.1527
603.1565, 517.5938
603.6386, 540.8633
604.1207, 564.7731
604.6028, 589.6757
605.0850, 612.8591
605.5671, 629.2296
606.0492, 640.3093
606.5313, 653.8209
607.0134, 670.9869
607.4955, 692.1571
607.9777, 724.8587
608.4598, 762.3586
608.9419, 788.2286
609.4240, 783.2253
609.9061, 773.6362
610.3882, 778.2722
610.8704, 795.8870
611.3525, 805.4888
611.8346, 798.9294
612.3167, 784.7231
612.7988, 767.0845
613.2809, 745.5095
613.7631, 721.7360
614.2452, 693.4897
614.7273, 665.5129
615.2094, 646.3065
615.6915, 638.3550
616.1736, 616.8395
616.6558, 573.5555
617.1379, 521.2733
617.6200, 485.1597
618.1021, 463.4666
618.5842, 444.6528
619.0663, 424.1158
619.5485, 402.6787
620.0306, 380.9554
620.5127, 359.0287
620.9948, 336.8216
621.4769, 311.3622
621.9590, 287.8906
622.4412, 270.2338
622.9233, 259.1989
623.4054, 252.2242
623.8875, 255.6350
624.3696, 259.0365
624.8517, 251.9702
625.3339, 226.1000
625.8160, 208.1306
626.2981, 203.5370
626.7802, 205.5958
627.2623, 199.0151
627.7444, 183.1313
628.2266, 167.6904
628.7087, 154.6212
629.1908, 145.3441
629.6729, 146.0740
630.1550, 155.6801
630.6371, 164.4943
631.1193, 165.8780
631.6014, 163.0492
632.0835, 158.9265
632.5656, 153.7335
633.0477, 147.9924
633.5298, 139.2921
634.0120, 131.5059
634.4941, 128.0688
634.9762, 133.8519
635.4583, 138.2939
635.9404, 140.9328
636.4225, 142.0850
636.9047, 141.9872
637.3868, 139.9699
637.8689, 138.8596
638.3510, 139.4592
638.8331, 141.4089
639.3152, 144.1835
639.7973, 147.7166
640.2794, 150.0743
640.7615, 149.9269
641.2437, 147.9048
641.7258, 144.1125
642.2079, 138.6865
642.6900, 134.6782
643.1721, 133.9530
643.6542, 135.6976
644.1364, 139.5406
644.6185, 146.5344
645.1006, 152.7894
645.5827, 156.4524
646.0648, 159.2725
646.5469, 163.2327
647.0291, 168.2703
647.5112, 174.7404
647.9933, 183.3452
648.4754, 193.0189
648.9575, 200.6671
649.4396, 206.3096
649.9218, 210.6923
650.4039, 214.4869
650.8860, 217.1307
651.3681, 217.0181
651.8502, 210.1159
652.3323, 217.6987
652.8145, 222.7907
653.2966, 225.5244
653.7787, 218.8395
654.2608, 224.3171
654.7429, 224.9205
655.2250, 225.3238
655.7072, 232.5137
656.1893, 227.1985
656.6714, 234.2803
657.1535, 236.4135
657.6356, 240.8116
658.1177, 252.4427
658.5999, 256.8254
659.0820, 247.2916
659.5641, 238.5880
660.0462, 234.6504
660.5283, 233.8881
661.0104, 234.9149
661.4926, 237.4074
661.9747, 237.7234
662.4568, 231.3832
662.9389, 222.4667
663.4210, 215.4887
663.9031, 211.1483
664.3853, 207.4694
664.8674, 204.5243
665.3495, 202.1531
665.8316, 199.8854
666.3137, 198.6688
666.7958, 196.9518
667.2780, 199.8343
667.7601, 199.3075
668.2422, 195.8560
668.7243, 180.2256
669.2064, 180.1364
669.6885, 173.9368
670.1707, 167.2618
670.6528, 169.5648
671.1349, 156.0955
671.6170, 158.5588
672.0991, 142.3123
672.5812, 132.0206
673.0634, 121.2964
673.5455, 111.0472
674.0276, 104.0358
674.5097, 105.3955
674.9918, 107.3192
675.4739, 103.7547
675.9561, 94.85211
676.4382, 90.68195
676.9203, 97.13397
677.4024, 104.2088
677.8845, 108.2385
678.3666, 109.4976
678.8488, 104.8117
679.3309, 91.93683
679.8130, 79.20056
680.2951, 73.58429
680.7772, 74.20209
681.2593, 77.01227
681.7415, 82.32233
682.2236, 86.25232
682.7057, 83.32898
683.1878, 76.43213
683.6699, 70.38849
684.1520, 67.50244
684.6342, 64.85260
685.1163, 60.23126
685.5984, 55.08429
686.0805, 52.46167
686.5626, 54.99628
687.0447, 58.23260
687.5269, 62.14191
688.0090, 66.20923
688.4911, 66.24561
688.9732, 61.48700
689.4553, 57.35675
689.9374, 57.82104
690.4196, 61.22437
690.9017, 61.97894
691.3838, 60.10455
691.8659, 57.19116
692.3480, 52.12885
692.8301, 46.96710
693.3123, 43.22809
693.7944, 35.71564
694.2765, 40.88177
694.7586, 43.05652
695.2407, 42.82269
695.7228, 32.95416
696.2050, 35.51324
696.6871, 33.11389
697.1692, 30.46051
697.6513, 34.72278
698.1334, 26.25250
698.6155, 30.40149
699.0977, 29.66101
699.5798, 31.14691
700.0619, 27.59381
700.5440, 25.54108
701.0261, 28.48926
701.5082, 28.66522
701.9904, 24.54150
702.4725, 26.20428
702.9546, 17.56726
703.4367, 17.87769
703.9188, 22.04797
704.4009, 18.89597
704.8831, 19.32452
705.3652, 18.35565
705.8473, 15.81226
706.3294, 14.25787
706.8115, 14.57358
707.2936, 14.75162
707.7758, 13.24216
708.2579, 10.26022
708.7400, 7.801514
709.2221, 3.813629
709.7042, 5.918060
710.1863, 10.95834
710.6685, 11.55225
711.1506, 5.702423
711.6327, 6.4850003E-02
712.1148, 3.398804
712.5969, 7.230072
713.0790, 1.773163
713.5612, 12.93036
714.0433, 4.175415
714.5254, 4.754211
715.0075, 0.7120670
715.4896, 6.106903
715.9717, 8.887482
716.4539, 2.392670
716.9360, 1.047638
717.4181, 7.792511
717.9002, 7.939545
718.3823, 8.054321
718.8644, 10.80075
719.3466, 13.83792
719.8287, 7.462555
720.3108, 3.632843
720.7929, 2.228058
721.2750, 10.44177
721.7571, 6.256866
722.2393, 7.049744
722.7214, 8.071136
723.2035, 2.195404
723.6856, 9.078461
724.1677, 3.329651
724.6498, 2.634949
725.1320, 0.3622740
725.6141, 1.647614
726.0962, 2.119568
726.5783, 2.404297
727.0604, 1.546448
727.5425, 3.103180
728.0247, 0.7112430
728.5068, 7.713409
728.9889, 5.301941
729.4710, 12.66162
729.9531, 28.11481
730.4352, 27.14069
730.9174, 17.71988
731.3995, 9.478821
731.8816, 2.895111
732.3637, 0.1048280
732.8458, 3.238251
733.3279, 9.120117
733.8101, 11.90891
734.2922, 10.75137
734.7743, 10.78421
735.2564, 14.36951
735.7385, 18.49985
736.2206, 14.29645
736.7028, 3.513489
737.1849, 4.206268
737.6670, 1.433472
738.1491, 4.384552
738.6312, 7.148102
739.1133, 7.174622
739.5955, 5.804352
740.0776, 1.108490
740.5597, 2.590240
741.0418, 2.364227
741.5239, 1.566101
742.0060, 1.647522
742.4882, 5.045380
742.9703, 9.229401
743.4524, 3.616699
743.9345, 10.42935
744.4166, 18.85791
744.8987, 21.59274
745.3809, 19.82214
745.8630, 8.711487
746.3451, 3.669769
746.8272, 4.438995
747.3093, 3.182281
747.7914, 12.00140
748.2736, 20.57404
748.7557, 22.89044
749.2378, 0.2279970
749.7199, 9.806732
750.2020, 6.456116
750.6841, 2.569977
751.1663, 16.66983
751.6484, 2.390656
752.1305, 11.40973
752.6126, 12.08386
753.0947, 18.75806
753.5768, 12.42355
754.0590, 10.10049
754.5411, 20.77985
755.0232, 24.25189
755.5053, 16.40057
755.9874, 23.42661
756.4695, 3.857544
756.9517, 7.615692
757.4338, 11.32156
757.9159, 22.62906
758.3980, 27.82721
758.8801, 21.63638
759.3622, 9.333496
759.8444, 5.184814
760.3265, 10.03662
760.8086, 15.13440
761.2907, 17.48163
761.7728, 18.09680
762.2549, 19.69672
762.7370, 21.52094
763.2191, 20.50262
763.7012, 9.792847
764.1833, 0.2243650
764.6655, 1.7761000E-02
765.1476, 8.065247
765.6297, 15.26837
766.1118, 22.23505
766.5939, 25.48401
767.0760, 22.24927
767.5582, 13.25867
768.0403, 8.834045
768.5224, 9.600525
769.0045, 10.92633
769.4866, 9.908569
769.9688, 7.549072
770.4509, 8.367065
770.9330, 12.84583
771.4151, 14.52704
771.8972, 5.821045
772.3793, 2.804199
772.8615, 0.5658570
773.3436, 15.67529
773.8257, 27.22644
774.3078, 30.39685
774.7899, 29.98468
775.2720, 28.30878
775.7542, 26.01569
776.2363, 20.92639
776.7184, 11.99445
777.2005, 3.684204
777.6826, 2.110291
778.1647, 4.996277
778.6469, 6.279724
779.1290, 4.052551
779.6111, 3.117249
780.0932, 6.200500
780.5753, 11.71704
781.0574, 18.75861
781.5396, 29.45020
782.0217, 35.53418
782.5038, 32.59906
782.9859, 27.57349
783.4680, 28.21112
783.9501, 36.05298
784.4323, 39.91022
784.9144, 37.38922
785.3965, 32.17041
785.8786, 27.00873
786.3607, 22.11133
786.8428, 18.94849
787.3250, 17.34662
787.8071, 19.18689
788.2892, 29.33990
788.7713, 42.94470
789.2534, 52.91400
789.7355, 53.74249
790.2177, 55.84070
790.6998, 62.15906
791.1819, 69.33307
791.6640, 70.68561
792.1461, 65.53918
792.6282, 61.23346
793.1104, 58.95660
793.5925, 59.57269
794.0746, 67.51099
794.5567, 79.45227
795.0388, 86.84753
795.5209, 80.34161
796.0031, 75.36285
796.4852, 82.29572
796.9673, 96.37610
797.4494, 104.7496
797.9315, 103.1184
798.4136, 99.53693
798.8958, 94.78467
799.3779, 90.12268
799.8600, 88.83905
800.3421, 90.51941
800.8242, 93.13171
801.3063, 96.19714
801.7885, 100.5997
802.2706, 108.3062
802.7527, 117.9275
803.2348, 125.2568
803.7169, 126.8098
804.1990, 126.4318
804.6812, 126.5176
805.1633, 126.9882
805.6454, 126.3338
806.1275, 121.7894
806.6096, 120.3605
807.0917, 124.8189
807.5739, 134.2532
808.0560, 142.7484
808.5381, 150.2139
809.0202, 156.5260
809.5023, 161.6254
809.9844, 165.1281
810.4666, 163.9395
810.9487, 159.0146
811.4308, 155.0098
811.9129, 151.5677
812.3950, 151.7458
812.8771, 158.8412
813.3593, 171.7281
813.8414, 179.0956
814.3235, 179.7910
814.8056, 178.3800
815.2877, 175.2728
815.7698, 171.9656
816.2520, 175.6702
816.7341, 185.3102
817.2162, 192.0428
817.6983, 186.3821
818.1804, 178.5699
818.6625, 177.0508
819.1447, 181.7397
819.6268, 185.6611
820.1089, 190.0391
820.5910, 190.1371
821.0731, 181.5474
821.5552, 165.4195
822.0374, 160.0872
822.5195, 166.8543
823.0016, 176.3049
823.4837, 183.9489
823.9658, 189.3530
824.4479, 191.6123
824.9301, 190.7477
825.4122, 186.9937
825.8943, 175.5016
826.3764, 165.4758
826.8585, 163.4188
827.3406, 170.2429
827.8228, 174.4009
828.3049, 175.4121
828.7870, 174.4672
829.2691, 171.2572
829.7512, 166.2665
830.2333, 164.4980
830.7155, 166.3079
831.1976, 166.5109
831.6797, 151.4072
832.1618, 159.9200
832.6439, 164.0168
833.1260, 163.9122
833.6082, 145.4092
834.0903, 149.9448
834.5724, 145.2458
835.0545, 140.1423
835.5366, 147.8898
836.0187, 131.9709
836.5009, 139.5387
836.9830, 137.7329
837.4651, 140.2179
837.9472, 133.4332
838.4293, 132.6310
838.9114, 134.1638
839.3936, 134.3063
839.8757, 132.0350
840.3578, 128.0127
840.8399, 122.9468
841.3220, 116.8608
841.8041, 107.4332
842.2863, 89.45312
842.7684, 76.39404
843.2505, 76.60779
843.7326, 87.94812
844.2147, 94.01270
844.6968, 94.74646
845.1790, 90.59625
845.6611, 78.44165
846.1432, 63.65314
846.6253, 50.51233
847.1074, 39.83746
847.5895, 35.74445
848.0717, 46.92548
848.5538, 58.05389
849.0359, 62.84845
849.5180, 61.82965
850.0001, 59.92969
850.4822, 56.91431
850.9644, 54.16272
851.4465, 53.08698
851.9286, 52.44745
852.4107, 47.28186
852.8928, 38.93048
853.3749, 34.09058
853.8571, 43.60577
854.3392, 51.40625
854.8213, 44.18860
855.3034, 24.84125
855.7855, 18.82721
856.2676, 36.61243
856.7498, 49.67096
857.2319, 47.94330
857.7140, 34.99176
858.1961, 23.47272
858.6782, 12.84479
859.1603, 9.224854
859.6425, 22.72095
860.1246, 38.68457
860.6067, 39.76483
861.0888, 30.29968
861.5709, 23.65552
862.0530, 27.38983
862.5352, 30.74738
863.0173, 30.87659
863.4994, 28.54877
863.9815, 26.83441
864.4636, 26.07495
864.9457, 22.80273
865.4279, 14.22485
865.9100, 4.957092
866.3921, 1.623596
866.8742, 3.731812
867.3563, 9.473389
867.8384, 25.01410
868.3206, 36.44531
868.8027, 35.13403
869.2848, 25.95471
869.7669, 20.53284
870.2490, 20.86249
870.7311, 19.91943
871.2133, 15.88776
871.6954, 10.99719
872.1775, 9.540527
872.6596, 10.76245
873.1417, 12.90082
873.6238, 15.84088
874.1060, 18.62488
874.5881, 21.55145
875.0702, 23.48792
875.5523, 22.91931
876.0344, 13.74194
876.5165, 10.00366
876.9987, 14.44250
877.4808, 22.18610
877.9629, 27.03271
878.4450, 29.01508
878.9271, 27.20966
879.4092, 20.47394
879.8914, 14.46832
880.3735, 16.79749
880.8556, 22.63440
881.3377, 25.69751
881.8198, 23.87170
882.3019, 20.78851
882.7841, 13.35065
883.2662, 8.140930
883.7483, 13.04834
884.2304, 30.91724
884.7125, 33.86523
885.1946, 18.22693
885.6768, 2.511230
886.1588, 8.949158
886.6409, 26.20618
887.1230, 36.96259
887.6052, 38.74750
888.0873, 36.68195
888.5694, 32.63513
889.0515, 25.58527
889.5336, 12.26532
890.0157, 9.807068
890.4979, 14.93842
890.9800, 0.7689820
891.4621, 18.15997
891.9442, 22.21967
892.4263, 17.86334
892.9084, 17.77570
893.3906, 21.82916
893.8727, 24.55756
894.3548, 22.93933
894.8369, 18.91754
895.3190, 10.70178
895.8011, 1.099243
896.2833, 1.169006
896.7654, 16.72150
897.2475, 31.18591
897.7296, 32.66144
898.2117, 24.30811
898.6938, 12.00598
899.1760, 2.703796
899.6581, 10.87280
900.1402, 2.040405
900.6223, 9.652588
901.1044, 15.51489
901.5865, 16.55554
902.0687, 15.85413
902.5508, 12.82385
903.0329, 9.579407
903.5150, 5.605896
903.9971, 2.531433
904.4792, 8.027466
904.9614, 20.21777
905.4435, 25.85321
905.9256, 17.55902
906.4077, 7.502991
906.8898, 6.315430
907.3719, 10.29938
907.8541, 13.82330
908.3362, 16.42151
908.8183, 17.17212
909.3004, 15.67749
909.7825, 12.75885
910.2646, 8.736084
910.7468, 3.807251
911.2289, 10.85529
911.7110, 4.466797
912.1931, 13.62665
912.6752, 16.10138
913.1573, 6.563354
913.6395, 3.012329
914.1216, 0.3231810
914.6037, 4.188416
915.0858, 9.928528
915.5679, 9.109741
916.0500, 4.921082
916.5322, 6.243652
917.0143, 13.41052
917.4964, 7.143311
917.9785, 4.864197
918.4606, 15.58643
918.9427, 19.10327
919.4249, 11.29877
919.9070, 18.37732
920.3891, 1.090637
920.8712, 3.355896
921.3533, 18.12433
921.8354, 11.44830
922.3176, 18.84076
922.7997, 20.65948
923.2818, 2.573181
923.7639, 17.73737
924.2460, 19.23248
924.7281, 1.392090
925.2103, 20.21008
925.6924, 5.010925
926.1745, 2.185364
926.6566, 9.328186
927.1387, 6.834961
927.6208, 18.48212
928.1030, 15.58813
928.5851, 12.15869
929.0672, 15.03461
929.5493, 1.437317
930.0314, 16.56458
930.5135, 11.41223
930.9957, 16.32611
931.4778, 23.52100
931.9599, 13.42450
932.4420, 22.33929
932.9241, 1.912109
933.4063, 5.441345
933.8884, 6.384277
934.3705, 23.29150
934.8526, 4.256165
935.3347, 7.575928
935.8168, 20.30566
936.2990, 18.01636
936.7811, 22.81415
937.2632, 27.76691
937.7453, 26.78241
938.2274, 19.42999
938.7095, 14.19800
939.1917, 14.31653
939.6738, 16.80750
940.1559, 21.09113
940.6380, 26.84589
941.1201, 32.05157
941.6022, 36.76208
942.0844, 38.33331
942.5665, 31.89600
943.0486, 24.46564
943.5307, 26.65082
944.0128, 35.11414
944.4949, 40.67535
944.9771, 37.42822
945.4592, 34.51544
945.9413, 33.84412
946.4234, 34.52667
946.9055, 35.19952
947.3876, 35.88269
947.8698, 35.28442
948.3519, 32.94067
948.8340, 18.50769
949.3161, 33.29272
949.7982, 41.24182
950.2803, 42.72015
950.7625, 19.22253
951.2446, 27.97180
951.7267, 23.90564
952.2088, 19.43121
952.6909, 32.86853
953.1730, 13.08795
953.6552, 26.10681
954.1373, 25.96375
954.6194, 31.83673
955.1015, 24.70416
955.5836, 21.58588
956.0657, 31.47339
956.5479, 34.15643
957.0300, 25.46387
957.5121, 31.29706
957.9942, 10.90912
958.4763, 13.89075
958.9584, 26.93768
959.4406, 18.94379
959.9227, 25.41418
960.4048, 26.37299
960.8869, 2.291199
961.3690, 16.17303
961.8511, 16.34521
962.3333, 14.76501
962.8154, 14.26276
963.2975, 17.32373
963.7796, 17.78516
964.2617, 14.38275
964.7438, 9.689209
965.2260, 6.750977
965.7081, 5.449707
966.1902, 5.426514
966.6723, 6.623840
967.1544, 9.217163
967.6365, 17.91907
968.1187, 24.85004
968.6008, 20.86597
969.0829, 2.033020
969.5650, 5.343872
970.0471, 1.740356
970.5292, 9.914917
971.0114, 10.97736
971.4935, 7.862366
971.9756, 7.719421
972.4577, 9.546875
972.9398, 9.464783
973.4219, 0.1749270
973.9041, 6.523682
974.3862, 4.016296
974.8683, 4.288513
975.3504, 9.366699
975.8325, 10.70557
976.3146, 11.29523
976.7968, 12.11896
977.2789, 11.40405
977.7610, 3.550903
978.2431, 7.020081
978.7252, 11.14594
979.2073, 4.757019
979.6895, 2.046997
980.1716, 7.089783
980.6537, 9.939758
981.1358, 9.407288
981.6179, 5.287720
982.1000, 4.925110
982.5822, 8.813232
983.0643, 10.18439
983.5464, 1.515503
984.0285, 14.97668
984.5106, 13.28101
984.9927, 0.9631350
985.4749, 7.863525
985.9570, 10.48407
986.4391, 21.18555
986.9212, 13.47418
987.4033, 4.623474
987.8854, 13.81403
988.3676, 14.49921
988.8497, 10.12958
989.3318, 1.571228
989.8139, 10.10120
990.2960, 0.9720460
990.7781, 17.50739
991.2603, 20.17963
991.7424, 9.367676
992.2245, 20.29871
992.7066, 7.067139
993.1887, 12.94397
993.6708, 28.10596
994.1530, 37.16455
994.6351, 32.33679
995.1172, 14.42365
995.5993, 0.3460080
996.0814, 8.2886003E-02
996.5635, 4.620544
997.0457, 8.026245
997.5278, 10.11340
998.0099, 10.84406
998.4920, 9.879028
998.9741, 9.062378
999.4562, 8.642395
999.9384, 9.247925
1000.420, 13.74133
1000.903, 19.70007
1001.385, 22.00470
1001.867, 15.01227
1002.349, 11.06879
1002.831, 17.43225
1003.313, 24.30627
1003.795, 21.45245
1004.277, 8.331299
1004.760, 2.288818
1005.242, 4.349426
1005.724, 6.486084
1006.206, 1.622314
1006.688, 9.958679
1007.170, 5.794067
1007.652, 10.47174
1008.134, 17.13800
1008.616, 6.216431
1009.099, 3.520508
1009.581, 6.586609
1010.063, 4.865417
1010.545, 3.233093
1011.027, 1.149475
1011.509, 3.833923
1011.991, 14.80731
1012.473, 24.50873
1012.955, 27.12238
1013.438, 27.15991
1013.920, 30.80847
1014.402, 41.25946
1014.884, 43.07861
1015.366, 33.94702
1015.848, 26.15100
1016.330, 33.81061
1016.812, 48.54736
1017.294, 56.27808
1017.777, 56.95990
1018.259, 57.61731
1018.741, 65.48572
1019.223, 67.50647
1019.705, 54.54053
1020.187, 34.70428
1020.669, 35.90887
1021.151, 56.65039
1021.634, 75.76141
1022.116, 87.63770
1022.598, 93.59290
1023.080, 89.07855
1023.562, 81.95978
1024.044, 82.71832
1024.526, 98.92865
1025.008, 109.2714
1025.490, 112.2142
1025.973, 113.4402
1026.455, 116.7543
1026.937, 121.8611
1027.419, 130.3339
1027.901, 142.1152
1028.383, 148.8879
1028.865, 140.3016
1029.347, 132.5280
1029.830, 134.4526
1030.312, 141.9084
1030.794, 143.8364
1031.276, 139.3300
1031.758, 139.0679
1032.240, 146.8427
1032.722, 158.0669
1033.204, 170.8115
1033.687, 181.3213
1034.169, 183.1857
1034.651, 169.4975
1035.133, 167.1301
1035.615, 185.5090
1036.097, 201.2206
1036.579, 196.6354
1037.061, 178.6928
1037.543, 179.0675
1038.026, 194.6904
1038.508, 209.2115
1038.990, 217.6746
1039.472, 218.6374
1039.954, 202.6737
1040.436, 181.4040
1040.918, 179.7203
1041.400, 201.9750
1041.882, 218.3851
1042.365, 225.8953
1042.847, 228.8144
1043.329, 227.3558
1043.811, 223.8154
1044.293, 224.0675
1044.775, 231.2534
1045.257, 231.7388
1045.739, 215.2792
1046.222, 201.2318
1046.704, 198.7396
1047.186, 204.6641
1047.668, 209.0687
1048.150, 212.8456
1048.632, 213.6807
1049.114, 208.5519
1049.596, 202.4901
1050.078, 196.7441
1050.561, 194.4049
1051.043, 197.8090
1051.525, 208.9347
1052.007, 215.1605
1052.489, 215.6650
1052.971, 212.2419
1053.453, 201.3763
1053.935, 190.4717
1054.417, 192.6553
1054.900, 207.0718
1055.382, 215.1173
1055.864, 206.9002
1056.346, 198.5994
1056.828, 195.1076
1057.310, 193.2266
1057.792, 181.5479
1058.274, 163.9416
1058.757, 157.0526
1059.239, 168.2971
1059.721, 183.1422
1060.203, 198.3719
1060.685, 209.2201
1061.167, 210.1038
1061.649, 198.8821
1062.131, 194.5206
1062.614, 197.6379
1063.096, 200.7400
1063.578, 196.3107
1064.060, 190.7640
1064.542, 193.6580
1065.024, 202.7590
1065.506, 209.0471
1065.988, 209.3613
1066.470, 207.4163
1066.953, 203.5643
1067.435, 197.3060
1067.917, 185.5842
1068.399, 171.0870
1068.881, 163.6335
1069.363, 164.6922
1069.845, 168.1246
1070.327, 172.0470
1070.809, 175.8516
1071.292, 179.3300
1071.774, 182.3704
1072.256, 185.1890
1072.738, 187.8288
1073.220, 186.6016
1073.702, 178.2964
1074.184, 168.9744
1074.666, 165.3146
1075.148, 164.6406
1075.631, 163.2498
1076.113, 158.7094
1076.595, 157.6999
1077.077, 161.7582
1077.559, 165.3619
1078.041, 162.8976
1078.523, 156.9849
1079.005, 150.8345
1079.488, 145.7985
1079.970, 148.4321
1080.452, 176.3551
1080.934, 193.0665
1081.416, 184.3112
1081.898, 163.3174
1082.380, 152.9081
1082.862, 152.2863
1083.344, 153.8726
1083.827, 156.5087
1084.309, 160.4749
1084.791, 168.2864
1085.273, 175.7195
1085.755, 178.3970
1086.237, 176.3947
1086.719, 178.4803
1087.201, 186.4553
1087.683, 186.3347
1088.166, 167.2507
1088.648, 145.0416
1089.130, 142.7287
1089.612, 153.3254
1090.094, 166.1316
1090.576, 185.0443
1091.058, 191.9180
1091.540, 181.8802
1092.023, 168.0439
1092.505, 157.9883
1092.987, 153.0469
1093.469, 162.7922
1093.951, 183.7447
1094.433, 197.7618
1094.915, 186.2917
1095.397, 176.5297
1095.880, 181.1813
1096.362, 193.8951
1096.844, 203.9672
1097.326, 209.7795
1097.808, 205.1420
1098.290, 187.9568
1098.772, 174.2279
1099.254, 183.1948
1099.736, 196.9985
1100.219, 199.3119
1100.701, 189.3286
1101.183, 186.9708
1101.665, 194.3834
1102.147, 201.0046
1102.629, 200.2700
1103.111, 197.8427
1103.593, 203.8713
1104.075, 212.5983
1104.558, 213.7251
1105.040, 199.9213
1105.522, 189.1165
1106.004, 183.0342
1106.486, 179.9014
1106.968, 178.5357
1107.450, 178.4426
1107.932, 179.6403
1108.415, 181.7175
1108.897, 182.0746
1109.379, 178.4458
1109.861, 173.7943
1110.343, 167.6075
1110.825, 162.1728
1111.307, 161.4189
1111.789, 165.2100
1112.271, 167.1431
1112.754, 165.4552
1113.236, 161.6623
1113.718, 152.4995
1114.200, 145.4981
1114.682, 148.5892
1115.164, 159.3449
1115.646, 164.1960
1116.128, 162.7547
1116.610, 157.5741
1117.093, 148.1288
1117.575, 138.2405
1118.057, 131.2803
1118.539, 127.1777
1119.021, 116.6588
1119.503, 125.0609
1119.985, 128.7560
1120.467, 128.0284
1120.950, 109.4756
1121.432, 113.8953
1121.914, 109.0282
1122.396, 102.0522
1122.878, 104.1285
1123.360, 106.2203
1123.842, 106.0668
1124.324, 102.1402
1124.807, 90.79498
1125.289, 80.72528
1125.771, 82.05280
1126.253, 91.70178
1126.735, 90.65466
1127.217, 80.17017
1127.699, 73.82678
1128.181, 85.52008
1128.663, 96.01746
1129.146, 95.64056
1129.628, 89.45026
1130.110, 86.13373
1130.592, 85.54822
1131.074, 77.37036
1131.556, 59.57880
1132.038, 44.83978
1132.520, 45.68097
1133.002, 32.46814
1133.485, 41.66327
1133.967, 46.04071
1134.449, 45.83752
1134.931, 27.78888
1135.413, 32.76672
1135.895, 28.58124
1136.377, 24.07635
1136.859, 32.40198
1137.342, 17.01007
1137.824, 25.09686
1138.306, 23.81158
1138.788, 26.78711
1139.270, 20.43097
1139.752, 16.94476
1140.234, 22.78699
1140.716, 23.47296
1141.198, 16.00055
1141.681, 19.09369
1142.163, 24.54987
1142.645, 27.77649
1143.127, 26.19476
1143.609, 16.35437
1144.091, 7.892761
1144.573, 13.09229
1145.055, 25.40906
1145.537, 20.08557
1146.020, 0.3987430
1146.502, 14.89075
1146.984, 17.13568
1147.466, 13.32990
1147.948, 2.319458
1148.430, 10.08215
1148.912, 17.01831
1149.394, 18.44055
1149.877, 12.51245
1150.359, 0.6956790
1150.841, 11.34717
1151.323, 11.87445
1151.805, 9.530029
1152.287, 5.819824
1152.769, 2.829468
1153.251, 9.896851
1153.734, 26.38824
1154.216, 27.43390
1154.698, 5.006104
1155.180, 18.37122
1155.662, 23.11499
1156.144, 22.18225
1156.626, 29.27051
1157.108, 42.97302
1157.590, 38.99683
1158.073, 16.08044
1158.555, 5.682129
1159.037, 22.21582
1159.519, 27.52783
1160.001, 2.427856
1160.483, 30.75488
1160.965, 41.59595
1161.447, 20.97437
1161.929, 14.60632
1162.412, 25.73254
1162.894, 32.92505
1163.376, 19.74524
1163.858, 1.727539
1164.340, 1.377197
1164.822, 11.17102
1165.304, 15.95850
1165.786, 6.885498
1166.269, 4.758911
1166.751, 11.39319
1167.233, 20.60522
1167.715, 32.29431
1168.197, 40.71167
1168.679, 30.89551
1169.161, 8.544067
1169.643, 5.391724
1170.125, 1.816284
1170.608, 7.953857
1171.090, 10.19336
1171.572, 11.98218
1172.054, 19.36902
1172.536, 29.04346
1173.018, 31.39026
1173.500, 26.80835
1173.982, 28.97156
1174.464, 53.19141
1174.947, 70.66626
1175.429, 73.29626
1175.911, 67.95471
1176.393, 66.52466
1176.875, 67.04578
1177.357, 62.32056
1177.839, 50.35352
1178.321, 44.34167
1178.804, 57.98987
1179.286, 69.40137
1179.768, 69.43677
1180.250, 61.96826
1180.732, 56.08252
1181.214, 51.94507
1181.696, 50.17273
1182.178, 51.17639
1182.661, 53.69971
1183.143, 59.04065
1183.625, 63.75500
1184.107, 66.01807
1184.589, 65.66235
1185.071, 64.65674
1185.553, 62.83020
1186.035, 58.88660
1186.517, 50.37549
1187.000, 43.27515
1187.482, 41.39771
1187.964, 41.48462
1188.446, 43.91284
1188.928, 46.67139
1189.410, 39.37244
1189.892, 23.93726
1190.374, 17.44226
1190.856, 34.61938
1191.339, 56.88611
1191.821, 85.34900
1192.303, 106.7072
1192.785, 100.8290
1193.267, 66.54175
1193.749, 50.76990
1194.231, 54.40552
1194.713, 60.88403
1195.195, 59.35376
1195.678, 57.55457
1196.160, 60.33569
1196.642, 63.51550
1197.124, 60.88342
1197.606, 50.00427
1198.088, 50.07678
1198.570, 61.47925
1199.052, 70.97729
1199.535, 60.03552
1200.017, 44.97449
1200.499, 49.21802
1200.981, 63.74658
1201.463, 72.81641
1201.945, 76.13647
1202.427, 72.07849
1202.909, 63.51038
1203.391, 57.71204
1203.874, 55.96301
1204.356, 52.88916
1204.838, 39.32983
1205.320, 19.71130
1205.802, 12.26099
1206.284, 17.03137
1206.766, 25.31433
1207.248, 35.90320
1207.730, 41.04199
1208.213, 32.52563
1208.695, 22.46619
1209.177, 24.97217
1209.659, 37.36926
1210.141, 34.03943
1210.623, 14.09131
1211.105, 9.902832
1211.587, 37.84460
1212.070, 66.00513
1212.552, 62.77417
1213.034, 46.84814
1213.516, 33.95886
1213.998, 24.97742
1214.480, 27.82971
1214.962, 43.27869
1215.444, 49.31128
1215.927, 31.61047
1216.409, 11.75623
1216.891, 9.631958
1217.373, 15.68591
1217.855, 19.96191
1218.337, 22.52148
1218.819, 16.47742
1219.301, 0.7218020
1219.783, 7.957031
1220.266, 3.476685
1220.748, 20.44800
1221.230, 36.66980
1221.712, 47.94971
1222.194, 48.00513
1222.676, 34.31433
1223.158, 32.91370
1223.640, 44.62292
1224.122, 49.00110
1224.605, 21.07178
1225.087, 6.340088
1225.569, 8.341309
1226.051, 4.972168
1226.533, 20.20898
1227.015, 38.30493
1227.497, 40.96704
1227.979, 28.48926
1228.462, 16.74573
1228.944, 24.45703
1229.426, 33.88379
1229.908, 32.27808
1230.390, 25.46716
1230.872, 21.15808
1231.354, 17.35889
1231.836, 21.75964
1232.318, 34.27539
1232.801, 40.07739
1233.283, 38.89990
1233.765, 39.90967
1234.247, 53.68274
1234.729, 69.73572
1235.211, 66.73547
1235.693, 34.46350
1236.175, 19.14050
1236.657, 17.40356
1237.140, 19.34680
1237.622, 25.98584
1238.104, 31.63770
1238.586, 31.93799
1239.068, 30.60522
1239.550, 33.09985
1240.032, 37.41736
1240.514, 30.52979
1240.997, 10.96973
1241.479, 1.673218
1241.961, 19.05957
1242.443, 39.39807
1242.925, 40.60864
1243.407, 30.21265
1243.889, 19.32214
1244.371, 19.08398
1244.854, 12.44580
1245.336, 0.0000000E+00
##END=



