##NAMES=Hemihedrite
##RRUFFID=R140134
##IDEAL CHEMISTRY=Pb^2+^_10_Zn^2+^(Cr^6+^O_4_)_6_(SiO_4_)_2_F_2_
##LOCALITY=Rat Tail Claim, Wickenburg Area, Belmont Mts, Maricopa County, Arizona, USA
##OWNER=RRUFF
##SOURCE=Ron Gibbs
##DESCRIPTION=Orange axe-head shaped crystals
##STATUS=The identification of this mineral is confirmed by single-crystal X-ray diffraction and chemical analysis.
##URL=rruff.info/R140134
##MEASURED CHEMISTRY=Pb_10.05_(Zn_0.91_Mg_0.02_)_∑=0.93_(Cr_5.98_S_0.01_P_0.01_)_∑=6.00_Si_1.97_O_34_H_2.16_ ; H_2_O calculated to achieve 34 O atoms.
104.5771, 0.0000000E+00
105.0592, 33.56165
105.5413, 61.24646
106.0234, 81.88635
106.5055, 92.21667
106.9877, 94.86035
107.4698, 95.51892
107.9519, 87.17041
108.4340, 77.50037
108.9161, 69.73889
109.3982, 64.62909
109.8804, 52.72076
110.3625, 39.83228
110.8446, 28.02441
111.3267, 17.86548
111.8088, 11.48804
112.2909, 6.514893
112.7731, 2.151550
113.2552, 1.410278
113.7373, 3.599731
114.2194, 3.466980
114.7015, 0.1895140
115.1836, 4.384399
115.6658, 9.067871
116.1479, 14.51276
116.6300, 21.19275
117.1121, 30.28473
117.5942, 39.53912
118.0763, 46.44971
118.5584, 50.94321
119.0406, 54.01193
119.5227, 56.28922
120.0048, 57.64685
120.4869, 57.76154
120.9690, 56.61017
121.4511, 54.20862
121.9333, 50.66818
122.4154, 45.73184
122.8975, 40.27377
123.3796, 35.22900
123.8617, 30.71912
124.3438, 26.18649
124.8260, 21.48569
125.3081, 16.89423
125.7902, 12.46942
126.2723, 8.129944
126.7544, 4.164795
127.2365, 1.495178
127.7187, 0.6870120
128.2008, 3.3234000E-02
128.6829, 1.425140
129.1650, 3.172791
129.6471, 4.416504
130.1292, 4.627228
130.6114, 3.852356
131.0935, 3.080719
131.5756, 2.409637
132.0577, 1.596497
132.5398, 0.8304750
133.0219, 4.6264999E-02
133.5041, 1.444855
133.9862, 3.780975
134.4683, 7.173035
134.9504, 10.81253
135.4325, 14.83246
135.9146, 18.92108
136.3968, 22.88095
136.8789, 26.69907
137.3610, 30.52521
137.8431, 34.49814
138.3252, 38.69122
138.8073, 42.78418
139.2895, 46.90137
139.7716, 50.86963
140.2537, 54.59445
140.7358, 58.12460
141.2179, 61.16293
141.7000, 63.21390
142.1821, 64.40582
142.6643, 65.13226
143.1464, 65.90918
143.6285, 66.41605
144.1106, 65.44836
144.5927, 62.23981
145.0748, 57.93176
145.5570, 53.48840
146.0391, 48.93533
146.5212, 44.42426
147.0033, 39.95944
147.4854, 35.48746
147.9675, 31.47971
148.4497, 28.06238
148.9318, 25.07236
149.4139, 22.48651
149.8960, 20.32236
150.3781, 18.54288
150.8602, 17.13577
151.3424, 15.97842
151.8245, 15.47281
152.3066, 15.90195
152.7887, 16.70596
153.2708, 17.48224
153.7529, 18.08191
154.2351, 18.56204
154.7172, 19.04099
155.1993, 19.54776
155.6814, 20.02542
156.1635, 20.31580
156.6456, 20.61465
157.1278, 21.24490
157.6099, 22.39075
158.0920, 23.85291
158.5741, 24.77020
159.0562, 24.43274
159.5383, 24.42599
160.0205, 25.27893
160.5026, 26.75755
160.9847, 28.38823
161.4668, 29.99301
161.9489, 31.46829
162.4310, 36.73100
162.9131, 40.87279
163.3953, 44.87570
163.8774, 49.30879
164.3595, 54.13417
164.8416, 59.02036
165.3237, 63.93892
165.8058, 68.75034
166.2880, 73.12453
166.7701, 76.88788
167.2522, 80.23178
167.7343, 83.58754
168.2164, 87.09277
168.6985, 90.14017
169.1807, 92.20081
169.6628, 93.64001
170.1449, 94.80563
170.6270, 95.86847
171.1091, 96.63666
171.5912, 96.81502
172.0734, 96.30313
172.5555, 96.01852
173.0376, 96.35056
173.5197, 96.85068
174.0018, 96.89801
174.4839, 96.07242
174.9661, 94.50359
175.4482, 92.96906
175.9303, 91.53529
176.4124, 90.03296
176.8945, 88.49510
177.3766, 86.87045
177.8588, 85.09253
178.3409, 83.07977
178.8230, 80.82359
179.3051, 78.61192
179.7872, 76.42625
180.2693, 74.28574
180.7515, 72.14571
181.2336, 70.03575
181.7157, 68.08797
182.1978, 66.43687
182.6799, 65.13683
183.1620, 63.55032
183.6441, 61.65659
184.1263, 59.52940
184.6084, 57.00044
185.0905, 54.18614
185.5726, 51.57393
186.0547, 49.65685
186.5368, 48.51689
187.0190, 46.86639
187.5011, 44.39691
187.9832, 41.79092
188.4653, 39.55309
188.9474, 37.73883
189.4296, 36.12685
189.9117, 34.53735
190.3938, 32.97928
190.8759, 31.55023
191.3580, 30.09886
191.8401, 28.84346
192.3223, 28.15538
192.8044, 28.16493
193.2865, 28.24010
193.7686, 27.61385
194.2507, 26.50673
194.7328, 25.57161
195.2150, 25.12834
195.6971, 24.95944
196.1792, 24.59045
196.6613, 23.86674
197.1434, 23.20946
197.6255, 23.04515
198.1077, 23.19691
198.5898, 23.22804
199.0719, 22.78233
199.5540, 21.99698
200.0361, 21.46989
200.5182, 21.27876
201.0004, 21.26674
201.4825, 21.42282
201.9646, 21.67712
202.4467, 21.86632
202.9288, 21.81485
203.4109, 21.55409
203.8930, 21.51024
204.3752, 21.82246
204.8573, 22.24460
205.3394, 22.66548
205.8215, 23.10387
206.3036, 23.62817
206.7857, 24.32213
207.2679, 25.21179
207.7500, 26.06905
208.2321, 26.91872
208.7142, 27.70059
209.1963, 28.31323
209.6784, 28.82553
210.1606, 29.38811
210.6427, 30.09827
211.1248, 30.91554
211.6069, 32.07053
212.0890, 33.91927
212.5711, 35.75230
213.0533, 37.29182
213.5354, 38.57571
214.0175, 39.80563
214.4996, 41.12082
214.9817, 42.49922
215.4638, 43.94608
215.9460, 45.62985
216.4281, 47.21420
216.9102, 48.46291
217.3923, 49.40825
217.8744, 50.30473
218.3565, 51.41333
218.8387, 52.79646
219.3208, 53.98854
219.8029, 54.99513
220.2850, 55.77188
220.7671, 56.28229
221.2492, 56.56501
221.7314, 56.71776
222.2135, 56.78418
222.6956, 56.71849
223.1777, 56.50861
223.6598, 56.15015
224.1419, 55.70332
224.6240, 55.20959
225.1062, 54.67480
225.5883, 54.08739
226.0704, 53.41920
226.5525, 52.67847
227.0346, 51.94113
227.5167, 51.35486
227.9989, 50.68366
228.4810, 49.59299
228.9631, 48.05399
229.4452, 46.63318
229.9273, 45.89847
230.4094, 45.61076
230.8916, 45.09094
231.3737, 43.95125
231.8558, 42.68796
232.3379, 41.96195
232.8200, 41.86131
233.3021, 41.67729
233.7843, 40.80038
234.2664, 39.56773
234.7485, 38.48975
235.2306, 37.79633
235.7127, 37.22398
236.1948, 36.40417
236.6770, 35.29076
237.1591, 34.09941
237.6412, 32.94347
238.1233, 31.76744
238.6054, 30.46355
239.0875, 28.91434
239.5697, 27.34732
240.0518, 26.17353
240.5339, 25.50719
241.0160, 24.86768
241.4981, 24.05341
241.9802, 23.17730
242.4624, 22.34563
242.9445, 21.60013
243.4266, 20.89867
243.9087, 20.18058
244.3908, 19.46123
244.8729, 18.69398
245.3550, 17.70558
245.8372, 16.74219
246.3193, 16.05144
246.8014, 15.72610
247.2835, 15.59319
247.7656, 15.34473
248.2477, 14.89468
248.7299, 14.53685
249.2120, 14.44856
249.6941, 14.38618
250.1762, 14.19077
250.6583, 13.81206
251.1404, 13.25514
251.6226, 12.46446
252.1047, 11.21016
252.5868, 10.25754
253.0689, 9.882645
253.5510, 9.649597
254.0331, 9.235611
254.5153, 8.564880
254.9974, 7.805267
255.4795, 7.249222
255.9616, 7.132370
256.4437, 6.698349
256.9258, 5.679626
257.4080, 4.580582
257.8901, 3.744354
258.3722, 3.226654
258.8543, 2.836456
259.3364, 2.323395
259.8185, 1.656769
260.3007, 0.9318240
260.7828, 0.1265260
261.2649, 0.7127530
261.7470, 1.599243
262.2291, 2.509842
262.7112, 3.357147
263.1934, 4.028351
263.6755, 4.448792
264.1576, 4.965332
264.6397, 5.676834
265.1218, 6.382614
265.6039, 6.988510
266.0861, 7.484055
266.5682, 7.902100
267.0503, 8.280045
267.5324, 8.633118
268.0145, 8.828262
268.4966, 8.723373
268.9788, 8.623230
269.4609, 8.626450
269.9430, 8.756607
270.4251, 9.060593
270.9072, 9.619568
271.3893, 10.45348
271.8715, 10.95567
272.3536, 11.00046
272.8357, 10.91696
273.3178, 10.84027
273.7999, 10.75095
274.2820, 10.55710
274.7642, 10.17912
275.2463, 9.639572
275.7284, 9.232086
276.2105, 9.190491
276.6926, 8.994385
277.1747, 8.313721
277.6568, 7.339020
278.1389, 6.553848
278.6211, 6.269852
279.1032, 6.304108
279.5853, 5.828094
280.0674, 4.456619
280.5495, 3.138367
281.0316, 2.178101
281.5138, 1.419449
281.9959, 0.5929570
282.4780, 0.4125520
282.9601, 1.563171
283.4422, 2.748093
283.9243, 3.969193
284.4065, 5.226898
284.8886, 6.449310
285.3707, 7.728012
285.8528, 9.232941
286.3349, 11.04085
286.8170, 12.97995
287.2992, 14.78979
287.7813, 16.42308
288.2634, 18.08409
288.7455, 19.64685
289.2276, 21.30118
289.7097, 23.28389
290.1919, 25.65623
290.6740, 28.26521
291.1561, 31.01974
291.6382, 33.93605
292.1203, 36.74403
292.6024, 39.21771
293.0846, 41.68680
293.5667, 44.52884
294.0488, 47.79843
294.5309, 51.12308
295.0130, 54.10538
295.4951, 56.75526
295.9773, 59.75398
296.4594, 63.29874
296.9415, 67.07224
297.4236, 70.74449
297.9057, 74.32635
298.3878, 78.25206
298.8700, 82.88051
299.3521, 88.15015
299.8342, 93.40656
300.3163, 98.60840
300.7984, 103.7856
301.2805, 108.7526
301.7627, 113.6443
302.2448, 119.1967
302.7269, 125.9774
303.2090, 133.6115
303.6911, 140.9048
304.1732, 147.4788
304.6554, 154.4033
305.1375, 162.3360
305.6196, 171.0014
306.1017, 179.6777
306.5838, 188.0544
307.0659, 196.3840
307.5481, 205.1621
308.0302, 214.5293
308.5123, 223.7149
308.9944, 232.4166
309.4765, 240.7723
309.9586, 248.8642
310.4408, 256.6445
310.9229, 264.3290
311.4050, 272.0993
311.8871, 279.9704
312.3692, 287.9157
312.8513, 295.3780
313.3335, 303.1578
313.8156, 312.2272
314.2977, 322.7028
314.7798, 334.3433
315.2619, 347.2297
315.7440, 361.3690
316.2262, 375.6938
316.7083, 389.4409
317.1904, 403.8261
317.6725, 419.6075
318.1546, 436.9037
318.6367, 455.7781
319.1188, 476.3021
319.6010, 498.6145
320.0831, 522.6564
320.5652, 548.3301
321.0473, 575.8673
321.5294, 605.5174
322.0115, 637.1104
322.4937, 670.4866
322.9758, 705.1096
323.4579, 741.8493
323.9400, 782.0911
324.4221, 826.6742
324.9042, 872.3625
325.3864, 917.6419
325.8685, 963.3802
326.3506, 1011.825
326.8327, 1063.923
327.3148, 1118.254
327.7969, 1172.755
328.2791, 1226.979
328.7612, 1283.223
329.2433, 1341.971
329.7254, 1402.752
330.2075, 1465.086
330.6896, 1528.895
331.1718, 1594.169
331.6539, 1661.839
332.1360, 1732.052
332.6181, 1800.772
333.1002, 1868.874
333.5823, 1934.224
334.0645, 1996.206
334.5466, 2054.201
335.0287, 2107.499
335.5108, 2154.910
335.9929, 2196.732
336.4750, 2235.764
336.9572, 2271.366
337.4393, 2305.638
337.9214, 2339.915
338.4035, 2373.679
338.8856, 2405.905
339.3677, 2436.598
339.8499, 2464.330
340.3320, 2484.696
340.8141, 2499.628
341.2962, 2505.423
341.7783, 2503.930
342.2604, 2491.982
342.7426, 2464.803
343.2247, 2421.171
343.7068, 2364.190
344.1889, 2297.364
344.6710, 2217.365
345.1531, 2135.011
345.6353, 2047.621
346.1174, 1960.436
346.5995, 1876.359
347.0816, 1796.604
347.5637, 1721.056
348.0458, 1650.269
348.5280, 1584.072
349.0101, 1526.373
349.4922, 1476.642
349.9743, 1434.223
350.4564, 1400.715
350.9385, 1374.735
351.4207, 1353.618
351.9028, 1336.239
352.3849, 1321.990
352.8670, 1308.177
353.3491, 1296.572
353.8312, 1283.254
354.3134, 1268.272
354.7955, 1251.160
355.2776, 1231.657
355.7597, 1209.617
356.2418, 1184.335
356.7239, 1154.303
357.2061, 1117.816
357.6882, 1079.384
358.1703, 1037.374
358.6524, 994.7673
359.1345, 952.8295
359.6166, 912.0731
360.0987, 873.6859
360.5808, 838.3485
361.0630, 805.8246
361.5451, 778.9424
362.0272, 759.3096
362.5093, 743.2394
362.9914, 731.2485
363.4735, 721.7726
363.9557, 712.6378
364.4378, 702.5287
364.9199, 691.6500
365.4020, 680.7715
365.8841, 669.0231
366.3662, 658.6053
366.8484, 648.6893
367.3305, 640.7142
367.8126, 636.5312
368.2947, 636.6128
368.7768, 639.1170
369.2589, 641.4129
369.7411, 643.6221
370.2232, 645.2434
370.7053, 647.7957
371.1874, 648.5696
371.6695, 647.1631
372.1516, 642.8328
372.6338, 633.7443
373.1159, 617.3395
373.5980, 593.8963
374.0801, 571.1049
374.5622, 546.6416
375.0443, 526.0483
375.5265, 510.4330
376.0086, 499.6343
376.4907, 493.5363
376.9728, 492.1148
377.4549, 495.1903
377.9370, 502.8373
378.4192, 516.1736
378.9013, 530.9846
379.3834, 548.4589
379.8655, 565.5542
380.3476, 580.5646
380.8297, 593.0963
381.3119, 601.8567
381.7940, 605.1985
382.2761, 603.2054
382.7582, 597.7725
383.2403, 586.3401
383.7224, 574.7374
384.2046, 565.2250
384.6867, 558.3921
385.1688, 555.9593
385.6509, 559.4335
386.1330, 567.9089
386.6151, 580.1529
387.0973, 597.0176
387.5794, 614.5184
388.0615, 633.5234
388.5436, 650.8725
389.0257, 661.7771
389.5078, 665.4392
389.9900, 662.2700
390.4721, 651.5502
390.9542, 633.6822
391.4363, 612.0398
391.9184, 586.9116
392.4005, 559.3047
392.8827, 530.5297
393.3648, 500.6033
393.8469, 470.0783
394.3290, 438.7834
394.8111, 407.2210
395.2932, 376.2021
395.7754, 345.4710
396.2575, 316.2514
396.7396, 289.1331
397.2217, 264.4075
397.7038, 242.5776
398.1859, 223.8617
398.6681, 207.6367
399.1501, 193.5988
399.6323, 181.6788
400.1144, 171.8685
400.5965, 164.3786
401.0786, 158.6762
401.5607, 153.3988
402.0428, 148.1054
402.5250, 143.8787
403.0071, 141.4453
403.4892, 139.9198
403.9713, 138.5433
404.4534, 137.0923
404.9355, 135.3008
405.4177, 132.8938
405.8998, 129.9149
406.3819, 126.0093
406.8640, 121.0545
407.3461, 115.4431
407.8282, 109.0608
408.3104, 102.1577
408.7925, 95.23636
409.2746, 88.53233
409.7567, 82.00948
410.2388, 75.36456
410.7209, 68.20271
411.2031, 61.47072
411.6852, 55.25658
412.1673, 49.49451
412.6494, 44.05409
413.1315, 38.92041
413.6136, 34.25493
414.0958, 30.32807
414.5779, 27.24616
415.0600, 24.38335
415.5421, 21.83203
416.0242, 19.44520
416.5063, 17.16824
416.9885, 15.00644
417.4706, 13.05319
417.9527, 11.37805
418.4348, 9.914932
418.9169, 8.368187
419.3990, 6.632042
419.8812, 5.080215
420.3633, 3.984413
420.8454, 3.041809
421.3275, 1.952621
421.8096, 0.6410060
422.2917, 0.6290970
422.7739, 1.556648
423.2560, 2.154137
423.7381, 2.746803
424.2202, 3.394730
424.7023, 4.026360
425.1844, 4.635567
425.6666, 5.202286
426.1487, 5.656853
426.6308, 5.868759
427.1129, 6.000404
427.5950, 6.330589
428.0771, 6.884247
428.5593, 7.352066
429.0414, 7.560608
429.5235, 7.566643
430.0056, 7.514938
430.4877, 7.350510
430.9698, 7.254822
431.4520, 7.437180
431.9341, 7.729515
432.4162, 7.736641
432.8983, 7.322464
433.3804, 6.865707
433.8625, 6.869492
434.3447, 7.425728
434.8268, 7.636002
435.3089, 7.191498
435.7910, 6.631882
436.2731, 6.291168
436.7552, 6.144707
437.2374, 6.045273
437.7195, 5.920799
438.2016, 5.751991
438.6837, 5.450768
439.1658, 4.646713
439.6479, 4.190483
440.1301, 4.467400
440.6122, 4.929001
441.0943, 5.064301
441.5764, 4.766823
442.0585, 4.245926
442.5406, 3.714981
443.0227, 3.164993
443.5049, 2.671234
443.9870, 2.267967
444.4691, 1.885017
444.9512, 1.510994
445.4333, 1.138962
445.9154, 0.7516250
446.3976, 0.3302840
446.8797, 7.4821003E-02
447.3618, 0.3039930
447.8439, 0.2286910
448.3260, 0.3594440
448.8081, 0.9844670
449.2903, 1.700569
449.7724, 2.256203
450.2545, 2.642876
450.7366, 3.015518
451.2187, 3.548836
451.7008, 4.175049
452.1830, 4.576050
452.6651, 4.651169
453.1472, 4.740559
453.6293, 5.091927
454.1114, 5.573746
454.5935, 6.005955
455.0757, 6.337852
455.5578, 6.639603
456.0399, 6.905575
456.5220, 7.172482
457.0041, 7.640335
457.4862, 8.444016
457.9684, 9.299812
458.4505, 9.811161
458.9326, 9.989651
459.4147, 10.14129
459.8968, 10.25330
460.3789, 10.40974
460.8611, 10.70784
461.3432, 11.13093
461.8253, 11.57888
462.3074, 12.00083
462.7895, 12.38951
463.2716, 12.70836
463.7538, 12.79646
464.2359, 13.03184
464.7180, 13.61961
465.2001, 14.28463
465.6822, 14.70874
466.1643, 14.85008
466.6465, 14.93666
467.1286, 15.21532
467.6107, 15.70022
468.0928, 16.22701
468.5749, 17.00557
469.0570, 17.59737
469.5392, 17.75514
470.0213, 17.68372
470.5034, 17.65104
470.9855, 17.76834
471.4676, 18.06140
471.9497, 18.61827
472.4319, 19.50543
472.9140, 20.36657
473.3961, 21.26950
473.8782, 22.02205
474.3603, 22.44324
474.8424, 22.59321
475.3246, 22.72644
475.8067, 22.96511
476.2888, 23.29940
476.7709, 23.69770
477.2530, 24.15273
477.7351, 24.72840
478.2173, 25.56768
478.6994, 26.48615
479.1815, 27.17141
479.6636, 27.54346
480.1457, 27.91617
480.6278, 28.47884
481.1100, 29.13929
481.5920, 29.70969
482.0742, 30.14892
482.5563, 30.58332
483.0384, 31.15885
483.5205, 31.86488
484.0026, 32.36784
484.4847, 32.42184
484.9669, 32.57053
485.4490, 33.11093
485.9311, 33.85487
486.4132, 34.50603
486.8953, 34.96842
487.3774, 35.29690
487.8596, 35.54958
488.3417, 35.67394
488.8238, 35.89942
489.3059, 36.48033
489.7880, 36.86467
490.2701, 36.59703
490.7523, 35.96462
491.2344, 35.62652
491.7165, 36.00312
492.1986, 36.71316
492.6807, 36.79397
493.1628, 36.08231
493.6450, 35.35368
494.1271, 34.75634
494.6092, 34.17019
495.0913, 33.59903
495.5734, 33.00992
496.0555, 32.20442
496.5377, 30.91699
497.0198, 29.36270
497.5019, 28.06804
497.9840, 27.06128
498.4661, 25.94839
498.9482, 24.49480
499.4304, 22.84965
499.9125, 21.25424
500.3946, 19.66952
500.8767, 18.25762
501.3588, 17.09099
501.8409, 16.13243
502.3231, 15.35749
502.8052, 14.76752
503.2873, 14.20480
503.7694, 13.50063
504.2515, 12.64287
504.7336, 11.95304
505.2158, 11.44639
505.6979, 11.03238
506.1800, 10.83318
506.6621, 10.71534
507.1442, 10.40026
507.6263, 9.784176
508.1085, 9.077572
508.5906, 8.627758
509.0727, 8.505207
509.5548, 8.416393
510.0369, 8.390739
510.5190, 8.332073
511.0012, 8.197468
511.4833, 8.022484
511.9654, 7.851151
512.4475, 7.693501
512.9296, 7.565605
513.4117, 7.505669
513.8939, 7.516636
514.3760, 7.571098
514.8581, 7.742962
515.3402, 7.894535
515.8223, 7.895515
516.3044, 7.753262
516.7866, 7.582600
517.2687, 7.372269
517.7508, 7.196415
518.2329, 7.159760
518.7150, 7.259552
519.1971, 7.419468
519.6793, 7.601463
520.1614, 7.825962
520.6435, 8.175110
521.1256, 8.758972
521.6077, 9.123863
522.0898, 8.982819
522.5720, 8.748684
523.0541, 8.762753
523.5362, 9.038788
524.0183, 9.439354
524.5004, 9.879364
524.9825, 10.34475
525.4647, 10.76754
525.9468, 11.17038
526.4289, 11.49181
526.9110, 11.59763
527.3931, 11.70439
527.8752, 12.01768
528.3574, 12.54156
528.8395, 13.09966
529.3216, 13.50438
529.8037, 13.80249
530.2858, 14.29617
530.7679, 15.03526
531.2501, 15.84924
531.7322, 16.78435
532.2143, 17.69584
532.6964, 18.43287
533.1785, 18.96223
533.6606, 19.38058
534.1428, 19.86136
534.6249, 20.25938
535.1070, 20.18075
535.5891, 19.54576
536.0712, 18.84187
536.5533, 18.50424
537.0355, 18.41409
537.5176, 17.86995
537.9997, 16.56007
538.4818, 15.22177
538.9639, 14.01371
539.4460, 12.90781
539.9282, 11.88652
540.4103, 10.93985
540.8924, 10.01639
541.3745, 9.053078
541.8566, 8.043736
542.3387, 7.196903
542.8209, 6.645382
543.3029, 6.113792
543.7850, 5.506325
544.2672, 4.911198
544.7493, 4.455154
545.2314, 4.166817
545.7135, 3.923218
546.1956, 3.586914
546.6777, 3.165619
547.1599, 2.791199
547.6420, 2.507755
548.1241, 2.200115
548.6062, 1.683239
549.0883, 1.116531
549.5704, 0.7798690
550.0526, 0.7923620
550.5347, 0.8897710
551.0168, 0.9336240
551.4989, 0.9395030
551.9810, 0.9424740
552.4631, 0.9487570
552.9453, 0.9212720
553.4274, 0.8156470
553.9095, 0.6319850
554.3916, 0.5037770
554.8737, 0.4581680
555.3558, 0.4253080
555.8380, 0.4234430
556.3201, 0.4055180
556.8022, 0.2998960
557.2843, 9.5992997E-02
557.7664, 0.1309240
558.2485, 0.3073540
558.7307, 0.4331860
559.2128, 0.4692540
559.6949, 0.3108100
560.1770, 0.2146340
560.6591, 0.3481450
561.1412, 0.5479620
561.6234, 0.5869790
562.1055, 0.3938940
562.5876, 0.2096600
563.0697, 0.2556800
563.5518, 0.4791950
564.0339, 0.7323000
564.5161, 1.019611
564.9982, 1.224321
565.4803, 1.245878
565.9624, 1.111696
566.4445, 0.9764900
566.9266, 0.8660510
567.4088, 0.7157570
567.8909, 0.4381580
568.3730, 0.1386240
568.8551, 3.7981000E-02
569.3372, 7.3030002E-02
569.8193, 6.0807999E-02
570.3015, 8.7755002E-02
570.7836, 0.1514970
571.2657, 0.2036990
571.7478, 0.2694720
572.2299, 0.2869430
572.7120, 0.1989770
573.1942, 9.1041997E-02
573.6763, 5.9572000E-02
574.1584, 0.1082780
574.6405, 0.1384030
575.1226, 1.5833000E-02
575.6047, 0.2026790
576.0869, 0.2583500
576.5690, 0.1104350
577.0511, 2.8279999E-02
577.5332, 4.1634001E-02
578.0153, 2.7449999E-03
578.4974, 2.8949999E-03
578.9796, 6.3391000E-02
579.4617, 0.1519260
579.9438, 0.3108440
580.4259, 0.4623150
580.9080, 0.4764540
581.3901, 0.3732700
581.8723, 0.3343470
582.3544, 0.4890860
582.8365, 0.7598380
583.3186, 0.8853210
583.8007, 0.7326510
584.2828, 0.6621510
584.7650, 0.7914140
585.2471, 0.9090140
585.7292, 0.7907160
586.2113, 0.5223960
586.6934, 0.4165760
587.1755, 0.7126690
587.6577, 1.209042
588.1398, 1.427240
588.6219, 1.326237
589.1040, 1.224802
589.5861, 1.165346
590.0682, 1.168812
590.5504, 1.290812
591.0325, 1.506063
591.5146, 1.650213
591.9967, 1.589846
592.4788, 1.510153
592.9609, 1.571442
593.4431, 1.745502
593.9252, 1.955322
594.4073, 2.176908
594.8894, 2.381235
595.3715, 2.520369
595.8536, 2.567179
596.3358, 2.678068
596.8179, 2.963472
597.3000, 3.181602
597.7821, 3.187794
598.2642, 3.093193
598.7463, 3.053347
599.2285, 3.121868
599.7106, 3.254698
600.1927, 3.393002
600.6748, 3.538576
601.1569, 3.772549
601.6390, 4.172758
602.1212, 4.499802
602.6033, 4.524334
603.0854, 4.416000
603.5675, 4.454180
604.0496, 4.746666
604.5317, 4.958103
605.0139, 4.787313
605.4960, 4.490122
605.9781, 4.467670
606.4602, 4.747782
606.9423, 5.091995
607.4244, 5.346554
607.9066, 5.514389
608.3887, 5.594059
608.8708, 5.373260
609.3529, 5.373558
609.8350, 5.846481
610.3171, 6.350187
610.7993, 6.558498
611.2814, 6.502554
611.7635, 6.401140
612.2456, 6.373203
612.7277, 6.417324
613.2098, 6.549314
613.6920, 6.778683
614.1741, 6.986937
614.6562, 7.148088
615.1383, 7.273264
615.6204, 7.347670
616.1025, 7.383591
616.5847, 7.467216
617.0668, 7.638062
617.5489, 7.847555
618.0310, 8.071888
618.5131, 8.303310
618.9952, 8.536545
619.4774, 8.773010
619.9595, 9.017708
620.4416, 9.285757
620.9237, 9.585312
621.4058, 9.745615
621.8879, 9.622387
622.3701, 9.530979
622.8522, 9.535748
623.3343, 9.608940
623.8164, 9.739414
624.2985, 9.918072
624.7806, 10.09605
625.2628, 10.19804
625.7448, 10.27715
626.2269, 10.49830
626.7090, 10.87594
627.1912, 11.22027
627.6733, 11.44408
628.1554, 11.58895
628.6375, 11.72495
629.1196, 11.85256
629.6017, 11.96787
630.0839, 12.01504
630.5660, 12.09901
631.0481, 12.32962
631.5302, 12.65690
632.0123, 12.93937
632.4944, 13.10546
632.9766, 13.23111
633.4587, 13.47558
633.9408, 13.89214
634.4229, 14.17432
634.9050, 14.20793
635.3871, 14.26332
635.8693, 14.47166
636.3514, 14.77562
636.8335, 15.10973
637.3156, 15.45917
637.7977, 15.73744
638.2798, 15.81518
638.7620, 15.81922
639.2441, 15.73621
639.7262, 15.60983
640.2083, 16.51636
640.6904, 19.56026
641.1725, 23.69026
641.6547, 25.38654
642.1368, 22.34379
642.6189, 20.17424
643.1010, 19.17550
643.5831, 18.75468
644.0652, 18.74917
644.5474, 19.00913
645.0295, 19.32115
645.5116, 19.59265
645.9937, 19.80372
646.4758, 19.83144
646.9579, 19.67031
647.4401, 19.77011
647.9222, 20.27940
648.4043, 20.89987
648.8864, 21.46261
649.3685, 21.94927
649.8506, 22.29346
650.3328, 22.39506
650.8149, 22.51241
651.2970, 22.73705
651.7791, 23.02467
652.2612, 23.39429
652.7433, 23.81763
653.2255, 24.11291
653.7076, 24.10790
654.1897, 23.92509
654.6718, 24.06858
655.1539, 24.72164
655.6360, 25.27242
656.1182, 25.57939
656.6003, 25.81568
657.0824, 26.01618
657.5645, 26.20650
658.0466, 26.46039
658.5287, 26.80647
659.0109, 27.23610
659.4930, 27.83588
659.9751, 28.50933
660.4572, 28.94803
660.9393, 29.07325
661.4214, 29.13874
661.9036, 29.38010
662.3857, 29.77670
662.8678, 30.07212
663.3499, 30.14090
663.8320, 30.26637
664.3141, 30.55738
664.7963, 30.86929
665.2784, 31.03210
665.7605, 31.08568
666.2426, 31.23459
666.7247, 31.63073
667.2068, 32.14339
667.6890, 32.54691
668.1711, 32.84324
668.6532, 33.11132
669.1353, 33.36491
669.6174, 33.60076
670.0995, 33.81382
670.5817, 34.00772
671.0638, 34.19968
671.5459, 34.36772
672.0280, 34.54994
672.5101, 34.75417
672.9922, 35.00148
673.4744, 35.35474
673.9565, 35.78376
674.4386, 36.11242
674.9207, 36.16882
675.4028, 36.06696
675.8849, 36.20465
676.3671, 36.64013
676.8492, 37.13800
677.3313, 37.72952
677.8134, 38.25878
678.2955, 38.59826
678.7776, 38.78566
679.2598, 38.93333
679.7419, 38.96973
680.2240, 39.09626
680.7061, 39.51684
681.1882, 40.10091
681.6703, 40.64283
682.1525, 41.08679
682.6346, 41.43295
683.1167, 41.66385
683.5988, 41.80989
684.0809, 42.04317
684.5630, 42.42091
685.0452, 42.79658
685.5273, 43.17503
686.0094, 43.58838
686.4915, 44.02594
686.9736, 44.45722
687.4557, 44.83619
687.9379, 45.16062
688.4200, 45.43005
688.9021, 45.38721
689.3842, 45.31252
689.8663, 45.87665
690.3484, 47.19774
690.8306, 49.07410
691.3127, 51.48985
691.7948, 54.22958
692.2769, 56.31419
692.7590, 58.50939
693.2411, 58.73440
693.7233, 54.89492
694.2054, 51.05031
694.6875, 49.87216
695.1696, 50.69724
695.6517, 51.40968
696.1339, 51.08726
696.6160, 50.37211
697.0981, 49.86078
697.5802, 49.53772
698.0623, 49.39710
698.5444, 49.45781
699.0266, 49.45486
699.5087, 49.11747
699.9908, 48.63920
700.4729, 48.74470
700.9550, 50.22257
701.4371, 51.04353
701.9193, 51.11400
702.4014, 50.58647
702.8835, 49.20220
703.3656, 47.36393
703.8477, 45.86009
704.3298, 45.05555
704.8120, 44.53588
705.2941, 43.79798
705.7762, 42.90495
706.2583, 42.19548
706.7404, 41.73158
707.2225, 41.21981
707.7046, 40.44356
708.1867, 39.53975
708.6688, 38.89132
709.1509, 38.69225
709.6331, 38.24049
710.1152, 37.21684
710.5973, 36.19761
711.0794, 35.60059
711.5615, 35.22838
712.0436, 34.69976
712.5258, 33.88017
713.0079, 32.91468
713.4900, 31.88578
713.9721, 30.83524
714.4542, 30.04855
714.9363, 29.57691
715.4185, 29.08372
715.9006, 28.41089
716.3827, 27.63285
716.8648, 26.85507
717.3469, 26.06110
717.8290, 25.35758
718.3112, 24.88342
718.7933, 24.35817
719.2754, 23.58034
719.7575, 22.68951
720.2396, 21.92419
720.7217, 21.32758
721.2039, 20.70321
721.6860, 19.82893
722.1681, 18.78064
722.6502, 17.84550
723.1323, 17.03042
723.6144, 16.28283
724.0966, 15.60058
724.5787, 14.95816
725.0608, 14.33289
725.5429, 13.72906
726.0250, 13.09245
726.5071, 12.42564
726.9893, 11.72430
727.4714, 10.92344
727.9535, 10.12633
728.4356, 9.484375
728.9177, 8.980244
729.3998, 8.424500
729.8820, 7.664227
730.3641, 6.787140
730.8462, 5.966530
731.3283, 5.198570
731.8104, 4.615143
732.2925, 4.330399
732.7747, 4.022972
733.2568, 3.389168
733.7389, 2.500038
734.2210, 1.751907
734.7031, 1.246178
735.1852, 0.7137300
735.6674, 1.9370999E-02
736.1495, 0.6556780
736.6316, 1.066338
737.1137, 1.320656
737.5958, 1.763031
738.0779, 2.567101
738.5601, 3.489502
739.0422, 4.182480
739.5243, 4.662941
740.0064, 5.063057
740.4885, 5.395409
740.9706, 5.633995
741.4528, 5.636230
741.9349, 5.633301
742.4170, 6.253120
742.8991, 7.823135
743.3812, 8.835922
743.8633, 8.621674
744.3455, 8.391663
744.8276, 8.817131
745.3097, 9.634468
745.7918, 10.43017
746.2739, 11.07483
746.7560, 11.58952
747.2382, 11.95837
747.7203, 12.21796
748.2024, 12.51475
748.6845, 12.84315
749.1666, 13.06171
749.6487, 13.06738
750.1309, 13.09112
750.6130, 13.43053
751.0951, 14.12115
751.5772, 14.56820
752.0593, 14.80695
752.5414, 14.81448
753.0236, 14.33199
753.5057, 13.76546
753.9878, 13.54561
754.4699, 13.62990
754.9520, 13.62599
755.4341, 13.30684
755.9163, 12.77815
756.3984, 12.15247
756.8805, 11.43893
757.3626, 10.78769
757.8447, 10.23512
758.3268, 9.454376
758.8090, 8.186768
759.2911, 6.523911
759.7732, 4.756104
760.2553, 3.018478
760.7374, 0.8986820
761.2195, 1.714676
761.7017, 4.539307
762.1838, 7.292389
762.6659, 10.23218
763.1480, 13.82744
763.6301, 18.20325
764.1122, 22.97079
764.5944, 27.75496
765.0765, 32.79967
765.5586, 38.41626
766.0407, 44.67044
766.5228, 51.59088
767.0049, 59.24168
767.4871, 67.41394
767.9692, 75.73697
768.4513, 84.27222
768.9334, 93.29715
769.4155, 102.6920
769.8976, 112.8808
770.3798, 123.8183
770.8619, 135.6628
771.3440, 148.6147
771.8261, 162.5423
772.3082, 176.8318
772.7903, 191.2192
773.2725, 205.9740
773.7546, 221.1395
774.2367, 236.7634
774.7188, 253.0077
775.2009, 269.8318
775.6830, 286.9102
776.1652, 304.1340
776.6473, 321.5315
777.1294, 339.0864
777.6115, 356.8327
778.0936, 374.9328
778.5757, 394.1557
779.0579, 412.3797
779.5400, 428.0142
780.0221, 442.0251
780.5042, 456.1704
780.9863, 471.1835
781.4684, 483.5839
781.9506, 492.5894
782.4327, 498.6815
782.9148, 502.1430
783.3969, 502.9586
783.8790, 501.1030
784.3611, 496.5422
784.8433, 489.0793
785.3254, 478.3376
785.8075, 464.6661
786.2896, 449.0324
786.7717, 431.4832
787.2538, 412.2958
787.7360, 391.2035
788.2181, 369.4503
788.7002, 348.0909
789.1823, 327.1431
789.6644, 307.4284
790.1465, 288.9047
790.6286, 271.5544
791.1107, 255.7691
791.5928, 240.7539
792.0750, 225.3936
792.5571, 210.5044
793.0392, 197.6756
793.5213, 187.5531
794.0034, 179.1529
794.4855, 172.0219
794.9677, 165.8799
795.4498, 160.1140
795.9319, 154.7483
796.4140, 150.3680
796.8961, 147.2039
797.3782, 145.3086
797.8604, 144.8335
798.3425, 145.8380
798.8246, 147.1536
799.3067, 148.4134
799.7888, 150.7040
800.2709, 154.2839
800.7531, 158.8957
801.2352, 164.2338
801.7173, 170.5312
802.1994, 178.4284
802.6815, 188.0240
803.1636, 199.2123
803.6458, 211.7466
804.1279, 225.8773
804.6100, 242.1914
805.0921, 260.3658
805.5742, 279.4643
806.0563, 298.7981
806.5385, 319.2435
807.0206, 342.3606
807.5027, 368.0362
807.9848, 393.6772
808.4669, 418.9872
808.9490, 445.6653
809.4312, 474.0750
809.9133, 504.6300
810.3954, 538.2252
810.8775, 575.4045
811.3596, 612.4619
811.8417, 647.5013
812.3239, 684.5701
812.8060, 724.5634
813.2881, 767.1337
813.7702, 811.6763
814.2523, 858.0519
814.7344, 906.2311
815.2166, 956.4552
815.6987, 1007.706
816.1808, 1058.885
816.6629, 1109.714
817.1450, 1160.595
817.6271, 1211.042
818.1093, 1257.786
818.5914, 1299.190
819.0735, 1334.441
819.5556, 1362.391
820.0377, 1383.498
820.5198, 1394.408
821.0020, 1395.174
821.4841, 1385.678
821.9662, 1364.075
822.4483, 1333.119
822.9304, 1295.269
823.4125, 1250.657
823.8947, 1202.386
824.3768, 1148.337
824.8589, 1094.323
825.3410, 1041.116
825.8231, 990.1490
826.3052, 942.5380
826.7874, 898.8193
827.2695, 859.8650
827.7516, 826.0245
828.2337, 796.9413
828.7158, 771.7372
829.1979, 750.7347
829.6801, 735.4258
830.1622, 726.0045
830.6443, 721.4066
831.1264, 721.4095
831.6085, 725.2491
832.0906, 731.6840
832.5728, 740.5509
833.0549, 752.8116
833.5370, 768.5060
834.0191, 787.5513
834.5012, 809.6665
834.9833, 834.9032
835.4655, 863.8034
835.9476, 896.0911
836.4297, 930.7753
836.9118, 966.5865
837.3939, 1006.226
837.8760, 1052.185
838.3582, 1102.313
838.8403, 1154.386
839.3224, 1208.319
839.8045, 1265.147
840.2866, 1325.268
840.7687, 1387.532
841.2509, 1451.325
841.7330, 1515.720
842.2151, 1574.990
842.6972, 1628.766
843.1793, 1677.280
843.6614, 1720.794
844.1436, 1757.466
844.6257, 1785.982
845.1078, 1806.223
845.5899, 1810.695
846.0720, 1795.878
846.5541, 1769.675
847.0363, 1731.240
847.5184, 1683.436
848.0005, 1625.074
848.4826, 1559.068
848.9647, 1490.170
849.4468, 1418.374
849.9290, 1349.379
850.4111, 1283.656
850.8932, 1223.984
851.3753, 1171.476
851.8574, 1127.167
852.3395, 1093.077
852.8217, 1069.867
853.3038, 1055.803
853.7859, 1049.744
854.2680, 1051.486
854.7501, 1060.700
855.2322, 1077.384
855.7144, 1100.710
856.1965, 1130.759
856.6786, 1166.101
857.1607, 1206.002
857.6428, 1249.874
858.1249, 1296.457
858.6071, 1347.588
859.0892, 1397.147
859.5713, 1445.200
860.0534, 1491.604
860.5355, 1538.888
861.0176, 1583.216
861.4998, 1620.941
861.9819, 1651.497
862.4640, 1673.730
862.9461, 1686.165
863.4282, 1691.536
863.9103, 1690.358
864.3925, 1683.992
864.8746, 1673.214
865.3567, 1658.935
865.8388, 1644.006
866.3209, 1630.276
866.8030, 1615.228
867.2852, 1595.310
867.7673, 1570.823
868.2494, 1543.652
868.7315, 1514.051
869.2136, 1478.343
869.6957, 1434.803
870.1779, 1384.588
870.6600, 1329.500
871.1421, 1269.431
871.6242, 1205.663
872.1063, 1136.126
872.5884, 1066.695
873.0705, 997.4974
873.5526, 930.0237
874.0347, 864.9299
874.5168, 802.5626
874.9990, 742.1408
875.4811, 683.3350
875.9632, 628.4402
876.4453, 578.5690
876.9274, 533.0239
877.4095, 491.4007
877.8917, 453.7428
878.3738, 420.2467
878.8559, 390.8722
879.3380, 364.8091
879.8201, 341.5698
880.3022, 321.1694
880.7844, 303.7573
881.2665, 289.1033
881.7486, 276.6682
882.2307, 266.3130
882.7128, 257.8556
883.1949, 251.3508
883.6771, 246.3169
884.1592, 241.7715
884.6413, 237.5863
885.1234, 234.9476
885.6055, 234.7583
886.0876, 233.8266
886.5698, 230.9494
887.0519, 226.9393
887.5340, 222.6566
888.0161, 218.0624
888.4982, 212.4380
888.9803, 206.0215
889.4625, 198.2399
889.9446, 188.5103
890.4267, 177.8240
890.9088, 167.1093
891.3909, 155.9030
891.8730, 143.1111
892.3552, 128.2791
892.8373, 113.1937
893.3194, 98.47552
893.8015, 84.47531
894.2836, 71.77832
894.7657, 60.06973
895.2479, 48.69565
895.7300, 37.69092
896.2121, 27.83698
896.6942, 19.80566
897.1763, 13.24832
897.6584, 7.611511
898.1406, 2.884308
898.6227, 1.295532
899.1048, 4.976654
899.5869, 7.701599
900.0690, 9.215561
900.5511, 9.821609
901.0333, 9.976440
901.5154, 9.697510
901.9975, 8.780090
902.4796, 7.277069
902.9617, 5.028000
903.4438, 1.635666
903.9260, 2.165329
904.4081, 5.900070
904.8902, 9.658035
905.3723, 13.64238
905.8544, 17.84686
906.3365, 22.30771
906.8187, 27.24684
907.3008, 32.21167
907.7829, 36.95636
908.2650, 41.51442
908.7471, 45.98488
909.2292, 50.36313
909.7114, 54.56601
910.1935, 58.51845
910.6756, 62.30701
911.1577, 66.26794
911.6398, 70.01108
912.1219, 72.73410
912.6041, 74.48380
913.0862, 75.94519
913.5683, 77.43961
914.0504, 78.53508
914.5325, 78.70285
915.0146, 77.96637
915.4968, 76.29044
915.9789, 73.65381
916.4610, 70.52177
916.9431, 66.80011
917.4252, 63.34985
917.9073, 60.85045
918.3895, 59.15334
918.8716, 57.70375
919.3537, 56.48068
919.8358, 55.48988
920.3179, 54.92343
920.8000, 54.31415
921.2822, 53.55908
921.7643, 52.60472
922.2464, 51.45198
922.7285, 50.09021
923.2106, 48.34048
923.6927, 46.32043
924.1749, 43.72133
924.6570, 40.32338
925.1391, 36.43898
925.6212, 32.36591
926.1033, 28.01501
926.5854, 23.01163
927.0676, 17.22595
927.5497, 11.65570
928.0318, 6.904861
928.5139, 2.781845
928.9960, 0.9266360
929.4781, 4.203659
929.9603, 7.014259
930.4424, 9.395241
930.9245, 11.45091
931.4066, 13.26162
931.8887, 14.70846
932.3708, 15.40383
932.8530, 15.53688
933.3351, 15.92318
933.8172, 16.58734
934.2993, 17.22197
934.7814, 17.71031
935.2635, 17.94772
935.7457, 17.78164
936.2278, 17.28867
936.7099, 16.91608
937.1920, 16.72707
937.6741, 16.39046
938.1563, 15.90997
938.6384, 15.17571
939.1205, 13.93391
939.6026, 12.57453
940.0847, 11.86756
940.5668, 11.98039
941.0490, 11.73537
941.5311, 10.89084
942.0132, 10.04081
942.4953, 9.399025
942.9774, 8.693527
943.4595, 7.612564
943.9417, 6.322998
944.4238, 5.295685
944.9059, 4.727814
945.3880, 4.008804
945.8701, 2.749939
946.3522, 1.459343
946.8344, 0.4158400
947.3165, 0.4251940
947.7986, 1.073128
948.2807, 1.594185
948.7628, 2.193333
949.2449, 2.981995
949.7271, 3.879326
950.2092, 4.875385
950.6913, 5.889511
951.1734, 6.693325
951.6555, 7.391338
952.1376, 8.419186
952.6198, 9.893486
953.1019, 11.35912
953.5840, 12.38311
954.0661, 13.07916
954.5482, 13.61089
955.0303, 14.03561
955.5124, 14.77284
955.9945, 15.87737
956.4766, 17.04096
956.9587, 18.10860
957.4409, 19.00543
957.9230, 19.58578
958.4051, 19.86274
958.8872, 20.40207
959.3693, 21.27813
959.8514, 22.13869
960.3336, 22.89209
960.8157, 23.67967
961.2978, 24.66274
961.7799, 25.70954
962.2620, 26.44445
962.7441, 26.68334
963.2263, 27.18344
963.7084, 28.12142
964.1905, 29.08350
964.6726, 29.96925
965.1547, 30.82873
965.6368, 31.72469
966.1190, 32.63521
966.6011, 33.46661
967.0832, 34.26452
967.5653, 34.86503
968.0474, 34.93483
968.5295, 35.11940
969.0117, 35.93204
969.4938, 37.00352
969.9759, 37.80724
970.4580, 38.31040
970.9401, 38.89355
971.4222, 39.78593
971.9044, 40.69859
972.3865, 41.53620
972.8686, 42.23425
973.3507, 42.58705
973.8328, 42.77529
974.3149, 43.21511
974.7971, 44.01646
975.2792, 44.89972
975.7613, 45.66838
976.2434, 46.37395
976.7255, 47.11813
977.2076, 47.84079
977.6898, 48.35163
978.1719, 48.68480
978.6540, 49.12169
979.1361, 49.79393
979.6182, 50.55283
980.1003, 51.23569
980.5825, 51.84735
981.0646, 52.37127
981.5467, 52.82689
982.0288, 53.38789
982.5109, 54.08903
982.9930, 54.79870
983.4752, 55.44683
983.9573, 55.97618
984.4394, 56.21652
984.9215, 56.16529
985.4036, 56.40253
985.8857, 56.98402
986.3679, 57.51963
986.8500, 57.82856
987.3321, 58.04684
987.8142, 58.33245
988.2963, 58.63285
988.7784, 58.80679
989.2606, 58.93158
989.7427, 58.67076
990.2248, 57.86541
990.7069, 57.13254
991.1890, 56.76477
991.6711, 56.36684
992.1533, 55.48652
992.6354, 54.23569
993.1175, 53.30637
993.5996, 53.11103
994.0817, 52.58175
994.5638, 51.44690
995.0460, 50.25809
995.5281, 49.16917
996.0102, 48.20288
996.4923, 47.43835
996.9744, 46.87276
997.4565, 46.27079
997.9387, 45.46755
998.4208, 44.66382
998.9029, 44.04131
999.3850, 43.39727
999.8671, 42.50955
1000.349, 41.53336
1000.831, 40.75648
1001.313, 40.21187
1001.796, 39.61698
1002.278, 38.74631
1002.760, 37.88926
1003.242, 37.22459
1003.724, 36.69750
1004.206, 36.28645
1004.688, 35.91559
1005.170, 35.45274
1005.653, 34.86960
1006.135, 34.31190
1006.617, 33.94036
1007.099, 33.56932
1007.581, 32.89258
1008.063, 32.18770
1008.545, 31.93560
1009.027, 32.00024
1009.509, 31.87915
1009.992, 31.42543
1010.474, 30.96748
1010.956, 30.81206
1011.438, 30.75091
1011.920, 30.45242
1012.402, 30.01630
1012.884, 29.71110
1013.366, 29.54435
1013.849, 29.31172
1014.331, 28.92453
1014.813, 28.58721
1015.295, 28.58835
1015.777, 28.75488
1016.259, 28.64230
1016.741, 28.31633
1017.223, 28.04199
1017.705, 27.85548
1018.188, 27.71684
1018.670, 27.61266
1019.152, 27.46880
1019.634, 27.11641
1020.116, 26.63933
1020.598, 26.54022
1021.080, 26.80548
1021.562, 26.89592
1022.044, 26.71095
1022.527, 26.41893
1023.009, 26.10328
1023.491, 25.80522
1023.973, 25.59897
1024.455, 25.47560
1024.937, 25.28780
1025.419, 25.01198
1025.901, 24.86339
1026.384, 24.93831
1026.866, 24.90484
1027.348, 24.51617
1027.830, 23.96801
1028.312, 23.62196
1028.794, 23.48452
1029.276, 23.44466
1029.758, 23.57265
1030.240, 23.52708
1030.723, 23.16229
1031.205, 22.80079
1031.687, 22.67795
1032.169, 22.67380
1032.651, 22.54180
1033.133, 22.26886
1033.615, 21.97687
1034.097, 21.56634
1034.579, 21.36679
1035.062, 21.58767
1035.544, 21.80502
1036.026, 21.75156
1036.508, 21.49486
1036.990, 21.15086
1037.472, 20.68496
1037.954, 20.34264
1038.436, 20.25562
1038.919, 20.07632
1039.401, 19.70680
1039.883, 19.27207
1040.365, 18.75343
1040.847, 18.25817
1041.329, 18.04499
1041.811, 18.18364
1042.293, 18.22157
1042.776, 18.14903
1043.258, 17.97724
1043.740, 17.69914
1044.222, 17.33492
1044.704, 16.78144
1045.186, 16.19082
1045.668, 15.89197
1046.150, 15.96062
1046.632, 15.94445
1047.115, 15.73124
1047.597, 15.51141
1048.079, 15.34792
1048.561, 15.17851
1049.043, 14.35784
1049.525, 13.71650
1050.007, 15.38664
1050.489, 19.96074
1050.971, 22.30449
1051.454, 19.92744
1051.936, 17.23805
1052.418, 15.07116
1052.900, 13.48664
1053.382, 12.73453
1053.864, 12.48672
1054.346, 12.18311
1054.828, 11.73984
1055.311, 11.38788
1055.793, 11.19886
1056.275, 11.09499
1056.757, 11.18429
1057.239, 11.22212
1057.721, 10.95364
1058.203, 10.53675
1058.685, 10.26505
1059.167, 10.17976
1059.650, 10.05302
1060.132, 9.697648
1060.614, 9.439195
1061.096, 9.519936
1061.578, 9.629198
1062.060, 9.536452
1062.542, 9.302594
1063.024, 9.037640
1063.506, 8.766456
1063.989, 8.506112
1064.471, 8.199536
1064.953, 7.997000
1065.435, 8.095575
1065.917, 8.182546
1066.399, 7.947608
1066.881, 7.581244
1067.363, 7.432069
1067.846, 7.515014
1068.328, 7.477595
1068.810, 7.051918
1069.292, 6.716951
1069.774, 6.815037
1070.256, 6.952501
1070.738, 6.826149
1071.220, 6.557068
1071.703, 6.322800
1072.185, 6.151968
1072.667, 6.012783
1073.149, 5.930817
1073.631, 5.790388
1074.113, 5.429409
1074.595, 5.097509
1075.077, 5.036800
1075.559, 5.080399
1076.042, 4.992815
1076.524, 4.770529
1077.006, 4.568480
1077.488, 4.454132
1077.970, 4.326153
1078.452, 4.027460
1078.934, 3.828442
1079.416, 4.059992
1079.898, 4.380238
1080.380, 4.366386
1080.863, 4.054642
1081.345, 3.712751
1081.827, 3.395426
1082.309, 3.180546
1082.791, 3.174543
1083.273, 3.195827
1083.755, 3.101767
1084.237, 2.991785
1084.720, 3.028290
1085.202, 3.130161
1085.684, 3.030527
1086.166, 2.632103
1086.648, 2.333380
1087.130, 2.352964
1087.612, 2.449484
1088.094, 2.580708
1088.577, 2.666222
1089.059, 2.636360
1089.541, 2.500343
1090.023, 2.273369
1090.505, 1.960411
1090.987, 1.672249
1091.469, 1.414902
1091.951, 1.228464
1092.433, 1.124157
1092.916, 1.100212
1093.398, 1.268820
1093.880, 1.467159
1094.362, 1.375666
1094.844, 0.9795110
1095.326, 0.7125820
1095.808, 0.8084510
1096.290, 0.9235020
1096.772, 0.9826090
1097.255, 0.9620020
1097.737, 0.7924160
1098.219, 0.5900690
1098.701, 0.5296650
1099.183, 0.5999240
1099.665, 0.5927930
1100.147, 0.3656710
1100.629, 0.2427580
1101.112, 0.4428500
1101.594, 0.6082530
1102.076, 0.5399280
1102.558, 0.3606400
1103.040, 0.1298810
1103.522, 8.5665002E-02
1104.004, 6.3023001E-02
1104.486, 0.3709370
1104.969, 0.5881000
1105.451, 0.2498280
1105.933, 2.1631001E-02
1106.415, 6.1438002E-02
1106.897, 0.2100330
1107.379, 0.2082920
1107.861, 0.1099510
1108.343, 1.1206000E-02
1108.825, 0.1108590
1109.307, 0.1006410
1109.790, 0.2648350
1110.272, 0.4715160
1110.754, 0.2875670
1111.236, 4.7612999E-02
1111.718, 0.1061570
1112.200, 0.1530170
1112.682, 9.8930001E-03
1113.164, 0.3401660
1113.647, 0.5120960
1114.129, 0.4683990
1114.611, 0.3127840
1115.093, 0.1295930
1115.575, 0.4624020
1116.057, 0.4549060
1116.539, 0.3027440
1117.021, 0.2149850
1117.504, 0.1869140
1117.986, 0.1731870
1118.468, 0.1751590
1118.950, 0.1927390
1119.432, 0.2798900
1119.914, 0.2608360
1120.396, 1.5779000E-02
1120.878, 0.2474690
1121.360, 0.1115190
1121.843, 0.2201580
1122.325, 0.2025260
1122.807, 0.2762180
1123.289, 0.4045700
1123.771, 7.5634003E-02
1124.253, 0.2493630
1124.735, 0.4919640
1125.217, 0.6592030
1125.699, 0.7599720
1126.182, 0.7730290
1126.664, 0.6360260
1127.146, 0.3638340
1127.628, 0.2484440
1128.110, 0.3081400
1128.592, 0.3604200
1129.074, 0.3771400
1129.556, 0.4424930
1130.039, 0.6088960
1130.521, 0.7503870
1131.003, 0.7137090
1131.485, 0.5505180
1131.967, 0.4330370
1132.449, 0.3605160
1132.931, 0.3389700
1133.413, 0.3649040
1133.896, 0.3136540
1134.378, 0.1478180
1134.860, 4.0752001E-02
1135.342, 0.1338180
1135.824, 0.3275150
1136.306, 0.4792190
1136.788, 0.5731950
1137.270, 0.4901350
1137.752, 0.2831130
1138.234, 0.2447890
1138.717, 0.4012780
1139.199, 0.5272330
1139.681, 0.5075870
1140.163, 0.3711240
1140.645, 0.3823890
1141.127, 7.3583998E-02
1141.609, 2.299850
1142.091, 5.304522
1142.574, 5.356951
1143.056, 2.942467
1143.538, 0.8037240
1144.020, 0.1487750
1144.502, 0.4554370
1144.984, 0.3438110
1145.466, 0.1208290
1145.948, 9.9913001E-02
1146.431, 0.1586380
1146.913, 0.1227490
1147.395, 5.7905000E-02
1147.877, 0.1293750
1148.359, 0.3243900
1148.841, 0.4724600
1149.323, 0.5048690
1149.805, 0.4653020
1150.287, 0.3339310
1150.770, 0.1931690
1151.252, 8.6666003E-02
1151.734, 1.3777000E-02
1152.216, 3.8460001E-02
1152.698, 5.3491998E-02
1153.180, 4.3563999E-02
1153.662, 0.2650410
1154.144, 0.3442060
1154.626, 2.8099000E-02
1155.109, 0.2106270
1155.591, 0.1783660
1156.073, 6.2328000E-02
1156.555, 8.1321999E-02
1157.037, 0.1987920
1157.519, 0.2160380
1158.001, 0.1459500
1158.483, 9.6280999E-02
1158.966, 9.5421001E-02
1159.448, 7.1114004E-02
1159.930, 1.2686000E-02
1160.412, 7.4410997E-02
1160.894, 8.8646002E-02
1161.376, 7.7290997E-02
1161.858, 5.5741999E-02
1162.340, 2.5175000E-02
1162.822, 3.2248002E-02
1163.305, 0.1343060
1163.787, 9.7675003E-02
1164.269, 0.1736030
1164.751, 0.2981550
1165.233, 0.1547720
1165.715, 7.9094000E-02
1166.197, 0.2650700
1166.679, 0.4974540
1167.161, 0.5105060
1167.644, 0.3729530
1168.126, 0.3767190
1168.608, 0.5280320
1169.090, 0.5536440
1169.572, 0.4383540
1170.054, 0.4453240
1170.536, 0.6527900
1171.018, 0.7434480
1171.500, 0.4734120
1171.983, 0.1372070
1172.465, 0.2862610
1172.947, 0.7249810
1173.429, 0.7436560
1173.911, 0.4797330
1174.393, 0.4700410
1174.875, 0.7234440
1175.357, 0.9162500
1175.840, 0.9272560
1176.322, 0.8442880
1176.804, 0.7038100
1177.286, 0.5902100
1177.768, 0.6250630
1178.250, 0.7531970
1178.732, 0.9638480
1179.214, 1.163063
1179.697, 1.129105
1180.179, 0.9047780
1180.661, 0.8100890
1181.143, 0.9943350
1181.625, 1.185139
1182.107, 1.205303
1182.589, 1.170053
1183.071, 1.115088
1183.553, 1.085579
1184.036, 1.138731
1184.518, 1.244211
1185.000, 1.366322
1185.482, 1.488514
1185.964, 1.503767
1186.446, 1.282835
1186.928, 1.122881
1187.410, 1.076385
1187.892, 1.103971
1188.375, 1.232000
1188.857, 1.380993
1189.339, 1.523832
1189.821, 1.618677
1190.303, 1.534805
1190.785, 1.218822
1191.267, 1.068066
1191.749, 1.156174
1192.232, 1.186741
1192.714, 1.066849
1193.196, 1.036930
1193.678, 1.244978
1194.160, 1.487339
1194.642, 1.505281
1195.124, 1.360853
1195.606, 1.274120
1196.089, 1.238161
1196.571, 1.243984
1197.053, 1.285025
1197.535, 1.202515
1198.017, 0.9696290
1198.499, 0.8094880
1198.981, 0.8760400
1199.463, 1.008598
1199.945, 0.9974730
1200.427, 0.9121020
1200.910, 0.9003450
1201.392, 0.9192920
1201.874, 0.8197400
1202.356, 0.6570630
1202.838, 0.6978490
1203.320, 0.9778590
1203.802, 1.191662
1204.284, 1.132620
1204.767, 1.049797
1205.249, 1.167423
1205.731, 1.296005
1206.213, 1.270411
1206.695, 1.166321
1207.177, 1.030851
1207.659, 0.9222720
1208.141, 0.9898280
1208.624, 1.278624
1209.106, 1.431561
1209.588, 1.208597
1210.070, 1.070135
1210.552, 1.224800
1211.034, 1.346254
1211.516, 1.219131
1211.998, 1.023218
1212.480, 0.9370710
1212.963, 0.9383530
1213.445, 0.9611640
1213.927, 1.013056
1214.409, 1.028728
1214.891, 0.9944290
1215.373, 0.9883040
1215.855, 1.037411
1216.337, 1.062147
1216.819, 1.011263
1217.302, 0.9644890
1217.784, 1.040874
1218.266, 1.164387
1218.748, 1.072418
1219.230, 0.8124070
1219.712, 0.5941240
1220.194, 0.4398590
1220.676, 0.4222390
1221.159, 0.5288580
1221.641, 0.5817170
1222.123, 0.4860760
1222.605, 0.3920020
1223.087, 0.4660740
1223.569, 0.6043430
1224.051, 0.7681390
1224.533, 0.8689990
1225.016, 0.7004890
1225.498, 0.4116420
1225.980, 0.3262440
1226.462, 0.4662690
1226.944, 0.5675280
1227.426, 0.5202770
1227.908, 0.4864850
1228.390, 0.5434470
1228.872, 0.5687270
1229.354, 0.5195080
1229.837, 0.4497810
1230.319, 0.4113200
1230.801, 0.3943230
1231.283, 0.3696840
1231.765, 0.3405040
1232.247, 0.4084850
1232.729, 0.6627200
1233.211, 0.7191980
1233.694, 0.4860740
1234.176, 0.3280070
1234.658, 0.3613830
1235.140, 0.4811570
1235.622, 0.6339860
1236.104, 0.7316680
1236.586, 0.5788800
1237.068, 0.2637600
1237.551, 0.1907830
1238.033, 0.2932590
1238.515, 0.2473200
1238.997, 6.2840000E-02
1239.479, 3.5445999E-02
1239.961, 9.5939999E-03
1240.443, 7.8886002E-02
1240.925, 9.9624999E-02
1241.407, 0.1066440
1241.890, 0.1362080
1242.372, 0.1650700
1242.854, 0.1642300
1243.336, 0.1545910
1243.818, 0.1844880
1244.300, 0.2196810
1244.782, 0.1539650
1245.264, 1.5969999E-02
1245.746, 0.1014230
1246.229, 3.5810001E-02
1246.711, 8.5483998E-02
1247.193, 0.3545230
1247.675, 0.5281090
1248.157, 0.4409680
1248.639, 0.3352760
1249.121, 0.3988910
1249.603, 0.5301570
1250.085, 0.5134700
1250.568, 0.3722210
1251.050, 0.5954380
1251.532, 1.256626
1252.014, 1.384640
1252.496, 0.8814870
1252.978, 0.5993390
1253.460, 0.8033140
1253.942, 1.057598
1254.425, 1.076662
1254.907, 0.9609850
1255.389, 0.7824780
1255.871, 0.6123160
1256.353, 0.5965060
1256.835, 0.6942390
1257.317, 0.9033130
1257.799, 1.145933
1258.281, 1.265667
1258.764, 1.243876
1259.246, 1.179998
1259.728, 1.057482
1260.210, 1.049681
1260.692, 1.392677
1261.174, 1.653818
1261.656, 1.610537
1262.138, 1.425266
1262.620, 1.079384
1263.103, 0.7885340
1263.585, 0.8446920
1264.067, 1.187292
1264.549, 1.264868
1265.031, 0.9696790
1265.513, 0.7028600
1265.995, 0.5469250
1266.477, 0.6411720
1266.960, 0.9580020
1267.442, 1.195866
1267.924, 1.162397
1268.406, 1.024036
1268.888, 0.9362930
1269.370, 0.8700940
1269.852, 0.7581560
1270.334, 0.6206380
1270.817, 0.4529550
1271.299, 0.3273580
1271.781, 0.4633100
1272.263, 0.7972280
1272.745, 0.9525790
1273.227, 0.7846450
1273.709, 0.5842340
1274.191, 0.5240480
1274.673, 0.4821530
1275.156, 0.3892570
1275.638, 0.3081870
1276.120, 0.2718930
1276.602, 0.2623060
1277.084, 0.2492940
1277.566, 0.2462790
1278.048, 0.3110600
1278.530, 0.4621770
1279.012, 0.5168840
1279.495, 0.4631230
1279.977, 0.3314040
1280.459, 8.7188996E-02
1280.941, 7.4560000E-03
1281.423, 0.1591430
1281.905, 0.3555640
1282.387, 0.4027190
1282.869, 0.3567830
1283.352, 0.2882770
1283.834, 0.2137470
1284.316, 0.1133580
1284.798, 0.0000000E+00
##END=



