##NAMES=Hemimorphite
##RRUFFID=R040117
##IDEAL CHEMISTRY=Zn_4_Si_2_O_7_(OH)_2_&#183;H_2_O
##LOCALITY=Durango, Mexico
##OWNER=RRUFF
##SOURCE=University of Arizona Mineral Museum
##DESCRIPTION=Colorless thin tabular crystals in a sheaflike aggregate
##STATUS=The identification of this mineral has been confirmed by X-ray diffraction and chemical analysis
##URL=rruff.info/R040117
##MEASURED CHEMISTRY=Zn_4.05_Si_1.97_O_7_((OH)_0.99_F_0.01_)_2_Â·H_2_O
112.8640, 0.0000000E+00
114.2540, 36.37109
115.6440, 333.2119
117.0340, 1329.362
118.4240, 2741.997
119.8130, 4638.208
121.2030, 7086.086
122.5920, 10817.25
123.9810, 14586.22
125.3690, 19341.67
126.7580, 23683.68
128.1460, 26667.44
129.5340, 28550.08
130.9220, 27829.66
132.3090, 26754.54
133.6960, 23578.69
135.0830, 20267.94
136.4700, 16722.35
137.8570, 13629.99
139.2430, 10698.44
140.6300, 8338.801
142.0160, 6506.761
143.4010, 4952.183
144.7870, 3774.873
146.1720, 3248.884
147.5570, 2966.099
148.9420, 2801.428
150.3270, 2701.779
151.7110, 2663.010
153.0960, 2507.414
154.4800, 2538.438
155.8630, 2567.678
157.2470, 2552.131
158.6300, 2689.261
160.0130, 3017.031
161.3960, 3301.222
162.7790, 3703.121
164.1610, 3720.098
165.5440, 3847.068
166.9260, 3560.377
168.3080, 3037.322
169.6890, 2537.502
171.0700, 1924.522
172.4520, 1333.551
173.8330, 790.6074
175.2130, 403.4312
176.5940, 139.9253
177.9740, 155.1074
179.3540, 297.9160
180.7340, 443.8721
182.1140, 457.9756
183.4930, 454.6743
184.8720, 454.2446
186.2510, 372.2822
187.6300, 290.5142
189.0080, 202.7646
190.3870, 125.3501
191.7650, 104.2578
193.1430, 25.52588
194.5200, 19.01367
195.8980, 201.3447
197.2750, 311.0054
198.6520, 351.9116
200.0290, 501.3462
201.4050, 702.0928
202.7820, 823.4517
204.1580, 1098.730
205.5340, 1277.925
206.9090, 1532.860
208.2850, 1694.435
209.6600, 1633.320
211.0350, 1594.816
212.4100, 1509.233
213.7840, 1337.438
215.1590, 1233.208
216.5330, 1178.698
217.9070, 1064.830
219.2810, 997.8003
220.6540, 893.7637
222.0270, 802.7153
223.4000, 702.6536
224.7730, 665.5750
226.1460, 631.4700
227.5180, 626.4990
228.8910, 575.4717
230.2630, 573.0669
231.6340, 497.5515
233.0060, 532.4016
234.3770, 508.3672
235.7480, 447.2664
237.1190, 442.6353
238.4900, 454.4905
239.8600, 374.4900
241.2310, 412.6453
242.6010, 410.8989
243.9700, 366.7520
245.3400, 350.9585
246.7090, 349.8230
248.0790, 328.6746
249.4480, 306.4829
250.8160, 384.2244
252.1850, 317.8738
253.5530, 431.4248
254.9210, 474.8721
256.2890, 556.2100
257.6570, 667.4324
259.0240, 742.5369
260.3910, 859.5220
261.7580, 1061.386
263.1250, 1265.127
264.4920, 1399.746
265.8580, 1733.252
267.2240, 1891.667
268.5900, 2057.005
269.9560, 2229.285
271.3210, 2276.523
272.6870, 2362.719
274.0520, 2237.876
275.4160, 2089.992
276.7810, 1820.070
278.1460, 1623.048
279.5100, 1438.339
280.8740, 1102.772
282.2370, 921.5237
283.6010, 766.0281
284.9640, 627.9075
286.3270, 450.9224
287.6900, 315.8564
289.0530, 212.5322
290.4160, 93.85229
291.7780, 70.77344
293.1400, 57.27026
294.5020, 15.73730
295.8630, 21.48560
297.2250, 63.09033
298.5860, 62.55371
299.9470, 64.80493
301.3080, 115.7712
302.6680, 103.4060
304.0290, 98.66309
305.3890, 120.5051
306.7490, 95.91138
308.1080, 69.86084
309.4680, 35.54468
310.8270, 44.11914
312.1860, 48.71362
313.5450, 55.38745
314.9030, 133.5647
316.2620, 251.7319
317.6200, 465.2373
318.9780, 716.3730
320.3360, 1158.332
321.6930, 1748.173
323.0510, 2435.923
324.4080, 3329.574
325.7650, 4088.111
327.1210, 4469.519
328.4780, 4626.841
329.8340, 4241.231
331.1900, 3699.441
332.5460, 3161.606
333.9020, 2626.760
335.2570, 2093.718
336.6120, 1755.584
337.9670, 1487.865
339.3220, 1216.914
340.6770, 1116.212
342.0310, 968.2961
343.3850, 816.5579
344.7390, 723.4744
346.0930, 585.8301
347.4460, 560.4038
348.7990, 513.9785
350.1530, 427.9146
351.5050, 422.1182
352.8580, 337.9370
354.2100, 281.7131
355.5630, 359.9355
356.9150, 304.3748
358.2670, 346.5356
359.6180, 333.6177
360.9690, 356.0647
362.3210, 384.8235
363.6720, 436.7681
365.0220, 440.9065
366.3730, 493.5830
367.7230, 527.3108
369.0730, 552.9244
370.4230, 627.7402
371.7730, 684.8328
373.1220, 753.9686
374.4710, 745.2727
375.8210, 860.7504
377.1690, 953.6268
378.5180, 932.8235
379.8660, 1089.881
381.2150, 1141.240
382.5630, 1232.114
383.9100, 1302.340
385.2580, 1392.972
386.6050, 1498.736
387.9520, 1654.848
389.2990, 1686.760
390.6460, 1724.591
391.9920, 1908.141
393.3390, 1943.614
394.6850, 2042.459
396.0310, 2158.560
397.3760, 2188.433
398.7220, 2268.776
400.0670, 2239.060
401.4120, 2299.426
402.7570, 2235.103
404.1010, 2185.081
405.4460, 2242.030
406.7900, 2048.607
408.1340, 1992.045
409.4780, 1875.463
410.8210, 1805.702
412.1650, 1706.749
413.5080, 1619.444
414.8510, 1549.658
416.1930, 1511.867
417.5360, 1430.320
418.8780, 1434.173
420.2200, 1354.468
421.5620, 1359.075
422.9040, 1343.243
424.2450, 1310.094
425.5860, 1374.029
426.9270, 1519.984
428.2680, 1568.870
429.6090, 1715.932
430.9490, 1763.888
432.2890, 1985.899
433.6290, 2279.696
434.9690, 2621.761
436.3090, 2888.517
437.6480, 3493.441
438.9870, 4496.206
440.3260, 5414.919
441.6650, 6123.502
443.0030, 7509.043
444.3420, 9274.021
445.6800, 11446.37
447.0180, 13673.71
448.3550, 15516.01
449.6930, 16516.46
451.0300, 16469.25
452.3670, 15792.95
453.7040, 14155.43
455.0410, 12377.51
456.3770, 10080.98
457.7130, 8417.184
459.0490, 6876.764
460.3850, 5634.033
461.7210, 4680.386
463.0560, 3805.688
464.3910, 3265.643
465.7260, 2737.297
467.0610, 2344.334
468.3950, 2032.238
469.7300, 1736.473
471.0640, 1543.250
472.3980, 1348.879
473.7310, 1254.724
475.0650, 1074.798
476.3980, 915.8378
477.7310, 859.0806
479.0640, 762.4166
480.3970, 679.1113
481.7290, 585.4719
483.0620, 534.8567
484.3940, 507.1907
485.7250, 466.2986
487.0570, 419.4446
488.3890, 388.2355
489.7200, 334.9438
491.0510, 336.5907
492.3820, 303.1166
493.7120, 259.5699
495.0430, 260.9496
496.3730, 235.2568
497.7030, 203.4911
499.0320, 215.6549
500.3620, 214.7587
501.6910, 169.6538
503.0200, 133.0475
504.3490, 173.9956
505.6780, 94.82080
507.0070, 93.34070
508.3350, 108.0179
509.6630, 68.76501
510.9910, 53.37268
512.3190, 46.13232
513.6460, 40.67029
514.9730, 29.06274
516.3000, 25.01318
517.6270, 15.62231
518.9540, 15.20117
520.2800, 6.126831
521.6070, 9.411743
522.9330, 30.62976
524.2590, 6.694092
525.5840, 22.80115
526.9100, 21.75293
528.2350, 30.62781
529.5600, 49.46045
530.8850, 38.04956
532.2090, 51.43982
533.5340, 35.65222
534.8580, 49.93518
536.1820, 37.85889
537.5060, 53.14539
538.8290, 16.35132
540.1520, 5.615845
541.4760, 8.065552
542.7990, 41.69568
544.1210, 76.27808
545.4440, 166.8157
546.7660, 308.3136
548.0880, 395.2949
549.4100, 642.9088
550.7320, 809.3857
552.0530, 962.9707
553.3750, 997.6149
554.6960, 1029.183
556.0170, 923.0630
557.3370, 842.5597
558.6580, 736.1553
559.9780, 621.0427
561.2980, 567.8730
562.6180, 497.6288
563.9380, 447.1383
565.2570, 404.6716
566.5760, 331.5347
567.8950, 360.6447
569.2140, 290.7244
570.5330, 309.8655
571.8510, 277.9033
573.1700, 217.5927
574.4880, 203.9402
575.8050, 226.8110
577.1230, 202.6519
578.4400, 202.3771
579.7580, 193.2480
581.0750, 169.5522
582.3910, 172.4735
583.7080, 139.6708
585.0240, 120.9283
586.3410, 123.8569
587.6570, 68.38550
588.9720, 79.86975
590.2880, 53.30994
591.6030, 90.70557
592.9180, 13.05835
594.2330, 73.36548
595.5480, 19.62964
596.8630, 43.84912
598.1770, 27.02490
599.4910, 26.15698
600.8050, 3.245850
602.1190, 25.70935
603.4320, 4.715210
604.7460, 8.238647
606.0590, 22.84094
607.3720, 9.959839
608.6850, 0.1071780
609.9970, 52.27405
611.3090, 46.46985
612.6210, 52.68750
613.9330, 58.92664
615.2450, 48.17139
616.5570, 34.41394
617.8680, 33.63611
619.1790, 43.83643
620.4900, 52.01758
621.8010, 35.16882
623.1110, 28.28479
624.4210, 5.362793
625.7310, 18.73328
627.0410, 42.63123
628.3510, 49.30261
629.6600, 18.77917
630.9700, 1.880005
632.2790, 2.6860000E-03
633.5880, 35.12939
634.8960, 22.26929
636.2050, 28.40698
637.5130, 18.53320
638.8210, 44.64221
640.1290, 43.72729
641.4370, 36.78821
642.7440, 71.82544
644.0510, 43.84009
645.3580, 109.8320
646.6650, 110.7567
647.9720, 106.4546
649.2780, 179.1559
650.5840, 185.7144
651.8900, 204.0883
653.1960, 266.4658
654.5020, 331.7339
655.8070, 392.8677
657.1130, 511.0515
658.4180, 579.4133
659.7220, 717.4424
661.0270, 909.5547
662.3310, 1083.435
663.6360, 1296.052
664.9400, 1688.733
666.2440, 2061.589
667.5470, 2507.422
668.8510, 3077.941
670.1540, 3652.429
671.4570, 4124.896
672.7600, 4339.314
674.0620, 4295.716
675.3650, 4065.077
676.6670, 3640.436
677.9690, 3079.624
679.2710, 2622.762
680.5720, 2141.468
681.8740, 1714.645
683.1750, 1366.523
684.4760, 1124.419
685.7770, 948.1011
687.0770, 753.2346
688.3780, 654.7053
689.6780, 470.7494
690.9780, 415.2703
692.2780, 320.3403
693.5770, 275.7766
694.8770, 184.7146
696.1760, 189.6719
697.4750, 170.8188
698.7740, 119.0977
700.0720, 107.5138
701.3710, 60.07141
702.6690, 56.00476
703.9670, 5.359863
705.2650, 15.69617
706.5620, 28.01721
707.8600, 14.32434
709.1570, 10.38379
710.4540, 12.88330
711.7510, 15.86536
713.0470, 27.64087
714.3440, 11.44885
715.6400, 17.28162
716.9360, 2.858032
718.2320, 3.979370
719.5270, 9.245605
720.8230, 30.82971
722.1180, 0.2247310
723.4130, 20.26013
724.7080, 23.71667
726.0020, 6.723267
727.2970, 23.75134
728.5910, 17.80872
729.8850, 11.97046
731.1790, 26.79211
732.4720, 42.65015
733.7660, 20.59290
735.0590, 19.13879
736.3520, 14.16882
737.6450, 14.40479
738.9370, 5.988037
740.2300, 28.42786
741.5220, 50.79041
742.8140, 66.16663
744.1060, 61.31250
745.3970, 76.49854
746.6890, 72.55139
747.9800, 76.84106
749.2710, 75.76453
750.5620, 77.73706
751.8530, 72.90027
753.1430, 87.96204
754.4330, 78.95679
755.7230, 94.95166
757.0130, 142.8446
758.3030, 95.76782
759.5920, 127.4694
760.8810, 84.40735
762.1700, 115.4298
763.4590, 105.9595
764.7480, 154.7954
766.0360, 131.3630
767.3250, 124.2129
768.6130, 200.7349
769.9010, 148.9069
771.1880, 188.6450
772.4760, 188.0676
773.7630, 160.5225
775.0500, 175.4595
776.3370, 136.9648
777.6240, 137.3220
778.9100, 163.0195
780.1960, 179.7115
781.4820, 176.8401
782.7680, 175.0364
784.0540, 158.6218
785.3390, 135.7269
786.6250, 169.6635
787.9100, 180.5342
789.1950, 132.7175
790.4790, 177.8501
791.7640, 151.0114
793.0480, 123.1356
794.3320, 96.37378
795.6160, 123.6113
796.9000, 121.8234
798.1830, 75.18567
799.4670, 97.43445
800.7500, 79.96692
802.0330, 95.50952
803.3160, 59.04163
804.5980, 27.62048
805.8800, 55.19836
807.1630, 65.77625
808.4450, 59.35400
809.7260, 9.932251
811.0080, 22.51172
812.2890, 9.2041001E-02
813.5700, 4.671143
814.8510, 2.159302
816.1320, 15.16833
817.4130, 16.59424
818.6930, 8.974609
819.9730, 1.546875
821.2530, 1.879272
822.5330, 24.69604
823.8130, 15.27527
825.0920, 23.30627
826.3710, 29.44763
827.6500, 33.04114
828.9290, 35.63977
830.2080, 51.24353
831.4860, 68.85278
832.7640, 37.46863
834.0420, 38.09119
835.3200, 64.72278
836.5980, 73.36121
837.8750, 78.51794
839.1520, 96.66296
840.4290, 89.32751
841.7060, 96.00403
842.9830, 105.6909
844.2590, 111.5917
845.5360, 128.1006
846.8120, 138.8232
848.0880, 155.5569
849.3630, 178.3040
850.6390, 192.6786
851.9140, 212.7909
853.1890, 234.5931
854.4640, 246.3699
855.7390, 278.1527
857.0130, 287.9398
858.2880, 307.2118
859.5620, 336.8196
860.8360, 360.5332
862.1100, 394.1096
863.3830, 405.5978
864.6560, 443.7104
865.9300, 456.0679
867.2030, 486.8899
868.4750, 489.3229
869.7480, 461.4402
871.0200, 483.5913
872.2920, 516.7961
873.5640, 580.2246
874.8360, 585.6078
876.1080, 597.6405
877.3790, 653.4072
878.6500, 688.1846
879.9220, 703.8821
881.1920, 770.6655
882.4630, 829.7771
883.7330, 841.2122
885.0040, 935.1016
886.2740, 931.9978
887.5440, 1057.985
888.8130, 1091.798
890.0830, 1215.151
891.3520, 1249.856
892.6210, 1375.251
893.8900, 1414.196
895.1590, 1554.149
896.4270, 1681.112
897.6950, 1762.086
898.9640, 1907.069
900.2320, 2094.064
901.4990, 2328.068
902.7670, 2454.083
904.0340, 2728.110
905.3010, 3000.147
906.5680, 3215.196
907.8350, 3691.256
909.1020, 4264.328
910.3680, 4715.410
911.6340, 5408.510
912.9000, 6293.624
914.1660, 7361.749
915.4320, 8775.896
916.6970, 10671.05
917.9620, 12920.22
919.2270, 15849.41
920.4920, 19754.63
921.7570, 24267.87
923.0210, 29029.26
924.2850, 33871.90
925.5500, 39182.65
926.8130, 41958.57
928.0770, 44906.31
929.3410, 45479.94
930.6040, 45419.36
931.8670, 42648.16
933.1300, 37724.18
934.3930, 30765.62
935.6550, 24638.29
936.9180, 19517.76
938.1800, 14979.24
939.4420, 12181.73
940.7030, 9700.230
941.9650, 7879.747
943.2260, 6688.284
944.4880, 5605.068
945.7490, 4719.835
947.0090, 4029.412
948.2700, 3502.984
949.5300, 3057.567
950.7910, 2640.161
952.0510, 2331.578
953.3110, 2083.690
954.5700, 1837.778
955.8300, 1643.415
957.0890, 1523.061
958.3480, 1319.723
959.6070, 1243.396
960.8660, 1119.079
962.1240, 1035.776
963.3830, 894.4836
964.6410, 832.0204
965.8990, 748.7124
967.1560, 687.1810
968.4140, 654.0676
969.6710, 584.9020
970.9280, 533.6788
972.1850, 528.3562
973.4420, 452.9032
974.6990, 445.7128
975.9550, 426.5337
977.2110, 403.3685
978.4680, 379.2155
979.7230, 363.0769
980.9790, 375.9497
982.2340, 362.8362
983.4900, 328.7346
984.7450, 325.6469
986.0000, 269.5811
987.2540, 327.5258
988.5090, 266.4812
989.7630, 329.4480
991.0170, 317.4324
992.2710, 288.4324
993.5250, 273.4540
994.7790, 267.8641
996.0320, 245.5461
997.2850, 260.6099
998.5380, 268.6842
999.7910, 263.7688
1001.044, 263.8638
1002.296, 289.9697
1003.548, 205.0876
1004.800, 242.2209
1006.052, 263.3724
1007.304, 197.5405
1008.555, 190.7228
1009.807, 187.9207
1011.058, 172.1323
1012.309, 149.3593
1013.559, 194.5989
1014.810, 188.8610
1016.060, 194.1438
1017.310, 101.4446
1018.560, 117.7661
1019.810, 139.1077
1021.060, 86.46875
1022.309, 134.8450
1023.558, 89.23438
1024.807, 72.63525
1026.056, 120.0579
1027.305, 44.49402
1028.553, 83.95496
1029.801, 50.43433
1031.049, 69.93066
1032.297, 58.44824
1033.545, 58.98279
1034.793, 93.53491
1036.040, 62.09583
1037.287, 26.66541
1038.534, 23.25281
1039.781, 63.84961
1041.027, 58.46204
1042.274, 60.08459
1043.520, 41.71826
1044.766, 49.16626
1046.012, 77.01270
1047.257, 50.67249
1048.503, 49.34033
1049.748, 39.56848
1050.993, 66.70056
1052.238, 38.39258
1053.483, 38.09241
1054.727, 52.80005
1055.971, 37.51526
1057.216, 49.23804
1058.459, 53.96826
1059.703, 43.70605
1060.947, 37.45117
1062.190, 17.20337
1063.433, 22.96277
1064.676, 0.2708740
1065.919, 52.50232
1067.162, 63.28247
1068.404, 26.06934
1069.646, 0.1373290
1070.888, 4.662598
1072.130, 6.531128
1073.372, 13.56799
1074.613, 15.90613
1075.855, 19.09082
1077.096, 14.27502
1078.337, 10.45740
1079.578, 28.63647
1080.818, 14.04260
1082.059, 18.87512
1083.299, 2.817139
1084.539, 9.359375
1085.779, 1.466675
1087.018, 20.29773
1088.258, 26.13379
1089.497, 19.97461
1090.736, 5.820190
1091.975, 0.3297120
1093.213, 9.475220
1094.452, 8.618896
1095.690, 0.7602540
1096.928, 24.10229
1098.166, 8.005371
1099.404, 34.89355
1100.642, 22.06995
1101.879, 15.19849
1103.116, 14.31348
1104.353, 14.62280
1105.590, 5.496704
1106.827, 5.682739
1108.063, 24.83313
1109.299, 21.77417
1110.536, 48.61414
1111.771, 31.57410
1113.007, 46.99316
1114.243, 43.12927
1115.478, 38.35449
1116.713, 27.78650
1117.948, 55.91162
1119.183, 46.12158
1120.418, 168.1091
1121.652, 358.1143
1122.886, 328.9248
1124.120, 547.5674
1125.354, 328.3578
1126.588, 242.7565
1127.821, 142.6023
1129.055, 143.9240
1130.288, 105.6438
1131.521, 141.0000
1132.753, 107.7731
1133.986, 120.5105
1135.218, 138.5754
1136.450, 121.6610
1137.682, 128.9478
1138.914, 107.6422
1140.146, 133.8448
1141.377, 147.6259
1142.609, 124.5321
1143.840, 127.0280
1145.071, 101.4194
1146.301, 92.54468
1147.532, 89.19763
1148.762, 125.8038
1149.992, 82.03955
1151.222, 107.5620
1152.452, 106.8923
1153.682, 94.86816
1154.911, 77.44299
1156.140, 108.5164
1157.369, 95.29346
1158.598, 97.01367
1159.827, 97.20605
1161.055, 61.70374
1162.284, 128.1904
1163.512, 85.51648
1164.740, 131.7213
1165.967, 114.0173
1167.195, 213.9509
1168.422, 164.4873
1169.650, 194.0597
1170.877, 178.1608
1172.103, 198.1512
1173.330, 204.5098
1174.557, 196.5470
1175.783, 235.0242
1177.009, 243.9705
1178.235, 279.4976
1179.461, 272.1118
1180.686, 295.0588
1181.912, 323.4417
1183.137, 335.3110
1184.362, 362.2164
1185.587, 388.6207
1186.811, 369.1802
1188.036, 432.9855
1189.260, 346.9298
1190.484, 332.7927
1191.708, 362.8386
1192.932, 356.7434
1194.155, 324.5791
1195.378, 361.3834
1196.602, 320.2479
1197.825, 320.0403
1199.047, 372.8625
1200.270, 354.6431
1201.492, 380.4172
1202.715, 334.1851
1203.937, 382.9463
1205.159, 286.7007
1206.380, 312.4486
1207.602, 304.1897
1208.823, 316.9241
1210.044, 325.6514
1211.265, 289.3716
1212.486, 293.0762
1213.707, 260.7821
1214.927, 291.4807
1216.147, 276.1753
1217.367, 285.8551
1218.587, 308.5348
1219.807, 267.0833
1221.027, 289.3866
1222.246, 242.5854
1223.465, 237.6398
1224.684, 244.8844
1225.903, 233.2626
1227.121, 222.8457
1228.340, 165.0665
1229.558, 225.0742
1230.776, 151.6765
1231.994, 163.0430
1233.212, 142.6292
1234.429, 104.2067
1235.646, 92.77576
1236.864, 42.33655
1238.081, 85.88855
1239.297, 106.4214
1240.514, 84.70923
1241.730, 74.01733
1242.947, 52.51697
1244.163, 37.02734
1245.378, 42.53186
1246.594, 22.03137
1247.810, 49.71582
1249.025, 44.70020
1250.240, 32.70947
1251.455, 59.17212
1252.670, 7.373291
1253.885, 17.06653
1255.099, 38.49768
1256.313, 1.079224
1257.527, 37.32837
1258.741, 8.722900
1259.955, 21.10315
1261.168, 17.48889
1262.382, 9.833374
1263.595, 24.18860
1264.808, 20.49854
1266.021, 43.84607
1267.233, 41.11072
1268.446, 19.43079
1269.658, 24.41431
1270.870, 2.931152
1272.082, 15.12354
1273.294, 2.295044
1274.505, 19.44287
1275.716, 5.568604
1276.928, 18.67017
1278.139, 4.750244
1279.349, 27.19019
1280.560, 38.84668
1281.770, 36.92163
1282.981, 23.91357
1284.191, 10.02966
1285.401, 2.078613
1286.610, 27.10986
1287.820, 13.06152
1289.029, 15.83044
1290.239, 20.70801
1291.448, 36.64258
1292.656, 39.39099
1293.865, 34.20361
1295.073, 30.17065
1296.282, 15.98767
1297.490, 3.208984
1298.698, 13.42261
1299.906, 6.974976
1301.113, 1.092163
1302.320, 7.823975
1303.528, 9.613647
1304.735, 0.6846920
1305.942, 18.02527
1307.148, 5.304443
1308.355, 18.65283
1309.561, 33.97681
1310.767, 28.59277
1311.973, 4.194824
1313.179, 16.78015
1314.384, 15.35046
1315.590, 41.90527
1316.795, 59.44678
1318.000, 24.97461
1319.205, 47.48743
1320.410, 37.01343
1321.614, 67.45703
1322.819, 16.91382
1324.023, 13.35425
1325.227, 64.77771
1326.431, 23.23730
1327.634, 81.84741
1328.838, 72.22681
1330.041, 58.59326
1331.244, 57.94666
1332.447, 81.28760
1333.650, 58.61646
1334.852, 76.93250
1336.055, 43.23645
1337.257, 64.52759
1338.459, 79.80554
1339.661, 95.07141
1340.862, 70.44446
1342.064, 103.6873
1343.265, 77.91895
1344.466, 110.3169
1345.667, 102.5247
1346.868, 181.7207
1348.068, 177.9050
1349.269, 190.0780
1350.469, 192.2839
1351.669, 195.8105
1352.869, 207.0366
1354.069, 199.7014
1355.268, 229.8182
1356.468, 224.9242
1357.667, 243.0248
1358.866, 258.1038
1360.065, 296.9863
1361.263, 286.0442
1362.462, 297.0917
1363.660, 310.3201
1364.858, 300.3445
1366.056, 336.3553
1367.254, 316.3579
1368.451, 319.3528
1369.649, 369.3395
1370.846, 309.3152
1372.043, 301.2852
1373.240, 297.2633
1374.436, 305.1782
1375.633, 300.1763
1376.829, 288.0142
1378.025, 281.0123
1379.221, 249.7512
1380.417, 250.6185
1381.613, 217.4038
1382.808, 196.1675
1384.003, 213.8967
1385.199, 183.6082
1386.393, 190.2773
1387.588, 177.9899
1388.783, 171.5419
1389.977, 139.2548
1391.171, 153.9054
1392.365, 144.5486
1393.559, 147.5747
1394.753, 147.5936
1395.946, 158.6206
1397.140, 153.4297
1398.333, 114.6265
1399.526, 151.7292
1400.719, 135.0420
1401.911, 115.0214
1403.104, 148.1940
1404.296, 83.23181
1405.488, 120.3005
1406.680, 80.12537
1407.872, 123.9536
1409.063, 61.56897
1410.255, 97.61719
1411.446, 62.43262
1412.637, 70.00024
1413.828, 122.7349
1415.018, 99.27246
1416.209, 104.8390
1417.399, 86.24683
1418.589, 70.47742
1419.779, 63.90430
1420.969, 95.93982
1422.159, 69.06079
1423.348, 106.4797
1424.537, 49.43567
1425.726, 68.14929
1426.915, 35.89185
1428.104, 71.68994
1429.293, 47.21460
1430.481, 26.48425
1431.669, 60.86426
1432.857, 71.02246
1434.045, 37.36816
1435.233, 56.76147
1436.420, 52.17639
1437.608, 81.62231
1438.795, 71.04639
1439.982, 83.44812
1441.169, 77.82703
1442.355, 100.1832
1443.542, 93.51624
1444.728, 53.82019
1445.914, 33.09460
1447.100, 59.34155
1448.286, 43.56384
1449.472, 50.76074
1450.657, 95.93152
1451.842, 48.07532
1453.027, 98.19165
1454.212, 54.28174
1455.397, 55.34485
1456.581, 65.38257
1457.766, 48.39514
1458.950, 102.3574
1460.134, 64.25757
1461.318, 50.13245
1462.501, 84.96838
1463.685, 52.76221
1464.868, 105.5120
1466.051, 84.24817
1467.234, 78.94629
1468.417, 26.64893
1469.600, 6.335205
1470.782, 41.91467
1471.965, 68.78174
1473.147, 83.72986
1474.329, 50.75366
1475.510, 45.84717
1476.692, 52.80261
1477.873, 54.78027
1479.055, 41.91504
1480.236, 59.73157
1481.416, 46.72498
1482.597, 9.895264
1483.778, 57.06726
1484.958, 53.22388
1486.138, 4.366211
1487.318, 60.24316
1488.498, 54.26514
1489.678, 48.36694
1490.857, 66.46252
1492.037, 18.55640
1493.216, 28.65161
1494.395, 37.75391
1495.574, 37.87048
1496.752, 51.00879
1497.931, 57.17627
1499.109, 24.07874
1500.287, 78.26709
1501.465, 9.527100
1502.643, 42.68872
1503.820, 40.91895
1504.998, 1.173096
1506.175, 50.66797
1507.352, 79.67554
1508.529, 31.84656
1509.706, 46.02075
1510.882, 23.82898
1512.059, 37.97839
1513.235, 61.11694
1514.411, 20.23474
1515.587, 57.17883
1516.762, 1.2939000E-02
1517.938, 80.80811
1519.113, 24.32007
1520.288, 14.30981
1521.463, 0.1542970
1522.638, 24.51172
1523.813, 72.82300
1524.987, 43.15332
1526.162, 5.8350001E-02
1527.336, 0.0000000E+00
##END=



