##NAMES=Hendersonite
##RRUFFID=R070467
##IDEAL CHEMISTRY=Ca_1+x_(V^5+^,V^4+^)_6_O_16_&#183;6H_2_O
##LOCALITY=Mineral Joe No. 1 mine, Paradox Valley, Uravan District, Montrose County, Colorado, USA
##OWNER=RRUFF
##SOURCE=Michael Scott
##DESCRIPTION=Black to dark green massive associated with rounded pebbles of quartz
##STATUS=The identification of this mineral is not yet confirmed.
##URL=rruff.info/R070467
137.8699, 0.0000000E+00
138.3520, 2.535645
138.8341, 15.30420
139.3162, 41.28271
139.7984, 147.5581
140.2805, 300.7471
140.7626, 496.7905
141.2447, 694.9546
141.7268, 877.8130
142.2089, 1036.553
142.6911, 1207.596
143.1732, 1385.848
143.6553, 1574.288
144.1374, 1781.670
144.6195, 2017.731
145.1016, 2251.139
145.5838, 2467.653
146.0659, 2661.354
146.5480, 2854.503
147.0301, 3058.667
147.5122, 3263.081
147.9943, 3432.955
148.4765, 3545.661
148.9586, 3641.684
149.4407, 3745.072
149.9228, 3867.670
150.4049, 3980.395
150.8870, 4076.411
151.3692, 4155.844
151.8513, 4239.873
152.3334, 4335.306
152.8155, 4431.470
153.2976, 4521.258
153.7797, 4598.599
154.2619, 4674.620
154.7440, 4749.713
155.2261, 4822.645
155.7082, 4901.209
156.1903, 5000.389
156.6724, 5101.864
157.1546, 5181.451
157.6367, 5226.740
158.1188, 5257.005
158.6009, 5278.712
159.0830, 5293.575
159.5652, 5297.126
160.0473, 5289.530
160.5294, 5269.761
161.0115, 5236.282
161.4936, 5192.400
161.9757, 5131.967
162.4579, 5049.345
162.9400, 4931.620
163.4221, 4811.969
163.9042, 4715.739
164.3863, 4634.734
164.8684, 4535.931
165.3506, 4364.926
165.8327, 4172.662
166.3148, 4013.091
166.7969, 3938.254
167.2790, 3861.740
167.7611, 3717.519
168.2433, 3506.616
168.7254, 3306.036
169.2075, 3153.297
169.6896, 3019.215
170.1717, 2894.076
170.6538, 2777.027
171.1360, 2652.396
171.6181, 2509.766
172.1002, 2360.417
172.5823, 2215.441
173.0644, 2098.489
173.5465, 2001.685
174.0287, 1907.622
174.5108, 1812.981
174.9929, 1713.164
175.4750, 1611.788
175.9571, 1501.420
176.4392, 1397.478
176.9214, 1317.438
177.4035, 1249.876
177.8856, 1182.866
178.3677, 1110.871
178.8498, 1035.243
179.3319, 959.2007
179.8141, 881.1782
180.2962, 810.2246
180.7783, 762.8486
181.2604, 735.4751
181.7425, 704.4414
182.2246, 649.6138
182.7068, 580.0972
183.1889, 515.4653
183.6710, 460.1528
184.1531, 410.8833
184.6352, 361.6816
185.1173, 312.5425
185.5995, 271.5942
186.0816, 251.1440
186.5637, 245.7139
187.0458, 234.2998
187.5279, 209.9912
188.0100, 177.9126
188.4922, 152.0801
188.9743, 132.8701
189.4564, 110.8403
189.9385, 70.09814
190.4206, 14.22705
190.9027, 28.90381
191.3849, 49.13135
191.8670, 50.44189
192.3491, 44.96631
192.8312, 30.95752
193.3133, 18.56836
193.7955, 21.00635
194.2776, 38.01807
194.7597, 57.44043
195.2418, 78.12891
195.7239, 102.0610
196.2060, 114.8799
196.6882, 114.6152
197.1703, 105.5039
197.6524, 87.89648
198.1345, 60.78955
198.6166, 44.65381
199.0987, 56.87939
199.5809, 97.56738
200.0630, 117.4331
200.5451, 110.9678
201.0272, 91.27051
201.5093, 83.02637
201.9914, 88.87451
202.4736, 92.95215
202.9557, 85.69385
203.4378, 65.91699
203.9199, 48.38770
204.4020, 32.41895
204.8841, 20.33008
205.3663, 22.40283
205.8484, 44.85596
206.3305, 84.52930
206.8126, 54.56934
207.2947, 37.26465
207.7768, 31.90869
208.2590, 75.94922
208.7411, 54.95557
209.2232, 59.27344
209.7053, 64.12158
210.1874, 32.46338
210.6695, 66.59570
211.1517, 34.48047
211.6338, 28.10010
212.1159, 9.205078
212.5980, 15.81348
213.0801, 13.88818
213.5622, 14.55078
214.0444, 29.08594
214.5265, 21.48438
215.0086, 44.14795
215.4907, 14.13379
215.9728, 31.28418
216.4549, 69.07422
216.9371, 65.29688
217.4192, 90.96338
217.9013, 106.1250
218.3834, 71.72852
218.8655, 124.9380
219.3476, 141.0073
219.8298, 118.9302
220.3119, 170.7290
220.7940, 155.0337
221.2761, 164.1475
221.7582, 192.0630
222.2403, 201.4458
222.7225, 241.3438
223.2046, 252.8003
223.6867, 262.1855
224.1688, 283.3379
224.6509, 272.9741
225.1330, 322.3408
225.6152, 331.6514
226.0973, 361.5835
226.5794, 392.6108
227.0615, 409.7993
227.5436, 437.2256
228.0257, 445.1172
228.5079, 460.1431
228.9900, 496.4111
229.4721, 522.2871
229.9542, 531.2856
230.4363, 564.4497
230.9185, 556.8335
231.4006, 586.6040
231.8827, 632.9932
232.3648, 647.2847
232.8469, 685.1021
233.3290, 715.1670
233.8112, 706.9268
234.2933, 767.7778
234.7754, 800.0342
235.2575, 802.9277
235.7396, 864.1816
236.2217, 873.0991
236.7039, 901.9653
237.1860, 946.0645
237.6681, 976.1860
238.1502, 1030.760
238.6323, 1063.619
239.1144, 1095.391
239.5966, 1136.945
240.0787, 1154.404
240.5608, 1219.238
241.0429, 1253.288
241.5250, 1304.042
242.0071, 1359.312
242.4893, 1388.164
242.9714, 1446.909
243.4535, 1461.666
243.9356, 1549.740
244.4177, 1596.303
244.8998, 1629.496
245.3820, 1671.566
245.8641, 1724.389
246.3462, 1783.592
246.8283, 1847.475
247.3104, 1917.714
247.7925, 1988.104
248.2747, 2059.392
248.7568, 2129.287
249.2389, 2194.138
249.7210, 2249.314
250.2031, 2309.194
250.6852, 2384.041
251.1674, 2486.175
251.6495, 2569.870
252.1316, 2623.386
252.6137, 2657.889
253.0958, 2708.573
253.5779, 2780.951
254.0601, 2861.498
254.5422, 2944.760
255.0243, 3034.774
255.5064, 3117.684
255.9885, 3189.832
256.4706, 3254.608
256.9528, 3328.892
257.4349, 3422.174
257.9170, 3506.211
258.3991, 3564.608
258.8812, 3584.579
259.3633, 3616.180
259.8455, 3666.217
260.3276, 3728.515
260.8097, 3779.930
261.2918, 3817.260
261.7739, 3852.513
262.2560, 3895.653
262.7382, 3955.267
263.2203, 3995.237
263.7024, 4010.210
264.1845, 4002.692
264.6666, 3991.018
265.1487, 3977.314
265.6309, 3951.903
266.1130, 3903.423
266.5951, 3828.158
267.0772, 3758.466
267.5593, 3697.371
268.0414, 3644.920
268.5236, 3594.206
269.0057, 3554.370
269.4878, 3505.955
269.9699, 3437.126
270.4520, 3343.281
270.9341, 3241.092
271.4163, 3128.314
271.8984, 3011.140
272.3805, 2912.447
272.8626, 2836.788
273.3447, 2766.516
273.8268, 2695.197
274.3090, 2623.463
274.7911, 2551.495
275.2732, 2483.455
275.7553, 2414.842
276.2374, 2330.395
276.7195, 2226.851
277.2017, 2127.072
277.6838, 2049.753
278.1659, 1998.603
278.6480, 1933.081
279.1301, 1843.177
279.6122, 1743.752
280.0944, 1669.532
280.5765, 1624.487
281.0586, 1585.510
281.5407, 1539.913
282.0229, 1487.538
282.5050, 1429.878
282.9871, 1363.107
283.4692, 1296.262
283.9513, 1250.799
284.4334, 1228.335
284.9156, 1206.788
285.3977, 1169.268
285.8798, 1117.874
286.3619, 1078.825
286.8440, 1056.613
287.3261, 1042.996
287.8083, 1024.614
288.2904, 1001.693
288.7725, 972.9878
289.2546, 927.6021
289.7367, 871.6289
290.2188, 842.5254
290.7010, 849.0659
291.1831, 871.0210
291.6652, 877.7842
292.1473, 869.9658
292.6294, 854.7231
293.1115, 831.3125
293.5937, 802.9688
294.0758, 781.4316
294.5579, 768.5693
295.0400, 760.3521
295.5221, 751.3760
296.0042, 741.6938
296.4864, 732.8389
296.9685, 705.5898
297.4506, 723.7749
297.9327, 731.0850
298.4148, 727.9321
298.8969, 685.3423
299.3791, 694.2358
299.8612, 682.0322
300.3433, 668.6958
300.8254, 683.4766
301.3075, 647.7686
301.7896, 662.7725
302.2718, 657.5459
302.7539, 662.3613
303.2360, 645.6260
303.7181, 637.3174
304.2002, 647.8105
304.6823, 647.1045
305.1645, 628.1533
305.6466, 633.3188
306.1287, 597.3027
306.6108, 596.6846
307.0929, 611.6567
307.5750, 594.7461
308.0572, 599.7900
308.5393, 598.8433
309.0214, 558.3906
309.5035, 577.4912
309.9856, 578.1548
310.4677, 575.5518
310.9499, 572.9146
311.4320, 568.9937
311.9141, 561.0391
312.3962, 545.5854
312.8783, 528.5869
313.3604, 509.5308
313.8426, 489.2212
314.3247, 477.4868
314.8068, 495.1382
315.2889, 519.6348
315.7710, 527.1191
316.2531, 489.3208
316.7353, 451.1069
317.2174, 437.8608
317.6995, 446.8779
318.1816, 449.7158
318.6637, 424.6108
319.1458, 393.3975
319.6280, 373.6523
320.1101, 389.9219
320.5922, 398.8877
321.0743, 379.7803
321.5564, 338.8149
322.0385, 310.8364
322.5207, 323.1470
323.0028, 339.6924
323.4849, 337.8916
323.9670, 293.1216
324.4491, 255.1655
324.9312, 228.8594
325.4134, 214.3560
325.8955, 212.2119
326.3776, 241.9009
326.8597, 269.4775
327.3418, 278.9912
327.8239, 254.5986
328.3061, 232.8950
328.7882, 216.5547
329.2703, 203.4775
329.7524, 188.0151
330.2345, 160.5210
330.7166, 140.1436
331.1988, 136.2759
331.6809, 162.9478
332.1630, 173.4395
332.6451, 160.1230
333.1272, 133.3008
333.6093, 111.9409
334.0915, 96.73389
334.5736, 85.68018
335.0557, 78.19287
335.5378, 74.30225
336.0199, 74.94971
336.5020, 84.14648
336.9842, 94.05518
337.4663, 92.21191
337.9484, 73.08936
338.4305, 57.31836
338.9126, 51.74365
339.3947, 56.46338
339.8769, 57.80664
340.3590, 53.70605
340.8411, 50.50732
341.3232, 59.30615
341.8053, 83.04639
342.2874, 94.34619
342.7696, 81.27734
343.2517, 49.76123
343.7338, 33.14453
344.2159, 33.26221
344.6980, 37.40625
345.1801, 31.61670
345.6623, 17.04980
346.1444, 11.53369
346.6265, 21.95508
347.1086, 40.86523
347.5907, 51.62598
348.0728, 54.02637
348.5550, 53.14355
349.0371, 49.95117
349.5192, 46.03516
350.0013, 48.19873
350.4834, 60.65918
350.9655, 73.48975
351.4477, 69.48975
351.9298, 51.60498
352.4119, 34.30371
352.8940, 28.85010
353.3762, 29.05859
353.8583, 23.10498
354.3404, 7.198242
354.8225, 5.848145
355.3046, 2.684082
355.7867, 24.16455
356.2689, 37.86816
356.7510, 1.603516
357.2331, 29.09180
357.7152, 43.34619
358.1973, 45.07764
358.6794, 3.159668
359.1616, 13.06982
359.6437, 3.426758
360.1258, 7.304688
360.6079, 17.91309
361.0900, 23.20264
361.5721, 1.380371
362.0543, 0.3085940
362.5364, 9.982422
363.0185, 5.758301
363.5006, 13.49951
363.9827, 4.738770
364.4648, 8.545898
364.9470, 10.31006
365.4291, 0.5649410
365.9112, 41.77002
366.3933, 37.48779
366.8754, 13.11963
367.3575, 30.86523
367.8397, 19.72070
368.3218, 19.63477
368.8039, 26.07129
369.2860, 25.07520
369.7681, 37.61084
370.2502, 40.26318
370.7324, 18.32764
371.2145, 1.233887
371.6966, 2.392090
372.1787, 34.92578
372.6608, 52.32373
373.1429, 46.95654
373.6251, 30.60645
374.1072, 23.35205
374.5893, 30.90820
375.0714, 36.05029
375.5535, 33.14697
376.0356, 21.82080
376.5178, 8.833984
376.9999, 6.107422
377.4820, 21.96436
377.9641, 38.28760
378.4462, 55.96338
378.9283, 69.04346
379.4105, 75.41504
379.8926, 75.95703
380.3747, 72.45850
380.8568, 63.71826
381.3389, 58.53369
381.8210, 67.57227
382.3032, 88.77295
382.7853, 105.2534
383.2674, 111.1846
383.7495, 115.0303
384.2316, 135.7671
384.7137, 171.7749
385.1959, 203.6587
385.6780, 213.3354
386.1601, 209.5020
386.6422, 212.9404
387.1243, 228.4331
387.6064, 246.0791
388.0886, 251.5928
388.5707, 250.7944
389.0528, 258.1143
389.5349, 292.9102
390.0170, 332.0879
390.4991, 352.3838
390.9813, 351.7856
391.4634, 346.5703
391.9455, 336.7886
392.4276, 329.5469
392.9097, 336.2163
393.3918, 376.9429
393.8740, 420.1411
394.3561, 452.3213
394.8382, 472.2866
395.3203, 483.6338
395.8024, 492.4771
396.2845, 491.0273
396.7667, 473.0830
397.2488, 408.3174
397.7309, 363.9297
398.2130, 360.7104
398.6951, 388.1592
399.1772, 413.3887
399.6594, 439.4922
400.1415, 456.8750
400.6236, 460.2471
401.1057, 440.3774
401.5878, 428.0586
402.0699, 430.9375
402.5521, 438.1445
403.0342, 431.2578
403.5163, 394.9790
403.9984, 372.2891
404.4805, 381.8921
404.9626, 424.6777
405.4448, 438.6108
405.9269, 412.2031
406.4090, 377.5889
406.8911, 367.9844
407.3732, 387.8276
407.8553, 402.6465
408.3375, 405.1309
408.8196, 399.1577
409.3017, 396.2261
409.7838, 396.3838
410.2659, 396.9204
410.7480, 397.5737
411.2302, 397.7607
411.7123, 390.6113
412.1944, 371.3589
412.6765, 354.8628
413.1586, 370.8818
413.6407, 412.2349
414.1229, 445.6997
414.6050, 450.4722
415.0871, 439.3662
415.5692, 424.4551
416.0513, 405.5459
416.5334, 390.0469
417.0156, 385.4917
417.4977, 390.2896
417.9798, 403.3501
418.4619, 447.5190
418.9440, 480.1177
419.4261, 470.4365
419.9083, 424.4287
420.3904, 387.5176
420.8725, 386.6816
421.3546, 396.4233
421.8367, 399.8462
422.3188, 387.6797
422.8010, 375.4541
423.2831, 366.3589
423.7652, 358.5996
424.2473, 358.1953
424.7295, 385.5337
425.2116, 401.8242
425.6937, 391.9556
426.1758, 343.1958
426.6579, 314.6367
427.1400, 326.1597
427.6222, 344.3960
428.1043, 334.6860
428.5864, 279.0527
429.0685, 235.6758
429.5506, 213.2935
430.0327, 208.7505
430.5149, 219.6597
430.9970, 257.2017
431.4791, 288.6357
431.9612, 288.8110
432.4433, 255.6782
432.9254, 208.5586
433.4076, 141.9531
433.8897, 76.28467
434.3718, 56.50439
434.8539, 81.32666
435.3360, 104.0215
435.8181, 97.35742
436.3003, 70.43848
436.7824, 46.23535
437.2645, 25.01514
437.7466, 9.148926
438.2287, 4.386230
438.7108, 6.667480
439.1930, 7.139160
439.6751, 3.027344
440.1572, 4.456543
440.6393, 16.16846
441.1214, 31.09229
441.6035, 44.21826
442.0857, 57.63428
442.5678, 65.16943
443.0499, 59.47559
443.5320, 32.59033
444.0141, 9.167480
444.4962, 0.9697270
444.9784, 1.294922
445.4605, 2.379395
445.9426, 11.74170
446.4247, 21.92627
446.9068, 31.17432
447.3889, 39.09229
447.8711, 48.29492
448.3532, 67.68799
448.8353, 82.75977
449.3174, 81.30566
449.7995, 44.69922
450.2816, 23.71973
450.7638, 32.09180
451.2459, 59.45508
451.7280, 63.35693
452.2101, 35.22070
452.6922, 4.311035
453.1743, 15.17188
453.6565, 22.24414
454.1386, 24.13477
454.6207, 18.40771
455.1028, 13.30420
455.5849, 21.72705
456.0670, 42.93994
456.5492, 65.94531
457.0313, 87.04932
457.5134, 107.1362
457.9955, 125.8760
458.4776, 143.6626
458.9597, 165.6475
459.4419, 203.4136
459.9240, 246.4463
460.4061, 276.2451
460.8882, 285.2646
461.3703, 288.2583
461.8524, 289.2363
462.3346, 293.3975
462.8167, 312.8442
463.2988, 380.7485
463.7809, 444.6553
464.2630, 460.4775
464.7451, 419.1680
465.2273, 398.4062
465.7094, 448.5859
466.1915, 519.8247
466.6736, 567.9146
467.1557, 551.8062
467.6378, 548.8687
468.1200, 581.3335
468.6021, 639.6860
469.0842, 679.0469
469.5663, 684.4849
470.0484, 688.2832
470.5305, 704.6592
471.0127, 738.1670
471.4948, 768.3862
471.9769, 792.7153
472.4590, 817.3003
472.9411, 853.0166
473.4232, 902.2402
473.9054, 946.8340
474.3875, 983.3184
474.8696, 1010.697
475.3517, 1020.170
475.8338, 1010.914
476.3159, 1000.829
476.7981, 998.3608
477.2802, 1005.766
477.7623, 1033.454
478.2444, 1087.615
478.7265, 1147.821
479.2086, 1190.230
479.6908, 1219.607
480.1729, 1247.344
480.6550, 1271.178
481.1371, 1301.145
481.6192, 1355.911
482.1013, 1434.525
482.5835, 1492.614
483.0656, 1471.000
483.5477, 1438.199
484.0298, 1452.769
484.5119, 1566.682
484.9940, 1676.925
485.4762, 1770.614
485.9583, 1845.629
486.4404, 1896.502
486.9225, 1886.485
487.4046, 1887.739
487.8867, 1922.994
488.3689, 1998.329
488.8510, 2073.601
489.3331, 2151.157
489.8152, 2226.534
490.2973, 2294.391
490.7794, 2352.003
491.2616, 2412.670
491.7437, 2479.643
492.2258, 2549.833
492.7079, 2610.436
493.1900, 2660.035
493.6722, 2718.270
494.1543, 2805.017
494.6364, 2909.892
495.1185, 2991.705
495.6006, 3044.233
496.0828, 3099.229
496.5649, 3195.917
497.0470, 3317.650
497.5291, 3427.241
498.0112, 3503.837
498.4933, 3573.538
498.9755, 3657.377
499.4576, 3753.115
499.9397, 3847.581
500.4218, 3932.283
500.9039, 4017.086
501.3860, 4114.823
501.8682, 4236.853
502.3503, 4335.393
502.8324, 4365.569
503.3145, 4378.870
503.7966, 4436.804
504.2787, 4589.829
504.7609, 4731.226
505.2430, 4845.924
505.7251, 4936.098
506.2072, 5019.055
506.6893, 5092.370
507.1714, 5163.080
507.6536, 5238.928
508.1357, 5321.068
508.6178, 5387.209
509.0999, 5431.534
509.5820, 5469.463
510.0641, 5527.266
510.5463, 5602.607
511.0284, 5664.132
511.5105, 5696.425
511.9926, 5714.242
512.4747, 5750.970
512.9568, 5803.482
513.4390, 5845.832
513.9211, 5856.186
514.4032, 5847.688
514.8853, 5834.097
515.3674, 5815.341
515.8495, 5800.259
516.3317, 5794.225
516.8138, 5795.125
517.2959, 5800.051
517.7780, 5828.951
518.2601, 5840.826
518.7422, 5814.257
519.2244, 5753.009
519.7065, 5696.347
520.1886, 5660.289
520.6707, 5619.893
521.1528, 5562.123
521.6349, 5474.463
522.1171, 5403.958
522.5992, 5362.886
523.0813, 5326.635
523.5634, 5255.517
524.0455, 5141.603
524.5276, 5035.137
525.0098, 4949.125
525.4919, 4879.815
525.9740, 4815.534
526.4561, 4755.987
526.9382, 4692.049
527.4203, 4611.739
527.9025, 4521.847
528.3846, 4441.074
528.8667, 4371.895
529.3488, 4302.448
529.8309, 4220.301
530.3130, 4131.815
530.7952, 4045.370
531.2773, 3973.767
531.7594, 3895.038
532.2415, 3788.319
532.7236, 3662.094
533.2057, 3556.151
533.6879, 3500.125
534.1700, 3453.287
534.6521, 3395.276
535.1342, 3320.833
535.6163, 3244.529
536.0984, 3161.979
536.5806, 3081.454
537.0627, 3015.562
537.5448, 2977.166
538.0269, 2915.584
538.5090, 2813.813
538.9911, 2689.723
539.4733, 2612.996
539.9554, 2590.242
540.4375, 2560.801
540.9196, 2480.545
541.4017, 2362.224
541.8839, 2271.046
542.3660, 2208.037
542.8481, 2155.297
543.3302, 2094.005
543.8123, 2031.467
544.2944, 1980.967
544.7766, 1952.806
545.2587, 1924.907
545.7408, 1880.315
546.2229, 1824.346
546.7050, 1766.195
547.1871, 1700.465
547.6693, 1639.005
548.1514, 1592.669
548.6335, 1564.894
549.1156, 1530.959
549.5977, 1480.381
550.0798, 1426.312
550.5620, 1378.192
551.0441, 1335.702
551.5262, 1305.452
552.0083, 1292.329
552.4904, 1283.363
552.9725, 1251.965
553.4547, 1194.414
553.9368, 1139.903
554.4189, 1101.552
554.9010, 1074.985
555.3831, 1037.252
555.8652, 987.5391
556.3474, 946.5723
556.8295, 940.9272
557.3116, 953.9004
557.7937, 953.2842
558.2758, 934.8569
558.7579, 899.1929
559.2401, 828.9282
559.7222, 746.0913
560.2043, 685.2139
560.6864, 677.2856
561.1685, 676.4663
561.6506, 665.5908
562.1328, 645.6465
562.6149, 622.7783
563.0970, 585.5273
563.5791, 557.7300
564.0612, 550.5664
564.5433, 574.1943
565.0255, 580.8193
565.5076, 563.4595
565.9897, 537.4004
566.4718, 519.2036
566.9539, 511.0659
567.4360, 497.7573
567.9182, 476.1792
568.4003, 449.2759
568.8824, 422.4443
569.3645, 395.9536
569.8466, 369.8247
570.3287, 339.6416
570.8109, 311.9326
571.2930, 304.9199
571.7751, 317.4751
572.2572, 322.7603
572.7393, 288.1826
573.2214, 243.5698
573.7036, 222.1973
574.1857, 243.8169
574.6678, 259.0620
575.1499, 241.7471
575.6320, 209.2749
576.1141, 186.8516
576.5963, 190.0176
577.0784, 190.5508
577.5605, 181.7793
578.0426, 165.7104
578.5247, 154.6870
579.0068, 151.4146
579.4890, 147.8691
579.9711, 139.8066
580.4532, 127.0625
580.9353, 113.2451
581.4174, 98.23633
581.8995, 82.65967
582.3817, 65.39307
582.8638, 47.78516
583.3459, 35.51660
583.8280, 32.06641
584.3101, 30.40332
584.7922, 21.96680
585.2744, 9.036621
585.7565, 2.786133
586.2386, 10.89893
586.7207, 17.05273
587.2028, 24.75244
587.6849, 33.66699
588.1671, 33.07764
588.6492, 7.250488
589.1313, 19.75977
589.6134, 33.00488
590.0955, 27.40283
590.5776, 18.84766
591.0598, 5.500488
591.5419, 9.160156
592.0240, 20.55029
592.5061, 28.24658
592.9882, 35.30273
593.4703, 43.49072
593.9525, 50.16602
594.4346, 45.08008
594.9167, 29.28857
595.3988, 17.64551
595.8809, 20.95508
596.3630, 33.00830
596.8452, 45.34180
597.3273, 57.34375
597.8094, 67.07520
598.2915, 77.78564
598.7736, 83.17676
599.2557, 74.92188
599.7379, 40.30713
600.2200, 14.64844
600.7021, 15.34570
601.1843, 29.39355
601.6664, 35.84326
602.1485, 23.54492
602.6306, 18.14844
603.1127, 29.14062
603.5948, 51.00830
604.0770, 52.64893
604.5591, 27.59863
605.0412, 3.574219
605.5233, 0.7177730
606.0054, 11.45947
606.4875, 6.547363
606.9697, 17.75781
607.4518, 35.74756
607.9339, 8.582520
608.4160, 41.17676
608.8981, 64.30078
609.3802, 44.25635
609.8624, 14.11963
610.3445, 9.483887
610.8266, 24.77295
611.3087, 29.22461
611.7908, 10.96973
612.2729, 7.334961
612.7551, 18.02393
613.2372, 21.66016
613.7193, 23.72461
614.2014, 26.00342
614.6835, 24.79639
615.1656, 17.52100
615.6478, 3.239746
616.1299, 7.928223
616.6120, 15.66846
617.0941, 20.95850
617.5762, 23.22852
618.0583, 23.16699
618.5405, 27.39404
619.0226, 38.38232
619.5047, 49.35449
619.9868, 51.39062
620.4689, 46.74170
620.9510, 1.715332
621.4332, 25.01855
621.9153, 39.67773
622.3974, 46.16211
622.8795, 20.03076
623.3616, 35.97656
623.8438, 35.03809
624.3259, 33.39014
624.8080, 55.21289
625.2901, 33.74170
625.7722, 55.16016
626.2543, 59.43604
626.7365, 71.53711
627.2186, 66.64746
627.7007, 66.98682
628.1828, 84.28955
628.6649, 98.13037
629.1470, 97.62744
629.6292, 101.8135
630.1113, 109.2217
630.5934, 112.4780
631.0755, 109.7998
631.5576, 101.0264
632.0397, 77.17334
632.5219, 45.46094
633.0040, 28.94922
633.4861, 52.74268
633.9682, 84.09473
634.4503, 105.7749
634.9324, 116.5435
635.4146, 122.5391
635.8967, 118.9863
636.3788, 115.6143
636.8609, 117.3594
637.3430, 124.5435
637.8251, 136.8306
638.3073, 156.5269
638.7894, 177.5903
639.2715, 194.9238
639.7536, 208.4658
640.2357, 209.8394
640.7178, 194.3105
641.2000, 171.6523
641.6821, 152.4795
642.1642, 138.3149
642.6463, 134.6704
643.1284, 149.5059
643.6105, 171.1836
644.0927, 194.4966
644.5748, 218.0015
645.0569, 233.8105
645.5390, 237.1440
646.0211, 233.7944
646.5032, 225.0552
646.9854, 205.2026
647.4675, 200.9360
647.9496, 221.3994
648.4317, 246.2441
648.9138, 257.4917
649.3959, 251.0669
649.8781, 253.1787
650.3602, 268.4937
650.8423, 288.0923
651.3244, 299.6519
651.8065, 303.9487
652.2886, 305.4492
652.7708, 304.6519
653.2529, 303.7402
653.7350, 302.0889
654.2171, 300.8784
654.6992, 305.0220
655.1813, 310.5308
655.6635, 339.6235
656.1456, 357.7310
656.6277, 365.7236
657.1098, 335.0889
657.5919, 356.9814
658.0740, 360.1348
658.5562, 362.4233
659.0383, 392.0654
659.5204, 369.4102
660.0025, 398.9565
660.4846, 408.2769
660.9667, 426.3657
661.4489, 422.8213
661.9310, 425.4790
662.4131, 449.9868
662.8952, 464.6367
663.3773, 461.8311
663.8594, 481.6304
664.3416, 460.1001
664.8237, 476.2583
665.3058, 508.5708
665.7879, 507.2827
666.2700, 525.8125
666.7521, 534.3804
667.2343, 504.9409
667.7164, 545.4800
668.1985, 557.8560
668.6806, 588.7515
669.1627, 620.3647
669.6448, 627.6797
670.1270, 629.2729
670.6091, 637.9575
671.0912, 653.7021
671.5733, 665.3330
672.0554, 671.7861
672.5375, 679.4551
673.0197, 696.1875
673.5018, 719.0366
673.9839, 740.9756
674.4660, 758.5112
674.9481, 778.1675
675.4302, 805.3354
675.9124, 836.9663
676.3945, 869.1626
676.8766, 907.4072
677.3587, 938.4438
677.8408, 950.4966
678.3229, 954.0859
678.8051, 981.1880
679.2872, 1046.531
679.7693, 1102.195
680.2514, 1128.332
680.7335, 1131.174
681.2156, 1138.867
681.6978, 1151.198
682.1799, 1174.734
682.6620, 1226.875
683.1441, 1288.265
683.6262, 1319.028
684.1083, 1316.021
684.5905, 1327.795
685.0726, 1412.085
685.5547, 1509.642
686.0368, 1564.845
686.5189, 1542.091
687.0010, 1534.474
687.4832, 1564.823
687.9653, 1611.433
688.4474, 1654.332
688.9295, 1694.912
689.4116, 1727.024
689.8937, 1748.249
690.3759, 1762.413
690.8580, 1775.499
691.3401, 1787.658
691.8222, 1800.157
692.3043, 1810.143
692.7864, 1824.247
693.2686, 1857.122
693.7507, 1903.701
694.2328, 1944.660
694.7149, 1970.693
695.1970, 1988.968
695.6791, 1999.811
696.1613, 2003.623
696.6434, 2015.304
697.1255, 2062.635
697.6076, 2091.853
698.0897, 2070.728
698.5718, 1987.267
699.0540, 1941.413
699.5361, 1941.836
700.0182, 1953.576
700.5003, 1942.872
700.9824, 1914.734
701.4645, 1893.185
701.9467, 1881.721
702.4288, 1875.299
702.9109, 1876.038
703.3930, 1876.668
703.8751, 1866.250
704.3572, 1838.924
704.8394, 1803.823
705.3215, 1756.564
705.8036, 1705.091
706.2857, 1665.146
706.7678, 1648.312
707.2499, 1624.716
707.7321, 1586.171
708.2142, 1538.165
708.6963, 1503.869
709.1784, 1485.611
709.6605, 1455.866
710.1426, 1389.584
710.6248, 1308.883
711.1069, 1278.956
711.5890, 1291.559
712.0711, 1291.061
712.5532, 1213.211
713.0353, 1126.844
713.5175, 1103.788
713.9996, 1153.268
714.4817, 1169.043
714.9638, 1086.220
715.4459, 988.5332
715.9280, 927.1680
716.4102, 917.8340
716.8923, 890.4370
717.3744, 836.8145
717.8565, 779.9453
718.3386, 743.2676
718.8207, 725.2173
719.3029, 704.8145
719.7850, 678.5894
720.2671, 652.5864
720.7492, 637.2671
721.2313, 626.8447
721.7134, 610.7612
722.1956, 582.0205
722.6777, 551.9912
723.1598, 521.7993
723.6419, 494.2900
724.1240, 475.0547
724.6061, 474.5703
725.0883, 468.4932
725.5704, 448.5410
726.0525, 421.3647
726.5346, 415.1250
727.0167, 434.7256
727.4988, 436.4458
727.9810, 388.5283
728.4631, 316.7402
728.9452, 289.7266
729.4273, 300.6294
729.9094, 305.3862
730.3915, 260.1030
730.8737, 209.7100
731.3558, 193.6777
731.8379, 214.6001
732.3200, 232.6479
732.8021, 240.7173
733.2842, 239.0391
733.7664, 226.2134
734.2485, 198.5415
734.7306, 178.4727
735.2127, 167.4814
735.6948, 160.0161
736.1769, 150.7485
736.6591, 140.6895
737.1412, 138.4917
737.6233, 145.4185
738.1054, 156.3931
738.5875, 173.9028
739.0696, 190.1694
739.5518, 194.0571
740.0339, 178.5693
740.5161, 158.9995
740.9982, 133.4795
741.4803, 109.8701
741.9624, 100.0581
742.4445, 113.0771
742.9266, 124.2109
743.4088, 133.4756
743.8909, 136.7334
744.3730, 119.7397
744.8551, 82.43115
745.3372, 61.80713
745.8193, 74.19922
746.3015, 99.24463
746.7836, 110.6221
747.2657, 110.5244
747.7478, 105.9580
748.2299, 97.74219
748.7120, 88.65283
749.1942, 77.15479
749.6763, 64.45605
750.1584, 60.66504
750.6405, 72.43945
751.1226, 87.02100
751.6047, 103.4268
752.0869, 120.2231
752.5690, 123.7139
753.0511, 111.7632
753.5332, 101.6260
754.0153, 103.4536
754.4974, 113.9697
754.9796, 130.7788
755.4617, 153.7681
755.9438, 172.5234
756.4259, 186.8945
756.9080, 189.2412
757.3901, 166.4385
757.8723, 109.4976
758.3544, 73.55273
758.8365, 79.42676
759.3186, 97.36084
759.8007, 111.8423
760.2828, 122.6182
760.7650, 130.9219
761.2471, 136.5381
761.7292, 140.3955
762.2113, 141.6758
762.6934, 141.8896
763.1755, 148.6709
763.6577, 165.9854
764.1398, 176.7734
764.6219, 156.3354
765.1040, 125.7949
765.5861, 110.3633
766.0682, 130.0312
766.5504, 142.4111
767.0325, 134.8149
767.5146, 119.7363
767.9967, 111.0908
768.4788, 110.3013
768.9609, 112.7959
769.4431, 117.2808
769.9252, 120.5537
770.4073, 116.7373
770.8894, 108.2168
771.3715, 106.0381
771.8536, 122.4746
772.3358, 133.9058
772.8179, 107.2842
773.3000, 62.26270
773.7821, 37.69531
774.2642, 64.10010
774.7463, 91.38623
775.2285, 109.8701
775.7106, 120.1807
776.1927, 122.2764
776.6748, 114.8125
777.1569, 105.5166
777.6390, 94.30420
778.1212, 82.25781
778.6033, 68.64941
779.0854, 54.38770
779.5675, 43.64502
780.0496, 34.57861
780.5317, 33.31689
781.0139, 53.52783
781.4960, 88.98193
781.9781, 109.5962
782.4602, 93.04297
782.9423, 73.38330
783.4244, 63.40869
783.9066, 61.85645
784.3887, 52.20264
784.8708, 31.43896
785.3529, 14.64404
785.8350, 8.739746
786.3171, 13.35107
786.7993, 32.47070
787.2814, 64.40430
787.7635, 89.70264
788.2456, 91.56250
788.7277, 84.10352
789.2098, 79.72412
789.6920, 79.42725
790.1741, 74.28711
790.6562, 60.03418
791.1383, 42.13281
791.6204, 19.06104
792.1025, 10.98926
792.5847, 15.34424
793.0668, 12.86084
793.5489, 37.15527
794.0310, 18.15479
794.5131, 26.22070
794.9952, 47.19580
795.4774, 41.79688
795.9595, 25.03613
796.4416, 6.672852
796.9237, 35.80420
797.4058, 44.38135
797.8879, 22.86523
798.3701, 8.472656
798.8522, 10.50488
799.3343, 14.87939
799.8164, 9.555176
800.2985, 8.573242
800.7806, 7.137207
801.2628, 19.30029
801.7449, 41.42676
802.2270, 17.27881
802.7091, 29.94141
803.1912, 53.22168
803.6733, 42.59912
804.1555, 24.04932
804.6376, 4.717285
805.1197, 10.14502
805.6018, 14.81934
806.0839, 2.615723
806.5660, 7.663086
807.0482, 9.386230
807.5303, 26.74707
808.0124, 18.98975
808.4945, 13.90332
808.9766, 39.70850
809.4587, 55.08057
809.9409, 62.89209
810.4230, 66.92139
810.9051, 65.65381
811.3872, 54.99463
811.8693, 29.16943
812.3514, 7.137207
812.8336, 0.4604490
813.3157, 1.603516
813.7978, 5.583984
814.2799, 17.03857
814.7620, 20.66846
815.2441, 12.77539
815.7263, 2.427734
816.2084, 3.073242
816.6905, 12.73877
817.1726, 18.32910
817.6547, 16.31152
818.1368, 13.48584
818.6190, 18.34863
819.1011, 25.63818
819.5832, 27.99561
820.0653, 19.99414
820.5474, 12.68311
821.0295, 2.591797
821.5117, 2.193359
821.9938, 11.73145
822.4759, 53.20410
822.9580, 70.88281
823.4401, 52.41357
823.9222, 25.01611
824.4044, 38.81445
824.8865, 76.13574
825.3686, 82.11816
825.8507, 29.26221
826.3328, 23.02930
826.8149, 33.89111
827.2971, 20.98535
827.7792, 6.349121
828.2613, 5.232422
828.7434, 21.15527
829.2255, 47.22461
829.7076, 72.40088
830.1898, 80.41309
830.6719, 71.27588
831.1540, 56.46533
831.6361, 36.94482
832.1182, 22.30127
832.6003, 32.50586
833.0825, 53.17578
833.5646, 57.33203
834.0467, 21.95605
834.5288, 0.7583010
835.0109, 29.02295
835.4930, 73.95508
835.9752, 92.33301
836.4573, 76.00684
836.9394, 61.84814
837.4215, 50.55273
837.9036, 46.38916
838.3857, 66.53613
838.8679, 104.5171
839.3500, 129.2573
839.8321, 130.4287
840.3142, 122.5684
840.7963, 110.9268
841.2784, 100.7573
841.7606, 98.88184
842.2427, 111.2837
842.7248, 127.5308
843.2069, 154.3257
843.6890, 177.7104
844.1711, 177.9214
844.6533, 153.6982
845.1354, 135.8203
845.6175, 128.2188
846.0996, 129.1313
846.5817, 141.0215
847.0638, 157.8975
847.5460, 169.7549
848.0281, 173.6836
848.5102, 174.3774
848.9923, 168.0356
849.4744, 163.1094
849.9565, 168.8628
850.4387, 192.0474
850.9208, 210.2793
851.4029, 223.0283
851.8850, 228.2593
852.3671, 221.0645
852.8492, 203.7900
853.3314, 183.1152
853.8135, 157.5962
854.2956, 146.0566
854.7777, 180.5688
855.2598, 224.8540
855.7419, 241.0298
856.2241, 203.5464
856.7062, 182.3408
857.1883, 190.0161
857.6704, 204.7583
858.1525, 206.6104
858.6346, 195.4712
859.1168, 192.6602
859.5989, 200.6821
860.0810, 207.7739
860.5631, 197.1963
861.0452, 179.2339
861.5273, 169.7617
862.0095, 172.3940
862.4916, 178.1738
862.9737, 191.3853
863.4558, 199.2583
863.9379, 190.4629
864.4200, 157.5703
864.9022, 146.8584
865.3843, 162.4189
865.8664, 182.9341
866.3485, 190.3672
866.8306, 187.5449
867.3127, 184.4438
867.7949, 182.0107
868.2770, 174.4028
868.7591, 149.2749
869.2412, 124.4316
869.7233, 114.2534
870.2054, 122.2104
870.6876, 128.5010
871.1697, 134.4238
871.6518, 136.6504
872.1339, 130.6455
872.6160, 116.3062
873.0981, 97.04492
873.5803, 73.03711
874.0624, 54.33643
874.5445, 51.13818
875.0266, 53.09082
875.5087, 50.33350
875.9908, 43.08740
876.4730, 40.95312
876.9551, 49.13330
877.4372, 59.70850
877.9193, 72.23486
878.4014, 85.33545
878.8835, 88.33545
879.3657, 81.07275
879.8478, 75.96826
880.3299, 86.98340
880.8120, 97.94922
881.2941, 77.77246
881.7763, 36.74170
882.2584, 9.289551
882.7405, 20.92676
883.2227, 35.38916
883.7048, 38.81787
884.1869, 33.88721
884.6690, 36.90918
885.1511, 51.73145
885.6332, 62.24072
886.1154, 63.89355
886.5975, 57.68896
887.0796, 36.20117
887.5617, 7.434570
888.0438, 6.307129
888.5259, 24.90723
889.0081, 50.14307
889.4902, 35.89062
889.9723, 3.195313
890.4544, 4.744141
890.9365, 30.21094
891.4186, 42.24268
891.9008, 14.04932
892.3829, 25.79736
892.8650, 22.53125
893.3471, 9.826172
893.8292, 21.18506
894.3113, 9.525879
894.7935, 37.79541
895.2756, 22.79541
895.7577, 8.006348
896.2398, 23.02246
896.7219, 0.2333980
897.2040, 8.543457
897.6862, 1.585449
898.1683, 20.95947
898.6504, 47.54102
899.1325, 77.74170
899.6146, 79.29199
900.0967, 46.58789
900.5789, 15.00439
901.0610, 18.40820
901.5431, 33.67285
902.0252, 38.51367
902.5073, 27.98438
902.9894, 16.20459
903.4716, 3.3691000E-02
903.9537, 11.04883
904.4358, 11.30762
904.9179, 0.8935550
905.4000, 17.90234
905.8821, 45.05371
906.3643, 66.21826
906.8464, 68.66260
907.3285, 61.64648
907.8106, 50.07471
908.2927, 36.12451
908.7748, 33.20459
909.2570, 61.23438
909.7391, 83.26611
910.2212, 88.13281
910.7033, 77.74512
911.1854, 54.93604
911.6675, 19.06543
912.1497, 0.7651370
912.6318, 22.00195
913.1139, 53.59619
913.5960, 44.62891
914.0781, 10.10303
914.5602, 13.85156
915.0424, 13.55127
915.5245, 0.3579100
916.0066, 32.82959
916.4887, 71.52881
916.9708, 86.83203
917.4529, 76.30713
917.9351, 69.02441
918.4172, 72.09180
918.8993, 76.91650
919.3814, 71.71240
919.8635, 60.54639
920.3456, 49.76953
920.8278, 39.56104
921.3099, 33.62012
921.7920, 37.76611
922.2741, 43.45752
922.7562, 42.48535
923.2383, 32.64014
923.7205, 28.87793
924.2026, 32.59668
924.6847, 37.17676
925.1668, 32.36279
925.6489, 25.78711
926.1310, 33.94922
926.6132, 59.23096
927.0953, 75.03662
927.5774, 66.90137
928.0595, 48.71045
928.5416, 21.24023
929.0237, 15.31055
929.5059, 10.92920
929.9880, 41.06055
930.4701, 86.59570
930.9522, 84.95117
931.4343, 61.11182
931.9164, 58.64795
932.3986, 72.49365
932.8807, 82.97607
933.3628, 77.26758
933.8449, 70.86230
934.3270, 70.29492
934.8091, 73.28125
935.2913, 73.15771
935.7734, 68.85010
936.2555, 68.40283
936.7376, 75.44971
937.2197, 83.77490
937.7018, 85.58203
938.1840, 81.44824
938.6661, 71.12939
939.1482, 40.98535
939.6303, 28.32617
940.1124, 66.43066
940.5945, 114.6831
941.0767, 128.5884
941.5588, 99.23584
942.0409, 82.84326
942.5230, 84.65430
943.0051, 89.59082
943.4872, 80.33643
943.9694, 64.92285
944.4515, 55.86084
944.9336, 54.52881
945.4157, 55.19434
945.8978, 55.60449
946.3799, 60.27197
946.8621, 70.41162
947.3442, 85.06592
947.8263, 96.65918
948.3084, 106.2446
948.7905, 109.9004
949.2726, 93.30273
949.7548, 73.06982
950.2369, 79.36816
950.7190, 105.3477
951.2011, 122.3560
951.6832, 101.8120
952.1653, 86.70850
952.6475, 94.83936
953.1296, 114.7402
953.6117, 114.0005
954.0938, 90.21826
954.5759, 72.54297
955.0580, 69.47266
955.5402, 72.57373
956.0223, 68.21484
956.5044, 63.24268
956.9865, 68.46533
957.4686, 90.80273
957.9507, 113.9873
958.4329, 149.7158
958.9150, 170.5767
959.3971, 141.5908
959.8792, 60.66211
960.3613, 36.85889
960.8434, 75.00781
961.3256, 111.5386
961.8077, 76.76660
962.2898, 29.01221
962.7719, 35.20068
963.2540, 96.18652
963.7361, 136.3564
964.2183, 129.2139
964.7004, 115.3735
965.1825, 104.0435
965.6646, 97.06641
966.1467, 103.9468
966.6288, 123.4438
967.1110, 145.4248
967.5931, 166.5708
968.0752, 186.5396
968.5573, 213.2998
969.0394, 236.5938
969.5215, 236.5356
970.0037, 178.0991
970.4858, 156.8052
970.9679, 191.3501
971.4500, 242.0703
971.9321, 258.0977
972.4142, 246.1660
972.8964, 235.9722
973.3785, 232.1270
973.8606, 230.6440
974.3427, 229.8608
974.8248, 228.8540
975.3069, 224.9868
975.7891, 216.9097
976.2712, 221.3179
976.7533, 241.6567
977.2354, 263.8696
977.7175, 283.5244
978.1996, 298.2705
978.6818, 296.4336
979.1639, 279.9536
979.6460, 301.5093
980.1281, 314.4863
980.6102, 319.2896
981.0923, 291.3853
981.5745, 305.5259
982.0566, 302.8394
982.5387, 299.5117
983.0208, 319.6089
983.5029, 296.3423
983.9850, 316.0796
984.4672, 318.8984
984.9493, 329.6201
985.4314, 323.3267
985.9135, 322.1484
986.3956, 337.6738
986.8777, 342.7402
987.3599, 333.4429
987.8420, 344.9219
988.3241, 321.5293
988.8062, 328.5088
989.2883, 348.5898
989.7704, 341.2964
990.2526, 352.9292
990.7347, 357.3164
991.2168, 328.9756
991.6989, 310.5796
992.1810, 302.9541
992.6631, 318.1133
993.1453, 327.6743
993.6274, 325.6768
994.1095, 317.0386
994.5916, 312.2842
995.0737, 309.1685
995.5558, 303.1294
996.0380, 291.1323
996.5201, 281.0405
997.0022, 283.4243
997.4843, 289.4155
997.9664, 292.4849
998.4485, 286.7021
998.9307, 300.0825
999.4128, 341.3491
999.8949, 373.9312
1000.377, 354.8794
1000.859, 311.2559
1001.341, 315.5762
1001.823, 361.5415
1002.305, 395.0366
1002.788, 381.2119
1003.270, 358.6709
1003.752, 337.7739
1004.234, 321.6025
1004.716, 316.2979
1005.198, 321.7979
1005.680, 343.1245
1006.162, 389.5791
1006.645, 429.5610
1007.127, 404.9971
1007.609, 355.5142
1008.091, 341.6318
1008.573, 395.6616
1009.055, 435.4150
1009.537, 441.8945
1010.019, 444.2485
1010.501, 467.6914
1010.984, 508.5376
1011.466, 524.9404
1011.948, 517.9790
1012.430, 510.0581
1012.912, 507.6602
1013.394, 516.8813
1013.876, 550.9146
1014.358, 602.3770
1014.841, 637.5435
1015.323, 650.6729
1015.805, 658.3066
1016.287, 659.8037
1016.769, 663.8496
1017.251, 691.3818
1017.733, 731.0244
1018.215, 754.9434
1018.697, 747.0801
1019.180, 752.6152
1019.662, 814.8647
1020.144, 877.1602
1020.626, 894.4482
1021.108, 862.4014
1021.590, 847.7163
1022.072, 851.2637
1022.554, 857.6812
1023.037, 863.7207
1023.519, 861.8882
1024.001, 838.8818
1024.483, 800.3594
1024.965, 766.7720
1025.447, 750.1885
1025.929, 725.2031
1026.411, 683.3901
1026.893, 637.4971
1027.376, 611.6072
1027.858, 601.0974
1028.340, 592.6221
1028.822, 585.8960
1029.304, 567.2361
1029.786, 507.5308
1030.268, 448.0754
1030.750, 428.6653
1031.233, 454.8279
1031.715, 441.8528
1032.197, 383.5596
1032.679, 328.0383
1033.161, 307.4370
1033.643, 304.2085
1034.125, 292.1411
1034.607, 274.7168
1035.089, 262.1619
1035.572, 275.4966
1036.054, 266.6274
1036.536, 214.2312
1037.018, 153.3430
1037.500, 139.6597
1037.982, 166.3323
1038.464, 183.6743
1038.946, 185.5430
1039.428, 173.6516
1039.911, 132.7964
1040.393, 90.95752
1040.875, 74.44629
1041.357, 85.09253
1041.839, 84.53198
1042.321, 69.97681
1042.803, 54.86646
1043.285, 46.35767
1043.768, 39.55762
1044.250, 20.63159
1044.732, 2.392822
1045.214, 11.40942
1045.696, 19.96948
1046.178, 37.61914
1046.660, 21.72168
1047.142, 0.5761720
1047.625, 0.2558590
1048.107, 22.13770
1048.589, 25.86523
1049.071, 9.001953
1049.553, 8.733887
1050.035, 12.10132
1050.517, 8.664551
1050.999, 19.44409
1051.481, 20.68408
1051.964, 16.83838
1052.446, 2.836182
1052.928, 9.437988
1053.410, 16.61157
1053.892, 4.717773
1054.374, 25.31274
1054.856, 3.686035
1055.338, 2.239990
1055.820, 8.987793
1056.303, 1.1475000E-02
1056.785, 1.839355
1057.267, 16.56860
1057.749, 24.01855
1058.231, 14.02246
1058.713, 27.70776
1059.195, 0.1103520
1059.677, 9.315430
1060.160, 34.62280
1060.642, 27.31079
1061.124, 42.98706
1061.606, 0.7934570
1062.088, 5.970215
1062.570, 28.96167
1063.052, 41.83984
1063.534, 40.24390
1064.016, 30.22900
1064.499, 11.93872
1064.981, 7.128418
1065.463, 11.94751
1065.945, 0.3625490
1066.427, 10.98804
1066.909, 9.191895
1067.391, 12.99658
1067.873, 34.54053
1068.355, 64.31909
1068.838, 57.83105
1069.320, 23.11890
1069.802, 4.902832
1070.284, 35.33496
1070.766, 61.52148
1071.248, 43.49072
1071.730, 7.170166
1072.212, 17.53638
1072.695, 30.29053
1073.177, 27.99365
1073.659, 8.893555
1074.141, 12.29224
1074.623, 25.89697
1075.105, 33.26465
1075.587, 36.39062
1076.069, 35.16724
1076.552, 27.13062
1077.034, 0.9045410
1077.516, 14.90332
1077.998, 14.85376
1078.480, 3.441650
1078.962, 19.00977
1079.444, 46.24316
1079.926, 56.43433
1080.408, 43.75317
1080.891, 27.26001
1081.373, 9.911865
1081.855, 1.135010
1082.337, 0.5363770
1082.819, 13.10474
1083.301, 15.57227
1083.783, 7.909424
1084.265, 1.091309
1084.747, 1.302734
1085.230, 2.731689
1085.712, 4.471680
1086.194, 12.95264
1086.676, 10.15649
1087.158, 14.23804
1087.640, 28.53809
1088.122, 30.22681
1088.604, 28.04272
1089.087, 30.88306
1089.569, 34.88940
1090.051, 29.16724
1090.533, 15.93652
1091.015, 11.80713
1091.497, 41.40332
1091.979, 55.25708
1092.461, 10.19165
1092.943, 36.81641
1093.426, 51.79175
1093.908, 55.74854
1094.390, 15.69873
1094.872, 32.45605
1095.354, 26.43433
1095.836, 19.47095
1096.318, 44.19824
1096.800, 10.50317
1097.283, 34.70654
1097.765, 35.80103
1098.247, 47.50122
1098.729, 36.29224
1099.211, 32.15894
1099.693, 50.93506
1100.175, 56.98022
1100.657, 43.04370
1101.140, 55.31567
1101.622, 20.83423
1102.104, 28.82349
1102.586, 53.70654
1103.068, 40.45264
1103.550, 53.04517
1104.032, 56.00635
1104.514, 14.76099
1104.996, 50.09229
1105.479, 52.24316
1105.961, 20.41675
1106.443, 53.23193
1106.925, 26.14819
1107.407, 20.82056
1107.889, 30.99292
1108.371, 24.49683
1108.853, 44.45264
1109.335, 38.92017
1109.818, 2.712891
1110.300, 40.38037
1110.782, 64.57715
1111.264, 70.73950
1111.746, 7.244385
1112.228, 33.33081
1112.710, 24.17163
1113.192, 13.55127
1113.675, 53.73315
1114.157, 0.4370120
1114.639, 39.70605
1115.121, 42.09692
1115.603, 61.43799
1116.085, 44.07373
1116.567, 38.13892
1117.049, 68.67993
1117.531, 78.95605
1118.014, 57.42236
1118.496, 77.80127
1118.978, 23.28394
1119.460, 34.35425
1119.942, 73.81396
1120.424, 54.05640
1120.906, 75.12573
1121.388, 80.67163
1121.870, 15.63623
1122.353, 73.18970
1122.835, 77.26196
1123.317, 26.52612
1123.799, 79.79272
1124.281, 37.23657
1124.763, 28.88428
1125.245, 46.29126
1125.727, 36.93555
1126.210, 69.95996
1126.692, 62.20093
1127.174, 50.75977
1127.656, 55.28174
1128.138, 14.77002
1128.620, 57.85010
1129.102, 43.74731
1129.584, 57.82983
1130.067, 77.21436
1130.549, 46.52930
1131.031, 68.11914
1131.513, 10.02954
1131.995, 20.21387
1132.477, 23.40112
1132.959, 70.46753
1133.441, 13.46143
1133.923, 21.82910
1134.406, 57.99512
1134.888, 55.03491
1135.370, 67.40771
1135.852, 31.55249
1136.334, 41.69897
1136.816, 40.66846
1137.298, 83.72144
1137.780, 91.04028
1138.262, 57.14868
1138.745, 23.35376
1139.227, 67.55054
1139.709, 37.54468
1140.191, 47.54321
1140.673, 16.49829
1141.155, 21.32520
1141.637, 25.76758
1142.119, 47.82129
1142.602, 14.48291
1143.084, 52.96973
1143.566, 49.55762
1144.048, 57.82104
1144.530, 64.88940
1145.012, 17.14429
1145.494, 15.08643
1145.976, 78.32812
1146.458, 41.96802
1146.941, 30.33594
1147.423, 21.12524
1147.905, 46.16724
1148.387, 69.12671
1148.869, 65.73828
1149.351, 42.95215
1149.833, 39.65479
1150.315, 54.12769
1150.797, 63.76367
1151.280, 58.62695
1151.762, 52.70410
1152.244, 56.36646
1152.726, 64.58789
1153.208, 74.28394
1153.690, 86.60864
1154.172, 82.40674
1154.654, 60.60400
1155.137, 40.25732
1155.619, 32.02539
1156.101, 29.78687
1156.583, 27.65234
1157.065, 27.50464
1157.547, 35.05933
1158.029, 61.01318
1158.511, 57.46484
1158.994, 17.06616
1159.476, 18.99634
1159.958, 7.780518
1160.440, 21.98486
1160.922, 33.79614
1161.404, 31.47729
1161.886, 35.28418
1162.368, 56.66187
1162.850, 65.19165
1163.333, 55.05225
1163.815, 36.49438
1164.297, 12.72974
1164.779, 7.020264
1165.261, 0.2402340
1165.743, 32.75806
1166.225, 54.78027
1166.707, 50.18823
1167.189, 44.00928
1167.672, 38.96948
1168.154, 39.88330
1168.636, 59.61450
1169.118, 87.70752
1169.600, 100.2952
1170.082, 92.25366
1170.564, 77.96118
1171.046, 45.89648
1171.529, 30.95508
1172.011, 56.29321
1172.493, 100.9927
1172.975, 90.51880
1173.457, 43.51440
1173.939, 23.97314
1174.421, 66.02271
1174.903, 99.45093
1175.385, 87.58057
1175.868, 66.28467
1176.350, 54.92505
1176.832, 51.96973
1177.314, 52.33740
1177.796, 54.84009
1178.278, 52.95703
1178.760, 32.03247
1179.242, 20.23145
1179.724, 41.08350
1180.207, 68.54248
1180.689, 79.51953
1181.171, 72.16699
1181.653, 62.65649
1182.135, 51.56738
1182.617, 46.42676
1183.099, 65.21460
1183.581, 76.39307
1184.064, 53.12500
1184.546, 17.58691
1185.028, 2.085205
1185.510, 7.048340
1185.992, 16.11353
1186.474, 28.53979
1186.956, 40.96313
1187.438, 53.66064
1187.921, 63.34473
1188.403, 71.38647
1188.885, 73.52832
1189.367, 51.36548
1189.849, 1.628662
1190.331, 8.382813
1190.813, 35.37720
1191.295, 81.20703
1191.777, 85.79883
1192.260, 74.08667
1192.742, 65.08350
1193.224, 57.72241
1193.706, 34.04688
1194.188, 10.08301
1194.670, 23.34229
1195.152, 13.02759
1195.634, 53.71143
1196.116, 53.22705
1196.599, 36.32446
1197.081, 26.72974
1197.563, 25.02319
1198.045, 16.70752
1198.527, 0.4082030
1199.009, 3.918457
1199.491, 19.84619
1199.973, 46.29297
1200.456, 45.42896
1200.938, 34.31567
1201.420, 33.97241
1201.902, 48.09351
1202.384, 55.57129
1202.866, 56.02417
1203.348, 50.93652
1203.830, 35.03857
1204.313, 22.90332
1204.795, 43.25854
1205.277, 73.03735
1205.759, 74.00000
1206.241, 28.82886
1206.723, 13.13867
1207.205, 31.48315
1207.687, 47.71582
1208.169, 31.29565
1208.651, 8.077148
1209.134, 4.983887
1209.616, 17.04492
1210.098, 37.04590
1210.580, 73.69653
1211.062, 87.84985
1211.544, 76.50757
1212.026, 56.67188
1212.508, 32.00122
1212.991, 13.84717
1213.473, 19.98682
1213.955, 42.87793
1214.437, 62.41699
1214.919, 78.00952
1215.401, 83.64941
1215.883, 78.33521
1216.365, 65.50854
1216.848, 35.58813
1217.330, 7.755859
1217.812, 11.74683
1218.294, 41.06714
1218.776, 64.34888
1219.258, 81.70483
1219.740, 83.28687
1220.222, 65.12500
1220.704, 45.53931
1221.187, 46.58154
1221.669, 53.50146
1222.151, 47.50293
1222.633, 30.27588
1223.115, 27.13818
1223.597, 42.81348
1224.079, 55.90161
1224.561, 63.48291
1225.043, 63.09863
1225.526, 41.61621
1226.008, 18.10962
1226.490, 17.27173
1226.972, 39.30176
1227.454, 43.61743
1227.936, 24.62622
1228.418, 19.01587
1228.900, 39.57153
1229.383, 63.34912
1229.865, 67.59741
1230.347, 59.78540
1230.829, 41.09985
1231.311, 12.75171
1231.793, 15.02222
1232.275, 53.91870
1232.757, 76.63086
1233.240, 62.42407
1233.722, 39.33618
1234.204, 39.62915
1234.686, 45.51245
1235.168, 31.18921
1235.650, 5.050293
1236.132, 0.2368160
1236.614, 51.89771
1237.096, 76.96436
1237.579, 33.87964
1238.061, 13.82690
1238.543, 4.926514
1239.025, 43.74146
1239.507, 45.95459
1239.989, 8.883789
1240.471, 0.9270020
1240.953, 22.68433
1241.436, 42.43799
1241.918, 45.78760
1242.400, 43.61157
1242.882, 44.39990
1243.364, 44.07251
1243.846, 35.50439
1244.328, 20.36865
1244.810, 15.94727
1245.292, 21.99854
1245.775, 30.15576
1246.257, 35.88892
1246.739, 47.34741
1247.221, 75.04907
1247.703, 101.1035
1248.185, 104.2322
1248.667, 85.55225
1249.149, 80.10083
1249.631, 86.37451
1250.114, 90.31396
1250.596, 88.00171
1251.078, 76.61914
1251.560, 41.25342
1252.042, 6.399414
1252.524, 0.3076170
1253.006, 20.71509
1253.488, 20.42358
1253.971, 3.147461
1254.453, 4.646973
1254.935, 23.85425
1255.417, 48.48389
1255.899, 52.76514
1256.381, 48.92163
1256.863, 46.20020
1257.345, 44.75854
1257.828, 47.23242
1258.310, 53.09912
1258.792, 58.77588
1259.274, 67.73022
1259.756, 68.28198
1260.238, 54.15015
1260.720, 37.03394
1261.202, 27.73022
1261.684, 25.42188
1262.167, 28.96777
1262.649, 37.51465
1263.131, 47.06445
1263.613, 59.63379
1264.095, 67.61938
1264.577, 70.19385
1265.059, 67.69165
1265.541, 58.55640
1266.023, 45.04370
1266.506, 27.61816
1266.988, 10.14478
1267.470, 1.847412
1267.952, 9.526123
1268.434, 16.46558
1268.916, 16.87744
1269.398, 18.23291
1269.880, 34.86279
1270.363, 51.93359
1270.845, 40.16992
1271.327, 6.537354
1271.809, 7.348145
1272.291, 10.59351
1272.773, 22.19214
1273.255, 22.33057
1273.737, 18.75098
1274.219, 11.99390
1274.702, 11.10034
1275.184, 38.08130
1275.666, 80.20142
1276.148, 81.57690
1276.630, 32.80078
1277.112, 5.105957
1277.594, 9.079590
1278.076, 19.25391
1278.558, 9.279541
1279.041, 0.3439940
1279.523, 17.18286
1280.005, 46.79346
1280.487, 51.42261
1280.969, 30.39917
1281.451, 22.52051
1281.933, 32.97144
1282.415, 46.69507
1282.898, 63.29956
1283.380, 68.97852
1283.862, 48.83130
1284.344, 17.53955
1284.826, 0.8715820
1285.308, 3.451416
1285.790, 3.326660
1286.272, 18.75439
1286.755, 33.08252
1287.237, 42.41333
1287.719, 47.17822
1288.201, 45.65991
1288.683, 42.82324
1289.165, 49.43994
1289.647, 61.15552
1290.129, 67.04028
1290.611, 65.77124
1291.094, 56.62378
1291.576, 27.81177
1292.058, 8.175537
1292.540, 1.465088
1293.022, 5.023438
1293.504, 23.04517
1293.986, 44.93896
1294.468, 54.08862
1294.950, 49.48218
1295.433, 37.39453
1295.915, 14.31494
1296.397, 9.8876998E-02
1296.879, 0.0000000E+00
##END=



