##NAMES=Henmilite
##RRUFFID=R060257
##IDEAL CHEMISTRY=Ca_2_Cu[B(OH)_4_]_2_(OH)_4_
##LOCALITY=Fuka mine, Okayama Prefecture, Honshu Island, Japan
##OWNER=RRUFF
##SOURCE=Michael Scott
##DESCRIPTION=Deep blue prismatic pinacoidal crystals with a melted looking exterior
##STATUS=The identification of this mineral is confirmed by single-crystal X-ray diffraction and chemical analysis.
##URL=rruff.info/R060257
##MEASURED CHEMISTRY=Ca_1.94_Cu_1.06_[B(OH)_4_]_2_(OH)_4_ ; B, H not measured but assumed by stoichiometry
126.7265, 0.0000000E+00
127.2086, 7.466211
127.6907, 8.393396
128.1729, 1.082979
128.6550, 0.9275020
129.1371, 3.447216
129.6192, 10.01212
130.1013, 13.75752
130.5834, 14.83137
131.0656, 15.14068
131.5477, 15.43057
132.0298, 15.72254
132.5119, 16.33827
132.9940, 17.54766
133.4761, 18.69439
133.9583, 18.25606
134.4404, 16.07611
134.9225, 13.96204
135.4046, 12.94687
135.8867, 13.01801
136.3688, 14.41428
136.8510, 17.62279
137.3331, 22.01203
137.8152, 25.30090
138.2973, 27.10682
138.7794, 28.88673
139.2615, 31.85246
139.7437, 36.06227
140.2258, 40.92831
140.7079, 45.83746
141.1900, 50.91091
141.6721, 60.10816
142.1542, 75.77952
142.6364, 92.45323
143.1185, 103.4528
143.6006, 104.4208
144.0827, 108.4077
144.5648, 120.2244
145.0469, 142.8028
145.5291, 156.7412
146.0112, 157.8701
146.4933, 152.9084
146.9754, 151.6365
147.4575, 159.4815
147.9396, 164.4855
148.4218, 163.5135
148.9039, 155.9394
149.3860, 143.7353
149.8681, 121.9796
150.3502, 96.19930
150.8323, 77.39073
151.3145, 69.35461
151.7966, 65.22972
152.2787, 62.83662
152.7608, 62.33733
153.2429, 63.28085
153.7250, 66.70890
154.2072, 71.72960
154.6893, 75.81723
155.1714, 75.54412
155.6535, 75.01929
156.1356, 77.21320
156.6177, 84.17778
157.0999, 91.75158
157.5820, 99.63193
158.0641, 107.6673
158.5462, 115.1824
159.0283, 121.6002
159.5104, 127.7103
159.9926, 134.0291
160.4747, 144.4362
160.9568, 151.4655
161.4389, 152.4755
161.9210, 147.8756
162.4031, 140.4138
162.8853, 128.7614
163.3674, 115.8179
163.8495, 104.2359
164.3316, 94.42167
164.8137, 86.46828
165.2958, 80.68737
165.7780, 77.04037
166.2601, 74.56605
166.7422, 72.36381
167.2243, 70.90081
167.7064, 70.66487
168.1885, 71.98412
168.6707, 74.44619
169.1528, 78.45682
169.6349, 84.19281
170.1170, 88.97176
170.5991, 92.09890
171.0812, 93.01784
171.5634, 90.73376
172.0455, 84.42957
172.5276, 74.99343
173.0097, 61.92628
173.4918, 44.33423
173.9739, 28.15766
174.4561, 18.25462
174.9382, 13.34011
175.4203, 10.35985
175.9024, 8.374626
176.3845, 7.188332
176.8666, 6.720802
177.3488, 7.108490
177.8309, 7.645515
178.3130, 7.547905
178.7951, 6.937126
179.2772, 6.263115
179.7593, 6.174217
180.2415, 6.149490
180.7236, 4.888710
181.2057, 1.791618
181.6878, 1.490921
182.1699, 2.705353
182.6520, 2.031738
183.1342, 0.8015750
183.6163, 0.2305070
184.0984, 1.163734
184.5805, 1.804024
185.0626, 2.180748
185.5447, 2.965462
186.0269, 6.266685
186.5090, 11.89761
186.9911, 16.50201
187.4732, 16.12838
187.9553, 12.03616
188.4374, 10.24686
188.9196, 11.87740
189.4017, 16.19766
189.8838, 22.17111
190.3659, 29.95090
190.8480, 37.90622
191.3301, 44.59297
191.8123, 50.23896
192.2944, 56.48878
192.7765, 63.56060
193.2586, 71.51432
193.7407, 81.28775
194.2228, 93.35191
194.7050, 103.8848
195.1871, 109.5997
195.6692, 110.5346
196.1513, 109.1036
196.6334, 106.2405
197.1155, 101.3410
197.5977, 90.76877
198.0798, 73.53264
198.5619, 54.70894
199.0440, 38.33470
199.5261, 24.22677
200.0082, 13.94163
200.4904, 8.547096
200.9725, 7.356812
201.4546, 5.639442
201.9367, 3.078529
202.4188, 0.8688350
202.9009, 0.7873000
203.3831, 3.328369
203.8652, 4.446823
204.3473, 2.444725
204.8294, 2.228760
205.3115, 4.268471
205.7936, 3.128525
206.2758, 0.5320740
206.7579, 1.861320
207.2400, 4.036682
207.7221, 5.976334
208.2042, 7.600266
208.6863, 8.925171
209.1685, 10.35775
209.6506, 11.82371
210.1327, 13.53530
210.6148, 15.87268
211.0969, 19.06275
211.5790, 22.01578
212.0612, 24.31229
212.5433, 25.90918
213.0254, 28.19167
213.5075, 31.58975
213.9896, 35.10278
214.4717, 37.11289
214.9538, 36.59112
215.4360, 37.43763
215.9181, 40.90214
216.4002, 47.10424
216.8823, 53.55032
217.3644, 60.33344
217.8465, 67.25668
218.3287, 74.15681
218.8108, 81.01299
219.2929, 87.97760
219.7750, 95.25491
220.2571, 102.9411
220.7392, 110.2888
221.2214, 117.2092
221.7035, 123.9452
222.1856, 131.5100
222.6677, 141.8792
223.1498, 148.7416
223.6319, 149.6425
224.1141, 143.8254
224.5962, 138.5129
225.0783, 135.1668
225.5604, 131.1072
226.0425, 122.3378
226.5246, 106.9057
227.0068, 90.57513
227.4889, 74.71082
227.9710, 58.78582
228.4531, 45.22929
228.9352, 33.94939
229.4173, 25.08318
229.8995, 19.25782
230.3816, 17.68557
230.8637, 16.87928
231.3458, 16.22151
231.8279, 15.90875
232.3100, 14.28060
232.7922, 10.50532
233.2743, 6.107132
233.7564, 2.822708
234.2385, 0.1510620
234.7206, 0.4108350
235.2027, 2.174057
235.6849, 8.666267
236.1670, 13.40958
236.6491, 15.77999
237.1312, 17.04826
237.6133, 18.76533
238.0954, 21.30413
238.5776, 23.30209
239.0597, 24.33681
239.5418, 24.25677
240.0239, 24.02569
240.5060, 23.51061
240.9881, 23.59361
241.4703, 25.21079
241.9524, 29.22968
242.4345, 31.93276
242.9166, 32.46723
243.3987, 30.66975
243.8808, 29.28844
244.3630, 27.67092
244.8451, 26.98590
245.3272, 28.82594
245.8093, 34.61738
246.2914, 40.01334
246.7735, 43.86331
247.2557, 45.96574
247.7378, 48.70547
248.2199, 52.68205
248.7020, 56.81371
249.1841, 59.69969
249.6662, 60.24612
250.1484, 61.98806
250.6305, 65.93244
251.1126, 72.12769
251.5947, 77.70345
252.0768, 82.98505
252.5589, 87.25857
253.0411, 89.46577
253.5232, 88.33184
254.0053, 88.15877
254.4874, 90.21115
254.9695, 94.56055
255.4516, 96.51255
255.9338, 95.60499
256.4159, 93.13741
256.8980, 89.85233
257.3801, 84.89075
257.8622, 81.24360
258.3444, 80.60709
258.8265, 82.71315
259.3086, 79.39072
259.7907, 67.28310
260.2728, 54.73693
260.7549, 49.96437
261.2371, 56.12576
261.7192, 61.02151
262.2013, 61.99510
262.6834, 59.55336
263.1655, 59.50885
263.6476, 63.58134
264.1298, 67.27282
264.6119, 66.37079
265.0940, 58.98616
265.5761, 53.47943
266.0582, 51.71675
266.5403, 52.91695
267.0225, 52.57258
267.5046, 50.42815
267.9867, 47.26532
268.4688, 43.20554
268.9509, 37.61486
269.4330, 33.81152
269.9152, 32.73502
270.3973, 33.60251
270.8794, 33.39418
271.3615, 32.00285
271.8436, 29.84441
272.3257, 26.90731
272.8079, 22.91658
273.2900, 19.95118
273.7721, 18.48238
274.2542, 17.95954
274.7363, 16.65074
275.2184, 14.34589
275.7006, 12.09062
276.1827, 10.51572
276.6648, 9.627277
277.1469, 9.326515
277.6290, 9.896248
278.1111, 10.72124
278.5933, 10.25507
279.0754, 8.284431
279.5575, 6.248569
280.0396, 4.895470
280.5217, 4.239361
281.0038, 3.754578
281.4860, 3.340069
281.9681, 3.226704
282.4502, 4.100536
282.9323, 6.049568
283.4144, 7.706360
283.8965, 8.414879
284.3787, 8.212715
284.8608, 7.162529
285.3429, 4.803940
285.8250, 2.892216
286.3071, 4.899311
286.7892, 10.72409
287.2714, 15.58701
287.7535, 17.01691
288.2356, 15.57133
288.7177, 14.24353
289.1998, 13.00350
289.6819, 11.94539
290.1641, 11.51513
290.6462, 11.57054
291.1283, 10.93510
291.6104, 8.779869
292.0925, 5.657879
292.5746, 3.277374
293.0568, 1.669746
293.5389, 0.2990800
294.0210, 1.691463
294.5031, 4.001236
294.9852, 5.360588
295.4673, 5.037510
295.9495, 3.691647
296.4316, 2.026222
296.9137, 8.4816001E-02
297.3958, 0.7308540
297.8779, 2.631680
298.3600, 8.106613
298.8422, 10.29841
299.3243, 6.122795
299.8064, 0.1124530
300.2885, 2.337856
300.7706, 0.9351080
301.2527, 1.477898
301.7349, 3.852890
302.2170, 5.830360
302.6991, 6.671402
303.1812, 6.006451
303.6633, 4.596992
304.1454, 2.951614
304.6276, 1.171818
305.1097, 0.4104160
305.5918, 1.979519
306.0739, 3.075371
306.5560, 2.861382
307.0381, 0.7805900
307.5203, 1.300945
308.0024, 1.755219
308.4845, 1.021763
308.9666, 0.1291620
309.4487, 0.8398930
309.9308, 1.490383
310.4130, 1.091927
310.8951, 0.7133870
311.3772, 1.816467
311.8593, 0.2744560
312.3414, 3.781414
312.8235, 5.916222
313.3057, 3.262169
313.7878, 0.6390340
314.2699, 1.789318
314.7520, 7.124123
315.2341, 11.42392
315.7162, 10.74207
316.1984, 8.174114
316.6805, 7.193306
317.1626, 10.48909
317.6447, 14.08523
318.1268, 16.57517
318.6089, 17.97206
319.0911, 18.75499
319.5732, 18.99858
320.0553, 18.74084
320.5374, 18.01317
321.0195, 15.18353
321.5016, 13.63174
321.9838, 14.93975
322.4659, 18.47538
322.9480, 21.15116
323.4301, 21.57137
323.9122, 21.54906
324.3943, 22.07213
324.8765, 24.12237
325.3586, 25.45554
325.8407, 25.24105
326.3228, 24.13419
326.8049, 23.80338
327.2870, 24.57655
327.7692, 25.94328
328.2513, 27.73626
328.7334, 29.88224
329.2155, 32.62420
329.6976, 37.28646
330.1797, 42.11279
330.6619, 44.24943
331.1440, 42.00535
331.6261, 39.31871
332.1082, 36.68319
332.5903, 33.78836
333.0724, 33.61979
333.5546, 37.85688
334.0367, 43.29095
334.5188, 46.48930
335.0009, 47.04315
335.4830, 46.21370
335.9651, 43.44949
336.4473, 39.06310
336.9294, 37.59905
337.4115, 40.03223
337.8936, 43.45631
338.3757, 45.50003
338.8578, 45.84805
339.3399, 46.44286
339.8221, 47.41339
340.3042, 48.87439
340.7863, 51.08216
341.2684, 54.06356
341.7505, 57.78619
342.2326, 62.54468
342.7148, 68.28970
343.1969, 73.80977
343.6790, 78.95699
344.1611, 83.87735
344.6432, 88.34946
345.1253, 92.38896
345.6075, 97.33047
346.0896, 104.8095
346.5717, 113.9758
347.0538, 120.3316
347.5359, 123.4684
348.0180, 126.1655
348.5002, 132.0886
348.9823, 140.5202
349.4644, 148.4655
349.9465, 154.3368
350.4286, 159.2852
350.9107, 165.7749
351.3929, 173.6584
351.8750, 180.8951
352.3571, 184.7953
352.8392, 187.1098
353.3213, 191.2432
353.8034, 199.2377
354.2856, 207.8297
354.7677, 213.1543
355.2498, 215.9603
355.7319, 219.4250
356.2140, 225.9561
356.6961, 234.0105
357.1783, 242.0478
357.6604, 249.2863
358.1425, 257.9945
358.6246, 271.5996
359.1067, 287.5265
359.5888, 301.0604
360.0710, 308.5800
360.5531, 314.3992
361.0352, 321.2716
361.5173, 329.6651
361.9994, 337.4149
362.4815, 346.2047
362.9637, 352.9747
363.4458, 354.4372
363.9279, 346.9967
364.4100, 336.6886
364.8921, 325.4251
365.3742, 313.0402
365.8564, 298.0779
366.3385, 278.8726
366.8206, 258.0815
367.3027, 237.3000
367.7848, 215.2475
368.2669, 194.6572
368.7491, 176.1537
369.2312, 159.3324
369.7133, 143.5771
370.1954, 127.9107
370.6775, 114.2395
371.1596, 103.6224
371.6418, 97.07947
372.1239, 90.30585
372.6060, 82.82420
373.0881, 75.50539
373.5702, 69.93972
374.0523, 67.15526
374.5345, 63.69577
375.0166, 58.32144
375.4987, 51.04417
375.9808, 44.38966
376.4629, 37.76613
376.9450, 32.90574
377.4272, 32.18052
377.9093, 36.19806
378.3914, 38.68225
378.8735, 38.34710
379.3556, 35.92768
379.8377, 33.19934
380.3199, 30.14259
380.8020, 27.16964
381.2841, 24.48540
381.7662, 22.19640
382.2483, 20.44757
382.7304, 19.06183
383.2126, 18.30265
383.6947, 19.15979
384.1768, 21.24077
384.6589, 22.62722
385.1410, 21.95506
385.6231, 20.27413
386.1053, 19.39152
386.5874, 19.35684
387.0695, 19.28576
387.5516, 17.63444
388.0337, 15.40327
388.5158, 14.41573
388.9980, 16.11414
389.4801, 18.27421
389.9622, 18.83765
390.4443, 18.17295
390.9264, 17.82584
391.4085, 18.52125
391.8907, 19.96516
392.3728, 22.15409
392.8549, 25.58488
393.3370, 28.36874
393.8191, 29.01104
394.3012, 28.54579
394.7834, 28.71675
395.2655, 30.97492
395.7476, 33.13235
396.2297, 34.12963
396.7118, 33.70487
397.1939, 33.78955
397.6761, 35.18634
398.1582, 36.95533
398.6403, 38.31158
399.1224, 38.53371
399.6045, 39.12278
400.0866, 40.31635
400.5688, 42.03409
401.0509, 43.72651
401.5330, 45.16870
402.0151, 46.87627
402.4972, 49.14312
402.9793, 52.22942
403.4615, 55.23470
403.9436, 58.15676
404.4257, 60.97963
404.9078, 63.77406
405.3899, 66.79329
405.8720, 68.80546
406.3542, 68.68793
406.8363, 66.77513
407.3184, 68.05694
407.8005, 73.18520
408.2826, 78.80981
408.7647, 81.34939
409.2469, 81.04391
409.7290, 81.33324
410.2111, 83.14563
410.6932, 85.58155
411.1753, 86.77554
411.6574, 86.83067
412.1396, 86.85731
412.6217, 87.90609
413.1038, 89.33868
413.5859, 90.20774
414.0680, 90.55251
414.5501, 89.55276
415.0323, 85.38813
415.5144, 79.38363
415.9965, 74.02895
416.4786, 71.00198
416.9607, 68.65889
417.4428, 65.86282
417.9250, 62.63399
418.4071, 59.06341
418.8892, 54.67977
419.3713, 50.27879
419.8534, 46.60414
420.3355, 43.98203
420.8177, 41.75957
421.2998, 40.59619
421.7819, 39.63297
422.2640, 36.97033
422.7461, 29.98221
423.2282, 23.23506
423.7104, 18.12967
424.1925, 14.80251
424.6746, 13.12544
425.1567, 15.08083
425.6388, 17.45969
426.1209, 17.30585
426.6031, 12.45519
427.0852, 8.580551
427.5673, 6.578926
428.0494, 6.151165
428.5315, 5.897774
429.0136, 6.094986
429.4958, 5.895077
429.9779, 4.454548
430.4600, 1.375755
430.9421, 5.6110001E-03
431.4242, 0.8765180
431.9063, 2.616550
432.3885, 3.091312
432.8706, 2.285782
433.3527, 1.341541
433.8348, 0.5894550
434.3169, 1.4175000E-02
434.7990, 0.4836080
435.2812, 0.9040030
435.7633, 1.052395
436.2454, 0.4388390
436.7275, 0.5588840
437.2096, 1.118362
437.6917, 1.137596
438.1739, 0.5377920
438.6560, 1.407352
439.1381, 4.117805
439.6202, 6.060257
440.1023, 6.188988
440.5844, 5.391750
441.0666, 4.276825
441.5487, 2.885647
442.0308, 1.382786
442.5129, 0.9654500
442.9950, 3.015301
443.4771, 3.673504
443.9593, 0.3757440
444.4414, 1.903217
444.9235, 0.9903140
445.4056, 2.264351
445.8877, 4.944557
446.3698, 5.884941
446.8520, 6.896305
447.3341, 8.869232
447.8162, 12.09772
448.2983, 15.40340
448.7804, 19.51427
449.2625, 23.25526
449.7447, 24.76611
450.2268, 22.51213
450.7089, 21.87131
451.1910, 24.28278
451.6731, 29.00368
452.1552, 32.60854
452.6374, 34.81968
453.1195, 36.88351
453.6016, 39.35245
454.0837, 42.21675
454.5658, 45.97069
455.0479, 50.72396
455.5301, 56.03559
456.0122, 61.47908
456.4943, 67.02573
456.9764, 71.98663
457.4585, 75.64469
457.9406, 78.92922
458.4228, 83.44282
458.9049, 89.09756
459.3870, 95.43487
459.8691, 102.8818
460.3512, 110.4606
460.8333, 116.6620
461.3155, 120.6380
461.7976, 124.9588
462.2797, 131.6659
462.7618, 139.8329
463.2439, 147.7245
463.7260, 154.4950
464.2082, 161.0680
464.6903, 167.6991
465.1724, 174.4053
465.6545, 181.0897
466.1366, 188.0981
466.6187, 194.7872
467.1009, 200.7349
467.5830, 208.9082
468.0651, 212.3197
468.5472, 209.1154
469.0293, 201.7033
469.5114, 194.6360
469.9936, 187.5582
470.4757, 181.6695
470.9578, 177.8490
471.4399, 176.0623
471.9220, 172.3694
472.4041, 166.2755
472.8863, 159.8952
473.3684, 155.9460
473.8505, 154.3121
474.3326, 149.8809
474.8147, 141.0245
475.2968, 130.7272
475.7790, 124.4484
476.2611, 121.6608
476.7432, 119.0387
477.2253, 114.5223
477.7074, 109.2079
478.1895, 105.0713
478.6717, 102.1357
479.1538, 98.92425
479.6359, 93.62988
480.1180, 87.65240
480.6001, 82.80659
481.0822, 80.19662
481.5644, 77.67221
482.0465, 74.35609
482.5286, 70.30850
483.0107, 65.65894
483.4928, 59.33538
483.9749, 53.38923
484.4571, 49.02288
484.9392, 46.58882
485.4213, 43.20465
485.9034, 36.68850
486.3855, 30.42416
486.8676, 26.77357
487.3498, 27.64924
487.8319, 27.65544
488.3140, 26.13691
488.7961, 23.71483
489.2782, 22.06507
489.7603, 21.65742
490.2425, 20.43142
490.7246, 16.92447
491.2067, 11.51624
491.6888, 8.918095
492.1709, 9.465588
492.6530, 10.96687
493.1352, 11.68846
493.6173, 11.71838
494.0994, 11.31378
494.5815, 10.39732
495.0636, 9.331879
495.5457, 8.855751
496.0279, 8.685593
496.5100, 7.940079
496.9921, 4.969158
497.4742, 1.914680
497.9563, 1.073997
498.4384, 2.469166
498.9206, 4.033276
499.4027, 4.973579
499.8848, 5.476219
500.3669, 5.789211
500.8490, 6.692753
501.3311, 6.077637
501.8133, 1.425262
502.2954, 4.839569
502.7775, 7.936005
503.2596, 5.009159
503.7417, 1.723896
504.2238, 1.121384
504.7060, 3.520954
505.1881, 4.195698
505.6702, 2.333035
506.1523, 6.8516001E-02
506.6344, 1.050343
507.1165, 0.7955320
507.5987, 1.200169
508.0808, 2.701141
508.5629, 4.227962
509.0450, 3.835556
509.5271, 1.666832
510.0092, 0.3395080
510.4914, 1.269066
510.9735, 1.757618
511.4556, 3.512321
511.9377, 6.311863
512.4199, 8.398869
512.9020, 7.803898
513.3841, 6.137413
513.8662, 5.364597
514.3483, 5.861927
514.8304, 6.754025
515.3126, 7.608036
515.7947, 8.500423
516.2768, 9.539703
516.7589, 11.80376
517.2410, 13.12372
517.7231, 11.97894
518.2053, 9.023327
518.6874, 7.468063
519.1695, 8.650951
519.6516, 10.43996
520.1337, 12.19859
520.6158, 13.98944
521.0980, 15.40567
521.5801, 15.98053
522.0622, 16.78421
522.5443, 19.12888
523.0264, 23.33909
523.5085, 27.27021
523.9907, 30.80754
524.4728, 33.57275
524.9549, 34.30993
525.4370, 33.10248
525.9191, 31.94718
526.4012, 31.19188
526.8834, 31.34666
527.3655, 33.97612
527.8476, 39.01826
528.3297, 44.52690
528.8118, 50.35827
529.2939, 55.17789
529.7761, 56.81602
530.2582, 53.29779
530.7403, 50.05790
531.2224, 50.03517
531.7045, 52.31289
532.1866, 55.34616
532.6688, 59.96695
533.1509, 64.00213
533.6330, 66.46047
534.1151, 67.39341
534.5972, 68.99115
535.0793, 71.68116
535.5615, 74.60812
536.0436, 77.62320
536.5257, 81.37464
537.0078, 82.61185
537.4899, 80.16909
537.9720, 77.06007
538.4542, 77.47503
538.9363, 81.65604
539.4184, 85.47204
539.9005, 87.86618
540.3826, 89.42462
540.8647, 91.47176
541.3469, 93.88039
541.8290, 95.67466
542.3111, 95.50595
542.7932, 94.74319
543.2753, 95.99514
543.7574, 99.35900
544.2396, 101.8563
544.7217, 100.3237
545.2038, 97.15340
545.6859, 94.76913
546.1680, 94.58441
546.6501, 93.67589
547.1323, 89.89765
547.6144, 84.96345
548.0965, 81.77396
548.5786, 83.50042
549.0607, 83.94282
549.5428, 81.41153
550.0250, 76.22919
550.5071, 71.93442
550.9892, 69.38485
551.4713, 66.16727
551.9534, 60.03694
552.4355, 50.35456
552.9177, 45.15186
553.3998, 45.43309
553.8819, 47.35099
554.3640, 45.75166
554.8461, 41.59247
555.3282, 39.45860
555.8104, 41.77090
556.2925, 44.57382
556.7746, 40.31373
557.2567, 31.55270
557.7388, 26.03415
558.2209, 31.98155
558.7031, 39.89741
559.1852, 41.77911
559.6673, 37.74653
560.1494, 33.64700
560.6315, 31.67410
561.1136, 31.31241
561.5958, 32.22073
562.0779, 35.57940
562.5600, 37.50415
563.0421, 37.39309
563.5242, 36.01821
564.0063, 34.08157
564.4885, 30.93242
564.9706, 28.84203
565.4527, 28.62731
565.9348, 29.58723
566.4169, 29.04848
566.8990, 27.17645
567.3812, 24.74871
567.8633, 21.58109
568.3454, 17.98360
568.8275, 15.30857
569.3096, 13.59588
569.7917, 12.59734
570.2739, 12.77192
570.7560, 13.39651
571.2381, 13.14275
571.7202, 11.19011
572.2023, 9.534790
572.6844, 9.717361
573.1666, 11.06478
573.6487, 12.40252
574.1308, 13.58273
574.6129, 14.55955
575.0950, 15.77346
575.5771, 16.90056
576.0593, 16.17808
576.5414, 11.42164
577.0235, 7.489683
577.5056, 6.463800
577.9877, 8.723591
578.4698, 10.27786
578.9520, 11.10710
579.4341, 11.41158
579.9162, 11.40802
580.3983, 11.08163
580.8804, 9.890203
581.3625, 7.446417
581.8447, 5.397087
582.3268, 6.496691
582.8089, 9.416990
583.2910, 11.01971
583.7731, 9.316956
584.2552, 7.065765
584.7373, 6.754898
585.2194, 7.929852
585.7015, 8.886555
586.1837, 8.343191
586.6658, 7.800831
587.1479, 8.438217
587.6300, 10.73234
588.1121, 11.73587
588.5942, 8.798046
589.0764, 5.876396
589.5585, 5.858629
590.0406, 11.18076
590.5227, 13.29569
591.0048, 10.67840
591.4869, 6.416649
591.9691, 5.869368
592.4512, 9.257229
592.9333, 11.74657
593.4154, 11.83526
593.8975, 10.53735
594.3796, 9.694584
594.8618, 9.106745
595.3439, 8.337244
595.8260, 6.752317
596.3081, 5.159519
596.7902, 4.487656
597.2723, 4.759380
597.7545, 5.362238
598.2366, 5.777645
598.7187, 6.502342
599.2008, 8.293346
599.6829, 13.03136
600.1650, 14.93348
600.6472, 9.926445
601.1293, 3.136259
601.6114, 0.4951000
602.0935, 4.678556
602.5756, 7.428118
603.0577, 7.079926
603.5399, 4.947384
604.0220, 4.688637
604.5041, 6.493923
604.9862, 8.206207
605.4683, 8.914284
605.9504, 8.819189
606.4326, 8.278326
606.9147, 7.341949
607.3968, 6.668480
607.8789, 7.290329
608.3610, 8.197956
608.8431, 8.107038
609.3253, 6.782652
609.8074, 5.028379
610.2895, 1.850702
610.7716, 0.8321230
611.2537, 1.179438
611.7358, 5.172258
612.2180, 8.832771
612.7001, 6.654352
613.1822, 1.846958
613.6643, 5.5819999E-02
614.1464, 2.800735
614.6285, 4.398851
615.1107, 2.607784
615.5928, 1.346886
616.0749, 1.832769
616.5570, 1.396034
617.0391, 4.756939
617.5212, 6.324636
618.0034, 6.397861
618.4855, 5.296299
618.9676, 3.052290
619.4497, 1.373980
619.9318, 1.895119
620.4139, 3.581852
620.8961, 5.594784
621.3782, 8.356274
621.8603, 9.535175
622.3424, 6.241079
622.8245, 1.595785
623.3066, 0.8162670
623.7888, 2.086853
624.2709, 4.147970
624.7530, 4.617682
625.2351, 3.962654
625.7172, 3.212870
626.1993, 2.296869
626.6815, 1.520983
627.1636, 1.113232
627.6457, 0.8922060
628.1278, 0.3071440
628.6099, 2.492363
629.0920, 3.868683
629.5742, 2.392300
630.0563, 0.4254720
630.5384, 1.918606
631.0205, 1.937916
631.5026, 1.175179
631.9847, 0.7268120
632.4669, 2.721230
632.9490, 3.773787
633.4311, 3.398785
633.9132, 2.714151
634.3953, 1.863342
634.8774, 0.9170720
635.3596, 8.7439999E-02
635.8417, 1.596584
636.3238, 2.376183
636.8059, 2.058693
637.2880, 1.055370
637.7701, 0.5791820
638.2523, 0.8211860
638.7344, 5.5049998E-03
639.2165, 3.724125
639.6986, 8.428019
640.1807, 7.764029
640.6628, 2.274536
641.1450, 2.906605
641.6271, 4.093571
642.1092, 3.356411
642.5913, 2.828815
643.0734, 2.674103
643.5555, 2.525368
644.0377, 2.800331
644.5198, 2.623425
645.0019, 1.093903
645.4840, 3.450653
645.9661, 5.990252
646.4482, 5.703161
646.9304, 3.811893
647.4125, 1.306412
647.8946, 2.363239
648.3767, 4.920055
648.8588, 6.107883
649.3409, 6.016590
649.8231, 4.363117
650.3052, 1.330563
650.7873, 1.253273
651.2694, 2.985870
651.7515, 3.648350
652.2336, 2.124977
652.7158, 0.9289930
653.1979, 3.209000
653.6800, 2.745922
654.1621, 1.644920
654.6442, 1.298927
655.1263, 1.800316
655.6085, 1.982811
656.0906, 0.6137580
656.5727, 0.2937580
657.0548, 0.5553860
657.5369, 3.979507
658.0190, 5.613014
658.5012, 4.971554
658.9833, 3.383148
659.4654, 1.879436
659.9475, 0.7052920
660.4296, 0.1325300
660.9117, 0.2246170
661.3939, 0.7849430
661.8760, 1.761154
662.3581, 3.053448
662.8402, 4.411041
663.3223, 5.996128
663.8044, 7.258751
664.2866, 7.844311
664.7687, 7.818150
665.2508, 7.337532
665.7329, 4.950924
666.2150, 3.697536
666.6971, 5.042236
667.1793, 8.481663
667.6614, 11.59958
668.1435, 14.81354
668.6256, 16.64017
669.1077, 16.13715
669.5898, 13.85395
670.0720, 13.06463
670.5541, 13.84451
671.0362, 15.10105
671.5183, 16.83942
672.0004, 18.49714
672.4825, 17.57049
672.9647, 13.58639
673.4468, 10.54589
673.9289, 12.87298
674.4110, 17.35517
674.8931, 20.34347
675.3752, 20.50982
675.8574, 20.34280
676.3395, 20.17258
676.8216, 20.03246
677.3037, 19.90613
677.7858, 19.58765
678.2679, 19.98619
678.7501, 21.42888
679.2322, 23.36672
679.7143, 24.75286
680.1964, 25.56945
680.6785, 26.33567
681.1606, 27.19872
681.6428, 28.22622
682.1249, 28.62241
682.6070, 28.66893
683.0891, 29.42859
683.5712, 32.64050
684.0533, 35.78260
684.5355, 36.70439
685.0176, 35.65204
685.4997, 35.61028
685.9818, 38.08080
686.4639, 40.88042
686.9460, 43.65350
687.4282, 46.84719
687.9103, 47.14648
688.3924, 42.96407
688.8745, 39.05262
689.3566, 39.46365
689.8387, 43.72804
690.3209, 47.03931
690.8030, 49.16440
691.2851, 50.76520
691.7672, 52.70511
692.2493, 54.41746
692.7314, 54.64285
693.2136, 52.46882
693.6957, 50.75308
694.1778, 51.46275
694.6599, 53.41206
695.1420, 55.15006
695.6241, 56.05014
696.1063, 57.17174
696.5884, 59.09466
697.0705, 60.81863
697.5526, 60.51133
698.0347, 57.95872
698.5168, 56.28841
698.9990, 56.14140
699.4811, 56.82488
699.9632, 57.22492
700.4453, 57.34187
700.9274, 57.15718
701.4095, 57.39300
701.8917, 56.82570
702.3738, 52.90618
702.8559, 46.56221
703.3380, 41.95136
703.8201, 42.36678
704.3022, 43.96318
704.7844, 44.84973
705.2665, 44.89030
705.7486, 45.70662
706.2307, 47.83217
706.7128, 49.85965
707.1949, 50.86091
707.6771, 50.78318
708.1592, 51.76441
708.6413, 53.99650
709.1234, 55.71349
709.6055, 54.98104
710.0876, 52.84003
710.5698, 51.00736
711.0519, 49.51212
711.5340, 49.40315
712.0161, 53.43776
712.4982, 58.23773
712.9803, 59.97960
713.4625, 54.79052
713.9446, 52.37968
714.4267, 57.22718
714.9088, 64.25755
715.3909, 68.27450
715.8730, 68.03716
716.3552, 68.36982
716.8373, 69.87156
717.3194, 72.02315
717.8015, 74.39310
718.2836, 76.82570
718.7657, 77.61635
719.2479, 74.90967
719.7300, 72.60897
720.2121, 76.55571
720.6942, 84.36551
721.1763, 90.78950
721.6584, 91.92159
722.1406, 92.88565
722.6227, 95.94289
723.1048, 100.5916
723.5869, 104.7969
724.0690, 108.6124
724.5511, 111.6454
725.0333, 113.3153
725.5154, 114.0709
725.9975, 116.5107
726.4796, 120.7753
726.9617, 125.4917
727.4438, 130.2864
727.9260, 134.9401
728.4081, 138.6217
728.8902, 141.4661
729.3723, 144.5539
729.8544, 148.2288
730.3365, 152.6441
730.8187, 158.2257
731.3008, 165.1043
731.7829, 171.4786
732.2650, 176.4565
732.7471, 181.3518
733.2292, 186.9258
733.7114, 193.3761
734.1935, 199.2109
734.6756, 204.4029
735.1577, 209.1801
735.6398, 212.9801
736.1219, 216.4474
736.6041, 222.2648
737.0862, 230.8196
737.5683, 240.3506
738.0504, 249.3190
738.5325, 258.3327
739.0146, 268.3167
739.4968, 279.5343
739.9789, 290.7597
740.4610, 300.4909
740.9431, 310.6147
741.4252, 323.7206
741.9073, 342.1077
742.3895, 357.1886
742.8716, 367.3126
743.3537, 375.7290
743.8358, 386.9063
744.3179, 400.6589
744.8000, 416.0298
745.2822, 433.3578
745.7643, 450.7522
746.2464, 465.9480
746.7285, 479.6369
747.2106, 493.1103
747.6927, 506.0339
748.1749, 520.0931
748.6570, 535.7653
749.1391, 552.9319
749.6212, 571.5392
750.1033, 594.1415
750.5854, 613.9689
751.0676, 628.8567
751.5497, 640.3492
752.0318, 652.6732
752.5139, 665.7969
752.9960, 676.5826
753.4781, 683.0047
753.9603, 687.2604
754.4424, 692.8052
754.9245, 698.9103
755.4066, 703.3118
755.8887, 707.1505
756.3708, 706.9621
756.8530, 700.8556
757.3351, 689.2051
757.8172, 673.3655
758.2993, 652.5914
758.7814, 629.5923
759.2635, 605.1863
759.7457, 579.1915
760.2278, 548.3420
760.7099, 512.5238
761.1920, 476.8826
761.6741, 444.0759
762.1563, 413.3500
762.6384, 382.9508
763.1205, 353.3434
763.6026, 326.1962
764.0847, 304.3156
764.5668, 283.8574
765.0490, 262.4646
765.5311, 239.7776
766.0132, 219.6293
766.4953, 202.5287
766.9774, 187.1997
767.4595, 173.2588
767.9417, 160.6089
768.4238, 150.0725
768.9059, 141.9292
769.3880, 133.5428
769.8701, 121.3698
770.3522, 108.3335
770.8344, 100.5401
771.3165, 97.96272
771.7986, 95.15868
772.2807, 87.81926
772.7628, 79.99164
773.2449, 74.49722
773.7271, 72.04937
774.2092, 69.24048
774.6913, 65.82745
775.1734, 62.18988
775.6555, 58.40851
776.1376, 54.43837
776.6198, 51.05134
777.1019, 48.22272
777.5840, 46.04709
778.0661, 45.29502
778.5482, 45.01800
779.0303, 43.40451
779.5125, 40.31006
779.9946, 37.06433
780.4767, 34.17154
780.9588, 31.67189
781.4409, 29.51576
781.9230, 27.95737
782.4052, 26.44799
782.8873, 26.10678
783.3694, 26.07629
783.8515, 26.22489
784.3336, 26.59208
784.8157, 25.52582
785.2979, 22.87566
785.7800, 19.62416
786.2621, 16.33826
786.7442, 13.21967
787.2263, 10.31749
787.7084, 7.483601
788.1906, 5.928379
788.6727, 7.885635
789.1548, 10.22567
789.6369, 10.08987
790.1190, 5.950397
790.6011, 3.314842
791.0833, 2.495872
791.5654, 2.703522
792.0475, 3.706631
792.5296, 5.362514
793.0117, 5.422630
793.4938, 3.495930
793.9760, 1.752331
794.4581, 3.708504
794.9402, 6.546989
795.4223, 5.860241
795.9044, 0.2381900
796.3865, 5.216221
796.8687, 6.671925
797.3508, 6.057308
797.8329, 4.453880
798.3150, 0.8030740
798.7971, 0.8640820
799.2792, 3.5000000E-02
799.7614, 1.608665
800.2435, 1.718842
800.7256, 0.7599330
801.2077, 0.8311920
801.6898, 2.286469
802.1719, 3.914154
802.6541, 5.050419
803.1362, 5.540432
803.6183, 4.993702
804.1004, 2.700447
804.5825, 1.322582
805.0646, 2.688522
805.5468, 4.213501
806.0289, 3.634956
806.5110, 7.0118003E-02
806.9931, 1.012283
807.4752, 1.663391
807.9573, 4.462730
808.4395, 3.083900
808.9216, 1.013561
809.4037, 4.184418
809.8858, 5.919788
810.3679, 6.647579
810.8500, 6.358059
811.3322, 5.380074
811.8143, 3.939934
812.2964, 1.641361
812.7785, 0.1482580
813.2606, 1.686844
813.7427, 2.101234
814.2249, 4.5970999E-02
814.7070, 4.689526
815.1891, 7.156979
815.6712, 6.976978
816.1533, 5.912781
816.6354, 5.197979
817.1176, 5.018005
817.5997, 5.878559
818.0818, 7.935238
818.5639, 9.257412
819.0460, 7.756180
819.5281, 6.412220
820.0103, 7.939892
820.4924, 13.80239
820.9745, 17.04488
821.4566, 17.37748
821.9387, 15.54279
822.4208, 10.87415
822.9030, 4.191059
823.3851, 0.7186470
823.8672, 0.7731400
824.3493, 2.544739
824.8314, 6.052731
825.3135, 9.510345
825.7957, 11.12067
826.2778, 10.48664
826.7599, 9.431213
827.2420, 7.244358
827.7241, 5.798683
828.2062, 6.354298
828.6884, 9.165779
829.1705, 10.64670
829.6526, 10.58552
830.1347, 10.39754
830.6168, 11.86834
831.0989, 13.75640
831.5811, 12.82214
832.0632, 9.156525
832.5453, 6.621391
833.0274, 9.629776
833.5095, 12.80790
833.9916, 12.13405
834.4738, 6.806099
834.9559, 3.727947
835.4380, 3.927948
835.9201, 4.392139
836.4022, 3.258671
836.8843, 1.016552
837.3665, 1.362335
837.8486, 4.145432
838.3307, 6.516674
838.8128, 6.210381
839.2949, 4.848427
839.7770, 3.571701
840.2592, 2.559212
840.7413, 2.618584
841.2234, 5.717548
841.7055, 8.064743
842.1876, 8.049385
842.6697, 6.119217
843.1519, 5.192493
843.6340, 5.420181
844.1161, 5.595509
844.5982, 5.121700
845.0803, 4.279419
845.5624, 3.256424
846.0446, 2.283676
846.5267, 2.201931
847.0088, 4.405704
847.4909, 6.619556
847.9730, 7.788998
848.4551, 8.041676
848.9373, 8.000538
849.4194, 7.654133
849.9015, 7.019356
850.3836, 5.820011
850.8657, 4.633347
851.3478, 5.153934
851.8300, 7.102222
852.3121, 8.751656
852.7942, 9.179779
853.2763, 9.471275
853.7584, 11.21637
854.2405, 13.13643
854.7227, 13.52411
855.2048, 9.586369
855.6869, 7.531212
856.1690, 9.555931
856.6511, 12.67197
857.1332, 12.12359
857.6154, 7.579330
858.0975, 3.994648
858.5796, 2.282654
859.0617, 1.678719
859.5438, 1.616653
860.0259, 1.842968
860.5081, 1.943359
860.9902, 1.688625
861.4723, 1.770931
861.9544, 3.302448
862.4365, 4.838245
862.9186, 4.669125
863.4008, 1.656349
863.8829, 0.7022550
864.3650, 2.553085
864.8471, 5.019344
865.3292, 6.012020
865.8113, 5.797756
866.2935, 5.485500
866.7756, 5.269917
867.2577, 5.020893
867.7398, 5.227222
868.2219, 5.090481
868.7040, 3.594601
869.1862, 0.1055070
869.6683, 1.528107
870.1504, 0.4571080
870.6325, 2.657520
871.1146, 2.950386
871.5967, 1.636379
872.0789, 1.043716
872.5610, 1.055492
873.0431, 0.9369810
873.5252, 0.1586070
874.0073, 0.9420590
874.4894, 2.583008
874.9716, 4.566509
875.4537, 5.025894
875.9358, 1.542908
876.4179, 1.236732
876.9000, 1.851192
877.3821, 0.7165180
877.8643, 0.4270710
878.3464, 1.581783
878.8285, 2.276245
879.3106, 2.174931
879.7927, 1.597244
880.2748, 0.6354180
880.7570, 0.4647030
881.2391, 1.021919
881.7212, 0.2285000
882.2033, 0.6374130
882.6854, 1.055069
883.1675, 3.745338
883.6497, 5.797352
884.1318, 7.290867
884.6139, 7.471226
885.0960, 5.868172
885.5781, 3.751194
886.0602, 2.828815
886.5424, 2.797424
887.0245, 3.109432
887.5066, 3.872940
887.9887, 4.305981
888.4708, 3.460247
888.9529, 2.473030
889.4351, 2.600220
889.9172, 4.589260
890.3993, 5.570442
890.8814, 5.376118
891.3635, 4.566738
891.8456, 3.271099
892.3278, 1.830715
892.8099, 1.193951
893.2920, 1.458645
893.7741, 2.252357
894.2562, 4.041573
894.7383, 5.624203
895.2205, 6.067131
895.7026, 5.184597
896.1847, 5.314453
896.6668, 6.997646
897.1489, 8.438480
897.6310, 8.615120
898.1132, 7.800407
898.5953, 6.954262
899.0774, 6.150993
899.5595, 5.633369
900.0416, 5.579182
900.5237, 5.841423
901.0059, 6.410297
901.4880, 7.221657
901.9701, 8.105381
902.4522, 9.333149
902.9343, 9.989212
903.4164, 9.509666
903.8986, 8.715958
904.3807, 9.841389
904.8628, 12.59314
905.3449, 14.69935
905.8270, 15.55816
906.3091, 15.41427
906.7913, 13.21662
907.2734, 10.66179
907.7555, 9.983978
908.2376, 14.23456
908.7197, 16.15924
909.2018, 14.42140
909.6840, 11.87315
910.1661, 11.58596
910.6482, 13.31196
911.1303, 13.60155
911.6124, 12.11697
912.0945, 10.76203
912.5767, 11.55034
913.0588, 13.00880
913.5409, 13.45323
914.0230, 12.56213
914.5051, 12.75249
914.9872, 14.85899
915.4694, 17.51668
915.9515, 20.85110
916.4336, 24.35268
916.9157, 23.50839
917.3978, 18.57214
917.8799, 14.23926
918.3621, 13.69574
918.8442, 14.57437
919.3263, 14.74705
919.8084, 14.44783
920.2905, 14.34717
920.7726, 14.26751
921.2548, 15.01804
921.7369, 17.51008
922.2190, 20.28366
922.7011, 19.62074
923.1832, 15.76671
923.6653, 13.90667
924.1475, 15.69797
924.6296, 18.02746
925.1117, 17.82571
925.5938, 16.16567
926.0759, 14.18308
926.5580, 11.26587
927.0402, 10.28533
927.5223, 12.77859
928.0044, 15.80696
928.4865, 16.69009
928.9686, 15.44344
929.4507, 15.24335
929.9329, 16.14876
930.4150, 16.91408
930.8971, 16.24081
931.3792, 15.17594
931.8613, 14.52539
932.3434, 14.34728
932.8256, 14.79897
933.3077, 16.94592
933.7898, 18.84954
934.2719, 19.61423
934.7540, 19.53707
935.2361, 20.19507
935.7183, 21.47647
936.2004, 22.16832
936.6825, 21.55678
937.1646, 20.77810
937.6467, 21.00666
938.1288, 21.82849
938.6110, 22.53818
939.0931, 23.51649
939.5752, 23.22667
940.0573, 20.57090
940.5394, 18.09405
941.0215, 18.98505
941.5037, 22.86618
941.9858, 26.04123
942.4679, 28.20102
942.9500, 29.65842
943.4321, 30.65166
943.9142, 31.07632
944.3964, 30.50710
944.8785, 28.78075
945.3606, 28.04089
945.8427, 28.77305
946.3248, 29.96180
946.8069, 31.60143
947.2891, 33.43914
947.7712, 34.23603
948.2533, 34.10987
948.7354, 33.77707
949.2175, 33.32558
949.6996, 33.08050
950.1818, 33.27633
950.6639, 33.84456
951.1460, 34.72549
951.6281, 36.78427
952.1102, 37.16161
952.5923, 34.84570
953.0745, 32.13443
953.5566, 33.10209
954.0387, 36.41641
954.5208, 36.58717
955.0029, 32.37197
955.4850, 28.68063
955.9672, 29.86940
956.4493, 32.16420
956.9314, 32.54304
957.4135, 30.62120
957.8956, 28.52676
958.3777, 25.96976
958.8599, 24.10125
959.3420, 23.75790
959.8241, 24.45380
960.3062, 25.33650
960.7883, 26.25267
961.2704, 26.56417
961.7526, 25.09584
962.2347, 23.90222
962.7168, 24.65516
963.1989, 26.06762
963.6810, 25.45460
964.1631, 22.08312
964.6453, 19.48609
965.1274, 18.18274
965.6095, 17.96928
966.0916, 18.87832
966.5737, 20.52034
967.0558, 22.51340
967.5380, 25.07897
968.0201, 26.28751
968.5022, 23.98436
968.9843, 21.41162
969.4664, 20.41924
969.9485, 21.01059
970.4307, 21.93914
970.9128, 23.23379
971.3949, 24.01663
971.8770, 22.91543
972.3591, 21.85843
972.8412, 23.70287
973.3234, 27.03811
973.8055, 28.84573
974.2876, 26.59178
974.7697, 24.82039
975.2518, 24.25945
975.7339, 24.25827
976.2161, 23.74340
976.6982, 22.78905
977.1803, 22.18423
977.6624, 21.97091
978.1445, 22.75606
978.6266, 27.57977
979.1088, 32.21205
979.5909, 31.23297
980.0730, 21.79724
980.5551, 17.84563
981.0372, 22.55473
981.5193, 27.43316
982.0015, 27.80369
982.4836, 25.12018
982.9657, 24.47691
983.4478, 25.47025
983.9299, 26.20980
984.4120, 24.91001
984.8942, 23.97266
985.3763, 25.94128
985.8584, 28.70648
986.3405, 27.75601
986.8226, 21.17405
987.3047, 17.98213
987.7869, 19.89025
988.2690, 22.90246
988.7511, 22.24645
989.2332, 19.31385
989.7153, 16.22068
990.1974, 13.20127
990.6796, 11.05083
991.1617, 10.49291
991.6438, 10.53523
992.1259, 10.79803
992.6080, 11.37806
993.0901, 12.04008
993.5723, 12.51981
994.0544, 12.03038
994.5365, 8.981544
995.0186, 6.238451
995.5007, 8.238234
995.9828, 12.40378
996.4650, 14.09135
996.9471, 8.520832
997.4292, 5.830112
997.9113, 7.482517
998.3934, 10.50269
998.8755, 11.61636
999.3577, 11.11590
999.8398, 10.56906
1000.322, 10.09036
1000.804, 9.734688
1001.286, 10.73498
1001.768, 10.83815
1002.250, 7.195419
1002.732, 0.3466030
1003.215, 2.160814
1003.697, 0.9110010
1004.179, 3.831139
1004.661, 4.796087
1005.143, 4.676716
1005.625, 4.820627
1006.107, 5.092865
1006.589, 5.226719
1007.072, 5.252777
1007.554, 4.889788
1008.036, 2.761726
1008.518, 1.278969
1009.000, 3.070406
1009.482, 8.671810
1009.964, 9.405838
1010.446, 5.099478
1010.928, 0.7167210
1011.411, 0.2155060
1011.893, 0.5013160
1012.375, 1.696537
1012.857, 3.098814
1013.339, 3.654129
1013.821, 2.220343
1014.303, 1.893610
1014.785, 3.849903
1015.268, 6.243942
1015.750, 5.335409
1016.232, 2.237261
1016.714, 0.7533950
1017.196, 1.887724
1017.678, 3.079117
1018.160, 2.340090
1018.642, 1.440323
1019.124, 2.115089
1019.607, 4.483154
1020.089, 4.259907
1020.571, 1.048471
1021.053, 1.702187
1021.535, 2.094179
1022.017, 1.036789
1022.499, 0.9196530
1022.981, 3.220411
1023.464, 4.604872
1023.946, 3.571766
1024.428, 3.142197
1024.910, 3.970028
1025.392, 5.115940
1025.874, 5.674934
1026.356, 5.618309
1026.838, 4.504097
1027.320, 2.302248
1027.803, 0.3399940
1028.285, 5.0737001E-02
1028.767, 7.0676997E-02
1029.249, 1.799465
1029.731, 4.671801
1030.213, 4.332289
1030.695, 0.4856280
1031.177, 3.387205
1031.660, 1.907686
1032.142, 0.9767550
1032.624, 0.4289820
1033.106, 2.117353
1033.588, 3.979843
1034.070, 4.169691
1034.552, 4.547752
1035.034, 6.931908
1035.516, 8.112261
1035.999, 5.113234
1036.481, 1.531504
1036.963, 3.923929
1037.445, 2.295179
1037.927, 3.7574999E-02
1038.409, 0.9968360
1038.891, 3.518337
1039.373, 4.655184
1039.855, 8.077244
1040.338, 10.68423
1040.820, 13.02186
1041.302, 12.40563
1041.784, 7.732445
1042.266, 2.837626
1042.748, 2.778917
1043.230, 5.306479
1043.712, 6.217138
1044.195, 5.063951
1044.677, 4.389954
1045.159, 5.651733
1045.641, 7.015341
1046.123, 8.091848
1046.605, 8.663649
1047.087, 7.412273
1047.569, 4.620901
1048.052, 3.324497
1048.534, 5.385305
1049.016, 6.934013
1049.498, 3.313353
1049.980, 1.518566
1050.462, 2.595055
1050.944, 1.783922
1051.426, 3.415482
1051.908, 1.680124
1052.391, 0.2129080
1052.873, 0.3072700
1053.355, 1.822317
1053.837, 1.122253
1054.319, 0.8586390
1054.801, 1.114120
1055.283, 3.551758
1055.765, 7.409508
1056.247, 9.324406
1056.730, 9.930410
1057.212, 10.04294
1057.694, 9.747417
1058.176, 9.668043
1058.658, 9.872242
1059.140, 10.10966
1059.622, 10.60501
1060.104, 10.70986
1060.587, 9.570387
1061.069, 7.343277
1061.551, 6.552608
1062.033, 7.367279
1062.515, 8.043051
1062.997, 8.033157
1063.479, 7.742931
1063.961, 7.918568
1064.443, 8.077961
1064.926, 7.332335
1065.408, 4.923405
1065.890, 3.540359
1066.372, 3.416899
1066.854, 4.353943
1067.336, 7.191639
1067.818, 10.79166
1068.300, 9.545670
1068.782, 4.702576
1069.265, 1.533169
1069.747, 4.473305
1070.229, 7.570089
1070.711, 7.988638
1071.193, 7.448290
1071.675, 8.334164
1072.157, 10.99464
1072.639, 10.32152
1073.122, 5.835337
1073.604, 1.749426
1074.086, 1.694025
1074.568, 3.583504
1075.050, 6.330542
1075.532, 9.476566
1076.014, 11.05883
1076.496, 10.60851
1076.979, 9.500998
1077.461, 7.712669
1077.943, 6.080618
1078.425, 6.133863
1078.907, 7.059355
1079.389, 7.562428
1079.871, 7.460804
1080.353, 7.441195
1080.835, 7.807014
1081.318, 8.208782
1081.800, 8.375559
1082.282, 8.469414
1082.764, 9.399197
1083.246, 10.82191
1083.728, 11.26637
1084.210, 9.219849
1084.692, 7.824032
1085.174, 10.74193
1085.656, 14.15270
1086.139, 13.68612
1086.621, 8.182678
1087.103, 6.070602
1087.585, 7.552778
1088.067, 9.313791
1088.549, 9.112045
1089.031, 8.060593
1089.513, 7.505041
1089.996, 7.234249
1090.478, 6.978447
1090.960, 6.704382
1091.442, 6.352924
1091.924, 5.882183
1092.406, 5.453083
1092.888, 4.960348
1093.370, 4.675377
1093.853, 5.361940
1094.335, 6.852894
1094.817, 7.957857
1095.299, 8.535370
1095.781, 8.772646
1096.263, 8.492657
1096.745, 7.877464
1097.227, 7.241621
1097.709, 6.613094
1098.192, 6.193323
1098.674, 6.037893
1099.156, 5.972548
1099.638, 6.133175
1100.120, 6.113373
1100.602, 5.355583
1101.084, 3.986443
1101.566, 4.000620
1102.048, 5.499887
1102.531, 6.164419
1103.013, 4.501905
1103.495, 2.728951
1103.977, 3.803511
1104.459, 6.003889
1104.941, 6.883486
1105.423, 5.180307
1105.905, 5.215036
1106.388, 7.374214
1106.870, 9.352093
1107.352, 9.694868
1107.834, 8.898859
1108.316, 7.891975
1108.798, 7.128502
1109.280, 6.895542
1109.762, 8.026306
1110.245, 8.701996
1110.727, 9.060219
1111.209, 8.651175
1111.691, 6.413643
1112.173, 2.891132
1112.655, 0.2451780
1113.137, 1.212671
1113.619, 0.9367730
1114.101, 3.657326
1114.583, 7.487444
1115.066, 7.907478
1115.548, 9.886265
1116.030, 6.877525
1116.512, 8.601236
1116.994, 7.682735
1117.476, 3.215860
1117.958, 8.7286003E-02
1118.440, 3.400833
1118.923, 8.045448
1119.405, 9.101900
1119.887, 7.257265
1120.369, 6.579622
1120.851, 7.286364
1121.333, 7.121170
1121.815, 4.998674
1122.297, 3.183567
1122.780, 5.638556
1123.262, 9.031752
1123.744, 8.924562
1124.226, 3.538530
1124.708, 1.102005
1125.190, 2.197655
1125.672, 4.879633
1126.154, 9.312059
1126.636, 13.50990
1127.119, 13.22513
1127.601, 10.23874
1128.083, 7.866083
1128.565, 7.253616
1129.047, 6.837070
1129.529, 6.350447
1130.011, 6.170713
1130.493, 7.087862
1130.975, 8.406525
1131.458, 6.864973
1131.940, 3.432053
1132.422, 1.743204
1132.904, 6.319981
1133.386, 8.953728
1133.868, 6.025518
1134.350, 2.031599
1134.832, 2.081087
1135.315, 5.530146
1135.797, 6.355070
1136.279, 4.491077
1136.761, 2.383499
1137.243, 1.495893
1137.725, 0.8153040
1138.207, 0.2716330
1138.689, 1.452484
1139.172, 2.408516
1139.654, 3.172281
1140.136, 2.044897
1140.618, 1.295437
1141.100, 4.193123
1141.582, 4.093018
1142.064, 3.112940
1142.546, 2.822805
1143.028, 3.102785
1143.510, 2.882532
1143.993, 2.024031
1144.475, 1.599024
1144.957, 1.822779
1145.439, 2.614491
1145.921, 4.619949
1146.403, 6.650463
1146.885, 7.474783
1147.367, 6.865936
1147.850, 5.677706
1148.332, 3.695612
1148.814, 1.964113
1149.296, 0.7196830
1149.778, 0.1170120
1150.260, 0.6708150
1150.742, 1.881390
1151.224, 3.082684
1151.707, 4.228327
1152.189, 4.900141
1152.671, 4.918955
1153.153, 4.909603
1153.635, 5.261126
1154.117, 5.657013
1154.599, 4.888607
1155.081, 3.757551
1155.563, 4.307867
1156.046, 9.130041
1156.528, 10.64691
1157.010, 6.416868
1157.492, 1.830635
1157.974, 0.2666030
1158.456, 1.106939
1158.938, 3.239368
1159.420, 6.046785
1159.902, 7.522333
1160.385, 5.345037
1160.867, 3.949564
1161.349, 5.150652
1161.831, 6.277613
1162.313, 4.324507
1162.795, 0.1050110
1163.277, 1.723572
1163.759, 1.293919
1164.242, 0.2999340
1164.724, 4.321255
1165.206, 7.122963
1165.688, 6.781105
1166.170, 5.147705
1166.652, 4.243021
1167.134, 3.962492
1167.616, 3.114378
1168.099, 1.709360
1168.581, 0.8512290
1169.063, 1.414398
1169.545, 2.501703
1170.027, 4.190308
1170.509, 5.811317
1170.991, 6.050119
1171.473, 5.093805
1171.955, 5.391157
1172.438, 7.109547
1172.920, 8.267776
1173.402, 6.788612
1173.884, 4.858900
1174.366, 4.265787
1174.848, 4.213337
1175.330, 2.059546
1175.812, 2.346786
1176.294, 3.392006
1176.777, 6.8770997E-02
1177.259, 4.133175
1177.741, 6.507484
1178.223, 7.344719
1178.705, 6.008837
1179.187, 3.138054
1179.669, 0.9921880
1180.151, 0.5433500
1180.634, 0.8746090
1181.116, 6.507740
1181.598, 11.73960
1182.080, 11.40038
1182.562, 9.172081
1183.044, 8.215050
1183.526, 8.648653
1184.008, 9.460823
1184.490, 10.76447
1184.973, 11.23669
1185.455, 10.10135
1185.937, 9.151501
1186.419, 11.06282
1186.901, 13.60564
1187.383, 14.14828
1187.865, 12.38322
1188.347, 11.36403
1188.829, 11.28267
1189.312, 10.28915
1189.794, 6.973848
1190.276, 3.944973
1190.758, 4.507647
1191.240, 6.870377
1191.722, 8.995998
1192.204, 10.62294
1192.686, 11.96317
1193.169, 12.98924
1193.651, 13.96191
1194.133, 15.28210
1194.615, 16.19196
1195.097, 15.52354
1195.579, 13.97404
1196.061, 12.12766
1196.543, 9.183521
1197.026, 10.57255
1197.508, 17.32941
1197.990, 22.47073
1198.472, 20.55118
1198.954, 16.57767
1199.436, 17.15542
1199.918, 19.96338
1200.400, 21.14790
1200.882, 19.42391
1201.365, 18.55824
1201.847, 18.61617
1202.329, 19.17698
1202.811, 20.41641
1203.293, 21.60225
1203.775, 21.60958
1204.257, 20.99030
1204.739, 20.82640
1205.221, 21.58937
1205.704, 21.93457
1206.186, 21.85021
1206.668, 21.38758
1207.150, 20.00164
1207.632, 18.71605
1208.114, 19.23136
1208.596, 20.71140
1209.078, 21.22625
1209.561, 20.24358
1210.043, 19.26225
1210.525, 18.23704
1211.007, 17.68319
1211.489, 18.25782
1211.971, 19.29079
1212.453, 20.38841
1212.935, 21.30100
1213.417, 21.43716
1213.900, 21.12186
1214.382, 18.48395
1214.864, 12.90821
1215.346, 8.471420
1215.828, 9.393826
1216.310, 12.49844
1216.792, 15.36020
1217.274, 17.50321
1217.756, 17.64139
1218.239, 15.08587
1218.721, 13.38118
1219.203, 12.85274
1219.685, 12.54992
1220.167, 11.42292
1220.649, 10.29440
1221.131, 10.37936
1221.613, 11.13892
1222.096, 10.27674
1222.578, 6.931229
1223.060, 5.407730
1223.542, 6.256388
1224.024, 7.552097
1224.506, 7.687908
1224.988, 7.444180
1225.470, 7.512798
1225.953, 7.784367
1226.435, 7.800598
1226.917, 7.525558
1227.399, 7.356577
1227.881, 7.399349
1228.363, 6.799685
1228.845, 3.782711
1229.327, 0.7810270
1229.809, 0.1183220
1230.292, 1.038952
1230.774, 1.015593
1231.256, 5.6724999E-02
1231.738, 0.7918680
1232.220, 1.023563
1232.702, 0.9511950
1233.184, 0.7715230
1233.666, 0.4614220
1234.148, 0.4484180
1234.631, 1.871574
1235.113, 2.705559
1235.595, 2.933382
1236.077, 3.300575
1236.559, 3.909435
1237.041, 4.372507
1237.523, 4.877184
1238.005, 4.621920
1238.488, 1.889446
1238.970, 1.341597
1239.452, 0.3056130
1239.934, 4.570101
1240.416, 7.695166
1240.898, 8.344418
1241.380, 8.375517
1241.862, 8.082727
1242.344, 8.668324
1242.827, 11.72296
1243.309, 15.24064
1243.791, 14.68030
1244.273, 10.88515
1244.755, 9.046055
1245.237, 9.744068
1245.719, 10.30207
1246.201, 9.249950
1246.683, 7.562418
1247.166, 4.866543
1247.648, 2.686905
1248.130, 4.749304
1248.612, 9.657181
1249.094, 12.84325
1249.576, 13.74178
1250.058, 13.39263
1250.540, 10.22458
1251.023, 8.736952
1251.505, 10.71688
1251.987, 13.84157
1252.469, 14.07282
1252.951, 12.67256
1253.433, 12.66376
1253.915, 14.32859
1254.397, 16.33527
1254.880, 19.78957
1255.362, 20.72657
1255.844, 17.50453
1256.326, 13.37349
1256.808, 12.20888
1257.290, 13.54835
1257.772, 17.85937
1258.254, 24.68918
1258.736, 28.25847
1259.219, 26.42979
1259.701, 25.31485
1260.183, 26.21185
1260.665, 27.43638
1261.147, 26.46969
1261.629, 25.01255
1262.111, 25.30768
1262.593, 27.29840
1263.075, 29.15689
1263.558, 31.03705
1264.040, 31.30809
1264.522, 29.27804
1265.004, 28.07014
1265.486, 32.53514
1265.968, 37.78294
1266.450, 39.28418
1266.932, 37.36665
1267.415, 34.52747
1267.897, 30.52193
1268.379, 29.79091
1268.861, 33.19896
1269.343, 36.05599
1269.825, 33.85677
1270.307, 30.54946
1270.789, 28.39931
1271.271, 27.36593
1271.754, 27.12383
1272.236, 27.67352
1272.718, 29.70283
1273.200, 33.23157
1273.682, 35.14354
1274.164, 31.78456
1274.646, 28.36667
1275.128, 27.64819
1275.610, 27.65570
1276.093, 24.11695
1276.575, 18.46303
1277.057, 17.32992
1277.539, 20.88454
1278.021, 23.59228
1278.503, 22.21645
1278.985, 20.39960
1279.467, 18.60307
1279.950, 17.36665
1280.432, 18.18590
1280.914, 19.73855
1281.396, 18.61865
1281.878, 15.15025
1282.360, 12.65973
1282.842, 13.07839
1283.324, 12.36267
1283.807, 9.705160
1284.289, 7.052122
1284.771, 6.734913
1285.253, 7.430225
1285.735, 7.150156
1286.217, 6.287701
1286.699, 6.877909
1287.181, 9.807823
1287.663, 10.90437
1288.146, 9.651794
1288.628, 8.052017
1289.110, 8.161732
1289.592, 8.286049
1290.074, 6.467085
1290.556, 3.777763
1291.038, 2.561684
1291.520, 2.934984
1292.002, 3.128084
1292.485, 3.047188
1292.967, 2.661444
1293.449, 1.611401
1293.931, 0.6403290
1294.413, 2.8324001E-02
1294.895, 0.2606220
1295.377, 0.3145890
1295.859, 1.552982
1296.342, 2.597816
1296.824, 3.339512
1297.306, 3.321577
1297.788, 0.3932290
1298.270, 0.3048570
1298.752, 2.957121
1299.234, 6.936131
1299.716, 9.036362
1300.198, 9.375729
1300.681, 6.500885
1301.163, 2.625227
1301.645, 0.1409740
1302.127, 0.0000000E+00
##END=



