##NAMES=Hennomartinite
##RRUFFID=R130039
##IDEAL CHEMISTRY=SrMn^3+^_2_Si_2_O_7_(OH)_2_&#183;H_2_O
##LOCALITY=Wessels mine, Kuruman, Kalahari Manganese fields, Cape Province, South Africa
##OWNER=RRUFF
##SOURCE=William W. Pinch
##DESCRIPTION=Brown spherical aggregates, associated with purple sugilite, brownish quartz and white hydroxyapophyllite-(K).
##STATUS=The identification of this mineral has been confirmed only by single crystal X-ray diffraction.
##URL=rruff.info/R130039
222.3653, 0.0000000E+00
222.8474, 1.541504
223.3295, 5.360229
223.8116, 10.10551
224.2938, 15.38487
224.7759, 21.07469
225.2580, 27.29788
225.7401, 33.19716
226.2222, 38.72379
226.7043, 43.87030
227.1865, 48.58881
227.6686, 53.26253
228.1507, 56.85635
228.6328, 58.61504
229.1149, 58.16122
229.5970, 56.67172
230.0792, 54.33206
230.5613, 51.68202
231.0434, 47.75824
231.5255, 43.20964
232.0076, 39.36441
232.4897, 35.31291
232.9719, 30.46167
233.4540, 26.27124
233.9361, 22.45433
234.4182, 18.15800
234.9003, 14.39149
235.3824, 11.36690
235.8646, 8.769272
236.3467, 6.436447
236.8288, 4.346756
237.3109, 2.552490
237.7930, 0.9862980
238.2751, 0.2311400
238.7573, 0.6963810
239.2394, 0.1031950
239.7215, 0.8384700
240.2036, 0.8228910
240.6857, 0.4868770
241.1678, 1.339661
241.6500, 1.617050
242.1321, 1.467712
242.6142, 1.236816
243.0963, 0.7832030
243.5784, 0.4578860
244.0605, 0.5122680
244.5427, 1.397232
245.0248, 1.471527
245.5069, 0.4360050
245.9890, 1.298141
246.4711, 2.817215
246.9532, 4.032669
247.4354, 5.202759
247.9175, 6.334946
248.3996, 7.238846
248.8817, 8.775681
249.3638, 11.17049
249.8459, 14.07530
250.3281, 16.85289
250.8102, 19.44005
251.2923, 22.04529
251.7744, 24.80031
252.2565, 27.68898
252.7386, 30.76231
253.2208, 34.17348
253.7029, 38.07776
254.1850, 42.58650
254.6671, 47.63281
255.1492, 52.44424
255.6313, 56.88017
256.1135, 60.99944
256.5956, 64.79378
257.0777, 68.00766
257.5598, 70.99077
258.0419, 74.09872
258.5240, 77.49091
259.0062, 80.62009
259.4883, 83.39212
259.9704, 85.76506
260.4525, 87.80484
260.9346, 89.42529
261.4167, 90.78723
261.8989, 92.10890
262.3810, 93.50023
262.8631, 94.53755
263.3452, 95.09908
263.8273, 95.19423
264.3094, 95.12680
264.7916, 95.07706
265.2737, 94.59639
265.7558, 93.09061
266.2379, 90.21857
266.7200, 87.50641
267.2021, 85.35204
267.6843, 83.66125
268.1664, 81.37190
268.6485, 78.33560
269.1306, 75.01486
269.6127, 71.83336
270.0948, 68.85381
270.5770, 65.75816
271.0591, 62.49971
271.5412, 59.11046
272.0233, 55.59344
272.5054, 51.92053
272.9875, 48.34096
273.4697, 45.09570
273.9518, 42.20572
274.4339, 39.31718
274.9160, 36.39690
275.3981, 33.45953
275.8802, 30.43497
276.3624, 27.32506
276.8445, 24.30977
277.3266, 21.50616
277.8087, 18.91960
278.2908, 16.50114
278.7729, 14.28758
279.2551, 12.19711
279.7372, 10.04974
280.2193, 7.951843
280.7014, 6.068848
281.1835, 4.563248
281.6656, 3.426437
282.1478, 2.398407
282.6299, 1.485687
283.1120, 0.6382900
283.5941, 0.2572330
284.0762, 1.214615
284.5583, 2.047211
285.0405, 2.726578
285.5226, 3.236847
286.0047, 3.365158
286.4868, 3.062561
286.9689, 2.554688
287.4510, 2.090591
287.9332, 1.680237
288.4153, 1.359085
288.8974, 1.235138
289.3795, 1.231827
289.8616, 1.035980
290.3438, 0.6565860
290.8259, 5.0124999E-02
291.3080, 0.9575350
291.7901, 2.300674
292.2722, 3.582581
292.7543, 4.608658
293.2365, 5.510162
293.7186, 6.586151
294.2007, 7.830017
294.6828, 9.137146
295.1649, 10.39046
295.6470, 11.61629
296.1292, 12.94655
296.6113, 14.46886
297.0934, 16.11880
297.5755, 17.65764
298.0576, 19.08618
298.5397, 20.39937
299.0219, 21.64311
299.5040, 22.84866
299.9861, 23.98958
300.4682, 25.01299
300.9503, 26.08977
301.4324, 27.56468
301.9146, 29.28929
302.3967, 30.74693
302.8788, 31.40985
303.3609, 31.82703
303.8430, 32.79475
304.3251, 34.54088
304.8073, 36.15767
305.2894, 36.68599
305.7715, 36.42551
306.2536, 36.12137
306.7357, 35.87672
307.2178, 35.91328
307.7000, 36.56116
308.1821, 37.88896
308.6642, 39.36339
309.1463, 40.62840
309.6284, 41.76775
310.1105, 42.93201
310.5927, 44.34361
311.0748, 45.66595
311.5569, 46.54164
312.0390, 46.97160
312.5211, 47.56157
313.0032, 48.71628
313.4854, 50.19833
313.9675, 51.74144
314.4496, 53.26213
314.9317, 54.82188
315.4138, 56.60547
315.8959, 58.53624
316.3781, 60.18991
316.8602, 60.89856
317.3423, 61.52560
317.8244, 62.75414
318.3065, 65.40860
318.7886, 67.71677
319.2708, 68.72539
319.7529, 68.88005
320.2350, 69.43776
320.7171, 71.12666
321.1992, 73.03090
321.6813, 74.72203
322.1635, 76.13844
322.6456, 77.34453
323.1277, 78.34891
323.6098, 79.14682
324.0919, 79.73412
324.5740, 80.10489
325.0562, 80.25853
325.5383, 80.24232
326.0204, 80.13120
326.5025, 79.55132
326.9846, 78.16707
327.4667, 76.43604
327.9489, 74.83113
328.4310, 73.88338
328.9131, 72.47720
329.3952, 70.33649
329.8773, 67.44678
330.3594, 64.51335
330.8416, 61.59753
331.3237, 58.62114
331.8058, 55.53848
332.2879, 52.31479
332.7700, 49.01210
333.2521, 45.54524
333.7343, 41.96078
334.2164, 38.47832
334.6985, 35.16545
335.1806, 31.90437
335.6627, 28.57829
336.1448, 25.07419
336.6270, 21.94005
337.1091, 19.23759
337.5912, 16.91214
338.0733, 14.85170
338.5554, 13.14104
339.0375, 11.48843
339.5197, 9.672913
340.0018, 7.672302
340.4839, 6.313492
340.9660, 5.816925
341.4481, 5.476501
341.9302, 4.289139
342.4124, 2.175278
342.8945, 0.2994540
343.3766, 0.9927060
343.8587, 1.745590
344.3408, 2.215347
344.8229, 2.365265
345.3051, 2.384460
345.7872, 2.518555
346.2693, 2.721832
346.7514, 2.634369
347.2335, 2.141998
347.7156, 1.371780
348.1978, 0.5403900
348.6799, 0.3640590
349.1620, 1.297150
349.6441, 2.059280
350.1262, 2.793655
350.6083, 3.919907
351.0905, 5.559250
351.5726, 7.375626
352.0547, 8.951813
352.5368, 10.38216
353.0189, 11.95067
353.5010, 13.85460
353.9832, 15.94341
354.4653, 17.99872
354.9474, 20.02187
355.4295, 22.19495
355.9116, 24.62421
356.3937, 27.31895
356.8759, 30.25633
357.3580, 33.62625
357.8401, 37.10002
358.3222, 40.43695
358.8043, 43.68678
359.2864, 46.96465
359.7686, 50.17088
360.2507, 53.53799
360.7328, 57.22054
361.2149, 61.28023
361.6970, 65.65753
362.1791, 70.56209
362.6613, 75.77148
363.1434, 80.77689
363.6255, 84.93143
364.1076, 89.22739
364.5897, 94.26599
365.0718, 100.2762
365.5540, 106.1001
366.0361, 111.2474
366.5182, 116.1900
367.0003, 121.4952
367.4824, 127.6480
367.9645, 133.7393
368.4467, 139.6033
368.9288, 145.1366
369.4109, 150.6872
369.8930, 155.9959
370.3751, 161.5323
370.8572, 167.6797
371.3394, 174.8991
371.8215, 181.8346
372.3036, 188.2269
372.7857, 194.2724
373.2678, 200.7684
373.7499, 207.9539
374.2321, 215.2620
374.7142, 222.2961
375.1963, 228.9288
375.6784, 236.0785
376.1605, 243.9231
376.6426, 252.0026
377.1248, 259.3017
377.6069, 265.7941
378.0890, 272.1469
378.5711, 278.6497
379.0532, 285.2336
379.5353, 290.8571
380.0175, 295.4709
380.4996, 299.6357
380.9817, 304.1884
381.4638, 308.9524
381.9459, 312.5298
382.4280, 314.4155
382.9102, 315.2030
383.3923, 315.9986
383.8744, 316.7554
384.3565, 316.9579
384.8386, 316.1566
385.3207, 314.5832
385.8029, 312.7448
386.2850, 310.6912
386.7671, 308.2727
387.2492, 305.4218
387.7313, 302.0771
388.2134, 298.1453
388.6956, 293.2960
389.1777, 288.0979
389.6598, 283.1395
390.1419, 278.4156
390.6240, 273.3246
391.1061, 267.3765
391.5883, 260.9522
392.0704, 254.3387
392.5525, 247.1766
393.0346, 240.3361
393.5167, 234.4441
393.9988, 229.2093
394.4810, 223.6041
394.9631, 216.7603
395.4452, 209.7594
395.9273, 203.2257
396.4094, 197.4595
396.8915, 191.5150
397.3737, 184.7988
397.8558, 177.9545
398.3379, 171.7353
398.8200, 166.9421
399.3021, 161.9189
399.7842, 156.1747
400.2664, 149.7246
400.7485, 143.8008
401.2306, 138.6420
401.7127, 133.7748
402.1948, 128.9103
402.6769, 123.8495
403.1591, 119.2670
403.6412, 115.4479
404.1233, 111.9564
404.6054, 107.5471
405.0875, 101.9671
405.5696, 96.61609
406.0518, 91.89865
406.5339, 87.81183
407.0160, 84.23320
407.4981, 81.29868
407.9802, 78.60239
408.4623, 75.71494
408.9445, 72.62889
409.4266, 69.48111
409.9087, 66.24617
410.3908, 63.03299
410.8729, 60.15320
411.3550, 57.59158
411.8372, 55.18356
412.3193, 52.66663
412.8014, 50.20197
413.2835, 48.19781
413.7656, 46.75375
414.2477, 45.52107
414.7299, 44.16766
415.2120, 42.73627
415.6941, 41.37083
416.1762, 40.09497
416.6583, 38.91779
417.1404, 37.86327
417.6226, 36.91684
418.1047, 36.01912
418.5868, 35.08374
419.0689, 34.19539
419.5510, 33.42802
420.0331, 32.86720
420.5153, 32.35403
420.9974, 31.91663
421.4795, 31.48621
421.9616, 30.91238
422.4437, 29.86014
422.9258, 28.90181
423.4080, 28.32317
423.8901, 28.26190
424.3722, 28.12224
424.8543, 27.90739
425.3364, 27.59091
425.8185, 27.12621
426.3007, 26.17195
426.7828, 25.57848
427.2649, 25.63690
427.7470, 26.21165
428.2291, 26.37201
428.7112, 25.87634
429.1934, 25.38077
429.6755, 25.32849
430.1576, 25.88399
430.6397, 25.96790
431.1218, 25.39297
431.6039, 24.59288
432.0861, 24.33528
432.5682, 24.66730
433.0503, 24.82301
433.5324, 24.45865
434.0145, 23.73268
434.4966, 23.26117
434.9788, 23.05795
435.4609, 22.74658
435.9430, 21.70047
436.4251, 20.28146
436.9072, 19.60741
437.3893, 20.09541
437.8715, 20.81055
438.3536, 20.77063
438.8357, 20.10089
439.3178, 19.15022
439.7999, 17.81279
440.2820, 16.44624
440.7642, 15.45128
441.2463, 14.83960
441.7284, 14.19722
442.2105, 13.22340
442.6926, 12.13120
443.1747, 11.12431
443.6569, 10.25684
444.1390, 9.475204
444.6211, 8.896973
445.1032, 8.409485
445.5853, 7.703354
446.0674, 6.352875
446.5496, 5.097580
447.0317, 4.313354
447.5138, 4.293686
447.9959, 3.785934
448.4780, 2.332535
448.9601, 0.7142330
449.4423, 0.2662660
449.9244, 0.1332550
450.4065, 0.3637390
450.8886, 1.385132
451.3707, 2.918381
451.8528, 3.730423
452.3350, 3.616913
452.8171, 3.414001
453.2992, 3.562836
453.7813, 4.071030
454.2634, 4.746155
454.7455, 5.688324
455.2277, 6.490875
455.7098, 6.479706
456.1919, 5.776001
456.6740, 5.188614
457.1561, 5.036987
457.6382, 5.122299
458.1204, 5.182999
458.6025, 5.206085
459.0846, 5.111862
459.5667, 4.971512
460.0488, 4.624969
460.5309, 3.645859
461.0131, 1.755096
461.4952, 0.2805940
461.9773, 0.8387150
462.4594, 2.269104
462.9415, 2.877808
463.4236, 1.176987
463.9058, 0.6862490
464.3879, 1.768417
464.8700, 2.113617
465.3521, 2.506775
465.8342, 3.191956
466.3163, 3.944244
466.7985, 4.652130
467.2806, 5.353668
467.7627, 5.910965
468.2448, 6.173203
468.7269, 6.347534
469.2090, 6.793152
469.6912, 7.954468
470.1733, 8.565292
470.6554, 8.177963
471.1375, 6.914764
471.6196, 6.026535
472.1017, 5.678070
472.5839, 5.238571
473.0660, 4.064377
473.5481, 2.148514
474.0302, 0.9173580
474.5123, 0.5872340
474.9944, 0.6819610
475.4766, 0.5860600
475.9587, 0.3146060
476.4408, 5.6549001E-02
476.9229, 0.5958250
477.4050, 1.150482
477.8871, 1.447678
478.3693, 1.503052
478.8514, 1.472260
479.3335, 1.496826
479.8156, 1.481323
480.2977, 1.344742
480.7798, 1.116287
481.2620, 0.6270750
481.7441, 0.3014070
482.2262, 1.532135
482.7083, 2.863022
483.1904, 4.394913
483.6725, 5.854858
484.1547, 7.114288
484.6368, 8.173798
485.1189, 9.187149
485.6010, 9.942490
486.0831, 10.84293
486.5652, 12.07625
487.0474, 13.73822
487.5295, 15.55240
488.0116, 17.52785
488.4937, 19.62505
488.9758, 21.80273
489.4579, 24.04701
489.9401, 26.44322
490.4222, 29.06934
490.9043, 31.86179
491.3864, 34.61613
491.8685, 37.32123
492.3506, 40.15280
492.8328, 43.27846
493.3149, 46.63606
493.7970, 49.96671
494.2791, 53.22437
494.7612, 56.65799
495.2433, 60.63139
495.7255, 65.05002
496.2076, 69.72314
496.6897, 74.72969
497.1718, 79.82103
497.6539, 84.57553
498.1360, 89.09662
498.6182, 93.90390
499.1003, 99.36746
499.5824, 105.1221
500.0645, 110.7863
500.5466, 116.3844
501.0287, 121.9954
501.5109, 127.4242
501.9930, 132.9913
502.4751, 138.9473
502.9572, 145.6892
503.4393, 152.3857
503.9214, 159.0059
504.4036, 165.4566
504.8857, 171.5924
505.3678, 177.3650
505.8499, 183.0262
506.3320, 188.7223
506.8141, 194.4488
507.2963, 199.6689
507.7784, 204.5005
508.2605, 208.9171
508.7426, 213.0294
509.2247, 216.7817
509.7068, 219.9116
510.1890, 222.5024
510.6711, 224.3447
511.1532, 224.8576
511.6353, 224.1422
512.1174, 222.7909
512.5995, 221.2011
513.0817, 219.0831
513.5638, 216.0609
514.0459, 212.1880
514.5280, 207.8543
515.0101, 203.1071
515.4922, 198.0511
515.9744, 192.8656
516.4565, 187.6399
516.9386, 182.1396
517.4207, 175.8161
517.9028, 169.2805
518.3849, 163.5511
518.8671, 159.5485
519.3492, 155.6419
519.8313, 151.1754
520.3134, 146.1917
520.7955, 141.6323
521.2776, 137.5935
521.7598, 134.1741
522.2419, 131.4525
522.7240, 129.5514
523.2061, 127.5653
523.6882, 125.4070
524.1703, 123.3049
524.6525, 121.4725
525.1346, 119.9126
525.6167, 118.8174
526.0988, 118.3146
526.5809, 118.2384
527.0630, 118.2896
527.5452, 118.4970
528.0273, 119.0020
528.5094, 120.0773
528.9915, 121.4006
529.4736, 122.5378
529.9557, 123.4471
530.4379, 124.6252
530.9200, 126.1122
531.4021, 128.1497
531.8842, 131.0082
532.3663, 135.2074
532.8484, 139.5593
533.3306, 143.6406
533.8127, 147.6727
534.2948, 152.0196
534.7769, 156.9553
535.2590, 161.9646
535.7411, 166.7870
536.2233, 171.4377
536.7054, 177.0544
537.1875, 183.9676
537.6696, 191.1264
538.1517, 197.7781
538.6339, 203.7729
539.1160, 210.6215
539.5981, 218.4374
540.0802, 226.9380
540.5623, 236.2587
541.0444, 246.2326
541.5266, 256.0720
542.0087, 265.2110
542.4908, 274.4537
542.9729, 284.9338
543.4550, 296.3795
543.9371, 308.0459
544.4193, 319.5031
544.9014, 331.1162
545.3835, 343.2384
545.8656, 355.9067
546.3477, 368.8176
546.8298, 382.0600
547.3120, 395.5550
547.7941, 409.1291
548.2762, 422.9318
548.7583, 436.7076
549.2404, 450.4749
549.7225, 464.1960
550.2047, 477.8568
550.6868, 491.6516
551.1689, 505.0270
551.6510, 517.5550
552.1331, 529.4532
552.6152, 542.0058
553.0974, 555.4455
553.5795, 568.4286
554.0616, 580.0844
554.5437, 590.5277
555.0258, 600.3281
555.5079, 609.5498
555.9901, 618.2073
556.4722, 626.6800
556.9543, 634.6830
557.4364, 641.5726
557.9185, 646.9348
558.4006, 651.5527
558.8828, 656.4944
559.3649, 661.1770
559.8470, 664.3821
560.3291, 665.6248
560.8112, 665.2244
561.2933, 663.1595
561.7755, 659.4160
562.2576, 654.6228
562.7397, 648.8141
563.2218, 641.9935
563.7039, 634.1124
564.1860, 625.1268
564.6682, 615.2581
565.1503, 604.5479
565.6324, 592.7877
566.1145, 579.6283
566.5966, 564.7991
567.0787, 549.9320
567.5609, 535.4299
568.0430, 521.1175
568.5251, 507.1955
569.0072, 493.4488
569.4893, 479.2989
569.9714, 463.8579
570.4536, 447.8725
570.9357, 432.1900
571.4178, 416.9019
571.8999, 401.9740
572.3820, 387.8994
572.8641, 374.0266
573.3463, 359.9050
573.8284, 344.9902
574.3105, 330.6871
574.7926, 317.4888
575.2747, 305.0400
575.7568, 292.9998
576.2390, 281.4692
576.7211, 270.0011
577.2032, 258.3491
577.6853, 246.6924
578.1674, 236.1417
578.6495, 227.0351
579.1317, 218.0398
579.6138, 208.4191
580.0959, 198.3499
580.5780, 189.4420
581.0601, 181.6875
581.5422, 174.3489
582.0244, 166.7025
582.5065, 158.9495
582.9886, 151.7424
583.4707, 145.0668
583.9528, 138.8587
584.4349, 133.1656
584.9171, 127.8513
585.3992, 122.7197
585.8813, 118.1058
586.3634, 113.1966
586.8455, 107.2511
587.3276, 100.7143
587.8098, 95.04626
588.2919, 91.11847
588.7740, 87.50044
589.2561, 83.81216
589.7382, 80.05072
590.2203, 76.28209
590.7025, 72.39636
591.1846, 68.77403
591.6667, 65.77351
592.1488, 63.43716
592.6309, 60.96931
593.1130, 58.32906
593.5952, 55.56342
594.0773, 52.52026
594.5594, 49.34486
595.0415, 46.73828
595.5236, 45.08713
596.0057, 43.61208
596.4879, 41.37997
596.9700, 38.66246
597.4521, 36.11812
597.9342, 33.84850
598.4163, 32.00821
598.8984, 31.02907
599.3806, 30.75787
599.8627, 29.89041
600.3448, 27.64906
600.8269, 25.14639
601.3090, 22.82700
601.7911, 20.64278
602.2733, 18.83049
602.7554, 17.50278
603.2375, 16.38976
603.7196, 15.26129
604.2017, 14.09087
604.6838, 13.08859
605.1660, 12.31462
605.6481, 11.61182
606.1302, 10.69719
606.6123, 9.625458
607.0944, 8.653198
607.5765, 7.872910
608.0587, 7.226624
608.5408, 6.633148
609.0229, 6.106155
609.5050, 5.663467
609.9871, 5.503601
610.4692, 5.284653
610.9514, 4.756775
611.4335, 3.878784
611.9156, 3.036865
612.3977, 2.249207
612.8798, 1.565613
613.3619, 1.049408
613.8441, 0.8333590
614.3262, 0.4272310
614.8083, 0.2448580
615.2904, 1.006134
615.7725, 1.647369
616.2546, 2.168030
616.7368, 2.534805
617.2189, 2.705902
617.7010, 2.795273
618.1831, 3.021042
618.6652, 3.347977
619.1473, 3.639816
619.6295, 3.885422
620.1116, 4.019745
620.5937, 3.823471
621.0758, 3.394623
621.5579, 3.229645
622.0400, 3.916885
622.5222, 4.664673
623.0043, 5.047729
623.4864, 5.007950
623.9685, 4.696091
624.4506, 3.692337
624.9327, 2.788177
625.4149, 2.569443
625.8970, 3.362228
626.3791, 3.862762
626.8612, 4.013611
627.3433, 3.888000
627.8254, 3.513489
628.3076, 2.902344
628.7897, 2.321274
629.2718, 1.842285
629.7539, 1.414185
630.2360, 0.9142150
630.7181, 0.3890380
631.2003, 8.9260004E-03
631.6824, 6.1737001E-02
632.1645, 7.9177998E-02
632.6466, 0.5059510
633.1287, 1.590424
633.6108, 2.448746
634.0930, 2.468384
634.5751, 2.509705
635.0572, 3.046585
635.5393, 4.208694
636.0214, 5.266373
636.5035, 6.029282
636.9857, 6.922546
637.4678, 8.357819
637.9499, 10.44400
638.4320, 12.23119
638.9141, 13.60976
639.3962, 14.78491
639.8784, 15.91628
640.3605, 17.04305
640.8426, 18.36880
641.3247, 19.93437
641.8068, 21.73326
642.2889, 23.86453
642.7711, 26.22386
643.2532, 28.62637
643.7353, 30.74333
644.2174, 33.10074
644.6995, 35.98715
645.1816, 39.34460
645.6638, 42.84019
646.1459, 46.35103
646.6280, 50.06975
647.1101, 54.09567
647.5922, 58.40170
648.0743, 62.97466
648.5565, 67.81120
649.0386, 72.85452
649.5207, 77.90842
650.0028, 83.00023
650.4849, 88.49989
650.9670, 94.41931
651.4492, 100.4814
651.9313, 106.0706
652.4134, 111.6096
652.8955, 117.8265
653.3776, 125.2179
653.8597, 132.8532
654.3419, 140.2547
654.8240, 147.5491
655.3061, 154.7973
655.7882, 161.9149
656.2703, 169.1035
656.7524, 176.5038
657.2346, 184.0239
657.7167, 191.4251
658.1988, 198.8178
658.6809, 205.9017
659.1630, 212.7436
659.6451, 219.1995
660.1273, 224.4378
660.6094, 228.5010
661.0915, 231.4734
661.5736, 233.3595
662.0557, 234.2547
662.5378, 234.5308
663.0200, 234.1984
663.5021, 232.4910
663.9842, 228.7465
664.4663, 223.4116
664.9484, 216.8252
665.4305, 208.9250
665.9127, 200.3050
666.3948, 190.5604
666.8769, 180.5186
667.3590, 170.9021
667.8411, 162.1712
668.3232, 153.0271
668.8054, 143.2287
669.2875, 133.2883
669.7696, 124.1439
670.2517, 115.8017
670.7338, 107.8824
671.2159, 100.2927
671.6981, 93.17261
672.1802, 86.85846
672.6623, 81.31920
673.1444, 76.20996
673.6265, 71.53265
674.1086, 67.12601
674.5908, 62.78621
675.0729, 58.64508
675.5550, 54.89200
676.0371, 51.70395
676.5192, 48.82047
677.0013, 46.08911
677.4835, 43.50861
677.9656, 41.04924
678.4477, 38.74420
678.9298, 36.56892
679.4119, 34.46408
679.8940, 32.36389
680.3762, 30.52979
680.8583, 28.99341
681.3404, 27.60770
681.8225, 26.17186
682.3046, 24.80162
682.7867, 23.66513
683.2689, 22.84120
683.7510, 21.87868
684.2331, 20.29303
684.7152, 18.54178
685.1973, 17.23225
685.6794, 17.24690
686.1616, 16.86951
686.6437, 15.51028
687.1258, 13.63029
687.6079, 11.97928
688.0900, 10.43503
688.5721, 9.581177
689.0543, 9.820847
689.5364, 10.62738
690.0185, 10.52596
690.5006, 9.595383
