##NAMES=Hennomartinite
##RRUFFID=R130039
##IDEAL CHEMISTRY=SrMn^3+^_2_Si_2_O_7_(OH)_2_&#183;H_2_O
##LOCALITY=Wessels mine, Kuruman, Kalahari Manganese fields, Cape Province, South Africa
##OWNER=RRUFF
##SOURCE=William W. Pinch
##DESCRIPTION=Brown spherical aggregates, associated with purple sugilite, brownish quartz and white hydroxyapophyllite-(K).
##STATUS=The identification of this mineral has been confirmed only by single crystal X-ray diffraction.
##URL=rruff.info/R130039
222.3653, 0.0000000E+00
222.8474, 1.541504
223.3295, 5.360229
223.8116, 10.10551
224.2938, 15.38487
224.7759, 21.07469
225.2580, 27.29788
225.7401, 33.19716
226.2222, 38.72379
226.7043, 43.87030
227.1865, 48.58881
227.6686, 53.26253
228.1507, 56.85635
228.6328, 58.61504
229.1149, 58.16122
229.5970, 56.67172
230.0792, 54.33206
230.5613, 51.68202
231.0434, 47.75824
231.5255, 43.20964
232.0076, 39.36441
232.4897, 35.31291
232.9719, 30.46167
233.4540, 26.27124
233.9361, 22.45433
234.4182, 18.15800
234.9003, 14.39149
235.3824, 11.36690
235.8646, 8.769272
236.3467, 6.436447
236.8288, 4.346756
237.3109, 2.552490
237.7930, 0.9862980
238.2751, 0.2311400
238.7573, 0.6963810
239.2394, 0.1031950
239.7215, 0.8384700
240.2036, 0.8228910
240.6857, 0.4868770
241.1678, 1.339661
241.6500, 1.617050
242.1321, 1.467712
242.6142, 1.236816
243.0963, 0.7832030
243.5784, 0.4578860
244.0605, 0.5122680
244.5427, 1.397232
245.0248, 1.471527
245.5069, 0.4360050
245.9890, 1.298141
246.4711, 2.817215
246.9532, 4.032669
247.4354, 5.202759
247.9175, 6.334946
248.3996, 7.238846
248.8817, 8.775681
249.3638, 11.17049
249.8459, 14.07530
250.3281, 16.85289
250.8102, 19.44005
251.2923, 22.04529
251.7744, 24.80031
252.2565, 27.68898
252.7386, 30.76231
253.2208, 34.17348
253.7029, 38.07776
254.1850, 42.58650
254.6671, 47.63281
255.1492, 52.44424
255.6313, 56.88017
256.1135, 60.99944
256.5956, 64.79378
257.0777, 68.00766
257.5598, 70.99077
258.0419, 74.09872
258.5240, 77.49091
259.0062, 80.62009
259.4883, 83.39212
259.9704, 85.76506
260.4525, 87.80484
260.9346, 89.42529
261.4167, 90.78723
261.8989, 92.10890
262.3810, 93.50023
262.8631, 94.53755
263.3452, 95.09908
263.8273, 95.19423
264.3094, 95.12680
264.7916, 95.07706
265.2737, 94.59639
265.7558, 93.09061
266.2379, 90.21857
266.7200, 87.50641
267.2021, 85.35204
267.6843, 83.66125
268.1664, 81.37190
268.6485, 78.33560
269.1306, 75.01486
269.6127, 71.83336
270.0948, 68.85381
270.5770, 65.75816
271.0591, 62.49971
271.5412, 59.11046
272.0233, 55.59344
272.5054, 51.92053
272.9875, 48.34096
273.4697, 45.09570
273.9518, 42.20572
274.4339, 39.31718
274.9160, 36.39690
275.3981, 33.45953
275.8802, 30.43497
276.3624, 27.32506
276.8445, 24.30977
277.3266, 21.50616
277.8087, 18.91960
278.2908, 16.50114
278.7729, 14.28758
279.2551, 12.19711
279.7372, 10.04974
280.2193, 7.951843
280.7014, 6.068848
281.1835, 4.563248
281.6656, 3.426437
282.1478, 2.398407
282.6299, 1.485687
283.1120, 0.6382900
283.5941, 0.2572330
284.0762, 1.214615
284.5583, 2.047211
285.0405, 2.726578
285.5226, 3.236847
286.0047, 3.365158
286.4868, 3.062561
286.9689, 2.554688
287.4510, 2.090591
287.9332, 1.680237
288.4153, 1.359085
288.8974, 1.235138
289.3795, 1.231827
289.8616, 1.035980
290.3438, 0.6565860
290.8259, 5.0124999E-02
291.3080, 0.9575350
291.7901, 2.300674
292.2722, 3.582581
292.7543, 4.608658
293.2365, 5.510162
293.7186, 6.586151
294.2007, 7.830017
294.6828, 9.137146
295.1649, 10.39046
295.6470, 11.61629
296.1292, 12.94655
296.6113, 14.46886
297.0934, 16.11880
297.5755, 17.65764
298.0576, 19.08618
298.5397, 20.39937
299.0219, 21.64311
299.5040, 22.84866
299.9861, 23.98958
300.4682, 25.01299
300.9503, 26.08977
301.4324, 27.56468
301.9146, 29.28929
302.3967, 30.74693
302.8788, 31.40985
303.3609, 31.82703
303.8430, 32.79475
304.3251, 34.54088
304.8073, 36.15767
305.2894, 36.68599
305.7715, 36.42551
306.2536, 36.12137
306.7357, 35.87672
307.2178, 35.91328
307.7000, 36.56116
308.1821, 37.88896
308.6642, 39.36339
309.1463, 40.62840
309.6284, 41.76775
310.1105, 42.93201
310.5927, 44.34361
311.0748, 45.66595
311.5569, 46.54164
312.0390, 46.97160
312.5211, 47.56157
313.0032, 48.71628
313.4854, 50.19833
313.9675, 51.74144
314.4496, 53.26213
314.9317, 54.82188
315.4138, 56.60547
315.8959, 58.53624
316.3781, 60.18991
316.8602, 60.89856
317.3423, 61.52560
317.8244, 62.75414
318.3065, 65.40860
318.7886, 67.71677
319.2708, 68.72539
319.7529, 68.88005
320.2350, 69.43776
320.7171, 71.12666
321.1992, 73.03090
321.6813, 74.72203
322.1635, 76.13844
322.6456, 77.34453
323.1277, 78.34891
323.6098, 79.14682
324.0919, 79.73412
324.5740, 80.10489
325.0562, 80.25853
325.5383, 80.24232
326.0204, 80.13120
326.5025, 79.55132
326.9846, 78.16707
327.4667, 76.43604
327.9489, 74.83113
328.4310, 73.88338
328.9131, 72.47720
329.3952, 70.33649
329.8773, 67.44678
330.3594, 64.51335
330.8416, 61.59753
331.3237, 58.62114
331.8058, 55.53848
332.2879, 52.31479
332.7700, 49.01210
333.2521, 45.54524
333.7343, 41.96078
334.2164, 38.47832
334.6985, 35.16545
335.1806, 31.90437
335.6627, 28.57829
336.1448, 25.07419
336.6270, 21.94005
337.1091, 19.23759
337.5912, 16.91214
338.0733, 14.85170
338.5554, 13.14104
339.0375, 11.48843
339.5197, 9.672913
340.0018, 7.672302
340.4839, 6.313492
340.9660, 5.816925
341.4481, 5.476501
341.9302, 4.289139
342.4124, 2.175278
342.8945, 0.2994540
343.3766, 0.9927060
343.8587, 1.745590
344.3408, 2.215347
344.8229, 2.365265
345.3051, 2.384460
345.7872, 2.518555
346.2693, 2.721832
346.7514, 2.634369
347.2335, 2.141998
347.7156, 1.371780
348.1978, 0.5403900
348.6799, 0.3640590
349.1620, 1.297150
349.6441, 2.059280
350.1262, 2.793655
350.6083, 3.919907
351.0905, 5.559250
351.5726, 7.375626
352.0547, 8.951813
352.5368, 10.38216
353.0189, 11.95067
353.5010, 13.85460
353.9832, 15.94341
354.4653, 17.99872
354.9474, 20.02187
355.4295, 22.19495
355.9116, 24.62421
356.3937, 27.31895
356.8759, 30.25633
357.3580, 33.62625
357.8401, 37.10002
358.3222, 40.43695
358.8043, 43.68678
359.2864, 46.96465
359.7686, 50.17088
360.2507, 53.53799
360.7328, 57.22054
361.2149, 61.28023
361.6970, 65.65753
362.1791, 70.56209
362.6613, 75.77148
363.1434, 80.77689
363.6255, 84.93143
364.1076, 89.22739
364.5897, 94.26599
365.0718, 100.2762
365.5540, 106.1001
366.0361, 111.2474
366.5182, 116.1900
367.0003, 121.4952
367.4824, 127.6480
367.9645, 133.7393
368.4467, 139.6033
368.9288, 145.1366
369.4109, 150.6872
369.8930, 155.9959
370.3751, 161.5323
370.8572, 167.6797
371.3394, 174.8991
371.8215, 181.8346
372.3036, 188.2269
372.7857, 194.2724
373.2678, 200.7684
373.7499, 207.9539
374.2321, 215.2620
374.7142, 222.2961
375.1963, 228.9288
375.6784, 236.0785
376.1605, 243.9231
376.6426, 252.0026
377.1248, 259.3017
377.6069, 265.7941
378.0890, 272.1469
378.5711, 278.6497
379.0532, 285.2336
379.5353, 290.8571
380.0175, 295.4709
380.4996, 299.6357
380.9817, 304.1884
381.4638, 308.9524
381.9459, 312.5298
382.4280, 314.4155
382.9102, 315.2030
383.3923, 315.9986
383.8744, 316.7554
384.3565, 316.9579
384.8386, 316.1566
385.3207, 314.5832
385.8029, 312.7448
386.2850, 310.6912
386.7671, 308.2727
387.2492, 305.4218
387.7313, 302.0771
388.2134, 298.1453
388.6956, 293.2960
389.1777, 288.0979
389.6598, 283.1395
390.1419, 278.4156
390.6240, 273.3246
391.1061, 267.3765
391.5883, 260.9522
392.0704, 254.3387
392.5525, 247.1766
393.0346, 240.3361
393.5167, 234.4441
393.9988, 229.2093
394.4810, 223.6041
394.9631, 216.7603
395.4452, 209.7594
395.9273, 203.2257
396.4094, 197.4595
396.8915, 191.5150
397.3737, 184.7988
397.8558, 177.9545
398.3379, 171.7353
398.8200, 166.9421
399.3021, 161.9189
399.7842, 156.1747
400.2664, 149.7246
400.7485, 143.8008
401.2306, 138.6420
401.7127, 133.7748
402.1948, 128.9103
402.6769, 123.8495
403.1591, 119.2670
403.6412, 115.4479
404.1233, 111.9564
404.6054, 107.5471
405.0875, 101.9671
405.5696, 96.61609
406.0518, 91.89865
406.5339, 87.81183
407.0160, 84.23320
407.4981, 81.29868
407.9802, 78.60239
408.4623, 75.71494
408.9445, 72.62889
409.4266, 69.48111
409.9087, 66.24617
410.3908, 63.03299
410.8729, 60.15320
411.3550, 57.59158
411.8372, 55.18356
412.3193, 52.66663
412.8014, 50.20197
413.2835, 48.19781
413.7656, 46.75375
414.2477, 45.52107
414.7299, 44.16766
415.2120, 42.73627
415.6941, 41.37083
416.1762, 40.09497
416.6583, 38.91779
417.1404, 37.86327
417.6226, 36.91684
418.1047, 36.01912
418.5868, 35.08374
419.0689, 34.19539
419.5510, 33.42802
420.0331, 32.86720
420.5153, 32.35403
420.9974, 31.91663
421.4795, 31.48621
421.9616, 30.91238
422.4437, 29.86014
422.9258, 28.90181
423.4080, 28.32317
423.8901, 28.26190
424.3722, 28.12224
424.8543, 27.90739
425.3364, 27.59091
425.8185, 27.12621
426.3007, 26.17195
426.7828, 25.57848
427.2649, 25.63690
427.7470, 26.21165
428.2291, 26.37201
428.7112, 25.87634
429.1934, 25.38077
429.6755, 25.32849
430.1576, 25.88399
430.6397, 25.96790
431.1218, 25.39297
431.6039, 24.59288
432.0861, 24.33528
432.5682, 24.66730
433.0503, 24.82301
433.5324, 24.45865
434.0145, 23.73268
434.4966, 23.26117
434.9788, 23.05795
435.4609, 22.74658
435.9430, 21.70047
436.4251, 20.28146
436.9072, 19.60741
437.3893, 20.09541
437.8715, 20.81055
438.3536, 20.77063
438.8357, 20.10089
439.3178, 19.15022
439.7999, 17.81279
440.2820, 16.44624
440.7642, 15.45128
441.2463, 14.83960
441.7284, 14.19722
442.2105, 13.22340
442.6926, 12.13120
443.1747, 11.12431
443.6569, 10.25684
444.1390, 9.475204
444.6211, 8.896973
445.1032, 8.409485
445.5853, 7.703354
446.0674, 6.352875
446.5496, 5.097580
447.0317, 4.313354
447.5138, 4.293686
447.9959, 3.785934
448.4780, 2.332535
448.9601, 0.7142330
449.4423, 0.2662660
449.9244, 0.1332550
450.4065, 0.3637390
450.8886, 1.385132
451.3707, 2.918381
451.8528, 3.730423
452.3350, 3.616913
452.8171, 3.414001
453.2992, 3.562836
453.7813, 4.071030
454.2634, 4.746155
454.7455, 5.688324
455.2277, 6.490875
455.7098, 6.479706
456.1919, 5.776001
456.6740, 5.188614
457.1561, 5.036987
457.6382, 5.122299
458.1204, 5.182999
458.6025, 5.206085
459.0846, 5.111862
459.5667, 4.971512
460.0488, 4.624969
460.5309, 3.645859
461.0131, 1.755096
461.4952, 0.2805940
461.9773, 0.8387150
462.4594, 2.269104
462.9415, 2.877808
463.4236, 1.176987
463.9058, 0.6862490
464.3879, 1.768417
464.8700, 2.113617
465.3521, 2.506775
465.8342, 3.191956
466.3163, 3.944244
466.7985, 4.652130
467.2806, 5.353668
467.7627, 5.910965
468.2448, 6.173203
468.7269, 6.347534
469.2090, 6.793152
469.6912, 7.954468
470.1733, 8.565292
470.6554, 8.177963
471.1375, 6.914764
471.6196, 6.026535
472.1017, 5.678070
472.5839, 5.238571
473.0660, 4.064377
473.5481, 2.148514
474.0302, 0.9173580
474.5123, 0.5872340
474.9944, 0.6819610
475.4766, 0.5860600
475.9587, 0.3146060
476.4408, 5.6549001E-02
476.9229, 0.5958250
477.4050, 1.150482
477.8871, 1.447678
478.3693, 1.503052
478.8514, 1.472260
479.3335, 1.496826
479.8156, 1.481323
480.2977, 1.344742
480.7798, 1.116287
481.2620, 0.6270750
481.7441, 0.3014070
482.2262, 1.532135
482.7083, 2.863022
483.1904, 4.394913
483.6725, 5.854858
484.1547, 7.114288
484.6368, 8.173798
485.1189, 9.187149
485.6010, 9.942490
486.0831, 10.84293
486.5652, 12.07625
487.0474, 13.73822
487.5295, 15.55240
488.0116, 17.52785
488.4937, 19.62505
488.9758, 21.80273
489.4579, 24.04701
489.9401, 26.44322
490.4222, 29.06934
490.9043, 31.86179
491.3864, 34.61613
491.8685, 37.32123
492.3506, 40.15280
492.8328, 43.27846
493.3149, 46.63606
493.7970, 49.96671
494.2791, 53.22437
494.7612, 56.65799
495.2433, 60.63139
495.7255, 65.05002
496.2076, 69.72314
496.6897, 74.72969
497.1718, 79.82103
497.6539, 84.57553
498.1360, 89.09662
498.6182, 93.90390
499.1003, 99.36746
499.5824, 105.1221
500.0645, 110.7863
500.5466, 116.3844
501.0287, 121.9954
501.5109, 127.4242
501.9930, 132.9913
502.4751, 138.9473
502.9572, 145.6892
503.4393, 152.3857
503.9214, 159.0059
504.4036, 165.4566
504.8857, 171.5924
505.3678, 177.3650
505.8499, 183.0262
506.3320, 188.7223
506.8141, 194.4488
507.2963, 199.6689
507.7784, 204.5005
508.2605, 208.9171
508.7426, 213.0294
509.2247, 216.7817
509.7068, 219.9116
510.1890, 222.5024
510.6711, 224.3447
511.1532, 224.8576
511.6353, 224.1422
512.1174, 222.7909
512.5995, 221.2011
513.0817, 219.0831
513.5638, 216.0609
514.0459, 212.1880
514.5280, 207.8543
515.0101, 203.1071
515.4922, 198.0511
515.9744, 192.8656
516.4565, 187.6399
516.9386, 182.1396
517.4207, 175.8161
517.9028, 169.2805
518.3849, 163.5511
518.8671, 159.5485
519.3492, 155.6419
519.8313, 151.1754
520.3134, 146.1917
520.7955, 141.6323
521.2776, 137.5935
521.7598, 134.1741
522.2419, 131.4525
522.7240, 129.5514
523.2061, 127.5653
523.6882, 125.4070
524.1703, 123.3049
524.6525, 121.4725
525.1346, 119.9126
525.6167, 118.8174
526.0988, 118.3146
526.5809, 118.2384
527.0630, 118.2896
527.5452, 118.4970
528.0273, 119.0020
528.5094, 120.0773
528.9915, 121.4006
529.4736, 122.5378
529.9557, 123.4471
530.4379, 124.6252
530.9200, 126.1122
531.4021, 128.1497
531.8842, 131.0082
532.3663, 135.2074
532.8484, 139.5593
533.3306, 143.6406
533.8127, 147.6727
534.2948, 152.0196
534.7769, 156.9553
535.2590, 161.9646
535.7411, 166.7870
536.2233, 171.4377
536.7054, 177.0544
537.1875, 183.9676
537.6696, 191.1264
538.1517, 197.7781
538.6339, 203.7729
539.1160, 210.6215
539.5981, 218.4374
540.0802, 226.9380
540.5623, 236.2587
541.0444, 246.2326
541.5266, 256.0720
542.0087, 265.2110
542.4908, 274.4537
542.9729, 284.9338
543.4550, 296.3795
543.9371, 308.0459
544.4193, 319.5031
544.9014, 331.1162
545.3835, 343.2384
545.8656, 355.9067
546.3477, 368.8176
546.8298, 382.0600
547.3120, 395.5550
547.7941, 409.1291
548.2762, 422.9318
548.7583, 436.7076
549.2404, 450.4749
549.7225, 464.1960
550.2047, 477.8568
550.6868, 491.6516
551.1689, 505.0270
551.6510, 517.5550
552.1331, 529.4532
552.6152, 542.0058
553.0974, 555.4455
553.5795, 568.4286
554.0616, 580.0844
554.5437, 590.5277
555.0258, 600.3281
555.5079, 609.5498
555.9901, 618.2073
556.4722, 626.6800
556.9543, 634.6830
557.4364, 641.5726
557.9185, 646.9348
558.4006, 651.5527
558.8828, 656.4944
559.3649, 661.1770
559.8470, 664.3821
560.3291, 665.6248
560.8112, 665.2244
561.2933, 663.1595
561.7755, 659.4160
562.2576, 654.6228
562.7397, 648.8141
563.2218, 641.9935
563.7039, 634.1124
564.1860, 625.1268
564.6682, 615.2581
565.1503, 604.5479
565.6324, 592.7877
566.1145, 579.6283
566.5966, 564.7991
567.0787, 549.9320
567.5609, 535.4299
568.0430, 521.1175
568.5251, 507.1955
569.0072, 493.4488
569.4893, 479.2989
569.9714, 463.8579
570.4536, 447.8725
570.9357, 432.1900
571.4178, 416.9019
571.8999, 401.9740
572.3820, 387.8994
572.8641, 374.0266
573.3463, 359.9050
573.8284, 344.9902
574.3105, 330.6871
574.7926, 317.4888
575.2747, 305.0400
575.7568, 292.9998
576.2390, 281.4692
576.7211, 270.0011
577.2032, 258.3491
577.6853, 246.6924
578.1674, 236.1417
578.6495, 227.0351
579.1317, 218.0398
579.6138, 208.4191
580.0959, 198.3499
580.5780, 189.4420
581.0601, 181.6875
581.5422, 174.3489
582.0244, 166.7025
582.5065, 158.9495
582.9886, 151.7424
583.4707, 145.0668
583.9528, 138.8587
584.4349, 133.1656
584.9171, 127.8513
585.3992, 122.7197
585.8813, 118.1058
586.3634, 113.1966
586.8455, 107.2511
587.3276, 100.7143
587.8098, 95.04626
588.2919, 91.11847
588.7740, 87.50044
589.2561, 83.81216
589.7382, 80.05072
590.2203, 76.28209
590.7025, 72.39636
591.1846, 68.77403
591.6667, 65.77351
592.1488, 63.43716
592.6309, 60.96931
593.1130, 58.32906
593.5952, 55.56342
594.0773, 52.52026
594.5594, 49.34486
595.0415, 46.73828
595.5236, 45.08713
596.0057, 43.61208
596.4879, 41.37997
596.9700, 38.66246
597.4521, 36.11812
597.9342, 33.84850
598.4163, 32.00821
598.8984, 31.02907
599.3806, 30.75787
599.8627, 29.89041
600.3448, 27.64906
600.8269, 25.14639
601.3090, 22.82700
601.7911, 20.64278
602.2733, 18.83049
602.7554, 17.50278
603.2375, 16.38976
603.7196, 15.26129
604.2017, 14.09087
604.6838, 13.08859
605.1660, 12.31462
605.6481, 11.61182
606.1302, 10.69719
606.6123, 9.625458
607.0944, 8.653198
607.5765, 7.872910
608.0587, 7.226624
608.5408, 6.633148
609.0229, 6.106155
609.5050, 5.663467
609.9871, 5.503601
610.4692, 5.284653
610.9514, 4.756775
611.4335, 3.878784
611.9156, 3.036865
612.3977, 2.249207
612.8798, 1.565613
613.3619, 1.049408
613.8441, 0.8333590
614.3262, 0.4272310
614.8083, 0.2448580
615.2904, 1.006134
615.7725, 1.647369
616.2546, 2.168030
616.7368, 2.534805
617.2189, 2.705902
617.7010, 2.795273
618.1831, 3.021042
618.6652, 3.347977
619.1473, 3.639816
619.6295, 3.885422
620.1116, 4.019745
620.5937, 3.823471
621.0758, 3.394623
621.5579, 3.229645
622.0400, 3.916885
622.5222, 4.664673
623.0043, 5.047729
623.4864, 5.007950
623.9685, 4.696091
624.4506, 3.692337
624.9327, 2.788177
625.4149, 2.569443
625.8970, 3.362228
626.3791, 3.862762
626.8612, 4.013611
627.3433, 3.888000
627.8254, 3.513489
628.3076, 2.902344
628.7897, 2.321274
629.2718, 1.842285
629.7539, 1.414185
630.2360, 0.9142150
630.7181, 0.3890380
631.2003, 8.9260004E-03
631.6824, 6.1737001E-02
632.1645, 7.9177998E-02
632.6466, 0.5059510
633.1287, 1.590424
633.6108, 2.448746
634.0930, 2.468384
634.5751, 2.509705
635.0572, 3.046585
635.5393, 4.208694
636.0214, 5.266373
636.5035, 6.029282
636.9857, 6.922546
637.4678, 8.357819
637.9499, 10.44400
638.4320, 12.23119
638.9141, 13.60976
639.3962, 14.78491
639.8784, 15.91628
640.3605, 17.04305
640.8426, 18.36880
641.3247, 19.93437
641.8068, 21.73326
642.2889, 23.86453
642.7711, 26.22386
643.2532, 28.62637
643.7353, 30.74333
644.2174, 33.10074
644.6995, 35.98715
645.1816, 39.34460
645.6638, 42.84019
646.1459, 46.35103
646.6280, 50.06975
647.1101, 54.09567
647.5922, 58.40170
648.0743, 62.97466
648.5565, 67.81120
649.0386, 72.85452
649.5207, 77.90842
650.0028, 83.00023
650.4849, 88.49989
650.9670, 94.41931
651.4492, 100.4814
651.9313, 106.0706
652.4134, 111.6096
652.8955, 117.8265
653.3776, 125.2179
653.8597, 132.8532
654.3419, 140.2547
654.8240, 147.5491
655.3061, 154.7973
655.7882, 161.9149
656.2703, 169.1035
656.7524, 176.5038
657.2346, 184.0239
657.7167, 191.4251
658.1988, 198.8178
658.6809, 205.9017
659.1630, 212.7436
659.6451, 219.1995
660.1273, 224.4378
660.6094, 228.5010
661.0915, 231.4734
661.5736, 233.3595
662.0557, 234.2547
662.5378, 234.5308
663.0200, 234.1984
663.5021, 232.4910
663.9842, 228.7465
664.4663, 223.4116
664.9484, 216.8252
665.4305, 208.9250
665.9127, 200.3050
666.3948, 190.5604
666.8769, 180.5186
667.3590, 170.9021
667.8411, 162.1712
668.3232, 153.0271
668.8054, 143.2287
669.2875, 133.2883
669.7696, 124.1439
670.2517, 115.8017
670.7338, 107.8824
671.2159, 100.2927
671.6981, 93.17261
672.1802, 86.85846
672.6623, 81.31920
673.1444, 76.20996
673.6265, 71.53265
674.1086, 67.12601
674.5908, 62.78621
675.0729, 58.64508
675.5550, 54.89200
676.0371, 51.70395
676.5192, 48.82047
677.0013, 46.08911
677.4835, 43.50861
677.9656, 41.04924
678.4477, 38.74420
678.9298, 36.56892
679.4119, 34.46408
679.8940, 32.36389
680.3762, 30.52979
680.8583, 28.99341
681.3404, 27.60770
681.8225, 26.17186
682.3046, 24.80162
682.7867, 23.66513
683.2689, 22.84120
683.7510, 21.87868
684.2331, 20.29303
684.7152, 18.54178
685.1973, 17.23225
685.6794, 17.24690
686.1616, 16.86951
686.6437, 15.51028
687.1258, 13.63029
687.6079, 11.97928
688.0900, 10.43503
688.5721, 9.581177
689.0543, 9.820847
689.5364, 10.62738
690.0185, 10.52596
690.5006, 9.595383
690.9827, 8.588211
691.4648, 7.805634
691.9470, 7.158142
692.4291, 6.405609
692.9112, 5.606369
693.3933, 5.083893
693.8754, 5.323212
694.3575, 5.646637
694.8397, 5.570786
695.3218, 5.025726
695.8039, 4.573898
696.2860, 4.299713
696.7681, 4.124527
697.2502, 4.048737
697.7324, 4.135590
698.2145, 4.013397
698.6966, 3.620804
699.1787, 3.188690
699.6608, 3.022629
700.1429, 3.045029
700.6251, 2.773315
701.1072, 2.074005
701.5893, 1.449814
702.0714, 1.492905
702.5535, 1.916534
703.0356, 2.301437
703.5178, 2.500900
703.9999, 2.685608
704.4820, 3.032822
704.9641, 3.373840
705.4462, 3.433594
705.9283, 3.024170
706.4105, 2.606812
706.8926, 2.177216
707.3747, 1.810287
707.8568, 1.745789
708.3389, 2.014709
708.8210, 2.150986
709.3032, 1.905640
709.7853, 1.515427
710.2674, 1.571304
710.7495, 1.952942
711.2316, 2.148178
711.7137, 1.614502
712.1959, 1.007477
712.6780, 0.8379060
713.1601, 1.061371
713.6422, 1.268417
714.1243, 1.445633
714.6064, 1.478485
715.0886, 1.270416
715.5707, 0.8083500
716.0528, 0.5228880
716.5349, 0.4540860
717.0170, 0.4536130
717.4991, 0.4185790
717.9813, 0.3627930
718.4634, 0.4224700
718.9455, 0.6083220
719.4276, 0.7412720
719.9097, 0.6559600
720.3918, 0.4288480
720.8740, 3.9902002E-02
721.3561, 0.6153720
721.8382, 0.8032460
722.3203, 0.6026610
722.8024, 2.172928
723.2845, 2.602646
723.7667, 0.6020280
724.2488, 0.4403230
724.7309, 0.1195830
725.2130, 0.7158200
725.6951, 1.101616
726.1772, 1.012756
726.6594, 0.8342590
727.1415, 0.5991290
727.6236, 0.3743670
728.1057, 0.2791290
728.5878, 0.2685620
729.0699, 0.2259370
729.5521, 0.1196370
730.0342, 3.8857002E-02
730.5163, 0.4575200
730.9984, 0.8840710
731.4805, 0.8685300
731.9626, 0.4493940
732.4448, 1.304710
732.9269, 1.173920
733.4090, 0.4306030
733.8911, 0.1429440
734.3732, 0.4626080
734.8553, 0.6059270
735.3375, 0.2173080
735.8196, 0.4205860
736.3017, 0.5077670
736.7838, 0.1262440
737.2659, 0.2248460
737.7480, 0.2308350
738.2302, 0.1130450
738.7123, 5.5450000E-02
739.1944, 5.3047001E-02
739.6765, 6.5086000E-02
740.1586, 3.3340000E-03
740.6407, 2.1865999E-02
741.1229, 0.2805630
741.6050, 0.7597050
742.0871, 0.9200970
742.5692, 0.6223220
743.0513, 0.3381810
743.5334, 0.3688810
744.0156, 0.6584320
744.4977, 0.7353360
744.9798, 0.6006930
745.4619, 0.3540040
745.9440, 0.1518630
746.4261, 0.5964430
746.9083, 0.5150300
747.3904, 0.1166150
747.8725, 0.7544780
748.3546, 1.219254
748.8367, 1.548782
749.3188, 1.775764
749.8010, 1.930115
750.2831, 1.831856
750.7652, 1.320000
751.2473, 0.7996670
751.7294, 0.6335680
752.2115, 0.8173600
752.6937, 0.8417890
753.1758, 0.6566240
753.6579, 0.5596540
754.1400, 0.9715730
754.6221, 1.560326
755.1042, 1.788887
755.5864, 1.444466
756.0685, 1.170151
756.5506, 1.551529
757.0327, 2.050613
757.5148, 2.113304
757.9969, 0.9688030
758.4791, 0.5120160
758.9612, 1.019371
759.4433, 1.892448
759.9254, 2.429062
760.4075, 2.625824
760.8896, 2.788788
761.3718, 2.980408
761.8539, 3.087280
762.3360, 2.829758
762.8181, 2.385002
763.3002, 2.137337
763.7823, 2.313797
764.2645, 2.493790
764.7466, 2.424286
765.2287, 2.222023
765.7108, 2.058937
766.1929, 1.853485
766.6750, 1.866066
767.1572, 2.223679
767.6393, 2.719971
768.1214, 2.993111
768.6035, 3.038033
769.0856, 2.959740
769.5677, 2.727661
770.0499, 2.461945
770.5320, 2.346764
771.0141, 2.369095
771.4962, 2.478035
771.9783, 2.817528
772.4604, 3.043175
772.9426, 2.788277
773.4247, 2.289459
773.9068, 2.119408
774.3889, 2.711655
774.8710, 3.127663
775.3531, 3.190308
775.8353, 3.009834
776.3174, 2.866325
776.7995, 2.770348
777.2816, 2.716286
777.7637, 2.693245
778.2458, 2.690285
778.7280, 2.734795
779.2101, 2.776138
779.6922, 2.735939
780.1743, 2.639008
780.6564, 2.488762
781.1385, 2.153236
781.6207, 1.702003
782.1028, 1.570839
782.5849, 2.162537
783.0670, 2.655457
783.5491, 2.776054
784.0313, 2.604301
784.5134, 2.511787
784.9955, 2.494766
785.4776, 2.420021
785.9597, 2.225006
786.4418, 1.931618
786.9240, 1.425674
787.4061, 0.8135760
787.8882, 0.5031890
788.3703, 0.9985660
788.8524, 1.558266
789.3345, 1.868134
789.8167, 2.023354
790.2988, 2.038597
790.7809, 1.787697
791.2630, 1.580841
791.7451, 1.530365
792.2272, 1.660660
792.7094, 2.099953
793.1915, 2.800003
793.6736, 3.219315
794.1557, 2.932213
794.6378, 2.371925
795.1199, 1.960976
795.6021, 1.691742
796.0842, 1.552177
796.5663, 1.769012
797.0484, 1.900291
797.5305, 1.655182
798.0126, 1.090492
798.4948, 0.7351380
798.9769, 0.6494370
799.4590, 0.6539460
799.9411, 0.6944960
800.4232, 0.7582700
800.9053, 0.9100950
801.3875, 1.160316
801.8696, 1.290794
802.3517, 1.097054
802.8338, 0.7613750
803.3159, 0.3645100
803.7980, 6.2224999E-02
804.2802, 0.2967680
804.7623, 2.4673000E-02
805.2444, 0.3022610
805.7265, 0.4861760
806.2086, 0.5340580
806.6907, 0.5753330
807.1729, 0.6103360
807.6550, 0.6213070
808.1371, 0.5851750
808.6192, 0.5202480
809.1013, 0.5410770
809.5834, 0.6158910
810.0656, 0.5478670
810.5477, 0.1178740
811.0298, 0.6840820
811.5119, 0.5178380
811.9940, 0.2875980
812.4761, 0.8336490
812.9583, 0.8218380
813.4404, 0.7294010
813.9225, 0.6750790
814.4046, 0.6641690
814.8867, 0.6924440
815.3688, 0.7580570
815.8510, 0.8455960
816.3331, 1.033142
816.8152, 1.205048
817.2973, 1.094009
817.7794, 0.7572630
818.2615, 0.4391630
818.7437, 0.1607060
819.2258, 2.8351000E-02
819.7079, 0.2055510
820.1900, 0.6209410
820.6721, 0.7656400
821.1542, 0.5251620
821.6364, 0.2671360
822.1185, 9.6573003E-02
822.6006, 3.0670001E-03
823.0827, 4.7637999E-02
823.5648, 5.5374000E-02
824.0469, 2.6381999E-02
824.5291, 3.8406000E-02
825.0112, 0.1433870
825.4933, 0.3534090
825.9754, 0.6151120
826.4575, 0.7655790
826.9396, 0.7181550
827.4218, 0.5886380
827.9039, 0.3618160
828.3860, 8.6029001E-02
828.8681, 7.1960002E-02
829.3502, 0.1043240
829.8323, 5.9891000E-02
830.3145, 9.0759002E-02
830.7966, 0.2522890
831.2787, 0.2673490
831.7608, 0.1406860
832.2429, 0.1114200
832.7250, 0.9294590
833.2072, 1.420975
833.6893, 0.7085420
834.1714, 0.6841130
834.6535, 1.328140
835.1356, 0.7422640
835.6177, 0.1304630
836.0999, 0.3869780
836.5820, 0.7361910
837.0641, 0.6466980
837.5462, 0.1638180
838.0283, 0.1787110
838.5104, 0.1354520
838.9926, 1.9608000E-02
839.4747, 0.2793580
839.9568, 0.6903840
840.4389, 0.8639680
840.9210, 0.4406740
841.4031, 3.4286000E-02
841.8853, 0.2830050
842.3674, 0.4806820
842.8495, 0.4753720
843.3316, 0.2203520
843.8137, 2.4582000E-02
844.2958, 0.2575230
844.7780, 0.3633580
845.2601, 7.0389003E-02
845.7422, 0.7454830
846.2243, 0.8767240
846.7064, 7.2479998E-03
847.1885, 0.8135830
847.6707, 1.067322
848.1528, 0.9034880
848.6349, 0.4565280
849.1170, 0.6937410
849.5991, 1.271881
850.0812, 1.103546
850.5634, 0.5979000
851.0455, 0.1186830
851.5276, 0.3177950
852.0097, 0.5392760
852.4918, 0.5025020
852.9739, 0.4161680
853.4561, 0.4841610
853.9382, 0.6034390
854.4203, 0.6455080
854.9024, 0.5472560
855.3845, 0.5112760
855.8666, 0.7920230
856.3488, 0.9467470
856.8309, 0.5061490
857.3130, 0.7374110
857.7951, 0.8481750
858.2772, 0.3204960
858.7593, 1.630264
859.2415, 2.100876
859.7236, 2.031769
860.2057, 1.845215
860.6878, 1.582352
861.1699, 1.438675
861.6520, 1.547943
862.1342, 1.754257
862.6163, 2.039124
863.0984, 2.400192
863.5805, 2.566360
864.0626, 2.442032
864.5447, 2.411667
865.0269, 2.794449
865.5090, 3.434082
865.9911, 3.756866
866.4732, 3.795944
866.9553, 3.777679
867.4374, 3.501755
867.9196, 3.510040
868.4017, 4.524094
868.8838, 6.314667
869.3659, 7.243149
869.8480, 6.512085
870.3301, 6.072906
870.8123, 6.609116
871.2944, 7.789551
871.7765, 8.545547
872.2586, 8.883438
872.7407, 8.954315
873.2228, 8.581848
873.7050, 8.240906
874.1871, 8.595718
874.6692, 9.340652
875.1513, 9.816086
875.6334, 9.546555
876.1155, 9.312820
876.5977, 9.192261
877.0798, 9.224579
877.5619, 9.576599
878.0440, 10.28334
878.5261, 10.75655
879.0082, 10.83397
879.4904, 10.77141
879.9725, 10.96562
880.4546, 11.24185
880.9367, 11.25873
881.4188, 10.72043
881.9009, 10.36827
882.3831, 10.60695
882.8652, 11.07286
883.3473, 11.39816
883.8294, 11.56409
884.3115, 11.66843
884.7936, 11.70125
885.2758, 11.72701
885.7579, 11.68066
886.2400, 11.70432
886.7221, 12.20753
887.2042, 13.26823
887.6863, 14.30609
888.1685, 15.05574
888.6506, 15.61841
889.1327, 15.97537
889.6148, 16.06618
890.0969, 16.52551
890.5790, 17.43167
891.0612, 18.41466
891.5433, 19.26201
892.0254, 20.05571
892.5075, 21.11862
892.9896, 22.42386
893.4717, 23.72603
893.9539, 24.67236
894.4360, 25.73463
894.9181, 27.25656
895.4002, 29.23759
895.8823, 31.42841
896.3644, 34.12874
896.8466, 36.39865
897.3287, 37.81900
897.8108, 38.81332
898.2929, 40.59862
898.7750, 43.07120
899.2571, 45.60066
899.7393, 47.96317
900.2214, 50.24249
900.7035, 52.26779
901.1856, 54.31429
901.6677, 56.78113
902.1498, 60.29008
902.6320, 63.50069
903.1141, 66.22331
903.5962, 68.73599
904.0783, 71.41489
904.5604, 74.30185
905.0425, 77.13736
905.5247, 79.87830
906.0068, 82.63228
906.4889, 85.37894
906.9710, 88.23863
907.4531, 91.49136
907.9352, 95.52385
908.4174, 98.88763
908.8995, 100.8870
909.3816, 102.7710
909.8637, 105.3318
910.3458, 108.5967
910.8279, 111.3931
911.3101, 113.7078
911.7922, 116.1943
912.2743, 119.6188
912.7564, 123.2654
913.2385, 126.2979
913.7206, 128.7628
914.2028, 131.2589
914.6849, 133.6874
915.1670, 136.4817
915.6491, 139.7949
916.1312, 143.6352
916.6133, 147.8392
917.0955, 152.4537
917.5776, 157.2416
918.0597, 162.1717
918.5418, 167.2454
919.0239, 172.5696
919.5060, 178.0081
919.9882, 183.2129
920.4703, 187.2111
920.9524, 192.1828
921.4345, 198.9825
921.9166, 206.4160
922.3987, 212.8664
922.8809, 218.2617
923.3630, 224.1765
923.8451, 230.8651
924.3272, 237.8735
924.8093, 245.1298
925.2914, 252.0957
925.7736, 257.6560
926.2557, 261.3920
926.7378, 265.6999
927.2199, 271.9106
927.7020, 278.2493
928.1841, 284.0071
928.6663, 289.1482
929.1484, 293.1668
929.6305, 296.1003
930.1126, 298.3308
930.5947, 300.3551
931.0768, 301.6872
931.5590, 301.4672
932.0411, 299.9524
932.5232, 298.2775
933.0053, 298.0558
933.4874, 296.1084
933.9695, 291.3580
934.4517, 284.6414
934.9338, 277.6114
935.4159, 270.3243
935.8980, 262.8414
936.3801, 255.4074
936.8622, 247.6033
937.3444, 239.0330
937.8265, 229.9310
938.3086, 220.4539
938.7907, 210.4555
939.2728, 200.5739
939.7549, 190.8929
940.2371, 181.5374
940.7192, 172.3187
941.2013, 163.2583
941.6834, 154.9946
942.1655, 147.6031
942.6476, 140.4571
943.1298, 132.8329
943.6119, 125.4257
944.0940, 118.9994
944.5761, 113.5237
945.0582, 108.2596
945.5403, 102.8166
946.0225, 97.85515
946.5046, 93.78825
946.9867, 90.33707
947.4688, 86.10358
947.9509, 81.16846
948.4330, 76.59238
948.9152, 73.03873
949.3973, 69.83653
949.8794, 66.58967
950.3615, 63.17775
950.8436, 59.37233
951.3257, 54.56017
951.8079, 50.22198
952.2900, 46.53606
952.7721, 43.22269
953.2542, 39.99128
953.7363, 36.80134
954.2184, 33.76673
954.7006, 30.91541
955.1827, 28.40984
955.6648, 26.43335
956.1469, 24.77499
956.6290, 23.32832
957.1111, 22.09217
957.5933, 20.75040
958.0754, 19.24034
958.5575, 17.80492
959.0396, 16.55001
959.5217, 15.40891
960.0038, 14.15828
960.4860, 12.82597
960.9681, 11.67557
961.4502, 11.02194
961.9323, 10.47358
962.4144, 9.853874
962.8965, 9.176285
963.3787, 8.445877
963.8608, 7.504547
964.3429, 6.853157
964.8250, 6.660057
965.3071, 6.554260
965.7892, 5.937508
966.2714, 5.028618
966.7535, 4.359283
967.2356, 4.043716
967.7177, 3.805733
968.1998, 3.517456
968.6819, 3.254211
969.1641, 3.092766
969.6462, 3.039902
970.1283, 2.789528
970.6104, 2.313225
971.0925, 1.848495
971.5746, 1.569717
972.0568, 1.332031
972.5389, 0.6831670
973.0210, 0.1819920
973.5031, 0.5946350
973.9852, 0.4154660
974.4673, 1.120834
974.9495, 0.7446140
975.4316, 0.1371610
975.9137, 0.4547810
976.3958, 0.1522220
976.8779, 8.6143002E-02
977.3600, 0.4650500
977.8422, 0.8164750
978.3243, 0.6253510
978.8064, 0.1083370
979.2885, 0.5927200
979.7706, 1.613930
980.2527, 1.944099
980.7349, 0.9637990
981.2170, 9.4673000E-02
981.6991, 0.5773850
982.1812, 0.5528950
982.6633, 0.4924010
983.1454, 0.4044110
983.6276, 0.3082500
984.1097, 0.1616520
984.5918, 6.6742003E-02
985.0739, 0.2028050
985.5560, 0.4493940
986.0381, 0.4540330
986.5203, 8.0639999E-03
987.0024, 0.2483220
987.4845, 8.9867003E-02
987.9666, 0.1410220
988.4487, 0.2376560
988.9308, 0.9251170
989.4130, 0.8869550
989.8951, 0.1720200
990.3772, 0.9799800
990.8593, 0.5543210
991.3414, 0.2129590
991.8235, 0.7142110
992.3057, 0.9314270
992.7878, 1.015594
993.2699, 0.9633330
993.7520, 0.8004230
994.2341, 0.4690550
994.7162, 8.6838000E-02
995.1984, 0.2126690
995.6805, 0.3957440
996.1626, 0.3588790
996.6447, 6.9045998E-02
997.1268, 0.5674290
997.6089, 1.231651
998.0911, 1.799805
998.5732, 1.793686
999.0553, 1.220596
999.5374, 0.8931350
1000.020, 0.9291760
1000.502, 1.101059
1000.984, 1.366249
1001.466, 1.556755
1001.948, 1.422279
1002.430, 0.8947140
1002.912, 0.6679530
1003.394, 1.036095
1003.876, 1.189339
1004.359, 0.6116870
1004.841, 0.3089680
1005.323, 0.2040410
1005.805, 0.6792980
1006.287, 1.329231
1006.769, 1.117256
1007.251, 0.8124690
1007.733, 0.7674640
1008.216, 0.8918380
1008.698, 1.115089
1009.180, 1.604218
1009.662, 1.417931
1010.144, 0.3637160
1010.626, 0.6471860
1011.108, 0.5056610
1011.590, 0.1762770
1012.072, 0.5005570
1012.555, 0.4155500
1013.037, 0.2780690
1013.519, 0.1037450
1014.001, 3.7726998E-02
1014.483, 0.2294620
1014.965, 0.5204470
1015.447, 0.2497410
1015.929, 0.5139240
1016.411, 1.025017
1016.894, 1.016045
1017.376, 0.7326810
1017.858, 0.1114730
1018.340, 0.5316930
1018.822, 0.7712480
1019.304, 0.3669130
1019.786, 2.2834999E-02
1020.268, 0.2983320
1020.751, 0.4580380
1021.233, 0.2634050
1021.715, 0.1569980
1022.197, 0.5229800
1022.679, 0.8108290
1023.161, 0.9172900
1023.643, 0.6026540
1024.125, 0.3034820
1024.607, 0.2145390
1025.090, 0.2494740
1025.572, 0.2031940
1026.054, 5.8295999E-02
1026.536, 0.1292190
1027.018, 0.5286870
1027.500, 0.9006040
1027.982, 0.5873180
1028.464, 0.1853030
1028.947, 0.5859530
1029.429, 2.238243
1029.911, 2.895569
1030.393, 2.026817
1030.875, 0.9178700
1031.357, 9.6038997E-02
1031.839, 0.3925550
1032.321, 0.4299620
1032.803, 9.8511003E-02
1033.286, 0.2428510
1033.768, 0.4123990
1034.250, 0.5654220
1034.732, 0.7628630
1035.214, 0.9356380
1035.696, 0.9869310
1036.178, 0.8986050
1036.660, 1.035950
1037.143, 1.437691
1037.625, 1.791245
1038.107, 1.798248
1038.589, 1.603790
1039.071, 1.261452
1039.553, 0.7854770
1040.035, 0.6673510
1040.517, 1.251442
1041.000, 1.834671
1041.482, 2.243614
1041.964, 2.510933
1042.446, 2.644699
1042.928, 2.665932
1043.410, 2.701057
1043.892, 2.818230
1044.374, 2.949516
1044.856, 2.986511
1045.339, 3.009354
1045.821, 3.104546
1046.303, 3.327827
1046.785, 3.319771
1047.267, 3.034653
1047.749, 2.906120
1048.231, 3.419731
1048.713, 4.143806
1049.195, 4.439873
1049.677, 4.376610
1050.160, 4.264427
1050.642, 4.180008
1051.124, 4.052277
1051.606, 3.832115
1052.088, 3.625526
1052.570, 3.649200
1053.052, 3.799446
1053.534, 3.629440
1054.017, 3.083633
1054.499, 2.805313
1054.981, 3.455246
1055.463, 4.205246
1055.945, 4.512146
1056.427, 4.451843
1056.909, 4.447212
1057.391, 4.500389
1057.874, 4.603554
1058.356, 4.773911
1058.838, 4.953758
1059.320, 4.967705
1059.802, 4.988548
1060.284, 5.298698
1060.766, 6.221329
1061.248, 6.771286
1061.730, 6.733147
1062.213, 6.683914
1062.695, 7.058907
1063.177, 7.756081
1063.659, 8.364380
1064.141, 8.835083
1064.623, 9.071495
1065.105, 8.611526
1065.587, 8.378784
1066.070, 9.012947
1066.552, 9.943634
1067.034, 10.26283
1067.516, 9.942863
1067.998, 9.838783
1068.480, 10.00178
1068.962, 10.37665
1069.444, 11.16870
1069.927, 11.91760
1070.409, 12.16161
1070.891, 11.86134
1071.373, 11.64907
1071.855, 11.54042
1072.337, 11.57868
1072.819, 11.84401
1073.301, 12.12937
1073.783, 11.96748
1074.266, 11.55233
1074.748, 11.30267
1075.230, 11.37845
1075.712, 11.55851
1076.194, 11.98588
1076.676, 12.21720
1077.158, 11.86219
1077.640, 11.00383
1078.122, 10.65556
1078.604, 10.75560
1079.087, 10.71512
1079.569, 10.04218
1080.051, 9.291931
1080.533, 8.666000
1081.015, 8.240280
1081.497, 8.167450
1081.979, 8.599060
1082.461, 8.622765
1082.944, 8.131042
1083.426, 7.536064
1083.908, 7.251228
1084.390, 7.083954
1084.872, 6.788368
1085.354, 6.356346
1085.836, 5.976196
1086.318, 5.719536
1086.801, 5.412193
1087.283, 4.952309
1087.765, 4.494865
1088.247, 4.444565
1088.729, 4.624390
1089.211, 4.530609
1089.693, 3.984299
1090.175, 3.509674
1090.657, 3.420860
1091.140, 3.405487
1091.622, 3.291466
1092.104, 3.087410
1092.586, 2.845032
1093.068, 2.572578
1093.550, 2.396095
1094.032, 2.470802
1094.514, 2.508972
1094.997, 2.212097
1095.479, 1.793678
1095.961, 1.538528
1096.443, 1.478233
1096.925, 1.527672
1097.407, 1.706070
1097.889, 1.849838
1098.371, 1.804176
1098.854, 1.670830
1099.336, 1.572968
1099.818, 1.504059
1100.300, 1.424568
1100.782, 1.264030
1101.264, 1.211594
1101.746, 1.333275
1102.228, 1.486366
1102.710, 1.476379
1103.193, 1.349442
1103.675, 1.116241
1104.157, 0.7827760
1104.639, 0.7963100
1105.121, 2.035843
1105.603, 2.850456
1106.085, 2.473839
1106.567, 1.319275
1107.049, 0.5497210
1107.531, 0.1556550
1108.014, 0.1994930
1108.496, 0.8334120
1108.978, 1.405937
1109.460, 1.326202
1109.942, 1.077995
1110.424, 1.107254
1110.906, 1.438316
1111.388, 1.560349
1111.871, 1.452339
1112.353, 1.447670
1112.835, 1.878014
1113.317, 2.285461
1113.799, 2.023041
1114.281, 1.438347
1114.763, 1.106064
1115.245, 1.227600
1115.728, 1.417252
1116.210, 1.708923
1116.692, 1.958931
1117.174, 2.041611
1117.656, 2.002853
1118.138, 1.877808
1118.620, 1.698433
1119.102, 1.575912
1119.584, 1.461433
1120.067, 1.567856
1120.549, 2.084404
1121.031, 2.585571
1121.513, 2.375168
1121.995, 1.669975
1122.477, 1.216621
1122.959, 1.080002
1123.441, 1.039001
1123.924, 0.9374390
1124.406, 0.9646990
1124.888, 1.294922
1125.370, 1.777649
1125.852, 1.873405
1126.334, 1.616959
1126.816, 1.401108
1127.298, 1.297104
1127.781, 1.351860
1128.263, 1.955902
1128.745, 2.454384
1129.227, 2.132698
1129.709, 1.048027
1130.191, 0.5281910
1130.673, 0.6245040
1131.155, 0.9706880
1131.637, 1.521660
1132.120, 2.030426
1132.602, 2.146004
1133.084, 2.056396
1133.566, 2.017326
1134.048, 2.075119
1134.530, 2.133705
1135.012, 2.192734
1135.494, 2.249710
1135.976, 2.292938
1136.458, 2.340805
1136.941, 2.432777
1137.423, 2.550774
1137.905, 2.649765
1138.387, 2.928810
1138.869, 2.777542
1139.351, 1.937508
1139.833, 1.166870
1140.315, 1.390892
1140.798, 2.233711
1141.280, 2.834389
1141.762, 3.151314
1142.244, 3.211876
1142.726, 2.601860
1143.208, 2.336838
1143.690, 2.872528
1144.172, 3.560677
1144.655, 3.198532
1145.137, 2.110130
1145.619, 1.688911
1146.101, 2.117317
1146.583, 2.423477
1147.065, 1.738991
1147.547, 1.197533
1148.029, 1.460518
1148.511, 2.173912
1148.994, 2.300941
1149.476, 1.907494
1149.958, 1.467934
1150.440, 1.026909
1150.922, 0.8085860
1151.404, 1.250359
1151.886, 1.765068
1152.368, 1.828087
1152.851, 1.504471
1153.333, 1.561928
1153.815, 2.002289
1154.297, 2.117989
1154.779, 1.469498
1155.261, 0.7888410
1155.743, 0.7781520
1156.225, 1.107338
1156.708, 1.440994
1157.190, 1.771461
1157.672, 1.972260
1158.154, 2.043144
1158.636, 1.992073
1159.118, 1.753555
1159.600, 1.481163
1160.082, 1.299393
1160.564, 1.241417
1161.047, 1.341049
1161.529, 1.785194
1162.011, 1.924538
1162.493, 1.705948
1162.975, 1.418785
1163.457, 1.240631
1163.939, 1.158394
1164.421, 1.254318
1164.903, 1.432510
1165.385, 1.404526
1165.868, 0.9574660
1166.350, 0.5438690
1166.832, 0.1477280
1167.314, 6.6344999E-02
1167.796, 0.2007600
1168.278, 0.7136690
1168.760, 1.090378
1169.242, 1.315285
1169.725, 1.454277
1170.207, 1.497406
1170.689, 1.483528
1171.171, 1.350723
1171.653, 1.292297
1172.135, 1.846420
1172.617, 2.618645
1173.099, 2.576035
1173.582, 1.626030
1174.064, 0.8967900
1174.546, 1.129814
1175.028, 1.227394
1175.510, 0.7748340
1175.992, 9.4214998E-02
1176.474, 7.3199999E-04
1176.956, 0.3159480
1177.438, 0.5226140
1177.921, 0.4969250
1178.403, 0.5638960
1178.885, 1.065979
1179.367, 1.443665
1179.849, 1.429680
1180.331, 1.165825
1180.813, 1.164337
1181.295, 1.309502
1181.778, 1.091286
1182.260, 0.2060850
1182.742, 0.4447630
1183.224, 0.2968670
1183.706, 5.6992002E-02
1184.188, 0.3421170
1184.670, 0.5486600
1185.152, 0.5145870
1185.635, 0.3061370
1186.117, 0.3252790
1186.599, 0.9984510
1187.081, 1.351372
1187.563, 0.3869630
1188.045, 0.6302110
1188.527, 0.6441960
1189.009, 0.2382580
1189.491, 0.5641780
1189.974, 0.4026260
1190.456, 0.2678600
1190.938, 0.5251390
1191.420, 0.7234570
1191.902, 0.4772490
1192.384, 0.1866380
1192.866, 0.2876510
1193.348, 0.7901920
1193.830, 1.120972
1194.313, 1.279533
1194.795, 1.274750
1195.277, 0.8925630
1195.759, 0.5865860
1196.241, 0.8461460
1196.723, 1.176018
1197.205, 0.8161770
1197.687, 0.2664030
1198.169, 0.6730960
1198.652, 0.3577880
1199.134, 0.1395190
1199.616, 0.7342300
1200.098, 1.103493
1200.580, 0.8642650
1201.062, 0.3531190
1201.544, 0.1089710
1202.026, 0.1357120
1202.509, 0.1880340
1202.991, 0.2458110
1203.473, 0.4162060
1203.955, 1.041924
1204.437, 1.538635
1204.919, 1.457634
1205.401, 0.9795760
1205.883, 0.4268800
1206.365, 0.2148130
1206.848, 0.5877840
1207.330, 0.6402890
1207.812, 0.5107570
1208.294, 0.2181400
1208.776, 0.1351390
1209.258, 0.5274350
1209.740, 0.9160840
1210.222, 1.210037
1210.705, 1.413879
1211.187, 1.274353
1211.669, 0.6986690
1212.151, 0.2440030
1212.633, 0.6049960
1213.115, 1.059059
1213.597, 0.9065550
1214.079, 0.3694690
1214.562, 0.2537920
1215.044, 0.5537640
1215.526, 0.9584810
1216.008, 1.469559
1216.490, 1.678802
1216.972, 0.9176710
1217.454, 4.8027001E-02
1217.936, 0.2721330
1218.418, 0.1295930
1218.901, 9.2528999E-02
1219.383, 0.3953780
1219.865, 0.6896740
1220.347, 0.9435650
1220.829, 1.202629
1221.311, 1.662415
1221.793, 1.981544
1222.275, 1.803848
1222.757, 1.244919
1223.240, 1.236130
1223.722, 1.720612
1224.204, 1.912163
1224.686, 1.449394
1225.168, 0.9292600
1225.650, 0.6366420
1226.132, 0.5675130
1226.614, 0.7919310
1227.096, 1.241539
1227.579, 1.204247
1228.061, 0.7443620
1228.543, 0.4315340
1229.025, 0.5300220
1229.507, 0.7144320
1229.989, 0.9236070
1230.471, 1.019936
1230.953, 0.8829040
1231.436, 0.5384450
1231.918, 0.1033100
1232.400, 0.3576430
1232.882, 0.3513490
1233.364, 0.7023240
1233.846, 1.545273
1234.328, 1.327980
1234.810, 0.8875890
1235.292, 0.8554990
1235.775, 1.157959
1236.257, 1.165802
1236.739, 0.9373250
1237.221, 0.7469100
1237.703, 0.7448650
1238.185, 0.7768020
1238.667, 0.7933120
1239.149, 0.8139040
1239.632, 0.8135830
1240.114, 0.8224110
1240.596, 1.179626
1241.078, 1.768234
1241.560, 1.988274
1242.042, 1.104317
1242.524, 0.4685590
1243.006, 0.4585650
1243.489, 0.7141340
1243.971, 1.050430
1244.453, 1.423531
1244.935, 1.671745
1245.417, 1.704437
1245.899, 1.682381
1246.381, 1.348259
1246.863, 1.181526
1247.345, 1.286438
1247.828, 1.477150
1248.310, 1.656921
1248.792, 1.777229
1249.274, 1.601379
1249.756, 1.247269
1250.238, 1.031044
1250.720, 1.532845
1251.202, 1.716995
1251.684, 1.268639
1252.167, 0.9454570
1252.649, 1.772797
1253.131, 3.021164
1253.613, 3.110352
1254.095, 2.349960
1254.577, 1.774437
1255.059, 1.937233
1255.541, 1.995071
1256.023, 1.811501
1256.506, 1.601692
1256.988, 1.654587
1257.470, 1.741234
1257.952, 1.449341
1258.434, 0.9234920
1258.916, 0.7065890
1259.398, 1.018486
1259.880, 1.065674
1260.363, 0.7013470
1260.845, 0.5337140
1261.327, 1.293861
1261.809, 2.116096
1262.291, 1.933624
1262.773, 1.117149
1263.255, 0.7391510
1263.737, 0.9467320
1264.219, 1.023872
1264.702, 0.9268490
1265.184, 0.8591770
1265.666, 1.060783
1266.148, 1.279236
1266.630, 1.242157
1267.112, 1.063011
1267.594, 0.9649730
1268.076, 1.208466
1268.559, 1.428841
1269.041, 1.605797
1269.523, 1.533653
1270.005, 0.6333540
1270.487, 9.2926003E-02
1270.969, 0.2425460
1271.451, 0.9343490
1271.933, 0.9862750
1272.416, 0.4386140
1272.898, 1.2924000E-02
1273.380, 0.2121350
1273.862, 9.8389000E-02
1274.344, 0.9405590
1274.826, 1.683014
1275.308, 1.658188
1275.790, 1.233246
1276.272, 0.6744380
1276.755, 0.1218800
1277.237, 0.1845470
1277.719, 0.8104480
1278.201, 1.319221
1278.683, 1.450974
1279.165, 1.321823
1279.647, 0.7952270
1280.129, 0.3398440
1280.611, 0.6697920
1281.094, 1.373116
1281.576, 1.450493
1282.058, 1.018135
1282.540, 0.7757190
1283.022, 1.098351
1283.504, 1.232704
1283.986, 1.062241
1284.468, 0.8269580
1284.950, 0.7027210
1285.433, 0.6859210
1285.915, 0.7934110
1286.397, 0.9221340
1286.879, 1.115692
1287.361, 1.357719
1287.843, 1.310867
1288.325, 1.158340
1288.807, 1.017311
1289.290, 0.7164990
1289.772, 0.5043790
1290.254, 0.9650500
1290.736, 1.705276
1291.218, 1.865570
1291.700, 1.431046
1292.182, 1.123604
1292.664, 0.9794010
1293.146, 0.8260650
1293.629, 0.3035890
1294.111, 3.2402001E-02
1294.593, 0.4329760
1295.075, 1.087753
1295.557, 1.092537
1296.039, 0.5511250
1296.521, 0.5365300
1297.003, 1.019539
1297.486, 1.297256
1297.968, 0.7473140
1298.450, 0.1926270
1298.932, 4.7729000E-02
1299.414, 5.3436000E-02
1299.896, 2.3521001E-02
1300.378, 4.2340001E-03
1300.860, 5.2246001E-02
1301.343, 9.3658000E-02
1301.825, 0.0000000E+00
##END=



