##NAMES=Henritermierite
##RRUFFID=R060253
##IDEAL CHEMISTRY=Ca_3_Mn^3+^_2_(SiO_4_)_2_(OH)_4_
##LOCALITY=N'Chwaning mine, Kuruman, Kakahari mining area, Cape Province, South Africa
##OWNER=RRUFF
##SOURCE=William W. Pinch
##DESCRIPTION=Reddish-brown granular coating on darker andradite
##STATUS=The identification of this mineral is confirmed by single-crystal X-ray diffraction and chemical analysis.
##URL=rruff.info/R060253
##MEASURED CHEMISTRY=Ca_3.00_(Mn^3+^_1.97_Al_0.03_)_Î£=2_(Si_1.00_O_4_)_2_(OH)_4_
142.2853, 0.0000000E+00
142.7675, 0.1026310
143.2496, 0.7844310
143.7317, 1.690491
144.2138, 2.670868
144.6959, 3.698036
145.1780, 4.691681
145.6602, 5.563850
146.1423, 6.564133
146.6244, 8.328659
147.1065, 11.09988
147.5886, 13.66549
148.0707, 15.31388
148.5529, 16.29875
149.0350, 17.67457
149.5171, 20.39138
149.9992, 23.20225
150.4813, 24.55452
150.9634, 24.33487
151.4456, 23.04770
151.9277, 20.85287
152.4098, 17.66727
152.8919, 14.32660
153.3740, 10.52564
153.8561, 6.963299
154.3383, 4.249054
154.8204, 2.649075
155.3025, 1.802490
155.7846, 1.076824
156.2667, 0.3672290
156.7488, 9.7682998E-02
157.2310, 0.5021930
157.7131, 1.245331
158.1952, 2.008564
158.6773, 2.672211
159.1594, 3.358971
159.6415, 4.371487
160.1237, 6.160603
160.6058, 7.775833
161.0879, 8.876667
161.5700, 9.778030
162.0521, 10.85361
162.5342, 12.27357
163.0164, 13.97740
163.4985, 15.51764
163.9806, 16.79934
164.4627, 17.96167
164.9448, 19.15882
165.4269, 20.34521
165.9091, 21.37765
166.3912, 22.22656
166.8733, 22.91425
167.3554, 23.48039
167.8375, 23.80427
168.3196, 24.09048
168.8018, 24.49934
169.2839, 25.09221
169.7660, 25.81710
170.2481, 26.40474
170.7302, 26.65812
171.2123, 26.19497
171.6945, 24.97293
172.1766, 23.04647
172.6587, 20.65033
173.1408, 17.93284
173.6229, 15.24581
174.1050, 12.82966
174.5872, 10.63770
175.0693, 8.693298
175.5514, 7.048441
176.0335, 5.655317
176.5156, 4.427618
176.9977, 3.337168
177.4799, 2.429241
177.9620, 1.788845
178.4441, 1.348217
178.9262, 0.9891000
179.4083, 0.6601810
179.8904, 0.3597830
180.3726, 9.6046001E-02
180.8547, 0.1440750
181.3368, 0.3227500
181.8189, 0.4152570
182.3010, 0.4355430
182.7831, 0.4191970
183.2653, 0.3931100
183.7474, 0.3581330
184.2295, 0.3005120
184.7116, 0.2112620
185.1937, 0.1042460
185.6758, 3.4552000E-02
186.1580, 0.1928310
186.6401, 0.3354680
187.1222, 0.4155200
187.6043, 0.4003390
188.0864, 0.4680690
188.5685, 0.7332760
189.0507, 0.9742260
189.5328, 1.091236
190.0149, 1.072565
190.4970, 0.9538920
190.9791, 0.7653750
191.4612, 0.4712960
191.9434, 0.2213630
192.4255, 1.6136000E-02
192.9076, 0.1516970
193.3897, 0.2741410
193.8718, 0.3538990
194.3539, 0.4145640
194.8361, 0.4754490
195.3182, 0.5047280
195.8003, 0.6513580
196.2824, 1.098433
196.7645, 1.569029
197.2466, 1.786303
197.7288, 1.685892
198.2109, 1.417915
198.6930, 1.114691
199.1751, 0.7329830
199.6572, 0.5985580
200.1393, 0.8564740
200.6215, 1.304457
201.1036, 1.398535
201.5857, 0.9782770
202.0678, 0.3350280
202.5499, 0.2436010
203.0320, 0.7683770
203.5142, 1.137621
203.9963, 1.258224
204.4784, 1.196800
204.9605, 1.082129
205.4426, 0.8749730
205.9247, 0.7378040
206.4069, 0.8322430
206.8890, 1.133869
207.3711, 1.515955
207.8532, 1.966446
208.3353, 2.460390
208.8174, 2.865047
209.2996, 3.159868
209.7817, 3.349331
210.2638, 3.342213
210.7459, 3.193659
211.2280, 3.195807
211.7101, 3.687328
212.1923, 4.648869
212.6744, 5.366152
213.1565, 5.489983
213.6386, 5.618687
214.1207, 6.105465
214.6028, 6.901005
215.0850, 7.725880
215.5671, 8.265621
216.0492, 8.463951
216.5313, 8.855770
217.0134, 9.744509
217.4955, 10.59368
217.9777, 11.19105
218.4598, 11.54241
218.9419, 11.77092
219.4240, 11.90493
219.9061, 11.81532
220.3882, 12.30872
220.8704, 14.12282
221.3525, 15.86225
221.8346, 16.76779
222.3167, 16.93227
222.7988, 17.01730
223.2809, 17.73593
223.7631, 19.27842
224.2452, 20.68295
224.7273, 21.66236
225.2094, 22.76315
225.6915, 24.38512
226.1736, 26.45911
226.6558, 28.55576
227.1379, 30.21744
227.6200, 31.31606
228.1021, 32.48460
228.5842, 33.77878
229.0663, 35.08195
229.5485, 36.28102
230.0306, 37.38882
230.5127, 38.52698
230.9948, 39.79739
231.4769, 41.21727
231.9590, 42.78901
232.4412, 44.66615
232.9233, 46.54742
233.4054, 48.22854
233.8875, 49.70330
234.3696, 51.16142
234.8517, 52.80106
235.3339, 54.65441
235.8160, 56.18512
236.2981, 57.06746
236.7802, 57.87173
237.2623, 59.12267
237.7444, 60.81453
238.2266, 62.39455
238.7087, 63.31244
239.1908, 63.58487
239.6729, 64.14941
240.1550, 65.17976
240.6371, 66.42134
241.1193, 67.71587
241.6014, 69.05676
242.0835, 70.34860
242.5656, 71.58319
243.0477, 72.70798
243.5298, 73.57841
244.0120, 74.18456
244.4941, 74.52116
244.9762, 74.47321
245.4583, 74.01814
245.9404, 73.57549
246.4225, 73.48079
246.9047, 73.58120
247.3868, 73.55651
247.8689, 73.43850
248.3510, 73.10448
248.8331, 72.39866
249.3152, 71.29857
249.7974, 69.97604
250.2795, 68.31946
250.7616, 66.54629
251.2437, 65.01042
251.7258, 63.88939
252.2079, 62.86147
252.6901, 61.55274
253.1722, 59.95174
253.6543, 58.21712
254.1364, 56.29180
254.6185, 54.31060
255.1006, 52.41612
255.5828, 50.67212
256.0649, 49.02779
256.5470, 47.29765
257.0291, 45.38750
257.5112, 44.00346
257.9933, 44.08932
258.4755, 44.39427
258.9576, 43.95184
259.4397, 42.53424
259.9218, 40.83824
260.4039, 39.65920
260.8860, 39.05862
261.3682, 38.47812
261.8503, 37.86925
262.3324, 37.17535
262.8145, 36.29412
263.2966, 35.21491
263.7787, 34.13081
264.2609, 33.31740
264.7430, 32.85978
265.2251, 32.20466
265.7072, 31.06325
266.1893, 29.84968
266.6714, 28.76966
267.1536, 27.83904
267.6357, 26.94847
268.1178, 25.94926
268.5999, 24.80426
269.0820, 23.78236
269.5641, 23.05923
270.0463, 22.34021
270.5284, 21.43264
271.0105, 20.37809
271.4926, 19.39906
271.9747, 18.70558
272.4568, 18.31318
272.9390, 18.05732
273.4211, 18.16401
273.9032, 18.21282
274.3853, 18.02853
274.8674, 17.65185
275.3495, 17.22681
275.8317, 16.85468
276.3138, 16.53632
276.7959, 16.29024
277.2780, 16.23515
277.7601, 16.14302
278.2422, 15.94762
278.7244, 15.66971
279.2065, 15.36032
279.6886, 15.05515
280.1707, 14.75082
280.6528, 14.41907
281.1349, 14.32901
281.6171, 13.89550
282.0992, 12.66730
282.5813, 11.09148
283.0634, 9.857021
283.5455, 9.398968
284.0276, 9.498966
284.5098, 9.156200
284.9919, 7.836426
285.4740, 6.701786
285.9561, 5.995583
286.4382, 5.514751
286.9203, 5.007710
287.4025, 4.361629
287.8846, 3.655186
288.3667, 3.105972
288.8488, 2.867252
289.3309, 2.578869
289.8130, 2.187565
290.2952, 1.757347
290.7773, 1.292377
291.2594, 0.8106190
291.7415, 0.4157830
292.2236, 0.3254200
292.7057, 0.8761900
293.1879, 1.169132
293.6700, 1.128704
294.1521, 0.9170380
294.6342, 0.5614970
295.1163, 0.1115680
295.5984, 0.2675900
296.0806, 0.3353880
296.5627, 6.9916002E-02
297.0448, 0.3274920
297.5269, 0.2965700
298.0090, 0.2586590
298.4911, 0.4258690
298.9733, 0.7754820
299.4554, 1.107433
299.9375, 1.215054
300.4196, 1.058022
300.9017, 0.9378510
301.3839, 0.9455260
301.8660, 0.8972240
302.3481, 0.5710180
302.8302, 0.1008450
303.3123, 0.1401210
303.7944, 0.1646920
304.2766, 0.9925880
304.7587, 1.544598
305.2408, 1.500973
305.7229, 1.549881
306.2050, 2.053097
306.6871, 2.753906
307.1693, 3.153812
307.6514, 2.947342
308.1335, 2.303715
308.6156, 1.996780
309.0977, 2.209236
309.5798, 2.567150
310.0620, 3.269497
310.5441, 4.020866
311.0262, 4.393116
311.5083, 4.218967
311.9904, 3.786087
312.4725, 3.731182
312.9547, 4.416195
313.4368, 5.015450
313.9189, 5.452160
314.4010, 5.852024
314.8831, 6.325512
315.3652, 6.897137
315.8474, 7.530148
316.3295, 8.186775
316.8116, 8.961163
317.2937, 9.489319
317.7758, 9.541569
318.2579, 9.564072
318.7401, 9.838276
319.2222, 10.37273
319.7043, 11.01906
320.1864, 11.66653
320.6685, 12.35367
321.1506, 12.69834
321.6328, 12.25390
322.1149, 11.96239
322.5970, 12.23156
323.0791, 12.96683
323.5612, 13.89518
324.0433, 14.86331
324.5255, 15.84863
325.0076, 16.60320
325.4897, 16.96114
325.9718, 17.27758
326.4539, 17.60275
326.9360, 17.93121
327.4182, 18.23947
327.9003, 18.51649
328.3824, 18.78613
328.8645, 19.11804
329.3466, 19.59024
329.8287, 20.02483
330.3109, 20.50023
330.7930, 20.89232
331.2751, 21.05514
331.7572, 20.95912
332.2393, 20.72605
332.7214, 20.53653
333.2036, 20.39647
333.6857, 20.29236
334.1678, 20.24556
334.6499, 20.21135
335.1320, 20.21191
335.6141, 20.21677
336.0963, 20.13177
336.5784, 19.86585
337.0605, 19.43056
337.5426, 18.90493
338.0247, 18.04166
338.5068, 17.29930
338.9890, 17.02719
339.4711, 16.99740
339.9532, 16.71644
340.4353, 15.82382
340.9174, 14.44859
341.3995, 13.33585
341.8817, 12.63216
342.3638, 12.02275
342.8459, 11.53921
343.3280, 11.10082
343.8101, 10.58813
344.2922, 9.937487
344.7744, 9.215240
345.2565, 8.629456
345.7386, 8.373451
346.2207, 7.972826
346.7028, 7.179020
347.1849, 6.356127
347.6671, 5.815956
348.1492, 5.575123
348.6313, 5.395267
349.1134, 4.987335
349.5955, 4.305952
350.0776, 3.749466
350.5598, 3.219400
351.0419, 2.873636
351.5240, 2.972330
352.0061, 3.352476
352.4882, 3.528397
352.9703, 3.004297
353.4525, 1.894781
353.9346, 1.436909
354.4167, 2.180962
354.8988, 2.879461
355.3809, 3.217958
355.8630, 3.282484
356.3452, 3.145123
356.8273, 2.800097
357.3094, 2.414165
357.7915, 2.387846
358.2736, 2.871622
358.7557, 3.328579
359.2379, 3.623663
359.7200, 3.854729
360.2021, 4.099783
360.6842, 4.374731
361.1663, 4.628531
361.6484, 4.788130
362.1306, 4.839964
362.6127, 4.945122
363.0948, 5.168316
363.5769, 5.405785
364.0590, 5.619240
364.5411, 5.800884
365.0233, 5.932365
365.5054, 5.858620
365.9875, 5.698683
366.4696, 6.054029
366.9517, 7.243563
367.4338, 8.327457
367.9160, 8.758446
368.3981, 8.803141
368.8802, 8.832268
369.3623, 8.964069
369.8444, 9.154886
370.3265, 9.402607
370.8087, 9.737135
371.2908, 9.856655
371.7729, 9.359013
372.2550, 8.780762
372.7371, 8.814772
373.2192, 9.631615
373.7014, 10.30629
374.1835, 9.897404
374.6656, 8.687859
375.1477, 8.005325
375.6298, 8.287724
376.1119, 8.870394
376.5941, 9.172314
377.0762, 9.224224
377.5583, 9.132191
378.0404, 8.825657
378.5225, 8.441036
379.0046, 8.205730
379.4868, 8.148281
379.9689, 8.069309
380.4510, 7.815416
380.9331, 7.433361
381.4152, 7.080690
381.8973, 6.809523
382.3795, 6.526798
382.8616, 6.131340
383.3437, 5.659388
383.8258, 5.253046
384.3079, 4.960979
384.7900, 4.774681
385.2722, 4.688812
385.7543, 4.707272
386.2364, 4.770367
386.7185, 5.028986
387.2006, 5.256159
387.6827, 5.100996
388.1649, 4.491577
388.6470, 3.733341
389.1291, 3.134201
389.6112, 2.723038
390.0933, 2.260448
390.5754, 1.589190
391.0576, 1.004095
391.5397, 0.7154480
392.0218, 0.6776830
392.5039, 0.7293510
392.9860, 0.7970960
393.4681, 0.8473590
393.9503, 0.7099210
394.4324, 0.1536940
394.9145, 0.2884200
395.3966, 0.4831070
395.8787, 0.5471880
396.3608, 0.5962910
396.8430, 0.6715550
397.3251, 0.7858010
397.8072, 0.9689450
398.2893, 1.286324
398.7714, 1.491507
399.2535, 1.513365
399.7357, 1.503660
400.2178, 1.585197
400.6999, 1.722254
401.1820, 1.760204
401.6641, 1.549929
402.1462, 1.127256
402.6284, 0.9552000
403.1105, 1.379715
403.5926, 1.650221
404.0747, 1.626860
404.5568, 1.385969
405.0389, 0.9509540
405.5211, 0.3340110
406.0032, 0.2768940
406.4853, 0.5000320
406.9674, 0.1612760
407.4495, 2.5679000E-02
407.9316, 3.8191002E-02
408.4138, 0.1560290
408.8959, 0.7772540
409.3780, 1.708187
409.8601, 2.437185
410.3422, 2.406618
410.8243, 1.741959
411.3065, 1.499920
411.7886, 1.925926
412.2707, 2.366076
412.7528, 2.389944
413.2349, 2.281633
413.7170, 2.500883
414.1992, 3.319775
414.6813, 4.264685
415.1634, 4.627499
415.6455, 4.372341
416.1276, 4.238617
416.6097, 4.512953
417.0919, 4.941931
417.5740, 5.215977
418.0561, 5.325340
418.5382, 5.557470
419.0203, 6.288738
419.5024, 7.216730
419.9846, 7.633865
420.4667, 7.394817
420.9488, 6.963963
421.4309, 6.559162
421.9130, 6.250549
422.3951, 6.290442
422.8773, 7.070599
423.3594, 7.890114
423.8415, 8.137678
424.3236, 7.979630
424.8057, 8.110651
425.2878, 8.921583
425.7700, 10.00373
426.2521, 10.42189
426.7342, 9.915483
427.2163, 9.610704
427.6984, 9.913944
428.1805, 10.38773
428.6627, 10.50161
429.1448, 10.21501
429.6269, 9.995565
430.1090, 10.33679
430.5911, 11.29457
431.0732, 11.68601
431.5554, 11.14121
432.0375, 10.56044
432.5196, 10.21365
433.0017, 10.04626
433.4838, 9.926319
433.9659, 9.792679
434.4481, 9.699308
434.9302, 9.775784
435.4123, 10.14298
435.8944, 10.46568
436.3765, 10.87532
436.8586, 11.13855
437.3408, 11.01733
437.8229, 10.56430
438.3050, 10.07086
438.7871, 9.792246
439.2692, 9.714844
439.7513, 9.588686
440.2335, 9.323483
440.7156, 9.142595
441.1977, 9.271355
441.6798, 9.452572
442.1619, 9.326839
442.6440, 8.743029
443.1262, 7.994995
443.6083, 7.497246
444.0904, 7.275547
444.5725, 6.965605
445.0546, 6.313538
445.5367, 5.756893
446.0189, 5.742325
446.5010, 6.166586
446.9831, 6.437407
447.4652, 6.066927
447.9473, 5.398067
448.4294, 5.079067
448.9116, 5.152346
449.3937, 5.354071
449.8758, 5.662872
450.3579, 5.949518
450.8400, 5.905087
451.3221, 5.256517
451.8043, 4.807587
452.2864, 5.246552
452.7685, 6.132252
453.2506, 6.465355
453.7327, 5.948433
454.2148, 5.229155
454.6970, 5.096451
455.1791, 5.685696
455.6612, 5.961769
456.1433, 5.664770
456.6254, 5.265171
457.1075, 4.975220
457.5897, 4.827747
458.0718, 4.858410
458.5539, 5.104116
459.0360, 5.489954
459.5181, 5.780897
460.0002, 5.950790
460.4824, 6.065681
460.9645, 6.065008
461.4466, 6.000353
461.9287, 5.937159
462.4108, 5.886053
462.8929, 5.797029
463.3751, 5.587589
463.8572, 5.253187
464.3393, 5.143223
464.8214, 5.473022
465.3035, 5.712849
465.7856, 5.636806
466.2678, 5.449530
466.7499, 5.401585
467.2320, 5.562647
467.7141, 5.902187
468.1962, 6.446533
468.6783, 7.212049
469.1605, 7.758804
469.6426, 7.842642
470.1247, 7.863552
470.6068, 8.108171
471.0889, 8.542963
471.5710, 8.997314
472.0532, 9.286026
472.5353, 9.592440
473.0174, 10.28670
473.4995, 11.38953
473.9816, 12.41148
474.4637, 13.05820
474.9459, 13.50600
475.4280, 14.10048
475.9101, 14.82751
476.3922, 15.77050
476.8743, 17.12828
477.3564, 18.66129
477.8386, 19.91397
478.3207, 20.83287
478.8028, 21.92661
479.2849, 23.71179
479.7670, 26.20129
480.2491, 28.39487
480.7313, 29.80311
481.2134, 31.51712
481.6955, 33.91480
482.1776, 36.85307
482.6597, 40.17668
483.1418, 43.80031
483.6240, 47.57999
484.1061, 51.20676
484.5882, 54.57218
485.0703, 58.09402
485.5524, 61.98726
486.0345, 65.82919
486.5167, 69.33436
486.9988, 72.61139
487.4809, 75.94789
487.9630, 79.56005
488.4451, 83.24277
488.9272, 86.45403
489.4094, 88.95477
489.8915, 91.71809
490.3736, 95.46496
490.8557, 99.24999
491.3378, 102.3663
491.8199, 104.7780
492.3021, 107.1628
492.7842, 109.9922
493.2663, 113.1021
493.7484, 116.1362
494.2305, 119.1271
494.7126, 121.8976
495.1948, 124.3062
495.6769, 126.4169
496.1590, 128.4646
496.6411, 130.6523
497.1232, 132.4266
497.6053, 133.5647
498.0875, 134.1061
498.5696, 134.1234
499.0517, 133.6355
499.5338, 132.5958
500.0159, 130.9434
500.4980, 128.6555
500.9802, 125.8665
501.4623, 122.4603
501.9444, 118.7377
502.4265, 114.8162
502.9086, 110.6408
503.3907, 106.0994
503.8729, 101.1380
504.3550, 95.81927
504.8371, 90.24268
505.3192, 84.24011
505.8013, 78.37823
506.2834, 72.45437
506.7656, 66.85584
507.2477, 61.87532
507.7298, 57.37895
508.2119, 53.02004
508.6940, 48.55991
509.1761, 44.22283
509.6583, 40.49109
510.1404, 37.45513
510.6225, 34.55012
511.1046, 31.64330
511.5867, 28.82287
512.0688, 26.09872
512.5510, 23.49614
513.0331, 21.13859
513.5152, 19.04882
513.9973, 17.26443
514.4794, 16.02933
514.9615, 15.32238
515.4437, 14.43024
515.9258, 12.85513
516.4079, 10.88510
516.8900, 9.423893
517.3721, 8.687174
517.8542, 7.908947
518.3364, 6.883995
518.8185, 5.760490
519.3006, 4.596790
519.7827, 3.454172
520.2648, 2.531746
520.7469, 2.030167
521.2291, 1.920307
521.7112, 1.766556
522.1933, 1.453405
522.6754, 1.239841
523.1575, 1.384735
523.6396, 1.519733
524.1218, 1.175356
524.6039, 0.2981510
525.0860, 0.6181490
525.5681, 1.056686
526.0502, 1.022165
526.5323, 0.8773160
527.0145, 0.5218560
527.4966, 0.2322880
527.9787, 0.1625020
528.4608, 0.2245450
528.9429, 0.3039340
529.4250, 0.3736150
529.9072, 0.4571950
530.3893, 0.6361710
530.8714, 0.8509620
531.3535, 0.8991150
531.8356, 0.7316460
532.3177, 0.4301610
532.7999, 6.9960002E-03
533.2820, 0.5572070
533.7641, 0.8573530
534.2462, 0.6377110
534.7283, 0.4450890
535.2104, 0.5483590
535.6926, 0.8442840
536.1747, 1.145420
536.6568, 1.388504
537.1389, 1.775269
537.6210, 2.017838
538.1031, 2.555313
538.5853, 3.018478
539.0674, 3.466988
539.5495, 3.788622
540.0316, 3.827419
540.5137, 3.736511
540.9958, 3.786804
541.4780, 4.095263
541.9601, 4.529814
542.4422, 4.861746
542.9243, 5.076895
543.4064, 5.401003
543.8885, 5.836081
544.3707, 6.391651
544.8528, 7.178318
545.3349, 8.069469
545.8170, 8.735752
546.2991, 8.850451
546.7813, 8.982052
547.2634, 9.722721
547.7455, 10.95666
548.2276, 12.21263
548.7097, 13.32883
549.1918, 14.45075
549.6740, 15.74894
550.1561, 17.24088
550.6382, 18.91284
551.1203, 20.95720
551.6024, 23.01959
552.0845, 24.80246
552.5667, 26.43804
553.0488, 28.25838
553.5309, 30.40610
554.0130, 32.78578
554.4951, 35.27040
554.9772, 38.00138
555.4594, 40.40309
555.9415, 42.05620
556.4236, 43.74411
556.9057, 45.86285
557.3878, 48.21089
557.8699, 50.39070
558.3521, 52.22765
558.8342, 53.86471
559.3163, 55.46868
559.7984, 57.01934
560.2805, 58.70563
560.7626, 60.65920
561.2448, 62.58728
561.7269, 64.12045
562.2090, 65.35266
562.6911, 66.74988
563.1732, 68.63338
563.6553, 70.47823
564.1375, 71.93356
564.6196, 73.09865
565.1017, 74.31371
565.5838, 75.69627
566.0659, 76.83357
566.5480, 77.10092
567.0302, 76.31964
567.5123, 75.43320
567.9944, 74.62933
568.4765, 73.53155
568.9586, 72.07198
569.4407, 70.20536
569.9229, 67.89611
570.4050, 65.12478
570.8871, 61.94328
571.3692, 58.33449
571.8513, 54.28915
572.3334, 50.30422
572.8156, 46.28636
573.2977, 42.59157
573.7798, 39.57140
574.2619, 36.96392
574.7440, 34.23230
575.2261, 31.14162
575.7083, 28.13464
576.1904, 25.50436
576.6725, 23.21868
577.1546, 21.20796
577.6367, 19.46881
578.1188, 17.90662
578.6010, 16.45012
579.0831, 15.10337
579.5652, 13.78157
580.0473, 12.33835
580.5294, 11.09137
581.0115, 10.22434
581.4937, 9.553839
581.9758, 8.883587
582.4579, 8.162706
582.9400, 7.429094
583.4221, 6.716454
583.9042, 6.050171
584.3864, 5.553415
584.8685, 5.387054
585.3506, 5.111511
585.8327, 4.406733
586.3148, 3.604172
586.7969, 3.035906
587.2791, 2.755821
587.7612, 2.636372
588.2433, 2.735949
588.7254, 2.888086
589.2075, 2.745838
589.6896, 2.292887
590.1718, 1.766541
590.6539, 1.245470
591.1360, 0.7867340
591.6181, 0.6235900
592.1002, 0.9706570
592.5823, 1.145433
593.0645, 0.9456410
593.5466, 0.6294520
594.0287, 0.3376370
594.5108, 0.1184940
594.9929, 4.7031000E-02
595.4750, 0.1977600
595.9572, 0.4524560
596.4393, 0.4165460
596.9214, 7.7238001E-02
597.4035, 0.3964000
597.8856, 0.3461720
598.3677, 0.1788640
598.8499, 7.2906002E-02
599.3320, 0.3400750
599.8141, 0.4181040
600.2962, 0.1025790
600.7783, 0.3241620
601.2604, 0.5438540
601.7426, 0.5695630
602.2247, 0.4563850
602.7068, 0.1820070
603.1889, 0.1020910
603.6710, 0.2111870
604.1531, 0.1203380
604.6353, 4.0633999E-02
605.1174, 5.5215999E-02
605.5995, 0.1135410
606.0816, 8.3306998E-02
606.5637, 1.0765000E-02
607.0458, 5.1192999E-02
607.5280, 8.3130002E-02
608.0101, 6.0332999E-02
608.4922, 8.6630002E-02
608.9743, 0.3672330
609.4564, 0.4205820
609.9385, 9.6726999E-02
610.4207, 0.2032300
610.9028, 0.3705830
611.3849, 0.4249950
611.8670, 0.3156300
612.3491, 1.3733000E-02
612.8312, 0.1448620
613.3134, 0.2779600
613.7955, 0.9175120
614.2776, 1.043970
614.7597, 0.6166520
615.2418, 0.1287180
615.7239, 0.1689490
616.2061, 0.2800170
616.6882, 0.1989190
617.1703, 0.2302030
617.6524, 0.4746480
618.1345, 0.3732250
618.6166, 0.2426220
619.0988, 0.3337710
619.5809, 0.5829690
620.0630, 0.7795750
620.5451, 0.8037010
621.0272, 0.6963330
621.5093, 0.4899660
621.9915, 0.1432740
622.4736, 3.2761000E-02
622.9557, 0.3577320
623.4378, 0.7296980
623.9199, 0.8884240
624.4020, 0.8943860
624.8842, 0.8857390
625.3663, 0.8475890
625.8484, 0.8818580
626.3305, 1.198103
626.8126, 1.611430
627.2947, 1.681514
627.7769, 1.329337
628.2590, 0.9392240
628.7411, 0.8964940
629.2232, 1.169575
629.7053, 1.310505
630.1874, 1.082261
630.6696, 1.024240
631.1517, 1.401668
631.6338, 1.815266
632.1159, 1.928867
632.5980, 1.734797
633.0801, 1.419824
633.5623, 1.030979
634.0444, 0.6625650
634.5265, 0.6421900
635.0086, 1.010353
635.4907, 1.199483
635.9728, 0.9120450
636.4550, 0.5533200
636.9371, 0.7029320
637.4192, 1.304772
637.9013, 1.699617
638.3834, 1.614560
638.8655, 1.475189
639.3477, 1.531579
639.8298, 1.699697
640.3119, 1.855495
640.7940, 1.952839
641.2761, 1.949965
641.7582, 1.772218
642.2404, 1.404103
642.7225, 1.168199
643.2046, 1.118751
643.6867, 1.148785
644.1688, 1.279671
644.6509, 1.407616
645.1331, 1.461257
645.6152, 1.432458
646.0973, 1.357512
646.5794, 1.104874
647.0615, 0.8886430
647.5436, 1.214458
648.0258, 2.010909
648.5079, 2.499060
648.9900, 2.308555
649.4721, 1.772253
649.9542, 1.418986
650.4363, 1.299872
650.9185, 1.200754
651.4006, 1.031203
651.8827, 0.9582970
652.3648, 1.166800
652.8469, 1.490389
653.3290, 1.674305
653.8112, 1.608460
654.2933, 1.457807
654.7754, 1.413594
655.2575, 1.451014
655.7396, 1.440829
656.2217, 1.379969
656.7039, 1.283210
657.1860, 1.070991
657.6681, 0.8635970
658.1502, 0.8598200
658.6323, 1.070466
659.1144, 1.286758
659.5966, 1.600390
660.0787, 1.797729
660.5608, 1.571978
661.0429, 1.077351
661.5250, 0.7461460
662.0071, 0.7602670
662.4893, 0.9532210
662.9714, 1.039707
663.4535, 0.9836060
663.9356, 1.046342
664.4177, 1.436968
664.8998, 1.671476
665.3820, 1.482580
665.8641, 1.084046
666.3462, 0.7112310
666.8283, 0.3935020
667.3104, 0.2215450
667.7925, 0.3688820
668.2747, 0.6562220
668.7568, 0.7978690
669.2389, 0.7851720
669.7210, 0.7434620
670.2031, 0.7310590
670.6852, 0.7132370
671.1674, 0.6399820
671.6495, 0.4304490
672.1316, 0.3256730
672.6137, 0.4933960
673.0958, 0.5749590
673.5779, 0.2282350
674.0601, 0.2457170
674.5422, 0.3248260
675.0243, 0.1781980
675.5064, 0.7263570
675.9885, 0.7194500
676.4706, 0.3052830
676.9528, 4.3354999E-02
677.4349, 3.1075999E-02
677.9170, 3.1257998E-02
678.3991, 0.2547020
678.8812, 0.5436190
679.3633, 0.6777220
679.8455, 0.5981540
680.3276, 0.5614760
680.8097, 0.6450120
681.2918, 0.7502780
681.7739, 0.8457220
682.2560, 0.9369690
682.7382, 1.015627
683.2203, 1.073132
683.7024, 1.044211
684.1845, 0.7080770
684.6666, 8.8946000E-02
685.1487, 0.1296000
685.6309, 0.1841960
686.1130, 0.5498860
686.5951, 0.7832810
687.0772, 0.9104410
687.5593, 0.9948310
688.0414, 1.060994
688.5236, 1.031218
689.0057, 0.8096500
689.4878, 0.5465780
689.9699, 0.2676140
690.4520, 5.6040999E-02
690.9341, 0.1156490
691.4163, 0.5274580
691.8984, 1.123315
692.3805, 1.718869
692.8626, 2.327560
693.3447, 2.482398
693.8268, 1.921051
694.3090, 1.405120
694.7911, 1.270123
695.2732, 1.290129
695.7553, 1.194010
696.2374, 0.9529840
696.7195, 0.8949070
697.2017, 1.504589
697.6838, 2.102055
698.1659, 1.800107
698.6480, 0.8783050
699.1301, 0.2808640
699.6122, 0.3499000
700.0944, 0.6586700
700.5765, 0.6199800
701.0586, 0.1914730
701.5407, 0.1596160
702.0228, 0.9920600
702.5049, 1.531734
702.9871, 1.260837
703.4692, 0.7626430
703.9513, 0.5453180
704.4334, 0.6537360
704.9155, 0.8700060
705.3976, 1.198174
705.8798, 1.490812
706.3619, 1.577080
706.8440, 1.477769
707.3261, 1.199991
707.8082, 0.7302600
708.2903, 0.3666710
708.7725, 0.4985350
709.2546, 1.115232
709.7367, 1.277675
710.2188, 0.4282480
710.7009, 0.1026270
711.1830, 0.1151490
711.6652, 0.5167140
712.1473, 0.6368460
712.6294, 0.4959190
713.1115, 0.4166640
713.5936, 0.6280860
714.0757, 0.8985390
714.5579, 0.8895540
715.0400, 0.6982770
715.5221, 0.7202640
716.0042, 1.057983
716.4863, 1.418777
716.9684, 1.571248
717.4506, 1.495678
717.9327, 1.269128
718.4148, 0.5906100
718.8969, 0.2420640
719.3790, 0.5140050
719.8611, 0.8968340
720.3433, 1.112445
720.8254, 1.161757
721.3075, 1.136077
721.7896, 1.100389
722.2717, 1.059314
722.7538, 1.034151
723.2360, 1.000265
723.7181, 0.8484610
724.2002, 0.5611310
724.6823, 0.3103640
725.1644, 0.2008480
725.6465, 0.2082780
726.1287, 0.2610280
726.6108, 0.3767820
727.0929, 0.4972720
727.5750, 0.6770830
728.0571, 0.8068230
728.5392, 0.8265110
729.0214, 0.7756800
729.5035, 0.6759500
729.9856, 0.5245180
730.4677, 0.4596830
730.9498, 0.7626510
731.4319, 1.217580
731.9141, 1.251847
732.3962, 0.8729970
732.8783, 0.5445380
733.3604, 0.4449460
733.8425, 0.4457110
734.3246, 0.3753600
734.8068, 0.2037350
735.2889, 0.1280610
735.7710, 0.2506890
736.2531, 0.3609720
736.7352, 0.3675200
737.2173, 0.3265110
737.6995, 0.3461240
738.1816, 0.4275930
738.6637, 0.4314140
739.1458, 0.1191580
739.6279, 0.2403060
740.1100, 0.1002010
740.5922, 0.4316380
741.0743, 0.7207160
741.5564, 0.5662530
742.0385, 0.2596720
742.5206, 7.7578999E-02
743.0027, 1.4806000E-02
743.4849, 6.5139998E-03
743.9670, 9.8531000E-02
744.4491, 8.0300001E-03
744.9312, 0.5341820
745.4133, 1.055891
745.8954, 1.177034
746.3776, 0.9711160
746.8597, 0.7537170
747.3418, 0.6726120
747.8239, 0.5976490
748.3060, 0.3646470
748.7881, 4.9454998E-02
749.2703, 0.2111010
749.7524, 0.3942620
750.2345, 0.3686370
750.7166, 8.3659999E-03
751.1987, 0.5374150
751.6808, 0.8627420
752.1630, 0.8695980
752.6451, 0.8759030
753.1272, 0.9408470
753.6093, 0.9414780
754.0914, 0.7065100
754.5735, 0.4290370
755.0557, 0.4510630
755.5378, 0.8605380
756.0199, 1.179659
756.5020, 0.9917030
756.9841, 0.6061190
757.4662, 0.4254970
757.9484, 0.4356160
758.4305, 0.5024680
758.9126, 0.5715740
759.3947, 0.6175060
759.8768, 0.6021460
760.3589, 0.5128120
760.8411, 0.5011100
761.3232, 0.6288320
761.8053, 0.7160170
762.2874, 0.6808270
762.7695, 0.6272340
763.2516, 0.6524520
763.7338, 0.7363820
764.2159, 0.7580620
764.6980, 0.6302020
765.1801, 0.4893750
765.6622, 0.3947320
766.1443, 0.3532930
766.6265, 0.4155330
767.1086, 0.5695100
767.5907, 0.7173340
768.0728, 0.7901510
768.5549, 0.7861230
769.0370, 0.7711130
769.5192, 0.7533880
770.0013, 0.6243970
770.4834, 0.2553410
770.9655, 2.2304000E-02
771.4476, 8.1722997E-02
771.9297, 0.3694780
772.4119, 0.5199770
772.8940, 0.5183710
773.3761, 0.3789930
773.8582, 0.1726040
774.3403, 0.5973010
774.8224, 0.3666810
775.3046, 0.2373350
775.7867, 0.7250420
776.2688, 0.9212840
776.7509, 0.8254790
777.2330, 0.2984880
777.7151, 0.4706360
778.1973, 0.6366950
778.6794, 0.1375940
779.1615, 0.2935870
779.6436, 0.4748850
780.1257, 0.4652830
780.6078, 0.2574220
781.0900, 0.1326430
781.5721, 0.3431430
782.0542, 0.4022880
782.5363, 0.2616280
783.0184, 0.3516420
783.5005, 0.9573310
783.9827, 1.211518
784.4648, 1.123710
784.9469, 0.7926350
785.4290, 0.2153440
785.9111, 0.3449040
786.3932, 0.6167350
786.8754, 0.6371080
787.3575, 0.4343410
787.8396, 2.7262000E-02
788.3217, 0.3121160
788.8038, 0.4556540
789.2859, 0.4200040
789.7681, 0.1995220
790.2502, 0.2925110
790.7323, 0.5230130
791.2144, 0.2646160
791.6965, 2.7028000E-02
792.1786, 8.7278999E-02
792.6608, 0.1051400
793.1429, 6.5270001E-03
793.6250, 0.2058890
794.1071, 0.2606600
794.5892, 5.9388001E-02
795.0714, 0.4219940
795.5535, 0.5127070
796.0356, 0.4788480
796.5177, 0.6582170
796.9998, 1.043634
797.4819, 1.210157
797.9641, 0.8548070
798.4462, 0.2710090
798.9283, 0.2367150
799.4104, 0.8704480
799.8925, 1.207420
800.3746, 1.086163
800.8568, 0.8173690
801.3389, 0.4693110
801.8210, 0.1237280
802.3031, 6.8383999E-02
802.7852, 0.1068760
803.2673, 3.5546999E-02
803.7495, 0.6644500
804.2316, 1.161259
804.7137, 1.056831
805.1958, 0.6517520
805.6779, 0.3728680
806.1600, 0.3163870
806.6422, 0.3303790
807.1243, 0.2594740
807.6064, 0.2104840
808.0885, 0.5102100
808.5706, 1.112562
809.0527, 1.416735
809.5349, 1.261753
810.0170, 0.9997290
810.4991, 0.8634990
810.9812, 0.8730240
811.4633, 1.130800
811.9454, 1.998798
812.4276, 2.442923
812.9097, 2.090752
813.3918, 1.723814
813.8739, 1.764997
814.3560, 1.974979
814.8381, 1.949471
815.3203, 1.597876
815.8024, 1.262133
816.2845, 1.001438
816.7666, 0.9421060
817.2487, 1.416588
817.7308, 2.156425
818.2130, 2.494741
818.6951, 2.285912
819.1772, 1.980459
819.6593, 2.002176
820.1414, 2.248432
820.6235, 2.283936
821.1057, 2.043310
821.5878, 2.116787
822.0699, 2.773737
822.5520, 3.403961
823.0341, 3.592482
823.5162, 3.421696
823.9984, 3.129192
824.4805, 2.511099
824.9626, 2.255959
825.4447, 2.832964
825.9268, 3.379791
826.4089, 3.270082
826.8911, 2.889212
827.3732, 2.914164
827.8553, 3.468983
828.3374, 3.987455
828.8195, 3.873083
829.3016, 3.579123
829.7838, 3.952349
830.2659, 4.742096
830.7480, 4.970837
831.2301, 4.419750
831.7122, 3.772909
832.1943, 3.586115
832.6765, 3.782722
833.1586, 3.990950
833.6407, 4.221939
834.1228, 4.346552
834.6049, 4.302448
835.0870, 4.225924
835.5692, 4.198990
836.0513, 4.165121
836.5334, 4.038822
837.0155, 3.776403
837.4976, 3.523170
837.9797, 3.282398
838.4619, 3.097506
838.9440, 3.038448
839.4261, 3.018852
839.9082, 2.922709
840.3903, 2.748226
840.8724, 2.581888
841.3546, 2.453400
841.8367, 2.390194
842.3188, 2.509504
842.8009, 2.747648
843.2830, 2.765331
843.7651, 2.499023
844.2473, 2.243799
844.7294, 2.200060
845.2115, 2.288445
845.6936, 2.313316
846.1757, 2.234383
846.6578, 2.179293
847.1400, 2.045961
847.6221, 2.089813
848.1042, 2.540598
848.5863, 3.087784
849.0684, 3.438009
849.5505, 3.590334
850.0327, 3.766356
850.5148, 4.158361
850.9969, 4.425642
851.4790, 4.190702
851.9611, 3.887823
852.4432, 4.039574
852.9254, 4.593325
853.4075, 5.209887
853.8896, 5.729836
854.3717, 6.143980
854.8538, 6.377893
855.3359, 6.502153
855.8181, 6.786139
856.3002, 7.234543
856.7823, 7.594542
857.2644, 7.713802
857.7465, 8.004894
858.2286, 9.083479
858.7108, 10.91476
859.1929, 12.03497
859.6750, 12.00260
860.1571, 12.12186
860.6392, 12.57641
861.1213, 13.26789
861.6035, 14.25689
862.0856, 15.41296
862.5677, 16.40825
863.0498, 17.07794
863.5319, 17.93930
864.0140, 19.44342
864.4962, 20.93249
864.9783, 21.80926
865.4604, 22.36258
865.9425, 23.11838
866.4246, 24.21190
866.9067, 25.51112
867.3889, 27.00461
867.8710, 28.51836
868.3531, 29.65248
868.8352, 30.49869
869.3173, 31.48604
869.7994, 32.69402
870.2816, 33.94608
870.7637, 35.14203
871.2458, 36.22842
871.7279, 37.04397
872.2100, 37.50656
872.6921, 38.05752
873.1743, 38.75755
873.6564, 39.43428
874.1385, 40.13187
874.6206, 40.69038
875.1027, 40.81667
875.5848, 40.53856
876.0670, 40.49935
876.5491, 41.11261
877.0312, 41.54706
877.5133, 41.56097
877.9954, 41.26558
878.4775, 40.63456
878.9597, 39.79822
879.4418, 39.05287
879.9239, 38.53586
880.4060, 37.92046
880.8881, 36.86546
881.3702, 35.56064
881.8524, 34.34160
882.3345, 33.15512
882.8166, 31.70424
883.2987, 29.91226
883.7808, 28.16842
884.2629, 26.87485
884.7451, 25.26471
885.2272, 23.82629
885.7093, 22.64396
886.1914, 21.12374
886.6735, 20.18540
887.1556, 19.25023
887.6378, 17.90638
888.1199, 16.39098
888.6020, 15.22564
889.0841, 14.51196
889.5662, 13.67778
890.0483, 12.67813
890.5305, 11.66892
891.0126, 10.58882
891.4947, 9.588007
891.9768, 8.799946
892.4589, 8.217735
892.9410, 7.750563
893.4232, 7.393246
893.9053, 7.091007
894.3874, 6.912111
894.8695, 6.696852
895.3516, 6.214903
895.8337, 5.544842
896.3159, 4.898932
896.7980, 4.356134
897.2801, 3.947536
897.7622, 3.786699
898.2443, 3.732729
898.7264, 3.334227
899.2086, 2.664816
899.6907, 2.339714
900.1728, 2.507387
900.6549, 2.748306
901.1370, 2.750263
901.6191, 2.600332
902.1013, 2.540012
902.5834, 2.551098
903.0655, 2.703779
903.5476, 3.143578
904.0297, 3.489679
904.5118, 3.551729
904.9940, 3.482882
905.4761, 3.472927
905.9582, 3.518093
906.4403, 3.515049
906.9224, 3.281660
907.4045, 3.176281
907.8867, 3.358887
908.3688, 3.686974
908.8509, 4.208628
909.3330, 4.768141
909.8151, 5.029484
910.2972, 4.894024
910.7794, 4.912952
911.2615, 5.584654
911.7436, 6.443190
912.2257, 7.021734
912.7078, 7.416784
913.1899, 7.867224
913.6721, 8.387615
914.1542, 8.793588
914.6363, 8.959013
915.1184, 9.040642
915.6005, 9.286968
916.0826, 9.681665
916.5648, 10.16444
917.0469, 10.72935
917.5290, 11.32495
918.0111, 11.95593
918.4932, 12.47872
918.9753, 12.70715
919.4575, 12.65325
919.9396, 12.49489
920.4217, 12.12656
920.9038, 11.95091
921.3859, 12.13332
921.8680, 12.37140
922.3502, 12.57950
922.8323, 12.67368
923.3144, 12.43380
923.7965, 11.74018
924.2786, 11.18545
924.7607, 10.98188
925.2429, 10.73197
925.7250, 10.24040
926.2071, 9.666759
926.6892, 9.167487
927.1713, 8.745303
927.6534, 8.325399
928.1356, 7.888376
928.6177, 7.427950
929.0998, 6.908060
929.5819, 6.388123
930.0640, 5.941337
930.5461, 5.543348
931.0283, 5.108059
931.5104, 4.620249
931.9925, 4.178932
932.4746, 3.869081
932.9567, 3.655976
933.4388, 3.518424
933.9210, 3.424216
934.4031, 3.243430
934.8852, 2.962198
935.3673, 2.649469
935.8494, 2.339161
936.3315, 2.045622
936.8137, 1.772492
937.2958, 1.523841
937.7779, 1.535842
938.2600, 1.892505
938.7421, 2.093700
939.2242, 1.991781
939.7064, 1.758976
940.1885, 1.544768
940.6706, 1.306758
941.1527, 0.8772060
941.6348, 4.9550001E-02
942.1169, 0.4903740
942.5991, 0.6317110
943.0812, 0.6123170
943.5633, 0.3507200
944.0454, 6.7254998E-02
944.5275, 1.3936000E-02
945.0096, 9.9789999E-02
945.4918, 0.2723290
945.9739, 0.6835840
946.4560, 0.8386780
946.9381, 0.3190570
947.4202, 0.2626550
947.9023, 0.4498120
948.3845, 0.3616910
948.8666, 0.2431620
949.3487, 0.1629430
949.8308, 0.1394500
950.3129, 0.2197350
950.7950, 0.3284760
951.2772, 0.4251610
951.7593, 0.4829000
952.2414, 0.4272270
952.7235, 0.2818220
953.2056, 0.1691450
953.6877, 0.1483850
954.1699, 0.1432800
954.6520, 2.7615000E-02
955.1341, 0.1372210
955.6162, 0.1607370
956.0983, 6.2867999E-02
956.5804, 4.1480999E-02
957.0626, 0.1231570
957.5447, 9.7379997E-02
958.0268, 0.1208140
958.5089, 0.4145820
958.9910, 0.5277400
959.4731, 0.4552890
959.9553, 0.2708080
960.4374, 6.8792999E-02
960.9195, 0.3114440
961.4016, 0.3621460
961.8837, 0.2946820
962.3658, 0.1601650
962.8480, 3.0719001E-02
963.3301, 0.1927980
963.8122, 0.4199450
964.2943, 0.4032670
964.7764, 0.2114090
965.2585, 0.6636960
965.7407, 0.3151980
966.2228, 0.2671810
966.7049, 0.3810410
967.1870, 1.9172000E-02
967.6691, 0.2915530
968.1512, 0.5477290
968.6334, 0.6772350
969.1155, 0.6341510
969.5976, 0.4895490
970.0797, 0.1725540
970.5618, 0.1580160
971.0439, 0.2312910
971.5261, 3.1548001E-02
972.0082, 0.2777260
972.4903, 0.3223890
972.9724, 0.3318140
973.4545, 0.3883170
973.9366, 0.4743130
974.4188, 0.5665410
974.9009, 0.6635760
975.3830, 0.7586100
975.8651, 0.8423510
976.3472, 0.9837720
976.8293, 1.309594
977.3115, 1.678549
977.7936, 1.926325
978.2757, 2.065472
978.7578, 2.088139
979.2399, 2.018176
979.7220, 1.960275
980.2042, 1.979480
980.6863, 2.026682
981.1684, 1.934302
981.6505, 1.819846
982.1326, 2.276533
982.6147, 3.203441
983.0969, 3.562954
983.5790, 3.057817
984.0611, 2.503607
984.5432, 2.614963
985.0253, 3.105921
985.5074, 3.143026
985.9896, 2.708776
986.4717, 2.602200
986.9538, 2.912390
987.4359, 3.242319
987.9180, 3.491118
988.4001, 3.551382
988.8823, 3.232986
989.3644, 2.633019
989.8465, 2.432165
990.3286, 2.831828
990.8107, 2.990170
991.2928, 2.701590
991.7750, 2.477351
992.2571, 2.609466
992.7392, 2.861914
993.2213, 2.917731
993.7034, 2.777882
994.1855, 2.687224
994.6677, 2.671418
995.1498, 2.667757
995.6319, 2.713181
996.1140, 2.726125
996.5961, 2.689600
997.0782, 2.583903
997.5604, 2.316436
998.0425, 1.878747
998.5246, 1.668836
999.0067, 1.987051
999.4888, 2.207494
999.9709, 2.129830
1000.453, 1.899518
1000.935, 1.481635
1001.417, 1.056599
1001.899, 0.9310640
1002.382, 1.151012
1002.864, 1.413556
1003.346, 1.585737
1003.828, 1.763847
1004.310, 2.157937
1004.792, 2.534426
1005.274, 2.595603
1005.756, 2.361662
1006.238, 1.940129
1006.721, 1.364661
1007.203, 0.8766080
1007.685, 0.6199670
1008.167, 0.5468040
1008.649, 0.6731890
1009.131, 0.9235270
1009.613, 1.248246
1010.095, 1.584878
1010.578, 1.794276
1011.060, 1.809370
1011.542, 1.724060
1012.024, 1.596634
1012.506, 1.457332
1012.988, 1.324235
1013.470, 1.223020
1013.952, 1.269225
1014.434, 1.423486
1014.917, 1.370398
1015.399, 0.9269850
1015.881, 0.4546310
1016.363, 0.5131640
1016.845, 0.9057730
1017.327, 1.106213
1017.809, 1.128417
1018.291, 0.9861650
1018.773, 0.6884240
1019.256, 0.4726460
1019.738, 0.4943860
1020.220, 0.6567880
1020.702, 0.9022920
1021.184, 1.164946
1021.666, 0.8331700
1022.148, 4.1464001E-02
1022.630, 0.3701730
1023.113, 8.2594998E-02
1023.595, 0.6303660
1024.077, 0.7633300
1024.559, 0.6839100
1025.041, 0.8049870
1025.523, 1.119499
1026.005, 1.359275
1026.487, 1.549540
1026.969, 1.377227
1027.452, 0.6544480
1027.934, 3.5670999E-02
1028.416, 4.5343999E-02
1028.898, 0.2408110
1029.380, 0.1881450
1029.862, 0.1270350
1030.344, 0.2150450
1030.826, 0.9674720
1031.309, 1.339269
1031.791, 0.9248500
1032.273, 0.3880410
1032.755, 0.2463140
1033.237, 0.3579720
1033.719, 0.3149510
1034.201, 2.3499999E-02
1034.683, 5.0127000E-02
1035.166, 0.6525460
1035.648, 0.9978790
1036.130, 0.7314550
1036.612, 0.3622860
1037.094, 0.2602720
1037.576, 0.3701660
1038.058, 0.5528160
1038.540, 0.8724300
1039.022, 1.043237
1039.505, 1.054749
1039.987, 0.9285350
1040.469, 0.4780400
1040.951, 8.8702001E-02
1041.433, 9.4967000E-02
1041.915, 0.3853310
1042.397, 0.6567250
1042.879, 0.9372090
1043.361, 1.106898
1043.844, 1.216105
1044.326, 1.144197
1044.808, 0.6468820
1045.290, 0.1567000
1045.772, 7.6649999E-03
1046.254, 8.3838001E-02
1046.736, 0.2765840
1047.218, 0.6328400
1047.700, 0.7984330
1048.183, 0.5398610
1048.665, 0.3469030
1049.147, 0.4163860
1049.629, 0.5460810
1050.111, 0.5874960
1050.593, 0.5924570
1051.075, 0.5999920
1051.557, 0.6011520
1052.040, 0.6058130
1052.522, 0.6524720
1053.004, 0.6519160
1053.486, 0.5100810
1053.968, 0.3683110
1054.450, 0.3820480
1054.932, 0.4710860
1055.414, 0.4147000
1055.896, 0.1486100
1056.379, 4.1166000E-02
1056.861, 0.3745090
1057.343, 0.6419990
1057.825, 0.6288400
1058.307, 0.4984380
1058.789, 0.2628730
1059.271, 3.7618998E-02
1059.753, 5.7075001E-02
1060.236, 0.3729760
1060.718, 0.6271470
1061.200, 0.6598800
1061.682, 0.6726600
1062.164, 0.7718420
1062.646, 0.8537490
1063.128, 0.7651940
1063.610, 0.6269050
1064.093, 0.7216090
1064.575, 1.088619
1065.057, 1.283153
1065.539, 0.9554040
1066.021, 0.6676690
1066.503, 0.7919110
1066.985, 0.9301940
1067.467, 0.6330220
1067.949, 0.1814300
1068.432, 0.1165260
1068.914, 0.5039240
1069.396, 0.8429590
1069.878, 0.9947290
1070.360, 0.9961470
1070.842, 0.7195370
1071.324, 0.4390680
1071.806, 0.3546340
1072.288, 0.4277690
1072.771, 0.6452200
1073.253, 0.9587260
1073.735, 1.088945
1074.217, 0.7653700
1074.699, 0.5780080
1075.181, 0.9450800
1075.663, 1.403150
1076.145, 1.692511
1076.627, 1.797242
1077.110, 1.637558
1077.592, 1.287224
1078.074, 1.092527
1078.556, 1.256976
1079.038, 1.366306
1079.520, 1.107101
1080.002, 0.8367460
1080.484, 0.8793310
1080.967, 1.065178
1081.449, 1.075859
1081.931, 0.9218550
1082.413, 0.8408960
1082.895, 0.9521560
1083.377, 0.9489110
1083.859, 0.3999400
1084.341, 2.7346000E-02
1084.823, 0.5326450
1085.306, 1.264220
1085.788, 1.444739
1086.270, 1.195740
1086.752, 1.078038
1087.234, 1.306501
1087.716, 1.385626
1088.198, 0.8466210
1088.680, 0.3462830
1089.163, 0.2592380
1089.645, 0.3590730
1090.127, 0.4710580
1090.609, 0.5716470
1091.091, 0.6444200
1091.573, 0.6819410
1092.055, 0.8222000
1092.537, 1.415849
1093.020, 1.756701
1093.502, 1.286471
1093.984, 0.6644810
1094.466, 0.3224060
1094.948, 0.2452920
1095.430, 0.4117310
1095.912, 0.7855980
1096.394, 1.020673
1096.876, 0.8773590
1097.359, 0.7752890
1097.841, 0.9534050
1098.323, 1.110335
1098.805, 0.9833800
1099.287, 0.7571260
1099.769, 0.7135830
1100.251, 0.8373980
1100.733, 0.8386860
1101.215, 0.4492570
1101.698, 0.3655550
1102.180, 1.085587
1102.662, 1.779430
1103.144, 2.173099
1103.626, 2.222773
1104.108, 1.695668
1104.590, 0.8103250
1105.072, 0.3108440
1105.554, 0.4151640
1106.037, 0.5466070
1106.519, 0.7783890
1107.001, 0.7971550
1107.483, 0.1495280
1107.965, 0.4672910
1108.447, 0.3836290
1108.929, 0.1247060
1109.411, 0.3928320
1109.894, 0.3287020
1110.376, 0.2984710
1110.858, 0.2885690
1111.340, 0.3726720
1111.822, 0.7552110
1112.304, 1.034362
1112.786, 0.8304820
1113.268, 0.4519710
1113.750, 0.4525410
1114.233, 0.3015880
1114.715, 9.7200997E-02
1115.197, 0.2813940
1115.679, 8.7045997E-02
1116.161, 2.7418001E-02
1116.643, 0.1753600
1117.125, 0.5914520
1117.607, 0.9275290
1118.090, 0.7845800
1118.572, 0.2643060
1119.054, 3.8079999E-02
1119.536, 6.2735997E-02
1120.018, 1.5281000E-02
1120.500, 0.1215720
1120.982, 0.2996840
1121.464, 0.5260290
1121.947, 0.7706540
1122.429, 1.024780
1122.911, 1.229258
1123.393, 1.188048
1123.875, 0.8560280
1124.357, 0.6310820
1124.839, 0.5634330
1125.321, 0.4149370
1125.803, 7.0750996E-02
1126.286, 0.1463190
1126.768, 5.8639999E-03
1127.250, 0.2760140
1127.732, 0.2414960
1128.214, 4.5972999E-02
1128.696, 7.9865001E-02
1129.178, 0.7186450
1129.660, 0.9093070
1130.142, 0.4835530
1130.625, 0.1005320
1131.107, 1.8776000E-02
1131.589, 0.1568800
1132.071, 0.4686690
1132.553, 0.8608040
1133.035, 1.045317
1133.517, 1.027491
1133.999, 0.9168080
1134.481, 0.7218940
1134.964, 0.6380870
1135.446, 0.7185720
1135.928, 0.9020460
1136.410, 1.168072
1136.892, 1.358999
1137.374, 1.102127
1137.856, 0.5568590
1138.338, 0.3936510
1138.821, 0.5531780
1139.303, 0.8071890
1139.785, 1.092950
1140.267, 1.306126
1140.749, 1.397142
1141.231, 1.334512
1141.713, 1.034134
1142.195, 0.6325720
1142.677, 0.3711110
1143.160, 0.2094310
1143.642, 7.0284002E-02
1144.124, 4.7014002E-02
1144.606, 0.1706150
1145.088, 0.2723580
1145.570, 0.1110610
1146.052, 0.5470960
1146.534, 1.219253
1147.017, 1.413784
1147.499, 1.332363
1147.981, 1.070703
1148.463, 0.7970440
1148.945, 0.9037870
1149.427, 1.266600
1149.909, 1.237466
1150.391, 0.5453620
1150.874, 1.3623000E-02
1151.356, 0.3590290
1151.838, 0.8303810
1152.320, 0.9740040
1152.802, 0.9147180
1153.284, 0.6811500
1153.766, 0.3927140
1154.248, 0.2288830
1154.730, 0.2194200
1155.213, 0.2900260
1155.695, 0.4548130
1156.177, 0.6277810
1156.659, 0.8643700
1157.141, 1.003924
1157.623, 1.015910
1158.105, 0.5429130
1158.587, 0.8915380
1159.069, 0.5874340
1159.552, 0.3687300
1160.034, 0.5373230
1160.516, 0.3756900
1160.998, 0.1556520
1161.480, 0.4237910
1161.962, 0.5577830
1162.444, 0.6213870
1162.926, 0.6710320
1163.408, 0.6530520
1163.891, 0.3755620
1164.373, 0.1500210
1164.855, 9.0899999E-04
1165.337, 1.284336
1165.819, 1.907109
1166.301, 1.632639
1166.783, 1.116464
1167.265, 0.4341590
1167.748, 5.2055001E-02
1168.230, 5.1893000E-02
1168.712, 0.5381880
1169.194, 0.8262730
1169.676, 0.9111210
1170.158, 0.9347120
1170.640, 0.8894450
1171.122, 0.9923930
1171.604, 1.295838
1172.087, 1.487078
1172.569, 1.392015
1173.051, 1.142007
1173.533, 0.8589170
1174.015, 0.6079220
1174.497, 0.5307920
1174.979, 0.5982380
1175.461, 0.8542810
1175.944, 1.232695
1176.426, 1.387424
1176.908, 1.237507
1177.390, 1.058141
1177.872, 1.055354
1178.354, 1.016671
1178.836, 0.4356730
1179.318, 0.1346970
1179.801, 0.2914110
1180.283, 1.221805
1180.765, 1.875598
1181.247, 2.125154
1181.729, 1.929915
1182.211, 1.300968
1182.693, 0.7886150
1183.175, 0.7770470
1183.657, 0.9189480
1184.140, 1.127174
1184.622, 1.276253
1185.104, 1.183344
1185.586, 0.9831820
1186.068, 0.8260150
1186.550, 0.7583520
1187.032, 0.8588370
1187.514, 1.218031
1187.996, 1.513190
1188.479, 1.797887
1188.961, 1.848273
1189.443, 1.359840
1189.925, 0.8475570
1190.407, 0.6583750
1190.889, 0.7071010
1191.371, 0.9034790
1191.853, 1.248979
1192.335, 1.432133
1192.818, 1.413422
1193.300, 1.329249
1193.782, 1.154453
1194.264, 1.005970
1194.746, 0.9218610
1195.228, 0.8886290
1195.710, 0.9010400
1196.192, 0.9434420
1196.675, 1.003926
1197.157, 1.074577
1197.639, 0.9060750
1198.121, 0.5137030
1198.603, 0.4493610
1199.085, 0.7804420
1199.567, 1.038079
1200.049, 1.010356
1200.531, 1.139776
1201.014, 0.9471150
1201.496, 1.020506
1201.978, 0.8349080
1202.460, 0.5734200
1202.942, 0.6736720
1203.424, 1.062643
1203.906, 1.599465
1204.388, 2.115944
1204.871, 2.088350
1205.353, 1.241668
1205.835, 0.4403660
1206.317, 0.3292920
1206.799, 0.5136190
1207.281, 0.8835970
1207.763, 1.216847
1208.245, 1.261202
1208.728, 1.139153
1209.210, 1.106418
1209.692, 1.171256
1210.174, 1.112646
1210.656, 0.7682500
1211.138, 0.5515420
1211.620, 0.6449070
1212.102, 0.7421720
1212.584, 0.6656680
1213.067, 0.6423220
1213.549, 0.9270740
1214.031, 1.279471
1214.513, 1.190032
1214.995, 0.6611400
1215.477, 0.4534320
1215.959, 0.6972260
1216.441, 0.7546780
1216.923, 0.5178690
1217.406, 0.3652930
1217.888, 0.4368170
1218.370, 0.5919550
1218.852, 0.7273720
1219.334, 0.7948700
1219.816, 0.6245470
1220.298, 0.2988090
1220.780, 0.2086910
1221.262, 0.3411480
1221.745, 0.7205640
1222.227, 1.256017
1222.709, 1.516432
1223.191, 1.361323
1223.673, 1.185098
1224.155, 1.311525
1224.637, 1.440900
1225.119, 1.163305
1225.602, 0.7730580
1226.084, 0.5732700
1226.566, 0.5482330
1227.048, 0.7495880
1227.530, 1.056291
1228.012, 1.115497
1228.494, 0.8347630
1228.976, 0.7423330
1229.458, 1.416137
1229.941, 1.758381
1230.423, 1.179435
1230.905, 0.4716230
1231.387, 8.9422002E-02
1231.869, 0.4277300
1232.351, 0.4191790
1232.833, 0.1541850
1233.315, 0.1833090
1233.798, 0.6308980
1234.280, 0.8300370
1234.762, 0.6834850
1235.244, 0.6022170
1235.726, 0.6316430
1236.208, 0.8331700
1236.690, 1.290821
1237.172, 1.621392
1237.655, 1.388686
1238.137, 0.8583980
1238.619, 0.6842060
1239.101, 0.7956520
1239.583, 0.8845730
1240.065, 0.9402600
1240.547, 0.9516840
1241.029, 0.9209110
1241.511, 0.8518860
1241.994, 0.7503830
1242.476, 0.6789130
1242.958, 0.6709770
1243.440, 0.7436990
1243.922, 0.9880400
1244.404, 1.250389
1244.886, 1.452419
1245.368, 1.516840
1245.850, 1.206752
1246.333, 0.6907370
1246.815, 0.5544580
1247.297, 0.9767370
1247.779, 1.229220
1248.261, 1.037264
1248.743, 0.8353160
1249.225, 0.4855340
1249.707, 0.4474840
1250.189, 1.171330
1250.672, 1.966073
1251.154, 2.178336
1251.636, 1.946240
1252.118, 1.643999
1252.600, 1.264377
1253.082, 0.9506060
1253.564, 0.6957120
1254.046, 0.6274120
1254.529, 0.7599130
1255.011, 0.8748570
1255.493, 0.8867010
1255.975, 1.042257
1256.457, 1.611691
1256.939, 2.195896
1257.421, 2.088601
1257.903, 1.639276
1258.385, 1.441093
1258.868, 1.296317
1259.350, 1.002639
1259.832, 0.6927180
1260.314, 0.4742220
1260.796, 0.3945850
1261.278, 0.3569360
1261.760, 0.2937820
1262.242, 0.3140860
1262.725, 0.6431170
1263.207, 0.8393080
1263.689, 0.5150220
1264.171, 0.1084920
1264.653, 5.0505001E-02
1265.135, 3.0113000E-02
1265.617, 0.3710790
1266.099, 0.9684630
1266.582, 1.333341
1267.064, 1.414262
1267.546, 1.485058
1268.028, 1.578734
1268.510, 1.563883
1268.992, 1.403825
1269.474, 1.041371
1269.956, 0.3934020
1270.438, 0.1141210
1270.921, 0.2517880
1271.403, 1.057352
1271.885, 1.312625
1272.367, 1.200089
1272.849, 1.050946
1273.331, 0.9253440
1273.813, 0.9438020
1274.295, 1.065876
1274.777, 0.9541130
1275.260, 0.3713050
1275.742, 1.2688000E-02
1276.224, 0.4738200
1276.706, 0.8389390
1277.188, 0.4151240
1277.670, 2.3762001E-02
1278.152, 0.2744390
1278.634, 0.8782910
1279.116, 1.255246
1279.599, 1.372310
1280.081, 1.116807
1280.563, 0.3665750
1281.045, 2.8868999E-02
1281.527, 5.9053998E-02
1282.009, 0.2937220
1282.491, 0.7952360
1282.973, 1.100728
1283.456, 0.9280090
1283.938, 0.6242490
1284.420, 0.2955230
1284.902, 3.8757000E-02
1285.384, 0.0000000E+00
##END=



