##NAMES=Heterosite
##RRUFFID=R070148
##IDEAL CHEMISTRY=Fe^3+^PO_4_
##LOCALITY=Pleasant Valley mine, near Fourmile, Black Hills, Custer County, South Dakota, USA
##OWNER=RRUFF
##SOURCE=James Shigley
##DESCRIPTION=Black massive with obvious cleavage
##STATUS=The identification of this mineral is confirmed by single-crystal X-ray diffraction and chemical analysis.
##URL=rruff.info/R070148
##MEASURED CHEMISTRY=(Fe^3+^_0.76_Mn^3+^_0.10_Mn^4+^_0.07_Mg_0.06_Ca_0.01_)_Î£=1_P_1.00_O_4_; Mn^3+^ and Mn^4+^ splitted by charge balance
195.0733, 0.0000000E+00
195.5554, 19.96436
196.0375, 36.25049
196.5197, 42.27881
197.0018, 53.32812
197.4839, 31.52197
197.9660, 11.30371
198.4481, 0.8247070
198.9302, 1.120117
199.4124, 9.669434
199.8945, 15.10156
200.3766, 18.34277
200.8587, 26.25879
201.3408, 35.21729
201.8229, 37.23193
202.3051, 32.40918
202.7872, 19.69189
203.2693, 4.472168
203.7514, 4.119629
204.2335, 2.370605
204.7156, 2.484863
205.1978, 6.324707
205.6799, 10.96582
206.1620, 17.96338
206.6441, 26.08350
207.1262, 28.05811
207.6083, 10.45703
208.0905, 40.12305
208.5726, 75.09912
209.0547, 85.18262
209.5368, 88.79102
210.0189, 93.29834
210.5010, 101.0713
210.9832, 113.4536
211.4653, 134.1304
211.9474, 168.1538
212.4295, 190.8369
212.9116, 182.7622
213.3937, 180.3945
213.8759, 207.8086
214.3580, 260.7852
214.8401, 315.2676
215.3222, 345.9448
215.8043, 347.8247
216.2864, 358.3281
216.7686, 377.1011
217.2507, 404.7031
217.7328, 446.4229
218.2149, 498.3306
218.6970, 550.3413
219.1791, 592.6938
219.6613, 624.8052
220.1434, 668.4526
220.6255, 741.9009
221.1076, 809.5801
221.5897, 861.1553
222.0718, 899.4253
222.5540, 930.4717
223.0361, 956.6309
223.5182, 979.4507
224.0003, 1012.914
224.4824, 1065.900
224.9645, 1120.863
225.4467, 1167.599
225.9288, 1215.324
226.4109, 1280.088
226.8930, 1372.650
227.3751, 1485.052
227.8572, 1584.189
228.3394, 1669.198
228.8215, 1740.312
229.3036, 1782.206
229.7857, 1816.640
230.2678, 1870.000
230.7499, 1954.637
231.2321, 2057.962
231.7142, 2148.880
232.1963, 2214.879
232.6784, 2289.504
233.1605, 2386.746
233.6426, 2487.635
234.1248, 2574.405
234.6069, 2641.282
235.0890, 2700.521
235.5711, 2773.522
236.0532, 2868.270
236.5353, 2958.552
237.0175, 3048.152
237.4996, 3129.953
237.9817, 3193.870
238.4638, 3240.321
238.9459, 3286.055
239.4280, 3357.087
239.9102, 3466.149
240.3923, 3553.302
240.8744, 3596.327
241.3565, 3633.469
241.8386, 3688.783
242.3207, 3759.259
242.8029, 3820.735
243.2850, 3847.179
243.7671, 3835.552
244.2492, 3825.668
244.7313, 3829.002
245.2134, 3822.370
245.6956, 3798.354
246.1777, 3757.249
246.6598, 3701.245
247.1419, 3627.570
247.6240, 3538.503
248.1061, 3460.605
248.5883, 3412.500
249.0704, 3349.325
249.5525, 3253.478
250.0346, 3134.003
250.5167, 3004.584
250.9988, 2868.045
251.4810, 2730.048
251.9631, 2608.858
252.4452, 2515.620
252.9273, 2412.069
253.4094, 2283.577
253.8915, 2146.460
254.3737, 2017.077
254.8558, 1900.858
255.3379, 1796.304
255.8200, 1705.200
256.3021, 1634.919
256.7842, 1550.763
257.2664, 1421.835
257.7485, 1287.162
258.2306, 1174.712
258.7127, 1090.799
259.1948, 1020.091
259.6769, 947.3965
260.1591, 872.3750
260.6412, 800.2524
261.1233, 729.1670
261.6054, 663.5220
262.0875, 608.0752
262.5696, 562.3569
263.0518, 517.6372
263.5339, 463.2134
264.0160, 402.3369
264.4981, 356.4521
264.9802, 334.9429
265.4623, 318.8662
265.9445, 288.3501
266.4266, 249.2559
266.9087, 222.7568
267.3908, 231.0952
267.8729, 256.5620
268.3550, 257.9888
268.8372, 226.9434
269.3193, 196.3369
269.8014, 184.9849
270.2835, 189.9473
270.7656, 210.8789
271.2477, 262.5996
271.7299, 318.0640
272.2120, 342.1733
272.6941, 333.9663
273.1762, 328.2363
273.6583, 343.0112
274.1404, 371.1494
274.6226, 397.0459
275.1047, 417.5625
275.5868, 440.3828
276.0689, 470.6724
276.5510, 507.5576
277.0331, 549.0444
277.5153, 597.3779
277.9974, 645.9717
278.4795, 682.5215
278.9616, 704.4321
279.4437, 728.9902
279.9258, 761.4688
280.4080, 800.8096
280.8901, 847.2031
281.3722, 901.9385
281.8543, 956.4937
282.3364, 997.4248
282.8185, 1022.335
283.3007, 1061.844
283.7828, 1132.653
284.2649, 1211.094
284.7470, 1277.207
285.2291, 1329.261
285.7112, 1373.720
286.1934, 1413.145
286.6755, 1447.993
287.1576, 1493.238
287.6397, 1574.928
288.1218, 1641.076
288.6039, 1654.923
289.0861, 1631.643
289.5682, 1612.790
290.0503, 1621.814
290.5324, 1651.910
291.0145, 1674.635
291.4966, 1692.702
291.9788, 1700.834
292.4609, 1688.269
292.9430, 1668.808
293.4251, 1662.108
293.9072, 1674.781
294.3893, 1694.299
294.8715, 1698.794
295.3536, 1683.731
295.8357, 1659.966
296.3178, 1614.833
296.7999, 1570.920
297.2820, 1546.494
297.7642, 1541.944
298.2463, 1544.503
298.7284, 1542.024
299.2105, 1534.869
299.6926, 1519.413
300.1747, 1474.628
300.6569, 1442.701
301.1390, 1449.431
301.6211, 1480.412
302.1032, 1503.553
302.5853, 1496.399
303.0674, 1465.847
303.5496, 1447.498
304.0317, 1449.943
304.5138, 1452.650
304.9959, 1455.167
305.4780, 1454.127
305.9601, 1443.144
306.4423, 1419.411
306.9244, 1393.854
307.4065, 1384.440
307.8886, 1393.684
308.3707, 1410.632
308.8528, 1454.316
309.3350, 1489.619
309.8171, 1486.105
310.2992, 1444.413
310.7813, 1402.929
311.2634, 1404.141
311.7455, 1442.375
312.2277, 1451.866
312.7098, 1406.063
313.1919, 1362.407
313.6740, 1364.382
314.1561, 1398.330
314.6382, 1426.203
315.1204, 1426.262
315.6025, 1410.165
316.0846, 1398.214
316.5667, 1391.577
317.0488, 1387.147
317.5309, 1387.070
318.0131, 1387.188
318.4952, 1378.528
318.9773, 1352.468
319.4594, 1329.576
319.9415, 1331.313
320.4236, 1351.849
320.9058, 1362.232
321.3879, 1348.054
321.8700, 1325.986
322.3521, 1328.374
322.8342, 1361.788
323.3163, 1376.543
323.7985, 1344.246
324.2806, 1291.222
324.7627, 1248.286
325.2448, 1220.979
325.7269, 1209.226
326.2090, 1216.195
326.6912, 1244.675
327.1733, 1257.428
327.6554, 1244.046
328.1375, 1226.139
328.6196, 1214.760
329.1017, 1208.976
329.5839, 1204.820
330.0660, 1200.862
330.5481, 1195.109
331.0302, 1178.049
331.5123, 1129.371
331.9944, 1094.651
332.4766, 1090.200
332.9587, 1096.765
333.4408, 1093.043
333.9229, 1072.834
334.4050, 1045.715
334.8871, 1026.755
335.3693, 1023.096
335.8514, 1008.099
336.3335, 967.3447
336.8156, 929.3735
337.2977, 915.7334
337.7798, 919.8149
338.2620, 915.8838
338.7441, 878.7930
339.2262, 814.7764
339.7083, 782.6338
340.1904, 811.2715
340.6725, 829.8496
341.1547, 811.5991
341.6368, 774.7402
342.1189, 742.4780
342.6010, 723.8394
343.0831, 710.4609
343.5652, 688.6826
344.0474, 656.6626
344.5295, 629.2905
345.0116, 614.5137
345.4937, 602.0986
345.9758, 582.4785
346.4579, 555.4062
346.9401, 530.3320
347.4222, 517.1777
347.9043, 510.5474
348.3864, 493.8281
348.8685, 462.6123
349.3506, 429.8926
349.8328, 408.7505
350.3149, 394.6201
350.7970, 373.7095
351.2791, 327.8774
351.7612, 286.7231
352.2433, 283.4136
352.7255, 310.1455
353.2076, 324.1875
353.6897, 301.8711
354.1718, 258.5967
354.6539, 236.1094
355.1360, 245.4253
355.6182, 247.7554
356.1003, 228.4546
356.5824, 200.4277
357.0645, 177.2090
357.5466, 162.0195
358.0287, 155.4658
358.5109, 160.6187
358.9930, 182.8052
359.4751, 185.4375
359.9572, 155.6694
360.4393, 122.3213
360.9214, 94.57520
361.4036, 73.51855
361.8857, 58.63525
362.3678, 49.59863
362.8499, 46.22607
363.3320, 49.07715
363.8141, 71.66357
364.2963, 77.77930
364.7784, 50.63574
365.2605, 15.10498
365.7426, 8.812012
366.2247, 16.58203
366.7068, 16.15381
367.1890, 13.75928
367.6711, 8.971680
368.1532, 10.46436
368.6353, 25.44824
369.1174, 38.55713
369.5995, 37.32080
370.0817, 28.33105
370.5638, 28.29688
371.0459, 52.43604
371.5280, 83.94727
372.0101, 91.10303
372.4922, 71.20166
372.9744, 52.67725
373.4565, 45.91260
373.9386, 48.67969
374.4207, 58.84180
374.9028, 80.20264
375.3849, 95.05615
375.8671, 89.03223
376.3492, 70.77051
376.8313, 58.50732
377.3134, 56.66162
377.7955, 54.88379
378.2776, 39.98486
378.7598, 10.05713
379.2419, 5.593262
379.7240, 7.558594
380.2061, 22.34521
380.6882, 19.25098
381.1703, 3.972656
381.6525, 4.337402
382.1346, 5.684570
382.6167, 26.20068
383.0988, 33.51416
383.5809, 14.82080
384.0630, 1.302246
384.5452, 15.51855
385.0273, 26.13818
385.5094, 28.76318
385.9915, 24.50977
386.4736, 22.06006
386.9557, 31.09912
387.4379, 52.21045
387.9200, 73.13965
388.4021, 91.70312
388.8842, 112.9878
389.3663, 142.4458
389.8484, 174.6860
390.3306, 200.7275
390.8127, 216.3696
391.2948, 226.5205
391.7769, 238.5142
392.2590, 252.4644
392.7411, 266.8960
393.2233, 284.7456
393.7054, 299.3418
394.1875, 300.2368
394.6696, 287.6851
395.1517, 283.1987
395.6339, 304.1260
396.1160, 334.8701
396.5981, 347.9229
397.0802, 340.0547
397.5623, 333.0469
398.0444, 344.8198
398.5266, 370.9756
399.0087, 384.7949
399.4908, 370.4624
399.9729, 361.0059
400.4550, 369.4141
400.9371, 390.5303
401.4193, 418.7427
401.9014, 452.2104
402.3835, 482.4829
402.8656, 496.3628
403.3477, 486.2744
403.8298, 482.2441
404.3120, 495.3755
404.7941, 503.4009
405.2762, 488.7275
405.7583, 459.1001
406.2404, 435.1743
406.7225, 430.5054
407.2047, 440.0244
407.6868, 445.4282
408.1689, 442.0181
408.6510, 444.3276
409.1331, 462.5151
409.6152, 482.2227
410.0974, 490.1899
410.5795, 485.0845
411.0616, 479.5000
411.5437, 484.4600
412.0258, 498.3428
412.5079, 514.3403
412.9901, 534.9844
413.4722, 550.4858
413.9543, 550.5708
414.4364, 540.8135
414.9185, 531.0825
415.4006, 520.3442
415.8828, 513.5405
416.3649, 512.6260
416.8470, 518.3447
417.3291, 538.4355
417.8112, 580.0469
418.2933, 619.7334
418.7755, 618.5908
419.2576, 558.7197
419.7397, 518.4014
420.2218, 513.5630
420.7039, 518.3257
421.1860, 517.2085
421.6682, 510.0723
422.1503, 501.3545
422.6324, 493.0547
423.1145, 487.2222
423.5966, 492.9917
424.0787, 526.3237
424.5609, 546.7246
425.0430, 546.5127
425.5251, 535.7280
426.0072, 518.2051
426.4893, 495.6016
426.9714, 474.7124
427.4536, 464.7803
427.9357, 465.0771
428.4178, 460.7295
428.8999, 447.8311
429.3820, 432.8828
429.8641, 425.0630
430.3463, 419.6558
430.8284, 405.2681
431.3105, 373.7285
431.7926, 341.7168
432.2747, 324.5449
432.7568, 317.8789
433.2390, 310.7871
433.7211, 303.2881
434.2032, 290.9390
434.6853, 262.8530
435.1674, 215.6870
435.6495, 184.3647
436.1317, 184.2485
436.6138, 190.9478
437.0959, 188.3867
437.5780, 177.0825
438.0601, 166.4521
438.5422, 162.9492
439.0244, 161.8965
439.5065, 147.5171
439.9886, 99.64795
440.4707, 71.27734
440.9528, 74.88037
441.4349, 89.05713
441.9171, 104.6602
442.3992, 117.4385
442.8813, 121.2690
443.3634, 108.8335
443.8455, 84.35010
444.3276, 63.99805
444.8098, 46.73193
445.2919, 38.72021
445.7740, 54.47754
446.2561, 73.79443
446.7382, 74.71582
447.2203, 52.42773
447.7025, 28.10645
448.1846, 13.60791
448.6667, 6.512695
449.1488, 1.058105
449.6309, 3.817383
450.1130, 1.893555
450.5952, 16.98633
451.0773, 48.88623
451.5594, 57.05664
452.0415, 18.69092
452.5236, 14.94189
453.0057, 24.81592
453.4879, 20.66309
453.9700, 14.11865
454.4521, 9.183594
454.9342, 7.169434
455.4163, 10.62109
455.8984, 21.26953
456.3806, 27.54639
456.8627, 32.83252
457.3448, 29.70020
457.8269, 8.123535
458.3090, 21.67480
458.7911, 43.49658
459.2733, 50.08154
459.7554, 48.54443
460.2375, 47.63428
460.7196, 47.33447
461.2017, 48.52832
461.6838, 49.21924
462.1660, 54.63867
462.6481, 70.74854
463.1302, 95.91650
463.6123, 122.5625
464.0944, 151.4497
464.5765, 178.8999
465.0587, 203.2358
465.5408, 223.5708
466.0229, 233.8452
466.5050, 228.9629
466.9871, 221.5063
467.4692, 237.1030
467.9514, 294.7061
468.4335, 335.7256
468.9156, 337.8862
469.3977, 343.1035
469.8798, 385.0981
470.3619, 453.7852
470.8441, 514.3623
471.3262, 544.0972
471.8083, 553.8589
472.2904, 577.2896
472.7725, 621.1948
473.2546, 659.7705
473.7368, 678.3105
474.2189, 696.3145
474.7010, 727.6582
475.1831, 772.0249
475.6652, 818.0039
476.1473, 861.2402
476.6295, 901.0083
477.1116, 936.7354
477.5937, 968.3262
478.0758, 992.8354
478.5579, 1003.414
479.0400, 1010.318
479.5222, 1042.573
480.0043, 1115.468
480.4864, 1171.186
480.9685, 1186.615
481.4506, 1188.328
481.9327, 1196.713
482.4149, 1215.144
482.8970, 1243.023
483.3791, 1282.174
483.8612, 1328.099
484.3433, 1356.306
484.8254, 1359.894
485.3076, 1355.975
485.7897, 1340.562
486.2718, 1324.240
486.7539, 1314.304
487.2360, 1312.258
487.7181, 1317.394
488.2003, 1337.608
488.6824, 1362.484
489.1645, 1360.137
489.6466, 1326.523
490.1287, 1287.806
490.6108, 1256.372
491.0930, 1228.317
491.5751, 1194.071
492.0572, 1148.062
492.5393, 1111.491
493.0214, 1100.367
493.5035, 1097.752
493.9857, 1086.048
494.4678, 1063.059
494.9499, 1032.576
495.4320, 996.3687
495.9141, 955.6538
496.3962, 917.3403
496.8784, 881.0527
497.3605, 848.2778
497.8426, 819.6709
498.3247, 793.9326
498.8068, 770.9082
499.2889, 750.0825
499.7711, 729.6265
500.2532, 707.4404
500.7353, 684.3979
501.2174, 663.0288
501.6995, 642.0376
502.1816, 628.8188
502.6638, 633.8174
503.1459, 644.1636
503.6280, 639.1172
504.1101, 615.1382
504.5922, 589.3179
505.0743, 565.4531
505.5565, 544.6201
506.0386, 528.8374
506.5207, 517.7314
507.0028, 509.0801
507.4849, 501.4653
507.9670, 495.4111
508.4492, 492.2173
508.9313, 497.5117
509.4134, 495.2822
509.8955, 481.0923
510.3776, 460.8882
510.8597, 437.1445
511.3419, 413.4365
511.8240, 397.1230
512.3061, 396.4282
512.7882, 404.5435
513.2703, 402.4727
513.7524, 388.3682
514.2346, 372.3535
514.7167, 358.2017
515.1988, 343.9780
515.6809, 326.3384
516.1630, 303.8647
516.6451, 285.5923
517.1273, 273.6387
517.6094, 267.6880
518.0915, 271.7344
518.5736, 282.4424
519.0557, 288.0059
519.5378, 282.1597
520.0200, 267.3447
520.5021, 248.1890
520.9842, 214.7148
521.4663, 196.3887
521.9484, 204.7070
522.4305, 215.5371
522.9127, 217.7988
523.3948, 211.7471
523.8769, 200.3618
524.3590, 183.2900
524.8411, 165.8809
525.3232, 157.9707
525.8054, 159.4990
526.2875, 159.9531
526.7696, 154.7544
527.2517, 151.1899
527.7338, 162.2158
528.2159, 185.3232
528.6981, 195.1826
529.1802, 177.4717
529.6623, 156.2271
530.1444, 145.7363
530.6265, 141.9517
531.1086, 136.5693
531.5908, 126.6904
532.0729, 114.5859
532.5550, 102.9321
533.0371, 91.23877
533.5192, 82.77539
534.0013, 78.95459
534.4835, 76.91309
534.9656, 77.82812
535.4477, 79.18848
535.9298, 77.24414
536.4119, 70.63623
536.8940, 63.22998
537.3762, 58.51270
537.8583, 55.89697
538.3404, 52.42969
538.8225, 47.11719
539.3046, 46.61816
539.7867, 58.50635
540.2689, 78.97363
540.7510, 88.95459
541.2331, 89.22217
541.7152, 79.48730
542.1973, 49.08643
542.6794, 15.52051
543.1616, 2.785645
543.6437, 5.731934
544.1258, 7.882813
544.6079, 23.02393
545.0900, 44.66113
545.5721, 40.73096
546.0543, 1.520996
546.5364, 34.39307
547.0185, 43.09668
547.5006, 39.44580
547.9827, 27.33545
548.4648, 8.620605
548.9470, 3.355957
549.4291, 1.630859
549.9112, 13.26660
550.3933, 23.67188
550.8754, 31.45752
551.3575, 29.04785
551.8397, 11.46631
552.3218, 7.566406
552.8039, 4.860840
553.2860, 28.16553
553.7681, 54.21436
554.2502, 74.19775
554.7324, 87.46533
555.2145, 90.97852
555.6966, 88.48389
556.1787, 82.68115
556.6608, 74.19189
557.1429, 72.72705
557.6251, 94.74854
558.1072, 136.8853
558.5893, 172.0933
559.0714, 198.2510
559.5535, 217.1719
560.0356, 229.7339
560.5178, 235.6641
560.9999, 233.6216
561.4820, 208.0410
561.9641, 197.4351
562.4462, 230.4517
562.9283, 277.0303
563.4105, 304.0840
563.8926, 310.8179
564.3747, 316.7993
564.8568, 335.7637
565.3389, 363.1440
565.8210, 386.6909
566.3032, 409.5518
566.7853, 424.6040
567.2674, 421.7876
567.7495, 418.4307
568.2316, 427.1689
568.7137, 445.6538
569.1959, 460.9688
569.6780, 459.7065
570.1601, 456.7158
570.6422, 477.8384
571.1243, 514.7617
571.6064, 538.7129
572.0886, 537.6821
572.5707, 527.7349
573.0528, 531.9463
573.5349, 553.2261
574.0170, 573.2588
574.4991, 598.1675
574.9813, 614.8384
575.4634, 613.4761
575.9455, 605.5786
576.4276, 601.8672
576.9097, 605.4463
577.3918, 617.1128
577.8740, 642.2568
578.3561, 676.0171
578.8382, 701.4341
579.3203, 717.4917
579.8024, 732.5288
580.2845, 753.2285
580.7667, 772.4692
581.2488, 774.1455
581.7309, 754.6235
582.2130, 737.0059
582.6951, 717.5210
583.1772, 707.2358
583.6594, 723.0381
584.1415, 752.7544
584.6236, 767.8799
585.1057, 755.1401
585.5878, 733.3296
586.0699, 736.5605
586.5521, 768.5298
587.0342, 780.2915
587.5163, 758.2656
587.9984, 734.4517
588.4805, 733.4644
588.9626, 740.9883
589.4448, 731.2217
589.9269, 692.2861
590.4090, 658.3477
590.8911, 650.1895
591.3732, 653.8706
591.8553, 655.3662
592.3375, 651.6758
592.8196, 638.3662
593.3017, 611.0107
593.7838, 576.3716
594.2659, 555.5332
594.7480, 554.1274
595.2302, 553.3955
595.7123, 557.1084
596.1944, 556.3149
596.6765, 538.9751
597.1586, 513.6724
597.6407, 504.1108
598.1229, 529.0508
598.6050, 552.8271
599.0871, 535.6304
599.5692, 492.7466
600.0513, 465.8350
600.5334, 462.8608
601.0156, 461.3105
601.4977, 441.0137
601.9798, 405.1880
602.4619, 379.9707
602.9440, 375.6313
603.4261, 368.1328
603.9083, 354.7925
604.3904, 338.8062
604.8725, 320.0884
605.3546, 301.0083
605.8367, 290.2397
606.3188, 301.8506
606.8010, 311.9395
607.2831, 270.8779
607.7652, 187.5464
608.2473, 137.1304
608.7294, 142.9126
609.2115, 166.8745
609.6937, 171.4810
610.1758, 156.5439
610.6579, 150.2056
611.1400, 170.1816
611.6221, 175.5996
612.1042, 139.9219
612.5864, 95.88770
613.0685, 79.11377
613.5506, 91.13623
614.0327, 107.6265
614.5148, 113.6880
614.9969, 108.3398
615.4791, 82.75098
615.9612, 35.43164
616.4433, 2.964355
616.9254, 0.8120120
617.4075, 8.438965
617.8896, 0.3505860
618.3718, 23.86621
618.8539, 32.13232
619.3360, 3.846680
619.8181, 18.19922
620.3002, 14.30762
620.7823, 3.546875
621.2645, 25.10205
621.7466, 45.34863
622.2287, 54.62549
622.7108, 40.04736
623.1929, 9.332520
623.6750, 6.871094
624.1572, 6.917480
624.6393, 1.491211
625.1214, 9.184570
625.6035, 20.64160
626.0856, 30.38672
626.5677, 38.47070
627.0499, 33.45215
627.5320, 10.04688
628.0141, 41.31836
628.4962, 16.23389
628.9783, 29.93115
629.4604, 42.30078
629.9426, 10.28369
630.4247, 33.90723
630.9068, 59.41455
631.3889, 69.89062
631.8710, 87.02588
632.3531, 113.6719
632.8353, 135.4331
633.3174, 142.2637
633.7995, 148.0234
634.2816, 171.7598
634.7637, 212.1738
635.2458, 243.4331
635.7280, 254.7251
636.2101, 261.3691
636.6922, 264.4644
637.1743, 271.2866
637.6564, 296.6201
638.1385, 341.7686
638.6207, 388.0869
639.1028, 414.5669
639.5849, 426.3989
640.0670, 457.0171
640.5491, 513.0146
641.0313, 564.5718
641.5134, 601.0312
641.9955, 631.3467
642.4776, 665.7759
642.9597, 703.7686
643.4418, 737.3706
643.9240, 757.0913
644.4061, 780.4155
644.8882, 819.5747
645.3703, 867.5342
645.8524, 915.6953
646.3345, 960.9346
646.8167, 999.7993
647.2988, 1027.568
647.7809, 1046.907
648.2630, 1073.622
648.7451, 1113.733
649.2272, 1134.831
649.7094, 1114.431
650.1915, 1087.538
650.6736, 1087.526
651.1557, 1111.464
651.6378, 1140.420
652.1199, 1187.147
652.6021, 1220.268
653.0842, 1215.869
653.5663, 1193.717
654.0484, 1177.318
654.5305, 1171.930
655.0126, 1174.352
655.4948, 1183.114
655.9769, 1196.205
656.4590, 1209.100
656.9411, 1223.704
657.4232, 1226.134
657.9053, 1207.558
658.3875, 1182.008
658.8696, 1164.331
659.3517, 1153.602
659.8338, 1144.719
660.3159, 1129.729
660.7980, 1125.759
661.2802, 1151.234
661.7623, 1182.588
662.2444, 1195.381
662.7265, 1188.298
663.2086, 1172.057
663.6907, 1152.158
664.1729, 1132.280
664.6550, 1121.751
665.1371, 1120.956
665.6192, 1117.509
666.1013, 1109.062
666.5834, 1098.557
667.0656, 1084.409
667.5477, 1070.060
668.0298, 1069.941
668.5119, 1101.209
668.9940, 1118.829
669.4761, 1102.641
669.9583, 1079.269
670.4404, 1069.849
670.9225, 1072.024
671.4046, 1075.895
671.8867, 1077.024
672.3688, 1076.766
672.8510, 1076.943
673.3331, 1076.776
673.8152, 1068.916
674.2973, 1050.601
674.7794, 1035.716
675.2615, 1035.596
675.7437, 1042.205
676.2258, 1034.089
676.7079, 999.6572
677.1900, 980.3433
677.6721, 983.5498
678.1542, 993.1191
678.6364, 1010.270
679.1185, 1023.854
679.6006, 1014.965
680.0827, 977.8936
680.5648, 937.1953
681.0469, 916.1768
681.5291, 907.9463
682.0112, 900.6572
682.4933, 893.1016
682.9754, 873.0073
683.4575, 830.6069
683.9396, 789.1748
684.4218, 791.0527
684.9039, 851.6035
685.3860, 872.0762
685.8681, 815.3188
686.3502, 758.5820
686.8323, 714.5244
687.3145, 681.0923
687.7966, 658.9761
688.2787, 646.1162
688.7608, 634.2368
689.2429, 620.2476
689.7250, 603.8281
690.2072, 585.8726
690.6893, 565.2861
691.1714, 535.0586
691.6535, 493.7866
692.1356, 457.8535
692.6177, 445.4429
693.0999, 453.1997
693.5820, 452.2910
694.0641, 441.2471
694.5462, 424.7510
695.0283, 400.6216
695.5104, 373.8047
695.9926, 342.5879
696.4747, 310.6328
696.9568, 292.5483
697.4389, 307.1406
697.9210, 313.7188
698.4031, 276.1787
698.8853, 226.1738
699.3674, 208.1770
699.8495, 220.5903
700.3316, 228.9587
700.8137, 210.1255
701.2958, 180.4922
701.7780, 178.6465
702.2601, 206.8101
702.7422, 217.6409
703.2243, 204.4333
703.7064, 178.8066
704.1885, 136.2544
704.6707, 90.60352
705.1528, 77.68213
705.6349, 114.0034
706.1170, 132.9441
706.5991, 109.4705
707.0812, 82.29565
707.5634, 74.30078
708.0455, 78.68091
708.5276, 84.11597
709.0097, 86.54834
709.4918, 82.17993
709.9739, 59.56006
710.4561, 29.25098
710.9382, 21.36646
711.4203, 35.26147
711.9024, 48.78345
712.3845, 53.26172
712.8666, 51.35742
713.3488, 45.86841
713.8309, 36.89062
714.3130, 23.49683
714.7951, 10.09229
715.2772, 25.44775
715.7593, 2.236572
716.2415, 29.16479
716.7236, 46.40283
717.2057, 48.83008
717.6878, 44.28247
718.1699, 31.55225
718.6520, 19.13452
719.1342, 15.32251
719.6163, 15.79858
720.0984, 12.38135
720.5805, 4.806152
721.0626, 1.395508
721.5447, 2.795898
722.0269, 0.5500490
722.5090, 11.44409
722.9911, 32.77710
723.4732, 40.30322
723.9553, 25.12988
724.4374, 10.01270
724.9196, 7.290283
725.4017, 13.40308
725.8838, 22.92969
726.3659, 41.23218
726.8480, 44.04834
727.3301, 7.859619
727.8123, 25.63403
728.2944, 31.41064
728.7765, 17.76172
729.2586, 4.801758
729.7407, 31.48340
730.2228, 49.93164
730.7050, 42.33105
731.1871, 21.16553
731.6692, 16.99341
732.1513, 27.66626
732.6334, 32.16187
733.1155, 23.51660
733.5977, 12.73193
734.0798, 10.90454
734.5619, 17.51929
735.0440, 26.15918
735.5261, 45.70679
736.0082, 52.21118
736.4904, 25.18481
736.9725, 1.241699
737.4546, 8.174072
737.9367, 36.31372
738.4188, 56.94604
738.9009, 60.66748
739.3831, 60.45947
739.8652, 69.61206
740.3473, 74.81909
740.8294, 52.21289
741.3115, 10.42700
741.7936, 19.07959
742.2758, 21.32178
742.7579, 9.852295
743.2400, 1.711426
743.7221, 3.209473
744.2042, 5.910400
744.6863, 6.207520
745.1685, 5.132324
745.6506, 0.8925780
746.1327, 1.322510
746.6148, 7.285645
747.0969, 28.74463
747.5790, 42.55713
748.0612, 45.75806
748.5433, 45.76538
749.0254, 39.42041
749.5075, 34.28125
749.9896, 36.80518
750.4717, 46.99048
750.9539, 63.28711
751.4360, 92.94019
751.9181, 113.0938
752.4002, 91.51904
752.8823, 49.42139
753.3644, 28.33325
753.8466, 30.87622
754.3287, 34.13745
754.8108, 23.99072
755.2929, 11.33691
755.7750, 24.09521
756.2571, 68.17798
756.7393, 77.91479
757.2214, 34.80273
757.7035, 1.608887
758.1856, 13.10669
758.6677, 43.70923
759.1498, 52.08423
759.6320, 35.38794
760.1141, 29.73706
760.5962, 53.57935
761.0783, 70.36377
761.5604, 56.31104
762.0425, 34.84155
762.5247, 34.27905
763.0068, 53.74805
763.4889, 68.98853
763.9710, 64.88208
764.4531, 53.12280
764.9352, 45.82666
765.4174, 41.73511
765.8995, 36.83862
766.3816, 30.71167
766.8637, 28.27808
767.3458, 33.83179
767.8279, 41.05371
768.3101, 32.94360
768.7922, 4.418701
769.2743, 7.099121
769.7564, 4.237793
770.2385, 25.19995
770.7206, 57.20947
771.2028, 82.30298
771.6849, 75.00488
772.1670, 32.11060
772.6491, 16.18311
773.1312, 62.50342
773.6133, 106.0159
774.0955, 117.6091
774.5776, 112.5125
775.0597, 105.3577
775.5418, 100.3140
776.0239, 101.0254
776.5060, 111.8679
776.9882, 118.7039
777.4703, 98.88184
777.9524, 64.93994
778.4345, 45.14722
778.9166, 42.08960
779.3987, 47.46606
779.8809, 57.75293
780.3630, 68.30884
780.8451, 68.08960
781.3272, 53.68823
781.8093, 54.97046
782.2914, 81.68164
782.7736, 98.52344
783.2557, 86.29077
783.7378, 62.48340
784.2199, 48.21265
784.7020, 43.62915
785.1841, 39.34717
785.6663, 24.97168
786.1484, 21.09106
786.6305, 48.94434
787.1126, 79.42310
787.5947, 83.16455
788.0768, 65.05151
788.5590, 48.61182
789.0411, 40.97070
789.5232, 41.71729
790.0053, 55.29077
790.4874, 74.84668
790.9695, 92.60693
791.4517, 107.0427
791.9338, 111.6687
792.4159, 103.0493
792.8980, 90.00781
793.3801, 84.31006
793.8622, 85.36255
794.3444, 89.31030
794.8265, 97.29248
795.3086, 100.3784
795.7907, 96.32642
796.2728, 87.06128
796.7549, 71.36890
797.2371, 50.69067
797.7192, 42.09595
798.2013, 53.26782
798.6834, 64.94604
799.1655, 75.29858
799.6476, 85.73145
800.1298, 103.8726
800.6119, 122.2629
801.0940, 125.6301
801.5761, 107.7502
802.0582, 90.70923
802.5403, 82.98047
803.0225, 84.05859
803.5046, 98.23999
803.9867, 118.0298
804.4688, 130.3318
804.9509, 131.8000
805.4330, 129.1199
805.9152, 127.3850
806.3973, 123.0886
806.8794, 106.3179
807.3615, 79.90381
807.8436, 63.72314
808.3257, 61.48535
808.8079, 64.66211
809.2900, 68.50879
809.7721, 71.94897
810.2542, 71.87671
810.7363, 66.83667
811.2184, 62.90967
811.7006, 55.85132
812.1827, 57.31030
812.6648, 86.09766
813.1469, 115.9746
813.6290, 111.1965
814.1111, 71.84668
814.5933, 46.59375
815.0754, 51.71924
815.5575, 59.83862
816.0396, 63.14868
816.5217, 65.37842
817.0038, 71.48169
817.4860, 79.50488
817.9681, 82.36206
818.4502, 76.04199
818.9323, 69.59741
819.4144, 72.14111
819.8965, 78.58154
820.3787, 82.82275
820.8608, 83.95996
821.3429, 80.44458
821.8250, 71.72754
822.3071, 58.76685
822.7892, 39.70386
823.2714, 18.85107
823.7535, 16.57227
824.2356, 33.73560
824.7177, 53.07593
825.1998, 73.92090
825.6819, 85.22485
826.1641, 77.91724
826.6462, 54.76709
827.1283, 23.51831
827.6104, 33.24146
828.0925, 53.57178
828.5746, 3.584717
829.0568, 41.17651
829.5389, 51.99878
830.0210, 43.81689
830.5031, 30.30347
830.9852, 13.24390
831.4673, 4.755615
831.9495, 18.06958
832.4316, 27.81494
832.9137, 12.32812
833.3958, 4.228516
833.8779, 8.908936
834.3600, 44.31689
834.8422, 69.64331
835.3243, 69.35742
835.8064, 62.04785
836.2885, 70.35718
836.7706, 80.08130
837.2527, 60.87939
837.7349, 20.68213
838.2170, 7.201904
838.6991, 11.69507
839.1812, 6.046387
839.6633, 5.026611
840.1454, 3.843262
840.6276, 23.65796
841.1097, 78.54370
841.5918, 96.98560
842.0739, 61.12427
842.5560, 20.44116
843.0381, 7.474121
843.5203, 13.79712
844.0024, 19.33179
844.4845, 26.30713
844.9666, 25.54688
845.4487, 8.084961
845.9308, 4.112061
846.4130, 1.745117
846.8951, 12.54614
847.3772, 16.89551
847.8593, 14.73267
848.3414, 7.896729
848.8235, 10.69800
849.3057, 24.15918
849.7878, 25.90161
850.2699, 22.60767
850.7520, 17.64941
851.2341, 12.28076
851.7162, 7.082764
852.1984, 1.949951
852.6805, 0.7290040
853.1626, 8.219727
853.6447, 19.00586
854.1268, 29.63452
854.6089, 38.51562
855.0911, 42.23096
855.5732, 40.67749
856.0553, 38.24829
856.5374, 39.16040
857.0195, 38.52686
857.5016, 23.22900
857.9838, 1.841553
858.4659, 13.89575
858.9480, 10.95605
859.4301, 1.762207
859.9122, 10.86792
860.3943, 19.07715
860.8765, 8.480225
861.3586, 19.60132
861.8407, 25.71289
862.3228, 2.374023
862.8049, 14.27490
863.2870, 16.87183
863.7692, 9.673340
864.2513, 8.296143
864.7334, 32.31226
865.2155, 44.35547
865.6976, 34.38477
866.1797, 33.67065
866.6619, 56.89307
867.1440, 71.58838
867.6261, 53.79980
868.1082, 29.61035
868.5903, 30.51440
869.0724, 56.91772
869.5546, 82.19116
870.0367, 106.4407
870.5188, 119.6584
871.0009, 106.9404
871.4830, 90.33765
871.9651, 91.67822
872.4473, 105.0178
872.9294, 111.6355
873.4115, 104.8801
873.8936, 101.0708
874.3757, 120.2297
874.8578, 141.7395
875.3400, 136.3562
875.8221, 117.0862
876.3042, 112.8857
876.7863, 127.7593
877.2684, 145.7285
877.7505, 156.0071
878.2327, 163.5959
878.7148, 179.3672
879.1969, 199.1985
879.6790, 202.9224
880.1611, 191.3586
880.6432, 192.4531
881.1254, 218.0107
881.6075, 248.9294
882.0896, 261.7058
882.5717, 259.9482
883.0538, 270.2412
883.5359, 296.1841
884.0181, 303.4629
884.5002, 279.8203
884.9823, 258.6494
885.4644, 260.1196
885.9465, 276.0530
886.4286, 290.4045
886.9108, 301.8730
887.3929, 304.9724
887.8750, 287.0730
888.3571, 280.9561
888.8392, 308.1233
889.3214, 338.7307
889.8035, 344.1609
890.2856, 330.5679
890.7677, 327.7771
891.2498, 347.7598
891.7319, 360.4004
892.2141, 355.9072
892.6962, 348.2390
893.1783, 338.4456
893.6604, 333.4209
894.1425, 349.3159
894.6246, 384.9014
895.1068, 401.8342
895.5889, 361.9807
896.0710, 326.0286
896.5531, 335.8945
897.0352, 361.1785
897.5173, 368.8745
897.9995, 362.9785
898.4816, 364.8369
898.9637, 381.1804
899.4458, 396.9753
899.9279, 399.9624
900.4100, 395.9084
900.8922, 389.1086
901.3743, 382.3762
901.8564, 379.8281
902.3385, 382.4871
902.8206, 392.5098
903.3027, 412.7212
903.7849, 429.8730
904.2670, 420.0637
904.7491, 393.4443
905.2312, 385.1963
905.7133, 393.5906
906.1954, 390.9631
906.6776, 367.6584
907.1597, 347.8467
907.6418, 357.1548
908.1239, 385.9351
908.6060, 402.3359
909.0881, 406.2881
909.5703, 408.9736
910.0524, 411.6284
910.5345, 411.2610
911.0166, 405.1104
911.4987, 397.1462
911.9808, 393.2837
912.4630, 393.6206
912.9451, 396.7935
913.4272, 405.9314
913.9093, 409.2422
914.3914, 402.8442
914.8735, 392.8730
915.3557, 381.0972
915.8378, 371.7720
916.3199, 372.3164
916.8020, 383.7739
917.2841, 401.0376
917.7662, 435.5342
918.2484, 458.4585
918.7305, 456.3423
919.2126, 448.1680
919.6947, 449.1514
920.1768, 456.3735
920.6589, 457.3057
921.1411, 447.3354
921.6232, 441.7236
922.1053, 444.6431
922.5874, 449.3584
923.0695, 454.5757
923.5516, 458.9502
924.0338, 457.3076
924.5159, 451.8662
924.9980, 458.5098
925.4801, 492.5073
925.9622, 522.0073
926.4443, 531.1997
926.9265, 533.4224
927.4086, 532.1196
927.8907, 534.3687
928.3728, 555.6260
928.8549, 596.6748
929.3370, 628.0557
929.8192, 625.4541
930.3013, 616.3423
930.7834, 617.2051
931.2655, 626.1548
931.7476, 642.2954
932.2297, 664.2139
932.7119, 691.2705
933.1940, 723.1528
933.6761, 749.9990
934.1582, 754.5684
934.6403, 756.3213
935.1224, 783.6597
935.6046, 826.2847
936.0867, 865.1821
936.5688, 896.3169
937.0509, 919.1084
937.5330, 932.7568
938.0151, 943.9375
938.4973, 959.1406
938.9794, 978.7002
939.4615, 1004.134
939.9436, 1035.457
940.4257, 1070.475
940.9078, 1108.313
941.3900, 1149.509
941.8721, 1195.063
942.3542, 1242.763
942.8363, 1291.558
943.3184, 1339.218
943.8005, 1368.345
944.2827, 1379.931
944.7648, 1406.817
945.2469, 1459.485
945.7290, 1511.130
946.2111, 1538.298
946.6932, 1551.853
947.1754, 1572.931
947.6575, 1599.034
948.1396, 1633.617
948.6217, 1678.937
949.1038, 1723.970
949.5859, 1764.929
950.0681, 1797.435
950.5502, 1815.174
951.0323, 1821.138
951.5144, 1835.589
951.9965, 1862.075
952.4786, 1875.514
952.9608, 1871.976
953.4429, 1860.609
953.9250, 1844.460
954.4071, 1824.675
954.8892, 1800.832
955.3713, 1773.729
955.8535, 1760.372
956.3356, 1769.475
956.8177, 1764.082
957.2998, 1731.004
957.7819, 1702.374
958.2640, 1704.806
958.7462, 1711.212
959.2283, 1671.546
959.7104, 1580.050
960.1925, 1524.730
960.6746, 1532.259
961.1567, 1521.938
961.6389, 1469.751
962.1210, 1413.989
962.6031, 1377.526
963.0852, 1353.546
963.5673, 1329.616
964.0494, 1306.775
964.5316, 1278.348
965.0137, 1238.637
965.4958, 1201.624
965.9779, 1169.415
966.4600, 1140.662
966.9421, 1112.753
967.4243, 1087.880
967.9064, 1073.659
968.3885, 1076.321
968.8706, 1065.116
969.3527, 1020.335
969.8348, 985.8999
970.3170, 980.7285
970.7991, 982.6313
971.2812, 972.5815
971.7633, 956.3223
972.2454, 952.9546
972.7275, 972.1611
973.2097, 975.6812
973.6918, 941.9282
974.1739, 912.5596
974.6560, 907.9292
975.1381, 909.0962
975.6202, 900.3447
976.1024, 882.8247
976.5845, 862.0571
977.0666, 834.6602
977.5487, 818.3540
978.0308, 829.0576
978.5129, 837.1758
978.9951, 828.1792
979.4772, 811.6523
979.9593, 797.4312
980.4414, 784.7246
980.9235, 766.9541
981.4056, 740.4854
981.8878, 716.0898
982.3699, 699.6514
982.8520, 682.9409
983.3341, 662.3218
983.8162, 638.5698
984.2983, 612.4976
984.7805, 584.3501
985.2626, 554.7603
985.7447, 524.1919
986.2268, 491.1626
986.7089, 452.4863
987.1910, 413.9531
987.6732, 379.9189
988.1553, 347.1650
988.6374, 308.6040
989.1195, 267.4443
989.6016, 239.2104
990.0837, 233.9570
990.5659, 225.9863
991.0480, 199.5259
991.5301, 172.7959
992.0122, 155.4976
992.4943, 146.0659
992.9764, 147.0166
993.4586, 153.7246
993.9407, 148.7969
994.4228, 123.3589
994.9049, 95.08594
995.3870, 68.93604
995.8691, 45.67090
996.3513, 28.52051
996.8334, 12.95557
997.3155, 8.961426
997.7976, 35.41406
998.2797, 54.98779
998.7618, 62.37158
999.2440, 66.83398
999.7261, 72.37451
1000.208, 76.83496
1000.690, 81.01660
1001.172, 81.69775
1001.655, 74.00342
1002.137, 58.76074
1002.619, 39.35645
1003.101, 10.37891
1003.583, 1.954590
1004.065, 35.59033
1004.547, 71.28418
1005.029, 62.14160
1005.511, 34.79150
1005.994, 24.42676
1006.476, 30.93115
1006.958, 33.94238
1007.440, 26.73535
1007.922, 15.34375
1008.404, 2.420410
1008.886, 17.99561
1009.368, 20.40869
1009.851, 21.08936
1010.333, 41.14258
1010.815, 73.38330
1011.297, 81.15918
1011.779, 40.60449
1012.261, 22.53564
1012.743, 83.42236
1013.225, 146.2056
1013.707, 162.4116
1014.190, 155.9790
1014.672, 146.4585
1015.154, 141.4634
1015.636, 152.9971
1016.118, 186.5884
1016.600, 226.8413
1017.082, 281.2109
1017.564, 324.9746
1018.047, 332.6631
1018.529, 332.4771
1019.011, 356.6499
1019.493, 398.6294
1019.975, 431.3442
1020.457, 447.8013
1020.939, 458.7681
1021.421, 452.4043
1021.903, 460.5024
1022.386, 514.9463
1022.868, 575.9307
1023.350, 601.0269
1023.832, 603.0688
1024.314, 621.9922
1024.796, 667.6357
1025.278, 712.5713
1025.760, 753.1499
1026.242, 787.1079
1026.725, 797.4028
1027.207, 815.2266
1027.689, 882.4146
1028.171, 971.1274
1028.653, 1016.143
1029.135, 1002.615
1029.617, 1001.508
1030.099, 1036.417
1030.582, 1070.294
1031.064, 1090.979
1031.546, 1109.862
1032.028, 1132.150
1032.510, 1159.213
1032.992, 1193.617
1033.474, 1235.976
1033.956, 1279.283
1034.438, 1325.564
1034.921, 1368.477
1035.403, 1407.383
1035.885, 1442.308
1036.367, 1475.507
1036.849, 1503.442
1037.331, 1516.571
1037.813, 1514.166
1038.295, 1524.906
1038.778, 1567.750
1039.260, 1593.074
1039.742, 1579.535
1040.224, 1572.766
1040.706, 1598.139
1041.188, 1634.321
1041.670, 1654.558
1042.152, 1661.316
1042.635, 1684.084
1043.117, 1740.164
1043.599, 1772.782
1044.081, 1767.458
1044.563, 1761.145
1045.045, 1761.022
1045.527, 1775.534
1046.009, 1821.934
1046.491, 1888.250
1046.974, 1916.916
1047.456, 1893.938
1047.938, 1880.163
1048.420, 1873.678
1048.902, 1885.594
1049.384, 1926.188
1049.866, 1968.228
1050.348, 1987.632
1050.830, 1992.713
1051.313, 2005.774
1051.795, 2027.508
1052.277, 2050.823
1052.759, 2076.355
1053.241, 2100.364
1053.723, 2123.872
1054.205, 2132.632
1054.687, 2113.104
1055.169, 2086.058
1055.652, 2097.017
1056.134, 2140.098
1056.616, 2134.260
1057.098, 2079.921
1057.580, 2046.694
1058.062, 2046.722
1058.544, 2049.912
1059.026, 2041.404
1059.509, 2021.191
1059.991, 1987.020
1060.473, 1942.993
1060.955, 1903.852
1061.437, 1866.779
1061.919, 1822.028
1062.401, 1767.492
1062.883, 1692.350
1063.365, 1593.768
1063.848, 1505.492
1064.330, 1465.745
1064.812, 1446.513
1065.294, 1398.188
1065.776, 1330.572
1066.258, 1258.583
1066.740, 1189.611
1067.222, 1150.828
1067.705, 1143.643
1068.187, 1125.255
1068.669, 1064.582
1069.151, 988.5801
1069.633, 917.0127
1070.115, 857.1484
1070.597, 831.1094
1071.079, 819.5122
1071.562, 777.6650
1072.044, 707.8013
1072.526, 653.2095
1073.008, 634.7920
1073.490, 622.4062
1073.972, 593.5010
1074.454, 561.8760
1074.936, 536.7900
1075.418, 517.2480
1075.901, 504.0757
1076.383, 494.4463
1076.865, 480.7080
1077.347, 460.5308
1077.829, 445.7241
1078.311, 461.8364
1078.793, 457.9346
1079.275, 383.7515
1079.757, 305.9907
1080.240, 277.2720
1080.722, 279.7510
1081.204, 282.3779
1081.686, 281.0869
1082.168, 275.6660
1082.650, 272.0161
1083.132, 255.0239
1083.614, 207.3857
1084.096, 164.0029
1084.579, 137.0884
1085.061, 125.0723
1085.543, 135.3330
1086.025, 160.4619
1086.507, 163.5166
1086.989, 131.9771
1087.471, 113.1343
1087.953, 116.9487
1088.436, 111.5312
1088.918, 80.09326
1089.400, 52.36279
1089.882, 52.90234
1090.364, 68.71094
1090.846, 71.82617
1091.328, 61.67676
1091.810, 55.10059
1092.292, 52.20947
1092.775, 53.44971
1093.257, 61.60303
1093.739, 66.41016
1094.221, 62.52197
1094.703, 58.08105
1095.185, 64.83545
1095.667, 76.33984
1096.149, 65.79102
1096.632, 36.44531
1097.114, 7.364746
1097.596, 17.70898
1098.078, 20.33545
1098.560, 4.526855
1099.042, 40.18848
1099.524, 77.24365
1100.006, 101.7539
1100.489, 80.45312
1100.971, 38.27686
1101.453, 22.95752
1101.935, 31.39111
1102.417, 57.50684
1102.899, 93.64746
1103.381, 118.7749
1103.863, 122.5737
1104.345, 119.0430
1104.828, 120.4355
1105.310, 118.9194
1105.792, 102.8516
1106.274, 83.04492
1106.756, 67.28955
1107.238, 60.60791
1107.720, 73.61670
1108.202, 107.2290
1108.684, 139.3184
1109.167, 166.1763
1109.649, 181.9839
1110.131, 168.5303
1110.613, 161.2524
1111.095, 197.9082
1111.577, 241.8735
1112.059, 240.2793
1112.541, 201.8086
1113.023, 186.0742
1113.506, 210.7119
1113.988, 224.9683
1114.470, 215.3979
1114.952, 216.0703
1115.434, 246.5049
1115.916, 271.9756
1116.398, 266.2754
1116.880, 243.2510
1117.363, 227.1851
1117.845, 218.0601
1118.327, 218.6226
1118.809, 230.3079
1119.291, 245.5845
1119.773, 265.5996
1120.255, 274.7383
1120.737, 265.2778
1121.219, 250.0193
1121.702, 241.5835
1122.184, 238.6919
1122.666, 241.4575
1123.148, 247.6006
1123.630, 244.4927
1124.112, 232.9299
1124.594, 218.7136
1125.076, 203.9082
1125.559, 192.0454
1126.041, 185.4717
1126.523, 178.1711
1127.005, 158.7222
1127.487, 138.7917
1127.969, 137.8257
1128.451, 145.5898
1128.933, 145.4180
1129.416, 138.9424
1129.898, 137.2910
1130.380, 142.3821
1130.862, 141.8311
1131.344, 126.6804
1131.826, 109.2290
1132.308, 91.44922
1132.790, 78.33813
1133.272, 74.65283
1133.755, 76.50342
1134.237, 86.95874
1134.719, 98.88159
1135.201, 83.55762
1135.683, 20.07056
1136.165, 13.79517
1136.647, 15.81201
1137.129, 34.31714
1137.611, 17.79712
1138.094, 3.884766
1138.576, 19.01831
1139.058, 42.59863
1139.540, 42.95898
1140.022, 23.11670
1140.504, 11.35522
1140.986, 8.232666
1141.468, 10.14014
1141.950, 17.77905
1142.433, 19.28809
1142.915, 10.34692
1143.397, 0.9296880
1143.879, 8.197021
1144.361, 14.97681
1144.843, 32.41089
1145.325, 52.74878
1145.807, 48.31396
1146.290, 26.77710
1146.772, 13.00757
1147.254, 7.915771
1147.736, 3.634766
1148.218, 26.47485
1148.700, 45.05078
1149.182, 50.66821
1149.664, 42.56323
1150.146, 2.513916
1150.629, 35.01221
1151.111, 24.92993
1151.593, 4.668457
1152.075, 6.536133
1152.557, 16.83984
1153.039, 27.44238
1153.521, 11.79565
1154.003, 0.5744630
1154.486, 0.2426760
1154.968, 0.7751460
1155.450, 4.829102
1155.932, 9.322021
1156.414, 3.338623
1156.896, 2.308350
1157.378, 12.14062
1157.860, 43.91040
1158.343, 59.88159
1158.825, 57.41992
1159.307, 50.24438
1159.789, 38.03735
1160.271, 25.93579
1160.753, 14.69775
1161.235, 11.41650
1161.717, 22.41479
1162.199, 37.81079
1162.682, 39.82715
1163.164, 32.98560
1163.646, 34.33496
1164.128, 39.71362
1164.610, 32.59351
1165.092, 15.69165
1165.574, 6.887207
1166.056, 11.54590
1166.538, 21.63940
1167.021, 33.81860
1167.503, 44.47192
1167.985, 54.31372
1168.467, 57.46753
1168.949, 43.59497
1169.431, 23.57617
1169.913, 7.638428
1170.395, 1.693604
1170.877, 1.186279
1171.360, 10.82104
1171.842, 23.30371
1172.324, 38.27075
1172.806, 47.38452
1173.288, 36.75684
1173.770, 39.51025
1174.252, 83.69824
1174.734, 127.4585
1175.217, 123.7004
1175.699, 86.24341
1176.181, 64.90967
1176.663, 59.36597
1177.145, 71.50757
1177.627, 102.3364
1178.109, 98.33789
1178.591, 50.78418
1179.073, 17.92480
1179.556, 26.74707
1180.038, 45.21069
1180.520, 51.88452
1181.002, 56.13086
1181.484, 65.13184
1181.966, 72.41553
1182.448, 62.74976
1182.930, 41.76782
1183.413, 49.08105
1183.895, 71.86426
1184.377, 83.11304
1184.859, 65.80908
1185.341, 53.66626
1185.823, 70.54443
1186.305, 83.70923
1186.787, 78.02832
1187.270, 64.27124
1187.752, 40.17529
1188.234, 19.19287
1188.716, 24.96582
1189.198, 51.26294
1189.680, 58.43604
1190.162, 36.95264
1190.644, 32.88037
1191.126, 53.78687
1191.609, 53.67554
1192.091, 17.57690
1192.573, 3.903809
1193.055, 23.49072
1193.537, 58.60059
1194.019, 41.55615
1194.501, 0.6328130
1194.983, 3.676025
1195.465, 34.39502
1195.948, 32.76733
1196.430, 9.742920
1196.912, 10.94165
1197.394, 39.84375
1197.876, 62.73022
1198.358, 64.93530
1198.840, 54.86035
1199.322, 23.24634
1199.804, 0.1838380
1200.287, 7.179443
1200.769, 23.20947
1201.251, 35.03491
1201.733, 41.40601
1202.215, 41.13940
1202.697, 34.90747
1203.179, 27.93872
1203.661, 16.94702
1204.144, 10.67139
1204.626, 4.116455
1205.108, 6.306152
1205.590, 18.54004
1206.072, 38.39282
1206.554, 67.16455
1207.036, 85.69775
1207.518, 66.07739
1208.000, 28.38550
1208.483, 19.28296
1208.965, 27.89404
1209.447, 17.98804
1209.929, 1.125977
1210.411, 8.334717
1210.893, 44.18823
1211.375, 69.70215
1211.857, 70.25000
1212.340, 54.85132
1212.822, 23.53760
1213.304, 3.2471001E-02
1213.786, 4.170410
1214.268, 0.0000000E+00
##END=



