##NAMES=Heulandite-Ca
##RRUFFID=R060465
##IDEAL CHEMISTRY=NaCa_4_(Si_27_Al_9_)O_72_&#183;24H_2_O
##LOCALITY=Garrawilla, near Gunnadah, New South Wales, Australia
##OWNER=RRUFF
##SOURCE=Michael Scott
##DESCRIPTION=Orange fan of platy crystals
##STATUS=The identification of this mineral has been confirmed by X-ray diffraction and chemical analysis
##URL=rruff.info/R060465
##MEASURED CHEMISTRY=(Ca_0.66_Na_0.24_K_0.10_)_5_(Si_0.77_Al_0.23_)_36_O_72_Â·24H_2_O
179.7447, 0.0000000E+00
180.2268, 1.584137
180.7090, 5.127686
181.1911, 9.809143
181.6732, 12.49481
182.1553, 12.48340
182.6374, 8.941895
183.1195, 5.422699
183.6017, 2.292114
184.0838, 3.0304000E-02
184.5659, 0.1804500
185.0480, 1.601349
185.5301, 2.735748
186.0123, 4.268372
186.4944, 6.057159
186.9765, 7.803894
187.4586, 9.735901
187.9407, 10.81323
188.4228, 8.672638
188.9050, 3.684204
189.3871, 0.4539490
189.8692, 1.360321
190.3513, 0.3800350
190.8334, 1.579346
191.3155, 1.925201
191.7977, 2.056274
192.2798, 2.927032
192.7619, 4.551392
193.2440, 6.336700
193.7261, 8.574371
194.2082, 11.08438
194.6904, 11.45660
195.1725, 9.072144
195.6546, 5.504974
196.1367, 3.888214
196.6188, 4.345062
197.1009, 4.906433
197.5831, 4.178955
198.0652, 2.164063
198.5473, 1.546082
199.0294, 2.914978
199.5115, 5.106140
199.9937, 5.500854
200.4758, 3.811951
200.9579, 2.132141
201.4400, 1.789001
201.9221, 2.905243
202.4042, 3.429810
202.8864, 2.900482
203.3685, 2.056580
203.8506, 3.054230
204.3327, 6.448730
204.8148, 9.388519
205.2969, 10.00778
205.7791, 7.912506
206.2612, 6.410583
206.7433, 5.821198
207.2254, 5.832367
207.7075, 5.599487
208.1896, 4.965729
208.6718, 4.530273
209.1539, 4.632599
209.6360, 5.330505
210.1181, 6.227600
210.6002, 7.190948
211.0823, 8.408783
211.5645, 10.85748
212.0466, 15.59012
212.5287, 19.08301
213.0108, 18.92590
213.4929, 13.87607
213.9750, 10.12109
214.4572, 8.211853
214.9393, 7.730316
215.4214, 7.360840
215.9035, 6.903778
216.3856, 6.939270
216.8678, 7.947479
217.3499, 10.39328
217.8320, 12.36951
218.3141, 13.92859
218.7962, 14.90512
219.2783, 14.37863
219.7605, 11.15811
220.2426, 8.575897
220.7247, 8.831482
221.2068, 13.53189
221.6889, 16.30887
222.1710, 15.99722
222.6532, 13.79681
223.1353, 13.50467
223.6174, 15.73776
224.0995, 18.86646
224.5816, 22.39224
225.0637, 27.33762
225.5459, 30.00125
226.0280, 29.23059
226.5101, 26.34818
226.9922, 25.69543
227.4743, 29.08917
227.9564, 31.84656
228.4386, 31.16354
228.9207, 24.23074
229.4028, 20.85950
229.8849, 22.53232
230.3670, 27.47858
230.8492, 30.96686
231.3313, 32.67682
231.8134, 33.41794
232.2955, 33.45325
232.7776, 32.57617
233.2597, 31.38120
233.7419, 29.28275
234.2240, 26.85730
234.7061, 26.31458
235.1882, 28.81372
235.6703, 31.21576
236.1524, 32.23615
236.6346, 31.10394
237.1167, 30.54959
237.5988, 30.58121
238.0809, 31.28799
238.5630, 32.81503
239.0451, 35.45456
239.5273, 38.03897
240.0094, 40.23010
240.4915, 42.14273
240.9736, 43.40787
241.4557, 43.44550
241.9378, 43.28607
242.4200, 45.03229
242.9021, 50.45947
243.3842, 54.57489
243.8663, 55.07553
244.3484, 49.87650
244.8306, 47.63599
245.3127, 49.70401
245.7948, 54.04956
246.2769, 56.93814
246.7590, 57.74200
247.2411, 58.06772
247.7233, 58.60004
248.2054, 59.88647
248.6875, 59.89630
249.1696, 58.19946
249.6517, 55.63986
250.1338, 53.40173
250.6160, 51.17349
251.0981, 49.87634
251.5802, 49.89508
252.0623, 51.61298
252.5444, 51.85181
253.0265, 50.14923
253.5087, 47.61017
253.9908, 45.81931
254.4729, 45.08813
254.9550, 44.84348
255.4371, 44.62338
255.9192, 44.36984
256.4014, 44.87949
256.8835, 47.18704
257.3656, 49.58649
257.8477, 49.10800
258.3298, 43.56754
258.8120, 39.46161
259.2941, 39.26889
259.7762, 43.38327
260.2583, 44.41077
260.7404, 40.86313
261.2225, 36.07248
261.7047, 33.69302
262.1868, 34.71277
262.6689, 35.54465
263.1510, 35.51370
263.6331, 34.62671
264.1152, 32.98950
264.5974, 30.21234
265.0795, 27.29984
265.5616, 25.27304
266.0437, 24.24121
266.5258, 23.71912
267.0079, 23.57394
267.4901, 23.79062
267.9722, 25.32510
268.4543, 28.86987
268.9364, 31.97028
269.4185, 32.07043
269.9006, 28.19949
270.3828, 25.67380
270.8649, 25.70679
271.3470, 27.64600
271.8291, 28.49283
272.3112, 28.19766
272.7933, 26.92862
273.2755, 24.36328
273.7576, 20.13095
274.2397, 17.08777
274.7218, 15.70346
275.2039, 15.65533
275.6860, 16.20401
276.1682, 17.56107
276.6503, 18.73950
277.1324, 19.35358
277.6145, 19.46317
278.0966, 17.91199
278.5787, 13.83517
279.0609, 8.998596
279.5430, 7.698578
280.0251, 10.47525
280.5072, 13.56866
280.9893, 15.15897
281.4715, 15.24454
281.9536, 14.25598
282.4357, 11.90503
282.9178, 9.076233
283.3999, 7.179291
283.8820, 6.223175
284.3642, 5.907501
284.8463, 6.631378
285.3284, 8.200195
285.8105, 8.095215
286.2926, 5.913025
286.7747, 3.279724
287.2569, 2.681519
287.7390, 4.032654
288.2211, 5.165619
288.7032, 4.993835
289.1853, 3.853241
289.6674, 3.130371
290.1496, 2.799713
290.6317, 3.022675
291.1138, 4.558441
291.5959, 7.131073
292.0780, 8.728485
292.5602, 8.381378
293.0423, 6.753174
293.5244, 5.536133
294.0065, 4.759674
294.4886, 3.894714
294.9707, 3.158269
295.4529, 0.7457890
295.9350, 2.074158
296.4171, 1.156097
296.8992, 0.9107670
297.3813, 2.624603
297.8634, 3.933258
298.3456, 4.253937
298.8277, 4.544441
299.3098, 1.577545
299.7919, 3.317749
300.2740, 2.140991
300.7561, 0.2821040
301.2383, 2.140228
301.7204, 3.465363
302.2025, 4.249420
302.6846, 4.207001
303.1667, 3.714569
303.6488, 3.349274
304.1310, 3.234253
304.6131, 3.146179
305.0952, 3.051880
305.5773, 2.836090
306.0594, 2.189728
306.5415, 0.7147520
307.0237, 1.160492
307.5058, 3.484528
307.9879, 6.504669
308.4700, 8.160919
308.9521, 5.521362
309.4343, 6.599515
309.9164, 3.223694
310.3985, 4.183105
310.8806, 3.600311
311.3627, 1.707275
311.8448, 1.516846
312.3270, 3.567291
312.8091, 1.195038
313.2912, 2.635620
313.7733, 4.422821
314.2554, 2.1484001E-02
314.7375, 4.275665
315.2197, 4.540833
315.7018, 1.221527
316.1839, 2.097321
316.6660, 4.297150
317.1481, 5.563934
317.6302, 5.988831
318.1124, 4.930603
318.5945, 3.884003
319.0766, 3.334595
319.5587, 3.193878
320.0408, 3.145050
320.5229, 2.681458
321.0051, 2.565735
321.4872, 3.488190
321.9693, 7.049683
322.4514, 8.799408
322.9335, 6.599854
323.4156, 2.083069
323.8978, 1.605774
324.3799, 4.687347
324.8620, 6.197266
325.3441, 5.403931
325.8262, 1.331879
326.3083, 2.094543
326.7905, 4.926361
327.2726, 6.853485
327.7547, 7.463501
328.2368, 4.886505
328.7189, 2.945496
329.2010, 2.644806
329.6832, 4.187866
330.1653, 5.100952
330.6474, 5.084625
331.1295, 4.653961
331.6116, 4.149139
332.0938, 2.898376
332.5759, 2.719910
333.0580, 4.591187
333.5401, 8.040588
334.0222, 9.260773
334.5043, 7.073517
334.9865, 4.300903
335.4686, 2.539764
335.9507, 1.933380
336.4328, 1.980469
336.9149, 2.785034
337.3970, 4.162903
337.8792, 5.821594
338.3613, 8.189209
338.8434, 9.668823
339.3255, 8.914673
339.8076, 5.329041
340.2898, 4.452423
340.7719, 7.028412
341.2540, 11.00998
341.7361, 13.60010
342.2182, 14.70004
342.7003, 14.96124
343.1825, 14.17325
343.6646, 12.59625
344.1467, 12.29648
344.6288, 13.46719
345.1109, 14.77347
345.5930, 14.58591
346.0752, 13.07864
346.5573, 12.19989
347.0394, 12.53052
347.5215, 13.64423
348.0036, 14.67966
348.4857, 15.64676
348.9679, 16.67468
349.4500, 17.91864
349.9321, 19.27426
350.4142, 20.30255
350.8963, 20.65860
351.3784, 21.37610
351.8606, 24.51144
352.3427, 29.36389
352.8248, 33.39621
353.3069, 34.81412
353.7890, 34.61243
354.2711, 33.81390
354.7533, 32.40466
355.2354, 31.74649
355.7175, 33.65372
356.1996, 37.02972
356.6817, 39.94473
357.1638, 41.15094
357.6460, 41.77682
358.1281, 43.08392
358.6102, 45.05026
359.0923, 46.33087
359.5744, 45.05914
360.0565, 43.14948
360.5387, 42.48468
361.0208, 44.10095
361.5029, 46.41168
361.9850, 49.10565
362.4671, 52.00967
362.9492, 54.54697
363.4314, 56.35812
363.9135, 57.85132
364.3956, 59.19763
364.8777, 60.34888
365.3598, 61.33072
365.8419, 61.44809
366.3241, 61.58920
366.8062, 63.22897
367.2883, 67.82449
367.7704, 72.80392
368.2526, 77.71585
368.7347, 82.77451
369.2168, 86.36618
369.6989, 87.22275
370.1810, 87.21344
370.6631, 88.17056
371.1453, 91.19565
371.6274, 93.38647
372.1095, 93.94632
372.5916, 93.01355
373.0737, 92.83618
373.5558, 93.33231
374.0380, 95.19336
374.5201, 99.20361
375.0022, 106.5753
375.4843, 111.7357
375.9664, 113.6929
376.4485, 114.0638
376.9307, 116.0871
377.4128, 119.9588
377.8949, 124.6080
378.3770, 130.1255
378.8591, 136.3660
379.3412, 140.5436
379.8234, 142.2855
380.3055, 143.1455
380.7876, 144.4496
381.2697, 146.2385
381.7518, 148.9418
382.2339, 152.8420
382.7161, 157.5715
383.1982, 162.4330
383.6803, 167.5788
384.1624, 172.7115
384.6445, 177.0483
385.1266, 181.1944
385.6088, 187.0268
386.0909, 195.3105
386.5730, 203.7494
387.0551, 209.2629
387.5372, 212.5800
388.0193, 215.8893
388.5015, 220.3622
388.9836, 225.4915
389.4657, 230.0967
389.9478, 233.8437
390.4299, 238.8160
390.9120, 248.4615
391.3942, 259.5260
391.8763, 267.8158
392.3584, 268.7619
392.8405, 269.5432
393.3226, 273.9078
393.8047, 281.2785
394.2869, 289.0342
394.7690, 297.1914
395.2511, 304.8260
395.7332, 310.9709
396.2154, 314.2332
396.6975, 318.4809
397.1796, 326.0291
397.6617, 334.8747
398.1438, 341.5310
398.6259, 342.6890
399.1081, 344.4512
399.5902, 349.1017
400.0723, 357.3646
400.5544, 363.5167
401.0365, 366.1807
401.5186, 367.7516
402.0008, 370.3305
402.4829, 375.6237
402.9650, 378.6659
403.4471, 378.4980
403.9292, 375.6561
404.4113, 372.2779
404.8935, 368.0659
405.3756, 363.9584
405.8577, 361.0023
406.3398, 359.7553
406.8219, 355.3844
407.3040, 347.0176
407.7862, 337.1017
408.2683, 329.0652
408.7504, 322.9691
409.2325, 317.0525
409.7146, 310.9601
410.1967, 304.6006
410.6789, 297.0406
411.1610, 288.2527
411.6431, 279.1612
412.1252, 270.1949
412.6073, 261.5804
413.0894, 254.1965
413.5716, 248.6864
414.0537, 243.7550
414.5358, 238.0552
415.0179, 231.7191
415.5000, 224.9854
415.9821, 218.1122
416.4643, 210.9032
416.9464, 202.6658
417.4285, 193.2599
417.9106, 184.8357
418.3927, 179.7513
418.8748, 176.0852
419.3570, 171.6521
419.8391, 164.7070
420.3212, 157.7766
420.8033, 152.3668
421.2854, 148.0334
421.7675, 142.5718
422.2497, 133.1155
422.7318, 123.9994
423.2139, 118.0747
423.6960, 118.3295
424.1781, 115.9513
424.6602, 107.2672
425.1424, 96.15903
425.6245, 88.46286
426.1066, 87.79938
426.5887, 86.08987
427.0709, 81.15210
427.5530, 72.98669
428.0351, 66.38284
428.5172, 61.51715
428.9993, 57.86182
429.4814, 55.43851
429.9636, 54.96835
430.4457, 52.73422
430.9278, 47.80966
431.4099, 41.57281
431.8920, 37.19397
432.3741, 34.85794
432.8563, 32.63193
433.3384, 29.44919
433.8205, 25.51828
434.3026, 22.47302
434.7847, 20.37448
435.2668, 18.55338
435.7490, 15.93155
436.2311, 12.91840
436.7132, 11.31897
437.1953, 12.54092
437.6774, 14.06085
438.1595, 11.52954
438.6417, 5.948151
439.1238, 1.458679
439.6059, 1.441437
440.0880, 3.338623
440.5701, 4.490540
441.0522, 4.534424
441.5344, 4.378876
442.0165, 4.710724
442.4986, 5.141296
442.9807, 5.191528
443.4628, 4.160797
443.9449, 3.250519
444.4271, 3.585297
444.9092, 4.739716
445.3913, 4.286987
445.8734, 1.361786
446.3555, 6.464386
446.8376, 7.808563
447.3198, 2.126007
447.8019, 1.253143
448.2840, 0.8430180
448.7661, 1.438782
449.2482, 3.051239
449.7303, 4.140747
450.2125, 4.193970
450.6946, 2.446503
451.1767, 0.8465580
451.6588, 1.322784
452.1409, 2.395294
452.6230, 5.726227
453.1052, 4.933624
453.5873, 6.589670
454.0694, 5.001709
454.5515, 8.605316
455.0337, 11.47198
455.5158, 14.10779
455.9979, 16.50171
456.4800, 18.16208
456.9621, 18.16306
457.4442, 17.50958
457.9264, 18.78482
458.4085, 21.95917
458.8906, 25.82855
459.3727, 29.26605
459.8548, 32.23907
460.3369, 34.76758
460.8191, 36.70621
461.3012, 38.89105
461.7833, 42.58167
462.2654, 47.08673
462.7475, 50.97443
463.2296, 52.88892
463.7118, 54.55121
464.1939, 57.28741
464.6760, 61.21066
465.1581, 64.54678
465.6402, 65.88287
466.1223, 66.80365
466.6045, 68.56299
467.0866, 72.44351
467.5687, 75.91971
468.0508, 78.89294
468.5329, 81.37799
469.0150, 83.54871
469.4972, 84.84177
469.9793, 86.10458
470.4614, 87.97510
470.9435, 90.53671
471.4256, 91.75427
471.9077, 90.78000
472.3899, 90.16739
472.8720, 92.87698
473.3541, 99.36246
473.8362, 103.7984
474.3183, 104.8552
474.8004, 104.3697
475.2826, 105.6649
475.7647, 108.6909
476.2468, 112.8386
476.7289, 117.9200
477.2110, 123.9776
477.6931, 131.8250
478.1753, 141.4351
478.6574, 149.5548
479.1395, 151.4954
479.6216, 150.9164
480.1037, 153.4898
480.5858, 162.2179
481.0680, 171.7617
481.5501, 178.0392
482.0322, 182.0063
482.5143, 186.1790
482.9964, 193.2903
483.4786, 199.6530
483.9607, 204.0499
484.4428, 206.3960
484.9249, 205.5746
485.4070, 198.0089
485.8892, 189.3479
486.3713, 183.6245
486.8534, 183.4760
487.3355, 182.5082
487.8176, 180.8865
488.2997, 178.3036
488.7819, 173.8318
489.2640, 166.7170
489.7461, 159.2860
490.2282, 152.4528
490.7103, 146.0367
491.1924, 137.9889
491.6746, 127.7274
492.1567, 118.3231
492.6388, 113.2456
493.1209, 111.3825
493.6030, 106.7999
494.0851, 98.18820
494.5673, 88.40845
495.0494, 81.72586
495.5315, 77.42609
496.0136, 73.20822
496.4957, 67.48703
496.9778, 61.47757
497.4600, 56.19296
497.9421, 51.69931
498.4242, 48.15057
498.9063, 46.82837
499.3884, 45.78635
499.8705, 43.03201
500.3527, 37.18326
500.8348, 32.13464
501.3169, 30.36475
501.7990, 30.01514
502.2811, 28.45132
502.7632, 22.95892
503.2454, 18.66992
503.7275, 17.57635
504.2096, 19.13950
504.6917, 18.40253
505.1738, 13.54605
505.6559, 9.201233
506.1381, 8.330597
506.6202, 12.29028
507.1023, 14.11078
507.5844, 13.45950
508.0665, 11.31418
508.5486, 8.473450
509.0308, 4.880737
509.5129, 2.448853
509.9950, 1.939148
510.4771, 2.464264
510.9592, 2.284485
511.4413, 1.597260
511.9235, 1.222565
512.4056, 2.230408
512.8877, 3.751465
513.3698, 4.294037
513.8519, 3.669891
514.3340, 2.709320
514.8162, 2.365509
515.2983, 1.903351
515.7804, 0.3284610
516.2625, 4.652710
516.7446, 8.245575
517.2267, 7.657837
517.7089, 4.210724
518.1910, 1.139038
518.6731, 1.443329
519.1552, 3.031799
519.6373, 2.865356
520.1194, 0.6607360
520.6016, 1.9531000E-02
521.0837, 2.336334
521.5658, 4.665863
522.0479, 4.468903
522.5300, 0.4945070
523.0121, 1.268585
523.4943, 0.1555790
523.9764, 3.178192
524.4585, 5.403168
524.9406, 6.813385
525.4227, 6.663025
525.9048, 3.413513
526.3870, 0.9584050
526.8691, 0.7159730
527.3513, 3.842560
527.8334, 8.155304
528.3155, 8.668640
528.7976, 7.012848
529.2797, 5.285309
529.7618, 3.616669
530.2440, 2.673065
530.7261, 3.814545
531.2082, 5.684265
531.6903, 6.523743
532.1724, 4.478485
532.6545, 2.680206
533.1367, 2.520538
533.6188, 3.486572
534.1009, 3.718384
534.5830, 1.932892
535.0651, 0.3516850
535.5472, 0.1525270
536.0294, 0.6361390
536.5115, 0.9257200
536.9936, 0.6616210
537.4757, 2.0293999E-02
537.9578, 1.507813
538.4399, 4.304749
538.9221, 4.384216
539.4042, 5.863625
539.8863, 4.819489
540.3684, 6.560455
540.8505, 5.027435
541.3326, 3.491577
541.8148, 3.440735
542.2969, 4.115143
542.7790, 4.054138
543.2611, 3.366028
543.7432, 2.905792
544.2253, 3.739227
544.7075, 4.837097
545.1896, 4.978546
545.6717, 3.804688
546.1538, 2.786133
546.6359, 2.413025
547.1180, 2.664978
547.6002, 3.530396
548.0823, 7.572296
548.5644, 9.273193
549.0465, 5.356964
549.5286, 1.723419
550.0107, 4.765106
550.4929, 1.547852
550.9750, 2.429657
551.4571, 5.896454
551.9392, 8.862610
552.4213, 9.532990
552.9034, 7.240326
553.3856, 4.751282
553.8677, 4.369446
554.3498, 5.944519
554.8319, 7.967102
555.3140, 10.56506
555.7961, 12.55731
556.2783, 11.70856
556.7604, 8.930573
557.2425, 6.802277
557.7246, 6.476288
558.2067, 7.003967
558.6888, 7.797058
559.1710, 8.745941
559.6531, 9.461426
560.1352, 10.00922
560.6173, 10.06296
561.0994, 9.091125
561.5815, 6.848297
562.0637, 5.444305
562.5458, 6.086212
563.0279, 7.199677
563.5100, 7.613739
563.9921, 6.690369
564.4742, 6.165558
564.9564, 6.101166
565.4385, 6.422791
565.9206, 7.132477
566.4027, 8.347595
566.8848, 9.359741
567.3669, 10.15280
567.8491, 10.49188
568.3312, 9.250031
568.8133, 6.493500
569.2954, 3.776611
569.7775, 1.380066
570.2596, 7.2692998E-02
570.7418, 1.249481
571.2239, 5.549286
571.7060, 9.746277
572.1881, 11.27567
572.6702, 11.53076
573.1523, 12.13928
573.6345, 14.04150
574.1166, 14.99481
574.5987, 14.01941
575.0808, 12.00391
575.5629, 10.14914
576.0450, 7.462311
576.5272, 6.221893
577.0093, 7.484344
577.4914, 10.70560
577.9735, 12.13852
578.4556, 10.88492
578.9377, 9.777679
579.4199, 10.21707
579.9020, 12.23416
580.3841, 13.97015
580.8662, 15.37100
581.3483, 16.59415
581.8304, 17.72717
582.3126, 18.57217
582.7947, 18.66132
583.2768, 17.87216
583.7589, 16.41656
584.2410, 13.56854
584.7231, 10.29211
585.2053, 8.293610
585.6874, 9.296997
586.1696, 10.48584
586.6517, 9.690613
587.1338, 7.572266
587.6159, 7.177338
588.0980, 10.75418
588.5801, 14.59421
589.0623, 17.38339
589.5444, 19.00134
590.0265, 20.31888
590.5086, 21.30731
590.9907, 22.03757
591.4728, 22.70612
591.9550, 22.91913
592.4371, 23.13220
592.9192, 23.65445
593.4013, 24.26105
593.8834, 24.42911
594.3655, 24.27676
594.8477, 24.77197
595.3298, 26.57523
595.8119, 28.63141
596.2940, 29.47241
596.7761, 29.48083
597.2582, 29.65820
597.7404, 30.43933
598.2225, 31.20084
598.7046, 31.61246
599.1867, 31.63434
599.6688, 31.62039
600.1509, 30.42459
600.6331, 29.92386
601.1152, 31.71262
601.5973, 37.57910
602.0794, 41.53534
602.5615, 42.62015
603.0436, 42.66403
603.5258, 43.73221
604.0079, 46.00391
604.4900, 48.26752
604.9721, 50.51935
605.4542, 52.45499
605.9363, 53.19534
606.4185, 52.82001
606.9006, 52.40820
607.3827, 52.19513
607.8648, 52.05493
608.3469, 51.99451
608.8290, 52.08105
609.3112, 52.52640
609.7933, 53.09448
610.2754, 54.29172
610.7575, 57.13004
611.2396, 62.03387
611.7217, 65.28223
612.2039, 65.14590
612.6860, 63.37869
613.1681, 61.22794
613.6502, 58.15524
614.1323, 55.75949
614.6144, 54.18210
615.0966, 53.17255
615.5787, 52.52316
616.0608, 52.34842
616.5429, 51.89410
617.0250, 50.89603
617.5071, 49.61810
617.9893, 48.73666
618.4714, 48.20691
618.9535, 47.64127
619.4356, 47.10480
619.9177, 46.24045
620.3998, 44.29233
620.8820, 41.40884
621.3641, 38.89368
621.8462, 37.30106
622.3283, 36.43027
622.8104, 36.43427
623.2925, 37.77563
623.7747, 38.14938
624.2568, 36.16919
624.7389, 33.65115
625.2210, 32.15952
625.7031, 32.71445
626.1852, 31.93015
626.6674, 29.18024
627.1495, 25.48019
627.6316, 22.19882
628.1137, 19.30325
628.5958, 18.00214
629.0779, 19.37299
629.5601, 21.65909
630.0422, 21.03784
630.5243, 18.11676
631.0064, 15.74008
631.4885, 16.37363
631.9706, 17.69138
632.4528, 17.20212
632.9349, 15.03168
633.4170, 13.40329
633.8991, 13.90619
634.3812, 14.77914
634.8633, 14.79483
635.3455, 13.17081
635.8276, 12.93323
636.3097, 15.66821
636.7918, 18.40707
637.2739, 18.28525
637.7560, 14.23199
638.2382, 11.77859
638.7203, 11.80719
639.2024, 12.72867
639.6845, 11.79871
640.1666, 9.308441
640.6487, 7.810913
641.1309, 8.588745
641.6130, 9.966888
642.0951, 9.631805
642.5772, 7.977509
643.0594, 6.126343
643.5415, 4.483826
644.0236, 2.923553
644.5057, 0.8187260
644.9879, 1.612610
645.4700, 2.348999
645.9521, 1.107147
646.4342, 4.533142
646.9163, 6.268646
647.3984, 6.279480
647.8806, 4.562683
648.3627, 0.2276920
648.8448, 4.232910
649.3269, 3.459747
649.8090, 2.093719
650.2911, 5.217316
650.7733, 5.093201
651.2554, 3.949188
651.7375, 4.654480
652.2196, 6.412445
652.7017, 7.160248
653.1838, 5.809967
653.6660, 4.318298
654.1481, 4.471527
654.6302, 5.435913
655.1123, 5.699860
655.5944, 4.164978
656.0765, 2.468140
656.5587, 0.5567020
657.0408, 1.237152
657.5229, 1.374054
658.0050, 1.291718
658.4871, 3.673676
658.9692, 4.750275
659.4514, 4.582550
659.9335, 3.513519
660.4156, 1.388214
660.8977, 0.3437190
661.3798, 0.3264160
661.8619, 0.8737490
662.3441, 1.726624
662.8262, 2.137817
663.3083, 2.556915
663.7904, 3.675171
664.2725, 4.839691
664.7546, 5.264130
665.2368, 4.536865
665.7189, 3.784668
666.2010, 3.088745
666.6831, 2.695160
667.1652, 2.946167
667.6473, 4.659515
668.1295, 5.738983
668.6116, 5.832367
669.0937, 5.330872
669.5758, 5.123138
670.0579, 5.253204
670.5400, 4.647400
671.0222, 2.712952
671.5043, 0.3830870
671.9864, 0.1848140
672.4685, 0.6954350
672.9506, 1.491272
673.4327, 0.9739990
673.9149, 0.2477110
674.3970, 9.3689999E-03
674.8791, 0.3514400
675.3612, 1.718231
675.8433, 6.698181
676.3254, 10.73257
676.8076, 10.67462
677.2897, 5.395294
677.7718, 2.622040
678.2539, 3.812073
678.7360, 5.526886
679.2181, 5.314484
679.7003, 2.991730
680.1824, 1.859161
680.6645, 1.939026
681.1466, 2.988403
681.6287, 5.857300
682.1108, 9.660187
682.5930, 11.61389
683.0751, 10.92072
683.5572, 9.198883
684.0393, 6.697723
684.5214, 4.355988
685.0035, 3.498291
685.4857, 6.294098
685.9678, 8.592926
686.4499, 9.227142
686.9320, 8.664917
687.4141, 7.988708
687.8962, 7.026154
688.3784, 6.508240
688.8605, 6.756256
689.3426, 7.501404
689.8247, 7.740509
690.3068, 7.455261
690.7889, 7.319672
691.2711, 8.129028
691.7532, 9.099548
692.2353, 8.102814
692.7174, 5.510284
693.1995, 3.602875
693.6816, 4.591034
694.1638, 6.189819
694.6459, 6.465240
695.1280, 5.198029
695.6101, 4.588104
696.0922, 5.718536
696.5743, 7.216309
697.0565, 8.358734
697.5386, 9.083282
698.0207, 9.964874
698.5028, 11.47379
698.9849, 12.15494
699.4670, 9.806122
699.9492, 4.855713
700.4313, 2.034943
700.9135, 2.132446
701.3956, 3.061584
701.8777, 2.438843
702.3598, 1.112610
702.8419, 0.5172420
703.3240, 1.450562
703.8062, 2.738434
704.2883, 3.871002
704.7704, 4.666870
705.2525, 4.853638
705.7346, 3.828796
706.2167, 2.859802
706.6989, 1.728241
707.1810, 0.8583070
707.6631, 0.7111510
708.1452, 1.097565
708.6273, 2.000092
709.1094, 3.893555
709.5916, 5.841492
710.0737, 4.936127
710.5558, 1.801086
711.0379, 0.3874820
711.5200, 0.9843440
712.0021, 3.377167
712.4843, 4.517670
712.9664, 4.613953
713.4485, 4.965668
713.9306, 7.443726
714.4127, 9.000610
714.8948, 7.342010
715.3770, 2.452850
715.8591, 2.5390999E-02
716.3412, 0.9997250
716.8233, 2.359528
717.3054, 2.107910
717.7875, 0.3604130
718.2697, 0.4897770
718.7518, 2.637115
719.2339, 4.633240
719.7160, 3.930267
720.1981, 2.097900
720.6802, 1.841919
721.1624, 3.619629
721.6445, 5.466461
722.1266, 6.721832
722.6087, 7.228302
723.0908, 6.754761
723.5729, 4.704559
724.0551, 2.805298
724.5372, 1.057220
725.0193, 0.4283140
725.5014, 1.548676
725.9835, 2.325500
726.4656, 2.658997
726.9478, 2.615417
727.4299, 1.918396
727.9120, 0.5991210
728.3941, 4.176605
728.8762, 6.119293
729.3583, 5.062714
729.8405, 3.476471
730.3226, 3.367157
730.8047, 4.155975
731.2868, 4.895020
731.7689, 4.561066
732.2510, 5.010986
732.7332, 8.040649
733.2153, 11.84375
733.6974, 12.47281
734.1795, 8.535858
734.6616, 5.302826
735.1437, 4.489685
735.6259, 4.862823
736.1080, 2.635590
736.5901, 1.808685
737.0722, 5.063965
737.5543, 5.072266
738.0364, 3.375854
738.5186, 1.077942
739.0007, 1.513824
739.4828, 3.373627
739.9649, 3.624756
740.4470, 3.457642
740.9291, 3.123657
741.4113, 2.712555
741.8934, 3.159149
742.3755, 5.632446
742.8576, 6.749756
743.3397, 4.108185
743.8218, 1.423706
744.3040, 1.586639
744.7861, 3.774353
745.2682, 1.633954
745.7503, 6.393860
746.2324, 1.603760
746.7145, 0.7526250
747.1967, 3.804413
747.6788, 6.479126
748.1609, 6.079071
748.6430, 4.750885
749.1251, 3.773712
749.6072, 3.284515
750.0894, 3.137634
750.5715, 3.361023
751.0536, 3.864624
751.5357, 4.631104
752.0178, 5.689606
752.4999, 6.857300
752.9821, 8.198181
753.4642, 9.281616
753.9463, 9.533569
754.4284, 9.264954
754.9105, 9.075562
755.3926, 9.041565
755.8748, 9.048859
756.3569, 9.041748
756.8390, 9.024719
757.3211, 9.013763
757.8032, 9.069946
758.2853, 8.957367
758.7675, 8.396881
759.2496, 7.928894
759.7318, 8.014557
760.2139, 8.665344
760.6960, 10.00192
761.1781, 12.29807
761.6602, 14.34073
762.1423, 14.03400
762.6245, 12.37930
763.1066, 11.97928
763.5887, 13.78384
764.0708, 15.61099
764.5529, 15.82358
765.0350, 15.23587
765.5172, 14.81046
765.9993, 14.17569
766.4814, 14.58456
766.9635, 16.87112
767.4456, 19.59256
767.9277, 20.75360
768.4099, 20.11343
768.8920, 19.52103
769.3741, 19.35968
769.8562, 19.25394
770.3383, 18.39520
770.8204, 17.16434
771.3026, 16.58447
771.7847, 16.98486
772.2668, 18.10516
772.7489, 20.84888
773.2310, 23.93033
773.7131, 25.29648
774.1953, 22.85077
774.6774, 20.79776
775.1595, 19.34592
775.6416, 18.68005
776.1237, 19.44351
776.6058, 21.88968
777.0880, 23.67834
777.5701, 23.86877
778.0522, 23.80701
778.5343, 26.68750
779.0164, 31.26682
779.4985, 33.91107
779.9807, 32.03433
780.4628, 29.10110
780.9449, 26.61020
781.4270, 24.65649
781.9091, 23.38129
782.3912, 23.46381
782.8734, 23.41519
783.3555, 22.85010
783.8376, 22.07590
784.3197, 21.89905
784.8018, 22.39069
785.2839, 23.05801
785.7661, 23.89151
786.2482, 24.62158
786.7303, 24.80515
787.2124, 24.63187
787.6945, 24.64612
788.1766, 25.74066
788.6588, 26.44086
789.1409, 26.02145
789.6230, 24.63504
790.1051, 22.64078
790.5872, 19.15118
791.0693, 16.56299
791.5515, 15.51907
792.0336, 15.61215
792.5157, 15.51382
792.9978, 15.21973
793.4799, 16.08365
793.9620, 19.10291
794.4442, 22.86176
794.9263, 26.46759
795.4084, 29.40506
795.8905, 29.84750
796.3726, 23.95776
796.8547, 18.47171
797.3369, 16.44653
797.8190, 17.12488
798.3011, 17.46194
798.7832, 17.02945
799.2653, 17.10297
799.7474, 18.37585
800.2296, 20.16766
800.7117, 20.60336
801.1938, 19.83121
801.6759, 18.12805
802.1580, 15.20578
802.6401, 12.54901
803.1223, 11.43610
803.6044, 11.83075
804.0865, 13.62720
804.5686, 19.03445
805.0507, 23.36566
805.5328, 24.70023
806.0150, 23.90656
806.4971, 23.05432
806.9792, 22.09213
807.4613, 21.17905
807.9434, 20.12372
808.4255, 19.40054
808.9077, 20.79269
809.3898, 23.70175
809.8719, 25.38547
810.3540, 23.04892
810.8361, 20.69574
811.3182, 22.46310
811.8004, 26.80707
812.2825, 29.55695
812.7646, 28.87753
813.2467, 28.44836
813.7288, 29.11734
814.2109, 30.40872
814.6931, 30.90982
815.1752, 30.46432
815.6573, 30.92877
816.1394, 33.39615
816.6215, 36.15591
817.1037, 35.70111
817.5858, 33.18350
818.0679, 31.63181
818.5500, 33.00851
819.0322, 34.90829
819.5143, 36.13580
819.9964, 37.05392
820.4785, 38.51489
820.9606, 41.68845
821.4427, 43.11609
821.9249, 41.57330
822.4070, 38.73172
822.8891, 38.68076
823.3712, 41.03741
823.8533, 41.34967
824.3354, 37.63254
824.8176, 32.92856
825.2997, 30.49207
825.7818, 29.55148
826.2639, 28.83142
826.7460, 27.99219
827.2281, 27.21249
827.7103, 26.82928
828.1924, 26.38324
828.6745, 25.18274
829.1566, 23.05063
829.6387, 20.78339
830.1208, 18.29764
830.6030, 16.17245
831.0851, 15.97000
831.5672, 16.91193
832.0493, 16.62146
832.5314, 13.80600
833.0135, 11.40399
833.4957, 12.10443
833.9778, 14.08521
834.4599, 15.22696
834.9420, 15.15076
835.4241, 13.89639
835.9063, 10.37396
836.3884, 6.998779
836.8705, 7.572906
837.3526, 11.92654
837.8347, 13.16763
838.3168, 9.977570
838.7990, 6.296051
839.2811, 6.702179
839.7632, 9.039429
840.2453, 10.19986
840.7274, 9.248810
841.2095, 8.275940
841.6917, 8.049957
842.1738, 8.158051
842.6559, 8.217072
843.1380, 7.494171
843.6201, 7.590149
844.1022, 9.027893
844.5844, 10.07779
845.0665, 8.664185
845.5486, 5.629425
846.0307, 3.065033
846.5128, 1.128967
846.9949, 0.1661990
847.4771, 1.278259
847.9592, 2.908997
848.4413, 3.961548
848.9234, 4.206207
849.4055, 3.722961
849.8876, 2.061646
850.3698, 0.4979550
850.8519, 0.2789310
851.3340, 0.2989500
851.8161, 0.2076110
852.2982, 1.236786
852.7803, 2.671844
853.2625, 5.499542
853.7446, 7.970245
854.2267, 7.923431
854.7088, 5.483978
855.1909, 3.029358
855.6730, 0.3586430
856.1552, 1.127991
856.6373, 0.2464900
857.1194, 2.507874
857.6015, 2.472015
858.0836, 0.8928530
858.5657, 2.943634
859.0479, 0.4754940
859.5300, 4.008118
860.0121, 5.665771
860.4942, 5.075684
860.9763, 4.212006
861.4584, 2.958740
861.9406, 2.801239
862.4227, 5.711945
862.9048, 10.37592
863.3869, 12.09006
863.8690, 9.484772
864.3511, 7.419006
864.8333, 7.295471
865.3154, 5.140721
865.7975, 6.297150
866.2796, 3.052063
866.7617, 1.738098
867.2438, 1.645408
867.7260, 8.245056
868.2081, 3.742462
868.6902, 3.659027
869.1723, 7.035370
869.6544, 0.7627560
870.1365, 3.722382
870.6187, 5.436188
871.1008, 5.587738
871.5829, 5.669556
872.0650, 5.669373
872.5471, 5.163055
873.0292, 3.975433
873.5114, 2.875275
873.9935, 2.948914
874.4756, 3.450226
874.9577, 3.222809
875.4399, 1.458923
875.9220, 0.8828740
876.4041, 3.842346
876.8862, 6.781281
877.3683, 6.994446
877.8505, 3.752777
878.3326, 3.220459
878.8147, 5.743469
879.2968, 8.254547
879.7789, 7.362305
880.2610, 4.993835
880.7432, 4.472137
881.2253, 5.951996
881.7074, 7.341949
882.1895, 7.334045
882.6716, 7.266571
883.1537, 8.273041
883.6359, 10.23767
884.1180, 10.30676
884.6001, 8.087433
885.0822, 5.608582
885.5643, 3.642242
886.0464, 2.206573
886.5286, 1.232574
887.0107, 0.7922670
887.4928, 1.194397
887.9749, 3.847717
888.4570, 6.116425
888.9391, 6.118103
889.4213, 4.625793
889.9034, 4.325958
890.3855, 6.371735
890.8676, 7.260101
891.3497, 5.662903
891.8318, 3.049133
892.3140, 1.898804
892.7961, 2.016571
893.2782, 2.698639
893.7603, 3.933197
894.2424, 5.212555
894.7245, 6.871124
895.2067, 8.011902
895.6888, 7.507690
896.1709, 3.147095
896.6530, 0.4422000
897.1351, 0.2553710
897.6172, 0.2728270
898.0994, 2.068878
898.5815, 4.726135
899.0636, 3.949310
899.5457, 0.9262700
900.0278, 4.625916
900.5099, 1.074829
900.9921, 4.476593
901.4742, 7.194733
901.9563, 6.177887
902.4384, 4.749878
902.9205, 2.741608
903.4026, 1.266296
903.8848, 1.125580
904.3669, 2.077850
904.8490, 1.812958
905.3311, 0.3865970
905.8132, 0.7005620
906.2953, 0.5663150
906.7775, 0.4315490
907.2596, 2.354126
907.7417, 5.006012
908.2238, 7.397888
908.7059, 9.762604
909.1880, 11.19632
909.6702, 11.37573
910.1523, 10.48373
910.6344, 8.534058
911.1165, 5.561554
911.5986, 3.096619
912.0807, 1.414093
912.5629, 0.7624510
913.0450, 2.349152
913.5271, 4.835846
914.0092, 6.122162
914.4913, 4.631927
914.9734, 3.985382
915.4556, 5.591949
915.9377, 7.358917
916.4198, 6.801147
916.9019, 3.929932
917.3840, 4.464264
917.8661, 9.095520
918.3483, 13.21979
918.8304, 11.81281
919.3125, 8.010742
919.7946, 5.556000
920.2767, 4.861969
920.7589, 4.382019
921.2410, 3.578339
921.7231, 2.989319
922.2052, 2.757721
922.6873, 2.902802
923.1694, 3.709961
923.6516, 5.185669
924.1337, 6.792816
924.6158, 8.795258
925.0979, 10.30899
925.5800, 9.720642
926.0621, 7.701935
926.5443, 5.686249
927.0264, 3.207397
927.5085, 2.890076
927.9906, 5.660248
928.4727, 9.701935
928.9548, 12.27072
929.4370, 13.35358
929.9191, 13.12860
930.4012, 11.39783
930.8833, 9.374664
931.3654, 8.664398
931.8475, 8.407288
932.3297, 7.082367
932.8118, 3.658356
933.2939, 2.060211
933.7761, 5.467621
934.2582, 8.577972
934.7403, 7.974060
935.2224, 3.597534
935.7045, 2.015656
936.1866, 3.299927
936.6688, 5.014740
937.1509, 5.695679
937.6330, 5.713776
938.1151, 5.266144
938.5972, 4.383270
939.0793, 3.966949
939.5615, 5.338470
940.0436, 5.992371
940.5257, 4.857422
941.0078, 2.865021
941.4899, 2.879547
941.9720, 4.802094
942.4542, 5.885223
942.9363, 5.108154
943.4184, 3.807495
943.9005, 3.334351
944.3826, 3.287109
944.8647, 3.058167
945.3469, 2.029297
945.8290, 1.871368
946.3111, 3.623901
946.7932, 5.059906
947.2753, 3.539886
947.7574, 0.7508240
948.2396, 1.872406
948.7217, 0.4306950
949.2038, 3.229706
949.6859, 4.862762
950.1680, 5.495300
950.6501, 4.857971
951.1323, 3.067322
951.6144, 1.966187
952.0965, 2.294891
952.5786, 2.356293
953.0607, 1.278503
953.5428, 0.1795040
954.0250, 0.9566650
954.5071, 4.078522
954.9892, 5.651184
955.4713, 3.398376
955.9534, 0.8833310
956.4355, 0.8876650
956.9177, 2.210907
957.3998, 3.028809
957.8819, 2.973083
958.3640, 2.786499
958.8461, 2.252716
959.3282, 1.641479
959.8104, 1.362946
960.2925, 1.358246
960.7746, 1.560699
961.2567, 1.956329
961.7388, 2.362518
962.2209, 2.168908
962.7031, 3.225800
963.1852, 1.795349
963.6673, 1.082825
964.1494, 0.9089360
964.6315, 3.687836
965.1136, 1.875821
965.5958, 4.846710
966.0779, 0.8536990
966.5600, 0.2899780
967.0421, 0.8054200
967.5242, 2.646484
968.0063, 6.137054
968.4885, 8.269928
968.9706, 6.557831
969.4527, 3.618835
969.9348, 2.575073
970.4169, 3.707428
970.8990, 5.908936
971.3812, 9.410858
971.8633, 12.12048
972.3454, 11.03729
972.8275, 8.245270
973.3096, 7.060730
973.7917, 7.756378
974.2739, 7.689789
974.7560, 3.858795
975.2381, 1.434570
975.7202, 2.937347
976.2023, 7.409760
976.6844, 10.43500
977.1666, 12.03464
977.6487, 11.64578
978.1308, 7.853912
978.6129, 3.891449
979.0950, 3.635864
979.5771, 5.412689
980.0593, 6.459534
980.5414, 4.785156
981.0235, 4.400909
981.5056, 6.335663
981.9877, 8.326538
982.4698, 7.636292
982.9520, 4.806580
983.4341, 3.185699
983.9162, 2.985138
984.3983, 3.657715
984.8804, 5.779419
985.3625, 7.816345
985.8447, 8.630615
986.3268, 8.161621
986.8089, 7.244385
987.2910, 5.487000
987.7731, 4.497772
988.2552, 5.119110
988.7374, 6.379944
989.2195, 6.564514
989.7016, 5.749359
990.1837, 3.863129
990.6658, 0.5577700
991.1479, 3.191132
991.6301, 1.004944
992.1122, 3.099274
992.5944, 6.476379
993.0765, 9.119476
993.5586, 10.95050
994.0407, 12.10645
994.5228, 11.48386
995.0049, 5.270538
995.4871, 1.513550
995.9692, 0.6175540
996.4513, 6.900787
996.9334, 11.66547
997.4155, 8.041595
997.8976, 4.537689
998.3798, 3.056824
998.8619, 3.042389
999.3440, 3.334625
999.8261, 3.917938
1000.308, 4.584381
1000.790, 5.321747
1001.272, 5.986145
1001.755, 6.934387
1002.237, 7.489624
1002.719, 6.770630
1003.201, 4.091095
1003.683, 1.907074
1004.165, 0.1236270
1004.647, -0.3662302
1005.129, 0.7718510
1005.612, 0.1003110
1006.094, 1.079529
1006.576, 2.228607
1007.058, 2.814575
1007.540, 1.148804
1008.022, 0.2402950
1008.504, 2.375061
1008.986, 5.920959
1009.468, 7.885559
1009.951, 8.147705
1010.433, 7.433105
1010.915, 5.622101
1011.397, 3.628296
1011.879, 2.266235
1012.361, 1.661713
1012.843, 2.286835
1013.325, 4.431793
1013.807, 5.731171
1014.290, 5.458801
1014.772, 4.911926
1015.254, 4.674103
1015.736, 4.546173
1016.218, 3.296295
1016.700, 1.221283
1017.182, 9.5642000E-02
1017.664, 1.753845
1018.147, 3.249939
1018.629, 1.847168
1019.111, 0.5363770
1019.593, 0.8376160
1020.075, 2.033539
1020.557, 3.929260
1021.039, 4.620636
1021.521, 4.437714
1022.003, 3.681641
1022.486, 2.677216
1022.968, 1.546875
1023.450, 0.3625790
1023.932, 0.3441470
1024.414, 0.2294920
1024.896, 0.3014830
1025.378, 1.016998
1025.860, 2.161682
1026.343, 3.413147
1026.825, 5.312744
1027.307, 7.342651
1027.789, 9.706543
1028.271, 11.21936
1028.753, 9.933899
1029.235, 7.701385
1029.717, 6.586609
1030.199, 7.107086
1030.682, 8.016418
1031.164, 9.526764
1031.646, 10.85965
1032.128, 11.66309
1032.610, 11.90393
1033.092, 10.87952
1033.574, 9.093689
1034.056, 8.425690
1034.539, 11.98941
1035.021, 14.01248
1035.503, 11.44559
1035.985, 7.186371
1036.467, 4.733673
1036.949, 4.109863
1037.431, 5.551849
1037.913, 9.335327
1038.396, 12.54657
1038.878, 12.28195
1039.360, 10.45245
1039.842, 8.618500
1040.324, 6.943787
1040.806, 5.494812
1041.288, 4.317780
1041.770, 3.165344
1042.252, 1.755310
1042.734, 0.5670170
1043.217, 0.8721920
1043.699, 2.180054
1044.181, 3.248505
1044.663, 3.854004
1045.145, 3.838409
1045.627, 1.703430
1046.109, 0.1711730
1046.591, 2.049530
1047.074, 7.621643
1047.556, 8.175934
1048.038, 3.700195
1048.520, 5.3711001E-02
1049.002, 2.011139
1049.484, 5.874176
1049.966, 9.231079
1050.448, 11.52762
1050.931, 11.38605
1051.413, 6.892456
1051.895, 4.307465
1052.377, 4.731171
1052.859, 6.198456
1053.341, 6.301208
1053.823, 5.655731
1054.305, 5.346405
1054.787, 5.446808
1055.270, 5.130096
1055.752, 2.281494
1056.234, 0.9856570
1056.716, 3.724701
1057.198, 9.069183
1057.680, 11.52673
1058.162, 11.19232
1058.644, 9.346741
1059.126, 5.809204
1059.609, 2.393005
1060.091, 0.6391300
1060.573, 1.4160000E-02
1061.055, 2.5665000E-02
1061.537, 0.7648620
1062.019, 1.258423
1062.501, 1.350586
1062.983, 1.385315
1063.466, 1.641479
1063.948, 1.936615
1064.430, 2.522766
1064.912, 2.956543
1065.394, 1.895691
1065.876, 4.475403
1066.358, 2.603642
1066.840, 4.973267
1067.323, 0.2922060
1067.805, 1.181549
1068.287, 6.6101000E-02
1068.769, 1.173737
1069.251, 4.873535
1069.733, 7.775879
1070.215, 6.997101
1070.697, 5.051849
1071.179, 2.626129
1071.661, 0.3479310
1072.144, 1.462250
1072.626, 6.809723
1073.108, 9.490326
1073.590, 7.182037
1074.072, 3.200348
1074.554, 0.6861880
1075.036, 0.4470520
1075.518, 5.6366000E-02
1076.001, 2.798920
1076.483, 4.447052
1076.965, 4.246185
1077.447, 3.935486
1077.929, 4.581909
1078.411, 4.555267
1078.893, 4.671967
1079.375, 5.333069
1079.858, 5.159546
1080.340, 5.864288
1080.822, 6.763062
1081.304, 7.811951
1081.786, 8.771332
1082.268, 9.535797
1082.750, 10.11172
1083.232, 9.777832
1083.714, 8.529022
1084.197, 7.908264
1084.679, 9.784882
1085.161, 12.01260
1085.643, 13.45905
1086.125, 13.86475
1086.607, 12.64453
1087.089, 9.093689
1087.571, 6.408295
1088.054, 4.988525
1088.536, 4.806610
1089.018, 6.648071
1089.500, 9.300842
1089.982, 11.20102
1090.464, 12.17679
1090.946, 11.87796
1091.428, 8.547302
1091.911, 6.835236
1092.393, 8.855530
1092.875, 12.67938
1093.357, 13.95267
1093.839, 13.10596
1094.321, 11.15494
1094.803, 7.553864
1095.285, 5.588715
1095.767, 8.568512
1096.250, 12.18823
1096.732, 13.37643
1097.214, 12.30270
1097.696, 13.04599
1098.178, 15.47153
1098.660, 16.68506
1099.142, 13.53601
1099.624, 10.60291
1100.106, 13.20981
1100.589, 17.57846
1101.071, 17.18979
1101.553, 8.989136
1102.035, 6.304657
1102.517, 10.32394
1102.999, 14.53613
1103.481, 12.33429
1103.963, 7.830292
1104.446, 6.234192
1104.928, 7.243164
1105.410, 8.861908
1105.892, 11.33353
1106.374, 13.23688
1106.856, 14.50256
1107.338, 14.89508
1107.820, 13.07660
1108.302, 10.37512
1108.785, 10.54892
1109.267, 14.01080
1109.749, 16.51349
1110.231, 14.99796
1110.713, 13.65817
1111.195, 14.30603
1111.677, 16.04187
1112.159, 16.19583
1112.641, 15.04895
1113.124, 14.39285
1113.606, 14.79926
1114.088, 15.23544
1114.570, 15.06302
1115.052, 14.58185
1115.534, 13.71014
1116.016, 12.53540
1116.498, 13.47845
1116.981, 16.65338
1117.463, 18.59976
1117.945, 17.32123
1118.427, 14.93570
1118.909, 12.72836
1119.391, 11.10803
1119.873, 10.82205
1120.355, 12.52377
1120.838, 13.75992
1121.320, 14.59558
1121.802, 14.65991
1122.284, 13.17523
1122.766, 11.09344
1123.248, 9.636780
1123.730, 8.599609
1124.212, 7.848602
1124.694, 7.551971
1125.177, 8.350861
1125.659, 10.67941
1126.141, 12.76712
1126.623, 12.51569
1127.105, 10.60562
1127.587, 8.130493
1128.069, 5.451721
1128.551, 4.606506
1129.033, 8.417542
1129.516, 11.79584
1129.998, 13.34290
1130.480, 13.69409
1130.962, 13.84137
1131.444, 13.76053
1131.926, 13.31345
1132.408, 12.47174
1132.890, 11.45514
1133.373, 10.24515
1133.855, 9.066376
1134.337, 7.691528
1134.819, 6.510284
1135.301, 7.563263
1135.783, 10.72113
1136.265, 12.14432
1136.747, 10.47272
1137.229, 8.354462
1137.712, 7.911560
1138.194, 8.148895
1138.676, 8.563446
1139.158, 9.111084
1139.640, 7.163727
1140.122, 2.217224
1140.604, 0.3136290
1141.086, 2.708954
1141.569, 7.355133
1142.051, 9.809418
1142.533, 10.87921
1143.015, 11.63605
1143.497, 12.12857
1143.979, 12.70487
1144.461, 13.43945
1144.943, 13.93817
1145.426, 14.00745
1145.908, 13.63660
1146.390, 12.45477
1146.872, 10.90454
1147.354, 9.902130
1147.836, 10.06198
1148.318, 10.26437
1148.800, 10.39139
1149.282, 10.76208
1149.765, 12.01062
1150.247, 13.56601
1150.729, 14.26151
1151.211, 14.20914
1151.693, 13.61826
1152.175, 12.17938
1152.657, 10.16791
1153.139, 6.871613
1153.621, 4.372681
1154.104, 6.158569
1154.586, 10.62988
1155.068, 12.15353
1155.550, 10.60413
1156.032, 8.830383
1156.514, 7.560425
1156.996, 7.336060
1157.478, 8.909546
1157.961, 10.63223
1158.443, 9.408356
1158.925, 6.058990
1159.407, 5.236816
1159.889, 7.751495
1160.371, 10.61246
1160.853, 12.28903
1161.335, 13.42810
1161.818, 14.27286
1162.300, 14.93045
1162.782, 15.82449
1163.264, 16.78958
1163.746, 16.75687
1164.228, 15.37463
1164.710, 13.57657
1165.192, 10.99554
1165.674, 9.257172
1166.156, 10.07196
1166.639, 12.77213
1167.121, 13.55664
1167.603, 12.43967
1168.085, 11.86496
1168.567, 12.86816
1169.049, 13.87787
1169.531, 12.77472
1170.013, 11.53827
1170.496, 12.75171
1170.978, 16.49652
1171.460, 17.67123
1171.942, 16.17957
1172.424, 13.89414
1172.906, 11.32477
1173.388, 8.885284
1173.870, 5.825958
1174.353, 3.766754
1174.835, 5.938049
1175.317, 14.09256
1175.799, 15.90051
1176.281, 10.59082
1176.763, 5.220184
1177.245, 3.472809
1177.727, 3.994995
1178.209, 6.417511
1178.692, 9.614349
1179.174, 11.62213
1179.656, 11.78162
1180.138, 11.96628
1180.620, 12.19611
1181.102, 12.34302
1181.584, 12.90610
1182.066, 12.86133
1182.548, 9.680054
1183.031, 5.067474
1183.513, 3.168518
1183.995, 6.240509
1184.477, 8.222015
1184.959, 8.775208
1185.441, 8.652313
1185.923, 8.291412
1186.405, 7.815765
1186.888, 7.143433
1187.370, 6.537292
1187.852, 6.826202
1188.334, 9.176788
1188.816, 10.12805
1189.298, 9.045135
1189.780, 7.329285
1190.262, 6.221039
1190.745, 5.363617
1191.227, 3.664551
1191.709, 4.079315
1192.191, 1.353455
1192.673, 5.145386
1193.155, 8.134949
1193.637, 9.677521
1194.119, 9.845642
1194.601, 7.692780
1195.084, 4.682587
1195.566, 3.015961
1196.048, 2.841156
1196.530, 3.741791
1197.012, 6.571350
1197.494, 8.622955
1197.976, 9.555603
1198.458, 9.134247
1198.941, 5.153625
1199.423, 0.2554930
1199.905, 0.6685790
1200.387, 6.822815
1200.869, 9.967896
1201.351, 6.952881
1201.833, 3.743195
1202.315, 1.435730
1202.797, 0.2985530
1203.280, 1.660645
1203.762, 4.148254
1204.244, 5.288910
1204.726, 4.652924
1205.208, 4.064056
1205.690, 3.781067
1206.172, 3.783569
1206.654, 4.318939
1207.136, 4.677795
1207.619, 3.315308
1208.101, 3.936135
1208.583, 1.152161
1209.065, 3.126587
1209.547, 3.565491
1210.029, 1.646912
1210.511, 0.3430480
1210.993, 1.706726
1211.476, 2.535614
1211.958, 2.894806
1212.440, 2.924042
1212.922, 2.991791
1213.404, 3.357758
1213.886, 2.454681
1214.368, 1.017029
1214.850, 2.784149
1215.333, 0.1973270
1215.815, 3.796204
1216.297, 3.615448
1216.779, 0.9682920
1217.261, 1.150696
1217.743, 2.098297
1218.225, 2.433136
1218.707, 2.097260
1219.189, 1.602722
1219.672, 1.398743
1220.154, 0.8982540
1220.636, 2.034943
1221.118, 5.713776
1221.600, 6.931763
1222.082, 3.858246
1222.564, 1.504730
1223.046, 0.1319580
1223.528, 0.2797850
1224.011, 2.210144
1224.493, 5.527740
1224.975, 6.667419
1225.457, 6.369598
1225.939, 5.933807
1226.421, 5.684235
1226.903, 5.078705
1227.385, 3.982941
1227.868, 2.976868
1228.350, 2.211639
1228.832, 1.911407
1229.314, 3.043213
1229.796, 4.672180
1230.278, 5.100250
1230.760, 3.335052
1231.242, 2.275574
1231.724, 1.971924
1232.207, 2.116516
1232.689, 2.836609
1233.171, 3.573120
1233.653, 3.504669
1234.135, 2.991028
1234.617, 2.641235
1235.099, 2.598724
1235.581, 2.444885
1236.063, 2.120605
1236.546, 2.160614
1237.028, 3.578369
1237.510, 4.818115
1237.992, 3.360413
1238.474, 0.9441830
1238.956, 0.7345280
1239.438, 3.730713
1239.920, 5.036163
1240.403, 4.533325
1240.885, 3.654785
1241.367, 2.919434
1241.849, 2.590637
1242.331, 3.544250
1242.813, 4.728027
1243.295, 4.478638
1243.777, 2.413727
1244.260, 0.8365170
1244.742, 0.2683720
1245.224, 0.8862000
1245.706, 1.764801
1246.188, 1.296509
1246.670, 4.091125
1247.152, 3.112468
1247.634, 2.763735
1248.116, 3.587616
1248.599, 1.630554
1249.081, 3.964111
1249.563, 5.776245
1250.045, 2.389832
1250.527, 0.1907350
1251.009, 2.971405
1251.491, 7.252350
1251.973, 7.486572
1252.455, 3.910004
1252.938, 2.358032
1253.420, 2.799652
1253.902, 4.289307
1254.384, 8.944366
1254.866, 11.09915
1255.348, 6.390533
1255.830, 0.5618590
1256.313, 1.411346
1256.795, 0.6932680
1257.277, 3.069763
1257.759, 5.369720
1258.241, 6.998932
1258.723, 7.114716
1259.205, 6.987335
1259.687, 7.882599
1260.169, 8.053772
1260.651, 5.126587
1261.134, 1.027130
1261.616, 1.733276
1262.098, 6.021881
1262.580, 8.477417
1263.062, 5.431702
1263.544, 2.876678
1264.026, 1.437531
1264.508, 0.5905150
1264.991, 0.1161190
1265.473, 7.5409003E-02
1265.955, 0.5008540
1266.437, 0.7642820
1266.919, 0.2167660
1267.401, 4.593719
1267.883, 6.410461
1268.365, 4.879852
1268.848, 3.576538
1269.330, 6.277893
1269.812, 9.975342
1270.294, 10.66403
1270.776, 9.384399
1271.258, 8.396851
1271.740, 7.786621
1272.222, 8.251007
1272.704, 9.955139
1273.187, 11.20358
1273.669, 10.13638
1274.151, 8.449249
1274.633, 8.181519
1275.115, 7.441589
1275.597, 7.408303
1276.079, 7.931671
1276.561, 8.285400
1277.043, 10.08609
1277.526, 11.26740
1278.008, 9.717102
1278.490, 7.593140
1278.972, 5.339172
1279.454, 3.745911
1279.936, 3.990753
1280.418, 6.542053
1280.900, 6.501953
1281.383, 4.275116
1281.865, 2.434326
1282.347, 1.498688
1282.829, 2.289642
1283.311, 6.591492
1283.793, 10.90140
1284.275, 12.51611
1284.757, 11.79065
1285.240, 10.54034
1285.722, 8.922577
1286.204, 8.006989
1286.686, 9.338074
1287.168, 9.180725
1287.650, 6.513275
1288.132, 3.896210
1288.614, 2.984772
1289.096, 3.458801
1289.578, 5.581573
1290.061, 8.292908
1290.543, 9.350281
1291.025, 7.367004
1291.507, 5.408020
1291.989, 3.293518
1292.471, 1.999695
1292.953, 2.237213
1293.435, 3.386047
1293.918, 5.504486
1294.400, 7.672791
1294.882, 8.345184
1295.364, 7.310394
1295.846, 6.867035
1296.328, 7.037842
1296.810, 7.087921
1297.292, 6.406250
1297.775, 5.895081
1298.257, 6.640961
1298.739, 7.678589
1299.221, 8.088867
1299.703, 7.937378
1300.185, 8.194031
1300.667, 8.637634
1301.149, 7.492706
1301.631, 2.844147
1302.114, 6.3812003E-02
1302.596, 0.0000000E+00
##END=



