##NAMES=Hexahydrite
##RRUFFID=R060051
##IDEAL CHEMISTRY=MgSO_4_&#183;6H_2_O
##LOCALITY=Weathered surface of a LL5 chondritic meteorite from Antarctica
##OWNER=Kevin Righter
##SOURCE=Kevin Righter
##DESCRIPTION=Green single crystals that grew when the sample was thawed in its collection bag.
##STATUS=The identification of this mineral has been confirmed only by single crystal X-ray diffraction.
##URL=rruff.info/R060051
151.6805, 0.0000000E+00
152.1626, 2.6400001E-03
152.6447, 0.1380310
153.1268, 1.060608
153.6089, 2.254288
154.0910, 2.807617
154.5732, 2.020233
155.0553, 1.310638
155.5374, 0.8554230
156.0195, 1.121689
156.5016, 1.226089
156.9837, 0.8541720
157.4659, 0.2232970
157.9480, 0.1098790
158.4301, 0.1893920
158.9122, 0.6474150
159.3943, 1.073410
159.8764, 1.590347
160.3586, 1.821609
160.8407, 1.340698
161.3228, 0.4468540
161.8049, 2.4536001E-02
162.2870, 0.7562100
162.7691, 1.723221
163.2512, 2.149277
163.7334, 1.375992
164.2155, 0.6966250
164.6976, 0.8044130
165.1797, 1.533646
165.6618, 2.093384
166.1439, 1.945313
166.6261, 0.5216830
167.1082, 1.821320
167.5903, 2.535004
168.0724, 2.694305
168.5545, 0.6390990
169.0366, 1.443085
169.5188, 1.101059
170.0009, 0.7120820
170.4830, 1.918259
170.9651, 0.1848450
171.4472, 1.365723
171.9293, 1.383240
172.4115, 1.933319
172.8936, 1.441101
173.3757, 1.192169
173.8578, 2.152374
174.3399, 2.438156
174.8220, 1.778976
175.3042, 2.358368
175.7863, 0.5806120
176.2684, 0.8719480
176.7505, 2.056213
177.2326, 1.375381
177.7147, 1.977417
178.1969, 2.091187
178.6790, 1.8310000E-03
179.1611, 1.753052
179.6432, 1.838577
180.1253, 0.2099610
180.6074, 1.833282
181.0896, 0.4413760
181.5717, 0.1260380
182.0538, 0.6207730
182.5359, 0.2714080
183.0180, 1.253357
183.5001, 0.9530790
183.9823, 0.5381470
184.4644, 0.3027800
184.9465, 0.4196780
185.4286, 0.7506410
185.9107, 1.244934
186.3928, 1.613419
186.8750, 1.644043
187.3571, 1.443893
187.8392, 1.360672
188.3213, 1.418808
188.8034, 1.507492
189.2855, 1.485641
189.7677, 1.359238
190.2498, 1.187759
190.7319, 0.9543300
191.2140, 0.6849820
191.6961, 0.5326390
192.1782, 0.5244290
192.6603, 0.5628050
193.1425, 0.5221560
193.6246, 0.6835940
194.1067, 0.6679230
194.5888, 1.433807
195.0709, 1.645569
195.5530, 0.3568420
196.0352, 0.5001530
196.5173, 0.2114410
196.9994, 0.1238560
197.4815, 1.136368
197.9636, 0.5429380
198.4457, 0.6921840
198.9279, 0.7640840
199.4100, 1.368484
199.8921, 0.8201900
200.3742, 0.6280360
200.8563, 1.589432
201.3384, 1.912308
201.8206, 1.231308
202.3027, 1.869995
202.7848, 0.1510160
203.2669, 0.5008850
203.7490, 1.743210
204.2311, 1.120209
204.7133, 1.780014
205.1954, 1.951385
205.6775, 9.7046003E-02
206.1596, 1.715378
206.6417, 1.858215
207.1238, 0.2868800
207.6060, 1.967453
208.0881, 0.6326450
208.5702, 0.3743590
209.0523, 0.9260860
209.5344, 0.6326600
210.0165, 1.669083
210.4987, 1.424103
210.9808, 1.259918
211.4629, 1.715637
211.9450, 2.191437
212.4271, 2.367325
212.9092, 2.151321
213.3914, 1.858704
213.8735, 1.619766
214.3556, 1.423874
214.8377, 1.322372
215.3198, 1.309814
215.8019, 1.390518
216.2841, 1.669739
216.7662, 2.308777
217.2483, 2.783707
217.7304, 2.775986
218.2125, 2.061172
218.6946, 1.571869
219.1767, 1.309982
219.6589, 1.290146
220.1410, 1.644882
220.6231, 2.693787
221.1052, 3.518448
221.5873, 3.630707
222.0694, 2.613846
222.5516, 1.987061
223.0337, 1.946136
223.5158, 2.255280
223.9979, 2.321320
224.4800, 1.984436
224.9621, 1.677628
225.4443, 1.603424
225.9264, 1.871414
226.4085, 2.084808
226.8906, 2.175690
227.3727, 2.237991
227.8548, 2.559845
228.3370, 3.400497
228.8191, 4.067368
229.3012, 4.235519
229.7833, 3.657181
230.2654, 3.273010
230.7475, 3.045975
231.2297, 2.958084
231.7118, 2.862930
232.1939, 2.728455
232.6760, 2.655197
233.1581, 2.756958
233.6402, 3.158997
234.1224, 3.405075
234.6045, 3.505280
235.0866, 3.440887
235.5687, 3.345215
236.0508, 3.159546
236.5329, 3.023972
237.0151, 3.005966
237.4972, 3.118561
237.9793, 3.297882
238.4614, 3.667511
238.9435, 4.048141
239.4256, 4.041565
239.9078, 3.311127
240.3899, 2.743271
240.8720, 2.743530
241.3541, 3.626709
241.8362, 3.993271
242.3183, 3.452423
242.8005, 2.538361
243.2826, 2.227585
243.7647, 2.955643
244.2468, 3.571976
244.7289, 3.655823
245.2110, 3.021774
245.6931, 2.641525
246.1753, 2.702316
246.6574, 2.895676
247.1395, 2.663162
247.6216, 1.518051
248.1037, 0.8132020
248.5858, 1.070206
249.0680, 2.572906
249.5501, 3.534698
250.0322, 3.807892
250.5143, 3.652191
250.9964, 3.371292
251.4785, 2.768326
251.9607, 2.367218
252.4428, 2.281128
252.9249, 2.555511
253.4070, 2.742416
253.8891, 2.900497
254.3712, 2.980881
254.8534, 2.935928
255.3355, 2.749435
255.8176, 2.475235
256.2997, 2.144638
256.7818, 1.711929
257.2639, 1.548843
257.7461, 1.823532
258.2282, 2.180145
258.7103, 2.196854
259.1924, 1.654556
259.6745, 1.289276
260.1566, 1.326080
260.6388, 1.750519
261.1209, 1.882141
261.6030, 1.475494
262.0851, 1.119415
262.5672, 1.507278
263.0493, 3.164337
263.5315, 4.121750
264.0136, 3.821091
264.4957, 2.437378
264.9778, 1.596878
265.4599, 1.414063
265.9420, 1.591949
266.4242, 1.979263
266.9063, 2.719879
267.3884, 3.215607
267.8705, 3.382568
268.3526, 3.242432
268.8347, 2.816620
269.3169, 1.929810
269.7990, 1.137756
270.2811, 0.8802800
270.7632, 1.306549
271.2453, 1.619720
271.7274, 1.728531
272.2096, 1.668243
272.6917, 1.548187
273.1738, 1.338058
273.6559, 1.150070
274.1380, 1.039032
274.6201, 1.001282
275.1023, 1.076767
275.5844, 1.297165
276.0665, 1.608612
276.5486, 2.000153
277.0307, 2.574020
277.5128, 2.801315
277.9950, 2.170639
278.4771, 0.5763850
278.9592, 0.3329470
279.4413, 0.3571010
279.9234, 0.1074980
280.4055, 0.3381960
280.8877, 0.3135070
281.3698, 0.2348630
281.8519, 0.1326450
282.3340, 7.3389998E-03
282.8161, 0.1307680
283.2982, 0.5670010
283.7804, 1.101578
284.2625, 1.403870
284.7446, 1.476059
285.2267, 1.526306
285.7088, 1.615051
286.1909, 1.729538
286.6730, 1.509872
287.1552, 0.8331300
287.6373, 0.7541050
288.1194, 0.5956270
288.6015, 1.359802
289.0836, 1.569885
289.5657, 0.4342800
290.0479, 0.4208370
290.5300, 0.1302030
291.0121, 0.2073060
291.4942, 1.050430
291.9763, 0.6312260
292.4584, 0.6011660
292.9406, 0.6704710
293.4227, 1.272232
293.9048, 0.7213130
294.3869, 0.5265350
294.8690, 1.485214
295.3511, 1.805435
295.8333, 1.122391
296.3154, 0.8842620
296.7975, 1.282791
297.2796, 1.815842
297.7617, 2.197662
298.2438, 1.670227
298.7260, 0.3734890
299.2081, 0.6226350
299.6902, 0.2229000
300.1723, 0.9737700
300.6544, 1.695679
301.1365, 1.667084
301.6187, 1.332535
302.1008, 1.141525
302.5829, 1.077744
303.0650, 1.073242
303.5471, 1.225861
304.0292, 1.369064
304.5114, 1.120865
304.9935, 0.3311920
305.4756, 0.2749180
305.9577, 0.2340700
306.4398, 1.453812
306.9219, 2.451462
307.4041, 2.688568
307.8862, 2.541519
308.3683, 2.306900
308.8504, 1.990448
309.3325, 1.804108
309.8146, 1.982101
310.2968, 2.377335
310.7789, 2.776596
311.2610, 3.229919
311.7431, 3.555130
312.2252, 3.553513
312.7073, 3.248154
313.1895, 2.929657
313.6716, 2.765427
314.1537, 2.676849
314.6358, 2.587006
315.1179, 2.514618
315.6000, 2.392700
316.0822, 2.070908
316.5643, 1.630966
317.0464, 1.409073
317.5285, 1.848511
318.0106, 2.381638
318.4927, 2.579788
318.9749, 2.158783
319.4570, 1.741623
319.9391, 1.543823
320.4212, 1.512405
320.9033, 1.521912
321.3854, 1.639786
321.8676, 1.703751
322.3497, 1.578537
322.8318, 1.106674
323.3139, 0.8644710
323.7960, 1.279556
324.2781, 1.925873
324.7603, 2.196625
325.2424, 1.439957
325.7245, 0.8167270
326.2066, 0.7715450
326.6887, 1.461136
327.1708, 1.897079
327.6530, 1.814270
328.1351, 1.529205
328.6172, 1.333527
329.0993, 1.209885
329.5814, 1.214081
330.0635, 1.494049
330.5457, 2.030762
331.0278, 2.182739
331.5099, 1.634460
331.9920, 0.9556270
332.4741, 0.5015720
332.9562, 0.2465670
333.4384, 0.2597200
333.9205, 0.7249150
334.4026, 1.463303
334.8847, 1.808624
335.3668, 1.525391
335.8489, 1.189133
336.3311, 1.093399
336.8132, 1.349136
337.2953, 1.440430
337.7774, 1.313126
338.2595, 1.077942
338.7416, 0.9640350
339.2238, 0.9658970
339.7059, 1.116226
340.1880, 1.588226
340.6701, 2.419479
341.1522, 2.395599
341.6343, 1.228683
342.1164, 0.1617890
342.5985, 0.6476590
343.0807, 0.1406250
343.5628, 0.4584960
344.0449, 0.9827880
344.5270, 1.408249
345.0091, 1.611771
345.4912, 1.526077
345.9734, 1.458130
346.4555, 1.656647
346.9376, 2.062607
347.4197, 2.112427
347.9018, 1.635727
348.3839, 0.9478450
348.8661, 0.6419370
349.3482, 0.7280580
349.8303, 0.9517970
350.3124, 1.414200
350.7945, 1.948166
351.2766, 2.166809
351.7588, 1.982697
352.2409, 1.698608
352.7230, 1.715881
353.2051, 1.934448
353.6872, 2.059357
354.1693, 1.921371
354.6515, 1.623245
355.1336, 1.258392
355.6157, 0.8252870
356.0978, 0.4426420
356.5799, 0.1270290
357.0620, 9.2681997E-02
357.5442, 6.5886997E-02
358.0263, 0.4501950
358.5084, 0.9970700
358.9905, 1.284943
359.4726, 1.326263
359.9547, 1.201279
360.4369, 0.7548680
360.9190, 0.2678530
361.4011, 3.2593001E-02
361.8832, 9.7061001E-02
362.3653, 2.5024001E-02
362.8474, 0.5036010
363.3296, 1.132904
363.8117, 1.543732
364.2938, 1.418137
364.7759, 1.157135
365.2580, 0.9021300
365.7401, 0.6356050
366.2223, 0.5164340
366.7044, 0.7908630
367.1865, 1.151779
367.6686, 1.274719
368.1507, 0.5901950
368.6328, 0.1782230
369.1150, 0.4468230
369.5971, 1.420914
370.0792, 2.003143
370.5613, 1.807999
371.0434, 1.488251
371.5255, 1.444962
372.0077, 2.104782
372.4898, 2.364838
372.9719, 1.951904
373.4540, 1.126328
373.9361, 0.7387080
374.4182, 1.043671
374.9004, 1.372620
375.3825, 1.412064
375.8646, 1.053055
376.3467, 0.8679350
376.8288, 0.8732760
377.3109, 1.024902
377.7931, 1.320007
378.2752, 1.817291
378.7573, 2.154648
379.2394, 2.155060
379.7215, 1.883270
380.2036, 1.883179
380.6858, 2.218918
381.1679, 2.519455
381.6500, 2.336655
382.1321, 1.723923
382.6142, 1.396973
383.0963, 1.580307
383.5785, 1.976501
384.0606, 1.966385
384.5427, 1.585144
385.0248, 1.224960
385.5069, 1.145462
385.9890, 1.267532
386.4712, 1.411774
386.9533, 1.562317
387.4354, 1.743713
387.9175, 2.042175
388.3996, 2.387634
388.8817, 2.623245
389.3639, 2.640533
389.8460, 2.534012
390.3281, 2.369766
390.8102, 2.151901
391.2923, 1.931992
391.7744, 1.806168
392.2566, 1.667587
392.7387, 1.354050
393.2208, 0.4945830
393.7029, 4.5685001E-02
394.1850, 0.5854030
394.6671, 1.918335
395.1493, 2.718018
395.6314, 1.926392
396.1135, 0.9410100
396.5956, 0.5404360
397.0777, 0.9824980
397.5598, 1.315384
398.0419, 1.150162
398.5240, 0.8261110
399.0062, 0.7332310
399.4883, 1.211411
399.9704, 1.612518
400.4525, 1.754669
400.9346, 1.694107
401.4167, 1.662201
401.8989, 1.669174
402.3810, 1.680023
402.8631, 1.682526
403.3452, 1.731628
403.8273, 1.651749
404.3094, 1.369064
404.7916, 0.9838260
405.2737, 0.7188720
405.7558, 0.5704040
406.2379, 0.5566860
406.7200, 0.7188260
407.2021, 1.067032
407.6843, 1.395294
408.1664, 1.730194
408.6485, 1.975098
409.1306, 1.997940
409.6127, 1.800186
410.0948, 1.521790
410.5770, 1.168579
411.0591, 0.7782750
411.5412, 0.4257050
412.0233, 0.1094060
412.5054, 0.1059110
412.9875, 0.1869050
413.4697, 0.1346130
413.9518, 6.0226001E-02
414.4339, 0.4037020
414.9160, 0.8535770
415.3981, 1.614487
415.8802, 2.462494
416.3624, 2.870865
416.8445, 2.210403
417.3266, 1.229996
417.8087, 0.6255650
418.2908, 0.3996890
418.7729, 0.2981870
419.2551, 9.5200002E-02
419.7372, 3.1693000E-02
420.2193, 0.1403200
420.7014, 0.9638670
421.1835, 1.632233
421.6656, 1.660675
422.1478, 1.267868
422.6299, 0.9772340
423.1120, 1.198135
423.5941, 1.345963
424.0762, 1.087234
424.5583, 0.2528840
425.0405, 0.3500210
425.5226, 0.5175930
426.0047, 0.4663390
426.4868, 0.4079130
426.9689, 0.4936070
427.4510, 0.3679500
427.9332, 0.1138310
428.4153, 0.8663480
428.8974, 1.429520
429.3795, 1.789063
429.8616, 1.974152
430.3438, 1.971313
430.8259, 1.728485
431.3080, 1.503448
431.7901, 1.273666
432.2722, 1.104324
432.7543, 1.189224
433.2365, 1.579163
433.7186, 1.684128
434.2007, 1.127045
434.6828, 0.1722260
435.1649, 3.3034999E-02
435.6470, 0.5494230
436.1292, 1.155716
436.6113, 1.032074
437.0934, 0.4084930
437.5755, 4.3640002E-03
438.0576, 4.7348000E-02
438.5397, 0.1089940
439.0219, 0.3953400
439.5040, 0.7622530
439.9861, 1.058319
440.4682, 1.182831
440.9503, 1.221588
441.4324, 1.261475
441.9146, 1.307327
442.3967, 1.312027
442.8788, 1.202454
443.3609, 1.060425
443.8430, 0.9705510
444.3251, 0.9636230
444.8073, 1.001526
445.2894, 1.025986
445.7715, 1.081467
446.2536, 1.283890
446.7357, 2.003769
447.2178, 2.572891
447.7000, 2.631744
448.1821, 1.952423
448.6642, 1.580368
449.1463, 1.755249
449.6284, 2.116714
450.1105, 2.319794
450.5927, 2.310623
451.0747, 2.189743
451.5569, 1.858231
452.0390, 1.436951
452.5211, 1.438202
453.0032, 2.005463
453.4853, 2.618988
453.9674, 3.008896
454.4496, 3.173645
454.9317, 3.379562
455.4138, 3.660355
455.8959, 3.880524
456.3780, 3.763321
456.8601, 3.361710
457.3423, 3.180786
457.8244, 3.523529
458.3065, 4.040924
458.7886, 3.936569
459.2707, 3.281754
459.7528, 2.710846
460.2350, 2.759186
460.7171, 3.100723
461.1992, 3.197998
461.6813, 2.922165
462.1634, 2.792068
462.6455, 3.553207
463.1277, 4.686447
463.6098, 5.443970
464.0919, 5.167679
464.5740, 4.700012
465.0561, 4.457306
465.5382, 4.447800
466.0204, 4.396790
466.5025, 4.078598
466.9846, 3.799011
467.4667, 3.758911
467.9488, 4.173889
468.4309, 4.417587
468.9131, 4.316620
469.3952, 4.084335
469.8773, 3.998047
470.3594, 4.154785
470.8415, 4.300461
471.3236, 4.409836
471.8058, 4.482468
472.2879, 4.452682
472.7700, 4.259491
473.2521, 4.122330
473.7342, 4.257462
474.2163, 4.697754
474.6985, 4.887985
475.1806, 4.773300
475.6627, 4.472595
476.1448, 4.003403
476.6269, 3.416718
477.1090, 3.156509
477.5912, 3.500061
478.0733, 4.195847
478.5554, 5.042389
479.0375, 6.006439
479.5196, 6.604340
480.0017, 5.966309
480.4839, 4.984055
480.9660, 4.959106
481.4481, 6.312973
481.9302, 7.622482
482.4123, 7.749161
482.8944, 7.244507
483.3766, 6.958282
483.8587, 7.421356
484.3408, 7.944733
484.8229, 8.390091
485.3050, 8.728470
485.7871, 8.690872
486.2693, 7.901657
486.7514, 6.941147
487.2335, 6.091812
487.7156, 5.331070
488.1977, 4.717422
488.6798, 4.230865
489.1620, 3.894974
489.6441, 3.754486
490.1262, 3.846970
490.6083, 4.071854
491.0904, 4.523636
491.5725, 5.047028
492.0547, 4.985840
492.5368, 4.256256
493.0189, 3.451263
493.5010, 2.893723
493.9831, 2.583084
494.4652, 2.561325
494.9474, 2.890732
495.4295, 3.208878
495.9116, 2.992188
496.3937, 2.422531
496.8758, 2.010056
497.3579, 2.017365
497.8401, 2.137253
498.3222, 2.005814
498.8043, 1.686844
499.2864, 1.427979
499.7685, 1.364777
500.2506, 1.403473
500.7328, 1.484512
501.2149, 1.600830
501.6970, 1.736023
502.1791, 2.093704
502.6612, 2.364365
503.1433, 2.256500
503.6255, 1.039124
504.1076, 0.2557980
504.5897, 0.4140470
505.0718, 1.151672
505.5539, 1.381866
506.0360, 0.7632450
506.5181, 0.1574860
507.0002, 0.1525120
507.4824, 0.1607820
507.9645, 6.0897999E-02
508.4466, 0.6181030
508.9287, 1.156281
509.4108, 1.329498
509.8929, 1.127747
510.3751, 0.8361210
510.8572, 0.4438020
511.3393, 7.1135998E-02
511.8214, 9.7884998E-02
512.3035, 7.7255003E-02
512.7856, 7.0525996E-02
513.2678, 0.4333650
513.7499, 0.8691410
514.2320, 1.091187
514.7141, 1.074432
515.1962, 1.077515
515.6783, 1.279480
516.1605, 1.589584
516.6426, 2.002853
517.1247, 2.723801
517.6068, 3.013000
518.0889, 2.059250
518.5710, 0.6292720
519.0532, 0.1641390
519.5353, 0.8319400
520.0174, 1.486191
520.4995, 0.9532930
520.9816, 0.5397340
521.4637, 1.210251
521.9459, 0.6516720
522.4280, 0.2006680
522.9101, 1.005646
523.3922, 1.881393
523.8743, 2.050293
524.3564, 1.262848
524.8386, 0.2666930
525.3207, 6.5948002E-02
525.8028, 0.6563570
526.2849, 1.067795
526.7670, 1.031113
527.2491, 0.7660830
527.7313, 0.6510470
528.2134, 0.6749730
528.6955, 0.7814940
529.1776, 1.097702
529.6597, 1.400375
530.1418, 1.301208
530.6240, 0.7919160
531.1061, 0.3510740
531.5882, 0.2451630
532.0703, 0.3851620
532.5524, 0.7516780
533.0345, 1.689972
533.5167, 2.208832
533.9988, 1.554138
534.4809, 0.3418270
534.9630, 0.3765260
535.4451, 0.1704710
535.9272, 0.2410130
536.4094, 0.9140630
536.8915, 1.786621
537.3736, 1.946884
537.8557, 0.8733060
538.3378, 3.4134001E-02
538.8199, 0.1764530
539.3021, 1.738571
539.7842, 2.603043
540.2663, 2.650986
540.7484, 2.309464
541.2305, 2.017990
541.7126, 1.780487
542.1948, 1.660034
542.6769, 1.706253
543.1590, 1.826508
543.6411, 1.919128
544.1232, 1.975006
544.6053, 1.958130
545.0875, 1.838028
545.5696, 1.645096
546.0517, 1.401428
546.5338, 1.109711
547.0159, 0.7917480
547.4980, 0.3048710
547.9802, 0.1127780
548.4623, 0.2626500
548.9444, 6.0470998E-02
549.4265, 0.3460240
549.9086, 0.4962310
550.3907, 0.5707240
550.8729, 0.6585540
551.3550, 0.7676540
551.8371, 0.8607330
552.3192, 0.8936770
552.8013, 0.8952790
553.2834, 1.037323
553.7656, 1.335098
554.2477, 1.705750
554.7298, 2.241760
555.2119, 2.886047
555.6940, 2.948975
556.1761, 2.366196
556.6583, 1.719360
557.1404, 1.654800
557.6225, 1.971191
558.1046, 2.218948
558.5867, 2.352692
559.0688, 2.272781
559.5510, 1.640350
560.0331, 0.7528530
560.5152, 0.1836400
560.9973, 0.4480900
561.4794, 0.8365170
561.9615, 0.9895020
562.4437, 0.9289550
562.9258, 0.9555510
563.4079, 1.239731
563.8900, 1.530060
564.3721, 1.736649
564.8542, 1.910889
565.3364, 1.747879
565.8185, 1.051926
566.3006, 0.2765050
566.7827, 9.0255998E-02
567.2648, 1.1902000E-02
567.7469, 0.1766970
568.2291, 0.3588560
568.7112, 0.5556950
569.1933, 0.8776550
569.6754, 1.281738
570.1575, 1.363098
570.6396, 0.5991360
571.1218, 0.4247590
571.6039, 0.6723020
572.0860, 0.2205510
572.5681, 0.3143160
573.0502, 0.4398190
573.5323, 0.5028080
574.0145, 0.9006500
574.4966, 1.791824
574.9787, 2.449127
575.4608, 2.374466
575.9429, 2.021240
576.4250, 1.831970
576.9072, 2.104080
577.3893, 2.233261
577.8714, 2.059128
578.3535, 1.717194
578.8356, 1.490326
579.3177, 1.448303
579.7999, 1.420624
580.2820, 1.293091
580.7641, 1.079849
581.2462, 1.196121
581.7283, 1.672653
582.2104, 2.211380
582.6926, 2.756821
583.1747, 3.194870
583.6568, 3.091461
584.1389, 2.364136
584.6210, 1.596024
585.1031, 1.440216
585.5853, 1.557678
586.0674, 1.436981
586.5495, 0.6767880
587.0316, 8.7723002E-02
587.5137, 0.1716160
587.9958, 0.6982270
588.4779, 1.220123
588.9600, 1.653290
589.4421, 2.037689
589.9243, 2.547241
590.4064, 3.114594
590.8885, 2.998245
591.3706, 1.700958
591.8527, 0.5122990
592.3348, 0.1573490
592.8170, 0.7074130
593.2991, 0.8102260
593.7812, 0.3410340
594.2633, 0.1005250
594.7454, 0.2405090
595.2275, 1.194504
595.7097, 2.012192
596.1918, 2.590256
596.6739, 2.893616
597.1560, 2.492004
597.6381, 1.774170
598.1202, 1.575043
598.6024, 3.156815
599.0845, 4.521591
599.5666, 4.100647
600.0487, 2.364075
600.5308, 1.145218
601.0129, 1.470566
601.4951, 1.987885
601.9772, 2.098907
602.4593, 1.723618
602.9414, 1.614014
603.4235, 1.935318
603.9056, 2.315674
604.3878, 2.495850
604.8699, 2.436340
605.3520, 2.419693
605.8341, 2.449936
606.3162, 2.515686
606.7983, 2.717773
607.2805, 2.987198
607.7626, 2.977432
608.2447, 2.449448
608.7268, 1.843170
609.2089, 1.701050
609.6910, 1.925568
610.1732, 2.251480
610.6553, 2.738785
611.1374, 3.122696
611.6195, 3.101395
612.1016, 2.721085
612.5837, 2.537750
613.0659, 3.112915
613.5480, 3.578369
614.0301, 3.345718
614.5122, 2.087051
614.9943, 1.564575
615.4764, 2.035706
615.9586, 2.920105
616.4407, 3.868515
616.9228, 4.941833
617.4049, 5.380630
617.8870, 4.965683
618.3691, 4.238464
618.8513, 4.065231
619.3334, 4.327667
619.8155, 4.475754
620.2976, 4.241150
620.7797, 3.898148
621.2618, 3.815094
621.7440, 3.895889
622.2261, 3.853928
622.7082, 3.497162
623.1903, 3.023941
623.6724, 2.436035
624.1545, 1.753220
624.6367, 1.364609
625.1188, 1.770279
625.6009, 2.139725
626.0830, 1.981659
626.5651, 0.9918980
627.0472, 0.7307130
627.5294, 1.513107
628.0115, 2.517639
628.4936, 2.912857
628.9757, 2.670990
629.4578, 2.232407
629.9399, 1.632095
630.4221, 1.057190
630.9042, 0.7547610
631.3863, 0.7018890
631.8684, 0.8781430
632.3505, 1.502197
632.8326, 2.035812
633.3148, 1.860199
633.7969, 1.206253
634.2790, 0.6988220
634.7611, 0.6375430
635.2432, 0.7199550
635.7253, 0.8991550
636.2075, 1.172272
636.6896, 1.227722
637.1717, 0.7848970
637.6538, 0.4612580
638.1359, 0.6375120
638.6180, 1.434128
639.1002, 1.912460
639.5823, 2.036942
640.0644, 1.951523
640.5465, 1.778976
641.0286, 1.519135
641.5107, 1.078583
641.9929, 0.3446040
642.4750, 0.1795040
642.9571, 0.3775020
643.4392, 1.522354
643.9213, 2.311356
644.4034, 2.129669
644.8856, 1.820343
645.3677, 1.846664
645.8498, 2.067596
646.3319, 2.145401
646.8140, 1.825714
647.2961, 1.549911
647.7783, 1.522888
648.2604, 1.682404
648.7425, 1.431412
649.2246, 0.4838710
649.7067, 0.1869660
650.1888, 7.9620004E-02
650.6710, 1.187103
651.1531, 1.751038
651.6352, 1.742691
652.1173, 1.584839
652.5994, 1.685104
653.0815, 1.858337
653.5637, 1.695404
654.0458, 1.082169
654.5279, 0.5491940
655.0100, 0.5157930
655.4921, 0.7622530
655.9742, 1.045471
656.4564, 1.335449
656.9385, 1.610580
657.4206, 1.962769
657.9027, 2.266235
658.3848, 2.299774
658.8669, 1.891464
659.3491, 1.530014
659.8312, 1.260818
660.3133, 1.109909
660.7954, 1.215210
661.2775, 1.593887
661.7596, 1.933807
662.2418, 2.156693
662.7239, 2.216629
663.2060, 1.888840
663.6881, 1.235947
664.1702, 0.6868900
664.6523, 0.6549990
665.1345, 0.7624820
665.6166, 0.6385040
666.0987, 0.2386930
666.5808, 4.3579001E-02
667.0629, 7.5057998E-02
667.5450, 0.2630000
668.0272, 0.2564700
668.5093, 0.1698000
668.9914, 0.1923830
669.4735, 0.3688350
669.9556, 1.111099
670.4377, 1.699524
670.9199, 2.142120
671.4020, 2.141846
671.8841, 1.543579
672.3662, 0.7906950
672.8483, 0.5683440
673.3304, 0.7415620
673.8126, 0.9064940
674.2947, 0.8987730
674.7768, 0.8555150
675.2589, 0.8418580
675.7410, 0.8789830
676.2231, 1.020081
676.7053, 1.501968
677.1874, 1.881104
677.6695, 1.863785
678.1516, 1.540283
678.6337, 1.528549
679.1158, 2.111862
679.5980, 2.519073
680.0801, 2.379059
680.5622, 1.744064
681.0443, 1.332397
681.5264, 1.165497
682.0085, 1.072495
682.4907, 0.9369660
682.9728, 0.7863920
683.4549, 0.6810300
683.9370, 0.6286010
684.4191, 0.6022190
684.9012, 0.5945890
685.3834, 0.5997470
685.8655, 0.6104580
686.3476, 0.6223910
686.8297, 0.6538700
687.3118, 0.8607330
687.7939, 1.005783
688.2761, 0.8208770
688.7582, 3.0258000E-02
689.2403, 0.5071110
689.7224, 0.7391970
690.2045, 0.6602020
690.6866, 0.1052250
691.1688, 0.8824460
691.6509, 1.432465
692.1330, 1.284393
692.6151, 0.8594360
693.0972, 0.8424530
693.5793, 1.120178
694.0615, 1.270676
694.5436, 1.029053
695.0257, 0.7563480
695.5078, 0.6735230
695.9899, 0.7456210
696.4720, 0.8151250
696.9542, 0.8834080
697.4363, 0.9044340
697.9183, 0.8436280
698.4005, 0.7080380
698.8826, 0.6449580
699.3647, 0.6966550
699.8468, 0.6943820
700.3289, 0.3991550
700.8110, 9.0728998E-02
701.2932, 3.2944001E-02
701.7753, 0.5809480
702.2574, 1.339462
702.7395, 2.161682
703.2216, 2.823883
703.7037, 2.960144
704.1859, 2.495270
704.6680, 1.918884
705.1501, 1.379990
705.6322, 0.9620670
706.1143, 0.7428280
706.5964, 0.9274750
707.0786, 0.9686430
707.5607, 0.8151400
708.0428, 0.5688930
708.5249, 0.2854000
709.0070, 6.8297997E-02
709.4891, 0.2262120
709.9713, 0.1508330
710.4534, 0.1067960
710.9355, 0.5896760
711.4176, 1.206848
711.8997, 1.628922
712.3818, 1.624268
712.8640, 1.604706
713.3461, 2.040649
713.8282, 2.694260
714.3103, 3.120865
714.7924, 3.171875
715.2745, 2.977356
715.7567, 2.301453
716.2388, 1.403610
716.7209, 1.083649
717.2030, 1.626785
717.6851, 2.065994
718.1672, 2.064728
718.6494, 1.749023
719.1315, 1.598099
719.6136, 1.608185
720.0957, 1.634155
720.5778, 1.604919
721.0599, 1.532150
721.5421, 1.403381
722.0242, 1.228073
722.5063, 1.093765
722.9884, 1.130737
723.4705, 1.148209
723.9526, 0.9079740
724.4348, 0.3150940
724.9169, 0.2958220
725.3990, 1.387589
725.8811, 2.406448
726.3632, 2.645172
726.8453, 2.040268
727.3275, 1.444656
727.8096, 0.8099060
728.2917, 0.4370270
728.7738, 0.8427580
729.2559, 1.698257
729.7380, 2.111923
730.2202, 1.942200
730.7023, 1.765320
731.1844, 2.246552
731.6665, 2.818069
732.1486, 2.852356
732.6307, 1.933624
733.1129, 1.102295
733.5950, 0.4016270
734.0771, 6.1462000E-02
734.5592, 0.1457980
735.0413, 0.2659760
735.5234, 0.6610260
736.0056, 0.9889680
736.4877, 1.293961
736.9698, 1.757736
737.4519, 2.297424
737.9340, 2.436371
738.4161, 1.907288
738.8983, 1.310928
739.3804, 1.294312
739.8625, 1.635300
740.3446, 1.954956
740.8267, 2.306488
741.3088, 2.414505
741.7910, 1.994705
742.2731, 1.301788
742.7552, 0.9104310
743.2373, 0.9338530
743.7194, 1.034378
744.2015, 1.181763
744.6837, 1.331345
745.1658, 1.377075
745.6479, 1.318390
746.1300, 1.151184
746.6121, 0.8416290
747.0942, 0.4229890
747.5764, 0.1970670
748.0585, 0.8452150
748.5406, 1.026886
749.0227, 0.1493990
749.5048, 1.141144
749.9869, 0.9260860
750.4691, 0.2874760
750.9512, 0.7951660
751.4333, 0.2070160
751.9154, 0.5543210
752.3975, 1.289352
752.8796, 1.944382
753.3618, 2.165283
753.8439, 1.936356
754.3260, 1.602127
754.8081, 1.329086
755.2902, 1.107010
755.7723, 0.8485260
756.2545, 0.5855260
756.7366, 0.5632170
757.2187, 1.403183
757.7008, 2.128571
758.1829, 1.927765
758.6650, 0.6364590
759.1472, 3.1479001E-02
759.6293, 0.7630460
760.1114, 1.423019
760.5935, 1.172989
761.0756, 1.9840000E-03
761.5577, 0.3490910
762.0399, 0.2223360
762.5220, 0.8924560
763.0041, 0.9268650
763.4862, 0.6360470
763.9683, 0.7111210
764.4504, 1.196701
764.9326, 1.544449
765.4147, 1.176712
765.8968, 0.6988530
766.3789, 0.5782780
766.8610, 0.9567410
767.3431, 1.354370
767.8253, 1.901367
768.3074, 2.314468
768.7895, 2.348297
769.2716, 1.958344
769.7537, 1.506699
770.2358, 0.9615330
770.7180, 0.5627590
771.2001, 0.6148990
771.6822, 0.9687190
772.1643, 1.396393
772.6464, 1.898499
773.1285, 2.195831
773.6107, 1.854950
774.0928, 1.369370
774.5749, 1.216476
775.0570, 1.712067
775.5391, 1.960480
776.0212, 1.762268
776.5034, 1.483765
776.9855, 1.492935
777.4676, 1.829025
777.9497, 1.970505
778.4318, 1.848785
778.9139, 1.685349
779.3961, 1.808426
779.8782, 2.055389
780.3603, 2.039566
780.8424, 1.590332
781.3245, 0.8748020
781.8066, 1.428177
782.2888, 1.741913
782.7709, 1.829544
783.2530, 1.016434
783.7351, 1.368195
784.2172, 1.253128
784.6993, 1.131760
785.1815, 1.647598
785.6636, 0.9657290
786.1457, 1.470627
786.6278, 1.502167
787.1099, 1.750610
787.5920, 1.529373
788.0742, 1.453094
788.5563, 1.846863
789.0384, 1.980301
789.5205, 1.704956
790.0026, 1.967239
790.4847, 1.268997
790.9669, 1.413544
791.4490, 1.921066
791.9311, 1.655685
792.4132, 1.907959
792.8953, 1.978165
793.3774, 1.145554
793.8596, 1.885864
794.3417, 1.945969
794.8238, 1.307693
795.3059, 1.994110
795.7880, 1.452148
796.2701, 1.350052
796.7523, 1.576477
797.2344, 1.458939
797.7165, 1.883804
798.1986, 1.786194
798.6807, 1.641876
799.1628, 1.701370
799.6450, 1.183472
800.1271, 1.736694
800.6092, 1.558197
801.0913, 1.743439
801.5734, 2.011154
802.0555, 1.647720
802.5377, 1.952393
803.0198, 1.220978
803.5019, 1.356567
803.9840, 1.398773
804.4661, 1.995285
804.9482, 1.688919
805.4304, 1.309219
805.9125, 1.012543
806.3946, 1.046036
806.8767, 1.265442
807.3588, 1.379150
807.8409, 1.348892
808.3230, 1.334900
808.8051, 1.364471
809.2872, 1.435989
809.7693, 1.371811
810.2515, 1.260269
810.7336, 1.427658
811.2157, 2.036377
811.6978, 2.568695
812.1799, 2.570663
812.6620, 2.318832
813.1442, 2.125549
813.6263, 2.172974
814.1084, 2.064041
814.5905, 1.635223
815.0726, 1.200516
815.5547, 1.141251
816.0369, 1.491409
816.5190, 1.762360
817.0011, 1.920380
817.4832, 1.934601
817.9653, 1.621552
818.4474, 1.168762
818.9296, 0.9129940
819.4117, 0.9401090
819.8938, 1.073456
820.3759, 1.262146
820.8580, 1.432068
821.3401, 1.507431
821.8223, 1.435120
822.3044, 1.370529
822.7865, 1.277771
823.2686, 1.251953
823.7507, 1.457962
824.2328, 1.840912
824.7150, 2.109161
825.1971, 2.241348
825.6792, 2.166367
826.1613, 1.365463
826.6434, 0.4633640
827.1255, 0.3623660
827.6077, 1.520569
828.0898, 2.393311
828.5719, 2.417282
829.0540, 2.189270
829.5361, 2.103256
830.0182, 2.141479
830.5004, 1.986023
830.9825, 1.592819
831.4646, 1.295120
831.9467, 1.642044
832.4288, 2.254181
832.9109, 2.163116
833.3931, 1.289566
833.8752, 0.5700680
834.3573, 0.6471250
834.8394, 1.052963
835.3215, 1.592957
835.8036, 2.378067
836.2858, 2.438614
836.7679, 1.327789
837.2500, 0.2724000
837.7321, 9.8984003E-02
838.2142, 0.7100980
838.6964, 1.023834
839.1785, 1.039963
839.6606, 0.9698490
840.1427, 1.012344
840.6248, 1.016052
841.1069, 0.6783140
841.5891, 2.9387999E-02
842.0712, 0.2703400
842.5533, 0.3798680
843.0354, 1.024902
843.5175, 1.197250
843.9996, 0.9507900
844.4818, 1.156967
844.9639, 1.910660
845.4460, 2.524979
845.9281, 2.596252
846.4102, 2.297424
846.8923, 1.884308
847.3745, 1.409286
847.8566, 1.108597
848.3387, 1.328918
848.8208, 1.549500
849.3029, 1.435211
849.7850, 1.057877
850.2672, 0.8507690
850.7493, 0.8797910
851.2314, 0.9910430
851.7135, 1.225571
852.1956, 1.453537
852.6777, 1.157822
853.1599, 0.4347380
853.6420, 4.8140999E-02
854.1241, 0.1051940
854.6062, 0.4873500
855.0883, 0.8231510
855.5704, 1.096954
856.0526, 1.273880
856.5347, 1.375305
857.0168, 1.321381
857.4989, 1.004745
857.9810, 0.5923610
858.4631, 0.4360960
858.9453, 0.5533600
859.4274, 0.5829160
859.9095, 0.4049840
860.3916, 0.2299040
860.8737, 0.3968510
861.3558, 0.7577820
861.8380, 1.051376
862.3201, 1.259735
862.8022, 1.271744
863.2843, 0.8400570
863.7664, 0.2953640
864.2485, 3.6254998E-02
864.7307, 0.2072910
865.2128, 0.1898190
865.6949, 0.1186070
866.1770, 0.4192960
866.6591, 0.3552090
867.1412, 1.7410001E-02
867.6234, 0.3764950
868.1055, 0.8110050
868.5876, 1.145035
869.0697, 1.337067
869.5518, 1.354141
870.0339, 1.110825
870.5161, 0.4468990
870.9982, 0.1048130
871.4803, 0.2237240
871.9624, 0.4267730
872.4445, 0.4299160
872.9266, 0.2659150
873.4088, 0.2817990
873.8909, 0.4750060
874.3730, 0.7150270
874.8551, 0.9803770
875.3372, 1.193771
875.8193, 1.251556
876.3015, 1.160370
876.7836, 1.105820
877.2657, 1.213211
877.7478, 1.275696
878.2299, 1.234818
878.7120, 1.098557
879.1942, 0.8677060
879.6763, 0.5395510
880.1584, 0.2986300
880.6405, 0.2771300
881.1226, 0.3569340
881.6047, 0.4870300
882.0869, 0.5940700
882.5690, 0.4776920
883.0511, 0.5213930
883.5332, 1.079910
884.0153, 0.4668730
884.4974, 0.7301790
884.9796, 1.414963
885.4617, 1.560852
885.9438, 1.256561
886.4259, 0.3290710
886.9080, 0.5681920
887.3901, 0.1921540
887.8723, 0.9163510
888.3544, 1.548782
888.8365, 1.173309
889.3186, 0.7300720
889.8007, 0.6426240
890.2828, 0.6935120
890.7650, 0.6508330
891.2471, 0.3989410
891.7292, 0.1448360
892.2113, 0.7125550
892.6934, 1.041656
893.1755, 1.144943
893.6577, 0.3740840
894.1398, 0.7808690
894.6219, 0.7141880
895.1040, 0.6043850
895.5861, 1.134415
896.0682, 0.4668580
896.5504, 0.9866030
897.0325, 1.032440
897.5146, 1.295074
897.9967, 1.088104
898.4788, 1.026260
898.9609, 1.434189
899.4431, 1.581909
899.9252, 1.308060
900.4073, 1.584610
900.8894, 0.9006500
901.3715, 1.059479
901.8536, 1.582016
902.3358, 1.344559
902.8179, 1.629608
903.3000, 1.716217
903.7821, 0.9250950
904.2642, 1.691116
904.7463, 1.765457
905.2285, 1.141281
905.7106, 1.841904
906.1927, 1.318573
906.6748, 1.229462
907.1569, 1.470047
907.6390, 1.366669
908.1212, 1.805679
908.6033, 1.724899
909.0854, 1.604691
909.5675, 1.684998
910.0496, 1.181198
910.5317, 1.428650
911.0139, 1.475525
911.4960, 1.634430
911.9781, 1.889481
912.4602, 1.998047
912.9423, 1.940292
913.4244, 1.793915
913.9066, 1.471130
914.3887, 1.188660
914.8708, 1.233658
915.3529, 1.661362
915.8350, 1.916458
916.3171, 1.736938
916.7993, 1.255844
917.2813, 1.776001
917.7634, 2.057571
918.2455, 2.113327
918.7277, 1.266998
919.2098, 1.585434
919.6919, 1.437164
920.1740, 1.269684
920.6561, 1.752121
921.1382, 1.036942
921.6204, 1.509033
922.1025, 1.507126
922.5846, 1.722198
923.0667, 1.467484
923.5488, 1.352264
924.0309, 1.688843
924.5131, 1.769165
924.9952, 1.459473
925.4773, 1.688293
925.9594, 0.9566040
926.4415, 1.067703
926.9236, 1.542496
927.4058, 1.257278
927.8879, 1.494751
928.3700, 1.533157
928.8521, 0.6671450
929.3342, 1.374069
929.8163, 1.401093
930.2985, 0.7298740
930.7806, 1.383545
931.2627, 0.8085940
931.7448, 0.6721500
932.2269, 0.8656920
932.7090, 0.7152400
933.1912, 1.107147
933.6733, 0.9765320
934.1554, 0.5661470
934.6375, 1.140625
935.1196, 1.618805
935.6017, 1.795563
936.0839, 1.733719
936.5660, 1.624176
937.0481, 1.464111
937.5302, 1.209427
938.0123, 0.7740170
938.4944, 0.3632050
938.9766, 0.1556850
939.4587, 0.1050420
939.9408, 0.1391600
940.4229, 0.2950590
940.9050, 0.4301910
941.3871, 0.5471800
941.8693, 0.6960140
942.3514, 0.8309630
942.8335, 0.9286190
943.3156, 1.079376
943.7977, 1.295380
944.2798, 1.423416
944.7620, 1.136581
945.2441, 0.8480830
945.7262, 0.9917300
946.2083, 1.616623
946.6904, 1.719238
947.1725, 0.9233550
947.6547, 0.1743620
948.1368, 0.1654360
948.6189, 0.1615600
949.1010, 8.6914003E-02
949.5831, 0.5097810
950.0652, 0.6823270
950.5474, 0.1542820
951.0295, 0.4042660
951.5116, 0.6088710
951.9937, 0.5012970
952.4758, 0.1149440
952.9579, 0.8709110
953.4401, 1.415451
953.9222, 1.325623
954.4043, 0.9952550
954.8864, 0.8532260
955.3685, 0.8883670
955.8506, 1.147018
956.3328, 1.661453
956.8149, 1.994690
957.2970, 1.632248
957.7791, 1.149078
958.2612, 1.035385
958.7433, 1.359283
959.2255, 1.386490
959.7076, 1.045807
960.1897, 0.6080470
960.6718, 6.5063000E-02
961.1539, 0.3997340
961.6360, 0.1439670
962.1182, 0.6098180
962.6003, 1.076370
963.0824, 0.5009460
963.5645, 2.4979001E-02
964.0466, 7.0862003E-02
964.5287, 0.4530030
965.0109, 0.5361330
965.4930, 0.2324680
965.9751, 2.2890000E-03
966.4572, 0.1226960
966.9393, 6.8497002E-02
967.4214, 0.4323580
967.9036, 1.112030
968.3857, 1.523605
968.8678, 1.595963
969.3499, 1.493683
969.8320, 0.8385770
970.3141, 8.8760003E-02
970.7963, 0.5956270
971.2784, 0.9402160
971.7605, 1.131805
972.2426, 0.6897740
972.7247, 1.082764
973.2068, 1.151550
973.6890, 1.214035
974.1711, 1.745636
974.6532, 1.433823
975.1353, 1.972946
975.6174, 2.182541
976.0995, 2.553864
976.5817, 2.598755
977.0638, 2.754074
977.5459, 3.250595
978.0280, 3.569717
978.5101, 3.605652
978.9922, 3.494797
979.4744, 3.664948
979.9565, 3.976501
980.4386, 4.459030
980.9207, 5.231384
981.4028, 6.368195
981.8849, 7.173523
982.3671, 7.504700
982.8492, 7.740417
983.3313, 7.962433
983.8134, 8.264587
984.2955, 8.997711
984.7776, 10.08507
985.2598, 11.24249
985.7419, 12.30630
986.2240, 13.33565
986.7061, 14.31253
987.1882, 15.35342
987.6703, 16.51375
988.1525, 17.77313
988.6346, 18.93500
989.1167, 19.88388
989.5988, 21.11214
990.0809, 23.41161
990.5630, 26.24356
991.0452, 28.68541
991.5273, 30.63280
992.0094, 32.64087
992.4915, 35.07942
992.9736, 37.48590
993.4557, 39.74306
993.9379, 41.79932
994.4200, 43.09930
994.9021, 43.65439
995.3842, 44.41255
995.8663, 45.95029
996.3484, 47.56018
996.8306, 48.61946
997.3127, 49.14914
997.7948, 49.19421
998.2769, 48.98270
998.7590, 47.82480
999.2411, 45.38715
999.7233, 42.52148
1000.205, 40.16144
1000.688, 38.11920
1001.170, 35.49120
1001.652, 32.24205
1002.134, 28.99464
1002.616, 26.25661
1003.098, 23.60681
1003.580, 20.53004
1004.062, 17.21088
1004.544, 15.19913
1005.027, 14.93338
1005.509, 14.11433
1005.991, 11.90524
1006.473, 9.247498
1006.955, 7.511093
1007.437, 6.430176
1007.919, 5.444275
1008.401, 4.326462
1008.883, 3.543228
1009.366, 3.676590
1009.848, 3.898956
1010.330, 3.612350
1010.812, 2.781738
1011.294, 2.442520
1011.776, 2.595230
1012.258, 2.719971
1012.740, 2.415924
1013.223, 1.971970
1013.705, 1.564346
1014.187, 1.236221
1014.669, 1.122345
1015.151, 1.365295
1015.633, 1.586166
1016.115, 1.738968
1016.597, 1.828873
1017.079, 1.828415
1017.562, 1.769058
1018.044, 1.772324
1018.526, 1.867233
1019.008, 1.891113
1019.490, 1.871628
1019.972, 1.727890
1020.454, 1.315552
1020.936, 0.6620330
1021.419, 0.2937320
1021.901, 0.2355960
1022.383, 0.3493650
1022.865, 0.6737520
1023.347, 1.022156
1023.829, 1.106781
1024.311, 1.030823
1024.793, 1.009125
1025.275, 1.423615
1025.758, 1.390350
1026.240, 0.5366060
1026.722, 0.3441010
1027.204, 0.3624730
1027.686, 0.3416750
1028.168, 0.8756410
1028.650, 1.188644
1029.132, 1.402390
1029.615, 1.597244
1030.097, 1.711533
1030.579, 1.586853
1031.061, 1.313583
1031.543, 1.370148
1032.025, 1.853149
1032.507, 2.271194
1032.989, 2.538239
1033.471, 2.585907
1033.953, 2.146240
1034.436, 1.476166
1034.918, 0.9785460
1035.400, 0.7342680
1035.882, 0.7117160
1036.364, 1.139603
1036.846, 1.524200
1037.328, 1.604034
1037.810, 1.410690
1038.293, 1.136490
1038.775, 0.8044130
1039.257, 0.6279600
1039.739, 0.8183440
1040.221, 1.109161
1040.703, 1.564270
1041.185, 1.925644
1041.667, 1.622345
1042.150, 0.2221680
1042.632, 0.4449770
1043.114, 8.0917001E-02
1043.596, 0.4156040
1044.078, 0.1677090
1044.560, 1.118607
1045.042, 1.075867
1045.524, 2.2580000E-03
1046.006, 0.8614040
1046.489, 0.9368900
1046.971, 0.8492890
1047.453, 0.7252500
1047.935, 0.6162110
1048.417, 0.7169190
1048.899, 0.9938510
1049.381, 1.175934
1049.863, 1.187134
1050.345, 1.100372
1050.828, 0.8691410
1051.310, 0.6309510
1051.792, 0.5391080
1052.274, 0.6198880
1052.756, 0.7078250
1053.238, 0.8101810
1053.720, 0.8901820
1054.202, 0.9037930
1054.685, 0.8979800
1055.167, 0.9716950
1055.649, 1.091370
1056.131, 1.168274
1056.613, 1.162430
1057.095, 1.107788
1057.577, 0.9317020
1058.059, 0.8094480
1058.542, 1.031815
1059.024, 1.521362
1059.506, 1.745483
1059.988, 1.667633
1060.470, 1.516953
1060.952, 1.269608
1061.434, 1.157120
1061.916, 1.569275
1062.398, 2.265350
1062.880, 2.137360
1063.363, 0.9707030
1063.845, 0.3725430
1064.327, 0.8610690
1064.809, 1.694244
1065.291, 2.098358
1065.773, 2.208817
1066.255, 2.165634
1066.737, 1.920258
1067.220, 1.842957
1067.702, 2.009323
1068.184, 2.270264
1068.666, 2.662262
1069.148, 3.034088
1069.630, 2.738571
1070.112, 1.949783
1070.594, 1.292648
1071.077, 1.027435
1071.559, 1.027557
1072.041, 1.381927
1072.523, 1.810745
1073.005, 2.107788
1073.487, 2.265854
1073.969, 2.409500
1074.451, 2.547455
1074.933, 2.503372
1075.416, 1.934006
1075.898, 1.301498
1076.380, 1.076813
1076.862, 1.162888
1077.344, 1.069046
1077.826, 0.6170500
1078.308, 0.3741000
1078.790, 0.4456790
1079.272, 0.7171170
1079.755, 1.231506
1080.237, 1.763824
1080.719, 1.801010
1081.201, 1.225021
1081.683, 0.9120790
1082.165, 1.332535
1082.647, 1.881546
1083.129, 2.445099
1083.611, 2.933395
1084.094, 2.966736
1084.576, 2.605743
1085.058, 2.305252
1085.540, 2.221497
1086.022, 2.257889
1086.504, 2.599335
1086.986, 2.868820
1087.468, 2.652039
1087.951, 1.860611
1088.433, 1.509216
1088.915, 1.628265
1089.397, 1.753281
1089.879, 1.490234
1090.361, 1.177628
1090.843, 1.312454
1091.325, 1.645828
1091.807, 1.614944
1092.290, 0.8258210
1092.772, 0.2796940
1093.254, 3.2257002E-02
1093.736, 2.6535001E-02
1094.218, 0.2652590
1094.700, 0.6813050
1095.182, 1.239120
1095.664, 1.891266
1096.146, 2.305954
1096.629, 2.188675
1097.111, 2.001648
1097.593, 1.860962
1098.075, 1.736923
1098.557, 1.449234
1099.039, 1.089081
1099.521, 1.322769
1100.003, 2.347015
1100.486, 3.110886
1100.968, 2.881256
1101.450, 2.240433
1101.932, 1.372513
1102.414, 0.3440860
1102.896, 7.9223998E-02
1103.378, 0.6741790
1103.860, 1.270203
1104.343, 1.668777
1104.825, 1.774796
1105.307, 1.183777
1105.789, 0.4086150
1106.271, 0.1024930
1106.753, 0.5145420
1107.235, 0.8834380
1107.717, 1.245667
1108.199, 1.449280
1108.682, 1.251434
1109.164, 0.9535520
1109.646, 1.228516
1110.128, 1.823730
1110.610, 2.136002
1111.092, 1.594925
1111.574, 1.286209
1112.056, 1.377151
1112.538, 1.600342
1113.021, 1.782486
1113.503, 1.888367
1113.985, 1.758102
1114.467, 1.408813
1114.949, 1.004059
1115.431, 0.5013730
1115.913, 0.1232150
1116.395, 7.1720001E-03
1116.878, 6.5770000E-03
1117.360, 2.6397999E-02
1117.842, 9.1415003E-02
1118.324, 9.4452001E-02
1118.806, 0.5807040
1119.288, 1.034119
1119.770, 1.320068
1120.252, 1.370789
1120.734, 0.9256740
1121.217, 0.1563870
1121.699, 2.1317000E-02
1122.181, 0.4826050
1122.663, 0.7049870
1123.145, 0.3213200
1123.627, 0.1734160
1124.109, 0.2944030
1124.591, 0.1839290
1125.073, 4.3839000E-02
1125.556, 0.4046780
1126.038, 0.6499020
1126.520, 0.7959590
1127.002, 0.7654720
1127.484, 0.4802400
1127.966, 7.2967999E-02
1128.448, 0.4216310
1128.930, 0.8166350
1129.413, 0.7115480
1129.895, 0.3758240
1130.377, 1.049377
1130.859, 1.023575
1131.341, 0.8920140
1131.823, 1.041809
1132.305, 1.379440
1132.787, 1.689713
1133.270, 1.924728
1133.752, 1.929199
1134.234, 1.341309
1134.716, 0.8993680
1135.198, 0.7613530
1135.680, 0.8549960
1136.162, 1.311462
1136.644, 2.025192
1137.126, 1.887772
1137.609, 0.9666900
1138.091, 0.3288270
1138.573, 0.9835360
1139.055, 1.665375
1139.537, 1.743454
1140.019, 1.442184
1140.501, 0.9493560
1140.983, 0.2522740
1141.465, 0.1463170
1141.948, 0.7267300
1142.430, 1.382935
1142.912, 1.666214
1143.394, 1.795822
1143.876, 1.945572
1144.358, 2.078262
1144.840, 1.988403
1145.322, 1.634064
1145.805, 0.7090760
1146.287, 1.674438
1146.769, 2.210327
1147.251, 2.339798
1147.733, 0.8454740
1148.215, 1.448090
1148.697, 1.210342
1149.179, 0.9382480
1149.661, 1.835983
1150.144, 0.5780640
1150.626, 1.457275
1151.108, 1.483429
1151.590, 1.899918
1152.072, 1.471283
1152.554, 1.303696
1153.036, 1.982025
1153.518, 2.192001
1154.000, 1.666122
1154.483, 2.107864
1154.965, 0.8208620
1155.447, 1.050888
1155.929, 1.935669
1156.411, 1.452499
1156.893, 1.910385
1157.375, 2.009552
1157.857, 0.4808650
1158.340, 1.783508
1158.822, 1.861816
1159.304, 0.6829530
1159.786, 1.888748
1160.268, 0.8835910
1160.750, 0.6680300
1161.232, 1.046463
1161.714, 0.8057560
1162.197, 1.541290
1162.679, 1.336334
1163.161, 1.047501
1163.643, 1.126038
1164.125, 0.1657410
1164.607, 1.132278
1165.089, 0.7819520
1165.571, 1.086258
1166.053, 1.538971
1166.536, 0.8556060
1167.018, 1.375061
1167.500, 2.9358000E-02
1167.982, 0.2442930
1168.464, 0.2911990
1168.946, 1.335648
1169.428, 8.8499999E-04
1169.910, 0.1708980
1170.392, 0.7125850
1170.875, 0.8453830
1171.357, 1.370636
1171.839, 1.982086
1172.321, 2.132019
1172.803, 1.837814
1173.285, 1.689514
1173.767, 1.758514
1174.249, 1.706024
1174.732, 1.060532
1175.214, 0.4365390
1175.696, 0.2780610
1176.178, 0.4242100
1176.660, 0.4806670
1177.142, 0.4484860
1177.624, 0.4368590
1178.106, 0.4486690
1178.589, 0.6056060
1179.071, 1.374741
1179.553, 2.018707
1180.035, 1.675858
1180.517, 0.6305080
1180.999, 0.5275420
1181.481, 1.473251
1181.963, 1.840958
1182.445, 1.054367
1182.927, 0.3232730
1183.410, 1.328323
1183.892, 2.625549
1184.374, 2.604172
1184.856, 1.297211
1185.338, 0.8257450
1185.820, 1.265976
1186.302, 1.710358
1186.784, 1.914276
1187.267, 1.927948
1187.749, 1.603867
1188.231, 1.213791
1188.713, 1.141449
1189.195, 1.434448
1189.677, 1.735352
1190.159, 2.074966
1190.641, 2.152817
1191.124, 1.754700
1191.606, 1.212204
1192.088, 0.7915340
1192.570, 0.5229800
1193.052, 0.4880370
1193.534, 0.7623140
1194.016, 0.8423460
1194.498, 0.6834560
1194.980, 0.6336060
1195.463, 1.033386
1195.945, 1.419281
1196.427, 1.006500
1196.909, 0.2990420
1197.391, 0.1031800
1197.873, 0.6965480
1198.355, 1.226349
1198.837, 1.729462
1199.319, 1.962784
1199.802, 1.602936
1200.284, 1.064102
1200.766, 0.7494810
1201.248, 0.6453700
1201.730, 0.7678680
1202.212, 1.360901
1202.694, 1.482269
1203.176, 1.047928
1203.658, 0.5529170
1204.141, 0.2424160
1204.623, 0.1502230
1205.105, 0.5234380
1205.587, 1.115768
1206.069, 1.348709
1206.551, 0.9337770
1207.033, 0.7443540
1207.515, 0.8156590
1207.998, 1.037262
1208.480, 1.472977
1208.962, 1.898575
1209.444, 2.023926
1209.926, 1.900406
1210.408, 1.615845
1210.890, 0.9886020
1211.372, 0.8398590
1211.854, 1.305450
1212.337, 1.755173
1212.819, 1.595871
1213.301, 1.166916
1213.783, 0.6509400
1214.265, 0.1980440
1214.747, 0.2712250
1215.229, 1.150452
1215.711, 1.731781
1216.193, 1.932083
1216.676, 1.815796
1217.158, 1.140579
1217.640, 0.4165500
1218.122, 0.2888950
1218.604, 0.6205140
1219.086, 0.8071140
1219.568, 0.7959900
1220.050, 0.6741180
1220.533, 0.4233250
1221.015, 0.2205810
1221.497, 0.2063140
1221.979, 0.3394010
1222.461, 0.6964420
1222.943, 1.172577
1223.425, 1.336456
1223.907, 1.077957
1224.390, 0.9543460
1224.872, 1.056442
1225.354, 1.160095
1225.836, 0.8601230
1226.318, 0.6167300
1226.800, 1.029633
1227.282, 1.954010
1227.764, 2.413254
1228.246, 2.374908
1228.729, 2.104385
1229.211, 1.604202
1229.693, 1.205185
1230.175, 1.448822
1230.657, 1.736725
1231.139, 1.461075
1231.621, 0.7442320
1232.103, 0.2560120
1232.585, 8.8350000E-03
1233.068, 4.8553001E-02
1233.550, 9.4665997E-02
1234.032, 0.2604220
1234.514, 0.2239230
1234.996, 0.2055660
1235.478, 0.3908390
1235.960, 0.7495570
1236.442, 1.294769
1236.925, 2.051025
1237.407, 2.010910
1237.889, 0.9230960
1238.371, 0.2189030
1238.853, 0.7951050
1239.335, 0.9520260
1239.817, 0.6508180
1240.299, 4.1671999E-02
1240.781, 0.6987000
1241.264, 1.526154
1241.746, 1.639557
1242.228, 0.8200680
1242.710, 5.2429002E-02
1243.192, 7.6736003E-02
1243.674, 0.3290710
1244.156, 0.4890750
1244.638, 0.6178440
1245.120, 1.013885
1245.603, 1.591827
1246.085, 1.722763
1246.567, 1.237915
1247.049, 0.8694610
1247.531, 1.287399
1248.013, 1.621140
1248.495, 1.399872
1248.977, 0.8873290
1249.460, 0.7431640
1249.942, 0.8880000
1250.424, 0.9992070
1250.906, 1.012024
1251.388, 1.094528
1251.870, 1.344528
1252.352, 1.683685
1252.834, 2.200073
1253.317, 2.648834
1253.799, 2.310638
1254.281, 1.504761
1254.763, 1.085770
1255.245, 1.213074
1255.727, 1.384033
1256.209, 1.533035
1256.691, 1.541016
1257.173, 1.297775
1257.656, 1.021820
1258.138, 1.139297
1258.620, 1.499130
1259.102, 1.893814
1259.584, 2.304047
1260.066, 2.416382
1260.548, 2.057846
1261.030, 1.763458
1261.512, 1.709686
1261.995, 1.714691
1262.477, 1.505035
1262.959, 1.205124
1263.441, 0.9230500
1263.923, 0.6839290
1264.405, 0.8621520
1264.887, 1.684082
1265.369, 2.051422
1265.852, 1.585220
1266.334, 0.3096920
1266.816, 1.304825
1267.298, 1.868256
1267.780, 1.991241
1268.262, 0.5152130
1268.744, 1.139481
1269.226, 0.9305570
1269.708, 0.6876070
1270.191, 1.614670
1270.673, 0.2329860
1271.155, 0.9152370
1271.637, 0.9409030
1272.119, 1.380859
1272.601, 0.9608610
1273.083, 0.8018040
1273.565, 1.502655
1274.047, 1.735031
1274.530, 1.231232
1275.012, 1.694748
1275.494, 0.4290470
1275.976, 0.6802370
1276.458, 1.585602
1276.940, 1.122726
1277.422, 1.599945
1277.904, 1.718689
1278.387, 0.2089230
1278.869, 1.529984
1279.351, 1.626221
1279.833, 0.4647370
1280.315, 1.687241
1280.797, 0.6979980
1281.279, 0.4974820
1281.761, 0.8902890
1282.244, 0.6631470
1282.726, 1.411560
1283.208, 1.246323
1283.690, 1.399475
1284.172, 0.3486020
1284.654, 0.2438960
1285.136, 0.1294860
1285.618, 0.8652340
1286.100, 1.328674
1286.583, 1.514725
1287.065, 1.422180
1287.547, 1.050186
1288.029, 0.6818390
1288.511, 0.2324680
1288.993, 0.2136080
1289.475, 0.8135070
1289.957, 1.412781
1290.439, 1.238388
1290.922, 0.7986760
1291.404, 0.5222930
1291.886, 0.4247440
1292.368, 0.3736110
1292.850, 0.3556060
1293.332, 0.5849760
1293.814, 0.9645540
1294.296, 1.363998
1294.779, 1.040512
1295.261, 0.7229920
1295.743, 1.175308
1296.225, 1.860321
1296.707, 1.627869
1297.189, 0.5993190
1297.671, 1.2360000E-02
1298.153, 1.7731000E-02
1298.635, 0.1330410
1299.118, 0.4021300
1299.600, 0.5972140
1300.082, 0.6676330
1300.564, 0.5918880
1301.046, 0.3331910
1301.528, 1.5853999E-02
1302.010, 0.0000000E+00
##END=



