##NAMES=Hodgkinsonite
##RRUFFID=R140280
##IDEAL CHEMISTRY=Zn^2+^_2_Mn^2+^SiO_4_(OH)_2_
##LOCALITY=Parker Shaft, Franklin mine, Franklin, Franklin Mining District, Sussex County, New Jersey, USA
##OWNER=RRUFF
##SOURCE=Marcus Origlieri
##DESCRIPTION=Pinkish striated subhedral crystals, associated with franklinite and calcite
##STATUS=The identification of this mineral has been confirmed by single-crystal X-ray diffraction.
##URL=rruff.info/R140280
99.27380, 0.0000000E+00
99.75591, 10.65143
100.2380, 31.04010
100.7201, 57.14441
101.2023, 93.49298
101.6844, 130.3476
102.1665, 146.3402
102.6486, 129.8234
103.1307, 98.22845
103.6128, 67.67041
104.0950, 37.88434
104.5771, 14.76758
105.0592, 6.131958
105.5413, 13.15649
106.0234, 18.34192
106.5055, 18.64813
106.9877, 18.80133
107.4698, 19.79010
107.9519, 24.67444
108.4340, 28.23480
108.9161, 27.94568
109.3982, 24.06885
109.8804, 18.10822
110.3625, 10.38373
110.8446, 0.2146000
111.3267, 6.013062
111.8088, 6.936096
112.2909, 5.382629
112.7731, 1.991516
113.2552, 2.704895
113.7373, 7.991577
114.2194, 13.38879
114.7015, 19.72864
115.1836, 24.89868
115.6658, 29.23346
116.1479, 32.37317
116.6300, 32.68170
117.1121, 29.92358
117.5942, 25.71600
118.0763, 23.48193
118.5584, 23.59949
119.0406, 24.73364
119.5227, 26.01672
120.0048, 27.87500
120.4869, 31.44641
120.9690, 37.06537
121.4511, 45.20758
121.9333, 55.51465
122.4154, 67.66742
122.8975, 83.13055
123.3796, 104.8647
123.8617, 133.7281
124.3438, 161.0939
124.8260, 191.4673
125.3081, 215.7978
125.7902, 221.8913
126.2723, 204.3289
126.7544, 171.0224
127.2365, 137.6297
127.7187, 100.9118
128.2008, 70.09631
128.6829, 47.31848
129.1650, 31.14447
129.6471, 19.93857
130.1292, 13.12622
130.6114, 10.42013
131.0935, 7.666748
131.5756, 3.574249
132.0577, 0.6740420
132.5398, 0.3398740
133.0219, 0.4225770
133.5041, 2.550934
133.9862, 5.734192
134.4683, 10.07504
134.9504, 15.05170
135.4325, 19.57666
135.9146, 25.42184
136.3968, 33.80396
136.8789, 44.73041
137.3610, 57.30878
137.8431, 71.06464
138.3252, 86.76166
138.8073, 98.91879
139.2895, 106.3448
139.7716, 110.4631
140.2537, 112.9537
140.7358, 114.2504
141.2179, 113.5653
141.7000, 109.6531
142.1821, 102.9595
142.6643, 94.06424
143.1464, 81.95200
143.6285, 67.52509
144.1106, 53.77026
144.5927, 40.59692
145.0748, 29.43164
145.5570, 21.20169
146.0391, 15.92877
146.5212, 12.19141
147.0033, 8.912384
147.4854, 6.060699
147.9675, 3.944305
148.4497, 3.814941
148.9318, 3.676331
149.4139, 1.943146
149.8960, 1.593079
150.3781, 5.253998
150.8602, 6.444000
151.3424, 4.246429
151.8245, 1.397736
152.3066, 2.209656
152.7887, 5.993988
153.2708, 9.483887
153.7529, 12.49216
154.2351, 15.23413
154.7172, 18.23401
155.1993, 20.92920
155.6814, 24.70432
156.1635, 29.96271
156.6456, 36.21539
157.1278, 43.98605
157.6099, 51.80957
158.0920, 59.79132
158.5741, 68.52097
159.0562, 77.14484
159.5383, 87.26752
160.0205, 99.62006
160.5026, 113.7955
160.9847, 128.8058
161.4668, 143.8271
161.9489, 159.4772
162.4310, 177.4840
162.9131, 198.1113
163.3953, 220.4042
163.8774, 244.8318
164.3595, 271.1668
164.8416, 296.5917
165.3237, 319.7836
165.8058, 340.5662
166.2880, 358.9360
166.7701, 373.6405
167.2522, 387.0210
167.7343, 400.5130
168.2164, 413.2893
168.6985, 429.6148
169.1807, 455.0313
169.6628, 484.8219
170.1449, 514.5859
170.6270, 547.3682
171.1091, 576.2842
171.5912, 584.6816
172.0734, 567.2805
172.5555, 536.6058
173.0376, 492.9970
173.5197, 442.5792
174.0018, 393.1723
174.4839, 348.4320
174.9661, 308.6401
175.4482, 276.5472
175.9303, 255.1818
176.4124, 239.5453
176.8945, 229.6996
177.3766, 224.3269
177.8588, 221.9347
178.3409, 221.8547
178.8230, 224.1240
179.3051, 224.1244
179.7872, 222.1154
180.2693, 217.6057
180.7515, 208.8105
181.2336, 197.0617
181.7157, 185.1931
182.1978, 175.2563
182.6799, 167.0115
183.1620, 164.0461
183.6441, 167.4040
184.1263, 173.7115
184.6084, 182.6985
185.0905, 193.6261
185.5726, 204.6432
186.0547, 214.5358
186.5368, 223.2812
187.0190, 226.8503
187.5011, 222.5267
187.9832, 215.2518
188.4653, 207.9487
188.9474, 201.0634
189.4296, 194.6947
189.9117, 188.5766
190.3938, 182.8939
190.8759, 179.8736
191.3580, 180.2720
191.8401, 183.2475
192.3223, 188.0968
192.8044, 194.8530
193.2865, 202.9156
193.7686, 211.8290
194.2507, 221.5733
194.7328, 232.6249
195.2150, 245.2354
195.6971, 259.2167
196.1792, 274.2348
196.6613, 290.0979
197.1434, 307.4882
197.6255, 326.5504
198.1077, 347.3394
198.5898, 370.0136
199.0719, 394.2714
199.5540, 420.4905
200.0361, 449.8297
200.5182, 481.8323
201.0004, 518.4831
201.4825, 559.0353
201.9646, 603.9749
202.4467, 654.0352
202.9288, 710.7025
203.4109, 773.7724
203.8930, 838.4128
204.3752, 911.3156
204.8573, 978.0070
205.3394, 1039.766
205.8215, 1091.663
206.3036, 1124.690
206.7857, 1132.154
207.2679, 1114.060
207.7500, 1069.282
208.2321, 977.5818
208.7142, 875.7849
209.1963, 767.3620
209.6784, 657.5918
210.1606, 554.3566
210.6427, 464.2054
211.1248, 388.0284
211.6069, 322.1219
212.0890, 267.6060
212.5711, 221.1401
213.0533, 182.6161
213.5354, 151.3044
214.0175, 125.4132
214.4996, 103.5835
214.9817, 86.03525
215.4638, 71.62872
215.9460, 61.10162
216.4281, 52.16702
216.9102, 43.72739
217.3923, 35.78207
217.8744, 28.84750
218.3565, 23.58084
218.8387, 20.24625
219.3208, 16.49146
219.8029, 11.23596
220.2850, 6.451355
220.7671, 3.609406
221.2492, 2.615631
221.7314, 2.055389
222.2135, 0.6763920
222.6956, 1.570740
223.1777, 3.095520
223.6598, 3.121429
224.1419, 3.005768
224.6240, 3.969482
225.1062, 6.022949
225.5883, 7.961426
226.0704, 8.728760
226.5525, 8.425964
227.0346, 8.285614
227.5167, 8.794800
227.9989, 9.234558
228.4810, 8.865540
228.9631, 7.639587
229.4452, 6.134338
229.9273, 4.576569
230.4094, 3.064209
230.8916, 1.865204
231.3737, 1.436798
231.8558, 1.116699
232.3379, 0.2105100
232.8200, 1.296631
233.3021, 3.288544
233.7843, 6.038574
234.2664, 9.188904
234.7485, 12.19647
235.2306, 14.74744
235.7127, 17.24881
236.1948, 20.53763
236.6770, 24.97662
237.1591, 28.75403
237.6412, 29.98813
238.1233, 30.34152
238.6054, 31.75470
239.0875, 35.19250
239.5697, 39.40964
240.0518, 42.46896
240.5339, 44.23303
241.0160, 45.27411
241.4981, 45.65536
241.9802, 45.53436
242.4624, 44.97849
242.9445, 43.99240
243.4266, 42.66422
243.9087, 41.00797
244.3908, 38.74490
244.8729, 36.92166
245.3550, 35.77533
245.8372, 35.16293
246.3193, 34.96976
246.8014, 35.14429
247.2835, 35.77203
247.7656, 37.02551
248.2477, 39.21136
248.7299, 41.29742
249.2120, 42.72983
249.6941, 44.20786
250.1762, 46.27789
250.6583, 49.10950
251.1404, 52.46124
251.6226, 56.05154
252.1047, 60.14465
252.5868, 63.81836
253.0689, 66.07440
253.5510, 68.53308
254.0331, 72.38031
254.5153, 77.89774
254.9974, 84.53802
255.4795, 91.57339
255.9616, 99.07953
256.4437, 106.8216
256.9258, 114.7785
257.4080, 122.9172
257.8901, 131.8066
258.3722, 141.2564
258.8543, 150.0413
259.3364, 156.4616
259.8185, 159.8694
260.3007, 162.3113
260.7828, 164.4310
261.2649, 165.3645
261.7470, 164.1360
262.2291, 160.9010
262.7112, 156.8694
263.1934, 153.2105
263.6755, 149.4673
264.1576, 148.0536
264.6397, 150.0495
265.1218, 152.9660
265.6039, 155.3424
266.0861, 157.2094
266.5682, 159.5825
267.0503, 163.5182
267.5324, 169.2675
268.0145, 175.0308
268.4966, 181.3200
268.9788, 187.1691
269.4609, 192.2415
269.9430, 196.4562
270.4251, 199.7422
270.9072, 202.0071
271.3893, 203.2163
271.8715, 203.8423
272.3536, 203.7875
272.8357, 203.3876
273.3178, 202.2976
273.7999, 200.9084
274.2820, 200.1935
274.7642, 200.8520
275.2463, 202.7633
275.7284, 204.7764
276.2105, 205.7137
276.6926, 207.9615
277.1747, 212.3389
277.6568, 218.6359
278.1389, 226.3586
278.6211, 235.3004
279.1032, 245.3619
279.5853, 256.3599
280.0674, 268.9973
280.5495, 281.4032
281.0316, 293.8891
281.5138, 305.9088
281.9959, 316.4269
282.4780, 324.9582
282.9601, 331.5106
283.4422, 336.1118
283.9243, 340.7124
284.4065, 340.7126
284.8886, 334.0915
285.3707, 322.5138
285.8528, 308.0736
286.3349, 291.3282
286.8170, 272.8993
287.2992, 253.2012
287.7813, 231.7879
288.2634, 211.0347
288.7455, 191.0620
289.2276, 172.0735
289.7097, 154.5801
290.1919, 138.7400
290.6740, 124.2074
291.1561, 110.2708
291.6382, 96.84680
292.1203, 85.04233
292.6024, 76.09531
293.0846, 68.18417
293.5667, 59.22665
294.0488, 48.95526
294.5309, 39.28595
295.0130, 32.09485
295.4951, 27.49051
295.9773, 23.00574
296.4594, 18.45990
296.9415, 14.07553
297.4236, 9.799744
297.9057, 5.717499
298.3878, 2.417938
298.8700, 0.4777530
299.3521, 0.2259220
299.8342, 1.035217
300.3163, 2.127441
300.7984, 3.156006
301.2805, 4.005829
301.7627, 4.650513
302.2448, 5.079498
302.7269, 5.471344
303.2090, 5.460175
303.6911, 4.056152
304.1732, 0.5119930
304.6554, 3.060486
305.1375, 5.291351
305.6196, 6.805054
306.1017, 9.224823
306.5838, 13.19107
307.0659, 18.29620
307.5481, 23.83679
308.0302, 29.82175
308.5123, 36.02313
308.9944, 42.31793
309.4765, 48.78271
309.9586, 55.66779
310.4408, 63.13873
310.9229, 70.47983
311.4050, 76.34100
311.8871, 80.66867
312.3692, 85.67499
312.8513, 91.92508
313.3335, 99.01028
313.8156, 106.4445
314.2977, 114.1301
314.7798, 122.4204
315.2619, 131.6407
315.7440, 141.8690
316.2262, 153.0427
316.7083, 165.0836
317.1904, 178.1263
317.6725, 192.2472
318.1546, 207.5017
318.6367, 223.7867
319.1188, 240.9527
319.6010, 259.2352
320.0831, 279.2095
320.5652, 300.5298
321.0473, 323.8809
321.5294, 349.8318
322.0115, 378.1244
322.4937, 408.3987
322.9758, 440.4181
323.4579, 474.2195
323.9400, 509.4990
324.4221, 548.0760
324.9042, 584.3483
325.3864, 619.3021
325.8685, 650.2983
326.3506, 673.2325
326.8327, 687.1722
327.3148, 691.3371
327.7969, 683.0536
328.2791, 662.4985
328.7612, 633.9006
329.2433, 594.2879
329.7254, 548.7572
330.2075, 501.8268
330.6896, 454.2703
331.1718, 408.2932
331.6539, 365.5359
332.1360, 326.4160
332.6181, 291.1704
333.1002, 260.1516
333.5823, 232.9821
334.0645, 209.8213
334.5466, 190.5570
335.0287, 173.8000
335.5108, 159.0267
335.9929, 146.0912
336.4750, 133.8020
336.9572, 121.8566
337.4393, 110.6321
337.9214, 100.1831
338.4035, 90.53284
338.8856, 82.00974
339.3677, 74.91150
339.8499, 68.69315
340.3320, 61.82843
340.8141, 53.22739
341.2962, 46.02246
341.7783, 41.30515
342.2604, 38.12378
342.7426, 35.49582
343.2247, 33.15475
343.7068, 30.87091
344.1889, 28.27551
344.6710, 25.07242
345.1531, 22.52240
345.6353, 20.77197
346.1174, 19.60538
346.5995, 19.03180
347.0816, 18.97128
347.5637, 19.06375
348.0458, 19.00522
348.5280, 18.79260
349.0101, 18.64066
349.4922, 17.99121
349.9743, 17.92383
350.4564, 19.18094
350.9385, 21.40344
351.4207, 23.71844
351.9028, 25.61099
352.3849, 27.27585
352.8670, 29.51166
353.3491, 32.64822
353.8312, 35.83176
354.3134, 39.00925
354.7955, 42.25211
355.2776, 45.64267
355.7597, 49.17587
356.2418, 52.72330
356.7239, 56.16537
357.2061, 59.85510
357.6882, 62.57413
358.1703, 64.35193
358.6524, 65.26465
359.1345, 65.08826
359.6166, 63.96967
360.0987, 62.55096
360.5808, 61.51263
361.0630, 61.00323
361.5451, 59.30383
362.0272, 55.53101
362.5093, 51.72075
362.9914, 48.55276
363.4735, 45.75714
363.9557, 42.83612
364.4378, 39.50122
364.9199, 35.91263
365.4020, 32.64578
365.8841, 29.59599
366.3662, 26.94196
366.8484, 24.59392
367.3305, 22.64059
367.8126, 21.33768
368.2947, 20.75089
368.7768, 20.47031
369.2589, 19.89973
369.7411, 19.02133
370.2232, 17.87614
370.7053, 15.84068
371.1874, 13.96570
371.6695, 12.83794
372.1516, 12.41090
372.6338, 12.24112
373.1159, 12.04469
373.5980, 11.81924
374.0801, 11.38390
374.5622, 10.16261
375.0443, 9.442932
375.5265, 9.767410
376.0086, 10.85359
376.4907, 12.23332
376.9728, 13.67206
377.4549, 15.18240
377.9370, 16.79723
378.4192, 18.57185
378.9013, 20.37471
379.3834, 22.27032
379.8655, 24.12741
380.3476, 25.88475
380.8297, 27.51103
381.3119, 28.83514
381.7940, 29.52777
382.2761, 29.62198
382.7582, 29.91864
383.2403, 30.93526
383.7224, 31.66753
384.2046, 31.33900
384.6867, 30.14960
385.1688, 28.83954
385.6509, 27.79485
386.1330, 26.95132
386.6151, 26.22385
387.0973, 25.73245
387.5794, 24.91866
388.0615, 22.77502
388.5436, 20.28838
389.0257, 19.00458
389.5078, 19.67969
389.9900, 20.75757
390.4721, 20.80080
390.9542, 19.94391
391.4363, 19.23712
391.9184, 18.95526
392.4005, 19.06911
392.8827, 19.72092
393.3648, 20.99788
393.8469, 21.76378
394.3290, 21.14728
394.8111, 19.88307
395.2932, 19.19536
395.7754, 19.28825
396.2575, 19.53279
396.7396, 19.38472
397.2217, 18.86880
397.7038, 18.40483
398.1859, 18.09297
398.6681, 17.75717
399.1501, 17.27322
399.6323, 16.66251
400.1144, 16.02556
400.5965, 15.43036
401.0786, 14.81210
401.5607, 13.97780
402.0428, 12.81908
402.5250, 11.66805
403.0071, 10.43425
403.4892, 9.302017
403.9713, 8.657913
404.4534, 8.547546
404.9355, 8.361267
405.4177, 7.280457
405.8998, 4.961823
406.3819, 3.576859
406.8640, 3.969360
407.3461, 4.373535
407.8282, 3.830490
408.3104, 2.567688
408.7925, 1.268738
409.2746, 0.3179020
409.7567, 0.2722780
410.2388, 0.4569550
410.7209, 0.4902500
411.2031, 0.8936920
411.6852, 0.1985170
412.1673, 0.8616790
412.6494, 1.622620
413.1315, 1.900787
413.6136, 1.902130
414.0958, 1.855896
414.5779, 1.717285
415.0600, 1.718307
415.5421, 2.036179
416.0242, 2.329254
416.5063, 2.592865
416.9885, 2.727692
417.4706, 2.479034
417.9527, 1.545502
418.4348, 0.2404480
418.9169, 0.2688900
419.3990, 0.4716340
419.8812, 1.002518
420.3633, 0.4177860
420.8454, 0.3270110
421.3275, 0.2058720
421.8096, 1.049088
422.2917, 2.468033
422.7739, 3.111755
423.2560, 3.000687
423.7381, 2.546387
424.2202, 1.522888
424.7023, 0.5635530
425.1844, 5.2505001E-02
425.6666, 2.9998999E-02
426.1487, 0.2719730
426.6308, 1.360260
427.1129, 2.635315
427.5950, 3.184464
428.0771, 2.985352
428.5593, 2.421036
429.0414, 1.376297
429.5235, 0.2583770
430.0056, 4.6585001E-02
430.4877, 0.8292390
430.9698, 1.683517
431.4520, 1.735077
431.9341, 1.370651
432.4162, 1.477570
432.8983, 2.333878
433.3804, 3.241501
433.8625, 3.321701
434.3447, 2.429947
434.8268, 1.822037
435.3089, 1.593445
435.7910, 1.613373
436.2731, 1.963287
436.7552, 2.518753
437.2374, 2.934296
437.7195, 3.015167
438.2016, 2.795120
438.6837, 2.391479
439.1658, 1.431885
439.6479, 0.7655790
440.1301, 0.6613460
440.6122, 0.7544860
441.0943, 0.7864690
441.5764, 0.6640320
442.0585, 0.3171540
442.5406, 0.3552550
443.0227, 1.395584
443.5049, 2.470108
443.9870, 3.493942
444.4691, 4.642227
444.9512, 6.075928
445.4333, 7.644287
445.9154, 9.071381
446.3976, 10.17677
446.8797, 11.20959
447.3618, 12.73155
447.8439, 14.83842
448.3260, 17.14935
448.8081, 20.10405
449.2903, 22.87901
449.7724, 24.84079
450.2545, 26.01134
450.7366, 27.00771
451.2187, 28.22130
451.7008, 29.63535
452.1830, 31.09183
452.6651, 32.43889
453.1472, 34.18503
453.6293, 36.69749
454.1114, 39.78773
454.5935, 43.32303
455.0757, 47.41266
455.5578, 51.64624
456.0399, 55.42010
456.5220, 58.96835
457.0041, 63.39381
457.4862, 69.05159
457.9684, 75.61629
458.4505, 82.62602
458.9326, 89.98877
459.4147, 98.60397
459.8968, 109.2330
460.3789, 120.7226
460.8611, 132.1144
461.3432, 143.4108
461.8253, 155.2370
462.3074, 168.3803
462.7895, 182.0325
463.2716, 193.0594
463.7538, 203.1882
464.2359, 208.6777
464.7180, 208.7800
465.2001, 204.2667
465.6822, 195.0277
466.1643, 181.4657
466.6465, 165.6649
467.1286, 149.6822
467.6107, 133.2644
468.0928, 117.8085
468.5749, 102.8144
469.0570, 89.45361
469.5392, 78.24475
470.0213, 68.79469
470.5034, 60.80952
470.9855, 54.20294
471.4676, 48.61411
471.9497, 43.32582
472.4319, 38.20074
472.9140, 34.04340
473.3961, 31.74345
473.8782, 29.81610
474.3603, 27.39049
474.8424, 24.58281
475.3246, 22.00600
475.8067, 20.16618
476.2888, 18.83420
476.7709, 17.36482
477.2530, 15.64087
477.7351, 13.99706
478.2173, 12.63971
478.6994, 11.55336
479.1815, 10.65851
479.6636, 9.941254
480.1457, 9.122437
480.6278, 8.045914
481.1100, 6.890579
481.5920, 5.890106
482.0742, 5.114441
482.5563, 4.575134
483.0384, 4.273804
483.5205, 4.190628
484.0026, 4.157974
484.4847, 4.359253
484.9669, 4.293472
485.4490, 3.584671
485.9311, 2.612549
486.4132, 2.029816
486.8953, 2.097351
487.3774, 2.471161
487.8596, 2.496216
488.3417, 1.823517
488.8238, 1.497284
489.3059, 1.632385
489.7880, 2.055481
490.2701, 2.812271
490.7523, 3.695511
491.2344, 4.386292
491.7165, 4.728622
492.1986, 4.908188
492.6807, 5.271866
493.1628, 5.899475
493.6450, 6.382172
494.1271, 6.198715
494.6092, 6.109879
495.0913, 6.739853
495.5734, 8.090118
496.0555, 9.599869
496.5377, 10.78748
497.0198, 11.87346
497.5019, 13.36635
497.9840, 15.29475
498.4661, 17.34366
498.9482, 19.43347
499.4304, 21.54871
499.9125, 23.58333
500.3946, 25.37248
500.8767, 27.55382
501.3588, 30.52763
501.8409, 34.05823
502.3231, 37.89981
502.8052, 41.99954
503.2873, 46.08099
503.7694, 49.77887
504.2515, 53.09717
504.7336, 57.04993
505.2158, 61.89970
505.6979, 67.00777
506.1800, 72.03909
506.6621, 77.22131
507.1442, 82.94910
507.6263, 89.35052
508.1085, 96.08463
508.5906, 102.5454
509.0727, 108.5341
509.5548, 114.9891
510.0369, 121.5695
510.5190, 128.9457
511.0012, 138.0004
511.4833, 147.9884
511.9654, 157.4086
512.4475, 165.3759
512.9296, 172.9372
513.4117, 182.2239
513.8939, 193.5571
514.3760, 204.3746
514.8581, 213.6599
515.3402, 222.7948
515.8223, 232.9411
516.3044, 243.9795
516.7866, 255.0114
517.2687, 265.7986
517.7508, 276.3503
518.2329, 287.3506
518.7150, 298.6118
519.1971, 307.5689
519.6793, 312.5535
520.1614, 315.0641
520.6435, 318.5556
521.1256, 324.1161
521.6077, 327.4367
522.0898, 326.9520
522.5720, 324.5204
523.0541, 321.6083
523.5362, 318.3503
524.0183, 314.2387
524.5004, 308.9020
524.9825, 302.4807
525.4647, 295.4969
525.9468, 287.5657
526.4289, 279.6721
526.9110, 271.9666
527.3931, 264.2564
527.8752, 256.2460
528.3574, 248.0080
528.8395, 240.0567
529.3216, 232.7339
529.8037, 226.0836
530.2858, 220.3661
530.7679, 215.8559
531.2501, 211.6854
531.7322, 206.9424
532.2143, 202.6273
532.6964, 200.0491
533.1785, 199.6241
533.6606, 199.4111
534.1428, 198.1282
534.6249, 196.1500
535.1070, 194.5026
535.5891, 193.3963
536.0712, 191.5397
536.5533, 187.9924
537.0355, 182.8091
537.5176, 176.8221
537.9997, 169.7125
538.4818, 162.2531
538.9639, 154.3598
539.4460, 146.3421
539.9282, 138.6381
540.4103, 131.3167
540.8924, 123.9512
541.3745, 116.0696
541.8566, 107.6406
542.3387, 99.77823
542.8209, 92.49594
543.3029, 85.88803
543.7850, 80.18091
544.2672, 75.07417
544.7493, 70.36746
545.2314, 65.97675
545.7135, 61.67300
546.1956, 57.09851
546.6777, 52.31007
547.1599, 48.24327
547.6420, 45.13272
548.1241, 42.36292
548.6062, 39.62491
549.0883, 36.96935
549.5704, 34.44273
550.0526, 31.98654
550.5347, 29.82726
551.0168, 28.15504
551.4989, 26.86580
551.9810, 25.76671
552.4631, 24.82062
552.9453, 23.98369
553.4274, 23.24712
553.9095, 22.60759
554.3916, 21.83087
554.8737, 20.39583
555.3558, 19.46138
555.8380, 19.65945
556.3201, 20.38489
556.8022, 20.80202
557.2843, 20.74136
557.7664, 20.81683
558.2485, 21.77496
558.7307, 23.64220
559.2128, 25.26331
559.6949, 26.23363
560.1770, 27.62117
560.6591, 30.04214
561.1412, 32.79634
561.6234, 34.93092
562.1055, 36.14035
562.5876, 37.68579
563.0697, 40.98225
563.5518, 45.50923
564.0339, 49.48857
564.5161, 52.65353
564.9982, 55.63602
565.4803, 58.68820
565.9624, 61.92958
566.4445, 65.76108
566.9266, 70.21794
567.4088, 75.28903
567.8909, 81.00304
568.3730, 87.19867
568.8551, 93.90442
569.3372, 101.0359
569.8193, 108.2906
570.3015, 115.2394
570.7836, 121.9515
571.2657, 129.3153
571.7478, 137.7248
572.2299, 146.3895
572.7120, 156.0070
573.1942, 165.3754
573.6763, 173.3120
574.1584, 179.6830
574.6405, 185.2256
575.1226, 191.0649
575.6047, 196.6851
576.0869, 200.0876
576.5690, 201.3664
577.0511, 199.9281
577.5332, 194.6673
578.0153, 186.8531
578.4974, 178.6885
578.9796, 170.2199
579.4617, 161.4057
579.9438, 152.0046
580.4259, 142.4256
580.9080, 132.8549
581.3901, 123.4194
581.8723, 114.3632
582.3544, 105.7712
582.8365, 97.83102
583.3186, 91.13275
583.8007, 86.31821
584.2828, 81.83180
584.7650, 77.28865
585.2471, 73.32762
585.7292, 70.32704
586.2113, 68.27902
586.6934, 67.04604
587.1755, 66.62790
587.6577, 66.80634
588.1398, 67.03993
588.6219, 67.25888
589.1040, 68.02824
589.5861, 69.61856
590.0682, 71.69095
590.5504, 73.84560
591.0325, 76.13226
591.5146, 78.84247
591.9967, 82.05737
592.4788, 85.71394
592.9609, 89.80551
593.4431, 94.26907
593.9252, 98.95206
594.4073, 103.7835
594.8894, 108.8792
595.3715, 114.6105
595.8536, 121.5254
596.3358, 126.5495
596.8179, 129.5325
597.3000, 131.1165
597.7821, 131.8168
598.2642, 131.1412
598.7463, 128.0785
599.2285, 122.3391
599.7106, 115.3634
600.1927, 108.9992
600.6748, 103.1596
601.1569, 95.95544
601.6390, 86.83330
602.1212, 77.40973
602.6033, 68.06871
603.0854, 59.19733
603.5675, 51.71849
604.0496, 45.95345
604.5317, 40.83060
605.0139, 35.72215
605.4960, 30.92380
605.9781, 27.04478
606.4602, 24.08470
606.9423, 21.27368
607.4244, 18.00136
607.9066, 14.54869
608.3887, 12.16068
608.8708, 11.89311
609.3529, 11.23047
609.8350, 9.740662
610.3171, 8.120209
610.7993, 6.900681
611.2814, 6.022842
611.7635, 5.041672
612.2456, 3.577164
612.7277, 2.004364
613.2098, 1.219604
613.6920, 1.301788
614.1741, 1.136902
614.6562, 0.1766360
615.1383, 0.7728880
615.6204, 0.5713500
616.1025, 0.5321660
616.5847, 0.9106140
617.0668, 0.5630040
617.5489, 2.068909
618.0310, 2.311020
618.5131, 1.763916
618.9952, 1.393158
619.4774, 1.490082
619.9595, 1.798782
620.4416, 2.034210
620.9237, 2.196686
621.4058, 2.307022
621.8879, 2.416733
622.3701, 2.400909
622.8522, 1.970642
623.3343, 1.551193
623.8164, 1.729141
624.2985, 2.554779
624.7806, 3.272934
625.2628, 3.141953
625.7448, 2.452179
626.2269, 1.983459
626.7090, 1.768829
627.1912, 1.548370
627.6733, 1.149673
628.1554, 0.7270200
628.6375, 0.5777130
629.1196, 0.7022710
629.6017, 0.9958650
630.0839, 1.720123
630.5660, 2.365707
631.0481, 2.549393
631.5302, 2.370483
632.0123, 2.108612
632.4944, 1.892059
632.9766, 1.674377
633.4587, 1.364120
633.9408, 0.9336240
634.4229, 0.5488280
634.9050, 0.2120970
635.3871, 7.4202999E-02
635.8693, 0.3979340
636.3514, 0.6484530
636.8335, 0.5921630
637.3156, 9.2834003E-02
637.7977, 0.3385470
638.2798, 0.2913510
638.7620, 6.2500000E-02
639.2441, 0.4442140
639.7262, 0.8148960
640.2083, 1.121979
640.6904, 1.330048
641.1725, 1.450470
641.6547, 1.515991
642.1368, 1.335083
642.6189, 1.392181
643.1010, 1.917252
643.5831, 2.473450
644.0652, 2.767349
644.5474, 2.857925
645.0295, 2.959183
645.5116, 3.184402
645.9937, 3.465698
646.4758, 3.781418
646.9579, 4.128418
647.4401, 4.032166
647.9222, 3.165237
648.4043, 2.394043
648.8864, 2.478058
649.3685, 3.195267
649.8506, 3.857880
650.3328, 4.378784
650.8149, 4.897446
651.2970, 5.612259
651.7791, 6.274933
652.2612, 6.610519
652.7433, 6.577805
653.2255, 6.184662
653.7076, 5.375687
654.1897, 4.342911
654.6718, 3.795746
655.1539, 3.815186
655.6360, 4.128799
656.1182, 5.054321
656.6003, 5.965973
657.0824, 6.531082
657.5645, 6.793610
658.0466, 6.940887
658.5287, 7.045059
659.0109, 7.057327
659.4930, 6.813461
659.9751, 6.443832
660.4572, 6.302948
660.9393, 6.467773
661.4214, 6.890198
661.9036, 7.629944
662.3857, 8.612320
662.8678, 9.009109
663.3499, 7.867844
663.8320, 7.409546
664.3141, 8.570480
664.7963, 9.913223
665.2784, 10.08963
665.7605, 9.304276
666.2426, 8.873154
666.7247, 9.821335
667.2068, 11.22388
667.6890, 11.18022
668.1711, 9.746262
668.6532, 8.877914
669.1353, 9.162231
669.6174, 9.759460
670.0995, 9.983597
670.5817, 9.829147
671.0638, 9.409790
671.5459, 7.888275
672.0280, 7.145676
672.5101, 8.542191
672.9922, 10.53413
673.4744, 11.41238
673.9565, 11.07829
674.4386, 10.59367
674.9207, 10.78346
675.4028, 11.35585
675.8849, 11.48514
676.3671, 11.06081
676.8492, 10.84152
677.3313, 11.07159
677.8134, 11.37549
678.2955, 11.39597
678.7776, 11.24284
679.2598, 11.30359
679.7419, 11.85822
680.2240, 12.41107
680.7061, 12.73303
681.1882, 12.88031
681.6703, 12.80083
682.1525, 12.50780
682.6346, 12.33176
683.1167, 12.62421
683.5988, 13.28845
684.0809, 13.70224
684.5630, 13.78218
685.0452, 13.76016
685.5273, 13.59801
686.0094, 13.47031
686.4915, 13.38731
686.9736, 13.35576
687.4557, 13.46091
687.9379, 13.86833
688.4200, 14.12201
688.9021, 13.60564
689.3842, 12.70360
689.8663, 12.30077
690.3484, 12.54970
690.8306, 13.05551
691.3127, 13.55190
691.7948, 14.03078
692.2769, 14.44275
692.7590, 14.88052
693.2411, 15.11728
693.7233, 15.07858
694.2054, 14.98325
694.6875, 14.94019
695.1696, 14.85043
695.6517, 14.40848
696.1339, 13.36931
696.6160, 12.40480
697.0981, 12.32638
697.5802, 12.94240
698.0623, 13.68333
698.5444, 14.49557
699.0266, 14.99615
699.5087, 14.83286
699.9908, 14.18100
700.4729, 13.74387
700.9550, 13.77345
701.4371, 13.69354
701.9193, 13.48543
702.4014, 13.15633
702.8835, 12.50893
703.3656, 11.78091
703.8477, 11.50684
704.3298, 11.95865
704.8120, 12.55211
705.2941, 12.54565
705.7762, 12.03168
706.2583, 11.45131
706.7404, 10.83580
707.2225, 10.42581
707.7046, 10.41731
708.1867, 10.64178
708.6688, 10.69917
709.1509, 10.63673
709.6331, 10.29639
710.1152, 9.217209
710.5973, 8.287552
711.0794, 8.180313
711.5615, 8.556030
712.0436, 8.787430
712.5258, 8.648972
713.0079, 8.312347
713.4900, 7.878250
713.9721, 7.402100
714.4542, 7.154907
714.9363, 7.161682
715.4185, 7.247971
715.9006, 7.330353
716.3827, 7.454224
716.8648, 7.757507
717.3469, 8.310181
717.8290, 8.601822
718.3112, 8.581207
718.7933, 8.301590
719.2754, 7.368500
719.7575, 6.370544
720.2396, 6.385773
720.7217, 7.568542
721.2039, 8.676147
721.6860, 8.288330
722.1681, 6.899277
722.6502, 6.552490
723.1323, 7.375290
723.6144, 7.936600
724.0966, 7.739670
724.5787, 7.186737
725.0608, 6.688309
725.5429, 6.260040
726.0250, 5.918777
726.5071, 5.415421
726.9893, 5.270645
727.4714, 6.138870
727.9535, 7.168365
728.4356, 7.238434
728.9177, 6.395035
729.3998, 5.665359
729.8820, 5.810089
730.3641, 6.422363
730.8462, 6.654388
731.3283, 6.500763
731.8104, 5.963425
732.2925, 4.858078
732.7747, 3.854752
733.2568, 3.475571
733.7389, 3.641586
734.2210, 3.921265
734.7031, 4.480865
735.1852, 4.904190
735.6674, 5.038864
736.1495, 5.069153
736.6316, 5.184402
737.1137, 5.316818
737.5958, 5.255707
738.0779, 4.886932
738.5601, 4.326889
739.0422, 3.695587
739.5243, 3.042404
740.0064, 2.559601
740.4885, 2.171753
740.9706, 2.160233
741.4528, 2.962540
741.9349, 4.069992
742.4170, 4.272110
742.8991, 3.128036
743.3812, 2.456543
743.8633, 2.823181
744.3455, 3.268143
744.8276, 3.233444
745.3097, 2.964401
745.7918, 2.893250
746.2739, 3.134018
746.7560, 3.456512
747.2382, 3.680603
747.7203, 3.805771
748.2024, 3.756256
748.6845, 3.524094
749.1666, 3.562180
749.6487, 4.205597
750.1309, 4.698654
750.6130, 3.920731
751.0951, 1.748718
751.5772, 0.7993930
752.0593, 2.127731
752.5414, 3.199753
753.0236, 3.230530
753.5057, 2.937332
753.9878, 3.082825
754.4699, 3.584396
754.9520, 3.720139
755.4341, 2.912643
755.9163, 1.905045
756.3984, 1.781769
756.8805, 2.377075
757.3626, 3.036575
757.8447, 3.671677
758.3268, 4.120071
758.8090, 4.221863
759.2911, 4.097198
759.7732, 4.154190
760.2553, 4.576706
760.7374, 4.853500
761.2195, 5.039932
761.7017, 5.038223
762.1838, 4.549591
762.6659, 3.935577
763.1480, 3.813568
763.6301, 4.370468
764.1122, 5.005219
764.5944, 5.187515
765.0765, 5.211197
765.5586, 5.587250
766.0407, 6.270035
766.5228, 6.920959
767.0049, 7.421417
767.4871, 7.710312
767.9692, 7.665421
768.4513, 7.266205
768.9334, 7.048660
769.4155, 7.229904
769.8976, 7.231339
770.3798, 6.732681
770.8619, 6.165482
771.3440, 5.948807
771.8261, 6.003815
772.3082, 5.842285
772.7903, 5.182022
773.2725, 4.407349
773.7546, 3.657364
774.2367, 3.024368
774.7188, 2.723175
775.2009, 2.728134
775.6830, 2.776505
776.1652, 2.714569
776.6473, 2.495316
777.1294, 1.951538
777.6115, 1.011932
778.0936, 0.2213900
778.5757, 0.3630520
779.0579, 0.8416600
779.5400, 1.320251
780.0221, 1.697937
780.5042, 1.775955
780.9863, 1.487961
781.4684, 1.201477
781.9506, 0.8952330
782.4327, 0.7270360
782.9148, 0.9103700
783.3969, 1.262817
783.8790, 1.505203
784.3611, 1.558090
784.8433, 1.464935
785.3254, 1.159912
785.8075, 0.7935030
786.2896, 0.9505620
786.7717, 1.647308
787.2538, 1.994370
787.7360, 1.697601
788.2181, 1.165588
788.7002, 0.7103880
789.1823, 0.3492740
789.6644, 0.2328950
790.1465, 0.6339420
790.6286, 0.9017180
791.1107, 0.8577730
791.5928, 0.7549590
792.0750, 0.7334750
792.5571, 0.7862400
793.0392, 0.9052430
793.5213, 1.106766
794.0034, 1.242981
794.4855, 1.178894
794.9677, 0.9590450
795.4498, 0.5552220
795.9319, 3.5645001E-02
796.4140, 7.0160002E-02
796.8961, 0.5059360
797.3782, 1.042038
797.8604, 0.3717960
798.3425, 1.612213
798.8246, 2.226761
799.3067, 0.3833920
799.7888, 0.7815550
800.2709, 3.1189000E-02
800.7531, 1.241135
801.2352, 2.191696
801.7173, 2.838287
802.1994, 3.292007
802.6815, 3.355652
803.1636, 3.522629
803.6458, 4.097336
804.1279, 4.902786
804.6100, 5.799606
805.0921, 6.713196
805.5742, 7.528168
806.0563, 8.168854
806.5385, 8.720535
807.0206, 9.291031
807.5027, 9.901093
807.9848, 10.70277
808.4669, 11.76900
808.9490, 12.53618
809.4312, 12.71216
809.9133, 12.69865
810.3954, 12.91153
810.8775, 13.34299
811.3596, 13.84007
811.8417, 14.36438
812.3239, 15.02840
812.8060, 16.17160
813.2881, 17.21248
813.7702, 17.42244
814.2523, 16.97318
814.7344, 16.73871
815.2166, 17.19437
815.6987, 17.89240
816.1808, 18.27287
816.6629, 18.55505
817.1450, 19.31810
817.6271, 20.57518
818.1093, 21.80910
818.5914, 22.71864
819.0735, 23.46597
819.5556, 24.37383
820.0377, 25.48029
820.5198, 26.48662
821.0020, 27.26579
821.4841, 28.19327
821.9662, 29.24750
822.4483, 30.63857
822.9304, 32.86066
823.4125, 35.86481
823.8947, 38.16078
824.3768, 38.58203
824.8589, 39.27559
825.3410, 41.37614
825.8231, 44.11902
826.3052, 46.62773
826.7874, 48.89217
827.2695, 51.35568
827.7516, 54.25101
828.2337, 57.59802
828.7158, 61.47853
829.1979, 65.84526
829.6801, 70.49988
830.1622, 75.39670
830.6443, 80.59570
831.1264, 86.02567
831.6085, 92.00101
832.0906, 99.05981
832.5728, 107.1413
833.0549, 116.4385
833.5370, 126.9293
834.0191, 138.6304
834.5012, 152.3678
834.9833, 166.4773
835.4655, 179.3383
835.9476, 191.2589
836.4297, 204.3502
836.9118, 219.4265
837.3939, 235.4945
837.8760, 252.3256
838.3582, 269.7674
838.8403, 287.3040
839.3224, 305.3014
839.8045, 324.7429
840.2866, 346.0410
840.7687, 369.4951
841.2509, 395.4919
841.7330, 423.8661
842.2151, 453.0326
842.6972, 482.6680
843.1793, 515.6064
843.6614, 552.6926
844.1436, 593.2301
844.6257, 636.7031
845.1078, 683.1086
845.5899, 728.4133
846.0720, 772.7164
846.5541, 815.4113
847.0363, 860.5546
847.5184, 900.3363
848.0005, 932.1205
848.4826, 954.5123
848.9647, 965.6608
849.4468, 965.2285
849.9290, 952.9390
850.4111, 926.8000
850.8932, 890.1254
851.3753, 843.5893
851.8574, 789.6932
852.3395, 731.7790
852.8217, 671.8315
853.3038, 612.5929
853.7859, 557.0810
854.2680, 505.0736
854.7501, 456.6466
855.2322, 411.7036
855.7144, 370.3824
856.1965, 332.7274
856.6786, 299.3141
857.1607, 271.2013
857.6428, 247.4855
858.1249, 225.1959
858.6071, 203.7915
859.0892, 185.1003
859.5713, 170.0641
860.0534, 156.5593
860.5355, 143.9276
861.0176, 132.3127
861.4998, 121.9165
861.9819, 112.7359
862.4640, 104.6075
862.9461, 97.65410
863.4282, 91.41022
863.9103, 85.49428
864.3925, 80.13631
864.8746, 75.83534
865.3567, 72.49025
865.8388, 69.67732
866.3209, 67.19672
866.8030, 64.72841
867.2852, 61.50645
867.7673, 57.81699
868.2494, 55.27625
868.7315, 54.01027
869.2136, 52.96590
869.6957, 51.70673
870.1779, 50.48293
870.6600, 49.69376
871.1421, 49.34462
871.6242, 48.62431
872.1063, 47.45561
872.5884, 46.04933
873.0705, 44.25739
873.5526, 42.41255
874.0347, 40.77696
874.5168, 39.23909
874.9990, 37.43886
875.4811, 35.17630
875.9632, 33.12782
876.4453, 31.57588
876.9274, 30.29033
877.4095, 29.28514
877.8917, 28.35736
878.3738, 27.13861
878.8559, 25.58772
879.3380, 24.05132
879.8201, 22.64861
880.3022, 21.59753
880.7844, 21.43250
881.2665, 21.93375
881.7486, 22.29747
882.2307, 22.39996
882.7128, 22.43817
883.1949, 22.47986
883.6771, 22.77625
884.1592, 23.90875
884.6413, 25.98560
885.1234, 28.14073
885.6055, 30.52107
886.0876, 32.59671
886.5698, 33.97902
887.0519, 35.19107
887.5340, 36.68654
888.0161, 38.48740
888.4982, 40.96686
888.9803, 44.90678
889.4625, 48.43042
889.9446, 50.91148
890.4267, 53.18097
890.9088, 55.70633
891.3909, 58.48199
891.8730, 61.43820
892.3552, 64.58859
892.8373, 67.60123
893.3194, 70.32657
893.8015, 72.76875
894.2836, 75.04440
894.7657, 77.00444
895.2479, 78.51227
895.7300, 79.41435
896.2121, 79.15013
896.6942, 77.27209
897.1763, 74.08374
897.6584, 70.07977
898.1406, 65.29489
898.6227, 59.76610
899.1048, 53.43929
899.5869, 47.19817
900.0690, 41.41606
900.5511, 35.95374
901.0333, 30.55855
901.5154, 25.21033
901.9975, 20.36420
902.4796, 15.78021
902.9617, 12.11563
903.4438, 9.923660
903.9260, 8.277451
904.4081, 6.528305
904.8902, 4.837814
905.3723, 3.748505
905.8544, 3.665970
906.3365, 3.199768
906.8187, 1.391754
907.3008, 0.2320250
907.7829, 0.5727080
908.2650, 0.2445530
908.7471, 0.1260530
909.2292, 0.3531950
909.7114, 0.5407710
910.1935, 0.4387510
910.6756, 0.2391200
911.1577, 0.1071620
911.6398, 3.1860001E-02
912.1219, 1.5717000E-02
912.6041, 3.8833998E-02
913.0862, 1.2711000E-02
913.5683, 0.1053620
914.0504, 0.2064510
914.5325, 9.8876998E-02
915.0146, 0.1572270
915.4968, 0.2765050
915.9789, 0.2635040
916.4610, 0.1212310
916.9431, 1.014618
917.4252, 1.906845
917.9073, 2.256546
918.3895, 2.380478
918.8716, 3.543991
919.3537, 6.585205
919.8358, 8.526642
920.3179, 8.831635
920.8000, 8.789276
921.2822, 8.724030
921.7643, 8.674408
922.2464, 8.651428
922.7285, 8.701782
923.2106, 8.955917
923.6927, 9.548950
924.1749, 10.03752
924.6570, 10.50981
925.1391, 10.73668
925.6212, 10.35434
926.1033, 9.636841
926.5854, 9.228409
927.0676, 9.330261
927.5497, 9.235245
928.0318, 8.258392
928.5139, 7.132507
928.9960, 6.409180
929.4781, 6.044846
929.9603, 6.149643
930.4424, 6.642746
930.9245, 6.940033
931.4066, 6.576584
931.8887, 6.090439
932.3708, 6.459885
932.8530, 7.504303
933.3351, 8.576050
933.8172, 9.666290
934.2993, 10.42902
934.7814, 10.61340
935.2635, 11.07700
935.7457, 12.95177
936.2278, 15.96899
936.7099, 18.10963
937.1920, 19.00734
937.6741, 20.72456
938.1563, 23.75368
938.6384, 26.85272
939.1205, 29.39891
939.6026, 31.69208
940.0847, 34.17052
940.5668, 36.78897
941.0490, 39.73726
941.5311, 43.11240
942.0132, 46.68004
942.4953, 50.46460
942.9774, 54.42743
943.4595, 58.41356
943.9417, 62.47249
944.4238, 66.81322
944.9059, 71.50829
945.3880, 76.79915
945.8701, 83.03452
946.3522, 89.44753
946.8344, 95.41817
947.3165, 101.3195
947.7986, 107.6485
948.2807, 114.4359
948.7628, 121.4129
949.2449, 128.2864
949.7271, 135.7008
950.2092, 144.6320
950.6913, 154.3348
951.1734, 164.1539
951.6555, 173.7322
952.1376, 182.3555
952.6198, 189.7610
953.1019, 196.1005
953.5840, 201.3748
954.0661, 205.9727
954.5482, 211.6026
955.0303, 217.6287
955.5124, 219.7113
955.9945, 217.2572
956.4766, 213.0534
956.9587, 208.5813
957.4409, 203.1314
957.9230, 195.5002
958.4051, 185.6629
958.8872, 175.4623
959.3693, 164.7459
959.8514, 154.1863
960.3336, 143.9635
960.8157, 133.8479
961.2978, 123.6687
961.7799, 113.6109
962.2620, 104.2057
962.7441, 95.63271
963.2263, 87.17613
963.7084, 78.13139
964.1905, 70.22917
964.6726, 64.50349
965.1547, 59.60342
965.6368, 54.26903
966.1190, 48.70236
966.6011, 43.93024
967.0832, 40.32072
967.5653, 36.95166
968.0474, 33.63255
968.5295, 30.49971
969.0117, 27.63595
969.4938, 25.01752
969.9759, 22.64660
970.4580, 20.50307
970.9401, 18.51859
971.4222, 16.66626
971.9044, 14.97494
972.3865, 13.52579
972.8686, 12.19634
973.3507, 10.88739
973.8328, 9.594833
974.3149, 8.334114
974.7971, 7.112061
975.2792, 5.923759
975.7613, 4.634056
976.2434, 3.536736
976.7255, 3.154320
977.2076, 3.225708
977.6898, 3.342979
978.1719, 3.351028
978.6540, 2.825523
979.1361, 1.563812
979.6182, 0.1463010
980.1003, 0.8748930
980.5825, 1.418388
981.0646, 0.8508680
981.5467, 0.6348880
982.0288, 1.407074
982.5109, 1.145554
982.9930, 0.6371310
983.4752, 0.3729780
983.9573, 0.2694240
984.4394, 0.2221530
984.9215, 0.2347950
985.4036, 0.1360700
985.8857, 1.017693
986.3679, 1.493492
986.8500, 1.208832
987.3321, 0.8306960
987.8142, 0.9432370
988.2963, 1.335442
988.7784, 1.330246
989.2606, 0.7714230
989.7427, 0.3463290
990.2248, 3.0967999E-02
990.7069, 8.0504999E-02
991.1890, 0.5999910
991.6711, 1.294548
992.1533, 1.170830
992.6354, 0.4165120
993.1175, 0.1550670
993.5996, 0.7036970
994.0817, 1.169075
994.5638, 1.788284
995.0460, 2.030838
995.5281, 1.320854
996.0102, 0.3855900
996.4923, 4.3983001E-02
996.9744, 0.2547990
997.4565, 0.3933030
997.9387, 0.2995530
998.4208, 0.1968690
998.9029, 3.8199998E-02
999.3850, 2.2280000E-03
999.8671, 0.4445420
1000.349, 0.9361500
1000.831, 0.6071010
1001.313, 0.5007630
1001.796, 1.007561
1002.278, 0.2267000
1002.760, 1.333946
1003.242, 1.133888
1003.724, 0.4792250
1004.206, 8.1863001E-02
1004.688, 0.1104810
1005.170, 0.3322910
1005.653, 0.6493150
1006.135, 1.034607
1006.617, 1.468567
1007.099, 1.967682
1007.581, 2.777847
1008.063, 3.520081
1008.545, 3.369514
1009.027, 2.672195
1009.509, 2.766426
1009.992, 4.031403
1010.474, 4.984543
1010.956, 3.930099
1011.438, 2.243858
1011.920, 2.151932
1012.402, 3.009636
1012.884, 3.320122
1013.366, 2.998505
1013.849, 2.585800
1014.331, 2.327721
1014.813, 2.422813
1015.295, 3.317528
1015.777, 4.552803
1016.259, 4.836212
1016.741, 4.393013
1017.223, 4.315414
1017.705, 4.730972
1018.188, 5.034126
1018.670, 4.900589
1019.152, 4.735535
1019.634, 5.216057
1020.116, 6.114082
1020.598, 6.115074
1021.080, 5.273521
1021.562, 5.211197
1022.044, 6.261284
1022.527, 6.989716
1023.009, 6.510727
1023.491, 5.545097
1023.973, 5.227333
1024.455, 5.528801
1024.937, 6.085442
1025.419, 6.981789
1025.901, 7.349579
1026.384, 6.932022
1026.866, 6.374611
1027.348, 6.007500
1027.830, 5.907532
1028.312, 6.269081
1028.794, 7.120590
1029.276, 7.794426
1029.758, 8.321533
1030.240, 8.527969
1030.723, 8.226074
1031.205, 7.972923
1031.687, 8.180099
1032.169, 8.624603
1032.651, 8.887039
1033.133, 8.986015
1033.615, 8.682045
1034.097, 7.482811
1034.579, 6.992165
1035.062, 7.917397
1035.544, 9.003540
1036.026, 9.446808
1036.508, 9.471931
1036.990, 9.535294
1037.472, 9.648117
1037.954, 9.674858
1038.436, 9.486046
1038.919, 9.513046
1039.401, 10.08811
1039.883, 10.59953
1040.365, 10.61061
1040.847, 10.32535
1041.329, 10.18820
1041.811, 10.25189
1042.293, 10.16672
1042.776, 9.423927
1043.258, 9.224632
1043.740, 10.55254
1044.222, 11.68937
1044.704, 11.26706
1045.186, 10.00606
1045.668, 9.318245
1046.150, 9.372620
1046.632, 9.347168
1047.115, 9.061646
1047.597, 8.878838
1048.079, 8.955948
1048.561, 9.074257
1049.043, 9.060081
1049.525, 8.940048
1050.007, 8.826271
1050.489, 8.767456
1050.971, 8.718132
1051.454, 8.530006
1051.936, 8.425949
1052.418, 8.611893
1052.900, 8.775620
1053.382, 8.729195
1053.864, 8.562042
1054.346, 8.380302
1054.828, 8.169197
1055.311, 7.951103
1055.793, 7.622055
1056.275, 7.502731
1056.757, 7.854370
1057.239, 8.225769
1057.721, 8.337822
1058.203, 8.149681
1058.685, 7.522736
1059.167, 6.503372
1059.650, 5.996056
1060.132, 6.701820
1060.614, 7.229446
1061.096, 7.071190
1061.578, 6.718033
1062.060, 6.423965
1062.542, 6.239563
1063.024, 6.116776
1063.506, 6.073929
1063.989, 6.235039
1064.471, 7.088951
1064.953, 7.516228
1065.435, 6.464325
1065.917, 5.402794
1066.399, 5.614471
1066.881, 6.467079
1067.363, 6.977425
1067.846, 7.015091
1068.328, 6.905983
1068.810, 6.562653
1069.292, 6.231659
1069.774, 6.279648
1070.256, 6.347282
1070.738, 6.032600
1071.220, 5.572655
1071.703, 5.317818
1072.185, 5.309494
1072.667, 5.422379
1073.149, 5.725426
1073.631, 5.935417
1074.113, 5.815979
1074.595, 5.625450
1075.077, 5.434723
1075.559, 5.375259
1076.042, 5.674973
1076.524, 6.256142
1077.006, 6.753761
1077.488, 7.133774
1077.970, 7.170006
1078.452, 6.285660
1078.934, 5.514954
1079.416, 5.820068
1079.898, 6.481583
1080.380, 6.539886
1080.863, 6.076851
1081.345, 5.806122
1081.827, 6.012085
1082.309, 6.136154
1082.791, 5.787743
1083.273, 5.440392
1083.755, 5.318954
1084.237, 5.384552
1084.720, 5.686363
1085.202, 6.111946
1085.684, 6.384727
1086.166, 6.421585
1086.648, 6.484482
1087.130, 6.891472
1087.612, 7.062592
1088.094, 6.310402
1088.577, 5.535919
1089.059, 5.811913
1089.541, 6.672920
1090.023, 6.939018
1090.505, 6.366310
1090.987, 5.991432
1091.469, 6.457527
1091.951, 6.858612
1092.433, 6.824585
1092.916, 6.567871
1093.398, 6.096527
1093.880, 5.591385
1094.362, 5.358398
1094.844, 5.418343
1095.326, 5.409904
1095.808, 5.166504
1096.290, 4.917442
1096.772, 4.592499
1097.255, 4.444153
1097.737, 4.790215
1098.219, 5.308853
1098.701, 5.623428
1099.183, 5.686546
1099.665, 5.505920
1100.147, 4.745949
1100.629, 4.446503
1101.112, 5.543159
1101.594, 6.380951
1102.076, 5.996819
1102.558, 5.048912
1103.040, 4.004318
1103.522, 3.041107
1104.004, 2.611031
1104.486, 2.931564
1104.969, 3.288269
1105.451, 3.489807
1105.933, 3.792191
1106.415, 4.719833
1106.897, 5.390633
1107.379, 4.778900
1107.861, 3.431381
1108.343, 2.763931
1108.825, 3.019798
1109.307, 3.059937
1109.790, 2.662262
1110.272, 2.225883
1110.754, 1.650246
1111.236, 1.246567
1111.718, 1.481209
1112.200, 1.875122
1112.682, 1.441467
1113.164, 9.4077997E-02
1113.647, 0.3771060
1114.129, 0.8084560
1114.611, 1.577538
1115.093, 1.561684
1115.575, 1.419197
1116.057, 1.344421
1116.539, 1.363060
1117.021, 1.601936
1117.504, 1.986839
1117.986, 1.947533
1118.468, 1.336395
1118.950, 0.6049800
1119.432, 0.5833740
1119.914, 1.177292
1120.396, 0.6070400
1120.878, 0.2879330
1121.360, 0.8954240
1121.843, 1.201851
1122.325, 1.090271
1122.807, 0.4051130
1123.289, 0.3320850
1123.771, 1.189667
1124.253, 1.504929
1124.735, 0.7994690
1125.217, 6.8168998E-02
1125.699, 0.7378620
1126.182, 0.7986300
1126.664, 0.7496490
1127.146, 3.728455
1127.628, 4.660789
1128.110, 3.297806
1128.592, 2.039230
1129.074, 1.175888
1129.556, 0.6079940
1130.039, 0.3246460
1130.521, 0.1369630
1131.003, 0.1920240
1131.485, 0.5641710
1131.967, 0.5999150
1132.449, 0.3180690
1132.931, 5.3397998E-02
1133.413, 0.1790390
1133.896, 0.5206450
1134.378, 1.013611
1134.860, 1.444717
1135.342, 1.650955
1135.824, 1.688713
1136.306, 1.579964
1136.788, 1.398705
1137.270, 1.516296
1137.752, 1.846306
1138.234, 1.948326
1138.717, 1.759720
1139.199, 1.439568
1139.681, 1.067009
1140.163, 0.8456570
1140.645, 1.081390
1141.127, 1.543953
1141.609, 1.879280
1142.091, 2.086281
1142.574, 2.212456
1143.056, 2.202003
1143.538, 1.587929
1144.020, 0.3952870
1144.502, 9.2681997E-02
1144.984, 2.227226
1145.466, 4.450554
1145.948, 3.855537
1146.431, 2.292328
1146.913, 2.151886
1147.395, 2.812012
1147.877, 2.894836
1148.359, 2.254623
1148.841, 1.434441
1149.323, 0.5613250
1149.805, 0.1607210
1150.287, 1.021561
1150.770, 1.953270
1151.252, 2.004448
1151.734, 1.745216
1152.216, 1.807259
1152.698, 2.101234
1153.180, 2.279007
1153.662, 2.267403
1154.144, 2.186264
1154.626, 1.817581
1155.109, 1.753632
1155.591, 2.535507
1156.073, 3.302803
1156.555, 3.682564
1157.037, 3.629898
1157.519, 2.884102
1158.001, 1.604813
1158.483, 0.8702700
1158.966, 0.9920960
1159.448, 1.201668
1159.930, 1.565399
1160.412, 1.845657
1160.894, 2.099373
1161.376, 2.142059
1161.858, 1.667747
1162.340, 0.9872060
1162.822, 0.8151630
1163.305, 1.220398
1163.787, 1.386528
1164.269, 1.290794
1164.751, 0.9439090
1165.233, 0.1177140
1165.715, 0.2304230
1166.197, 0.5102160
1166.679, 1.514252
1167.161, 1.783737
1167.644, 1.511803
1168.126, 1.470757
1168.608, 1.660629
1169.090, 2.220192
1169.572, 3.184097
1170.054, 3.310898
1170.536, 2.232262
1171.018, 1.513771
1171.500, 2.304535
1171.983, 3.569061
1172.465, 3.426010
1172.947, 2.342285
1173.429, 1.833878
1173.911, 1.800705
1174.393, 1.888512
1174.875, 2.031311
1175.357, 2.199501
1175.840, 2.372139
1176.322, 2.454185
1176.804, 2.342979
1177.286, 2.129677
1177.768, 1.945633
1178.250, 1.835823
1178.732, 1.795822
1179.214, 1.758377
1179.697, 1.636246
1180.179, 1.437347
1180.661, 1.232864
1181.143, 1.040230
1181.625, 0.9982300
1182.107, 1.409821
1182.589, 1.716583
1183.071, 1.277603
1183.553, 0.7722240
1184.036, 1.154358
1184.518, 1.963440
1185.000, 1.991890
1185.482, 1.129059
1185.964, 0.7195280
1186.446, 1.419868
1186.928, 2.013443
1187.410, 2.372971
1187.892, 2.499863
1188.375, 2.279861
1188.857, 1.919876
1189.339, 1.520912
1189.821, 1.163094
1190.303, 1.093864
1190.785, 1.395897
1191.267, 1.420532
1191.749, 0.9764100
1192.232, 0.8123780
1192.714, 1.131462
1193.196, 1.511597
1193.678, 1.792809
1194.160, 1.871246
1194.642, 1.575676
1195.124, 1.024048
1195.606, 0.6463240
1196.089, 0.4422000
1196.571, 0.5185010
1197.053, 0.8643720
1197.535, 1.195717
1198.017, 1.439873
1198.499, 1.674385
1198.981, 1.953911
1199.463, 2.144363
1199.945, 2.029091
1200.427, 1.729042
1200.910, 1.413795
1201.392, 1.133621
1201.874, 1.049255
1202.356, 1.093658
1202.838, 1.015228
1203.320, 0.7874980
1203.802, 0.8603520
1204.284, 1.650238
1204.767, 2.343384
1205.249, 2.187698
1205.731, 1.824364
1206.213, 1.693871
1206.695, 1.734512
1207.177, 1.989227
1207.659, 2.288353
1208.141, 2.179192
1208.624, 1.538895
1209.106, 1.101059
1209.588, 1.172783
1210.070, 1.268173
1210.552, 1.329926
1211.034, 1.339844
1211.516, 1.248749
1211.998, 1.129532
1212.480, 0.9513930
1212.963, 0.8270950
1213.445, 1.281532
1213.927, 2.608780
1214.409, 3.011452
1214.891, 2.271088
1215.373, 1.511620
1215.855, 0.9288100
1216.337, 0.3635180
1216.819, 0.3317340
1217.302, 0.7482600
1217.784, 0.2793500
1218.266, 0.6822970
1218.748, 0.7754290
1219.230, 0.2076870
1219.712, 0.1647570
1220.194, 0.5841750
1220.676, 0.7584380
1221.159, 0.5659560
1221.641, 0.3686290
1222.123, 0.3570860
1222.605, 0.4962540
1223.087, 0.8374790
1223.569, 1.215767
1224.051, 1.524002
1224.533, 1.714027
1225.016, 1.721954
1225.498, 1.548599
1225.980, 1.054420
1226.462, 0.3428960
1226.944, 8.4709004E-02
1227.426, 0.7296520
1227.908, 1.203880
1228.390, 0.7489780
1228.872, 0.5481490
1229.354, 1.722809
1229.837, 2.729622
1230.319, 1.943108
1230.801, 0.3632430
1231.283, 0.2269210
1231.765, 0.1521610
1232.247, 0.8718190
1232.729, 2.383095
1233.211, 2.745407
1233.694, 1.509766
1234.176, 0.3987270
1234.658, 0.1194150
1235.140, 0.1372600
1235.622, 0.3362880
1236.104, 1.024742
1236.586, 1.469597
1237.068, 1.715576
1237.551, 1.983078
1238.033, 2.229759
1238.515, 2.246330
1238.997, 2.048393
1239.479, 1.763008
1239.961, 1.461578
1240.443, 1.365723
1240.925, 1.690788
1241.407, 1.868622
1241.890, 0.9704670
1242.372, 6.2378000E-02
1242.854, 0.3200070
1243.336, 1.084160
1243.818, 1.681053
1244.300, 2.027100
1244.782, 2.132179
1245.264, 2.013374
1245.746, 1.795784
1246.229, 1.255188
1246.711, 1.094933
1247.193, 1.964020
1247.675, 2.506645
1248.157, 2.062210
1248.639, 1.376205
1249.121, 0.8099440
1249.603, 0.4984890
1250.085, 0.7545390
1250.568, 1.533119
1251.050, 2.050385
1251.532, 2.268311
1252.014, 2.438553
1252.496, 2.529823
1252.978, 2.548210
1253.460, 2.494629
1253.942, 2.127960
1254.425, 1.238716
1254.907, 0.4432370
1255.389, 0.8601230
1255.871, 1.771904
1256.353, 1.672455
1256.835, 1.149078
1257.317, 1.570541
1257.799, 2.463837
1258.281, 2.122910
1258.764, 0.5341030
1259.246, 0.2525100
1259.728, 0.8908840
1260.210, 1.942062
1260.692, 2.006813
1261.174, 1.743629
1261.656, 1.059593
1262.138, 0.5865710
1262.620, 1.176872
1263.103, 2.067184
1263.585, 1.900116
1264.067, 0.8329240
1264.549, 0.2465590
1265.031, 0.2463150
1265.513, 0.3847810
1265.995, 0.6973720
1266.477, 0.9879530
1266.960, 1.225960
1267.442, 1.315773
1267.924, 1.185303
1268.406, 1.073730
1268.888, 1.330925
1269.370, 1.685860
1269.852, 1.446556
1270.334, 0.8366320
1270.817, 0.2289810
1271.299, 0.1985860
1271.781, 0.1703190
1272.263, 1.085495
1272.745, 1.398788
1273.227, 0.6056820
1273.709, 4.6928000E-02
1274.191, 0.4701770
1274.673, 0.9168400
1275.156, 0.4759600
1275.638, 2.1576000E-02
1276.120, 7.6668002E-02
1276.602, 0.1341320
1277.084, 0.4561770
1277.566, 0.8382340
1278.048, 1.158852
1278.530, 1.307137
1279.012, 1.384018
1279.495, 1.075478
1279.977, 0.9524690
1280.459, 0.9140090
1280.941, 0.6312100
1281.423, 0.2809680
1281.905, 1.7143000E-02
1282.387, 6.9564998E-02
1282.869, 0.3760760
1283.352, 1.176102
1283.834, 1.711830
1284.316, 1.350586
1284.798, 0.0000000E+00
##END=



