##NAMES=Holmquistite
##RRUFFID=R130004
##IDEAL CHEMISTRY=[box]Li_2_(Mg_3_Al_2_)Si_8_O_22_(OH)_2_
##LOCALITY=Quebec Lithium Corporation mine, La Corne, Abitibi RCM, Abitibi-Temiscamingue, Quebec, Canada
##OWNER=RRUFF
##SOURCE=Don Doell
##DESCRIPTION=Parallel aggregate of pale purple bladed crystals
##STATUS=The identification of this mineral is confirmed by single-crystal X-ray diffraction and chemical analysis.
##URL=rruff.info/R130004
##MEASURED CHEMISTRY=Na_0.06_Li_2_(Mg_1.89_Fe_1.41_Al_1.73_)Si_8_O_22_(OH)_1.90_F_0.10_
180.9638, 0.0000000E+00
181.4459, 1.6518001E-02
181.9280, 0.2077480
182.4102, 0.1685030
182.8923, 0.1033330
183.3744, 0.1241490
183.8565, 0.2088780
184.3386, 0.9438290
184.8207, 2.298744
185.3029, 4.429962
185.7850, 6.947956
186.2671, 9.320881
186.7492, 11.53598
187.2313, 13.72014
187.7134, 15.77752
188.1956, 17.82523
188.6777, 20.33952
189.1598, 23.49975
189.6419, 27.08496
190.1240, 30.77291
190.6061, 34.62605
191.0883, 38.26849
191.5704, 41.46103
192.0525, 44.24692
192.5346, 46.80833
193.0167, 49.29874
193.4988, 51.42070
193.9810, 52.05957
194.4631, 51.06380
194.9452, 49.48455
195.4273, 47.69817
195.9094, 45.70770
196.3915, 43.24016
196.8737, 40.08121
197.3558, 36.49963
197.8379, 33.39117
198.3200, 30.82080
198.8021, 28.45496
199.2842, 25.98511
199.7664, 23.37965
200.2485, 21.03296
200.7306, 18.96532
201.2127, 17.19833
201.6948, 15.91057
202.1769, 15.19960
202.6591, 14.64068
203.1412, 13.82604
203.6233, 12.71583
204.1054, 11.62938
204.5875, 10.55984
205.0696, 9.543350
205.5518, 9.009148
206.0339, 9.100464
206.5160, 9.327354
206.9981, 9.133629
207.4802, 8.408524
207.9623, 7.779884
208.4445, 7.338676
208.9266, 7.087883
209.4087, 7.289581
209.8908, 8.133125
210.3729, 9.076538
210.8550, 9.484161
211.3372, 9.195953
211.8193, 8.938416
212.3014, 8.911392
212.7835, 9.114883
213.2656, 9.191391
213.7477, 9.060921
214.2299, 8.916039
214.7120, 9.017807
215.1941, 9.481735
215.6762, 9.871048
216.1583, 10.09828
216.6404, 10.16373
217.1226, 10.04205
217.6047, 9.705872
218.0868, 9.217140
218.5689, 8.616455
219.0510, 7.823158
219.5331, 7.100952
220.0153, 6.504471
220.4974, 6.036728
220.9795, 5.673576
221.4616, 5.509315
221.9437, 5.350410
222.4258, 4.888550
222.9080, 3.871407
223.3901, 3.111816
223.8722, 2.955467
224.3543, 3.521034
224.8364, 3.595268
225.3185, 2.937065
225.8007, 2.012726
226.2828, 1.386002
226.7649, 1.111977
227.2470, 1.135010
227.7291, 1.469872
228.2112, 2.263786
228.6934, 2.736534
229.1755, 2.533051
229.6576, 2.111259
230.1397, 2.079720
230.6218, 2.690872
231.1039, 3.205833
231.5861, 3.337151
232.0682, 3.078079
232.5503, 2.988670
233.0324, 3.230301
233.5145, 3.509819
233.9966, 3.405014
234.4788, 2.578606
234.9609, 1.980782
235.4430, 1.935234
235.9251, 2.554909
236.4072, 2.899551
236.8893, 2.735901
237.3715, 2.488388
237.8536, 2.753693
238.3357, 4.015625
238.8178, 4.860687
239.2999, 4.922272
239.7820, 4.061333
240.2642, 3.483414
240.7463, 3.241104
241.2284, 3.230019
241.7105, 3.332619
242.1926, 3.567894
242.6747, 3.877754
243.1569, 4.302330
243.6390, 4.886177
244.1211, 5.196335
244.6032, 5.088913
245.0853, 4.839035
245.5674, 4.776131
246.0496, 5.020203
246.5317, 5.231476
247.0138, 5.334633
247.4959, 5.323555
247.9780, 5.285675
248.4601, 5.212906
248.9423, 5.124123
249.4244, 5.021194
249.9065, 4.827118
250.3886, 4.781853
250.8707, 5.008537
251.3528, 5.527328
251.8350, 5.812035
252.3171, 5.748909
252.7992, 5.573059
253.2813, 5.536125
253.7634, 5.734978
254.2455, 5.859062
254.7277, 5.824295
255.2098, 5.626015
255.6919, 5.463730
256.1740, 5.335953
256.6561, 5.242813
257.1382, 5.165192
257.6204, 5.034309
258.1025, 5.098373
258.5846, 5.518875
259.0667, 6.278023
259.5488, 6.648399
260.0309, 6.467476
260.5131, 6.064255
260.9952, 5.759048
261.4773, 5.666481
261.9594, 5.346489
262.4415, 4.606705
262.9236, 3.524086
263.4058, 2.924095
263.8879, 2.993057
264.3700, 3.185051
264.8521, 2.989899
265.3342, 2.211006
265.8163, 1.742523
266.2985, 1.842278
266.7806, 2.372383
267.2627, 2.501976
267.7448, 2.098991
268.2269, 1.568802
268.7090, 1.212646
269.1912, 1.074089
269.6733, 0.9022060
270.1554, 0.6582950
270.6375, 0.3588870
271.1196, 7.6233000E-02
271.6017, 0.1939160
272.0839, 0.4366000
272.5660, 0.6588130
273.0481, 0.8810730
273.5302, 0.9296650
274.0123, 0.6974490
274.4944, 0.3386690
274.9766, 0.3662720
275.4587, 0.8806380
275.9408, 1.385719
276.4229, 1.534641
276.9050, 1.295479
277.3871, 1.126579
277.8693, 1.080841
278.3514, 1.097389
278.8335, 1.033279
279.3156, 0.8746030
279.7977, 0.7153240
280.2798, 0.6555630
280.7620, 0.6973570
281.2441, 0.5103530
281.7262, 5.0889999E-03
282.2083, 0.6023100
282.6904, 0.7797390
283.1725, 0.5059360
283.6547, 0.2573090
284.1368, 0.2882310
284.6189, 0.5752110
285.1010, 0.8432770
285.5831, 1.082756
286.0652, 1.313385
286.5474, 1.550674
287.0295, 1.795387
287.5116, 2.081093
287.9937, 2.498108
288.4758, 2.998360
288.9579, 3.245491
289.4401, 3.210541
289.9222, 3.093353
290.4043, 3.088737
290.8864, 3.198822
291.3685, 3.450539
291.8506, 3.995796
292.3328, 4.674309
292.8149, 4.929710
293.2970, 4.738663
293.7791, 4.473820
294.2612, 4.557133
294.7433, 4.903187
295.2255, 5.162010
295.7076, 5.200188
296.1897, 5.115330
296.6718, 5.122463
297.1539, 5.256424
297.6360, 5.323792
298.1182, 5.028805
298.6003, 4.522858
299.0824, 4.209530
299.5645, 4.248058
300.0466, 4.470905
300.5287, 4.662361
301.0109, 4.820126
301.4930, 4.966515
301.9751, 5.187668
302.4572, 5.410305
302.9393, 5.471481
303.4214, 5.242035
303.9036, 5.011478
304.3857, 5.148357
304.8678, 5.571693
305.3499, 5.983162
305.8320, 6.293774
306.3141, 6.451366
306.7963, 6.346779
307.2784, 5.890484
307.7605, 5.379833
308.2426, 5.046547
308.7247, 4.847069
309.2068, 4.677620
309.6890, 4.594517
310.1711, 4.453224
310.6532, 4.081043
311.1353, 3.412434
311.6174, 2.766056
312.0995, 2.345215
312.5817, 2.087864
313.0638, 1.886303
313.5459, 1.739822
314.0280, 1.600597
314.5101, 1.459667
314.9922, 1.321957
315.4744, 1.112907
315.9565, 0.6360660
316.4386, 0.1243740
316.9207, 0.1515270
317.4028, 5.2620001E-02
317.8849, 0.3592000
318.3671, 0.6999740
318.8492, 1.062595
319.3313, 1.243038
319.8134, 0.8881420
320.2955, 0.4713480
320.7776, 0.3729630
321.2598, 1.158703
321.7419, 1.752846
322.2240, 1.724228
322.7061, 1.215481
323.1882, 0.9805150
323.6703, 1.452763
324.1525, 2.037773
324.6346, 2.406464
325.1167, 2.391541
325.5988, 2.345070
326.0809, 2.106190
326.5630, 1.839500
327.0452, 1.996941
327.5273, 3.222298
328.0094, 4.342854
328.4915, 4.907566
328.9736, 4.551399
329.4557, 4.437725
329.9379, 4.730949
330.4200, 5.211636
330.9021, 5.524490
331.3842, 5.588543
331.8663, 5.617294
332.3484, 5.595249
332.8306, 5.438400
333.3127, 5.679104
333.7948, 6.610798
334.2769, 7.691257
334.7590, 8.285011
335.2411, 8.165497
335.7233, 8.058270
336.2054, 8.096321
336.6875, 8.278999
337.1696, 8.541229
337.6517, 8.924202
338.1339, 9.304916
338.6160, 9.616524
339.0981, 9.907642
339.5802, 9.952667
340.0623, 9.624725
340.5444, 9.038620
341.0266, 8.625568
341.5087, 8.408134
341.9908, 8.217560
342.4729, 7.922855
342.9550, 7.527004
343.4371, 7.227505
343.9193, 7.087051
344.4014, 6.964653
344.8835, 6.568825
345.3656, 5.901882
345.8477, 5.244076
346.3298, 4.751820
346.8120, 4.387035
347.2941, 4.021313
347.7762, 3.654419
348.2583, 3.255123
348.7404, 2.748070
349.2225, 2.162846
349.7047, 1.622227
350.1868, 1.160423
350.6689, 0.7799530
351.1510, 0.4403000
351.6331, 0.1460760
352.1152, 2.3166999E-02
352.5974, 0.4595570
353.0795, 1.107403
353.5616, 1.270119
354.0437, 0.4503140
354.5258, 0.5343130
355.0079, 0.7937580
355.4901, 0.4599570
355.9722, 0.1349490
356.4543, 0.2866670
356.9364, 0.5882680
357.4185, 0.6999780
357.9006, 0.5220570
358.3828, 0.2534870
358.8649, 5.7250999E-02
359.3470, 0.3681450
359.8291, 0.5964320
360.3112, 0.5915150
360.7933, 0.5787890
361.2755, 0.7050440
361.7576, 1.001064
362.2397, 1.305103
362.7218, 1.561375
363.2039, 1.790470
363.6860, 2.015545
364.1682, 2.215202
364.6503, 2.439724
365.1324, 2.663483
365.6145, 2.893230
366.0966, 3.267513
366.5787, 3.886765
367.0609, 4.609180
367.5430, 5.343933
368.0251, 6.032726
368.5072, 6.800900
368.9893, 7.720142
369.4714, 8.730782
369.9536, 9.604095
370.4357, 10.12690
370.9178, 10.74127
371.3999, 11.62840
371.8820, 12.90279
372.3641, 14.18151
372.8463, 15.45687
373.3284, 16.72023
373.8105, 17.95923
374.2926, 19.12035
374.7747, 20.39741
375.2568, 21.83018
375.7390, 23.38943
376.2211, 25.14528
376.7032, 27.21154
377.1853, 29.37074
377.6674, 31.32971
378.1495, 33.00451
378.6317, 34.95673
379.1138, 37.44872
379.5959, 40.24525
380.0780, 42.63348
380.5601, 44.54332
381.0422, 46.52531
381.5244, 49.05495
382.0065, 52.06152
382.4886, 54.97012
382.9707, 57.73807
383.4528, 60.38503
383.9349, 63.10780
384.4171, 65.84921
384.8992, 68.25162
385.3813, 70.17191
385.8634, 71.66501
386.3455, 72.94006
386.8276, 74.00682
387.3098, 74.54448
387.7919, 74.24274
388.2740, 73.21907
388.7561, 71.69564
389.2382, 69.65556
389.7203, 67.22202
390.2025, 64.43108
390.6846, 61.33300
391.1667, 58.08238
391.6488, 54.69978
392.1309, 51.27195
392.6130, 47.82986
393.0952, 44.34613
393.5773, 41.03073
394.0594, 37.98124
394.5415, 35.19232
395.0236, 32.65353
395.5057, 30.18142
395.9879, 28.11798
396.4700, 26.73298
396.9521, 26.16377
397.4342, 25.48063
397.9163, 24.29618
398.3984, 23.05196
398.8806, 22.15069
399.3627, 22.07154
399.8448, 21.81414
400.3269, 21.10249
400.8090, 20.03458
401.2911, 19.39883
401.7733, 19.51063
402.2554, 19.67359
402.7375, 19.49539
403.2196, 18.74718
403.7017, 18.23432
404.1838, 18.01627
404.6660, 18.00348
405.1481, 18.04913
405.6302, 18.16575
406.1123, 18.29953
406.5944, 18.47470
407.0765, 18.68164
407.5587, 18.63042
408.0408, 18.25075
408.5229, 17.86728
409.0050, 17.91830
409.4871, 18.35844
409.9692, 18.55462
410.4514, 18.30001
410.9335, 17.83439
411.4156, 17.67605
411.8977, 17.79365
412.3798, 17.87308
412.8619, 17.69080
413.3441, 17.42259
413.8262, 17.37022
414.3083, 17.57207
414.7904, 17.79472
415.2725, 17.84218
415.7546, 17.77784
416.2368, 17.70227
416.7189, 17.63372
417.2010, 17.58955
417.6831, 17.65077
418.1652, 17.79512
418.6473, 17.77652
419.1295, 17.35509
419.6116, 16.77023
420.0937, 16.22992
420.5758, 15.84721
421.0579, 15.42033
421.5400, 14.90254
422.0222, 14.30103
422.5043, 13.59645
422.9864, 12.72624
423.4685, 11.80387
423.9506, 10.87110
424.4327, 9.948978
424.9149, 8.967354
425.3970, 7.820084
425.8791, 6.677578
426.3612, 5.701458
426.8433, 5.016636
427.3254, 4.303104
427.8076, 3.462399
428.2897, 2.530243
428.7718, 1.815350
429.2539, 1.348007
429.7360, 1.049126
430.2181, 0.9555970
430.7003, 1.135895
431.1824, 1.005314
431.6645, 0.4211850
432.1466, 0.2782710
432.6287, 0.3981250
433.1108, 7.7735998E-02
433.5930, 0.3604280
434.0751, 5.3750002E-03
434.5572, 0.7733460
435.0393, 1.093372
435.5214, 0.9566760
436.0035, 0.6928020
436.4857, 0.6061820
436.9678, 0.6160010
437.4499, 0.4985580
437.9320, 0.1334990
438.4141, 0.2306140
438.8962, 0.2535550
439.3784, 3.8180999E-02
439.8605, 0.1130330
440.3426, 0.1212580
440.8247, 5.6843001E-02
441.3068, 0.5884320
441.7889, 1.527111
442.2711, 2.241932
442.7532, 2.113899
443.2353, 1.719288
443.7174, 1.656712
444.1995, 2.448586
444.6816, 3.220222
445.1638, 3.741234
445.6459, 4.040276
446.1280, 4.283684
446.6101, 4.336582
447.0922, 4.469574
447.5743, 4.851460
448.0565, 5.707905
448.5386, 6.220039
449.0207, 6.121632
449.5028, 5.843666
449.9849, 5.977795
450.4670, 6.765999
450.9492, 7.422962
451.4313, 7.745960
451.9134, 7.783710
452.3955, 7.881935
452.8776, 8.067146
453.3597, 8.225445
453.8419, 8.273075
454.3240, 8.203564
454.8061, 8.090443
455.2882, 7.954411
455.7703, 7.763588
456.2524, 7.465336
456.7346, 7.060158
457.2167, 6.586613
457.6988, 6.021099
458.1809, 5.407658
458.6630, 4.767582
459.1451, 4.112900
459.6273, 3.553074
460.1094, 3.294868
460.5915, 3.144417
461.0736, 2.822891
461.5557, 2.162354
462.0378, 1.550636
462.5200, 1.299355
463.0021, 1.271046
463.4842, 1.203556
463.9663, 0.9053960
464.4484, 0.6227490
464.9305, 0.5034410
465.4127, 0.5653460
465.8948, 0.5839120
466.3769, 0.4270290
466.8590, 0.2634890
467.3411, 0.2165030
467.8232, 0.4564360
468.3054, 0.5946770
468.7875, 0.5554080
469.2696, 0.4169040
469.7517, 0.3803410
470.2338, 0.5093960
470.7159, 0.6203880
471.1981, 0.6244960
471.6802, 0.5130880
472.1623, 0.5525440
472.6444, 0.8082810
473.1265, 1.036243
473.6086, 0.9355240
474.0908, 0.5125160
474.5729, 0.1786840
475.0550, 2.3209000E-02
475.5371, 3.1734001E-02
476.0192, 0.1468320
476.5013, 0.3084410
476.9835, 0.4044840
477.4656, 0.2803230
477.9477, 8.4533997E-02
478.4298, 0.1038090
478.9119, 0.3565670
479.3940, 0.5841640
479.8762, 0.5602000
480.3583, 0.3955080
480.8404, 0.2395020
481.3225, 0.1714970
481.8046, 7.0000000E-02
482.2867, 0.1635970
482.7689, 0.4827000
483.2510, 0.7663380
483.7331, 0.9856000
484.2152, 1.154266
484.6973, 1.273243
485.1794, 1.338287
485.6616, 1.384876
486.1437, 1.377666
486.6258, 1.376648
487.1079, 1.421341
487.5900, 1.479900
488.0721, 1.645836
488.5543, 1.976208
489.0364, 2.402500
489.5185, 2.718975
490.0006, 2.866188
490.4827, 3.008743
490.9648, 3.269356
491.4470, 3.620583
491.9291, 3.806389
492.4112, 3.772556
492.8933, 3.670265
493.3754, 3.695496
493.8575, 3.810902
494.3397, 3.769585
494.8218, 3.440876
495.3039, 3.077583
495.7860, 3.057320
496.2681, 3.309662
496.7502, 3.583675
497.2324, 3.794361
497.7145, 3.930763
498.1966, 4.027046
498.6787, 4.096703
499.1608, 4.006332
499.6429, 3.465977
500.1251, 2.827194
500.6072, 2.400723
501.0893, 2.404655
501.5714, 2.427200
502.0535, 2.420544
502.5356, 2.368488
503.0178, 2.235352
503.4999, 1.961945
503.9820, 1.663158
504.4641, 1.326981
504.9462, 0.9438550
505.4283, 0.7891500
505.9105, 1.019432
506.3926, 1.239063
506.8747, 1.097626
507.3568, 0.5226480
507.8389, 9.6886002E-02
508.3210, 0.1013530
508.8032, 0.1623000
509.2853, 0.2109450
509.7674, 0.2498280
510.2495, 0.3218120
510.7316, 0.5237730
511.2137, 0.7382160
511.6959, 0.6554600
512.1780, 0.2978290
512.6601, 5.7898998E-02
513.1422, 0.1950420
513.6243, 0.2153510
514.1064, 0.2492710
514.5886, 0.3268590
515.0707, 0.3925860
515.5528, 0.3164020
516.0349, 0.2316280
516.5170, 0.3289790
516.9991, 0.9520150
517.4813, 1.481392
517.9634, 1.617001
518.4455, 1.418873
518.9276, 1.401367
519.4097, 1.826382
519.8918, 2.266689
520.3740, 2.533466
520.8561, 2.542465
521.3382, 2.655094
521.8203, 2.878723
522.3024, 3.193989
522.7845, 3.632393
523.2667, 4.244576
523.7488, 4.677856
524.2309, 4.786598
524.7130, 4.735706
525.1951, 4.938656
525.6772, 5.396687
526.1594, 5.969536
526.6415, 6.700146
527.1236, 7.471394
527.6057, 7.956841
528.0878, 8.143173
528.5699, 8.334469
529.0521, 8.909046
529.5342, 9.593601
530.0163, 9.984150
530.4984, 9.749405
530.9805, 9.615631
531.4626, 10.15493
531.9448, 11.06225
532.4269, 11.74498
532.9090, 11.85677
533.3911, 11.89349
533.8732, 11.98485
534.3553, 12.13236
534.8375, 12.36834
535.3196, 12.71851
535.8017, 13.15407
536.2838, 13.68634
536.7659, 14.45056
537.2480, 14.85919
537.7302, 14.79681
538.2123, 14.57512
538.6944, 14.68558
539.1765, 15.15611
539.6586, 15.48963
540.1407, 15.50746
540.6229, 15.33900
541.1050, 15.26357
541.5871, 15.27952
542.0692, 15.36549
542.5513, 15.55679
543.0334, 15.79459
543.5156, 15.96931
543.9977, 16.07072
544.4798, 16.21086
544.9619, 16.47595
545.4440, 16.81778
545.9261, 17.19429
546.4083, 17.71381
546.8904, 18.09178
547.3725, 18.09846
547.8546, 17.89943
548.3367, 17.84968
548.8188, 18.20558
549.3010, 18.49677
549.7831, 18.60376
550.2652, 18.52827
550.7473, 18.39290
551.2294, 18.11502
551.7115, 17.91714
552.1937, 17.95147
552.6758, 18.23856
553.1579, 18.62688
553.6400, 19.18444
554.1221, 19.64177
554.6042, 19.53924
555.0864, 18.96245
555.5685, 18.43488
556.0506, 18.10974
556.5327, 17.92212
557.0148, 17.86307
557.4969, 17.88626
557.9791, 17.81871
558.4612, 17.52907
558.9433, 17.12933
559.4254, 16.67498
559.9075, 16.16645
560.3896, 15.72728
560.8718, 15.45336
561.3539, 15.24493
561.8360, 15.03396
562.3181, 14.86449
562.8002, 14.60425
563.2823, 14.11161
563.7645, 13.58549
564.2466, 13.37797
564.7287, 13.72831
565.2108, 13.85423
565.6929, 13.49129
566.1750, 12.78693
566.6572, 12.38628
567.1393, 12.31592
567.6214, 12.32982
568.1035, 12.32075
568.5856, 12.28186
569.0677, 12.11548
569.5499, 11.80914
570.0320, 11.61292
570.5141, 11.87676
570.9962, 12.35068
571.4783, 12.63272
571.9604, 12.57810
572.4426, 12.45438
572.9247, 12.46521
573.4068, 12.51893
573.8889, 12.45217
574.3710, 11.95750
574.8531, 11.59435
575.3353, 11.66041
575.8174, 12.12216
576.2995, 12.37973
576.7816, 12.25139
577.2637, 12.05395
577.7458, 11.93374
578.2280, 11.93883
578.7101, 11.94272
579.1922, 11.95959
579.6743, 11.94488
580.1564, 11.83316
580.6385, 11.63003
581.1207, 11.43674
581.6028, 11.26634
582.0849, 11.12586
582.5670, 11.06295
583.0491, 11.04808
583.5313, 10.97654
584.0134, 10.68337
584.4955, 10.39509
584.9776, 10.34737
585.4597, 10.50640
585.9418, 10.67588
586.4240, 10.83035
586.9061, 10.91596
587.3882, 10.88089
587.8703, 10.67804
588.3524, 10.51797
588.8345, 10.52535
589.3167, 10.51878
589.7988, 10.32570
590.2809, 9.747738
590.7630, 9.446945
591.2451, 9.520699
591.7272, 9.839508
592.2094, 10.24208
592.6915, 10.74372
593.1736, 11.02341
593.6557, 10.86855
594.1378, 10.49009
594.6199, 10.45568
595.1021, 10.71862
595.5842, 10.89087
596.0663, 10.57633
596.5484, 10.10870
597.0305, 9.840591
597.5126, 9.800583
597.9948, 9.954617
598.4769, 10.50609
598.9590, 11.11673
599.4411, 11.48513
599.9232, 11.33495
600.4053, 11.30234
600.8875, 11.64548
601.3696, 12.09953
601.8517, 12.26242
602.3338, 11.86331
602.8159, 11.73179
603.2980, 12.15623
603.7802, 12.91422
604.2623, 13.14285
604.7444, 12.77842
605.2265, 12.41179
605.7086, 12.33472
606.1907, 12.49735
606.6729, 12.82343
607.1550, 13.30531
607.6371, 13.62650
608.1192, 13.37458
608.6013, 12.87072
609.0834, 12.56434
609.5656, 12.58344
610.0477, 12.55856
610.5298, 12.25431
611.0119, 11.81192
611.4940, 11.38553
611.9761, 10.97467
612.4583, 10.63427
612.9404, 10.52650
613.4225, 10.47429
613.9046, 10.01950
614.3867, 8.888077
614.8688, 7.961006
615.3510, 7.575272
615.8331, 7.614822
616.3152, 7.304077
616.7973, 6.615055
617.2794, 5.860321
617.7615, 5.243580
618.2437, 4.729969
618.7258, 4.204147
619.2079, 3.653522
619.6900, 3.126778
620.1721, 2.683514
620.6542, 2.278702
621.1364, 1.850769
621.6185, 1.349903
622.1006, 0.8935930
622.5827, 0.5406040
623.0648, 0.2571950
623.5469, 3.9519998E-03
624.0291, 0.2846180
624.5112, 0.4957010
624.9933, 0.5773700
625.4754, 0.5826840
625.9575, 0.7124140
626.4396, 1.032856
626.9218, 1.287033
627.4039, 1.391445
627.8860, 1.348408
628.3681, 1.099365
628.8502, 0.6339340
629.3323, 0.2373920
629.8145, 0.1949500
630.2966, 0.3545110
630.7787, 0.4201700
631.2608, 0.3590160
631.7429, 0.2789270
632.2250, 0.2305150
632.7072, 0.2199400
633.1893, 0.2725980
633.6714, 0.5531500
634.1535, 0.6277660
634.6356, 0.1827740
635.1177, 0.4814800
635.5999, 0.8882520
636.0820, 0.8844380
636.5641, 0.8523750
637.0462, 0.8273010
637.5283, 0.8234830
638.0104, 0.8854750
638.4926, 1.014809
638.9747, 1.209034
639.4568, 1.523033
639.9389, 1.895535
640.4210, 2.103718
640.9031, 2.155609
641.3853, 2.147938
641.8674, 2.071091
642.3495, 2.015408
642.8316, 2.114182
643.3137, 2.396912
643.7958, 2.680401
644.2780, 2.799545
644.7601, 2.921535
645.2422, 3.202919
645.7243, 3.938850
646.2064, 4.406601
646.6885, 4.422268
647.1707, 4.247402
647.6528, 4.210148
648.1349, 4.311958
648.6170, 4.559334
649.0991, 5.003044
649.5812, 5.546249
650.0634, 5.961617
650.5455, 6.261768
651.0276, 6.574421
651.5097, 6.940044
651.9918, 7.370132
652.4739, 7.927441
652.9561, 8.580254
653.4382, 9.204983
653.9203, 9.752659
654.4024, 10.21812
654.8845, 10.51926
655.3666, 10.61366
655.8488, 10.96690
656.3309, 11.83958
656.8130, 12.88882
657.2951, 13.91011
657.7772, 14.87189
658.2593, 15.87595
658.7415, 16.88768
659.2236, 17.98760
659.7057, 19.29237
660.1878, 20.79729
660.6699, 22.31199
661.1520, 23.74840
661.6342, 25.27381
662.1163, 27.16438
662.5984, 29.32619
663.0805, 31.50213
663.5626, 33.31776
664.0447, 35.38995
664.5269, 38.31784
665.0090, 41.85996
665.4911, 45.38089
665.9732, 48.61216
666.4553, 51.86941
666.9374, 55.19236
667.4196, 58.62732
667.9017, 62.45522
668.3838, 66.76276
668.8659, 71.30057
669.3480, 76.04519
669.8301, 81.00092
670.3123, 85.81988
670.7944, 90.47824
671.2765, 95.32982
671.7586, 100.9800
672.2407, 107.0893
672.7228, 112.8123
673.2050, 118.0725
673.6871, 123.0306
674.1692, 128.1661
674.6513, 132.9938
675.1334, 136.8837
675.6155, 139.5018
676.0977, 141.5129
676.5798, 143.4060
677.0619, 144.6012
677.5440, 144.1983
678.0261, 141.8318
678.5082, 138.6656
678.9904, 134.8964
679.4725, 130.4550
679.9546, 124.8643
680.4367, 118.2092
680.9188, 111.1685
681.4009, 103.9179
681.8831, 96.60042
682.3652, 89.53554
682.8473, 82.71604
683.3294, 76.40675
683.8115, 70.43906
684.2936, 65.18599
684.7758, 61.07547
685.2579, 58.16052
685.7400, 55.03355
686.2221, 50.80607
686.7042, 46.80472
687.1863, 43.71122
687.6685, 41.73651
688.1506, 39.65925
688.6327, 37.38322
689.1148, 35.15728
689.5969, 33.20903
690.0790, 31.50884
690.5612, 29.90016
691.0433, 28.38292
691.5254, 26.84888
692.0075, 25.10093
692.4896, 23.35662
692.9717, 22.02259
693.4539, 21.41093
693.9360, 20.75050
694.4181, 19.48784
694.9002, 17.93006
695.3823, 16.54872
695.8644, 15.53051
696.3466, 14.62288
696.8287, 13.79628
697.3108, 13.05170
697.7929, 12.43483
698.2750, 11.99026
698.7571, 11.50626
699.2393, 10.91236
699.7214, 10.23163
700.2035, 9.453388
700.6856, 8.606628
701.1677, 7.978596
701.6498, 7.955723
702.1320, 8.106113
702.6141, 7.972069
703.0962, 7.549835
703.5783, 6.960274
704.0604, 5.976257
704.5425, 5.062756
705.0247, 4.531078
705.5068, 4.483284
705.9889, 4.373386
706.4710, 4.223904
706.9531, 3.975666
707.4352, 3.542458
707.9174, 2.895515
708.3995, 2.404060
708.8816, 2.075077
709.3637, 1.899502
709.8458, 1.978142
710.3279, 2.195641
710.8101, 2.262234
711.2922, 2.115273
711.7743, 1.865551
712.2564, 1.552944
712.7385, 1.204025
713.2206, 0.8460580
713.7028, 0.4184610
714.1849, 8.1923999E-02
714.6670, 0.1246910
715.1491, 0.2232020
715.6312, 0.2159040
716.1133, 3.4419999E-02
716.5955, 3.9379001E-02
717.0776, 0.1083340
717.5597, 0.3123510
718.0418, 0.1456950
718.5239, 0.3493500
719.0060, 0.7466240
719.4882, 0.8775860
719.9703, 0.8277240
720.4524, 0.6270100
720.9345, 0.3249440
721.4166, 6.3777998E-02
721.8987, 0.1387600
722.3809, 0.2372020
722.8630, 7.5428002E-02
723.3451, 0.2826000
723.8272, 0.2790570
724.3093, 0.4562450
724.7914, 1.026344
725.2736, 1.052738
725.7557, 0.5844650
726.2378, 0.2225300
726.7199, 3.3973999E-02
727.2020, 0.2198600
727.6841, 0.3531270
728.1663, 0.4392890
728.6484, 0.4495120
729.1305, 0.3894770
729.6126, 0.3958170
730.0947, 0.5924450
730.5768, 0.8725470
731.0590, 1.143494
731.5411, 1.378662
732.0232, 1.682922
732.5053, 2.215698
732.9874, 2.705612
733.4695, 2.988426
733.9517, 3.021599
734.4338, 2.956493
734.9159, 2.750408
735.3980, 2.565636
735.8801, 2.535137
736.3622, 2.668034
736.8444, 3.073151
737.3265, 3.829727
737.8086, 4.538971
738.2907, 4.672836
738.7728, 4.586060
739.2549, 4.748020
739.7371, 5.414642
740.2192, 6.116695
740.7013, 6.681778
741.1834, 7.231339
741.6655, 7.958336
742.1476, 9.011440
742.6298, 9.852940
743.1119, 10.35788
743.5940, 10.70232
744.0761, 11.13239
744.5582, 11.65753
745.0403, 12.45008
745.5225, 13.65531
746.0046, 14.99133
746.4867, 16.20354
746.9688, 17.27869
747.4509, 18.17669
747.9330, 18.75085
748.4152, 19.28129
748.8973, 19.93597
749.3794, 20.64529
749.8615, 21.16724
750.3436, 21.51857
750.8257, 21.67074
751.3079, 21.63113
751.7900, 21.38261
752.2721, 20.75527
752.7542, 19.74807
753.2363, 18.86712
753.7184, 18.53758
754.2006, 18.37392
754.6827, 17.78873
755.1648, 16.82786
755.6469, 15.70590
756.1290, 14.31450
756.6111, 12.97943
757.0933, 11.93740
757.5754, 11.18615
758.0575, 10.20526
758.5396, 8.756897
759.0217, 7.406616
759.5038, 6.348389
759.9860, 5.587284
760.4681, 4.995747
760.9502, 4.566715
761.4323, 4.267960
761.9144, 4.165016
762.3965, 4.170700
762.8787, 4.126190
763.3608, 4.003788
763.8429, 3.796734
764.3250, 3.418896
764.8071, 3.026459
765.2892, 2.743454
765.7714, 2.595531
766.2535, 2.436188
766.7356, 2.306744
767.2177, 2.093021
767.6998, 1.658588
768.1819, 0.9696810
768.6641, 0.6412810
769.1462, 0.7124940
769.6283, 0.8666760
770.1104, 0.8678590
770.5925, 0.7559930
771.0746, 0.5367850
771.5568, 0.2017210
772.0389, 4.8840001E-02
772.5210, 0.4253540
773.0031, 0.9435420
773.4852, 1.345726
773.9673, 1.657448
774.4495, 1.620285
774.9316, 0.9027330
775.4137, 0.2214930
775.8958, 0.2329750
776.3779, 1.013401
776.8600, 1.388756
777.3422, 1.263783
777.8243, 1.088688
778.3064, 1.379704
778.7885, 1.928356
779.2706, 2.357334
779.7527, 2.599113
780.2349, 2.719521
780.7170, 2.600281
781.1991, 2.478184
781.6812, 2.577000
782.1633, 3.085194
782.6454, 3.437725
783.1276, 3.529945
783.6097, 3.677628
784.0918, 4.278492
784.5739, 5.335667
785.0560, 5.937847
785.5381, 5.950706
786.0203, 5.730770
786.5024, 5.580261
786.9845, 5.493130
787.4666, 5.466785
787.9487, 5.521221
788.4308, 5.567978
788.9130, 5.516354
789.3951, 5.459476
789.8772, 5.502636
790.3593, 5.814804
790.8414, 5.923306
791.3235, 5.771118
791.8057, 5.485077
792.2878, 5.175404
792.7699, 4.846107
793.2520, 4.649540
793.7341, 4.624592
794.2162, 4.645237
794.6984, 4.643036
795.1805, 4.572109
795.6626, 4.365574
796.1447, 4.004314
796.6268, 3.509724
797.1089, 2.557899
797.5911, 1.650513
798.0732, 1.366962
798.5553, 2.075100
799.0374, 2.553211
799.5195, 2.740658
800.0016, 2.686096
800.4838, 2.365845
800.9659, 1.831203
801.4480, 1.346687
801.9301, 0.9420740
802.4122, 0.6846280
802.8943, 0.7006190
803.3765, 0.8858220
803.8586, 1.119038
804.3407, 1.481571
804.8228, 1.685051
805.3049, 1.566956
805.7870, 1.320541
806.2692, 1.121826
806.7513, 0.9715270
807.2334, 0.8777310
807.7155, 0.8638610
808.1976, 0.8429530
808.6797, 0.6433870
809.1619, 0.3440900
809.6440, 0.1772230
810.1261, 0.2003780
810.6082, 0.3297770
811.0903, 0.6794660
811.5724, 1.017906
812.0546, 1.074646
812.5367, 0.4509850
813.0188, 0.1334610
813.5009, 0.3536110
813.9830, 0.7049750
814.4651, 0.7065120
814.9473, 0.3294640
815.4294, 0.1266170
815.9115, 0.1843410
816.3936, 0.2770810
816.8757, 8.8165000E-02
817.3578, 0.2315560
817.8400, 0.3969540
818.3221, 0.2885210
818.8042, 0.2340280
819.2863, 0.5299610
819.7684, 0.8762440
820.2505, 0.9696160
820.7327, 0.6582410
821.2148, 0.4154400
821.6969, 0.2416380
822.1790, 0.1381840
822.6611, 0.1742440
823.1432, 0.3090400
823.6254, 0.2488520
824.1075, 5.3107999E-02
824.5896, 0.4075160
825.0717, 0.7292370
825.5538, 0.9605410
826.0359, 0.9887620
826.5181, 0.7019000
827.0002, 0.5498770
827.4823, 0.8738780
827.9644, 1.175690
828.4465, 1.037025
828.9286, 0.2463840
829.4108, 0.1925660
829.8929, 1.042660
830.3750, 1.910698
830.8571, 1.850346
831.3392, 1.228207
831.8214, 0.7900700
832.3035, 0.6163180
832.7856, 0.5963710
833.2677, 0.7055090
833.7498, 0.9122120
834.2319, 1.237064
834.7141, 1.756771
835.1962, 2.052799
835.6783, 2.095154
836.1604, 1.961334
836.6425, 1.583103
837.1246, 0.9978900
837.6068, 0.8229180
838.0889, 1.063080
838.5710, 1.445084
839.0531, 1.965065
839.5352, 2.388462
840.0173, 2.323044
840.4995, 1.760635
840.9816, 1.455395
841.4637, 1.914673
841.9458, 2.442905
842.4279, 2.751450
842.9100, 2.842350
843.3922, 2.798252
843.8743, 2.579685
844.3564, 2.439873
844.8385, 2.661686
845.3206, 3.033577
845.8027, 2.980827
846.2849, 2.580231
846.7670, 2.263813
847.2491, 2.232658
847.7312, 2.393120
848.2133, 2.865646
848.6954, 3.571438
849.1776, 3.821728
849.6597, 3.321953
850.1418, 2.956207
850.6239, 3.123474
851.1060, 3.585629
851.5881, 3.364937
852.0703, 2.569065
852.5524, 2.107281
853.0345, 2.708233
853.5166, 3.589989
853.9987, 4.137508
854.4808, 4.401291
854.9630, 4.510864
855.4451, 4.364605
855.9272, 4.227768
856.4093, 4.140430
856.8914, 4.147732
857.3735, 4.229580
857.8557, 4.313202
858.3378, 4.425209
858.8199, 4.631668
859.3020, 4.840092
859.7841, 4.885941
860.2662, 4.831844
860.7484, 4.793472
861.2305, 4.643562
861.7126, 4.749699
862.1947, 5.621460
862.6768, 6.671299
863.1589, 7.039234
863.6411, 6.425453
864.1232, 5.983398
864.6053, 5.822899
865.0874, 5.842743
865.5695, 5.978657
866.0516, 6.186012
866.5338, 6.330296
867.0159, 6.388641
867.4980, 6.375610
867.9801, 6.128471
868.4622, 5.915066
868.9443, 6.042126
869.4265, 6.880421
869.9086, 7.234085
870.3907, 6.881020
870.8728, 6.383522
871.3549, 6.203976
871.8370, 6.319702
872.3192, 6.401810
872.8013, 6.424751
873.2834, 6.512684
873.7655, 6.889153
874.2476, 7.307804
874.7297, 7.495174
875.2119, 7.433258
875.6940, 7.412060
876.1761, 7.510635
876.6582, 7.629181
877.1403, 7.721493
877.6224, 7.768528
878.1046, 7.693729
878.5867, 7.518974
879.0688, 7.381641
879.5509, 7.391567
880.0330, 7.468353
880.5151, 7.593212
880.9973, 7.700268
881.4794, 7.564217
881.9615, 6.616299
882.4436, 5.937050
882.9257, 6.100304
883.4078, 6.808552
883.8900, 7.258347
884.3721, 7.414501
884.8542, 7.442345
885.3363, 7.361305
885.8184, 7.246872
886.3005, 7.223324
886.7827, 7.226768
887.2648, 7.118172
887.7469, 6.737850
888.2290, 6.409657
888.7111, 6.287659
889.1932, 6.303299
889.6754, 6.371685
890.1575, 6.582314
890.6396, 6.580959
891.1217, 6.291847
891.6038, 5.890034
892.0859, 5.517452
892.5681, 5.214722
893.0502, 5.152248
893.5323, 5.399147
894.0144, 5.576294
894.4965, 5.391853
894.9786, 5.043377
895.4608, 4.675198
895.9429, 4.292934
896.4250, 3.949879
896.9071, 3.652340
897.3892, 3.415432
897.8713, 3.218674
898.3535, 3.075245
898.8356, 3.060562
899.3177, 3.158707
899.7998, 3.124310
900.2819, 2.517174
900.7640, 1.940472
901.2462, 2.003658
901.7283, 2.643177
902.2104, 2.887783
902.6925, 2.359272
903.1746, 1.906567
903.6567, 1.845684
904.1389, 1.995476
904.6210, 1.672642
905.1031, 0.9433330
905.5852, 0.3866920
906.0673, 0.2594720
906.5494, 0.3738170
907.0316, 0.7165340
907.5137, 1.144791
907.9958, 1.410553
908.4779, 1.266399
908.9600, 1.207394
909.4421, 1.325703
909.9243, 1.493347
910.4064, 1.530701
910.8885, 1.444538
911.3706, 1.367149
911.8527, 1.322617
912.3348, 1.260609
912.8170, 1.222633
913.2991, 1.092548
913.7812, 0.6219060
914.2633, 0.4381790
914.7454, 0.9086800
915.2275, 0.2267840
915.7097, 0.6123920
916.1918, 1.072922
916.6739, 1.158550
917.1560, 1.021885
917.6381, 0.6613500
918.1202, 0.4109190
918.6024, 0.6359210
919.0845, 0.9996490
919.5666, 1.134750
920.0487, 1.065277
920.5308, 1.007397
921.0129, 0.9946100
921.4951, 1.037956
921.9772, 1.155678
922.4593, 1.322929
922.9414, 1.493240
923.4235, 1.663101
923.9056, 1.722023
924.3878, 1.601513
924.8699, 1.417900
925.3520, 1.297001
925.8341, 1.204746
926.3162, 1.081356
926.7983, 0.7887880
927.2805, 0.6652340
927.7626, 0.9024580
928.2447, 1.158443
928.7268, 1.005543
929.2089, 0.4410130
929.6910, 0.1792180
930.1732, 0.2904930
930.6553, 0.4964830
931.1374, 0.6751980
931.6195, 0.7330130
932.1016, 0.4804570
932.5837, 0.1159970
933.0659, 0.5435750
933.5480, 0.6838110
934.0301, 0.6204530
934.5122, 0.3099820
934.9943, 0.1921920
935.4764, 0.4712980
935.9586, 0.5346530
936.4407, 0.5835150
936.9228, 0.7949410
937.4049, 0.9720340
937.8870, 0.8761370
938.3691, 0.5900040
938.8513, 0.3078080
939.3334, 3.6270000E-02
939.8155, 0.1719210
940.2976, 0.3398670
940.7797, 0.4108620
941.2618, 0.1935460
941.7440, 0.2757000
942.2261, 0.4405560
942.7082, 0.1605070
943.1903, 0.1589700
943.6724, 0.1257510
944.1545, 7.2140001E-02
944.6367, 0.2611810
945.1188, 0.4312970
945.6009, 0.4990430
946.0830, 0.4173010
946.5651, 0.3005980
947.0472, 0.1948240
947.5294, 0.1053310
948.0115, 8.8577002E-02
948.4936, 0.1423650
948.9757, 0.2717670
949.4578, 0.5945210
949.9399, 0.9031070
950.4221, 1.055130
950.9042, 1.064526
951.3863, 0.9616010
951.8684, 0.6007460
952.3505, 0.4140360
952.8326, 0.5778960
953.3148, 0.8472900
953.7969, 0.6444700
954.2790, 0.1112330
954.7611, 9.8820001E-02
955.2432, 0.2671590
955.7253, 0.6541560
956.2075, 0.5967060
956.6896, 0.4014360
957.1717, 0.4075810
957.6538, 0.7908550
958.1359, 0.8518910
958.6180, 0.4572530
959.1002, 7.0446000E-02
959.5823, 6.7290999E-02
960.0644, 0.3357510
960.5465, 0.5755040
961.0286, 0.7766530
961.5107, 0.9111630
961.9929, 0.8838580
962.4750, 0.8666340
962.9571, 0.9779400
963.4392, 1.172588
963.9213, 1.300709
964.4034, 1.356613
964.8856, 1.396072
965.3677, 1.426060
965.8498, 1.443005
966.3319, 1.438313
966.8140, 1.417358
967.2961, 1.392731
967.7783, 1.372341
968.2604, 1.335934
968.7425, 1.335754
969.2246, 1.266125
969.7067, 0.9878040
970.1888, 0.4302410
970.6710, 0.2471890
971.1531, 0.4689600
971.6352, 0.7844470
972.1173, 0.9730610
972.5994, 1.046768
973.0815, 1.028313
973.5637, 0.9350740
974.0458, 0.8930360
974.5279, 0.9625590
975.0100, 1.078217
975.4921, 1.219315
975.9742, 1.392879
976.4564, 1.683979
976.9385, 2.079510
977.4206, 2.309975
977.9027, 2.283672
978.3848, 2.140835
978.8669, 1.875587
979.3491, 1.639587
979.8312, 1.632484
980.3133, 2.012196
980.7954, 2.304195
981.2775, 2.431007
981.7596, 2.580456
982.2418, 2.996601
982.7239, 3.572914
983.2060, 3.619354
983.6881, 3.200111
984.1702, 2.912434
984.6523, 3.185333
985.1345, 3.638435
985.6166, 4.161686
986.0987, 4.681499
986.5808, 4.957432
987.0629, 4.841755
987.5450, 4.971611
988.0272, 5.570637
988.5093, 6.265926
988.9914, 6.485668
989.4735, 6.369953
989.9556, 6.166870
990.4377, 5.873405
990.9199, 5.635483
991.4020, 5.532169
991.8841, 5.547321
992.3662, 5.735569
992.8483, 6.116055
993.3304, 6.134792
993.8126, 5.763470
994.2947, 5.409870
994.7768, 5.415638
995.2589, 5.516487
995.7410, 5.425953
996.2231, 5.166042
996.7053, 4.804932
997.1874, 4.174469
997.6695, 3.700634
998.1516, 3.514305
998.6337, 3.433300
999.1158, 3.176655
999.5980, 2.778526
1000.080, 2.413708
1000.562, 2.100914
1001.044, 1.757599
1001.526, 1.252003
1002.009, 0.7872200
1002.491, 0.5521090
1002.973, 0.5815090
1003.455, 0.5649070
1003.937, 0.5033150
1004.419, 0.3785060
1004.901, 0.1275830
1005.383, 0.1461600
1005.865, 0.1788060
1006.348, 3.8940001E-02
1006.830, 7.0262998E-02
1007.312, 7.4188001E-02
1007.794, 1.2108000E-02
1008.276, 0.2223630
1008.758, 0.4408450
1009.240, 0.4115520
1009.722, 0.1029970
1010.205, 9.7030997E-02
1010.687, 0.1536250
1011.169, 0.2580800
1011.651, 0.6217420
1012.133, 1.089668
1012.615, 1.562260
1013.097, 2.046982
1013.579, 2.362896
1014.061, 2.372704
1014.544, 2.399879
1015.026, 2.578964
1015.508, 2.817341
1015.990, 2.809368
1016.472, 2.626282
1016.954, 2.570881
1017.436, 2.756939
1017.918, 3.125973
1018.401, 3.858879
1018.883, 4.598366
1019.365, 4.967823
1019.847, 4.871349
1020.329, 4.864002
1020.811, 4.959274
1021.293, 5.093147
1021.775, 5.287651
1022.257, 5.463467
1022.740, 5.442417
1023.222, 5.282825
1023.704, 5.199516
1024.186, 5.351456
1024.668, 5.492489
1025.150, 5.595940
1025.632, 5.637909
1026.114, 5.514408
1026.596, 5.260014
1027.079, 5.212273
1027.561, 5.450348
1028.043, 5.681618
1028.525, 5.764153
1029.007, 5.666019
1029.489, 5.249744
1029.971, 4.482800
1030.453, 4.085987
1030.936, 4.115841
1031.418, 4.349419
1031.900, 4.800232
1032.382, 5.277473
1032.864, 5.341595
1033.346, 5.130791
1033.828, 4.969391
1034.310, 4.988342
1034.792, 5.047848
1035.275, 5.139408
1035.757, 5.236103
1036.239, 5.293423
1036.721, 5.311203
1037.203, 5.483280
1037.685, 5.812267
1038.167, 6.112095
1038.649, 6.140480
1039.132, 6.173439
1039.614, 6.551617
1040.096, 7.165619
1040.578, 7.403248
1041.060, 7.016365
1041.542, 6.884258
1042.024, 7.266884
1042.506, 7.756363
1042.989, 7.657196
1043.471, 7.222340
1043.953, 7.002014
1044.435, 7.135914
1044.917, 7.252460
1045.399, 7.112335
1045.881, 7.020454
1046.363, 7.171791
1046.845, 7.518208
1047.328, 7.682709
1047.810, 7.670273
1048.292, 7.530048
1048.774, 7.176769
1049.256, 6.857098
1049.738, 6.797916
1050.220, 6.892185
1050.702, 6.974022
1051.184, 7.050976
1051.667, 7.077335
1052.149, 7.082066
1052.631, 6.935913
1053.113, 6.305771
1053.595, 5.527802
1054.077, 5.344383
1054.559, 5.697620
1055.041, 5.991508
1055.523, 6.044003
1056.006, 5.909592
1056.488, 5.541084
1056.970, 5.066246
1057.452, 4.708981
1057.934, 4.473465
1058.416, 4.446819
1058.898, 4.686981
1059.380, 4.868725
1059.863, 4.659927
1060.345, 4.330414
1060.827, 4.116943
1061.309, 4.037495
1061.791, 3.844200
1062.273, 3.496273
1062.755, 3.233627
1063.237, 3.216389
1063.719, 3.266243
1064.202, 3.085026
1064.684, 2.767204
1065.166, 2.496017
1065.648, 2.337753
1066.130, 2.221466
1066.612, 2.201725
1067.094, 2.130405
1067.576, 1.796757
1068.059, 1.277649
1068.541, 1.146675
1069.023, 1.361523
1069.505, 1.524715
1069.987, 1.400883
1070.469, 1.163548
1070.951, 0.8875160
1071.433, 0.5641140
1071.916, 0.1189080
1072.398, 0.4885710
1072.880, 0.8118480
1073.362, 0.7734760
1073.844, 0.5434530
1074.326, 0.1006240
1074.808, 0.3171160
1075.290, 0.3862300
1075.772, 7.9406999E-02
1076.255, 3.1817999E-02
1076.737, 0.2206040
1077.219, 0.3445970
1077.701, 0.1079180
1078.183, 0.2378460
1078.665, 0.1075170
1079.147, 0.2911150
1079.629, 0.4467810
1080.111, 0.1143420
1080.594, 0.1363720
1081.076, 2.2457000E-02
1081.558, 0.1494900
1082.040, 0.1829070
1082.522, 0.1044920
1083.004, 0.2358470
1083.486, 0.5540050
1083.968, 0.8336450
1084.450, 0.8993760
1084.933, 0.9447590
1085.415, 1.119381
1085.897, 1.340366
1086.379, 1.490093
1086.861, 1.580833
1087.343, 1.520149
1087.825, 1.285442
1088.307, 1.025928
1088.790, 0.7894710
1089.272, 0.6590730
1089.754, 0.8704990
1090.236, 1.326538
1090.718, 1.451878
1091.200, 0.8052410
1091.682, 0.4621090
1092.164, 0.6859250
1092.646, 1.136414
1093.129, 1.291988
1093.611, 1.260838
1094.093, 1.327438
1094.575, 1.543198
1095.057, 1.717770
1095.539, 1.675735
1096.021, 1.674217
1096.503, 1.851131
1096.986, 2.143539
1097.468, 2.349251
1097.950, 2.462223
1098.432, 2.400566
1098.914, 2.054348
1099.396, 1.756969
1099.878, 1.790871
1100.360, 1.966373
1100.843, 2.059200
1101.325, 2.023197
1101.807, 2.407158
1102.289, 3.278267
1102.771, 3.867229
1103.253, 3.539925
1103.735, 2.893581
1104.217, 2.441746
1104.699, 2.236908
1105.182, 2.400715
1105.664, 3.403271
1106.146, 3.892834
1106.628, 3.699593
1107.110, 3.361259
1107.592, 3.370338
1108.074, 3.575962
1108.556, 3.714588
1109.038, 3.762825
1109.521, 3.672649
1110.003, 3.136341
1110.485, 2.869675
1110.967, 3.161034
1111.449, 3.605888
1111.931, 3.477501
1112.413, 2.944721
1112.895, 2.821362
1113.377, 3.207516
1113.860, 3.640839
1114.342, 3.914589
1114.824, 4.079147
1115.306, 4.122562
1115.788, 4.088829
1116.270, 4.099224
1116.752, 4.154022
1117.234, 4.281200
1117.717, 4.508858
1118.199, 4.722824
1118.681, 4.652905
1119.163, 4.637981
1119.645, 5.137161
1120.127, 6.196735
1120.609, 6.654419
1121.091, 6.386768
1121.573, 6.308598
1122.056, 6.912769
1122.538, 7.725594
1123.020, 8.105442
1123.502, 8.296822
1123.984, 8.736427
1124.466, 9.791328
1124.948, 10.41942
1125.430, 10.52066
1125.913, 10.47865
1126.395, 10.47337
1126.877, 10.52586
1127.359, 10.70353
1127.841, 10.95559
1128.323, 11.06105
1128.805, 10.91157
1129.287, 10.61813
1129.770, 10.19051
1130.252, 9.658756
1130.734, 8.942661
1131.216, 8.162819
1131.698, 7.849640
1132.180, 7.951088
1132.662, 7.902679
1133.144, 7.132988
1133.626, 6.517254
1134.109, 6.494778
1134.591, 6.698112
1135.073, 6.521122
1135.555, 5.996750
1136.037, 5.680355
1136.519, 5.651596
1137.001, 5.573757
1137.483, 5.069557
1137.965, 4.536381
1138.448, 4.185856
1138.930, 4.018307
1139.412, 4.097900
1139.894, 4.445393
1140.376, 4.591160
1140.858, 4.409119
1141.340, 4.177082
1141.822, 4.178421
1142.304, 4.229107
1142.787, 4.089966
1143.269, 3.760155
1143.751, 3.833263
1144.233, 4.437496
1144.715, 4.680042
1145.197, 4.107597
1145.679, 3.388840
1146.161, 3.436977
1146.644, 3.848137
1147.126, 4.097507
1147.608, 4.043350
1148.090, 3.994896
1148.572, 3.941074
1149.054, 3.949219
1149.536, 4.104561
1150.018, 4.284092
1150.500, 4.236156
1150.983, 4.054482
1151.465, 3.929264
1151.947, 3.958397
1152.429, 3.943405
1152.911, 3.813686
1153.393, 3.760616
1153.875, 4.022026
1154.357, 4.414459
1154.840, 4.412983
1155.322, 4.113594
1155.804, 3.822922
1156.286, 3.730965
1156.768, 3.549831
1157.250, 3.162037
1157.732, 2.769691
1158.214, 2.569996
1158.697, 2.534702
1159.179, 2.599785
1159.661, 2.731651
1160.143, 2.763618
1160.625, 2.585667
1161.107, 2.319023
1161.589, 1.872429
1162.071, 1.493423
1162.553, 1.634953
1163.036, 2.182243
1163.518, 2.243828
1164.000, 1.792152
1164.482, 1.430824
1164.964, 1.654545
1165.446, 1.864700
1165.928, 1.832104
1166.410, 1.606644
1166.892, 1.172256
1167.375, 0.5575410
1167.857, 0.2560540
1168.339, 0.3382760
1168.821, 0.5453300
1169.303, 0.8219800
1169.785, 1.032681
1170.267, 1.063942
1170.749, 0.9636990
1171.231, 0.8313830
1171.714, 0.6663700
1172.196, 0.5368230
1172.678, 0.4596060
1173.160, 0.4086910
1173.642, 0.3549460
1174.124, 0.3305630
1174.606, 0.3890840
1175.088, 0.4978870
1175.571, 0.4967080
1176.053, 0.3797840
1176.535, 0.2999110
1177.017, 0.2912860
1177.499, 0.3683850
1177.981, 0.7055780
1178.463, 1.006435
1178.945, 0.9161870
1179.427, 0.4277730
1179.910, 0.1081540
1180.392, 4.7424000E-02
1180.874, 4.3480001E-02
1181.356, 0.5566520
1181.838, 0.9826620
1182.320, 0.5337220
1182.802, 0.1664010
1183.284, 0.2915040
1183.767, 0.3520430
1184.249, 0.4815750
1184.731, 1.3103000E-02
1185.213, 0.3900910
1185.695, 0.3924370
1186.177, 0.2130890
1186.659, 1.1993000E-02
1187.141, 0.1683040
1187.624, 0.2581440
1188.106, 0.2393950
1188.588, 0.1482090
1189.070, 4.0833000E-02
1189.552, 0.1476330
1190.034, 5.8140000E-03
1190.516, 0.2188110
1190.998, 0.2531200
1191.480, 0.1587030
1191.963, 8.1099998E-03
1192.445, 0.2681350
1192.927, 0.3470570
1193.409, 0.1797560
1193.891, 4.1416001E-02
1194.373, 0.2245640
1194.855, 0.4723400
1195.337, 0.4096790
1195.819, 0.1539460
1196.302, 3.4302000E-02
1196.784, 7.6149002E-02
1197.266, 0.1450230
1197.748, 0.2579650
1198.230, 0.3403660
1198.712, 0.2887880
1199.194, 0.2015880
1199.676, 0.2219010
1200.158, 0.3177030
1200.641, 0.3976140
1201.123, 0.4450420
1201.605, 0.4788670
1202.087, 0.4923290
1202.569, 0.5179480
1203.051, 0.6215520
1203.533, 0.7297210
1204.015, 0.7388990
1204.498, 0.6665310
1204.980, 0.5776480
1205.462, 0.4438930
1205.944, 0.3981400
1206.426, 0.4695050
1206.908, 0.5550190
1207.390, 0.5231510
1207.872, 0.4654430
1208.354, 0.5382350
1208.837, 0.7015300
1209.319, 0.7380140
1209.801, 0.5596010
1210.283, 0.4193650
1210.765, 0.3316040
1211.247, 0.3429870
1211.729, 0.6408540
1212.211, 0.9783900
1212.694, 0.9736940
1213.176, 0.6714780
1213.658, 0.4219550
1214.140, 0.1929090
1214.622, 0.2568470
1215.104, 0.7255900
1215.586, 1.184792
1216.068, 1.076042
1216.551, 0.7791860
1217.033, 0.8500560
1217.515, 1.229061
1217.997, 1.180771
1218.479, 0.4807620
1218.961, 1.6750000E-02
1219.443, 4.7268000E-02
1219.925, 8.9794002E-02
1220.407, 0.3763770
1220.890, 0.6194650
1221.372, 0.4790730
1221.854, 1.0384000E-02
1222.336, 7.0525996E-02
1222.818, 0.3730090
1223.300, 0.7446170
1223.782, 0.9330900
1224.264, 1.004349
1224.746, 1.008286
1225.229, 0.9497530
1225.711, 0.7808300
1226.193, 0.5276150
1226.675, 0.4185260
1227.157, 0.4372560
1227.639, 0.7769360
1228.121, 1.571102
1228.603, 2.249615
1229.085, 2.103764
1229.568, 1.624016
1230.050, 1.235420
1230.532, 0.9615670
1231.014, 0.6618390
1231.496, 0.3085400
1231.978, 0.1749270
1232.460, 0.3484840
1232.942, 0.6295660
1233.425, 1.013062
1233.907, 1.268993
1234.389, 1.033398
1234.871, 0.4365730
1235.353, 0.3581700
1235.835, 0.8265230
1236.317, 1.179893
1236.799, 1.259705
1237.281, 1.191315
1237.764, 0.9133380
1238.246, 0.6665310
1238.728, 0.7301560
1239.210, 1.013359
1239.692, 1.165623
1240.174, 1.186642
1240.656, 1.080128
1241.138, 0.8413730
1241.621, 0.6396680
1242.103, 0.4948430
1242.585, 0.4578590
1243.067, 0.6078990
1243.549, 0.8840790
1244.031, 0.9695090
1244.513, 0.8898580
1244.995, 0.8395080
1245.478, 0.8282660
1245.960, 0.8346330
1246.442, 1.033627
1246.924, 1.141571
1247.406, 0.9017750
1247.888, 0.4916760
1248.370, 0.4851040
1248.852, 0.7400890
1249.334, 1.048443
1249.817, 1.344067
1250.299, 1.409603
1250.781, 0.8653910
1251.263, 0.3613850
1251.745, 0.1390300
1252.227, 0.1488490
1252.709, 0.3891220
1253.191, 0.7583770
1253.673, 0.9496080
1254.156, 0.8828620
1254.638, 0.7699510
1255.120, 0.6188130
1255.602, 0.5160710
1256.084, 0.4993170
1256.566, 0.5247040
1257.048, 0.5543250
1257.530, 0.5757680
1258.012, 0.5026170
1258.495, 0.2898940
1258.977, 0.2856520
1259.459, 0.5969700
1259.941, 0.9025920
1260.423, 1.120045
1260.905, 1.181881
1261.387, 1.065697
1261.869, 0.8674430
1262.352, 0.6542280
1262.834, 0.5446700
1263.316, 0.5504460
1263.798, 0.7172240
1264.280, 0.7729640
1264.762, 0.6058850
1265.244, 0.4153630
1265.726, 0.3832630
1266.208, 0.4537050
1266.691, 0.5926170
1267.173, 0.7715870
1267.655, 0.9233210
1268.137, 1.069229
1268.619, 0.9369010
1269.101, 0.3872870
1269.583, 8.7517001E-02
1270.065, 1.9881999E-02
1270.548, 0.3239970
1271.030, 0.5291670
1271.512, 0.6336520
1271.994, 0.6807170
1272.476, 0.6684300
1272.958, 0.6605800
1273.440, 0.6617050
1273.922, 0.6668590
1274.405, 0.7346080
1274.887, 0.7466050
1275.369, 0.5460170
1275.851, 0.2923850
1276.333, 0.5123480
1276.815, 1.063904
1277.297, 1.171989
1277.779, 0.6957930
1278.261, 0.2668690
1278.744, 0.2207070
1279.226, 0.2833020
1279.708, 0.3955960
1280.190, 0.5063130
1280.672, 0.4883800
1281.154, 0.4091950
1281.636, 0.3992120
1282.118, 0.4757770
1282.600, 0.5224610
1283.083, 0.5089260
1283.565, 0.4386060
1284.047, 0.2612150
1284.529, 0.1339420
1285.011, 0.3373600
1285.493, 0.6917720
1285.975, 0.9292140
1286.457, 1.063118
1286.939, 1.049198
1287.422, 0.7944030
1287.904, 0.7050090
1288.386, 0.8929370
1288.868, 1.099480
1289.350, 1.031933
1289.832, 0.8522800
1290.314, 0.6852800
1290.796, 0.5443800
1291.279, 0.4130820
1291.761, 0.2680050
1292.243, 0.3783110
1292.725, 0.8035350
1293.207, 1.129105
1293.689, 0.8775180
1294.171, 0.5628510
1294.653, 0.5199890
1295.135, 0.6442070
1295.618, 0.8241390
1296.100, 1.038330
1296.582, 1.057201
1297.064, 0.8696480
1297.546, 0.6206890
1298.028, 0.1615030
1298.510, 1.3088000E-02
1298.992, 0.4083210
1299.475, 0.9229850
1299.957, 0.7143480
1300.439, 4.1664001E-02
1300.921, 3.2120000E-03
1301.403, 0.3815120
1301.885, 0.0000000E+00
##END=



