##NAMES=Hubeite
##RRUFFID=R060964
##IDEAL CHEMISTRY=Ca_2_Mn^2+^Fe^3+^Si_4_O_12_(OH)&#183;2H_2_O
##LOCALITY=Fengjiashan mine, Daye, Hubei Province, China
##OWNER=RRUFF
##SOURCE=Michael Scott
##DESCRIPTION=Dark brown thin bladed crystals coated with fluorapophyllite, on quartz
##STATUS=The identification of this mineral is confirmed by single-crystal X-ray diffraction and chemical analysis.
##URL=rruff.info/R060964
##MEASURED CHEMISTRY=Ca_2.00_Mn^2+^_1.00_(Fe^3+^_0.85_Al_0.15_)_Σ=1_Si_4.00_O_12_(OH)·1.90H_2_O; OH estimated by charge balance; H_2_O by difference
124.4157, 0.0000000E+00
124.8979, 25.00378
125.3800, 52.27905
125.8621, 72.85034
126.3442, 91.44470
126.8263, 115.5538
127.3084, 143.4030
127.7905, 169.8473
128.2727, 183.7343
128.7548, 187.1990
129.2369, 185.6968
129.7190, 180.3419
130.2011, 174.8566
130.6832, 180.3329
131.1654, 162.1013
131.6475, 141.1812
132.1296, 133.7697
132.6117, 138.1353
133.0938, 136.1567
133.5759, 118.6389
134.0581, 87.72180
134.5402, 59.47266
135.0223, 33.24438
135.5044, 10.64099
135.9865, 7.312134
136.4686, 21.32092
136.9508, 25.25720
137.4329, 11.41724
137.9150, 22.82043
138.3971, 46.29822
138.8792, 55.47998
139.3613, 55.62805
139.8434, 60.96655
140.3256, 74.87439
140.8077, 86.05225
141.2898, 86.47119
141.7719, 70.94580
142.2540, 60.81665
142.7361, 59.00659
143.2183, 64.35876
143.7004, 70.10657
144.1825, 78.73132
144.6646, 84.72705
145.1467, 83.09326
145.6288, 66.64697
146.1110, 54.52454
146.5931, 51.31494
147.0752, 57.65002
147.5573, 58.65784
148.0394, 49.27087
148.5215, 37.47974
149.0037, 31.16846
149.4858, 34.22632
149.9679, 38.51282
150.4500, 42.56213
150.9321, 46.03455
151.4142, 50.43823
151.8964, 55.68213
152.3785, 61.98706
152.8606, 69.61304
153.3427, 77.62024
153.8248, 88.00586
154.3069, 102.0092
154.7890, 122.5103
155.2712, 141.1665
155.7533, 156.2292
156.2354, 168.6709
156.7175, 180.9093
157.1996, 192.7185
157.6817, 205.0643
158.1639, 218.7026
158.6460, 236.5988
159.1281, 251.7231
159.6102, 260.0380
160.0923, 263.2563
160.5744, 268.0925
161.0566, 276.8492
161.5387, 287.9312
162.0208, 300.1910
162.5029, 315.7413
162.9850, 330.0106
163.4671, 337.5468
163.9493, 339.5988
164.4314, 348.6064
164.9135, 383.0603
165.3956, 423.0120
165.8777, 447.9762
166.3598, 432.2684
166.8420, 413.2944
167.3241, 416.5029
167.8062, 446.5721
168.2883, 475.5796
168.7704, 498.5728
169.2525, 514.8843
169.7346, 521.2069
170.2168, 509.8624
170.6989, 492.5371
171.1810, 476.4453
171.6631, 461.5492
172.1452, 449.6376
172.6273, 441.7384
173.1095, 435.0809
173.5916, 427.5044
174.0737, 424.7991
174.5558, 420.6838
175.0379, 405.7406
175.5201, 376.7518
176.0022, 344.3364
176.4843, 317.7583
176.9664, 296.7748
177.4485, 280.1613
177.9306, 270.6859
178.4128, 264.6421
178.8949, 254.8883
179.3770, 239.2535
179.8591, 221.5020
180.3412, 205.0099
180.8233, 189.9302
181.3055, 178.5225
181.7876, 175.1700
182.2697, 176.4409
182.7518, 174.0029
183.2339, 163.8091
183.7160, 151.4238
184.1982, 146.0392
184.6803, 147.6115
185.1624, 154.7432
185.6445, 169.1576
186.1266, 189.0695
186.6087, 206.6074
187.0908, 216.0463
187.5730, 223.5551
188.0551, 247.1768
188.5372, 288.4736
189.0193, 332.3079
189.5014, 362.5493
189.9835, 381.0630
190.4657, 403.3142
190.9478, 436.6639
191.4299, 477.4905
191.9120, 509.6000
192.3941, 532.2019
192.8762, 549.9530
193.3584, 569.6693
193.8405, 590.8530
194.3226, 604.4343
194.8047, 606.5183
195.2868, 598.9972
195.7689, 590.2200
196.2511, 580.3885
196.7332, 566.7231
197.2153, 545.3418
197.6974, 515.9874
198.1795, 481.6240
198.6616, 441.3470
199.1438, 394.7819
199.6259, 352.8674
200.1080, 316.3265
200.5901, 283.0399
201.0722, 249.1116
201.5543, 213.4484
202.0364, 182.1257
202.5186, 159.1301
203.0007, 145.2869
203.4828, 130.3320
203.9649, 113.3004
204.4470, 95.86096
204.9291, 82.43408
205.4113, 74.06262
205.8934, 65.34595
206.3755, 52.15784
206.8576, 32.72205
207.3397, 20.08740
207.8218, 17.64185
208.3040, 20.97876
208.7861, 19.79504
209.2682, 13.64624
209.7503, 4.254517
210.2324, 10.43127
210.7145, 34.80762
211.1967, 43.26807
211.6788, 28.21753
212.1609, 1.933716
212.6430, 18.20361
213.1251, 15.50110
213.6072, 9.348389
214.0894, 10.36816
214.5715, 23.10962
215.0536, 27.52869
215.5357, 18.68335
216.0178, 0.1704100
216.4999, 11.40918
216.9820, 14.07715
217.4642, 13.11560
217.9463, 11.20667
218.4284, 6.938843
218.9105, 6.153809
219.3926, 11.27893
219.8747, 20.88184
220.3569, 26.30945
220.8390, 28.09717
221.3211, 24.88269
221.8032, 13.84473
222.2853, 11.10339
222.7674, 28.77332
223.2496, 34.21948
223.7317, 28.81250
224.2138, 25.94910
224.6959, 24.91235
225.1780, 27.35474
225.6601, 35.55518
226.1423, 53.58862
226.6244, 68.42029
227.1065, 77.57556
227.5886, 81.29309
228.0707, 83.60413
228.5528, 81.98315
229.0350, 81.69629
229.5171, 87.84888
229.9992, 104.4045
230.4813, 119.6058
230.9634, 131.3798
231.4455, 139.8239
231.9276, 147.5325
232.4098, 154.5341
232.8919, 160.7964
233.3740, 165.7179
233.8561, 167.2043
234.3382, 171.6051
234.8203, 181.8378
235.3025, 198.2491
235.7846, 208.7574
236.2667, 210.8246
236.7488, 209.4508
237.2309, 209.1206
237.7130, 208.4906
238.1952, 211.4771
238.6773, 219.5040
239.1594, 232.8586
239.6415, 246.6497
240.1236, 262.6121
240.6057, 277.6434
241.0879, 288.2466
241.5700, 291.7168
242.0521, 295.4391
242.5342, 300.3713
243.0163, 306.3691
243.4984, 315.6005
243.9806, 329.9403
244.4627, 345.7787
244.9448, 359.0815
245.4269, 368.2883
245.9090, 377.7675
246.3911, 389.7091
246.8732, 404.7832
247.3554, 412.7936
247.8375, 410.0192
248.3196, 403.4370
248.8017, 400.5936
249.2838, 402.4843
249.7659, 406.5444
250.2481, 414.1744
250.7302, 426.4321
251.2123, 429.7269
251.6944, 420.1410
252.1765, 405.4927
252.6586, 394.5421
253.1408, 389.6840
253.6229, 383.9927
254.1050, 376.3933
254.5871, 367.1288
255.0692, 354.2848
255.5513, 338.2225
256.0334, 318.2389
256.5156, 292.2548
256.9977, 256.1611
257.4798, 222.3611
257.9619, 193.0033
258.4440, 167.7101
258.9261, 149.7772
259.4083, 143.3595
259.8904, 139.1649
260.3725, 125.7086
260.8546, 97.70544
261.3367, 72.66052
261.8188, 54.82544
262.3010, 44.19556
262.7831, 35.82751
263.2652, 31.18628
263.7473, 26.73779
264.2294, 17.17004
264.7115, 1.054077
265.1937, 14.09485
265.6758, 17.78198
266.1579, 12.23657
266.6400, 5.579956
267.1221, 3.062256
267.6042, 11.39636
268.0864, 16.00232
268.5685, 14.70850
269.0506, 14.30542
269.5327, 18.01428
270.0148, 25.91382
270.4969, 31.50537
270.9791, 32.41162
271.4612, 35.71594
271.9433, 51.51306
272.4254, 83.81274
272.9075, 108.8872
273.3896, 117.6943
273.8718, 113.0164
274.3539, 120.3982
274.8360, 142.6960
275.3181, 171.1647
275.8002, 199.9940
276.2823, 230.4740
276.7645, 251.9290
277.2466, 259.2540
277.7287, 254.8712
278.2108, 256.0468
278.6929, 263.8492
279.1750, 274.4700
279.6572, 284.2539
280.1393, 292.8767
280.6214, 304.0095
281.1035, 319.6031
281.5856, 338.0275
282.0677, 353.1786
282.5499, 365.1002
283.0320, 374.0161
283.5141, 378.8784
283.9962, 379.6678
284.4783, 381.8146
284.9604, 388.4775
285.4425, 396.3301
285.9247, 392.4696
286.4068, 375.8027
286.8889, 358.9225
287.3710, 354.0148
287.8531, 359.9355
288.3352, 363.5144
288.8174, 363.4618
289.2995, 358.1014
289.7816, 338.6355
290.2637, 304.9343
290.7458, 275.1984
291.2279, 269.9642
291.7101, 282.7227
292.1922, 281.1792
292.6743, 256.3823
293.1564, 222.3516
293.6385, 202.4727
294.1206, 195.6318
294.6028, 192.8031
295.0849, 190.6820
295.5670, 188.3296
296.0491, 181.9907
296.5312, 170.1420
297.0133, 156.9735
297.4955, 149.0260
297.9776, 145.7061
298.4597, 142.2378
298.9418, 132.5020
299.4239, 121.1344
299.9060, 118.1815
300.3882, 126.4805
300.8703, 138.6991
301.3524, 147.3839
301.8345, 153.0172
302.3166, 157.3207
302.7987, 158.0916
303.2809, 159.1455
303.7630, 166.7417
304.2451, 182.2562
304.7272, 199.7587
305.2093, 215.7920
305.6914, 229.6982
306.1736, 239.3285
306.6557, 237.7784
307.1378, 234.7764
307.6199, 241.9380
308.1020, 261.1564
308.5841, 280.8494
309.0663, 292.8718
309.5484, 299.6460
310.0305, 304.8625
310.5126, 311.4686
310.9947, 316.3369
311.4768, 315.6621
311.9590, 309.1639
312.4411, 303.7762
312.9232, 302.7729
313.4053, 305.5000
313.8874, 311.0990
314.3695, 323.7482
314.8517, 335.5057
315.3337, 339.5845
315.8159, 336.4290
316.2980, 338.2229
316.7801, 357.2458
317.2622, 380.6127
317.7443, 396.4882
318.2264, 390.7008
318.7086, 387.2006
319.1907, 395.8109
319.6728, 415.0231
320.1549, 433.3778
320.6370, 451.0371
321.1191, 464.5529
321.6013, 471.6021
322.0834, 464.3208
322.5655, 458.5389
323.0476, 458.3459
323.5297, 462.3324
324.0118, 463.3553
324.4940, 453.2825
324.9761, 444.9280
325.4582, 445.0568
325.9403, 467.9844
326.4224, 479.6571
326.9045, 471.7201
327.3867, 450.5154
327.8688, 433.3221
328.3509, 422.4509
328.8330, 413.9352
329.3151, 406.1154
329.7972, 397.0980
330.2794, 393.2738
330.7615, 402.8436
331.2436, 415.0115
331.7257, 409.7706
332.2078, 374.1367
332.6899, 339.2811
333.1721, 315.2465
333.6542, 305.3796
334.1363, 291.3018
334.6184, 271.4928
335.1005, 248.7654
335.5826, 226.1687
336.0648, 203.4015
336.5469, 181.2377
337.0290, 158.9072
337.5111, 136.3007
337.9932, 119.1282
338.4753, 108.8884
338.9575, 101.2424
339.4396, 90.94226
339.9217, 76.59204
340.4038, 67.45947
340.8859, 67.97571
341.3680, 74.91284
341.8502, 71.50354
342.3323, 56.09436
342.8144, 38.27454
343.2965, 26.57434
343.7786, 20.73901
344.2607, 12.68909
344.7429, 0.2420650
345.2250, 14.15430
345.7071, 26.11487
346.1892, 35.77881
346.6713, 41.02313
347.1534, 38.76257
347.6355, 30.61224
348.1176, 22.25269
348.5998, 13.15210
349.0819, 6.979004
349.5640, 13.20337
350.0461, 29.18585
350.5282, 40.05023
351.0103, 34.07184
351.4925, 18.75476
351.9746, 7.317749
352.4567, 1.161377
352.9388, 4.162476
353.4209, 13.54260
353.9030, 25.41016
354.3852, 36.28174
354.8673, 45.21680
355.3494, 52.11707
355.8315, 54.70898
356.3136, 53.11597
356.7957, 55.20691
357.2779, 69.06421
357.7600, 89.13782
358.2421, 108.1160
358.7242, 127.0480
359.2063, 141.2699
359.6884, 146.6284
360.1706, 144.1132
360.6527, 139.8058
361.1348, 129.3804
361.6169, 122.1963
362.0990, 126.5050
362.5811, 155.2983
363.0633, 179.5078
363.5454, 188.4525
364.0275, 185.7078
364.5096, 181.4666
364.9917, 176.7208
365.4738, 172.2709
365.9560, 168.2365
366.4381, 163.7297
366.9202, 161.7468
367.4023, 166.7189
367.8844, 173.6689
368.3665, 174.5042
368.8487, 160.0265
369.3308, 148.2726
369.8129, 143.8236
370.2950, 147.8478
370.7771, 155.2358
371.2592, 166.9543
371.7414, 179.9850
372.2235, 192.3413
372.7056, 204.7795
373.1877, 216.0750
373.6698, 225.1115
374.1519, 232.0023
374.6341, 240.4022
375.1162, 250.2693
375.5983, 261.4852
376.0804, 274.1677
376.5625, 288.3578
377.0446, 300.1965
377.5267, 307.8320
378.0089, 314.3778
378.4910, 329.3966
378.9731, 353.8660
379.4552, 379.7053
379.9373, 401.4473
380.4194, 419.7474
380.9016, 439.1952
381.3837, 459.3447
381.8658, 483.4595
382.3479, 520.6891
382.8300, 568.8438
383.3121, 612.3846
383.7943, 637.4648
384.2764, 653.2933
384.7585, 682.5110
385.2406, 725.3812
385.7227, 774.5258
386.2048, 824.0480
386.6870, 873.4901
387.1691, 922.2688
387.6512, 968.9165
388.1333, 1015.011
388.6154, 1064.066
389.0975, 1115.105
389.5797, 1163.725
390.0618, 1204.464
390.5439, 1242.079
391.0260, 1281.588
391.5081, 1328.111
391.9902, 1369.036
392.4724, 1396.015
392.9545, 1412.387
393.4366, 1426.343
393.9187, 1438.785
394.4008, 1451.588
394.8829, 1467.748
395.3651, 1490.035
395.8472, 1505.349
396.3293, 1509.452
396.8114, 1505.078
397.2935, 1495.500
397.7756, 1476.325
398.2578, 1456.695
398.7399, 1437.614
399.2220, 1419.017
399.7041, 1404.298
400.1862, 1402.445
400.6683, 1397.240
401.1505, 1376.219
401.6326, 1321.103
402.1147, 1282.599
402.5968, 1271.482
403.0789, 1278.461
403.5610, 1270.508
404.0432, 1241.230
404.5253, 1210.505
405.0074, 1190.007
405.4895, 1183.628
405.9716, 1168.775
406.4537, 1143.544
406.9359, 1112.725
407.4180, 1084.094
407.9001, 1057.487
408.3822, 1026.060
408.8643, 986.5664
409.3464, 941.3905
409.8285, 898.9612
410.3106, 859.3329
410.7928, 820.4587
411.2749, 779.0569
411.7570, 736.1827
412.2391, 697.0073
412.7212, 663.5552
413.2033, 632.5063
413.6855, 600.5128
414.1676, 567.3832
414.6497, 531.6104
415.1318, 487.4456
415.6139, 442.1614
416.0960, 407.4440
416.5782, 387.1097
417.0603, 367.8157
417.5424, 339.4702
418.0245, 305.4071
418.5066, 271.6396
418.9887, 237.2770
419.4709, 206.3734
419.9530, 180.5356
420.4351, 160.1013
420.9172, 144.6069
421.3993, 142.8021
421.8814, 141.5038
422.3636, 129.8032
422.8457, 90.10242
423.3278, 57.32166
423.8099, 40.66663
424.2920, 36.90210
424.7741, 31.36853
425.2563, 21.28577
425.7384, 11.18640
426.2205, -4.153133
426.7026, 5.558840
427.1847, 11.16532
427.6668, 12.88696
428.1490, -0.9118228
428.6311, 5.330807
429.1132, 3.541712
429.5953, 1.423295
430.0774, 10.48665
430.5595, -1.054752
431.0417, 7.831344
431.5238, 8.563128
432.0059, 13.02690
432.4880, 9.409381
432.9701, 8.287902
433.4522, 15.25034
433.9344, 17.73671
434.4165, 18.86194
434.8986, 37.88660
435.3807, 48.81140
435.8628, 56.94080
436.3449, 63.92993
436.8271, 70.66589
437.3092, 79.77271
437.7913, 91.78174
438.2734, 102.8330
438.7555, 107.1478
439.2376, 108.0942
439.7197, 111.9132
440.2018, 128.7891
440.6840, 143.6229
441.1661, 141.0120
441.6482, 123.4375
442.1303, 110.0945
442.6124, 113.0420
443.0945, 122.4504
443.5767, 130.7299
444.0588, 135.6383
444.5409, 140.7240
445.0230, 145.4834
445.5051, 151.1873
445.9872, 160.3698
446.4694, 174.7294
446.9515, 191.3490
447.4336, 208.7250
447.9157, 225.8933
448.3978, 249.1204
448.8799, 280.9963
449.3621, 316.6802
449.8442, 351.0560
450.3263, 381.6379
450.8084, 416.8905
451.2905, 460.1383
451.7726, 508.3250
452.2548, 548.8093
452.7369, 577.9646
453.2190, 612.7661
453.7011, 666.8677
454.1832, 739.4785
454.6653, 806.7247
455.1475, 868.1833
455.6296, 924.3235
456.1117, 974.3639
456.5938, 1019.157
457.0759, 1066.631
457.5580, 1121.165
458.0402, 1178.932
458.5223, 1234.772
459.0044, 1288.966
459.4865, 1338.567
459.9686, 1376.451
460.4507, 1410.810
460.9329, 1455.066
461.4150, 1517.247
461.8971, 1575.515
462.3792, 1618.732
462.8613, 1648.009
463.3434, 1666.604
463.8256, 1666.350
464.3077, 1663.332
464.7898, 1668.824
465.2719, 1685.595
465.7540, 1688.124
466.2361, 1663.495
466.7183, 1627.050
467.2004, 1591.663
467.6825, 1569.505
468.1646, 1533.100
468.6467, 1471.813
469.1288, 1394.038
469.6110, 1330.104
470.0930, 1285.755
470.5752, 1244.954
471.0573, 1204.020
471.5394, 1165.547
472.0215, 1104.128
472.5036, 1011.005
472.9857, 913.0388
473.4679, 846.4552
473.9500, 811.9609
474.4321, 774.1570
474.9142, 722.0786
475.3963, 662.8757
475.8784, 612.4597
476.3606, 570.6141
476.8427, 533.5514
477.3248, 500.7513
477.8069, 470.8572
478.2890, 441.6228
478.7711, 412.6774
479.2533, 385.1337
479.7354, 358.9961
480.2175, 335.0464
480.6996, 314.5266
481.1817, 299.7400
481.6638, 287.1992
482.1460, 274.0288
482.6281, 260.7394
483.1102, 251.4601
483.5923, 246.9258
484.0744, 247.1619
484.5565, 252.7375
485.0387, 268.3508
485.5208, 280.3616
486.0029, 286.7651
486.4850, 289.4070
486.9671, 290.8088
487.4492, 288.4028
487.9314, 287.9879
488.4135, 289.3475
488.8956, 292.8350
489.3777, 307.6488
489.8598, 338.4835
490.3419, 370.8434
490.8241, 394.4761
491.3062, 409.6575
491.7883, 420.5299
492.2704, 425.5144
492.7525, 428.5546
493.2346, 435.6300
493.7168, 446.8531
494.1989, 464.1517
494.6810, 494.8998
495.1631, 530.1467
495.6452, 552.5101
496.1273, 562.0819
496.6095, 570.6259
497.0916, 586.4473
497.5737, 606.4912
498.0558, 627.5455
498.5379, 649.6400
499.0201, 670.7474
499.5022, 689.9901
499.9843, 707.3782
500.4664, 722.5520
500.9485, 732.7358
501.4306, 743.0112
501.9127, 756.2646
502.3948, 773.3062
502.8770, 786.8164
503.3591, 793.6770
503.8412, 798.4690
504.3233, 804.8210
504.8054, 817.6499
505.2875, 821.9141
505.7697, 814.1804
506.2518, 798.6389
506.7339, 787.1049
507.2160, 782.2023
507.6981, 770.5381
508.1802, 744.3125
508.6624, 705.5625
509.1445, 671.1370
509.6266, 641.5842
510.1087, 612.3875
510.5908, 578.2617
511.0729, 540.9077
511.5551, 506.4901
512.0372, 478.2097
512.5193, 448.9897
513.0014, 407.4897
513.4835, 358.3761
513.9656, 314.2975
514.4478, 285.1884
514.9299, 260.8055
515.4120, 232.7651
515.8941, 200.6078
516.3762, 172.5000
516.8583, 155.2899
517.3405, 141.6724
517.8226, 126.2067
518.3047, 106.1292
518.7868, 86.56799
519.2689, 66.80298
519.7510, 48.03296
520.2332, 32.79675
520.7153, 22.93030
521.1974, 14.12915
521.6795, 4.218384
522.1616, 6.761108
522.6437, 9.082520
523.1259, 1.201050
523.6080, 9.744995
524.0901, 0.1986080
524.5722, 26.95081
525.0543, 41.74500
525.5364, 39.73145
526.0186, 27.60205
526.5007, 12.07422
526.9828, 5.662720
527.4649, 20.95447
527.9470, 32.50842
528.4291, 39.85168
528.9113, 39.82935
529.3934, 33.42896
529.8755, 30.10547
530.3576, 39.89795
530.8397, 53.04309
531.3218, 60.30994
531.8040, 56.50244
532.2861, 54.74731
532.7682, 58.07458
533.2503, 66.45300
533.7324, 79.86670
534.2145, 105.1022
534.6967, 128.0016
535.1788, 146.5529
535.6609, 160.7289
536.1430, 170.5183
536.6251, 172.0363
537.1072, 175.4915
537.5894, 187.8632
538.0715, 210.7606
538.5536, 230.8661
539.0357, 248.1407
539.5178, 261.7100
539.9999, 269.8218
540.4821, 272.7322
540.9642, 273.6149
541.4463, 273.1158
541.9284, 271.2998
542.4105, 266.2249
542.8926, 259.0634
543.3748, 255.5435
543.8569, 263.5417
544.3390, 274.5580
544.8211, 281.3041
545.3032, 283.2296
545.7853, 279.3964
546.2675, 263.0858
546.7495, 243.5227
547.2316, 229.9895
547.7137, 228.2479
548.1959, 228.5859
548.6780, 230.0911
549.1601, 232.4486
549.6422, 234.6710
550.1243, 235.6305
550.6064, 238.0492
551.0886, 243.0923
551.5707, 250.8229
552.0528, 259.0403
552.5349, 267.3503
553.0170, 276.7375
553.4991, 288.8602
553.9813, 303.5281
554.4634, 316.0776
554.9455, 324.7488
555.4276, 334.4762
555.9097, 354.2203
556.3918, 381.2603
556.8740, 407.2283
557.3561, 423.5142
557.8382, 440.2313
558.3203, 470.7560
558.8024, 512.8496
559.2845, 550.9025
559.7667, 570.1486
560.2488, 587.9113
560.7309, 616.1385
561.2130, 658.5825
561.6951, 704.6348
562.1772, 758.3771
562.6594, 812.1869
563.1415, 857.1030
563.6236, 885.0223
564.1057, 916.3585
564.5878, 954.7417
565.0699, 998.3322
565.5521, 1041.487
566.0342, 1083.659
566.5163, 1127.599
566.9984, 1177.712
567.4805, 1232.376
567.9626, 1277.768
568.4448, 1314.162
568.9269, 1342.477
569.4090, 1357.874
569.8911, 1366.606
570.3732, 1386.225
570.8553, 1427.722
571.3375, 1462.378
571.8196, 1454.610
572.3017, 1422.115
572.7838, 1398.626
573.2659, 1415.119
573.7480, 1426.915
574.2302, 1411.289
574.7123, 1369.596
575.1944, 1327.373
575.6765, 1292.139
576.1586, 1254.604
576.6407, 1209.645
577.1229, 1151.906
577.6050, 1102.442
578.0871, 1065.028
578.5692, 1031.174
579.0513, 991.9584
579.5334, 947.1673
580.0156, 898.3294
580.4977, 843.9961
580.9798, 788.2822
581.4619, 736.6963
581.9440, 690.0844
582.4261, 652.7367
582.9083, 639.2673
583.3904, 631.8362
583.8725, 601.5355
584.3546, 548.9745
584.8367, 497.7608
585.3188, 459.3331
585.8010, 430.0078
586.2831, 407.2861
586.7652, 393.8489
587.2473, 379.6938
587.7294, 362.2020
588.2115, 342.4083
588.6937, 321.6375
589.1758, 299.2063
589.6579, 276.9531
590.1400, 254.8113
590.6221, 233.0659
591.1042, 212.3279
591.5864, 192.0952
592.0685, 175.4515
592.5506, 166.1948
593.0327, 163.0440
593.5148, 153.5200
593.9969, 137.0096
594.4791, 119.9440
594.9612, 108.8462
595.4433, 101.3777
595.9254, 92.88123
596.4075, 81.99939
596.8896, 71.08496
597.3718, 59.88458
597.8539, 50.42010
598.3360, 46.16772
598.8181, 58.50189
599.3002, 66.09711
599.7823, 56.40479
600.2645, 32.65479
600.7466, 17.95929
601.2287, 22.35742
601.7108, 26.95276
602.1929, 23.87994
602.6750, 11.52747
603.1572, 3.478455
603.6393, 0.7329100
604.1214, 0.1264650
604.6035, 2.431213
605.0856, 6.115967
605.5677, 8.922607
606.0499, 10.58929
606.5320, 11.28479
607.0141, 10.62354
607.4962, 9.128418
607.9783, 8.342102
608.4604, 10.03839
608.9425, 11.84210
609.4246, 11.33386
609.9067, 9.054688
610.3889, 7.221680
610.8710, 6.484680
611.3531, 6.677917
611.8352, 8.148865
612.3173, 11.55847
612.7994, 13.26929
613.2816, 11.98358
613.7637, 10.02802
614.2458, 9.461609
614.7279, 11.33807
615.2100, 10.21783
615.6921, 3.797424
616.1743, 2.760925
616.6564, 1.461121
617.1385, 15.76123
617.6206, 27.07806
618.1027, 30.73425
618.5848, 29.42145
619.0670, 27.02386
619.5491, 23.62799
620.0312, 19.62427
620.5133, 14.27612
620.9954, 9.067383
621.4775, 5.170959
621.9597, 2.704712
622.4418, 1.188904
622.9239, 2.242920
623.4060, 3.010559
623.8881, 1.314880
624.3702, 6.150757
624.8524, 10.41998
625.3345, 9.262573
625.8166, 6.616394
626.2987, 8.149841
626.7808, 14.57892
627.2629, 21.61938
627.7451, 28.38159
628.2272, 35.19617
628.7093, 44.79083
629.1914, 56.48962
629.6735, 63.30365
630.1556, 51.86859
630.6378, 38.10431
631.1199, 50.02185
631.6020, 85.28925
632.0841, 112.8341
632.5662, 107.1600
633.0483, 90.98346
633.5305, 81.49884
634.0126, 83.35034
634.4947, 86.26355
634.9768, 84.71735
635.4589, 85.50861
635.9410, 96.19580
636.4232, 126.0104
636.9053, 145.4880
637.3874, 148.2072
637.8695, 142.2141
638.3516, 143.5717
638.8337, 152.4510
639.3159, 165.7050
639.7980, 184.6321
640.2801, 205.7597
640.7622, 220.5482
641.2443, 229.7889
641.7264, 238.0903
642.2086, 247.0767
642.6907, 257.4452
643.1728, 268.4448
643.6549, 279.8654
644.1370, 297.5413
644.6191, 327.5625
645.1013, 362.6956
645.5834, 397.9100
646.0655, 436.4039
646.5476, 468.0592
647.0297, 487.5461
647.5118, 504.0226
647.9940, 530.4355
648.4761, 570.0087
648.9582, 604.9216
649.4403, 630.0009
649.9224, 650.7748
650.4045, 679.7828
650.8867, 716.7089
651.3688, 757.2753
651.8509, 802.6685
652.3330, 848.7551
652.8151, 887.9932
653.2972, 921.0900
653.7794, 956.6006
654.2615, 1001.803
654.7436, 1048.609
655.2257, 1091.200
655.7078, 1128.278
656.1899, 1166.401
656.6721, 1211.712
657.1542, 1254.694
657.6363, 1287.993
658.1184, 1309.542
658.6005, 1327.575
659.0826, 1341.302
659.5648, 1353.241
660.0469, 1373.189
660.5290, 1399.335
661.0111, 1403.110
661.4932, 1369.332
661.9753, 1320.448
662.4575, 1290.046
662.9396, 1271.751
663.4217, 1246.240
663.9038, 1200.577
664.3859, 1147.225
664.8680, 1092.765
665.3502, 1037.561
665.8323, 983.6730
666.3144, 930.3991
666.7965, 879.3896
667.2786, 831.9506
667.7607, 789.1527
668.2429, 744.2957
668.7250, 695.9101
669.2071, 647.3248
669.6892, 601.3325
670.1713, 557.5438
670.6534, 513.9664
671.1355, 469.8816
671.6176, 428.8158
672.0997, 396.3806
672.5818, 370.4369
673.0640, 346.5120
673.5461, 324.2251
674.0282, 302.8327
674.5103, 281.0165
674.9924, 258.3118
675.4745, 235.1481
675.9567, 207.1714
676.4388, 185.0867
676.9209, 175.7957
677.4030, 176.5867
677.8851, 171.0323
678.3672, 157.2006
678.8494, 141.4438
679.3315, 124.9172
679.8136, 108.1071
680.2957, 97.58337
680.7778, 93.59277
681.2599, 92.16138
681.7421, 90.91974
682.2242, 90.22046
682.7063, 90.74768
683.1884, 92.86700
683.6705, 92.22919
684.1526, 82.54974
684.6348, 70.58179
685.1169, 62.94391
685.5990, 61.39703
686.0811, 63.98389
686.5632, 76.15808
687.0453, 90.06659
687.5275, 94.36639
688.0096, 84.44482
688.4917, 76.38110
688.9738, 74.03290
689.4559, 74.86139
689.9380, 70.04443
690.4202, 60.14661
690.9023, 55.97528
691.3844, 69.02551
691.8665, 87.17236
692.3486, 89.32135
692.8307, 78.52545
693.3129, 71.20911
693.7950, 83.87976
694.2771, 97.49359
694.7592, 96.64392
695.2413, 78.09552
695.7234, 68.27637
696.2056, 79.80573
696.6877, 93.61487
697.1698, 99.12463
697.6519, 93.49323
698.1340, 90.71484
698.6161, 91.66248
699.0983, 93.39996
699.5804, 91.45612
700.0625, 86.99915
700.5446, 87.20068
701.0267, 94.77771
701.5089, 102.1951
701.9910, 98.48865
702.4731, 89.58478
702.9552, 85.75775
703.4373, 98.69897
703.9194, 108.3967
704.4016, 102.5289
704.8837, 87.91736
705.3658, 82.22723
705.8479, 93.97443
706.3300, 104.2686
706.8121, 109.5914
707.2943, 110.3574
707.7764, 106.4343
708.2585, 96.60675
708.7406, 91.62048
709.2227, 102.4404
709.7048, 121.3389
710.1870, 125.0617
710.6691, 114.8080
711.1512, 105.9097
711.6333, 110.0610
712.1154, 119.3112
712.5975, 126.3049
713.0797, 129.8846
713.5618, 135.4365
714.0439, 148.0571
714.5260, 160.5304
715.0081, 167.7797
715.4902, 167.7228
715.9724, 167.1801
716.4545, 165.0402
716.9366, 164.5695
717.4187, 171.1164
717.9008, 184.1737
718.3829, 194.6558
718.8651, 201.2002
719.3472, 205.4971
719.8293, 208.4351
720.3114, 210.7421
720.7935, 213.8733
721.2756, 218.4059
721.7578, 223.8220
722.2399, 230.3239
722.7220, 237.5149
723.2041, 244.2402
723.6862, 250.1033
724.1683, 255.7075
724.6505, 259.6151
725.1326, 263.3894
725.6147, 275.3730
726.0968, 297.2245
726.5789, 316.4837
727.0610, 327.5292
727.5432, 331.9267
728.0253, 331.4053
728.5074, 326.7344
728.9895, 323.9356
729.4716, 329.1039
729.9537, 336.7513
730.4359, 343.3616
730.9180, 348.8398
731.4001, 350.2466
731.8822, 340.9029
732.3643, 331.7563
732.8464, 330.6237
733.3285, 342.2020
733.8106, 340.8793
734.2927, 320.9243
734.7748, 300.7794
735.2570, 299.4541
735.7391, 314.3578
736.2212, 327.3479
736.7033, 337.0001
737.1854, 341.6991
737.6675, 338.3424
738.1497, 329.3137
738.6318, 318.9695
739.1139, 310.6774
739.5960, 297.2897
740.0781, 267.5028
740.5602, 233.7332
741.0424, 215.1428
741.5245, 224.0804
742.0066, 227.1129
742.4887, 219.7459
742.9708, 205.6044
743.4529, 189.7706
743.9351, 172.2043
744.4172, 160.0107
744.8993, 158.1089
745.3814, 160.5245
745.8635, 156.8109
746.3456, 148.1914
746.8278, 139.4681
747.3099, 132.6335
747.7920, 126.0967
748.2741, 121.5841
748.7562, 118.4919
749.2383, 110.8085
749.7205, 94.19751
750.2026, 76.97333
750.6847, 62.18201
751.1668, 49.55597
751.6489, 33.84528
752.1310, 13.34174
752.6132, 0.2800900
753.0953, 4.756165
753.5774, 20.57526
754.0595, 28.51007
754.5416, 28.87909
755.0237, 30.06671
755.5059, 40.80109
755.9880, 53.01538
756.4701, 59.54938
756.9522, 58.13751
757.4343, 56.57727
757.9164, 55.58917
758.3986, 55.46948
758.8807, 56.99200
759.3628, 61.60797
759.8449, 59.49341
760.3270, 49.03552
760.8091, 37.74548
761.2913, 33.27771
761.7734, 33.94318
762.2555, 35.80450
762.7376, 39.09222
763.2197, 38.93524
763.7018, 26.13123
764.1840, 9.980286
764.6661, 1.425110
765.1482, 8.631531
765.6303, 14.54810
766.1124, 14.30713
766.5945, 12.70874
767.0767, 15.84106
767.5588, 26.09741
768.0409, 30.85620
768.5230, 26.96600
769.0051, 19.78571
769.4872, 19.34888
769.9694, 23.51880
770.4515, 22.90253
770.9336, 10.99908
771.4157, 0.7653810
771.8978, 1.220520
772.3799, 5.636963
772.8621, 12.10675
773.3442, 20.60553
773.8263, 22.78748
774.3084, 11.50146
774.7905, 6.338623
775.2726, 13.44122
775.7548, 7.012756
776.2369, 0.5502930
776.7190, 6.262329
777.2011, 10.18164
777.6832, 11.79987
778.1653, 11.42737
778.6475, 10.56842
779.1296, 9.424683
779.6117, 8.572449
780.0938, 8.876770
780.5759, 9.985474
781.0580, 10.50891
781.5402, 9.450684
782.0223, 8.287476
782.5044, 6.954529
782.9865, 5.708557
783.4686, 7.624329
783.9507, 14.33508
784.4329, 18.05878
784.9150, 12.65338
785.3971, 1.832520
785.8792, 1.710449
786.3613, 1.395447
786.8434, 5.850586
787.3256, 11.25494
787.8077, 14.19720
788.2898, 9.605286
788.7719, 2.431885
789.2540, 10.11505
789.7361, 8.338989
790.2183, 3.447021
790.7004, 2.814270
791.1825, 10.71277
791.6646, 15.56860
792.1467, 17.36646
792.6288, 16.10541
793.1110, 9.372986
793.5930, 0.1430660
794.0751, 5.253784
794.5573, 5.640503
795.0394, 3.642700
795.5215, 2.534851
796.0036, 7.998291
796.4857, 8.012878
796.9678, 0.5585330
797.4500, 4.815186
797.9321, 6.980408
798.4142, 6.934631
798.8963, 4.842285
799.3784, 0.2596440
799.8605, 4.036682
800.3427, 8.390076
800.8248, 10.70447
801.3069, 8.838562
801.7890, 3.583923
802.2711, 4.813904
802.7532, 16.97058
803.2354, 25.97101
803.7175, 27.85028
804.1996, 24.87494
804.6817, 18.16113
805.1638, 4.017761
805.6459, 4.224609
806.1281, 3.436523
806.6102, 0.7961430
807.0923, 4.294556
807.5744, 13.81421
808.0565, 14.93665
808.5386, 5.650879
809.0208, 5.533264
809.5029, 12.55286
809.9850, 14.75458
810.4671, 9.228271
810.9492, 7.762085
811.4313, 20.91016
811.9135, 22.94977
812.3956, 18.48810
812.8777, 11.37024
813.3598, 1.384033
813.8419, 9.228821
814.3240, 11.16870
814.8062, 10.04968
815.2883, 9.437439
815.7704, 8.815247
816.2525, 3.787170
816.7346, 7.436401
817.2167, 16.95911
817.6989, 13.20215
818.1810, 5.084045
818.6631, 4.614014
819.1452, 20.42310
819.6273, 31.62543
820.1094, 31.61481
820.5916, 26.39319
821.0737, 20.05176
821.5558, 11.46588
822.0379, 7.290405
822.5200, 9.149109
823.0021, 12.55103
823.4843, 10.22504
823.9664, 4.834290
824.4485, 3.727844
824.9306, 9.360474
825.4127, 16.62585
825.8948, 23.21454
826.3770, 28.82147
826.8591, 33.16528
827.3412, 33.33148
827.8233, 36.78870
828.3054, 44.79944
828.7875, 54.46979
829.2697, 64.10748
829.7518, 73.97906
830.2339, 74.69342
830.7160, 63.32977
831.1981, 50.38867
831.6802, 47.08636
832.1624, 50.10547
832.6445, 54.07141
833.1266, 56.97534
833.6087, 63.50647
834.0908, 79.77527
834.5729, 97.24365
835.0551, 106.8315
835.5372, 103.4669
836.0193, 106.5393
836.5014, 118.6614
836.9835, 133.1658
837.4656, 142.5322
837.9478, 147.1670
838.4299, 147.6765
838.9120, 142.9849
839.3941, 140.0774
839.8762, 145.3325
840.3583, 155.0458
840.8405, 165.6453
841.3226, 179.4456
841.8047, 187.4784
842.2868, 184.1747
842.7689, 180.2688
843.2510, 187.5050
843.7332, 206.6812
844.2153, 223.4216
844.6974, 236.3696
845.1795, 247.1168
845.6616, 256.5330
846.1437, 264.9088
846.6259, 272.0095
847.1080, 276.8947
847.5901, 284.0394
848.0722, 297.2689
848.5543, 312.4058
849.0364, 325.9083
849.5186, 338.0864
850.0007, 346.8822
850.4828, 350.8294
850.9649, 355.0867
851.4470, 366.7628
851.9291, 383.0034
852.4113, 394.2507
852.8934, 399.6179
853.3755, 402.3065
853.8576, 398.4563
854.3397, 396.3779
854.8218, 405.1802
855.3040, 431.1277
855.7860, 450.0652
856.2681, 459.1798
856.7502, 462.9342
857.2324, 461.2874
857.7145, 453.8884
858.1966, 461.3671
858.6787, 485.4263
859.1608, 507.8818
859.6429, 507.8644
860.1251, 499.9124
860.6072, 505.0874
861.0893, 525.6691
861.5714, 540.9948
862.0535, 539.4235
862.5356, 535.9698
863.0178, 539.7808
863.4999, 550.6057
863.9820, 554.2523
864.4641, 549.1793
864.9462, 546.8008
865.4283, 554.7977
865.9105, 568.3478
866.3926, 580.9747
866.8747, 592.4240
867.3568, 598.7795
867.8389, 588.9083
868.3210, 580.6375
868.8032, 587.3063
869.2853, 609.4390
869.7674, 623.7225
870.2495, 625.0034
870.7316, 628.9891
871.2137, 643.0787
871.6959, 665.1072
872.1780, 688.0724
872.6601, 711.6288
873.1422, 730.4623
873.6243, 737.1466
874.1064, 741.6650
874.5886, 753.4431
875.0707, 770.7938
875.5528, 785.7686
876.0349, 795.9915
876.5170, 803.9419
876.9991, 808.3614
877.4813, 811.2310
877.9634, 823.4901
878.4455, 845.3021
878.9276, 860.6945
879.4097, 860.3138
879.8918, 852.8685
880.3740, 848.8531
880.8561, 846.9525
881.3382, 843.8514
881.8203, 834.5354
882.3024, 828.1839
882.7845, 830.1384
883.2667, 835.9756
883.7488, 837.4883
884.2309, 834.0446
884.7130, 829.8682
885.1951, 826.3947
885.6772, 821.5255
886.1594, 811.4094
886.6415, 797.3561
887.1236, 781.8866
887.6057, 763.7197
888.0878, 747.9673
888.5699, 739.3159
889.0521, 733.5826
889.5342, 725.1299
890.0163, 712.8926
890.4984, 700.3608
890.9805, 687.7726
891.4626, 674.6724
891.9448, 659.2927
892.4269, 642.8970
892.9090, 629.8585
893.3911, 621.6678
893.8732, 612.6790
894.3553, 598.7139
894.8375, 582.0499
895.3196, 565.4306
895.8017, 551.2949
896.2838, 530.0418
896.7659, 498.0074
897.2480, 465.1561
897.7302, 438.1765
898.2123, 417.2601
898.6944, 402.2230
899.1765, 393.2072
899.6586, 384.4155
900.1407, 371.3837
900.6229, 356.7892
901.1050, 341.8958
901.5871, 326.4443
902.0692, 316.5460
902.5513, 315.9946
903.0334, 315.7681
903.5156, 311.8833
903.9977, 304.8245
904.4798, 298.3293
904.9619, 292.3611
905.4440, 286.4650
905.9261, 278.1931
906.4083, 271.4753
906.8904, 275.5328
907.3725, 285.9696
907.8546, 283.9808
908.3367, 252.1403
908.8188, 221.0627
909.3010, 196.4171
909.7831, 178.6399
910.2652, 172.9403
910.7473, 179.2689
911.2294, 179.6832
911.7115, 166.9420
912.1937, 147.5931
912.6758, 125.6767
913.1579, 103.8843
913.6400, 86.87048
914.1221, 80.57928
914.6042, 73.61035
915.0864, 63.76434
915.5685, 52.44366
916.0506, 42.23608
916.5327, 33.58411
917.0148, 18.47339
917.4969, -0.9480906
917.9790, 7.859233
918.4611, 12.85433
918.9432, 14.24205
919.4254, 1.217944
919.9075, 6.803723
920.3896, 4.931504
920.8717, 2.753468
921.3538, 10.95853
921.8359, 3.0560231E-02
922.3181, 8.070986
922.8002, 8.539553
923.2823, 12.47357
923.7644, 8.903509
924.2465, 7.651222
924.7286, 13.90540
925.2108, 3.790405
925.6929, 28.02014
926.1750, 48.56104
926.6571, 57.34521
927.1392, 62.11560
927.6213, 62.23364
928.1035, 60.20276
928.5856, 79.03528
929.0677, 122.3114
929.5498, 156.9891
930.0319, 163.9432
930.5140, 158.7094
930.9962, 163.8584
931.4783, 177.5303
931.9604, 194.0889
932.4425, 215.6263
932.9246, 234.9427
933.4067, 247.5181
933.8889, 257.7300
934.3710, 274.2017
934.8531, 298.3186
935.3352, 317.6057
935.8173, 328.9220
936.2994, 336.4845
936.7816, 346.0913
937.2637, 355.3811
937.7458, 359.6560
938.2279, 356.1702
938.7100, 352.3406
939.1921, 353.3755
939.6743, 352.8370
940.1564, 345.5044
940.6385, 330.2311
941.1206, 313.3060
941.6027, 293.6555
942.0848, 279.1537
942.5670, 281.5070
943.0491, 290.6113
943.5312, 290.6001
944.0133, 281.0831
944.4954, 274.9330
944.9775, 278.5410
945.4597, 285.2045
945.9418, 292.0225
946.4239, 299.3181
946.9060, 309.7795
947.3881, 323.7356
947.8702, 335.3856
948.3524, 336.4796
948.8345, 340.0771
949.3166, 371.3521
949.7987, 418.9316
950.2808, 455.4055
950.7629, 458.7184
951.2451, 464.7314
951.7272, 481.1786
952.2093, 503.4290
952.6914, 526.5198
953.1735, 550.6917
953.6556, 566.2601
954.1378, 569.6000
954.6199, 573.0052
955.1020, 593.8762
955.5841, 620.5764
956.0662, 637.7961
956.5483, 640.1926
957.0305, 642.8276
957.5126, 654.2202
957.9947, 659.8556
958.4768, 645.6698
958.9589, 612.5956
959.4410, 604.3582
959.9232, 620.9198
960.4053, 638.0481
960.8874, 640.6221
961.3695, 634.4951
961.8516, 617.6271
962.3337, 594.2539
962.8159, 589.1135
963.2980, 626.7686
963.7801, 652.6063
964.2622, 650.6442
964.7443, 631.2040
965.2264, 621.9470
965.7086, 621.1150
966.1907, 617.6851
966.6728, 609.1232
967.1549, 594.5897
967.6370, 567.5491
968.1191, 536.4739
968.6013, 513.8054
969.0834, 514.5215
969.5655, 498.4874
970.0476, 458.9025
970.5297, 415.1760
971.0118, 387.7476
971.4940, 372.3541
971.9761, 351.6960
972.4582, 324.0840
972.9403, 297.6760
973.4224, 281.0734
973.9045, 264.0978
974.3867, 237.9163
974.8688, 202.1639
975.3509, 171.2816
975.8330, 144.3328
976.3151, 124.0913
976.7972, 113.8447
977.2794, 109.5925
977.7615, 103.0754
978.2436, 95.10535
978.7257, 88.34473
979.2078, 87.12793
979.6899, 82.81384
980.1720, 67.53467
980.6541, 49.49109
981.1362, 40.69434
981.6183, 42.61267
982.1005, 43.67334
982.5826, 41.60901
983.0647, 42.03333
983.5468, 54.01794
984.0289, 70.32690
984.5110, 78.85254
984.9932, 76.65186
985.4753, 76.38843
985.9574, 82.44458
986.4395, 90.92712
986.9216, 99.76025
987.4037, 109.2009
987.8859, 122.8958
988.3680, 140.7109
988.8501, 161.4635
989.3322, 189.8905
989.8143, 216.4166
990.2964, 225.1460
990.7786, 224.3392
991.2607, 238.0186
991.7428, 286.6848
992.2249, 324.5267
992.7070, 340.8195
993.1891, 350.9667
993.6713, 385.5587
994.1534, 437.4049
994.6355, 469.5613
995.1176, 470.1210
995.5997, 472.6451
996.0818, 507.0653
996.5640, 551.2888
997.0461, 584.2318
997.5282, 600.6349
998.0103, 629.3485
998.4924, 675.0157
998.9745, 716.7166
999.4567, 739.8839
999.9388, 750.2996
1000.421, 761.5018
1000.903, 771.7310
1001.385, 773.2584
1001.867, 754.8120
1002.349, 735.4944
1002.831, 724.7064
1003.314, 716.8639
1003.796, 700.5204
1004.278, 675.0333
1004.760, 645.6918
1005.242, 611.0868
1005.724, 581.2139
1006.206, 574.5239
1006.688, 575.8270
1007.171, 563.5856
1007.653, 529.0732
1008.135, 498.1792
1008.617, 473.3003
1009.099, 453.1769
1009.581, 438.5548
1010.063, 428.2964
1010.545, 414.2131
1011.027, 396.9426
1011.510, 381.8828
1011.992, 370.8428
1012.474, 364.7424
1012.956, 365.6165
1013.438, 372.0547
1013.920, 379.3658
1014.402, 387.0703
1014.884, 395.9554
1015.367, 405.9294
1015.849, 417.8506
1016.331, 434.4225
1016.813, 453.6259
1017.295, 471.0182
1017.777, 485.1071
1018.259, 499.7684
1018.741, 511.4821
1019.223, 529.2172
1019.706, 560.4397
1020.188, 605.1018
1020.670, 644.1771
1021.152, 677.7227
1021.634, 703.7987
1022.116, 714.2218
1022.598, 721.8364
1023.080, 744.4268
1023.563, 775.1510
1024.045, 793.6903
1024.527, 785.0594
1025.009, 781.8306
1025.491, 789.9066
1025.973, 801.3206
1026.455, 808.8932
1026.937, 810.1777
1027.419, 793.7690
1027.901, 756.3286
1028.384, 714.9626
1028.866, 680.7279
1029.348, 646.7937
1029.830, 606.0273
1030.312, 558.8095
1030.794, 522.4500
1031.276, 498.3358
1031.758, 475.7865
1032.241, 448.6354
1032.723, 420.9784
1033.205, 399.9753
1033.687, 382.9879
1034.169, 363.2126
1034.651, 331.5040
1035.133, 307.4019
1035.615, 297.3616
1036.098, 290.6720
1036.580, 272.2139
1037.062, 244.1936
1037.544, 222.8040
1038.026, 209.9076
1038.508, 195.7545
1038.990, 165.6171
1039.472, 137.2054
1039.954, 128.5310
1040.437, 138.6948
1040.919, 132.6099
1041.401, 105.4826
1041.883, 81.59790
1042.365, 70.75568
1042.847, 66.55054
1043.329, 57.71954
1043.811, 47.04803
1044.293, 40.64734
1044.776, 47.08472
1045.258, 46.36584
1045.740, 27.29315
1046.222, 8.054810
1046.704, 7.538330
1047.186, 24.61945
1047.668, 29.68262
1048.150, 21.96277
1048.633, 11.43463
1049.115, 4.225708
1049.597, 1.926453
1050.079, 8.837219
1050.561, 16.08167
1051.043, 22.40179
1051.525, 29.10431
1052.007, 28.97418
1052.490, 17.72980
1052.972, 4.690979
1053.454, 5.395264
1053.936, 14.37427
1054.418, 22.23767
1054.900, 27.51715
1055.382, 28.39587
1055.864, 21.75739
1056.346, 12.91052
1056.828, 4.019470
1057.311, 4.172668
1057.793, 7.011597
1058.275, 4.935425
1058.757, 1.864929
1059.239, 1.897583
1059.721, 3.185547
1060.203, 2.372009
1060.685, 11.68005
1061.168, 17.09698
1061.650, 16.17297
1062.132, 17.82281
1062.614, 23.27618
1063.096, 29.70587
1063.578, 35.20062
1064.060, 40.03186
1064.542, 43.59186
1065.025, 45.67065
1065.507, 50.78235
1065.989, 65.81714
1066.471, 76.92975
1066.953, 77.30695
1067.435, 71.27417
1067.917, 75.49939
1068.399, 87.80200
1068.881, 96.25049
1069.364, 92.92139
1069.846, 92.15356
1070.328, 107.6434
1070.810, 127.1319
1071.292, 136.3143
1071.774, 130.9412
1072.256, 131.1210
1072.738, 136.5131
1073.220, 150.7792
1073.703, 185.3525
1074.185, 224.2429
1074.667, 243.6688
1075.149, 247.8556
1075.631, 258.5670
1076.113, 289.0748
1076.595, 314.1435
1077.077, 328.9542
1077.559, 337.8981
1078.042, 346.5358
1078.524, 353.2844
1079.006, 356.9566
1079.488, 357.0117
1079.970, 358.8886
1080.452, 369.8787
1080.934, 379.2233
1081.416, 379.7205
1081.899, 372.3467
1082.381, 367.5100
1082.863, 365.3226
1083.345, 367.3110
1083.827, 381.1106
1084.309, 389.2285
1084.791, 367.3853
1085.273, 331.8829
1085.755, 310.1066
1086.238, 315.7214
1086.720, 310.7926
1087.202, 293.1458
1087.684, 270.4570
1088.166, 244.9464
1088.648, 220.9611
1089.130, 207.0255
1089.612, 202.3770
1090.094, 199.4308
1090.577, 199.8442
1091.059, 195.2317
1091.541, 182.8353
1092.023, 165.7629
1092.505, 147.3499
1092.987, 128.5303
1093.469, 115.2888
1093.951, 109.5675
1094.434, 104.6459
1094.916, 93.40479
1095.398, 83.59283
1095.880, 83.05005
1096.362, 91.03528
1096.844, 91.31665
1097.326, 83.64020
1097.808, 72.14539
1098.291, 55.31696
1098.773, 40.28833
1099.255, 37.80780
1099.737, 42.03040
1100.219, 43.88812
1100.701, 40.44183
1101.183, 36.49371
1101.665, 31.31073
1102.147, 27.58063
1102.630, 30.35693
1103.112, 35.27911
1103.594, 31.15564
1104.076, 19.59259
1104.558, 11.35797
1105.040, 11.88666
1105.522, 15.71967
1106.004, 23.97583
1106.486, 32.06030
1106.969, 29.71802
1107.451, 19.27557
1107.933, 13.46057
1108.415, 14.72522
1108.897, 16.41309
1109.379, 14.15869
1109.861, 11.06171
1110.343, 9.358459
1110.826, 8.944336
1111.308, 8.622070
1111.790, 8.207947
1112.272, 6.012146
1112.754, 1.223999
1113.236, 4.936523
1113.718, 14.34412
1114.200, 22.65765
1114.682, 23.50684
1115.165, 13.07245
1115.647, 4.721985
1116.129, 1.930847
1116.611, 5.098206
1117.093, 1.450562
1117.575, 5.595947
1118.057, 11.63721
1118.539, 16.01617
1119.021, 16.58453
1119.504, 11.41693
1119.986, 3.082764
1120.468, 11.43823
1120.950, 23.98010
1121.432, 20.80402
1121.914, 7.085327
1122.396, 0.1791990
1122.878, 1.585571
1123.361, 4.347168
1123.843, 5.607361
1124.325, 6.430817
1124.807, 6.705750
1125.289, 7.207214
1125.771, 11.83633
1126.253, 19.81699
1126.735, 20.85843
1127.218, 10.16141
1127.700, 1.225952
1128.182, 6.272217
1128.664, 16.35211
1129.146, 24.94025
1129.628, 31.85229
1130.110, 31.38318
1130.592, 22.64404
1131.074, 16.28598
1131.557, 18.72580
1132.039, 24.36667
1132.521, 30.07471
1133.003, 33.60556
1133.485, 30.50876
1133.967, 15.04828
1134.449, 2.914154
1134.931, 7.641083
1135.413, 8.852631
1135.896, 15.90521
1136.378, 48.37952
1136.860, 55.55475
1137.342, 42.35834
1137.824, 31.38416
1138.306, 29.31964
1138.788, 31.57605
1139.270, 39.98343
1139.752, 48.39566
1140.235, 46.36630
1140.717, 37.98279
1141.199, 34.08127
1141.681, 35.85547
1142.163, 39.59198
1142.645, 47.33798
1143.127, 52.16254
1143.609, 50.65302
1144.092, 45.30087
1144.574, 43.35831
1145.056, 43.90094
1145.538, 41.34369
1146.020, 33.45541
1146.502, 26.19843
1146.984, 19.87714
1147.466, 19.30768
1147.948, 30.70761
1148.431, 52.37711
1148.913, 55.73422
1149.395, 41.62997
1149.877, 35.84241
1150.359, 57.42883
1150.841, 79.76398
1151.323, 82.00626
1151.805, 72.85428
1152.287, 63.19714
1152.770, 52.39651
1153.252, 47.30869
1153.734, 48.23401
1154.216, 51.78195
1154.698, 57.99658
1155.180, 63.68826
1155.662, 64.22638
1156.144, 61.64713
1156.627, 61.88208
1157.109, 67.00183
1157.591, 70.58362
1158.073, 72.35355
1158.555, 71.95618
1159.037, 67.79843
1159.519, 62.33069
1160.001, 57.77451
1160.484, 54.67474
1160.966, 56.17642
1161.448, 66.59717
1161.930, 73.57812
1162.412, 73.65787
1162.894, 71.11575
1163.376, 72.19882
1163.858, 75.34940
1164.340, 77.47186
1164.823, 78.10995
1165.305, 78.32602
1165.787, 79.38092
1166.269, 78.28101
1166.751, 72.00516
1167.233, 64.72525
1167.715, 70.86105
1168.197, 84.77658
1168.679, 89.21149
1169.162, 75.91104
1169.644, 63.37177
1170.126, 56.99728
1170.608, 54.07379
1171.090, 53.76337
1171.572, 55.47336
1172.054, 59.56076
1172.536, 65.10641
1173.019, 66.05008
1173.501, 51.94241
1173.983, 42.96158
1174.465, 54.08923
1174.947, 67.56897
1175.429, 66.18454
1175.911, 50.76517
1176.393, 47.64468
1176.875, 56.03305
1177.358, 60.68008
1177.840, 43.43814
1178.322, 30.04712
1178.804, 40.61792
1179.286, 59.16742
1179.768, 60.17572
1180.250, 43.36444
1180.732, 35.59344
1181.214, 39.26132
1181.697, 44.15317
1182.179, 40.46909
1182.661, 37.53113
1183.143, 46.34387
1183.625, 60.40570
1184.107, 58.81934
1184.589, 39.97968
1185.071, 30.55225
1185.554, 36.24146
1186.036, 42.72943
1186.518, 31.71701
1187.000, 19.38876
1187.482, 21.93500
1187.964, 37.41013
1188.446, 49.65091
1188.928, 59.30566
1189.411, 59.10208
1189.893, 43.58356
1190.375, 28.65637
1190.857, 38.00867
1191.339, 52.90332
1191.821, 50.42429
1192.303, 27.17932
1192.785, 16.46188
1193.267, 20.85742
1193.750, 24.67740
1194.232, 17.29361
1194.714, 10.06458
1195.196, 20.95383
1195.678, 38.22787
1196.160, 44.91312
1196.642, 35.37027
1197.124, 30.49869
1197.606, 30.61392
1198.089, 33.32709
1198.571, 40.17178
1199.053, 45.91660
1199.535, 43.17880
1200.017, 34.85007
1200.499, 25.89594
1200.981, 13.44891
1201.463, 10.11325
1201.945, 17.84937
1202.428, 26.00189
1202.910, 24.08746
1203.392, 19.40637
1203.874, 23.08438
1204.356, 31.86108
1204.838, 35.27881
1205.320, 29.55109
1205.802, 24.94894
1206.285, 22.27448
1206.767, 20.44388
1207.249, 19.17569
1207.731, 17.74365
1208.213, 13.27838
1208.695, 7.131866
1209.177, 8.776733
1209.659, 24.97977
1210.141, 32.06747
1210.624, 23.92917
1211.106, 14.73953
1211.588, 25.79294
1212.070, 43.22809
1212.552, 45.91418
1213.034, 33.27130
1213.516, 29.39050
1213.998, 43.39279
1214.480, 45.30811
1214.963, 24.08951
1215.445, 0.5374760
1215.927, 8.719727
1216.409, 29.59326
1216.891, 34.83224
1217.373, 19.75586
1217.855, 10.56778
1218.337, 10.38428
1218.820, 12.60962
1219.302, 16.06931
1219.784, 19.07739
1220.266, 17.59924
1220.748, 14.69269
1221.230, 15.53073
1221.712, 22.18317
1222.194, 24.62534
1222.677, 21.40054
1223.159, 17.47131
1223.641, 15.01041
1224.123, 12.70981
1224.605, 6.967865
1225.087, 0.5668330
1225.569, 1.670410
1226.051, 2.963257
1226.533, 6.427246
1227.016, 8.606476
1227.498, 9.519928
1227.980, 8.049530
1228.462, 6.710205
1228.944, 10.78796
1229.426, 17.15210
1229.908, 20.24557
1230.390, 17.23312
1230.872, 15.03439
1231.355, 13.33426
1231.837, 13.91165
1232.319, 18.83487
1232.801, 25.36267
1233.283, 32.99905
1233.765, 38.63797
1234.247, 34.67429
1234.729, 12.14331
1235.212, 2.073090
1235.694, 6.244812
1236.176, 14.81412
1236.658, 24.78668
1237.140, 31.32391
1237.622, 25.70175
1238.104, 12.55725
1238.586, 4.093445
1239.068, 2.037323
1239.551, 1.042114
1240.033, 0.4511410
1240.515, 2.778107
1240.997, 13.84821
1241.479, 25.42331
1241.961, 28.75821
1242.443, 25.52554
1242.925, 22.25244
1243.407, 19.86829
1243.890, 13.77472
1244.372, 3.115906
1244.854, 3.895508
1245.336, 7.456329
1245.818, 19.96707
1246.300, 15.35513
1246.782, 0.6044920
1247.264, 6.083954
1247.747, 7.4463002E-02
1248.229, 7.810944
1248.711, 17.14883
1249.193, 24.48920
1249.675, 27.29575
1250.157, 27.18005
1250.639, 23.94635
1251.121, 18.92337
1251.604, 15.69949
1252.086, 14.26865
1252.568, 11.72894
1253.050, 6.921844
1253.532, 4.309448
1254.014, 6.995392
1254.496, 13.32028
1254.978, 25.38278
1255.460, 38.98068
1255.943, 43.78528
1256.425, 39.75378
1256.907, 30.65588
1257.389, 16.11600
1257.871, 6.493744
1258.353, 10.92856
1258.835, 20.82303
1259.317, 34.76740
1259.799, 48.21127
1260.281, 42.09488
1260.764, 21.73206
1261.246, 14.10138
1261.728, 27.36346
1262.210, 38.04364
1262.692, 30.18292
1263.174, 20.97266
1263.656, 18.21756
1264.138, 19.80490
1264.621, 19.01727
1265.103, 17.35391
1265.585, 21.83060
1266.067, 36.23123
1266.549, 44.84903
1267.031, 38.65750
1267.513, 29.70029
1267.995, 20.51849
1268.478, 13.80927
1268.960, 19.16315
1269.442, 31.35898
1269.924, 38.00256
1270.406, 36.48489
1270.888, 30.96198
1271.370, 18.95380
1271.852, 11.06128
1272.334, 12.99576
1272.817, 18.32498
1273.299, 11.43961
1273.781, 0.5797120
1274.263, 1.485199
1274.745, 23.06937
1275.227, 35.20908
1275.709, 34.88409
1276.191, 32.74686
1276.673, 33.49554
1277.156, 35.44131
1277.638, 37.09738
1278.120, 38.00134
1278.602, 37.54208
1279.084, 35.72412
1279.566, 31.47174
1280.048, 24.30652
1280.530, 18.08871
1281.013, 12.16394
1281.495, 11.99548
1281.977, 29.77927
1282.459, 52.25900
1282.941, 63.29443
1283.423, 62.35074
1283.905, 53.07178
1284.387, 35.53699
1284.870, 23.47922
1285.352, 25.41876
1285.834, 31.72797
1286.316, 40.62677
1286.798, 47.30661
1287.280, 47.88174
1287.762, 42.44073
1288.244, 29.03656
1288.726, 9.847260
1289.208, 2.617981
1289.691, 0.5090030
1290.173, 6.328888
1290.655, 10.08865
1291.137, 14.43896
1291.619, 23.36612
1292.101, 29.94965
1292.583, 24.10999
1293.065, 9.269836
1293.548, 3.3264000E-02
1294.030, 8.756805
1294.512, 0.0000000E+00
##END=



