##NAMES=Humberstonite
##RRUFFID=R060718
##IDEAL CHEMISTRY=K_3_Na_7_Mg_2_(SO_4_)_6_(NO_3_)_2_&#183;6H_2_O
##LOCALITY=Officina Alemania, Antofagasta Province, Chile
##OWNER=RRUFF
##SOURCE=Bob Jenkins
##DESCRIPTION=Mass of colorless grains
##STATUS=The identification of this mineral has been confirmed by X-ray diffraction.
##URL=rruff.info/R060718
122.4920, 0.0000000E+00
122.9740, 3.810974
123.4560, 0.9528500
123.9380, 2.8015001E-02
124.4200, 6.039429
124.9020, 14.86887
125.3840, 24.68527
125.8670, 35.34497
126.3490, 45.38806
126.8310, 54.75485
127.3130, 62.86188
127.7950, 68.13992
128.2770, 69.72131
128.7590, 70.65839
129.2410, 76.90479
129.7230, 91.98410
130.2060, 103.0518
130.6880, 105.7273
131.1700, 103.9368
131.6520, 100.5870
132.1340, 96.70267
132.6160, 92.41595
133.0980, 87.99005
133.5800, 82.96698
134.0620, 78.55231
134.5450, 75.55859
135.0270, 73.05359
135.5090, 70.21298
135.9910, 66.75714
136.4730, 62.34808
136.9550, 55.40854
137.4370, 42.33145
137.9190, 31.03513
138.4020, 22.60797
138.8840, 16.91367
139.3660, 13.98288
139.8480, 14.14984
140.3300, 16.93350
140.8120, 18.12808
141.2940, 12.61917
141.7760, 10.59256
142.2580, 15.01425
142.7410, 24.43655
143.2230, 36.08176
143.7050, 48.19321
144.1870, 60.71167
144.6690, 73.53168
145.1510, 86.08093
145.6330, 99.39322
146.1150, 114.4705
146.5980, 130.7136
147.0800, 147.0234
147.5620, 162.7012
148.0440, 178.0309
148.5260, 189.2904
149.0080, 197.5331
149.4900, 201.8643
149.9720, 200.4356
150.4540, 194.3004
150.9360, 186.6520
151.4190, 180.3799
151.9010, 175.8228
152.3830, 169.5061
152.8650, 159.1520
153.3470, 149.2548
153.8290, 143.3862
154.3110, 140.9930
154.7940, 137.8871
155.2760, 129.4186
155.7580, 113.7057
156.2400, 103.6753
156.7220, 101.5102
157.2040, 102.8058
157.6860, 105.2785
158.1680, 108.4816
158.6500, 112.3925
159.1330, 116.9141
159.6150, 122.0598
160.0970, 128.5031
160.5790, 138.3306
161.0610, 148.0429
161.5430, 154.2462
162.0250, 156.5984
162.5070, 158.0562
162.9900, 161.5417
163.4720, 167.3035
163.9540, 175.1898
164.4360, 189.2292
164.9180, 203.2116
165.4000, 210.1727
165.8820, 208.8814
166.3640, 205.5135
166.8460, 207.0378
167.3290, 214.2000
167.8110, 221.6400
168.2930, 227.8026
168.7750, 234.4925
169.2570, 244.5248
169.7390, 258.6030
170.2210, 273.1572
170.7030, 284.0131
171.1850, 291.0034
171.6680, 296.9501
172.1500, 299.5018
172.6320, 302.3184
173.1140, 311.0947
173.5960, 327.6036
174.0780, 345.5531
174.5600, 355.7336
175.0420, 357.7791
175.5250, 364.6982
176.0070, 384.6524
176.4890, 409.2397
176.9710, 425.1984
177.4530, 428.8417
177.9350, 429.9580
178.4170, 440.7393
178.8990, 460.6498
179.3810, 481.4979
179.8630, 501.3212
180.3460, 519.5314
180.8280, 539.8328
181.3100, 563.6495
181.7920, 585.6702
182.2740, 597.5734
182.7560, 600.5201
183.2380, 602.2608
183.7210, 605.9081
184.2030, 609.4474
184.6850, 609.3325
185.1670, 604.5106
185.6490, 597.3766
186.1310, 590.1573
186.6130, 582.8683
187.0950, 575.0959
187.5770, 567.6022
188.0590, 559.3330
188.5420, 548.5198
189.0240, 534.7382
189.5060, 518.7307
189.9880, 500.0438
190.4700, 479.1083
190.9520, 458.8116
191.4340, 439.9880
191.9170, 422.3339
192.3990, 404.8973
192.8810, 387.0059
193.3630, 370.7977
193.8450, 360.5239
194.3270, 354.8550
194.8090, 346.6371
195.2910, 330.6205
195.7730, 311.2891
196.2550, 297.2582
196.7380, 290.8308
197.2200, 285.3373
197.7020, 273.0497
198.1840, 255.5789
198.6660, 239.9644
199.1480, 227.4191
199.6300, 218.2222
200.1120, 214.3906
200.5950, 217.6118
201.0770, 220.6439
201.5590, 214.3157
202.0410, 201.4387
202.5230, 191.6879
203.0050, 188.8960
203.4870, 190.4918
203.9690, 193.4279
204.4520, 197.8602
204.9340, 201.8826
205.4160, 203.6475
205.8980, 203.6400
206.3800, 203.0308
206.8620, 202.3777
207.3440, 201.1537
207.8260, 197.0823
208.3080, 189.0526
208.7900, 184.1343
209.2730, 189.0961
209.7550, 201.9144
210.2370, 217.3569
210.7190, 238.5306
211.2010, 259.6636
211.6830, 273.0400
212.1650, 277.7796
212.6480, 280.0901
213.1300, 283.8195
213.6120, 288.4549
214.0940, 292.4095
214.5760, 294.8631
215.0580, 296.8823
215.5400, 299.7701
216.0220, 303.5941
216.5040, 307.1407
216.9860, 310.4040
217.4690, 312.6402
217.9510, 312.0475
218.4330, 309.6678
218.9150, 303.4838
219.3970, 289.1642
219.8790, 267.0361
220.3610, 247.3954
220.8440, 237.8423
221.3260, 234.9365
221.8080, 227.5202
222.2900, 212.2962
222.7720, 195.3400
223.2540, 180.7004
223.7360, 168.1437
224.2180, 156.2028
224.7000, 144.1437
225.1820, 132.2952
225.6650, 121.7906
226.1470, 114.2034
226.6290, 105.7191
227.1110, 92.88354
227.5930, 76.87265
228.0750, 62.42355
228.5570, 51.64365
229.0400, 43.92853
229.5220, 37.61960
230.0040, 32.94699
230.4860, 29.18115
230.9680, 26.29532
231.4500, 24.13547
231.9320, 22.51904
232.4140, 21.62372
232.8960, 20.66028
233.3780, 17.60532
233.8610, 11.20300
234.3430, 6.321045
234.8250, 5.918762
235.3070, 7.877045
235.7890, 8.216248
236.2710, 5.460938
236.7530, 1.295715
237.2350, 1.436279
237.7180, 2.694336
238.2000, 2.613770
238.6820, 0.9365840
239.1640, 1.919861
239.6460, 5.823273
240.1280, 11.02762
240.6100, 15.81931
241.0920, 17.46078
241.5740, 14.89371
242.0570, 12.60645
242.5390, 10.72046
243.0210, 9.519287
243.5030, 9.029572
243.9850, 9.300507
244.4670, 10.89050
244.9490, 14.79852
245.4310, 21.91605
245.9130, 27.80978
246.3960, 31.00772
246.8780, 34.05115
247.3600, 39.41312
247.8420, 46.87350
248.3240, 53.00970
248.8060, 54.34012
249.2880, 50.21982
249.7700, 49.61847
250.2530, 55.26483
250.7350, 61.33893
251.2170, 65.57770
251.6990, 67.92770
252.1810, 68.63177
252.6630, 67.97940
253.1450, 66.03430
253.6270, 64.07034
254.1090, 59.52350
254.5920, 57.66162
255.0740, 61.54123
255.5560, 69.13992
256.0380, 77.00217
256.5200, 83.24786
257.0020, 87.88828
257.4840, 91.10321
257.9660, 92.82059
258.4490, 93.01318
258.9310, 89.84134
259.4130, 85.88354
259.8950, 84.20340
260.3770, 86.28845
260.8590, 90.62689
261.3410, 93.53149
261.8230, 94.27817
262.3060, 94.51245
262.7880, 92.27701
263.2700, 90.76163
263.7520, 93.93448
264.2340, 102.4291
264.7160, 112.0452
265.1980, 115.6271
265.6800, 109.0021
266.1620, 106.3615
266.6450, 109.8142
267.1270, 115.3647
267.6090, 122.1948
268.0910, 129.4173
268.5730, 134.7271
269.0550, 134.4975
269.5370, 127.0999
270.0190, 123.7139
270.5010, 128.8030
270.9840, 134.4139
271.4660, 138.7191
271.9480, 141.1216
272.4300, 141.1049
272.9120, 137.7356
273.3940, 131.4414
273.8760, 125.9021
274.3580, 121.3353
274.8410, 117.4305
275.3230, 115.3655
275.8050, 113.4193
276.2870, 108.6664
276.7690, 98.46341
277.2510, 85.47726
277.7330, 77.07693
278.2150, 75.52347
278.6980, 72.89877
279.1800, 64.08716
279.6620, 53.21130
280.1440, 45.10855
280.6260, 41.93442
281.1080, 40.39200
281.5900, 35.84869
282.0720, 27.86877
282.5540, 21.02750
283.0360, 17.64096
283.5190, 15.57904
284.0010, 12.61160
284.4830, 8.372070
284.9650, 4.368286
285.4470, 1.893250
285.9290, 0.7908020
286.4110, 4.9164001E-02
286.8930, 0.8165590
287.3760, 2.109772
287.8580, 4.562927
288.3400, 8.088837
288.8220, 11.13345
289.3040, 13.44510
289.7860, 14.95816
290.2680, 15.11664
290.7500, 13.55106
291.2330, 11.67020
291.7150, 10.96967
292.1970, 11.39237
292.6790, 11.65192
293.1610, 11.73669
293.6430, 11.39059
294.1250, 9.726379
294.6070, 7.022064
295.0890, 5.818878
295.5720, 8.796143
296.0540, 15.19119
296.5360, 16.91504
297.0180, 9.609070
297.5000, 2.383026
297.9820, 0.3552550
298.4640, 1.977203
298.9460, 2.410736
299.4280, 1.079498
299.9110, 6.905731
300.3930, 9.632904
300.8750, 5.838257
301.3570, 3.130249
301.8390, 3.542175
302.3210, 4.981659
302.8030, 4.613983
303.2850, 1.597961
303.7670, 1.906586
304.2500, 2.241516
304.7320, 2.699890
305.2140, 6.795593
305.6960, 9.350342
306.1780, 11.44092
306.6600, 14.59845
307.1420, 18.49847
307.6250, 20.97644
308.1070, 18.97876
308.5890, 11.59262
309.0710, 9.402954
309.5530, 18.79407
310.0350, 26.47232
310.5170, 27.96216
310.9990, 24.83698
311.4810, 20.56619
311.9640, 17.00562
312.4460, 14.30469
312.9280, 12.93607
313.4100, 12.55609
313.8920, 14.34030
314.3740, 22.17349
314.8560, 30.64630
315.3380, 32.69333
315.8200, 24.99368
316.3030, 14.37485
316.7850, 10.77124
317.2670, 15.22800
317.7490, 19.13705
318.2310, 19.88159
318.7130, 19.55807
319.1950, 19.85919
319.6770, 20.94110
320.1590, 22.03178
320.6420, 22.43192
321.1240, 22.39400
321.6060, 22.99184
322.0880, 24.79262
322.5700, 26.50983
323.0520, 26.26961
323.5340, 24.45518
324.0160, 23.55164
324.4990, 25.66548
324.9810, 28.31952
325.4630, 27.84174
325.9450, 24.08725
326.4270, 21.21521
326.9090, 22.77370
327.3910, 27.68428
327.8730, 29.34363
328.3550, 23.97879
328.8380, 19.32707
329.3200, 20.24446
329.8020, 24.57570
330.2840, 27.22148
330.7660, 25.80357
331.2480, 21.85846
331.7300, 18.83157
332.2120, 15.21475
332.6940, 14.99835
333.1770, 22.48627
333.6590, 31.26390
334.1410, 34.84003
334.6230, 32.09969
335.1050, 26.90875
335.5870, 23.77106
336.0690, 23.36716
336.5520, 22.33597
337.0340, 20.10640
337.5160, 17.89000
337.9980, 15.84534
338.4800, 14.22392
338.9620, 13.31239
339.4440, 13.17442
339.9260, 13.99402
340.4080, 17.19434
340.8910, 26.04317
341.3730, 32.23691
341.8550, 33.53404
342.3370, 31.59561
342.8190, 27.31857
343.3010, 20.63457
343.7830, 14.59958
344.2650, 14.85739
344.7470, 22.66049
345.2300, 27.42738
345.7120, 23.93584
346.1940, 18.91637
346.6760, 18.00458
347.1580, 21.31293
347.6400, 24.35201
348.1220, 23.89008
348.6040, 21.16757
349.0860, 19.65720
349.5690, 20.01598
350.0510, 20.19063
350.5330, 17.71515
351.0150, 13.60297
351.4970, 11.39111
351.9790, 13.53683
352.4610, 16.61502
352.9440, 18.11903
353.4260, 17.80098
353.9080, 15.23086
354.3900, 9.696701
354.8720, 3.442978
355.3540, 2.306931
355.8360, 9.946701
356.3180, 14.96538
356.8000, 12.84128
357.2830, 7.843735
357.7650, 4.809921
358.2470, 4.858841
358.7290, 6.738708
359.2110, 9.275360
359.6930, 13.43138
360.1750, 15.40776
360.6570, 14.48796
361.1390, 12.14706
361.6220, 7.963974
362.1040, 3.070099
362.5860, 0.2219850
363.0680, 0.5597690
363.5500, 1.718063
364.0320, 5.448639
364.5140, 14.69298
364.9960, 19.02173
365.4780, 12.15587
365.9610, 1.732361
366.4430, 3.978348
366.9250, 2.210266
367.4070, 2.863174
367.8890, 5.694427
368.3710, 6.149811
368.8530, 6.071442
369.3350, 5.165314
369.8180, 4.399384
370.3000, 4.872055
370.7820, 6.353699
371.2640, 7.041824
371.7460, 4.942535
372.2280, 1.800385
372.7100, 1.134354
373.1920, 3.470398
373.6740, 6.009827
374.1570, 7.030380
374.6390, 6.635513
375.1210, 5.864639
375.6030, 3.272049
376.0850, 1.710373
376.5670, 4.329819
377.0490, 9.120468
377.5310, 11.06288
378.0130, 8.054398
378.4960, 2.376999
378.9780, 2.047546
379.4600, 5.418488
379.9420, 6.759491
380.4240, 4.490143
380.9060, 1.312241
381.3880, 0.7217710
381.8710, 1.533127
382.3530, 2.358383
382.8350, 4.419769
383.3170, 7.667145
383.7990, 9.124069
384.2810, 7.409134
384.7630, 5.320007
385.2450, 2.445786
385.7270, 0.1647030
386.2100, 0.8180540
386.6920, 1.228928
387.1740, 4.187851
387.6560, 4.604294
388.1380, 1.720779
388.6200, 0.3063960
389.1020, 2.289505
389.5840, 5.060684
390.0660, 6.887573
390.5490, 7.851852
391.0310, 8.826462
391.5130, 10.25114
391.9950, 11.78171
392.4770, 12.55728
392.9590, 12.27087
393.4410, 12.65993
393.9230, 15.43935
394.4050, 19.81735
394.8880, 23.05057
395.3700, 25.42752
395.8520, 26.15570
396.3340, 23.25201
396.8160, 18.50601
397.2980, 15.86353
397.7800, 16.77914
398.2630, 19.84087
398.7450, 22.85574
399.2270, 25.45079
399.7090, 28.48868
400.1910, 33.87253
400.6730, 38.07242
401.1550, 37.85315
401.6370, 34.04161
402.1190, 30.18457
402.6020, 28.81808
403.0840, 29.76102
403.5660, 32.72867
404.0480, 41.13394
404.5300, 46.38550
405.0120, 45.16003
405.4940, 41.28018
405.9760, 38.34616
406.4580, 37.33029
406.9410, 37.34940
407.4230, 37.58057
407.9050, 38.02023
408.3870, 38.38757
408.8690, 38.23343
409.3510, 38.59253
409.8330, 40.87845
410.3150, 44.48752
410.7970, 47.16946
411.2800, 48.39536
411.7620, 48.14810
412.2440, 45.96664
412.7260, 41.92749
413.2080, 37.30661
413.6900, 32.43396
414.1720, 27.89081
414.6540, 25.85175
415.1370, 27.55231
415.6190, 28.68054
416.1010, 26.46344
416.5830, 24.48608
417.0650, 28.30362
417.5470, 37.87234
418.0290, 45.95529
418.5110, 44.72058
418.9930, 33.40359
419.4760, 26.02737
419.9580, 25.01096
420.4400, 25.31458
420.9220, 27.12622
421.4040, 29.38742
421.8860, 30.62314
422.3680, 30.25006
422.8500, 28.57877
423.3320, 25.51578
423.8150, 20.46191
424.2970, 17.44995
424.7790, 19.91827
425.2610, 22.91904
425.7430, 21.58981
426.2250, 16.72827
426.7070, 13.88696
427.1900, 17.74399
427.6720, 24.23993
428.1540, 26.64603
428.6360, 24.79553
429.1180, 23.89203
429.6000, 27.42981
430.0820, 33.49655
430.5640, 36.26459
431.0460, 33.60788
431.5290, 31.78989
432.0110, 33.40582
432.4930, 36.29803
432.9750, 37.60117
433.4570, 36.85229
433.9390, 35.92389
434.4210, 36.73337
434.9030, 39.31049
435.3850, 43.30627
435.8680, 51.20526
436.3500, 57.72369
436.8320, 58.63293
437.3140, 57.86874
437.7960, 62.31171
438.2780, 75.36154
438.7600, 91.42310
439.2420, 99.60336
439.7240, 98.17877
440.2070, 103.0884
440.6890, 121.1528
441.1710, 142.3772
441.6530, 158.2091
442.1350, 169.8882
442.6170, 183.5025
443.0990, 204.0026
443.5810, 226.6694
444.0640, 243.0007
444.5460, 253.7078
445.0280, 270.5241
445.5100, 300.6053
445.9920, 339.3037
446.4740, 373.4028
446.9560, 399.3455
447.4380, 428.0109
447.9210, 462.7950
448.4030, 500.5052
448.8850, 538.0418
449.3670, 575.1796
449.8490, 611.7969
450.3310, 648.4595
450.8130, 685.0280
451.2950, 716.5255
451.7770, 734.9276
452.2590, 758.3997
452.7420, 796.1948
453.2240, 838.4510
453.7060, 874.0602
454.1880, 899.4112
454.6700, 921.0452
455.1520, 946.1006
455.6340, 974.1851
456.1160, 1001.939
456.5990, 1032.562
457.0810, 1056.314
457.5630, 1063.255
458.0450, 1057.065
458.5270, 1046.411
459.0090, 1034.340
459.4910, 1017.158
459.9730, 991.6374
460.4560, 958.8871
460.9380, 920.3583
461.4200, 876.2820
461.9020, 830.2150
462.3840, 788.5330
462.8660, 751.5517
463.3480, 719.1000
463.8300, 694.8507
464.3120, 671.5722
464.7950, 646.1711
465.2770, 618.4775
465.7590, 588.8024
466.2410, 556.7311
466.7230, 523.9773
467.2050, 495.5804
467.6870, 473.3262
468.1690, 449.7063
468.6510, 418.8080
469.1340, 389.2158
469.6160, 367.6261
470.0980, 354.2120
470.5800, 342.8949
471.0620, 330.1122
471.5440, 317.5028
472.0260, 308.4348
472.5080, 303.0190
472.9910, 297.0475
473.4730, 288.2339
473.9550, 277.1111
474.4370, 265.2087
474.9190, 248.7838
475.4010, 237.6830
475.8830, 238.5366
476.3650, 242.4934
476.8480, 240.6064
477.3300, 232.0668
477.8120, 221.9759
478.2940, 214.9322
478.7760, 210.6637
479.2580, 204.8510
479.7400, 194.0128
480.2220, 187.0007
480.7040, 192.0648
481.1860, 198.3662
481.6690, 193.1912
482.1510, 173.4984
482.6330, 151.5661
483.1150, 137.5224
483.5970, 130.0352
484.0790, 124.6913
484.5610, 121.7028
485.0430, 118.0657
485.5260, 110.6211
486.0080, 100.5499
486.4900, 93.71011
486.9720, 96.03766
487.4540, 94.87265
487.9360, 81.01315
488.4180, 62.20731
488.9000, 50.30591
489.3830, 48.08188
489.8650, 49.15515
490.3470, 45.93378
490.8290, 37.66968
491.3110, 32.05804
491.7930, 32.12592
492.2750, 31.61810
492.7570, 27.86060
493.2390, 22.95932
493.7220, 20.39429
494.2040, 21.58865
494.6860, 22.76508
495.1680, 18.52835
495.6500, 9.781860
496.1320, 4.125977
496.6140, 3.598846
497.0960, 4.025177
497.5780, 1.109924
498.0610, 4.061951
498.5430, 6.120789
499.0250, 0.9104310
499.5070, 3.724854
499.9890, 2.428345
500.4710, 1.923859
500.9530, 3.879364
501.4350, 1.764709
501.9180, 1.865936
502.4000, 3.820862
502.8820, 4.178070
503.3640, 2.485474
503.8460, 6.170837
504.3280, 11.67105
504.8100, 7.500824
505.2920, 0.8226320
505.7750, 4.295349
506.2570, 0.9957890
506.7390, 8.204559
507.2210, 8.712555
507.7030, 3.603638
508.1850, 1.376587
508.6670, 4.915680
509.1490, 8.071777
509.6310, 4.075378
510.1140, 5.517273
510.5960, 11.09201
511.0780, 9.370697
511.5600, 7.023407
512.0420, 6.204498
512.5240, 6.298798
513.0060, 7.194031
513.4880, 8.803467
513.9710, 10.04572
514.4530, 8.387817
514.9350, 2.679688
515.4170, 1.465424
515.8990, 10.12967
516.3810, 17.43378
516.8630, 19.72562
517.3450, 18.70828
517.8270, 16.46277
518.3100, 13.37000
518.7920, 11.22699
519.2740, 12.74677
519.7560, 17.09427
520.2380, 20.07059
520.7200, 20.65359
521.2020, 21.27740
521.6840, 24.20993
522.1660, 29.16724
522.6490, 32.99728
523.1310, 35.53204
523.6130, 37.16156
524.0950, 36.96979
524.5770, 36.39877
525.0590, 37.78345
525.5410, 41.47385
526.0230, 45.31696
526.5050, 46.94479
526.9880, 46.31635
527.4700, 45.25058
527.9520, 42.77252
528.4340, 41.41812
528.9160, 42.76245
529.3980, 45.19443
529.8800, 46.60608
530.3620, 46.40945
530.8440, 46.66550
531.3270, 51.17715
531.8090, 56.75046
532.2910, 54.68250
532.7730, 43.84015
533.2550, 34.00244
533.7370, 32.01337
534.2190, 36.59695
534.7010, 41.02719
535.1840, 46.26202
535.6660, 50.08954
536.1480, 52.63364
536.6300, 53.39838
537.1120, 50.79474
537.5940, 45.49368
538.0760, 40.84122
538.5580, 39.67938
539.0410, 41.19113
539.5230, 41.96948
540.0050, 41.55539
540.4870, 42.10394
540.9690, 46.28696
541.4510, 50.24561
541.9330, 49.05984
542.4150, 42.29257
542.8980, 36.94290
543.3800, 37.01474
543.8620, 38.71716
544.3440, 38.51010
544.8260, 36.42758
545.3080, 33.58258
545.7900, 30.47314
546.2720, 27.28421
546.7540, 24.34680
547.2370, 21.05493
547.7190, 19.31055
548.2010, 20.42270
548.6830, 21.67532
549.1650, 21.90250
549.6470, 21.19012
550.1290, 19.89529
550.6110, 17.95193
551.0930, 16.03903
551.5760, 15.62863
552.0580, 16.39572
552.5400, 15.10132
553.0220, 10.19434
553.5040, 5.485046
553.9860, 5.322845
554.4680, 9.850098
554.9500, 11.81693
555.4320, 8.410156
555.9150, 5.446442
556.3970, 5.742432
556.8790, 7.998383
557.3610, 10.20334
557.8430, 11.68475
558.3250, 12.04666
558.8070, 10.28592
559.2890, 6.676392
559.7710, 5.722565
560.2540, 8.809143
560.7360, 11.66019
561.2180, 12.09262
561.7000, 11.22861
562.1820, 10.99619
562.6640, 12.64667
563.1460, 12.53598
563.6280, 5.983917
564.1110, 2.370575
564.5930, 7.040054
565.0750, 7.418060
565.5570, 4.628723
566.0390, 0.8259280
566.5210, 7.186493
567.0030, 9.911377
567.4850, 8.917908
567.9680, 5.287964
568.4500, 5.873474
568.9320, 15.25990
569.4140, 17.02885
569.8960, 12.42610
570.3780, 5.671295
570.8600, 2.255737
571.3420, 9.386230
571.8250, 12.76230
572.3070, 12.75293
572.7890, 11.63409
573.2710, 9.674683
573.7530, 7.668945
574.2350, 6.179779
574.7170, 5.222137
575.1990, 5.616089
575.6810, 8.291534
576.1640, 11.14557
576.6460, 13.72113
577.1280, 15.97424
577.6100, 18.05188
578.0920, 19.91107
578.5740, 21.14316
579.0560, 21.24622
579.5380, 20.32462
580.0200, 18.55954
580.5030, 15.00003
580.9850, 13.99600
581.4670, 19.20456
581.9490, 26.90259
582.4310, 31.16821
582.9130, 31.42535
583.3950, 31.31604
583.8770, 29.99725
584.3600, 30.21100
584.8420, 36.36526
585.3240, 46.27011
585.8060, 53.07043
586.2880, 53.18637
586.7700, 49.53180
587.2520, 47.57977
587.7340, 47.46130
588.2160, 48.56433
588.6990, 51.91693
589.1810, 55.28207
589.6630, 57.24573
590.1450, 58.48392
590.6270, 60.37762
591.1090, 63.45386
591.5910, 66.82864
592.0730, 70.39993
592.5550, 73.69478
593.0380, 75.11713
593.5200, 74.67799
594.0020, 75.60342
594.4840, 80.72635
594.9660, 89.17581
595.4480, 95.65579
595.9300, 98.23633
596.4120, 102.0524
596.8950, 108.8819
597.3770, 115.9600
597.8590, 121.6255
598.3410, 125.7926
598.8230, 128.5352
599.3050, 127.1274
599.7870, 127.1970
600.2690, 137.6152
600.7520, 156.5928
601.2340, 175.8590
601.7160, 193.3647
602.1980, 208.4228
602.6800, 219.5446
603.1620, 226.1307
603.6440, 236.2314
604.1260, 251.5717
604.6090, 268.0023
605.0910, 284.3915
605.5730, 301.3452
606.0550, 320.3464
606.5370, 341.2131
607.0190, 361.3983
607.5010, 377.1260
607.9830, 390.7222
608.4650, 409.5999
608.9480, 433.9700
609.4300, 456.5058
609.9120, 475.1489
610.3940, 488.8676
610.8760, 495.5597
611.3580, 493.9358
611.8400, 490.7920
612.3220, 487.5135
612.8040, 480.8004
613.2870, 466.2848
613.7690, 447.8973
614.2510, 431.6902
614.7330, 419.7608
615.2150, 410.1149
615.6970, 399.6203
616.1790, 388.9893
616.6610, 383.5166
617.1430, 383.9805
617.6260, 387.0769
618.1080, 390.6487
618.5900, 396.0877
619.0720, 407.2254
619.5540, 426.9816
620.0360, 443.3391
620.5180, 450.5929
621.0000, 457.2936
621.4820, 468.3622
621.9650, 483.5648
622.4470, 501.9375
622.9290, 523.4550
623.4110, 547.4391
623.8930, 571.4821
624.3750, 595.1985
624.8570, 625.8943
625.3390, 664.4476
625.8220, 709.6852
626.3040, 762.0352
626.7860, 820.0496
627.2680, 879.8995
627.7500, 942.3483
628.2320, 1005.417
628.7140, 1065.971
629.1960, 1128.780
629.6790, 1205.486
630.1610, 1289.774
630.6430, 1364.143
631.1250, 1420.009
631.6070, 1454.476
632.0890, 1462.744
632.5710, 1445.062
633.0530, 1394.741
633.5360, 1299.350
634.0180, 1192.041
634.5000, 1094.823
634.9820, 1003.848
635.4640, 907.5620
635.9460, 797.1602
636.4280, 696.1334
636.9100, 610.3824
637.3920, 538.5315
637.8750, 482.1070
638.3570, 439.0790
638.8390, 402.5015
639.3210, 368.0445
639.8030, 337.1909
640.2850, 314.3058
640.7670, 299.9864
641.2490, 287.4566
641.7310, 275.6097
642.2140, 265.4272
642.6960, 258.8853
643.1780, 254.6892
643.6600, 248.5247
644.1420, 237.5177
644.6240, 228.2001
645.1060, 225.0750
645.5880, 223.2403
646.0700, 217.1170
646.5530, 206.9021
647.0350, 196.6415
647.5170, 189.1143
647.9990, 183.1805
648.4810, 176.6781
648.9630, 169.7050
649.4450, 160.3664
649.9270, 146.9416
650.4090, 133.4965
650.8920, 123.0379
651.3740, 115.2317
651.8560, 109.0289
652.3380, 105.5285
652.8200, 102.0515
653.3020, 98.15179
653.7840, 93.69150
654.2660, 87.74454
654.7490, 80.92987
655.2310, 75.77249
655.7130, 74.22238
656.1950, 74.39261
656.6770, 72.47508
657.1590, 68.42990
657.6410, 62.54001
658.1230, 52.63539
658.6060, 45.97304
659.0880, 39.06192
659.5700, 41.88614
660.0520, 42.34854
660.5340, 40.57520
661.0160, 29.86610
661.4980, 30.69522
661.9800, 26.90167
662.4630, 22.91653
662.9450, 22.82620
663.4270, 18.20448
663.9090, 16.44612
664.3910, 16.25301
664.8730, 15.59813
665.3550, 14.52945
665.8370, 13.83496
666.3190, 13.95065
666.8020, 13.09958
667.2840, 9.581863
667.7660, 4.027451
668.2480, 0.4507140
668.7300, 6.097076
669.2120, 7.560669
669.6940, 6.6315003E-02
670.1760, 8.180389
670.6580, 10.40958
671.1410, 7.937927
671.6230, 4.953461
672.1050, 3.168152
672.5870, 2.584045
673.0690, 4.137131
673.5510, 6.984406
674.0330, 7.160919
674.5150, 3.968582
674.9970, 2.458328
675.4800, 6.908127
675.9620, 14.50899
676.4440, 16.13095
676.9260, 6.582962
677.4080, 8.2901001E-02
677.8900, 2.932999
678.3720, 4.076828
678.8540, 3.486008
679.3360, 2.218246
679.8190, 2.338699
680.3010, 4.891342
680.7830, 6.892471
681.2650, 5.138870
681.7470, 1.468964
682.2290, 0.9998930
682.7110, 1.994720
683.1930, 1.880600
683.6760, 0.7205200
684.1580, 0.8407900
684.6400, 1.457596
685.1220, 0.9004210
685.6040, 0.1446990
686.0860, 1.279755
686.5680, 2.289276
687.0500, 2.047119
687.5320, 1.347916
688.0150, 1.126602
688.4970, 1.468781
688.9790, 2.870224
689.4610, 7.061996
689.9430, 11.25420
690.4250, 12.10722
690.9070, 10.54912
691.3900, 10.06935
691.8720, 11.97438
692.3540, 13.35811
692.8360, 9.136581
693.3180, 0.5878910
693.8000, 4.789291
694.2820, 2.173752
694.7640, 2.646027
695.2460, 10.71359
695.7290, 17.92699
696.2110, 17.69800
696.6930, 9.505188
697.1750, 3.620255
697.6570, 1.125656
698.1390, 1.840179
698.6210, 9.630707
699.1030, 18.87497
699.5850, 20.53964
700.0680, 13.48393
700.5500, 5.568390
701.0320, 3.263718
701.5140, 5.311234
701.9960, 9.566711
702.4780, 15.94420
702.9600, 19.24652
703.4420, 17.36444
703.9240, 14.15785
704.4070, 13.23592
704.8890, 14.58258
705.3710, 17.19092
705.8530, 23.89589
706.3350, 28.01247
706.8170, 25.80803
707.2990, 23.09612
707.7810, 24.65381
708.2630, 29.81708
708.7460, 34.95946
709.2280, 38.46881
709.7100, 41.26404
710.1920, 42.81509
710.6740, 44.64897
711.1560, 49.90401
711.6380, 59.07805
712.1200, 71.87961
712.6030, 88.11270
713.0850, 107.6674
713.5670, 130.6895
714.0490, 158.2308
714.5310, 185.2271
715.0130, 209.5623
715.4950, 235.3352
715.9770, 260.6320
716.4590, 289.8582
716.9420, 332.5919
717.4240, 393.7412
717.9060, 456.1330
718.3880, 510.0442
718.8700, 565.7529
719.3520, 639.7901
719.8340, 721.6401
720.3170, 787.8508
720.7990, 829.1444
721.2810, 852.9309
721.7630, 867.9671
722.2450, 873.5372
722.7270, 865.8433
723.2090, 845.1541
723.6910, 807.5361
724.1730, 750.1212
724.6560, 677.9352
725.1380, 596.1063
725.6200, 502.8075
726.1020, 414.6729
726.5840, 325.7754
727.0660, 249.3450
727.5480, 189.7928
728.0300, 144.1014
728.5130, 112.1576
728.9950, 92.45537
729.4770, 78.63326
729.9590, 70.05754
730.4410, 63.10860
730.9230, 53.02077
731.4050, 41.84082
731.8870, 34.77293
732.3690, 32.54524
732.8520, 31.47984
733.3340, 28.55281
733.8160, 24.82310
734.2980, 24.69040
734.7800, 29.93286
735.2620, 30.89166
735.7440, 23.39932
736.2260, 15.76283
736.7080, 14.11812
737.1910, 16.24478
737.6730, 16.65367
738.1550, 13.75406
738.6370, 11.86241
739.1190, 13.93900
739.6010, 16.10887
740.0830, 14.58890
740.5650, 10.97078
741.0470, 8.773529
741.5300, 9.234283
742.0120, 11.12524
742.4940, 14.54402
742.9760, 18.43150
743.4580, 19.47188
743.9400, 17.75656
744.4220, 14.42050
744.9040, 9.631546
745.3860, 4.834137
745.8690, 1.879654
746.3510, 0.9081880
746.8330, 1.952011
747.3150, 7.724976
747.7970, 11.01917
748.2790, 8.020508
748.7610, 3.855560
749.2440, 1.974976
749.7260, 2.354080
750.2080, 3.871964
750.6900, 7.776031
751.1720, 10.63240
751.6540, 10.19945
752.1360, 8.308090
752.6180, 6.163605
753.1000, 3.993408
753.5830, 2.165497
754.0650, 0.8777770
754.5470, 0.1211700
755.0290, 0.3025970
755.5110, 1.170563
755.9930, 0.6862340
756.4750, 1.503693
756.9570, 3.122253
757.4400, 2.912491
757.9220, 1.502396
758.4040, 3.0182000E-02
758.8860, 1.674942
759.3680, 2.846176
759.8500, 2.798584
760.3320, 3.023071
760.8140, 4.256668
761.2960, 5.744415
761.7790, 6.877563
762.2610, 7.536621
762.7430, 7.389648
763.2250, 5.922165
763.7070, 3.986008
764.1890, 1.390030
764.6710, 0.9348300
765.1530, 1.095139
765.6350, 0.8529360
766.1180, 2.738968
766.6000, 2.918015
767.0820, 2.154114
767.5640, 1.807220
768.0460, 1.909363
768.5280, 3.387695
769.0100, 6.710342
769.4920, 9.564468
769.9740, 10.48495
770.4570, 9.845581
770.9390, 8.526382
771.4210, 5.697388
771.9030, 4.161545
772.3850, 4.560822
772.8670, 5.499222
773.3490, 6.564758
773.8310, 7.848495
774.3130, 10.08646
774.7960, 13.38373
775.2780, 14.67226
775.7600, 11.30894
776.2420, 6.738800
776.7240, 2.727829
777.2060, 0.2761230
777.6880, 1.518387
778.1700, 0.9745480
778.6530, 0.5556340
779.1350, 2.634750
779.6170, 4.963974
780.0990, 7.456345
780.5810, 9.920898
781.0630, 9.185654
781.5450, 4.199615
782.0270, 8.5312001E-02
782.5100, 0.1426090
782.9920, 3.032410
783.4740, 2.932312
783.9560, 3.086487
784.4380, 5.182404
784.9200, 0.6961360
785.4020, 5.739624
785.8840, 6.141312
786.3670, 4.216187
786.8490, 2.858154
787.3310, 2.419052
787.8130, 2.126648
788.2950, 0.9138950
788.7770, 0.6210940
789.2590, 3.595245
789.7410, 7.672516
790.2230, 9.819992
790.7060, 9.579681
791.1880, 8.065567
791.6700, 5.459656
792.1520, 3.127945
792.6340, 3.969376
793.1160, 7.161041
793.5980, 9.194824
794.0800, 9.556015
794.5620, 8.959198
795.0450, 7.665512
795.5270, 6.240753
796.0090, 6.313553
796.4910, 8.818649
796.9730, 8.871017
797.4550, 4.609940
797.9370, 1.154266
798.4190, 1.588547
798.9010, 3.333771
799.3840, 2.506027
799.8660, 1.164230
800.3480, 3.168350
800.8300, 1.109299
801.3120, 0.4928130
801.7940, 1.311707
802.2760, 3.523865
802.7580, 2.938995
803.2400, 0.3371120
803.7230, 4.494537
804.2050, 9.572678
804.6870, 12.96283
805.1690, 10.64554
805.6510, 5.466003
806.1330, 2.260834
806.6150, 1.429886
807.0970, 1.714951
807.5800, 1.896667
808.0620, 3.265656
808.5440, 8.505417
809.0260, 17.26259
809.5080, 22.26031
809.9900, 23.25729
810.4720, 21.43573
810.9540, 15.71382
811.4370, 10.49901
811.9190, 11.73782
812.4010, 19.22017
812.8830, 22.38139
813.3650, 17.75397
813.8470, 14.17076
814.3290, 11.02472
814.8110, 9.849075
815.2940, 13.92506
815.7760, 20.50957
816.2580, 22.46654
816.7400, 16.23125
817.2220, 11.64201
817.7040, 15.62141
818.1860, 20.36259
818.6680, 18.20087
819.1500, 12.28732
819.6330, 9.081070
820.1150, 10.26550
820.5970, 13.64482
821.0790, 19.16446
821.5610, 24.54965
822.0430, 24.48096
822.5250, 20.43747
823.0070, 19.09137
823.4890, 21.75349
823.9720, 23.05373
824.4540, 18.38158
824.9360, 10.94157
825.4180, 10.55721
825.9000, 18.77814
826.3820, 22.63562
826.8640, 19.08183
827.3460, 17.36145
827.8280, 24.32986
828.3110, 33.65327
828.7930, 33.65088
829.2750, 21.52707
829.7570, 14.37564
830.2390, 15.04460
830.7210, 16.80923
831.2030, 19.15265
831.6850, 21.10515
832.1670, 21.65398
832.6500, 21.00537
833.1320, 20.28070
833.6140, 19.89513
834.0960, 19.46144
834.5780, 18.66309
835.0600, 17.76010
835.5420, 17.04462
836.0240, 16.53378
836.5070, 15.62221
836.9890, 14.07985
837.4710, 13.52725
837.9530, 17.49695
838.4350, 22.72035
838.9170, 20.70630
839.3990, 13.43266
839.8810, 11.51981
840.3640, 17.54993
840.8460, 22.16902
841.3280, 16.14734
841.8100, 4.064148
842.2920, 3.753723
842.7740, 17.76810
843.2560, 23.23511
843.7380, 15.16478
844.2210, 6.310547
844.7030, 3.048355
845.1850, 4.122757
845.6670, 7.839661
846.1490, 15.72800
846.6310, 19.61603
847.1130, 15.73022
847.5950, 12.68524
848.0770, 12.31390
848.5600, 13.55119
849.0420, 16.77510
849.5240, 21.09659
850.0060, 22.24437
850.4880, 17.04257
850.9700, 12.11696
851.4520, 9.431320
851.9340, 8.335678
852.4160, 9.535614
852.8990, 11.60307
853.3810, 11.16217
853.8630, 7.169479
854.3450, 4.419083
854.8270, 8.555008
855.3090, 14.55824
855.7910, 15.58951
856.2730, 13.26373
856.7550, 11.66502
857.2380, 11.65988
857.7200, 11.66836
858.2020, 10.23756
858.6840, 9.094452
859.1660, 12.51193
859.6480, 19.36343
860.1300, 21.43138
860.6120, 17.99448
861.0940, 13.59929
861.5770, 9.861633
862.0590, 7.601288
862.5410, 8.810364
863.0230, 13.71484
863.5050, 12.76604
863.9870, 1.728088
864.4690, 3.430054
864.9510, 4.840439
865.4340, 15.05263
865.9160, 17.90216
866.3980, 14.71248
866.8800, 11.49841
867.3620, 7.433182
867.8440, 4.897995
868.3260, 5.149506
868.8080, 5.464737
869.2910, 4.983536
869.7730, 3.779541
870.2550, 1.259750
870.7370, 2.500092
871.2190, 3.978592
871.7010, 0.1057280
872.1830, 4.347336
872.6650, 6.021332
873.1480, 6.258728
873.6300, 5.626877
874.1120, 4.812286
874.5940, 5.693848
875.0760, 9.514557
875.5580, 12.10956
876.0400, 8.061554
876.5220, 1.638031
877.0040, 1.465683
877.4870, 1.534714
877.9690, 0.2269130
878.4510, 3.163315
878.9330, 5.141129
879.4150, 3.648911
879.8970, 0.9101720
880.3790, 2.955551
880.8610, 8.791275
881.3430, 11.90201
881.8260, 11.42056
882.3080, 9.146118
882.7900, 5.833328
883.2720, 2.798813
883.7540, 1.400620
884.2360, 1.395660
884.7180, 4.588638
885.2000, 12.37946
885.6820, 17.45911
886.1650, 16.94640
886.6470, 14.72546
887.1290, 14.57381
887.6110, 15.88461
888.0930, 15.33049
888.5750, 11.27271
889.0570, 8.539520
889.5390, 6.622223
890.0210, 6.742645
890.5040, 11.63983
890.9860, 17.53532
891.4680, 19.10286
891.9500, 15.95421
892.4320, 14.69272
892.9140, 19.05106
893.3960, 21.80896
893.8780, 18.19203
894.3610, 13.84172
894.8430, 14.44241
895.3250, 18.38908
895.8070, 20.09857
896.2890, 17.68153
896.7710, 16.43347
897.2530, 20.66789
897.7350, 24.40953
898.2180, 21.50760
898.7000, 15.96609
899.1820, 13.60536
899.6640, 15.07137
900.1460, 17.63121
900.6280, 19.59618
901.1100, 21.32687
901.5920, 23.97200
902.0750, 26.01379
902.5570, 24.05577
903.0390, 19.51190
903.5210, 17.97797
904.0030, 21.35156
904.4850, 25.94438
904.9670, 28.90497
905.4490, 29.72122
905.9310, 25.39017
906.4140, 17.29878
906.8960, 13.02309
907.3780, 13.74799
907.8600, 15.40033
908.3420, 15.64558
908.8240, 15.33447
909.3060, 16.33151
909.7880, 18.97197
910.2700, 19.46687
910.7530, 17.42747
911.2350, 17.10510
911.7170, 20.00108
912.1990, 23.28691
912.6810, 24.56366
913.1630, 23.86081
913.6450, 21.05882
914.1270, 15.18665
914.6100, 10.55328
915.0920, 7.297470
915.5740, 5.398209
916.0560, 4.602631
916.5380, 5.465088
917.0200, 9.697433
917.5020, 17.64775
917.9840, 21.12692
918.4660, 15.34583
918.9490, 12.48567
919.4310, 18.54538
919.9130, 23.17757
920.3950, 17.24858
920.8770, 6.739853
921.3590, 4.464478
921.8410, 13.54677
922.3230, 19.47305
922.8050, 19.74586
923.2880, 18.05348
923.7700, 14.42616
924.2520, 10.50282
924.7340, 6.972351
925.2160, 4.408249
925.6980, 4.450287
926.1800, 8.527222
926.6620, 12.52626
927.1450, 15.79431
927.6270, 17.37782
928.1090, 15.56902
928.5910, 12.02661
929.0730, 8.704880
929.5550, 6.665176
930.0370, 7.150406
930.5190, 12.13423
931.0020, 17.64929
931.4840, 22.63901
931.9660, 25.20074
932.4480, 21.06142
932.9300, 13.01646
933.4120, 7.862961
933.8940, 7.674713
934.3760, 8.944824
934.8590, 9.626114
935.3410, 9.564102
935.8230, 7.571716
936.3050, 5.013443
936.7870, 5.293961
937.2690, 7.983414
937.7510, 9.317261
938.2330, 7.482300
938.7150, 4.937744
939.1980, 5.466980
939.6800, 6.984833
940.1620, 3.746857
940.6440, 2.804535
941.1260, 6.885498
941.6080, 7.356613
942.0900, 6.521973
942.5720, 5.904556
943.0540, 4.933640
943.5370, 2.082062
944.0190, 2.076736
944.5010, 4.466858
944.9830, 5.068878
945.4650, 4.958847
945.9470, 4.450775
946.4290, 4.390366
946.9110, 5.841751
947.3930, 7.711609
947.8760, 6.225815
948.3580, 1.426926
948.8400, 1.974365
949.3220, 3.496765
949.8040, 5.360077
950.2860, 8.859116
950.7680, 11.33272
951.2500, 9.201111
951.7320, 3.229126
952.2150, 1.672134
952.6970, 5.950226
953.1790, 5.618210
953.6610, 1.376465
954.1430, 7.345306
954.6250, 8.357376
955.1070, 5.589157
955.5890, 8.5906997E-02
956.0720, 8.896805
956.5540, 10.61014
957.0360, 2.214859
957.5180, 4.548355
958.0000, 8.029099
958.4820, 8.592590
958.9640, 5.217484
959.4460, 8.8271998E-02
959.9290, 1.706512
960.4110, 0.7219700
960.8930, 1.922302
961.3750, 1.897095
961.8570, 0.5912780
962.3390, 2.732834
962.8210, 6.525726
963.3030, 10.77344
963.7860, 14.32100
964.2680, 13.09941
964.7500, 4.354050
965.2320, 1.962875
965.7140, 6.884659
966.1960, 7.966629
966.6780, 0.1112210
967.1600, 8.525574
967.6420, 7.945938
968.1250, 0.6144100
968.6070, 2.721085
969.0890, 0.6324010
969.5710, 3.206223
970.0530, 12.09213
970.5350, 18.49025
971.0170, 16.38962
971.4990, 12.65927
971.9810, 15.59596
972.4640, 24.32634
972.9460, 30.15863
973.4280, 32.10521
973.9100, 31.09712
974.3920, 22.33044
974.8740, 16.29172
975.3560, 19.69859
975.8380, 27.80800
976.3200, 35.10799
976.8030, 41.06258
977.2850, 46.33875
977.7670, 50.64856
978.2490, 54.81207
978.7310, 57.30403
979.2130, 61.41475
979.6950, 69.63565
980.1770, 80.72850
980.6590, 93.53427
981.1420, 107.8148
981.6240, 121.0723
982.1060, 132.1094
982.5880, 142.6899
983.0700, 154.0177
983.5520, 164.5909
984.0340, 174.5467
984.5160, 182.5453
984.9990, 185.5541
985.4810, 183.1257
985.9630, 181.7807
986.4450, 182.6055
986.9270, 186.3167
987.4090, 196.3027
987.8910, 206.5246
988.3730, 210.9379
988.8560, 211.9437
989.3380, 214.6099
989.8200, 219.9548
990.3020, 228.0023
990.7840, 239.7667
991.2660, 252.9547
991.7480, 268.8341
992.2300, 283.6234
992.7130, 290.8760
993.1950, 294.9488
993.6770, 304.9404
994.1590, 322.8839
994.6410, 349.3184
995.1230, 383.2332
995.6050, 427.5497
996.0870, 484.3896
996.5690, 551.7706
997.0520, 623.5999
997.5340, 705.3273
998.0160, 812.0231
998.4980, 948.6630
998.9800, 1094.890
999.4620, 1233.746
999.9440, 1389.357
1000.426, 1574.586
1000.908, 1783.600
1001.391, 2009.658
1001.873, 2253.514
1002.355, 2524.422
1002.837, 2827.384
1003.319, 3132.200
1003.801, 3434.396
1004.283, 3720.881
1004.765, 3985.370
1005.247, 4230.134
1005.730, 4472.643
1006.212, 4697.816
1006.694, 4862.474
1007.176, 4948.345
1007.658, 5018.233
1008.140, 5108.823
1008.622, 5181.437
1009.104, 5198.005
1009.587, 5197.335
1010.069, 5221.564
1010.551, 5265.062
1011.033, 5298.682
1011.515, 5312.615
1011.997, 5326.578
1012.479, 5354.782
1012.961, 5379.341
1013.443, 5403.052
1013.926, 5407.701
1014.408, 5387.623
1014.890, 5331.069
1015.372, 5213.938
1015.854, 5031.004
1016.336, 4786.492
1016.818, 4475.604
1017.300, 4110.983
1017.783, 3655.789
1018.265, 3182.717
1018.747, 2753.061
1019.229, 2367.687
1019.711, 2010.494
1020.193, 1672.553
1020.675, 1383.679
1021.157, 1163.456
1021.639, 982.1507
1022.122, 837.5128
1022.604, 718.0292
1023.086, 616.8431
1023.568, 531.7332
1024.050, 462.3456
1024.532, 410.3527
1025.014, 367.6398
1025.496, 335.9571
1025.979, 308.5298
1026.461, 282.1057
1026.943, 259.6830
1027.425, 246.9360
1027.907, 239.5244
1028.389, 226.8752
1028.871, 206.6056
1029.353, 186.6143
1029.835, 167.1976
1030.318, 150.0024
1030.800, 134.6022
1031.282, 122.3969
1031.764, 116.7157
1032.246, 114.3326
1032.728, 107.0851
1033.210, 92.34515
1033.692, 85.25580
1034.174, 92.57098
1034.657, 100.6538
1035.139, 106.1252
1035.621, 111.7171
1036.103, 116.1817
1036.585, 123.0821
1037.067, 138.7877
1037.549, 163.6249
1038.031, 195.8408
1038.514, 230.9072
1038.996, 279.7703
1039.478, 329.7080
1039.960, 409.5314
1040.442, 534.2717
1040.924, 699.4030
1041.406, 895.6164
1041.888, 1121.762
1042.370, 1399.346
1042.853, 1734.667
1043.335, 2112.437
1043.817, 2530.564
1044.299, 2988.287
1044.781, 3485.278
1045.263, 4021.861
1045.745, 4602.892
1046.227, 5225.098
1046.709, 5882.255
1047.192, 6666.518
1047.674, 7231.877
1048.156, 7608.878
1048.638, 7599.830
1049.120, 7065.123
1049.602, 6189.290
1050.084, 5128.834
1050.566, 3935.708
1051.049, 2936.135
1051.531, 2134.988
1052.013, 1510.294
1052.495, 1070.631
1052.977, 756.7948
1053.459, 556.5062
1053.941, 430.8181
1054.423, 347.1741
1054.906, 297.9043
1055.388, 258.3318
1055.870, 228.7988
1056.352, 201.4837
1056.834, 175.8962
1057.316, 158.6540
1057.798, 152.2936
1058.280, 147.3837
1058.762, 135.2281
1059.245, 121.9368
1059.727, 121.6860
1060.209, 132.8273
1060.691, 141.9377
1061.173, 149.9733
1061.655, 169.3849
1062.137, 202.9956
1062.619, 245.2875
1063.101, 293.1213
1063.584, 344.4253
1064.066, 397.0346
1064.548, 450.9301
1065.030, 503.1761
1065.512, 557.6913
1065.994, 639.1703
1066.476, 742.0538
1066.958, 821.8994
1067.441, 856.5183
1067.923, 832.0974
1068.405, 706.5283
1068.887, 532.7253
1069.369, 372.5353
1069.851, 234.7224
1070.333, 138.7711
1070.815, 80.65457
1071.297, 45.18338
1071.780, 25.92014
1072.262, 13.46091
1072.744, 1.036621
1073.226, 8.190338
1073.708, 11.01660
1074.190, 9.149200
1074.672, 2.397339
1075.154, 6.549072
1075.636, 12.97339
1076.119, 15.91592
1076.601, 18.17896
1077.083, 21.30643
1077.565, 23.70200
1078.047, 22.38644
1078.529, 22.22275
1079.011, 29.44489
1079.494, 38.70584
1079.976, 41.11264
1080.458, 37.28720
1080.940, 36.98703
1081.422, 44.69623
1081.904, 51.41000
1082.386, 56.59061
1082.868, 58.26196
1083.350, 53.71808
1083.833, 46.72885
1084.315, 39.51990
1084.797, 33.00372
1085.279, 29.90622
1085.761, 32.21835
1086.243, 32.36914
1086.725, 29.39859
1087.207, 25.54163
1087.689, 18.41626
1088.172, 14.50348
1088.654, 20.33426
1089.136, 30.31857
1089.618, 33.86444
1090.100, 30.75281
1090.582, 24.30966
1091.064, 11.80997
1091.546, 6.658752
1092.029, 12.53198
1092.511, 19.50763
1092.993, 23.28073
1093.475, 23.91919
1093.957, 20.90997
1094.439, 15.35718
1094.921, 13.09772
1095.403, 14.05554
1095.885, 11.76468
1096.368, 5.795166
1096.850, 2.209869
1097.332, 3.065857
1097.814, 4.990082
1098.296, 5.312683
1098.778, 4.134003
1099.260, 0.8827510
1099.742, 3.513306
1100.224, 6.605316
1100.707, 8.149048
1101.189, 6.835419
1101.671, 3.125763
1102.153, 0.9610290
1102.635, 2.608154
1103.117, 5.065857
1103.599, 4.174500
1104.081, 3.314636
1104.564, 8.833618
1105.046, 16.14217
1105.528, 18.23087
1106.010, 15.14972
1106.492, 8.559143
1106.974, 0.7800900
1107.456, 7.239777
1107.938, 6.809662
1108.421, 3.639557
1108.903, 2.161652
1109.385, 7.581696
1109.867, 10.78006
1110.349, 11.52431
1110.831, 8.787872
1111.313, 3.092407
1111.795, 0.9756770
1112.277, 2.029114
1112.760, 2.178314
1113.242, 0.8171690
1113.724, 0.1877750
1114.206, 1.026001
1114.688, 0.3468630
1115.170, 2.970886
1115.652, 8.746277
1116.134, 17.31937
1116.616, 30.92017
1117.099, 35.66956
1117.581, 26.59262
1118.063, 22.70932
1118.545, 29.04761
1119.027, 37.34152
1119.509, 43.46402
1119.991, 47.08511
1120.473, 46.88977
1120.956, 44.08600
1121.438, 48.14502
1121.920, 58.86459
1122.402, 62.80777
1122.884, 58.96449
1123.366, 56.10503
1123.848, 57.41614
1124.330, 61.83266
1124.813, 68.94563
1125.295, 76.73804
1125.777, 82.54703
1126.259, 85.98105
1126.741, 85.33534
1127.223, 81.74907
1127.705, 77.91315
1128.187, 74.51569
1128.669, 71.23990
1129.151, 67.82660
1129.634, 66.33255
1130.116, 72.97267
1130.598, 77.26099
1131.080, 65.82248
1131.562, 50.22333
1132.044, 42.27502
1132.526, 41.72559
1133.008, 46.46185
1133.491, 55.46814
1133.973, 60.72545
1134.455, 57.51077
1134.937, 53.53308
1135.419, 49.33444
1135.901, 46.40970
1136.383, 46.03995
1136.865, 46.90007
1137.348, 47.42311
1137.830, 47.95000
1138.312, 49.98973
1138.794, 54.06131
1139.276, 57.70164
1139.758, 60.98073
1140.240, 63.38753
1140.722, 64.19698
1141.204, 66.29819
1141.687, 72.01613
1142.169, 78.31561
1142.651, 80.51865
1143.133, 79.34216
1143.615, 78.16614
1144.097, 77.10355
1144.579, 76.77541
1145.061, 77.51959
1145.543, 82.45515
1146.026, 92.38803
1146.508, 103.2202
1146.990, 112.1726
1147.472, 118.8313
1147.954, 122.9192
1148.436, 124.1732
1148.918, 119.6174
1149.400, 113.1416
1149.883, 113.5551
1150.365, 119.3828
1150.847, 121.1075
1151.329, 115.2790
1151.811, 109.7331
1152.293, 109.2668
1152.775, 109.4951
1153.257, 108.8550
1153.740, 107.3195
1154.222, 103.4644
1154.704, 99.54993
1155.186, 98.49997
1155.668, 100.5352
1156.150, 105.1618
1156.632, 116.0795
1157.114, 121.4009
1157.596, 116.2082
1158.078, 114.8486
1158.561, 123.4774
1159.043, 132.2323
1159.525, 133.1982
1160.007, 130.7938
1160.489, 132.9309
1160.971, 139.4370
1161.453, 147.7437
1161.935, 157.5446
1162.418, 165.7021
1162.900, 171.5592
1163.382, 171.5309
1163.864, 164.7080
1164.346, 157.6040
1164.828, 154.7250
1165.310, 155.4960
1165.792, 162.7301
1166.275, 171.8929
1166.757, 173.2804
1167.239, 170.7067
1167.721, 173.3992
1168.203, 180.8661
1168.685, 186.2602
1169.167, 187.3233
1169.649, 187.0488
1170.131, 184.4685
1170.614, 183.9250
1171.096, 190.6172
1171.578, 196.6092
1172.060, 195.7413
1172.542, 191.1480
1173.024, 186.2504
1173.506, 181.6097
1173.988, 180.4289
1174.470, 186.0492
1174.953, 185.7412
1175.435, 177.2522
1175.917, 168.8581
1176.399, 163.0089
1176.881, 155.4818
1177.363, 143.2755
1177.845, 129.1042
1178.327, 116.5942
1178.810, 105.9883
1179.292, 98.47351
1179.774, 93.96065
1180.256, 93.17731
1180.738, 95.23215
1181.220, 95.46295
1181.702, 92.66318
1182.184, 87.92749
1182.667, 81.40793
1183.149, 76.42624
1183.631, 77.87070
1184.113, 80.87247
1184.595, 80.28473
1185.077, 78.34750
1185.559, 77.41547
1186.041, 77.64883
1186.523, 78.07211
1187.005, 78.63548
1187.488, 82.41698
1187.970, 92.87436
1188.452, 102.3897
1188.934, 109.4408
1189.416, 116.1766
1189.898, 124.1994
1190.380, 130.4500
1190.862, 131.8671
1191.345, 131.6861
1191.827, 137.6810
1192.309, 149.7995
1192.791, 160.6768
1193.273, 170.4260
1193.755, 172.9895
1194.237, 167.9707
1194.719, 165.2737
1195.202, 168.5452
1195.684, 170.8237
1196.166, 165.7629
1196.648, 158.8445
1197.130, 159.4468
1197.612, 161.6312
1198.094, 156.6019
1198.576, 146.7769
1199.058, 135.1386
1199.541, 123.3233
1200.023, 113.7776
1200.505, 107.1191
1200.987, 102.8980
1201.469, 107.0195
1201.951, 104.4633
1202.433, 83.22195
1202.915, 63.78439
1203.397, 59.79411
1203.880, 59.00021
1204.362, 49.16382
1204.844, 34.90370
1205.326, 29.91873
1205.808, 35.14690
1206.290, 33.68576
1206.772, 24.88618
1207.254, 17.05017
1207.737, 11.31401
1208.219, 8.020004
1208.701, 7.323273
1209.183, 8.658936
1209.665, 11.76367
1210.147, 14.11446
1210.629, 10.45830
1211.111, 4.746048
1211.594, 3.734406
1212.076, 5.062424
1212.558, 3.958801
1213.040, 0.8805690
1213.522, 0.5627750
1214.004, 0.5684360
1214.486, 0.8603820
1214.968, 1.707886
1215.450, 4.086212
1215.932, 7.085175
1216.415, 7.649353
1216.897, 1.556702
1217.379, 4.352249
1217.861, 3.397583
1218.343, 1.210434
1218.825, 1.659988
1219.307, 2.033798
1219.789, 5.841827
1220.272, 9.831787
1220.754, 8.802689
1221.236, 2.470535
1221.718, 2.914719
1222.200, 5.057053
1222.682, 2.869919
1223.164, 5.460663
1223.646, 13.53740
1224.129, 11.44722
1224.611, 6.921753
1225.093, 11.41249
1225.575, 18.09627
1226.057, 15.55730
1226.539, 7.615295
1227.021, 5.471573
1227.503, 10.80290
1227.985, 15.41599
1228.468, 17.06633
1228.950, 18.56364
1229.432, 20.53320
1229.914, 21.66795
1230.396, 20.84518
1230.878, 20.76302
1231.360, 23.81459
1231.842, 27.43829
1232.324, 27.33243
1232.807, 24.23181
1233.289, 21.03925
1233.771, 18.03537
1234.253, 18.10562
1234.735, 20.24135
1235.217, 17.90804
1235.699, 10.74825
1236.181, 6.814545
1236.664, 10.57948
1237.146, 14.25293
1237.628, 9.777252
1238.110, 5.815567
1238.592, 10.28943
1239.074, 15.75713
1239.556, 16.26387
1240.038, 13.26219
1240.521, 8.425629
1241.003, 1.946426
1241.485, 0.5372160
1241.967, 6.561005
1242.449, 8.655106
1242.931, 3.887680
1243.413, 1.982437
1243.895, 3.943176
1244.377, 5.100159
1244.859, 7.130112
1245.342, 8.582672
1245.824, 7.373154
1246.306, 4.634399
1246.788, 0.2874150
1247.270, 3.615005
1247.752, 4.568451
1248.234, 16.94119
1248.716, 19.63821
1249.199, 14.65643
1249.681, 10.97957
1250.163, 10.82607
1250.645, 13.36107
1251.127, 22.17348
1251.609, 26.61560
1252.091, 21.97989
1252.573, 17.01717
1253.056, 13.79425
1253.538, 13.43573
1254.020, 17.48373
1254.502, 23.48767
1254.984, 19.97766
1255.466, 10.50641
1255.948, 5.927353
1256.430, 5.507858
1256.912, 7.778732
1257.395, 16.67169
1257.877, 23.88132
1258.359, 27.29480
1258.841, 25.65424
1259.323, 18.07487
1259.805, 10.71814
1260.287, 6.181671
1260.769, 5.256287
1261.251, 11.86328
1261.734, 17.83157
1262.216, 17.25584
1262.698, 13.65807
1263.180, 11.62190
1263.662, 10.15700
1264.144, 6.485153
1264.626, 0.3376160
1265.108, 8.9934997E-02
1265.591, 3.936371
1266.073, 0.0000000E+00
##END=



