##NAMES=Hureaulite
##RRUFFID=R070452
##IDEAL CHEMISTRY=Mn^2+^_5_(PO_4_)_2_(PO_3_OH)_2_&#183;4H_2_O
##LOCALITY=Tip Top mine, Fourmile, Custer District, Custer County, South Dakota, USA
##OWNER=RRUFF
##SOURCE=Michael Scott
##DESCRIPTION=Massive coarse pink granular
##STATUS=The identification of this mineral has been confirmed by X-ray diffraction and chemical analysis
##URL=rruff.info/R070452
##MEASURED CHEMISTRY=(Mn^2+^_3.83_Fe^2+^_0.62_Mg_0.33_Ca_0.22_)_Σ=5_(P_1.00_O_4_)_2_(P_1.00_O_3_OH)_2_·11H_2_O; H_2_O estimated by difference; OH by charge balance
132.0062, 0.0000000E+00
132.4883, 3.174438
132.9705, 3.065063
133.4526, 9.928345
133.9347, 32.07922
134.4168, 52.35974
134.8989, 55.79187
135.3810, 49.30945
135.8632, 23.60986
136.3453, 6.345947
136.8274, 6.121826
137.3095, 3.910278
137.7916, 4.463257
138.2737, 12.53833
138.7559, 13.73083
139.2380, 6.573853
139.7201, 4.065308
140.2022, 9.733521
140.6843, 5.477661
141.1664, 4.121826
141.6486, 2.375610
142.1307, 4.957153
142.6128, 16.99023
143.0949, 40.16162
143.5770, 72.29932
144.0591, 110.6917
144.5413, 157.3607
145.0234, 205.5377
145.5055, 257.5132
145.9876, 309.6414
146.4697, 356.3446
146.9518, 395.6224
147.4340, 430.2920
147.9161, 466.3446
148.3982, 506.1312
148.8803, 541.4894
149.3624, 572.4750
149.8445, 597.7334
150.3267, 613.2019
150.8088, 615.7473
151.2909, 611.6646
151.7730, 613.8696
152.2551, 625.0977
152.7372, 632.5923
153.2194, 630.8259
153.7015, 621.5286
154.1836, 607.5161
154.6657, 586.4612
155.1478, 565.9618
155.6299, 558.7751
156.1121, 566.7533
156.5942, 577.9817
157.0763, 588.6492
157.5584, 598.1576
158.0405, 602.6890
158.5226, 595.1453
159.0048, 588.8796
159.4869, 603.1990
159.9690, 641.8657
160.4511, 682.2019
160.9332, 704.6445
161.4153, 706.9302
161.8975, 705.8254
162.3796, 725.1611
162.8617, 753.0833
163.3438, 779.9263
163.8259, 807.1858
164.3080, 822.2947
164.7902, 808.4705
165.2723, 768.7336
165.7544, 739.3911
166.2365, 737.1182
166.7186, 742.6187
167.2007, 737.6924
167.6829, 720.7852
168.1650, 703.2444
168.6471, 700.5891
169.1292, 712.7317
169.6113, 705.9934
170.0934, 656.9485
170.5756, 599.4917
171.0577, 558.5413
171.5398, 536.5679
172.0219, 521.0295
172.5040, 501.4268
172.9861, 477.5620
173.4683, 453.1067
173.9504, 425.8862
174.4325, 400.1465
174.9146, 377.0022
175.3967, 356.6545
175.8788, 342.6433
176.3610, 344.8591
176.8431, 366.5532
177.3252, 369.8811
177.8073, 328.3511
178.2894, 280.9417
178.7715, 246.8621
179.2537, 228.4907
179.7358, 220.4124
180.2179, 222.3853
180.7000, 237.5889
181.1821, 238.7854
181.6642, 206.8225
182.1464, 171.1218
182.6285, 143.9993
183.1106, 127.2456
183.5927, 118.0374
184.0748, 113.9927
184.5569, 115.1641
185.0391, 120.8113
185.5212, 131.9795
186.0033, 147.1655
186.4854, 170.1560
186.9675, 199.0007
187.4496, 223.9924
187.9318, 232.7029
188.4139, 221.1990
188.8960, 217.3411
189.3781, 228.4160
189.8602, 239.0645
190.3423, 248.0588
190.8245, 255.1409
191.3066, 262.4983
191.7887, 272.0435
192.2708, 283.8877
192.7529, 296.8245
193.2350, 319.5742
193.7172, 335.8633
194.1993, 333.5889
194.6814, 317.2520
195.1635, 302.5825
195.6456, 306.4629
196.1277, 331.8704
196.6099, 344.0913
197.0920, 326.9551
197.5741, 310.7659
198.0562, 307.9307
198.5383, 315.2800
199.0204, 320.6445
199.5026, 309.8640
199.9847, 281.5186
200.4668, 278.6387
200.9489, 327.9001
201.4310, 380.1584
201.9131, 426.3840
202.3953, 464.8958
202.8774, 493.8308
203.3595, 508.3872
203.8416, 509.6726
204.3237, 530.0317
204.8058, 588.6855
205.2880, 648.5867
205.7701, 698.7000
206.2522, 743.2361
206.7343, 792.4885
207.2164, 854.8369
207.6985, 927.6143
208.1807, 986.7515
208.6628, 1014.080
209.1449, 1047.420
209.6270, 1098.123
210.1091, 1159.444
210.5912, 1220.174
211.0734, 1273.258
211.5555, 1321.195
212.0376, 1376.935
212.5197, 1436.783
213.0018, 1511.180
213.4839, 1601.016
213.9661, 1705.585
214.4482, 1832.753
214.9303, 1989.420
215.4124, 2154.020
215.8945, 2248.545
216.3766, 2210.955
216.8587, 2192.802
217.3409, 2226.369
217.8230, 2283.889
218.3051, 2339.683
218.7872, 2383.234
219.2693, 2414.953
219.7514, 2435.230
220.2336, 2441.189
220.7157, 2439.650
221.1978, 2432.645
221.6799, 2419.339
222.1620, 2400.690
222.6441, 2376.569
223.1263, 2343.285
223.6084, 2291.980
224.0905, 2209.546
224.5726, 2138.187
225.0547, 2086.557
225.5368, 2040.910
226.0190, 1989.750
226.5011, 1932.103
226.9832, 1877.582
227.4653, 1840.557
227.9474, 1826.252
228.4296, 1813.931
228.9117, 1807.146
229.3938, 1798.756
229.8759, 1782.846
230.3580, 1760.170
230.8401, 1737.351
231.3223, 1722.775
231.8044, 1719.108
232.2865, 1709.225
232.7686, 1685.825
233.2507, 1662.555
233.7328, 1645.287
234.2150, 1633.078
234.6971, 1620.627
235.1792, 1602.901
235.6613, 1579.740
236.1434, 1558.874
236.6255, 1546.934
237.1077, 1529.924
237.5898, 1503.413
238.0719, 1468.504
238.5540, 1426.410
239.0361, 1374.836
239.5182, 1317.295
240.0004, 1278.252
240.4825, 1278.867
240.9646, 1269.247
241.4467, 1229.746
241.9288, 1173.171
242.4109, 1117.018
242.8931, 1069.306
243.3752, 1029.227
243.8573, 995.2698
244.3394, 970.3003
244.8215, 946.2031
245.3036, 918.9456
245.7858, 892.1125
246.2679, 868.8813
246.7500, 850.0435
247.2321, 836.6152
247.7142, 833.0593
248.1963, 844.8555
248.6785, 848.7439
249.1606, 827.9341
249.6427, 804.2778
250.1248, 794.7371
250.6069, 803.2747
251.0890, 817.5645
251.5712, 822.2644
252.0533, 815.5984
252.5354, 815.0500
253.0175, 834.3313
253.4996, 852.0029
253.9817, 848.6050
254.4639, 825.3503
254.9460, 808.0085
255.4281, 821.4810
255.9102, 863.7212
256.3923, 903.8784
256.8745, 943.7485
257.3566, 974.8308
257.8387, 990.5715
258.3208, 993.6987
258.8029, 993.9199
259.2850, 993.0759
259.7672, 993.4084
260.2493, 1005.028
260.7314, 1035.400
261.2135, 1061.620
261.6956, 1064.382
262.1777, 1053.389
262.6599, 1048.733
263.1420, 1061.136
263.6241, 1081.999
264.1062, 1101.609
264.5883, 1122.310
265.0704, 1129.654
265.5526, 1106.263
266.0347, 1067.340
266.5168, 1034.421
266.9989, 1013.080
267.4810, 994.7500
267.9631, 975.1377
268.4453, 954.1641
268.9274, 923.4946
269.4095, 874.2141
269.8916, 816.4077
270.3737, 768.3147
270.8558, 734.3882
271.3380, 696.8269
271.8201, 638.8342
272.3022, 567.3616
272.7843, 506.8301
273.2664, 466.1377
273.7485, 433.4832
274.2307, 389.9399
274.7128, 333.8079
275.1949, 284.4553
275.6770, 254.0530
276.1591, 232.9668
276.6412, 206.4216
277.1234, 171.4102
277.6055, 135.1416
278.0876, 102.2979
278.5697, 73.25708
279.0518, 55.46582
279.5339, 61.07544
280.0161, 68.98999
280.4982, 58.71436
280.9803, 31.64917
281.4624, 7.312500
281.9445, 6.1889999E-02
282.4266, 6.679199
282.9088, 4.389893
283.3909, 14.38818
283.8730, 30.93787
284.3551, 36.92151
284.8372, 35.54175
285.3193, 33.87329
285.8015, 35.37976
286.2836, 37.93103
286.7657, 35.07495
287.2478, 23.63379
287.7299, 12.47668
288.2120, 1.496216
288.6942, 13.62354
289.1763, 15.22058
289.6584, 3.868896
290.1405, 10.57666
290.6226, 12.78174
291.1047, 0.1301270
291.5869, 22.36353
292.0690, 66.16101
292.5511, 108.2924
293.0332, 131.4182
293.5153, 136.4583
293.9974, 136.6649
294.4796, 143.9526
294.9617, 158.2112
295.4438, 175.7755
295.9259, 202.1753
296.4080, 227.4280
296.8901, 247.9615
297.3723, 263.7690
297.8544, 276.6479
298.3365, 287.8387
298.8186, 297.1912
299.3007, 303.3005
299.7828, 303.7987
300.2650, 303.7908
300.7471, 299.7634
301.2292, 297.3246
301.7113, 303.6805
302.1934, 322.3909
302.6755, 348.4677
303.1577, 374.6892
303.6398, 406.0403
304.1219, 420.5321
304.6040, 400.3564
305.0861, 373.5647
305.5682, 356.0620
306.0504, 349.9773
306.5325, 348.5491
307.0146, 350.1184
307.4967, 354.3048
307.9788, 343.3152
308.4609, 303.9222
308.9431, 264.5916
309.4252, 244.0352
309.9073, 236.8066
310.3894, 227.4569
310.8715, 204.5806
311.3536, 175.2434
311.8358, 155.8964
312.3179, 148.4513
312.8000, 143.6388
313.2821, 138.8925
313.7642, 132.9094
314.2463, 123.0283
314.7285, 106.2581
315.2106, 89.39331
315.6927, 79.75391
316.1748, 76.39478
316.6569, 71.29663
317.1390, 61.50720
317.6212, 48.64844
318.1033, 32.58093
318.5854, 9.776855
319.0675, 0.5357670
319.5496, 22.07227
320.0317, 58.53503
320.5139, 75.36426
320.9960, 64.70996
321.4781, 44.32605
321.9602, 32.72693
322.4423, 31.09595
322.9244, 26.33301
323.4066, 12.65576
323.8887, 0.1998290
324.3708, 3.669312
324.8529, 0.8603520
325.3350, 5.280884
325.8171, 4.048950
326.2993, 2.045166
326.7814, 6.772827
327.2635, 7.987793
327.7456, 10.58203
328.2277, 16.83398
328.7098, 24.77356
329.1920, 31.93701
329.6741, 37.34863
330.1562, 41.04651
330.6383, 43.28186
331.1204, 45.77258
331.6025, 43.19092
332.0847, 29.92676
332.5668, 16.50781
333.0489, 9.601074
333.5310, 9.807129
334.0131, 13.91943
334.4952, 19.38342
334.9774, 26.28113
335.4595, 32.30359
335.9416, 39.74609
336.4237, 43.52686
336.9058, 39.70972
337.3879, 31.64539
337.8701, 25.59460
338.3522, 25.80444
338.8343, 27.71313
339.3164, 17.72266
339.7985, 11.81799
340.2806, 30.55762
340.7627, 19.05750
341.2448, 1.326294
341.7270, 14.19641
342.2091, 16.19690
342.6912, 14.33948
343.1733, 15.34827
343.6554, 18.61218
344.1375, 18.07812
344.6197, 10.48523
345.1018, 1.853882
345.5839, 2.166870
346.0660, 2.342163
346.5481, 2.093140
347.0302, 3.657104
347.5124, 4.996216
347.9945, 2.036499
348.4766, 5.268188
348.9587, 10.30664
349.4408, 7.641968
349.9229, 0.2939450
350.4051, 0.1684570
350.8872, 14.25049
351.3693, 25.15234
351.8514, 21.16174
352.3335, 8.478394
352.8156, 0.1181640
353.2978, 8.5083000E-02
353.7799, 3.844604
354.2620, 2.414917
354.7441, 8.759888
355.2262, 14.73987
355.7083, 11.64783
356.1905, 6.155029
356.6726, 1.866821
357.1547, 0.3232420
357.6368, 0.7735600
358.1189, 7.273071
358.6010, 18.88123
359.0832, 21.15784
359.5653, 3.773560
360.0474, 18.35803
360.5295, 9.179688
361.0116, 13.03613
361.4937, 35.28052
361.9759, 52.13281
362.4580, 63.57214
362.9401, 67.69873
363.4222, 59.63171
363.9043, 58.79016
364.3864, 75.59448
364.8686, 93.99036
365.3507, 103.8872
365.8328, 105.5386
366.3149, 107.3002
366.7970, 116.2969
367.2791, 131.0869
367.7613, 144.3292
368.2434, 154.9858
368.7255, 166.1971
369.2076, 180.8809
369.6897, 197.1337
370.1718, 211.5791
370.6540, 220.8265
371.1361, 231.6121
371.6182, 257.4248
372.1003, 294.3278
372.5824, 310.9132
373.0645, 286.2462
373.5467, 249.9501
374.0288, 254.8997
374.5109, 306.8201
374.9930, 354.1965
375.4751, 385.0692
375.9572, 404.4053
376.4394, 414.8787
376.9215, 417.3979
377.4036, 419.6155
377.8857, 427.2173
378.3678, 440.2246
378.8499, 450.8339
379.3321, 459.1931
379.8142, 465.4442
380.2963, 468.4371
380.7784, 469.6101
381.2605, 471.6382
381.7426, 475.1471
382.2248, 478.1411
382.7069, 475.8463
383.1890, 463.9623
383.6711, 455.4348
384.1532, 458.2524
384.6353, 457.3711
385.1175, 437.0951
385.5996, 402.4458
386.0817, 375.7017
386.5638, 379.4159
387.0459, 407.5264
387.5280, 418.8447
388.0102, 404.1316
388.4923, 390.2104
388.9744, 387.0670
389.4565, 391.1750
389.9386, 399.7633
390.4207, 413.0126
390.9029, 426.4324
391.3850, 433.1594
391.8671, 434.3571
392.3492, 441.1838
392.8313, 457.4672
393.3134, 478.1013
393.7956, 496.5576
394.2777, 513.3101
394.7598, 534.1770
395.2419, 562.4465
395.7240, 594.4474
396.2061, 626.3064
396.6883, 657.8777
397.1704, 692.7437
397.6525, 734.3864
398.1346, 780.1213
398.6167, 822.6499
399.0988, 850.4312
399.5810, 888.6184
400.0631, 949.3059
400.5452, 1019.865
401.0273, 1085.038
401.5094, 1141.641
401.9915, 1198.678
402.4737, 1268.515
402.9558, 1352.649
403.4379, 1439.477
403.9200, 1529.123
404.4021, 1620.250
404.8842, 1714.077
405.3664, 1809.493
405.8485, 1904.280
406.3306, 1996.030
406.8127, 2089.051
407.2948, 2192.399
407.7769, 2308.910
408.2591, 2426.370
408.7412, 2539.832
409.2233, 2653.354
409.7054, 2774.571
410.1875, 2904.383
410.6696, 3024.880
411.1518, 3123.739
411.6339, 3206.403
412.1160, 3287.332
412.5981, 3368.994
413.0802, 3437.740
413.5623, 3487.596
414.0445, 3513.992
414.5266, 3510.429
415.0087, 3473.199
415.4908, 3411.204
415.9729, 3322.653
416.4550, 3213.142
416.9372, 3090.216
417.4193, 2954.891
417.9014, 2810.031
418.3835, 2658.170
418.8656, 2493.490
419.3477, 2345.201
419.8299, 2219.509
420.3120, 2101.346
420.7941, 1982.723
421.2762, 1865.641
421.7583, 1753.403
422.2404, 1646.403
422.7226, 1550.483
423.2047, 1483.690
423.6868, 1460.850
424.1689, 1431.355
424.6510, 1368.183
425.1331, 1307.897
425.6153, 1279.853
426.0974, 1284.751
426.5795, 1295.359
427.0616, 1291.437
427.5437, 1277.998
428.0258, 1267.458
428.5080, 1257.821
428.9901, 1261.605
429.4722, 1293.201
429.9543, 1343.124
430.4364, 1387.058
430.9185, 1422.297
431.4007, 1453.597
431.8828, 1476.438
432.3649, 1498.341
432.8470, 1534.599
433.3291, 1589.322
433.8112, 1654.193
434.2934, 1719.675
434.7755, 1785.596
435.2576, 1851.755
435.7397, 1913.828
436.2218, 1980.363
436.7039, 2052.264
437.1861, 2132.143
437.6682, 2226.079
438.1503, 2336.819
438.6324, 2457.171
439.1145, 2570.750
439.5966, 2673.439
440.0788, 2783.248
440.5609, 2911.472
441.0430, 3039.716
441.5251, 3153.411
442.0072, 3256.008
442.4893, 3366.203
442.9715, 3497.047
443.4536, 3642.988
443.9357, 3797.463
444.4178, 3962.765
444.8999, 4121.676
445.3820, 4267.029
445.8642, 4400.308
446.3463, 4523.993
446.8284, 4634.856
447.3105, 4748.449
447.7926, 4871.270
448.2747, 4999.296
448.7569, 5130.193
449.2390, 5262.269
449.7211, 5390.247
450.2032, 5511.773
450.6853, 5625.876
451.1674, 5713.668
451.6496, 5778.802
452.1317, 5815.292
452.6138, 5811.375
453.0959, 5783.416
453.5780, 5750.303
454.0602, 5717.250
454.5423, 5675.406
455.0244, 5613.659
455.5065, 5531.558
455.9886, 5435.415
456.4707, 5329.061
456.9529, 5202.052
457.4350, 5042.966
457.9171, 4863.458
458.3992, 4682.681
458.8813, 4505.806
459.3634, 4331.966
459.8456, 4158.519
460.3277, 3986.001
460.8098, 3817.202
461.2919, 3653.221
461.7740, 3494.041
462.2561, 3341.355
462.7383, 3194.789
463.2204, 3053.158
463.7025, 2913.710
464.1846, 2782.207
464.6667, 2666.840
465.1488, 2562.299
465.6310, 2455.436
466.1131, 2339.241
466.5952, 2220.744
467.0773, 2116.804
467.5594, 2037.461
468.0415, 1952.741
468.5237, 1854.597
469.0058, 1758.339
469.4879, 1673.019
469.9700, 1597.046
470.4521, 1523.187
470.9342, 1446.987
471.4164, 1369.700
471.8985, 1294.215
472.3806, 1220.514
472.8627, 1150.256
473.3448, 1086.651
473.8269, 1025.411
474.3091, 959.0371
474.7912, 886.3706
475.2733, 823.3849
475.7554, 785.6233
476.2375, 755.3951
476.7196, 709.6313
477.2018, 649.0117
477.6839, 592.0088
478.1660, 550.0259
478.6481, 520.0225
479.1302, 490.1036
479.6123, 458.0397
480.0945, 428.9390
480.5766, 406.3246
481.0587, 384.2723
481.5408, 356.9374
482.0229, 324.5425
482.5050, 291.8488
482.9872, 261.2306
483.4693, 233.8066
483.9514, 218.4355
484.4335, 224.3422
484.9156, 220.6458
485.3977, 180.2302
485.8799, 133.7023
486.3620, 112.6760
486.8441, 122.9072
487.3262, 133.6788
487.8083, 123.6111
488.2904, 103.0096
488.7726, 91.41064
489.2547, 90.72681
489.7368, 90.41736
490.2189, 84.28613
490.7010, 72.57397
491.1831, 55.60083
491.6653, 23.84753
492.1474, 6.2134001E-02
492.6295, 6.216431
493.1116, 6.489136
493.5937, 12.40637
494.0758, 25.01721
494.5580, 37.40564
495.0401, 43.64575
495.5222, 43.88562
496.0043, 37.92371
496.4864, 17.78845
496.9685, 6.145630
497.4507, 17.13562
497.9328, 35.21436
498.4149, 44.97437
498.8970, 43.63184
499.3791, 40.65747
499.8612, 43.10693
500.3434, 48.55676
500.8255, 51.93079
501.3076, 52.75989
501.7897, 51.91797
502.2718, 49.55566
502.7539, 46.06006
503.2361, 43.16162
503.7182, 41.90088
504.2003, 39.73816
504.6824, 35.80273
505.1645, 31.01807
505.6466, 25.55115
506.1288, 19.90747
506.6109, 15.82983
507.0930, 15.36658
507.5751, 17.75830
508.0572, 17.04089
508.5393, 12.81116
509.0215, 6.069702
509.5036, 5.029785
509.9857, 17.09058
510.4678, 26.68945
510.9499, 33.41992
511.4320, 40.99072
511.9142, 53.85095
512.3963, 68.65930
512.8784, 77.67700
513.3605, 80.45520
513.8427, 84.09375
514.3248, 92.46509
514.8069, 104.6659
515.2890, 117.5443
515.7711, 127.4509
516.2532, 144.4640
516.7354, 178.1453
517.2175, 213.4473
517.6996, 234.7965
518.1817, 244.4392
518.6638, 257.2982
519.1459, 284.2433
519.6281, 322.1322
520.1102, 360.6833
520.5923, 400.1610
521.0744, 439.1060
521.5565, 475.8896
522.0386, 513.0044
522.5208, 549.8291
523.0029, 587.2728
523.4850, 631.8276
523.9671, 692.4523
524.4492, 758.6207
524.9313, 812.6184
525.4135, 856.7153
525.8956, 910.3071
526.3777, 982.9861
526.8598, 1067.500
527.3419, 1151.336
527.8240, 1237.354
528.3062, 1314.992
528.7883, 1378.438
529.2704, 1439.172
529.7525, 1506.210
530.2346, 1575.962
530.7167, 1640.563
531.1989, 1696.494
531.6810, 1744.107
532.1631, 1780.635
532.6452, 1803.653
533.1273, 1837.854
533.6094, 1896.746
534.0916, 1954.342
534.5737, 1989.838
535.0558, 2008.993
535.5379, 2028.762
536.0200, 2054.727
536.5021, 2081.416
536.9843, 2105.538
537.4664, 2127.225
537.9485, 2147.591
538.4306, 2166.816
538.9127, 2182.015
539.3948, 2189.288
539.8770, 2187.946
540.3591, 2186.562
540.8412, 2198.031
541.3233, 2194.263
541.8054, 2164.786
542.2875, 2118.568
542.7697, 2064.475
543.2518, 2005.300
543.7339, 1941.869
544.2160, 1876.738
544.6981, 1808.517
545.1802, 1727.616
545.6624, 1630.830
546.1445, 1534.066
546.6266, 1440.995
547.1087, 1356.579
547.5908, 1294.001
548.0729, 1268.762
548.5551, 1227.730
549.0372, 1145.374
549.5193, 1047.869
550.0014, 955.1576
550.4835, 871.0242
550.9656, 799.0256
551.4478, 740.9067
551.9299, 695.0361
552.4120, 656.5928
552.8941, 626.2151
553.3762, 603.4446
553.8583, 597.0020
554.3405, 592.6111
554.8226, 577.4119
555.3047, 554.1115
555.7868, 538.3564
556.2689, 538.7654
556.7510, 550.1692
557.2332, 570.7793
557.7153, 597.6199
558.1974, 618.9882
558.6795, 631.0981
559.1616, 639.5740
559.6437, 651.1116
560.1259, 666.1479
560.6080, 683.0239
561.0901, 701.9695
561.5722, 722.3926
562.0543, 747.1052
562.5364, 772.6824
563.0186, 795.4099
563.5007, 813.9202
563.9828, 826.9133
564.4649, 831.3379
564.9470, 828.3193
565.4291, 826.1624
565.9113, 824.8455
566.3934, 822.0527
566.8755, 814.1448
567.3576, 805.9528
567.8397, 804.9528
568.3218, 810.3594
568.8040, 825.4375
569.2861, 859.3059
569.7682, 897.9053
570.2503, 924.7263
570.7324, 941.4280
571.2145, 962.1431
571.6967, 996.9418
572.1788, 1040.818
572.6609, 1077.398
573.1430, 1101.389
573.6251, 1137.261
574.1072, 1196.468
574.5894, 1257.684
575.0715, 1309.185
575.5536, 1353.431
576.0357, 1397.384
576.5178, 1442.835
576.9999, 1489.411
577.4821, 1540.923
577.9642, 1592.713
578.4463, 1633.162
578.9284, 1659.859
579.4105, 1678.590
579.8926, 1695.736
580.3748, 1710.665
580.8569, 1709.388
581.3390, 1667.936
581.8211, 1640.406
582.3032, 1652.893
582.7853, 1667.880
583.2675, 1653.231
583.7496, 1606.962
584.2317, 1546.929
584.7138, 1478.757
585.1959, 1407.603
585.6780, 1347.504
586.1602, 1298.468
586.6422, 1251.099
587.1243, 1204.474
587.6064, 1153.976
588.0886, 1089.097
588.5707, 1003.865
589.0528, 941.0815
589.5349, 914.8560
590.0170, 897.1775
590.4991, 884.4244
590.9813, 868.5161
591.4634, 834.2498
591.9455, 778.3859
592.4276, 721.5310
592.9097, 689.4712
593.3918, 680.6829
593.8740, 673.3132
594.3561, 670.9360
594.8382, 659.3975
595.3203, 625.5054
595.8024, 580.9539
596.2845, 546.1362
596.7667, 522.5056
597.2488, 502.2295
597.7309, 483.6707
598.2130, 466.8630
598.6951, 456.7764
599.1772, 448.5897
599.6594, 426.6128
600.1415, 382.4482
600.6236, 330.9579
601.1057, 301.7120
601.5878, 300.1414
602.0699, 292.3912
602.5521, 273.4653
603.0342, 253.2534
603.5163, 235.5007
603.9984, 220.2871
604.4805, 207.7098
604.9626, 198.2698
605.4448, 190.2039
605.9269, 184.2880
606.4090, 178.2384
606.8911, 167.1208
607.3732, 151.5273
607.8553, 139.5035
608.3375, 137.5684
608.8196, 139.7168
609.3017, 124.5959
609.7838, 73.37683
610.2659, 47.23438
610.7480, 75.27588
611.2302, 105.5829
611.7123, 113.2098
612.1944, 103.2531
612.6765, 90.03052
613.1586, 76.68896
613.6407, 65.75745
614.1229, 62.02600
614.6050, 61.95325
615.0871, 55.51514
615.5692, 41.25684
616.0513, 30.19983
616.5334, 32.85181
617.0156, 45.00928
617.4977, 42.53320
617.9798, 6.201904
618.4619, 14.69873
618.9440, 6.928223
619.4261, 7.607300
619.9083, 16.27576
620.3904, 18.85852
620.8725, 20.03503
621.3546, 23.54504
621.8367, 24.06140
622.3188, 10.39453
622.8010, 12.45630
623.2831, 23.88342
623.7652, 18.87000
624.2473, 9.220215
624.7294, 4.599487
625.2115, 4.760986
625.6937, 6.618408
626.1758, 10.60498
626.6579, 15.79443
627.1400, 29.24890
627.6221, 38.40186
628.1042, 28.92639
628.5864, 4.667358
629.0685, 16.34094
629.5506, 25.14966
630.0327, 23.76892
630.5148, 10.37231
630.9969, 12.31458
631.4791, 27.02295
631.9612, 29.24622
632.4433, 25.41541
632.9254, 20.83862
633.4075, 15.53955
633.8896, 10.21655
634.3718, 6.151367
634.8539, 0.3645020
635.3360, 11.68396
635.8181, 22.63525
636.3002, 24.28308
636.7823, 18.00342
637.2645, 13.44324
637.7466, 19.10498
638.2287, 26.55029
638.7108, 18.70850
639.1929, 1.919800
639.6750, 14.23279
640.1572, 11.94495
640.6393, 6.294800
641.1214, 8.788452
641.6035, 18.98889
642.0856, 22.20947
642.5677, 14.45142
643.0499, 5.558716
643.5320, 6.638550
644.0141, 16.68311
644.4962, 18.07178
644.9783, 12.16980
645.4604, 6.986694
645.9426, 7.952271
646.4247, 11.72375
646.9068, 13.44543
647.3889, 13.29248
647.8710, 11.74597
648.3531, 8.351685
648.8353, 7.007935
649.3174, 13.07324
649.7995, 25.48718
650.2816, 28.23425
650.7637, 11.65344
651.2458, 1.403564
651.7280, 8.334717
652.2101, 10.58630
652.6922, 7.585327
653.1743, 0.7899170
653.6564, 5.680054
654.1385, 9.933105
654.6207, 12.07129
655.1028, 10.64893
655.5849, 6.838623
656.0670, 6.563965
656.5491, 11.20752
657.0313, 18.18677
657.5134, 26.68164
657.9955, 35.61475
658.4776, 36.43982
658.9597, 18.09595
659.4418, 6.958252
659.9240, 9.801392
660.4061, 15.58667
660.8882, 16.76941
661.3703, 14.19849
661.8524, 12.65100
662.3345, 14.59680
662.8167, 17.68750
663.2988, 19.96863
663.7809, 21.29651
664.2630, 20.48108
664.7451, 17.35938
665.2272, 15.40771
665.7094, 17.21301
666.1915, 22.16333
666.6736, 28.28149
667.1557, 40.28784
667.6378, 44.61328
668.1199, 30.08899
668.6021, 18.54370
669.0842, 23.86377
669.5663, 40.59302
670.0484, 57.15051
670.5305, 71.38342
671.0126, 79.22278
671.4948, 72.93652
671.9769, 59.96765
672.4590, 53.49146
672.9411, 54.36267
673.4232, 56.64526
673.9053, 56.82568
674.3875, 56.04822
674.8696, 57.11755
675.3517, 61.05347
675.8338, 63.42517
676.3159, 64.25732
676.7980, 63.27393
677.2802, 57.33508
677.7623, 49.88318
678.2444, 47.29724
678.7265, 51.40930
679.2086, 56.69385
679.6907, 59.84863
680.1729, 62.97009
680.6550, 68.00513
681.1371, 74.81543
681.6192, 82.66138
682.1013, 91.03174
682.5834, 96.81641
683.0656, 94.32849
683.5477, 82.77319
684.0298, 73.72424
684.5119, 68.50977
684.9940, 61.85193
685.4761, 48.95544
685.9583, 36.99475
686.4404, 35.62146
686.9225, 45.17932
687.4046, 54.40540
687.8867, 58.46777
688.3688, 63.74780
688.8510, 78.24487
689.3331, 94.15576
689.8152, 96.92004
690.2973, 84.12024
690.7794, 69.14832
691.2615, 65.13330
691.7437, 69.57324
692.2258, 72.91187
692.7079, 75.15759
693.1900, 77.87537
693.6721, 80.75391
694.1542, 84.49377
694.6364, 90.44104
695.1185, 98.62964
695.6006, 105.0673
696.0827, 110.9681
696.5648, 113.4991
697.0469, 109.8699
697.5291, 103.0219
698.0112, 92.61646
698.4933, 82.11218
698.9754, 82.28101
699.4575, 103.5872
699.9396, 130.5853
700.4218, 142.1033
700.9039, 141.4099
701.3860, 140.1014
701.8681, 139.6311
702.3502, 139.7666
702.8323, 139.3743
703.3145, 140.3964
703.7966, 151.9363
704.2787, 186.7161
704.7608, 207.2240
705.2429, 196.8632
705.7250, 187.3737
706.2072, 196.8112
706.6893, 217.2690
707.1714, 232.4757
707.6535, 237.2837
708.1356, 240.7793
708.6177, 249.5422
709.0999, 259.1512
709.5820, 262.0818
710.0641, 260.4883
710.5462, 263.1482
711.0283, 274.1074
711.5104, 289.7922
711.9926, 304.9086
712.4747, 319.2629
712.9568, 338.7513
713.4389, 369.1281
713.9210, 389.2583
714.4031, 382.8215
714.8853, 367.7240
715.3674, 369.4065
715.8495, 388.8793
716.3316, 406.9132
716.8137, 425.4818
717.2958, 436.6897
717.7780, 431.2291
718.2601, 419.3046
718.7422, 412.3254
719.2243, 413.0140
719.7064, 419.8472
720.1885, 433.4797
720.6707, 450.5640
721.1528, 467.3351
721.6349, 482.7799
722.1170, 485.9836
722.5991, 473.0033
723.0812, 457.8348
723.5634, 452.4844
724.0455, 455.3094
724.5276, 456.2006
725.0097, 453.7992
725.4918, 451.7350
725.9739, 450.7025
726.4561, 449.5809
726.9382, 448.7468
727.4203, 447.1879
727.9024, 442.9554
728.3845, 435.5072
728.8666, 425.3383
729.3488, 408.0983
729.8309, 391.2087
730.3130, 387.0139
730.7951, 392.4688
731.2772, 394.2479
731.7593, 386.3632
732.2415, 372.2812
732.7236, 355.5729
733.2057, 336.1530
733.6878, 322.0752
734.1699, 314.6993
734.6520, 308.1631
735.1342, 301.8629
735.6163, 293.7795
736.0984, 279.3741
736.5805, 258.0709
737.0626, 242.7572
737.5447, 242.8699
738.0269, 238.4667
738.5090, 214.5581
738.9911, 188.3264
739.4732, 180.8062
739.9553, 190.3383
740.4374, 197.0508
740.9196, 188.1251
741.4017, 172.6666
741.8838, 159.0707
742.3659, 148.6947
742.8480, 148.7205
743.3301, 159.6368
743.8123, 166.4319
744.2944, 157.8435
744.7765, 140.4514
745.2586, 134.0072
745.7407, 146.1395
746.2228, 143.3799
746.7050, 110.0333
747.1871, 82.16309
747.6692, 81.01233
748.1513, 93.74390
748.6334, 104.1354
749.1155, 111.5365
749.5977, 112.5959
750.0798, 101.7538
750.5619, 88.89417
751.0440, 78.62793
751.5261, 71.57446
752.0082, 70.07251
752.4904, 73.51672
752.9725, 74.23242
753.4546, 62.30017
753.9367, 45.75464
754.4188, 45.02649
754.9009, 58.32153
755.3831, 67.04211
755.8652, 66.81982
756.3473, 63.88770
756.8294, 64.32642
757.3115, 66.33716
757.7936, 59.06628
758.2758, 30.68262
758.7579, 16.13904
759.2400, 29.82227
759.7221, 45.90393
760.2042, 52.68945
760.6863, 53.27100
761.1685, 54.15100
761.6506, 56.71069
762.1327, 58.81775
762.6148, 56.12097
763.0969, 55.54895
763.5790, 69.39368
764.0612, 88.86047
764.5433, 92.56116
765.0254, 74.90332
765.5075, 54.86011
765.9896, 53.50867
766.4717, 64.36511
766.9539, 66.41150
767.4360, 59.95117
767.9181, 53.63513
768.4002, 49.47498
768.8823, 48.53296
769.3644, 53.79248
769.8466, 63.29822
770.3287, 59.78857
770.8108, 28.40527
771.2929, 10.07031
771.7750, 19.37610
772.2571, 30.98828
772.7393, 29.19409
773.2214, 20.13708
773.7035, 18.37244
774.1856, 28.81775
774.6677, 39.06372
775.1498, 45.58911
775.6320, 47.94543
776.1141, 43.89050
776.5962, 35.61523
777.0783, 26.38538
777.5604, 17.73242
778.0425, 12.91882
778.5247, 16.25549
779.0068, 25.52161
779.4889, 37.50940
779.9710, 51.62085
780.4531, 52.85388
780.9352, 35.01294
781.4174, 15.44543
781.8995, 10.91992
782.3816, 19.18750
782.8637, 25.37402
783.3458, 31.33032
783.8279, 31.34814
784.3101, 18.43774
784.7922, 6.054443
785.2743, 0.4907230
785.7564, 0.5836180
786.2385, 4.614990
786.7206, 14.07495
787.2028, 19.69824
787.6849, 15.31213
788.1670, 9.206787
788.6491, 0.5615230
789.1312, 2.919434
789.6133, 19.24268
790.0955, 67.35461
790.5776, 102.5352
791.0597, 83.19434
791.5418, 36.92639
792.0239, 13.43762
792.5060, 9.388306
792.9882, 10.61584
793.4703, 14.15466
793.9524, 18.11865
794.4345, 20.84106
794.9166, 22.92554
795.3987, 26.44727
795.8809, 31.42969
796.3630, 39.32971
796.8451, 54.91309
797.3272, 64.23645
797.8093, 55.39453
798.2914, 38.38611
798.7736, 32.25098
799.2557, 40.34949
799.7378, 40.61389
800.2199, 17.00085
800.7020, 1.213501
801.1841, 14.37939
801.6663, 36.46875
802.1484, 45.07117
802.6305, 38.79956
803.1126, 30.25732
803.5947, 24.46179
804.0768, 21.28308
804.5590, 23.63574
805.0411, 27.83142
805.5232, 23.77380
806.0053, 13.04163
806.4874, 9.552979
806.9695, 20.78174
807.4517, 37.41284
807.9338, 42.58923
808.4159, 37.11841
808.8980, 34.56274
809.3801, 35.16040
809.8622, 37.60400
810.3444, 43.97913
810.8265, 46.86670
811.3086, 33.53455
811.7907, 2.865234
812.2728, 10.04736
812.7549, 13.28418
813.2371, 28.78284
813.7192, 24.06116
814.2013, 15.09802
814.6834, 14.04980
815.1655, 18.42444
815.6476, 17.60022
816.1298, 4.840332
816.6119, 2.988892
817.0940, 3.570068
817.5761, 15.51123
818.0582, 28.76245
818.5403, 40.72119
819.0225, 46.90833
819.5046, 46.41797
819.9867, 44.69568
820.4688, 47.32666
820.9509, 51.70471
821.4330, 53.79480
821.9152, 53.99097
822.3973, 49.80933
822.8794, 40.34204
823.3615, 32.97546
823.8436, 33.99451
824.3257, 41.08630
824.8079, 48.21973
825.2900, 55.46558
825.7721, 56.69202
826.2542, 48.72461
826.7363, 43.23950
827.2184, 47.81921
827.7006, 57.48157
828.1827, 63.95325
828.6648, 66.43579
829.1469, 68.52295
829.6290, 72.29028
830.1111, 73.65027
830.5933, 68.98706
831.0754, 64.13562
831.5575, 64.92334
832.0396, 70.00708
832.5217, 72.70605
833.0038, 69.22791
833.4860, 68.94421
833.9681, 82.38086
834.4502, 97.10217
834.9323, 97.20996
835.4144, 87.85596
835.8965, 84.68896
836.3787, 93.02295
836.8608, 100.3568
837.3429, 87.91431
837.8250, 68.30408
838.3071, 71.33032
838.7892, 91.00781
839.2714, 100.9988
839.7535, 95.03723
840.2356, 82.69568
840.7177, 71.48792
841.1998, 62.69421
841.6819, 59.64307
842.1641, 63.17090
842.6462, 63.65393
843.1283, 58.32483
843.6104, 56.90771
844.0925, 66.16626
844.5746, 79.72522
845.0568, 87.30847
845.5389, 88.45898
846.0210, 86.47461
846.5031, 76.20508
846.9852, 69.60986
847.4673, 71.42041
847.9495, 75.47595
848.4316, 77.46619
848.9137, 77.54895
849.3958, 77.40662
849.8779, 78.42725
850.3600, 77.04468
850.8422, 69.53809
851.3243, 61.44653
851.8064, 58.32910
852.2885, 57.30042
852.7706, 50.96533
853.2527, 38.16577
853.7349, 28.94080
854.2170, 35.28784
854.6991, 45.62878
855.1812, 44.33582
855.6633, 36.44775
856.1454, 34.49292
856.6276, 39.27112
857.1097, 39.63745
857.5918, 27.40991
858.0739, 13.87793
858.5560, 23.79810
859.0381, 52.57104
859.5203, 62.09790
860.0024, 49.80994
860.4845, 42.73181
860.9666, 52.48975
861.4487, 66.00427
861.9308, 67.59277
862.4130, 57.91968
862.8951, 44.59363
863.3772, 21.94983
863.8593, 13.29883
864.3414, 31.78943
864.8235, 50.18213
865.3057, 48.34473
865.7878, 34.19312
866.2699, 28.71570
866.7520, 35.69409
867.2341, 39.63782
867.7162, 37.16333
868.1984, 35.02869
868.6805, 38.68896
869.1626, 41.70264
869.6447, 34.92993
870.1268, 19.79980
870.6089, 9.808350
871.0911, 13.91956
871.5732, 16.07556
872.0553, 5.001953
872.5374, 8.506714
873.0195, 15.58813
873.5016, 16.40552
873.9838, 12.66809
874.4659, 5.141357
874.9480, 2.528687
875.4301, 7.176758
875.9122, 10.16553
876.3943, 13.28101
876.8765, 16.11414
877.3586, 18.93555
877.8407, 20.97107
878.3228, 16.38391
878.8049, 0.2386470
879.2870, 18.15637
879.7692, 12.90063
880.2513, 9.274414
880.7334, 10.46960
881.2155, 10.97009
881.6976, 27.22949
882.1797, 27.33911
882.6619, 18.80286
883.1440, 8.470093
883.6261, 2.137451
884.1082, 1.529419
884.5903, 24.74609
885.0724, 37.04187
885.5546, 30.80408
886.0367, 20.29761
886.5188, 12.53430
887.0009, 8.028198
887.4830, 8.366211
887.9651, 15.15283
888.4473, 20.74866
888.9294, 28.98035
889.4115, 30.67859
889.8936, 13.44617
890.3757, 2.723877
890.8578, 3.923462
891.3400, 27.59302
891.8221, 39.12744
892.3042, 27.28711
892.7863, 16.88538
893.2684, 9.823608
893.7505, 8.947266
894.2327, 21.46082
894.7148, 38.52417
895.1969, 46.97253
895.6790, 45.00891
896.1611, 41.32349
896.6432, 42.84387
897.1254, 40.65869
897.6075, 24.41614
898.0896, 4.457642
898.5717, 5.356079
899.0538, 7.178711
899.5359, 13.56799
900.0181, 30.31152
900.5002, 43.41187
900.9823, 35.90503
901.4644, 19.46655
901.9465, 8.097412
902.4286, 2.878784
902.9108, 7.858765
903.3929, 22.02295
903.8750, 33.21887
904.3571, 32.06775
904.8392, 25.70642
905.3214, 26.08728
905.8035, 32.24731
906.2856, 40.59814
906.7677, 50.71753
907.2498, 61.00793
907.7319, 71.06677
908.2141, 78.59949
908.6962, 79.70898
909.1783, 76.93237
909.6604, 84.46960
910.1425, 103.4890
910.6246, 118.3458
911.1068, 126.2029
911.5889, 131.1692
912.0710, 134.4590
912.5531, 139.7948
913.0352, 154.6213
913.5173, 180.1422
913.9995, 200.7180
914.4816, 216.3940
914.9637, 226.0641
915.4458, 220.5385
915.9279, 220.9594
916.4100, 250.2242
916.8922, 299.6844
917.3743, 335.6680
917.8564, 343.6392
918.3385, 367.7402
918.8206, 422.4807
919.3027, 476.0981
919.7849, 516.2109
920.2670, 552.0215
920.7491, 593.0530
921.2312, 638.8123
921.7133, 684.1523
922.1954, 728.1389
922.6776, 774.9050
923.1597, 818.9778
923.6418, 871.3726
924.1239, 943.4291
924.6060, 1027.286
925.0881, 1109.530
925.5703, 1187.615
926.0524, 1271.253
926.5345, 1356.525
927.0166, 1457.299
927.4987, 1591.020
927.9808, 1734.398
928.4630, 1861.770
928.9451, 1978.870
929.4272, 2103.730
929.9093, 2241.024
930.3914, 2390.926
930.8735, 2555.656
931.3557, 2732.432
931.8378, 2918.055
932.3199, 3114.447
932.8020, 3317.789
933.2841, 3532.948
933.7662, 3782.319
934.2484, 4081.150
934.7305, 4406.369
935.2126, 4721.896
935.6947, 5059.090
936.1768, 5462.862
936.6589, 5933.526
937.1411, 6459.844
937.6232, 7037.970
938.1053, 7662.871
938.5874, 8325.086
939.0695, 9029.457
939.5516, 9790.019
940.0338, 10605.18
940.5159, 11463.47
940.9980, 12369.95
941.4801, 13364.73
941.9622, 14460.65
942.4443, 15603.92
942.9265, 16738.12
943.4086, 17882.02
943.8907, 19123.18
944.3728, 20449.90
944.8549, 21772.84
945.3370, 23084.22
945.8192, 24348.89
946.3013, 25568.06
946.7834, 26688.93
947.2655, 27669.70
947.7476, 28489.75
948.2297, 29006.72
948.7119, 29219.95
949.1940, 29110.56
949.6761, 28673.74
950.1582, 27920.30
950.6403, 26837.62
951.1224, 25494.44
951.6046, 24018.55
952.0867, 22412.18
952.5688, 20707.05
953.0509, 18875.54
953.5330, 17069.30
954.0151, 15311.68
954.4973, 13659.76
954.9794, 12169.17
955.4615, 10823.38
955.9436, 9578.366
956.4257, 8419.400
956.9078, 7417.339
957.3900, 6602.978
957.8721, 5874.040
958.3542, 5198.660
958.8363, 4588.491
959.3184, 4051.297
959.8005, 3586.673
960.2827, 3195.320
960.7648, 2897.756
961.2469, 2625.412
961.7290, 2387.044
962.2111, 2158.861
962.6932, 1920.648
963.1754, 1698.454
963.6575, 1528.628
964.1396, 1406.908
964.6217, 1277.978
965.1038, 1118.872
965.5859, 991.1321
966.0681, 915.4268
966.5502, 850.2451
967.0323, 782.1106
967.5144, 713.8677
967.9965, 646.0793
968.4786, 578.8923
968.9608, 525.3911
969.4429, 492.1980
969.9250, 463.8979
970.4071, 444.3860
970.8892, 423.0913
971.3713, 389.4514
971.8535, 352.9099
972.3356, 326.2109
972.8177, 309.9985
973.2998, 306.3645
973.7819, 319.8801
974.2640, 339.9971
974.7462, 370.3420
975.2283, 400.5972
975.7104, 419.3362
976.1925, 435.1423
976.6746, 465.4033
977.1567, 513.1726
977.6389, 558.6531
978.1210, 591.9631
978.6031, 629.5938
979.0852, 679.7786
979.5673, 733.3713
980.0494, 779.6987
980.5316, 825.2349
981.0137, 886.2808
981.4958, 967.7263
981.9779, 1046.100
982.4600, 1116.601
982.9421, 1181.328
983.4243, 1235.338
983.9064, 1289.023
984.3885, 1359.448
984.8706, 1435.986
985.3527, 1488.496
985.8348, 1507.123
986.3170, 1527.012
986.7991, 1566.253
987.2812, 1602.627
987.7633, 1627.266
988.2454, 1641.526
988.7275, 1648.779
989.2097, 1647.023
989.6918, 1632.160
990.1739, 1604.886
990.6560, 1554.217
991.1381, 1454.658
991.6202, 1355.599
992.1024, 1294.041
992.5845, 1240.843
993.0666, 1161.198
993.5487, 1061.055
994.0308, 967.7629
994.5129, 890.4988
994.9951, 814.9097
995.4772, 727.7334
995.9593, 647.9260
996.4414, 596.6599
996.9235, 551.2183
997.4056, 479.7810
997.8878, 389.4585
998.3699, 312.6206
998.8520, 260.1448
999.3341, 217.1836
999.8162, 180.9019
1000.298, 147.4170
1000.780, 109.8716
1001.263, 76.75684
1001.745, 60.87012
1002.227, 59.43848
1002.709, 58.21631
1003.191, 51.97705
1003.673, 49.22827
1004.155, 57.73438
1004.637, 66.24023
1005.120, 70.28418
1005.602, 67.82861
1006.084, 51.05713
1006.566, 25.82886
1007.048, 13.38818
1007.530, 24.01196
1008.012, 32.68262
1008.494, 27.16479
1008.976, 17.71655
1009.459, 8.363525
1009.941, 0.9060060
1010.423, 5.829834
1010.905, 9.192383
1011.387, 0.3503420
1011.869, 25.42041
1012.351, 55.69995
1012.833, 89.62402
1013.315, 121.5403
1013.798, 144.9949
1014.280, 166.8362
1014.762, 193.6926
1015.244, 226.2107
1015.726, 263.6995
1016.208, 307.5500
1016.690, 350.4595
1017.172, 383.7979
1017.655, 422.1880
1018.137, 475.4587
1018.619, 536.6257
1019.101, 604.3921
1019.583, 672.7888
1020.065, 724.1951
1020.547, 748.8015
1021.029, 779.2212
1021.511, 844.8809
1021.994, 896.0283
1022.476, 903.0867
1022.958, 888.1936
1023.440, 868.8923
1023.922, 847.8599
1024.404, 827.4739
1024.886, 810.8787
1025.368, 783.5637
1025.851, 730.6267
1026.333, 680.6472
1026.815, 650.3491
1027.297, 623.6123
1027.779, 581.8589
1028.261, 531.8154
1028.743, 493.5825
1029.225, 470.2043
1029.708, 457.6873
1030.190, 453.5466
1030.672, 462.3718
1031.154, 496.2412
1031.636, 533.9214
1032.118, 549.7454
1032.600, 558.3967
1033.082, 596.2917
1033.564, 669.5271
1034.047, 756.8462
1034.529, 854.9856
1035.011, 969.5935
1035.493, 1116.405
1035.975, 1266.272
1036.457, 1385.746
1036.939, 1499.288
1037.421, 1661.687
1037.903, 1884.981
1038.386, 2097.386
1038.868, 2275.033
1039.350, 2477.620
1039.832, 2724.609
1040.314, 2984.626
1040.796, 3247.900
1041.278, 3507.593
1041.760, 3752.610
1042.243, 3981.864
1042.725, 4210.633
1043.207, 4455.017
1043.689, 4668.210
1044.171, 4856.717
1044.653, 4993.476
1045.135, 5069.337
1045.617, 5079.460
1046.099, 5015.355
1046.582, 4876.943
1047.064, 4677.294
1047.546, 4397.782
1048.028, 4119.006
1048.510, 3856.672
1048.992, 3567.438
1049.474, 3222.197
1049.956, 2863.009
1050.438, 2539.210
1050.921, 2248.445
1051.403, 1970.827
1051.885, 1706.577
1052.367, 1462.778
1052.849, 1237.668
1053.331, 1048.961
1053.813, 907.3066
1054.295, 785.8391
1054.778, 657.7654
1055.260, 529.6591
1055.742, 425.0349
1056.224, 343.1062
1056.706, 278.7449
1057.188, 232.0819
1057.670, 177.5829
1058.152, 107.0823
1058.635, 44.39099
1059.117, 9.722046
1059.599, 7.975464
1060.081, 29.45825
1060.563, 53.32837
1061.045, 74.52686
1061.527, 92.15515
1062.009, 99.62268
1062.491, 96.52539
1062.974, 94.50293
1063.456, 101.1948
1063.938, 104.2767
1064.420, 85.20374
1064.902, 53.42871
1065.384, 28.91870
1065.866, 7.916626
1066.348, 20.62561
1066.830, 57.17712
1067.313, 92.86182
1067.795, 123.6489
1068.277, 159.3258
1068.759, 212.2943
1069.241, 274.0642
1069.723, 327.9022
1070.205, 383.7374
1070.687, 460.2482
1071.170, 556.5795
1071.652, 663.7072
1072.134, 776.9083
1072.616, 887.7712
1073.098, 981.8322
1073.580, 1081.883
1074.062, 1215.176
1074.544, 1356.885
1075.026, 1470.890
1075.509, 1577.224
1075.991, 1723.174
1076.473, 1912.966
1076.955, 2097.094
1077.437, 2252.402
1077.919, 2405.298
1078.401, 2579.800
1078.883, 2742.018
1079.365, 2866.505
1079.848, 2966.809
1080.330, 3064.812
1080.812, 3158.598
1081.294, 3225.063
1081.776, 3259.348
1082.258, 3266.621
1082.740, 3256.617
1083.222, 3209.182
1083.704, 3098.631
1084.187, 2962.946
1084.669, 2834.477
1085.151, 2708.057
1085.633, 2562.657
1086.115, 2393.133
1086.597, 2226.507
1087.079, 2061.250
1087.561, 1902.626
1088.044, 1752.663
1088.526, 1608.512
1089.008, 1465.032
1089.490, 1329.097
1089.972, 1213.158
1090.454, 1117.004
1090.936, 1023.318
1091.418, 931.4622
1091.901, 844.9840
1092.383, 763.9741
1092.865, 688.7343
1093.347, 618.0859
1093.829, 559.0483
1094.311, 522.9269
1094.793, 501.6653
1095.275, 466.5513
1095.757, 419.1067
1096.240, 372.8286
1096.722, 329.7084
1097.204, 305.1409
1097.686, 302.7223
1098.168, 296.6383
1098.650, 266.4728
1099.132, 226.3014
1099.614, 195.2889
1100.096, 173.0216
1100.579, 160.2770
1101.061, 155.0443
1101.543, 154.2435
1102.025, 155.6355
1102.507, 152.6748
1102.989, 142.0295
1103.471, 131.8633
1103.953, 130.8298
1104.436, 132.4778
1104.918, 130.9283
1105.400, 127.1344
1105.882, 119.5082
1106.364, 111.6812
1106.846, 112.5724
1107.328, 123.8094
1107.810, 135.0717
1108.292, 143.6888
1108.775, 147.9941
1109.257, 145.1830
1109.739, 140.0336
1110.221, 131.6399
1110.703, 125.5284
1111.185, 133.0295
1111.667, 151.1764
1112.149, 156.9843
1112.631, 140.8058
1113.114, 126.2986
1113.596, 115.8883
1114.078, 107.3798
1114.560, 103.9869
1115.042, 97.57886
1115.524, 78.27576
1116.006, 53.65466
1116.488, 42.45898
1116.971, 46.40857
1117.453, 46.85388
1117.935, 42.65588
1118.417, 36.92053
1118.899, 29.70483
1119.381, 23.58435
1119.863, 21.29150
1120.345, 17.16809
1120.828, 1.295166
1121.310, 20.85278
1121.792, 23.78662
1122.274, 8.982300
1122.756, 1.511353
1123.238, 2.981323
1123.720, 5.043091
1124.202, 5.444702
1124.684, 6.702393
1125.167, 10.55811
1125.649, 15.21851
1126.131, 20.29614
1126.613, 22.99731
1127.095, 13.89880
1127.577, 0.2780760
1128.059, 0.1970210
1128.541, 11.57373
1129.023, 16.59546
1129.506, 8.315186
1129.988, 1.567383
1130.470, 7.626587
1130.952, 9.665283
1131.434, 5.040771
1131.916, 1.385010
1132.398, 8.728027
1132.880, 12.77515
1133.363, 3.694702
1133.845, 17.63159
1134.327, 30.06360
1134.809, 20.62451
1135.291, 17.04199
1135.773, 27.66229
1136.255, 39.66077
1136.737, 53.32324
1137.219, 61.06323
1137.702, 51.51917
1138.184, 33.57056
1138.666, 32.79663
1139.148, 52.75958
1139.630, 61.87378
1140.112, 57.01270
1140.594, 54.01819
1141.076, 55.46753
1141.558, 59.84784
1142.041, 67.05566
1142.523, 73.47095
1143.005, 74.01440
1143.487, 71.04919
1143.969, 73.28357
1144.451, 79.20972
1144.933, 79.27740
1145.415, 74.59106
1145.898, 75.97638
1146.380, 85.31964
1146.862, 92.73541
1147.344, 91.50421
1147.826, 89.06104
1148.308, 94.73590
1148.790, 102.8027
1149.272, 106.7925
1149.755, 108.0074
1150.237, 107.9396
1150.719, 107.3516
1151.201, 107.0909
1151.683, 107.4059
1152.165, 108.6099
1152.647, 109.2221
1153.129, 113.0851
1153.611, 126.4111
1154.094, 137.9365
1154.576, 137.8509
1155.058, 134.4253
1155.540, 140.4601
1156.022, 153.0214
1156.504, 154.0997
1156.986, 136.9550
1157.468, 130.5980
1157.950, 139.3087
1158.433, 147.9308
1158.915, 153.8242
1159.397, 157.6113
1159.879, 159.8839
1160.361, 159.1780
1160.843, 151.8596
1161.325, 140.7964
1161.807, 140.0259
1162.290, 148.5304
1162.772, 160.4556
1163.254, 173.9332
1163.736, 179.4373
1164.218, 174.9600
1164.700, 169.8287
1165.182, 170.4137
1165.664, 172.9658
1166.146, 174.4178
1166.629, 174.2576
1167.111, 168.4943
1167.593, 162.8102
1168.075, 169.4443
1168.557, 183.1059
1169.039, 184.7684
1169.521, 169.8782
1170.003, 162.1102
1170.485, 178.8378
1170.968, 191.9458
1171.450, 190.7709
1171.932, 185.9528
1172.414, 179.3909
1172.896, 175.2628
1173.378, 179.4475
1173.860, 189.1093
1174.342, 195.9073
1174.825, 201.3446
1175.307, 197.3983
1175.789, 179.3224
1176.271, 172.1678
1176.753, 182.3430
1177.235, 193.2650
1177.717, 196.9361
1178.199, 194.6040
1178.682, 186.2301
1179.164, 173.7104
1179.646, 161.4097
1180.128, 153.3735
1180.610, 164.4124
1181.092, 187.2587
1181.574, 198.2325
1182.056, 193.1114
1182.538, 179.8281
1183.021, 161.1591
1183.503, 145.0047
1183.985, 136.0865
1184.467, 133.5848
1184.949, 143.9097
1185.431, 155.4916
1185.913, 154.1046
1186.395, 145.0848
1186.877, 141.4971
1187.360, 144.8746
1187.842, 144.4579
1188.324, 133.3090
1188.806, 127.9298
1189.288, 131.9628
1189.770, 134.4850
1190.252, 132.8009
1190.734, 128.4500
1191.217, 122.6962
1191.699, 117.0311
1192.181, 112.3781
1192.663, 108.7367
1193.145, 112.8165
1193.627, 123.7034
1194.109, 126.9554
1194.591, 122.1729
1195.073, 117.5014
1195.556, 115.1370
1196.038, 112.1884
1196.520, 107.1880
1197.002, 102.7756
1197.484, 99.76257
1197.966, 98.95245
1198.448, 103.1500
1198.930, 109.1930
1199.412, 114.5961
1199.895, 117.9586
1200.377, 116.2899
1200.859, 109.1749
1201.341, 103.0360
1201.823, 98.50500
1202.305, 96.76794
1202.787, 100.8102
1203.269, 103.6094
1203.752, 102.6069
1204.234, 99.07831
1204.716, 93.23102
1205.198, 86.03241
1205.680, 79.06885
1206.162, 72.85577
1206.644, 75.81903
1207.126, 87.38489
1207.609, 90.72601
1208.091, 85.35046
1208.573, 83.06677
1209.055, 88.04205
1209.537, 92.44635
1210.019, 90.58002
1210.501, 85.41809
1210.983, 79.12775
1211.465, 73.41278
1211.948, 69.97681
1212.430, 67.46356
1212.912, 62.34155
1213.394, 57.41870
1213.876, 61.77563
1214.358, 76.70654
1214.840, 83.88263
1215.322, 73.03644
1215.804, 65.31818
1216.287, 64.68713
1216.769, 64.47681
1217.251, 63.07440
1217.733, 60.76471
1218.215, 57.67804
1218.697, 54.15265
1219.179, 50.10638
1219.661, 45.96332
1220.144, 45.58905
1220.626, 48.54474
1221.108, 49.64673
1221.590, 48.66840
1222.072, 47.94305
1222.554, 48.23358
1223.036, 46.68964
1223.518, 41.09668
1224.000, 36.77789
1224.483, 42.21625
1224.965, 46.99969
1225.447, 38.43890
1225.929, 27.59625
1226.411, 27.51099
1226.893, 33.44836
1227.375, 35.02551
1227.857, 31.45898
1228.339, 28.76904
1228.822, 28.43695
1229.304, 26.46094
1229.786, 20.36963
1230.268, 19.62646
1230.750, 28.74353
1231.232, 35.11267
1231.714, 30.57977
1232.196, 22.09589
1232.679, 18.43445
1233.161, 18.72290
1233.643, 22.27136
1234.125, 27.55750
1234.607, 30.83728
1235.089, 31.96490
1235.571, 30.73248
1236.053, 27.72449
1236.536, 24.81635
1237.018, 22.92548
1237.500, 24.02637
1237.982, 34.25732
1238.464, 40.63416
1238.946, 34.66986
1239.428, 25.75830
1239.910, 18.58545
1240.392, 13.02557
1240.875, 7.759705
1241.357, 3.443665
1241.839, 2.170349
1242.321, 4.330811
1242.803, 9.146118
1243.285, 17.48615
1243.767, 16.90253
1244.249, 5.802673
1244.731, 1.269836
1245.214, 9.927673
1245.696, 22.70538
1246.178, 33.27008
1246.660, 37.55817
1247.142, 25.47046
1247.624, 8.513306
1248.106, 1.679138
1248.588, 5.987732
1249.071, 4.155945
1249.553, 1.244995
1250.035, 6.047302
1250.517, 9.043152
1250.999, 9.266418
1251.481, 1.278809
1251.963, 2.458008
1252.445, 20.87146
1252.927, 30.99854
1253.410, 23.37848
1253.892, 13.17297
1254.374, 6.438721
1254.856, 6.925293
1255.338, 4.094666
1255.820, 0.5315550
1256.302, 3.172913
1256.784, 10.67847
1257.266, 12.21014
1257.749, 7.755920
1258.231, 5.181580
1258.713, 4.075806
1259.195, 0.0000000E+00
##END=



