##NAMES=Hureaulite
##RRUFFID=R070452
##IDEAL CHEMISTRY=Mn^2+^_5_(PO_4_)_2_(PO_3_OH)_2_&#183;4H_2_O
##LOCALITY=Tip Top mine, Fourmile, Custer District, Custer County, South Dakota, USA
##OWNER=RRUFF
##SOURCE=Michael Scott
##DESCRIPTION=Massive coarse pink granular
##STATUS=The identification of this mineral has been confirmed by X-ray diffraction and chemical analysis
##URL=rruff.info/R070452
##MEASURED CHEMISTRY=(Mn^2+^_3.83_Fe^2+^_0.62_Mg_0.33_Ca_0.22_)_Σ=5_(P_1.00_O_4_)_2_(P_1.00_O_3_OH)_2_·11H_2_O; H_2_O estimated by difference; OH by charge balance
132.7991, 0.0000000E+00
133.2813, 11.65570
133.7634, 4.5959000E-02
134.2455, 3.685059
134.7276, 4.501221
135.2097, 13.14270
135.6918, 17.42249
136.1740, 17.88940
136.6561, 23.96185
137.1382, 37.12921
137.6203, 51.57715
138.1024, 58.79572
138.5845, 57.01984
139.0667, 56.58118
139.5488, 61.48804
140.0309, 72.23077
140.5130, 85.11200
140.9951, 100.8855
141.4772, 118.3685
141.9594, 135.7972
142.4415, 156.4702
142.9236, 170.7416
143.4057, 172.5931
143.8878, 155.1627
144.3699, 143.3698
144.8521, 141.3434
145.3342, 146.2120
145.8163, 143.5797
146.2984, 128.6862
146.7805, 111.4621
147.2626, 97.91449
147.7448, 89.51172
148.2269, 82.57074
148.7090, 76.44147
149.1911, 71.09253
149.6732, 68.36078
150.1553, 68.83051
150.6375, 71.61792
151.1196, 75.76050
151.6017, 77.93872
152.0838, 85.01062
152.5659, 100.3098
153.0480, 126.6029
153.5302, 147.4894
154.0123, 155.7494
154.4944, 160.0470
154.9765, 170.8187
155.4586, 199.4296
155.9408, 225.7397
156.4229, 241.3652
156.9050, 233.9308
157.3871, 228.1118
157.8692, 238.0564
158.3513, 257.7809
158.8335, 275.8257
159.3156, 289.1602
159.7977, 300.6976
160.2798, 310.9749
160.7619, 315.6755
161.2440, 326.9990
161.7262, 356.9469
162.2083, 397.7233
162.6904, 427.3042
163.1725, 415.3574
163.6546, 401.7708
164.1367, 416.0375
164.6189, 502.5035
165.1010, 575.4738
165.5831, 584.9937
166.0652, 540.8336
166.5473, 496.7747
167.0294, 475.3621
167.5116, 470.1821
167.9937, 475.3351
168.4758, 503.4487
168.9579, 530.1515
169.4400, 535.8751
169.9221, 521.3457
170.4043, 507.7369
170.8864, 509.4849
171.3685, 520.7535
171.8506, 533.0132
172.3327, 549.5502
172.8148, 561.5493
173.2970, 558.6548
173.7791, 539.7253
174.2612, 516.7902
174.7433, 501.3866
175.2254, 489.7441
175.7076, 473.5421
176.1897, 444.6178
176.6718, 410.5824
177.1539, 380.8406
177.6360, 356.4312
178.1181, 334.7161
178.6003, 312.8588
179.0824, 291.0271
179.5645, 270.6754
180.0466, 251.6163
180.5287, 234.2621
181.0108, 220.4347
181.4930, 211.4357
181.9751, 203.0179
182.4572, 186.6699
182.9393, 163.7994
183.4214, 145.4087
183.9035, 140.1680
184.3857, 145.1237
184.8678, 153.1310
185.3499, 164.7186
185.8320, 176.2700
186.3141, 180.9048
186.7962, 178.7621
187.2784, 173.3541
187.7605, 163.3077
188.2426, 150.8756
188.7247, 147.5718
189.2068, 159.7867
189.6889, 180.0806
190.1711, 189.9415
190.6532, 186.2637
191.1353, 179.3529
191.6174, 175.5754
192.0995, 174.9991
192.5816, 177.9050
193.0638, 187.5032
193.5459, 200.1438
194.0280, 200.8799
194.5101, 188.5439
194.9922, 170.4279
195.4743, 151.6608
195.9565, 132.4395
196.4386, 118.9785
196.9207, 116.3601
197.4028, 122.5049
197.8849, 120.0403
198.3671, 106.6333
198.8492, 91.25378
199.3313, 85.54834
199.8134, 90.19727
200.2955, 97.97949
200.7776, 106.5514
201.2598, 115.9164
201.7419, 128.1761
202.2240, 145.0371
202.7061, 161.8710
203.1882, 168.8108
203.6703, 162.6631
204.1525, 162.5171
204.6346, 178.0665
205.1167, 211.0181
205.5988, 241.4596
206.0809, 268.8184
206.5630, 294.3163
207.0452, 319.7657
207.5273, 344.8595
208.0094, 371.2251
208.4915, 399.6128
208.9736, 429.5491
209.4557, 463.4546
209.9379, 503.4572
210.4200, 545.8558
210.9021, 580.4219
211.3842, 603.0909
211.8663, 628.7395
212.3484, 667.4465
212.8306, 724.3158
213.3127, 771.2106
213.7948, 803.9907
214.2769, 827.3838
214.7590, 854.8751
215.2411, 886.5121
215.7233, 921.6501
216.2054, 962.9469
216.6875, 1017.103
217.1696, 1053.577
217.6517, 1066.109
218.1338, 1059.946
218.6160, 1055.624
219.0981, 1054.678
219.5802, 1052.753
220.0623, 1047.847
220.5444, 1041.391
221.0265, 1028.371
221.5087, 1008.083
221.9908, 980.4792
222.4729, 946.3429
222.9550, 899.8440
223.4371, 854.2747
223.9192, 819.1646
224.4014, 799.3679
224.8835, 781.8451
225.3656, 762.9290
225.8477, 742.7264
226.3298, 733.3553
226.8119, 741.7983
227.2941, 753.2588
227.7762, 755.8362
228.2583, 744.0532
228.7404, 733.8851
229.2225, 728.2703
229.7046, 726.9042
230.1868, 723.8669
230.6689, 718.1671
231.1510, 712.1288
231.6331, 707.6328
232.1152, 705.8743
232.5973, 703.2767
233.0795, 700.9216
233.5616, 698.5658
234.0437, 687.2769
234.5258, 661.3309
235.0079, 632.6976
235.4900, 611.3112
235.9722, 598.2013
236.4543, 590.9067
236.9364, 592.6128
237.4185, 603.2422
237.9006, 601.9712
238.3828, 583.5660
238.8649, 558.8214
239.3470, 536.3112
239.8291, 513.4305
240.3112, 498.0994
240.7933, 494.8735
241.2755, 504.0752
241.7576, 504.4231
242.2397, 489.8772
242.7218, 472.4028
243.2039, 464.1073
243.6860, 470.6398
244.1682, 475.6082
244.6503, 475.6206
245.1324, 470.5320
245.6145, 464.8287
246.0966, 456.1262
246.5787, 449.2362
247.0609, 448.9958
247.5430, 456.6669
248.0251, 468.8656
248.5072, 487.3407
248.9893, 512.5699
249.4714, 530.0256
249.9536, 537.4130
250.4357, 539.3372
250.9178, 539.5382
251.3999, 534.7413
251.8820, 534.9384
252.3641, 543.0764
252.8463, 559.3971
253.3284, 576.5354
253.8105, 594.9607
254.2926, 613.5150
254.7747, 631.1257
255.2568, 648.3562
255.7390, 663.4872
256.2211, 675.7931
256.7032, 685.0919
257.1853, 695.0940
257.6674, 705.9423
258.1495, 717.2274
258.6317, 729.3041
259.1138, 744.4229
259.5959, 754.2067
260.0780, 752.9264
260.5601, 739.9911
261.0422, 745.1372
261.5244, 779.1073
262.0065, 816.9388
262.4886, 829.3289
262.9707, 805.7319
263.4528, 785.7302
263.9349, 780.3407
264.4171, 789.5891
264.8992, 788.5867
265.3813, 774.6171
265.8634, 754.1959
266.3455, 734.3706
266.8276, 716.6052
267.3098, 694.1871
267.7919, 665.4910
268.2740, 630.8324
268.7561, 589.1910
269.2382, 538.1764
269.7203, 486.2045
270.2025, 441.6671
270.6846, 406.4232
271.1667, 371.2310
271.6488, 332.4313
272.1309, 291.2423
272.6130, 258.8984
273.0952, 237.2668
273.5773, 219.2015
274.0594, 197.8490
274.5415, 172.6771
275.0236, 148.2004
275.5057, 126.2075
275.9879, 106.3604
276.4700, 84.76758
276.9521, 60.19421
277.4342, 35.39709
277.9163, 11.20386
278.3984, 12.66449
278.8806, 28.41650
279.3627, 33.96967
279.8448, 30.81482
280.3269, 21.74878
280.8090, 3.614868
281.2911, 8.845337
281.7733, 3.622681
282.2554, 42.01385
282.7375, 67.19543
283.2196, 67.72723
283.7017, 51.12500
284.1838, 43.65778
284.6660, 46.72577
285.1481, 50.58105
285.6302, 46.12866
286.1123, 33.78400
286.5944, 23.08215
287.0765, 16.01556
287.5587, 11.65906
288.0408, 8.668518
288.5229, 7.449707
289.0050, 4.648010
289.4871, 4.324341
289.9692, 18.35565
290.4514, 28.93396
290.9335, 33.21674
291.4156, 35.01074
291.8977, 41.98596
292.3798, 53.77258
292.8619, 67.16180
293.3441, 80.39319
293.8262, 93.78931
294.3083, 108.1331
294.7904, 124.6024
295.2725, 140.7267
295.7546, 150.1573
296.2368, 153.4047
296.7189, 158.4212
297.2010, 174.6696
297.6831, 196.2100
298.1652, 208.2654
298.6474, 206.9418
299.1295, 201.7545
299.6116, 205.3301
300.0937, 216.2108
300.5758, 227.9945
301.0580, 238.0750
301.5401, 245.8143
302.0222, 248.4718
302.5043, 244.1475
302.9864, 238.7465
303.4685, 240.4513
303.9507, 247.2003
304.4328, 252.6790
304.9149, 252.8250
305.3970, 250.2317
305.8791, 249.4091
306.3612, 251.8336
306.8434, 249.7430
307.3255, 231.9291
307.8076, 204.8644
308.2897, 181.2087
308.7718, 168.8948
309.2539, 161.8093
309.7361, 154.8614
310.2182, 147.6941
310.7003, 141.2252
311.1824, 136.5461
311.6645, 132.9507
312.1466, 129.4075
312.6288, 124.9257
313.1109, 120.7155
313.5930, 117.9859
314.0751, 116.7747
314.5572, 114.8026
315.0393, 112.8263
315.5215, 108.8033
316.0036, 100.5055
316.4857, 74.94543
316.9678, 55.68030
317.4499, 59.52429
317.9320, 84.94794
318.4142, 101.9001
318.8963, 92.56897
319.3784, 73.32452
319.8605, 57.45837
320.3426, 50.27258
320.8247, 45.13135
321.3069, 38.75122
321.7890, 32.00372
322.2711, 30.89728
322.7532, 44.21844
323.2353, 58.96240
323.7174, 67.16101
324.1996, 62.03558
324.6817, 56.60217
325.1638, 52.92389
325.6459, 50.41040
326.1280, 46.95056
326.6101, 40.10321
327.0923, 33.95306
327.5744, 30.59674
328.0565, 33.89648
328.5386, 34.28217
329.0207, 28.83673
329.5028, 20.54901
329.9850, 16.33380
330.4671, 19.20343
330.9492, 23.04956
331.4313, 26.22650
331.9134, 29.63995
332.3955, 29.79889
332.8777, 22.95441
333.3598, 14.63245
333.8419, 14.50427
334.3240, 29.65442
334.8061, 40.97412
335.2882, 40.86371
335.7704, 26.38293
336.2525, 20.00800
336.7346, 25.10602
337.2167, 34.29297
337.6988, 38.19464
338.1809, 35.33466
338.6631, 33.20355
339.1452, 33.53687
339.6273, 35.79547
340.1094, 34.25458
340.5915, 28.44897
341.0736, 22.14105
341.5558, 19.49359
342.0379, 20.48505
342.5200, 19.20081
343.0021, 13.85052
343.4842, 6.014893
343.9663, 0.2192380
344.4485, 5.025574
344.9306, 7.667480
345.4127, 5.962585
345.8948, 0.6650390
346.3769, 1.974243
346.8590, 0.6135250
347.3412, 3.056946
347.8233, 7.663269
348.3054, 13.03894
348.7875, 16.11249
349.2696, 12.47931
349.7517, 4.905762
350.2339, 0.5355220
350.7160, 0.1120000
351.1981, 3.518494
351.6802, 14.21222
352.1623, 29.80792
352.6444, 41.31744
353.1266, 43.13458
353.6087, 38.28491
354.0908, 29.44769
354.5729, 16.35162
355.0550, 3.652222
355.5371, 6.429260
356.0193, 13.23010
356.5014, 15.31427
356.9835, 10.80347
357.4656, 2.253601
357.9477, 12.32111
358.4298, 32.44141
358.9120, 44.70959
359.3941, 34.94836
359.8762, 15.61914
360.3583, 0.1990970
360.8404, 6.138000
361.3225, 9.402893
361.8047, 13.39166
362.2868, 17.69086
362.7689, 20.02161
363.2510, 15.71997
363.7331, 11.46545
364.2152, 11.79095
364.6974, 19.28241
365.1795, 28.86755
365.6616, 42.36462
366.1437, 57.41992
366.6258, 67.78064
367.1079, 64.12354
367.5901, 62.46735
368.0722, 70.67181
368.5543, 97.83514
369.0364, 115.8806
369.5185, 116.0035
370.0006, 108.8411
370.4828, 110.0096
370.9649, 129.4294
371.4470, 144.9216
371.9291, 149.2417
372.4112, 139.9500
372.8933, 138.0426
373.3755, 144.7235
373.8576, 157.4790
374.3397, 175.6294
374.8218, 203.7763
375.3039, 224.2451
375.7860, 230.0555
376.2682, 224.3766
376.7503, 233.2935
377.2324, 263.1752
377.7145, 290.9578
378.1966, 296.7896
378.6787, 278.3787
379.1609, 265.1052
379.6430, 260.7679
380.1251, 263.0131
380.6072, 268.6835
381.0894, 278.0453
381.5715, 283.8446
382.0536, 280.2267
382.5357, 268.9633
383.0178, 259.4224
383.4999, 252.5018
383.9821, 245.6617
384.4642, 233.1729
384.9463, 216.6339
385.4284, 204.8094
385.9105, 204.7442
386.3926, 210.7405
386.8748, 213.1487
387.3569, 211.6971
387.8390, 209.3583
388.3211, 209.8110
388.8032, 211.2106
389.2853, 209.7864
389.7675, 197.1569
390.2496, 188.4182
390.7317, 203.5015
391.2138, 236.5890
391.6959, 260.1969
392.1780, 249.9843
392.6602, 229.4565
393.1423, 218.5915
393.6244, 222.5389
394.1065, 232.9668
394.5886, 249.6208
395.0707, 270.8119
395.5529, 292.7102
396.0350, 313.0101
396.5171, 334.4520
396.9992, 357.7961
397.4813, 382.2920
397.9634, 411.1726
398.4456, 450.2316
398.9277, 491.9845
399.4098, 528.2168
399.8919, 550.6003
400.3740, 575.9154
400.8561, 605.5292
401.3383, 639.0503
401.8204, 680.5880
402.3025, 735.6691
402.7846, 793.3062
403.2667, 845.3784
403.7488, 885.6430
404.2310, 935.4273
404.7131, 1000.014
405.1952, 1073.294
405.6773, 1138.398
406.1594, 1192.249
406.6415, 1247.397
407.1237, 1312.784
407.6058, 1388.966
408.0879, 1458.427
408.5700, 1519.187
409.0521, 1576.352
409.5342, 1638.921
410.0164, 1705.725
410.4985, 1764.228
410.9806, 1809.057
411.4627, 1843.448
411.9448, 1878.353
412.4269, 1914.545
412.9091, 1938.547
413.3912, 1936.448
413.8733, 1912.207
414.3554, 1873.565
414.8375, 1818.734
415.3196, 1756.376
415.8018, 1698.780
416.2839, 1642.556
416.7660, 1574.274
417.2481, 1481.740
417.7302, 1379.880
418.2123, 1279.048
418.6945, 1178.475
419.1766, 1088.269
419.6587, 1022.186
420.1408, 969.1657
420.6229, 913.8282
421.1050, 840.0826
421.5872, 772.6669
422.0693, 721.6237
422.5514, 687.9237
423.0335, 661.7390
423.5156, 647.5378
423.9977, 635.7745
424.4799, 619.2312
424.9620, 582.0755
425.4441, 558.6699
425.9262, 557.7114
426.4083, 572.7682
426.8904, 581.2453
427.3726, 578.7508
427.8547, 575.1494
428.3368, 573.0996
428.8189, 570.1806
429.3010, 578.2960
429.7831, 601.6243
430.2653, 631.2073
430.7474, 654.2460
431.2295, 668.9680
431.7116, 684.6078
432.1937, 703.4407
432.6758, 725.4177
433.1580, 749.3389
433.6401, 774.7426
434.1222, 805.0969
434.6043, 846.8831
435.0864, 897.6909
435.5685, 942.6144
436.0507, 976.8979
436.5328, 1008.812
437.0149, 1051.372
437.4970, 1102.704
437.9791, 1154.980
438.4612, 1201.090
438.9434, 1245.836
439.4255, 1295.526
439.9076, 1350.445
440.3897, 1409.659
440.8718, 1473.484
441.3539, 1539.971
441.8361, 1606.196
442.3182, 1670.795
442.8003, 1735.374
443.2824, 1797.481
443.7645, 1858.656
444.2466, 1928.293
444.7288, 2017.424
445.2109, 2110.463
445.6930, 2196.866
446.1751, 2276.938
446.6572, 2349.133
447.1393, 2407.223
447.6215, 2458.142
448.1036, 2514.429
448.5857, 2581.655
449.0678, 2648.659
449.5499, 2717.129
450.0320, 2788.265
450.5142, 2840.446
450.9963, 2868.612
451.4784, 2884.528
451.9605, 2898.909
452.4426, 2914.252
452.9247, 2918.701
453.4069, 2910.786
453.8890, 2890.981
454.3711, 2858.216
454.8532, 2811.199
455.3353, 2762.315
455.8174, 2724.484
456.2996, 2692.676
456.7817, 2641.130
457.2638, 2567.414
457.7459, 2481.208
458.2280, 2383.165
458.7101, 2280.073
459.1923, 2189.301
459.6744, 2125.946
460.1565, 2072.311
460.6386, 2009.315
461.1207, 1937.923
461.6028, 1868.401
462.0850, 1812.911
462.5671, 1759.207
463.0492, 1695.502
463.5313, 1614.182
464.0135, 1534.229
464.4956, 1465.554
464.9777, 1403.856
465.4598, 1343.939
465.9419, 1281.230
466.4240, 1222.874
466.9062, 1172.701
467.3883, 1131.384
467.8704, 1090.943
468.3525, 1057.426
468.8346, 1019.330
469.3167, 967.1003
469.7989, 886.3731
470.2810, 818.6541
470.7631, 769.3398
471.2452, 733.2336
471.7273, 695.4941
472.2094, 654.0120
472.6916, 617.2264
473.1737, 592.1552
473.6558, 578.2836
474.1379, 549.1873
474.6200, 501.5090
475.1021, 451.1066
475.5843, 415.6238
476.0664, 393.3413
476.5485, 373.2580
477.0306, 353.6545
477.5127, 333.8414
477.9948, 313.0684
478.4770, 291.2705
478.9591, 268.1948
479.4412, 240.5526
479.9233, 212.7838
480.4054, 190.5159
480.8875, 174.6354
481.3697, 162.5674
481.8518, 154.6523
482.3339, 149.0248
482.8160, 143.2894
483.2981, 140.4292
483.7802, 133.5253
484.2624, 116.1564
484.7445, 90.53381
485.2266, 71.81934
485.7087, 68.73004
486.1908, 68.61584
486.6729, 65.29669
487.1551, 57.19165
487.6372, 48.98920
488.1193, 40.09039
488.6014, 31.51727
489.0835, 23.76294
489.5656, 14.98169
490.0478, 12.30103
490.5299, 20.65576
491.0120, 37.26556
491.4941, 40.93591
491.9762, 29.66064
492.4583, 15.15637
492.9405, 5.945740
493.4226, 1.269531
493.9047, 3.648865
494.3868, 9.278137
494.8689, 15.57330
495.3510, 23.77808
495.8332, 32.96710
496.3153, 40.07837
496.7974, 45.31335
497.2795, 46.90649
497.7616, 39.54523
498.2437, 24.37421
498.7259, 13.20209
499.2080, 16.58325
499.6901, 25.27679
500.1722, 30.79236
500.6543, 29.61261
501.1364, 28.79584
501.6186, 32.23083
502.1007, 37.26270
502.5828, 39.30890
503.0649, 32.94281
503.5470, 28.25690
504.0291, 29.99475
504.5113, 38.44073
504.9934, 39.21130
505.4755, 27.89111
505.9576, 14.23236
506.4397, 4.535217
506.9218, 1.1597000E-02
507.4040, 4.469360
507.8861, 8.778503
508.3682, 13.57758
508.8503, 20.16211
509.3324, 28.56128
509.8145, 37.73901
510.2967, 47.50861
510.7788, 57.67639
511.2609, 67.84039
511.7430, 77.98901
512.2252, 87.73468
512.7073, 93.17920
513.1894, 98.79016
513.6715, 113.6882
514.1536, 142.5562
514.6357, 172.6849
515.1179, 192.1906
515.6000, 205.9637
516.0821, 222.9693
516.5642, 250.2181
517.0463, 278.6686
517.5284, 303.9149
518.0106, 325.9022
518.4927, 348.4687
518.9748, 367.5736
519.4569, 390.8074
519.9390, 422.9553
520.4211, 470.5256
520.9033, 515.6838
521.3854, 555.8782
521.8675, 595.2457
522.3496, 640.9566
522.8317, 696.1418
523.3138, 749.0651
523.7960, 793.1757
524.2781, 831.8448
524.7602, 885.3236
525.2423, 955.4306
525.7244, 1028.195
526.2065, 1091.603
526.6887, 1148.117
527.1708, 1211.285
527.6529, 1283.692
528.1350, 1356.847
528.6171, 1424.290
529.0992, 1486.007
529.5814, 1540.894
530.0635, 1591.882
530.5456, 1633.749
531.0277, 1659.616
531.5098, 1671.497
531.9919, 1682.267
532.4741, 1695.802
532.9562, 1711.154
533.4383, 1728.544
533.9204, 1749.742
534.4025, 1767.861
534.8846, 1777.047
535.3668, 1784.776
535.8489, 1799.884
536.3310, 1831.516
536.8131, 1855.057
537.2952, 1863.527
537.7773, 1861.250
538.2595, 1869.306
538.7416, 1891.470
539.2237, 1911.595
539.7058, 1922.086
540.1879, 1923.225
540.6700, 1916.341
541.1522, 1901.791
541.6343, 1877.691
542.1164, 1840.091
542.5985, 1791.186
543.0806, 1737.139
543.5627, 1678.839
544.0449, 1617.127
544.5270, 1554.726
545.0091, 1489.561
545.4912, 1417.523
545.9733, 1323.602
546.4554, 1232.116
546.9376, 1163.268
547.4197, 1121.345
547.9018, 1068.606
548.3839, 982.6099
548.8660, 889.9533
549.3481, 810.4268
549.8303, 744.4691
550.3124, 693.1879
550.7945, 660.9972
551.2766, 641.7093
551.7587, 623.3360
552.2408, 606.3094
552.7230, 588.0328
553.2051, 564.8283
553.6872, 538.9736
554.1693, 528.1549
554.6514, 533.6909
555.1335, 543.4203
555.6157, 548.7356
556.0978, 551.4752
556.5799, 554.4113
557.0620, 556.2433
557.5441, 561.3305
558.0262, 578.5491
558.5084, 602.5516
558.9905, 622.6818
559.4726, 628.0385
559.9547, 634.1609
560.4368, 648.6428
560.9189, 671.6411
561.4011, 702.1495
561.8832, 750.9608
562.3653, 796.9226
562.8474, 834.8474
563.3295, 869.6968
563.8116, 874.1084
564.2938, 826.6503
564.7759, 766.6616
565.2580, 728.7387
565.7401, 718.8229
566.2222, 710.6895
566.7043, 701.5795
567.1865, 692.8867
567.6686, 685.9576
568.1507, 680.6631
568.6328, 683.0620
569.1149, 698.3215
569.5970, 722.5411
570.0792, 747.0286
570.5613, 771.5093
571.0434, 795.4716
571.5255, 818.4845
572.0076, 841.2524
572.4897, 864.6606
572.9719, 887.9202
573.4540, 913.8632
573.9361, 946.0920
574.4182, 980.8283
574.9003, 1013.191
575.3824, 1037.045
575.8646, 1064.000
576.3467, 1100.660
576.8288, 1143.531
577.3109, 1177.037
577.7930, 1200.123
578.2751, 1215.223
578.7573, 1221.743
579.2394, 1218.963
579.7215, 1219.935
580.2036, 1228.067
580.6857, 1231.680
581.1678, 1216.084
581.6500, 1183.503
582.1321, 1151.691
582.6142, 1124.700
583.0963, 1100.493
583.5784, 1077.503
584.0605, 1055.340
584.5427, 1030.962
585.0248, 999.5105
585.5069, 968.1739
585.9890, 942.2124
586.4711, 921.6346
586.9532, 904.0552
587.4354, 891.3412
587.9175, 879.1296
588.3996, 865.2086
588.8817, 850.0794
589.3638, 833.2108
589.8459, 808.0668
590.3281, 783.3165
590.8102, 767.6742
591.2923, 767.9483
591.7744, 766.8624
592.2565, 763.6753
592.7386, 756.5508
593.2208, 738.3586
593.7029, 708.3796
594.1850, 682.6052
594.6671, 672.5527
595.1492, 672.1718
595.6313, 668.2038
596.1135, 660.5120
596.5956, 647.2965
597.0777, 625.1259
597.5598, 597.5257
598.0419, 569.2933
598.5240, 541.5414
599.0062, 510.8961
599.4883, 468.8162
599.9704, 425.5547
600.4525, 392.5159
600.9346, 381.2161
601.4167, 369.7936
601.8989, 356.0154
602.3810, 340.1723
602.8631, 321.6573
603.3452, 298.0294
603.8273, 276.8451
604.3094, 260.9163
604.7916, 249.8176
605.2737, 240.1058
605.7558, 231.9070
606.2379, 223.2902
606.7200, 210.1252
607.2021, 195.0863
607.6843, 187.5543
608.1664, 189.6301
608.6485, 192.9137
609.1306, 191.4495
609.6127, 185.5995
610.0948, 175.6797
610.5770, 154.3486
611.0591, 137.2153
611.5412, 136.5173
612.0233, 145.7270
612.5054, 147.3745
612.9875, 128.9455
613.4697, 111.8724
613.9518, 104.4437
614.4339, 106.7021
614.9160, 100.5219
615.3981, 82.02283
615.8802, 62.82874
616.3624, 50.26849
616.8445, 44.51630
617.3266, 41.38593
617.8087, 41.23199
618.2908, 41.36548
618.7729, 38.16370
619.2551, 32.61157
619.7372, 27.73810
620.2193, 24.96783
620.7014, 22.10718
621.1835, 15.65888
621.6656, 7.502441
622.1478, 1.921570
622.6299, 0.4976200
623.1120, 1.146729
623.5941, 11.42218
624.0762, 29.73755
624.5583, 37.78351
625.0405, 27.40411
625.5226, 12.79810
626.0047, 1.120728
626.4868, 15.63202
626.9689, 23.11182
627.4510, 22.02460
627.9332, 17.19849
628.4153, 12.11469
628.8974, 7.055725
629.3795, 7.363647
629.8616, 15.71271
630.3438, 25.34729
630.8259, 26.29883
631.3080, 20.89221
631.7901, 15.41382
632.2722, 12.21143
632.7543, 10.36615
633.2365, 10.44879
633.7186, 11.68896
634.2007, 10.73889
634.6828, 4.006287
635.1649, 3.127625
635.6470, 8.959717
636.1292, 14.11023
636.6113, 13.59882
637.0934, 3.689331
637.5755, 7.098145
638.0576, 13.26605
638.5397, 14.82721
639.0219, 10.05212
639.5040, 3.513611
639.9861, 17.28143
640.4682, 16.65411
640.9503, 4.675232
641.4324, 4.066833
641.9146, 4.015198
642.3967, 0.5292970
642.8788, 1.677246
643.3609, 2.619690
643.8430, 2.427246
644.3251, 0.1875610
644.8073, 2.334595
645.2894, 2.884399
645.7715, 1.647522
646.2536, 5.092712
646.7357, 28.00049
647.2178, 42.80548
647.7000, 33.95740
648.1821, 7.305786
648.6642, 31.06665
649.1463, 34.64685
649.6284, 26.69763
650.1105, 10.04529
650.5927, 13.62848
651.0748, 22.63159
651.5569, 10.35797
652.0390, 8.311707
652.5211, 15.87622
653.0032, 14.88464
653.4854, 11.16028
653.9675, 2.714966
654.4496, 3.487793
654.9317, 0.8561400
655.4138, 7.873413
655.8959, 14.41699
656.3781, 14.94128
656.8602, 14.02960
657.3423, 12.25647
657.8244, 9.603271
658.3065, 11.20135
658.7886, 20.19299
659.2708, 27.88330
659.7529, 27.65771
660.2350, 19.16669
660.7171, 13.82135
661.1992, 11.78809
661.6813, 13.05927
662.1635, 20.89398
662.6456, 31.91937
663.1277, 37.05518
663.6098, 32.59009
664.0919, 26.47729
664.5740, 25.99579
665.0562, 27.93628
665.5383, 27.19452
666.0204, 19.51947
666.5025, 11.73889
666.9846, 3.532898
667.4667, 3.507690
667.9489, 3.207520
668.4310, 9.713928
668.9131, 20.72943
669.3953, 24.14417
669.8774, 21.02972
670.3595, 22.79773
670.8416, 30.12567
671.3237, 37.44330
671.8058, 39.79596
672.2880, 39.28662
672.7701, 42.11243
673.2522, 48.83429
673.7343, 55.30194
674.2164, 56.98572
674.6985, 57.27374
675.1807, 60.40686
675.6628, 69.54236
676.1449, 76.42633
676.6270, 78.24988
677.1091, 76.49628
677.5912, 72.71021
678.0734, 61.14758
678.5555, 58.32825
679.0376, 70.87115
679.5197, 90.26099
680.0018, 93.82776
680.4839, 80.17773
680.9661, 68.84595
681.4482, 69.44965
681.9303, 75.47327
682.4124, 70.49585
682.8945, 56.66016
683.3766, 47.22412
683.8588, 53.87848
684.3409, 64.92731
684.8230, 71.30475
685.3051, 72.95343
685.7872, 73.93359
686.2693, 76.40430
686.7515, 78.09485
687.2336, 76.55469
687.7157, 69.01221
688.1978, 64.89679
688.6799, 67.02374
689.1620, 70.34241
689.6442, 68.25714
690.1263, 60.35071
690.6084, 55.94427
691.0905, 57.11700
691.5726, 59.28479
692.0547, 56.12891
692.5369, 49.52557
693.0190, 43.24615
693.5011, 35.82104
693.9832, 32.01587
694.4653, 38.35815
694.9474, 50.84015
695.4296, 59.72626
695.9117, 61.03705
696.3938, 60.50330
696.8759, 59.71204
697.3580, 59.32935
697.8401, 59.44409
698.3223, 60.76483
698.8044, 60.49548
699.2865, 55.26306
699.7686, 46.65405
700.2507, 46.08136
700.7328, 53.73022
701.2150, 62.96948
701.6971, 69.63757
702.1792, 73.87280
702.6613, 74.73718
703.1434, 71.75305
703.6255, 71.23419
704.1077, 80.73901
704.5898, 90.65686
705.0719, 93.85614
705.5540, 86.88306
706.0361, 82.19556
706.5182, 76.21149
707.0004, 72.20380
707.4825, 75.07916
707.9646, 86.89929
708.4467, 95.96765
708.9288, 101.2115
709.4109, 104.2828
709.8931, 104.6607
710.3752, 102.2489
710.8573, 99.70166
711.3394, 95.83533
711.8215, 94.58301
712.3036, 103.1658
712.7858, 118.3982
713.2679, 129.9762
713.7500, 128.9721
714.2321, 127.4051
714.7142, 131.1127
715.1964, 140.0354
715.6785, 146.2202
716.1606, 147.7722
716.6427, 149.4350
717.1248, 153.4971
717.6069, 159.8582
718.0891, 165.7263
718.5712, 170.9686
719.0533, 175.9507
719.5354, 183.1938
720.0175, 189.8870
720.4996, 188.0585
720.9818, 176.1860
721.4639, 165.7653
721.9460, 165.8325
722.4281, 170.7509
722.9102, 175.2496
723.3923, 178.3971
723.8745, 181.1053
724.3566, 183.3442
724.8387, 185.3404
725.3208, 187.2899
725.8029, 189.3858
726.2850, 191.4534
726.7672, 193.8902
727.2493, 195.2365
727.7314, 192.1193
728.2135, 185.1989
728.6956, 178.4747
729.1777, 173.8917
729.6599, 169.0601
730.1420, 160.1511
730.6241, 148.9677
731.1062, 139.6313
731.5883, 134.6105
732.0704, 131.0844
732.5526, 129.3178
733.0347, 128.6227
733.5168, 124.7596
733.9989, 115.3890
734.4810, 107.4501
734.9631, 104.1052
735.4453, 104.5407
735.9274, 102.3556
736.4095, 97.50537
736.8916, 91.43408
737.3737, 80.35132
737.8558, 70.60132
738.3380, 77.16339
738.8201, 99.81677
739.3022, 117.0043
739.7843, 111.8301
740.2664, 99.26831
740.7485, 89.79047
741.2307, 85.81207
741.7128, 81.45129
742.1949, 75.41052
742.6770, 69.93512
743.1591, 67.35382
743.6412, 68.53149
744.1234, 66.02087
744.6055, 58.49951
745.0876, 50.98492
745.5697, 50.30316
746.0518, 54.30646
746.5339, 57.47778
747.0161, 58.59869
747.4982, 58.60547
747.9803, 57.84406
748.4624, 56.46625
748.9445, 54.72388
749.4266, 51.20758
749.9088, 49.17444
750.3909, 49.83380
750.8730, 51.90112
751.3551, 53.80676
751.8372, 56.27899
752.3193, 55.39825
752.8015, 48.75226
753.2836, 40.47876
753.7657, 41.28729
754.2478, 49.15656
754.7299, 54.19055
755.2120, 47.62421
755.6942, 40.04816
756.1763, 43.50311
756.6584, 54.32507
757.1405, 61.22552
757.6226, 54.46143
758.1047, 49.15894
758.5869, 53.28156
759.0690, 64.55017
759.5511, 67.00677
760.0332, 56.78760
760.5153, 47.99933
760.9974, 47.89459
761.4796, 54.31049
761.9617, 56.77130
762.4438, 55.58771
762.9259, 55.17773
763.4080, 60.83075
763.8901, 67.59381
764.3723, 68.60480
764.8544, 63.65558
765.3365, 61.68896
765.8186, 73.26190
766.3007, 83.01971
766.7828, 79.29358
767.2650, 57.85303
767.7471, 49.70660
768.2292, 60.71838
768.7113, 72.11157
769.1934, 65.76105
769.6755, 44.63660
770.1577, 38.05670
770.6398, 48.69611
771.1219, 61.16644
771.6040, 59.52704
772.0861, 51.87225
772.5682, 48.52094
773.0504, 52.03668
773.5325, 57.50946
774.0146, 67.18970
774.4967, 75.37769
774.9788, 76.27252
775.4609, 63.37915
775.9431, 58.21362
776.4252, 64.08643
776.9073, 72.85651
777.3894, 73.21350
777.8715, 66.34851
778.3536, 63.59033
778.8358, 67.86877
779.3179, 73.06781
779.8000, 72.74316
780.2821, 68.98987
780.7642, 64.78931
781.2463, 60.16699
781.7285, 56.45227
782.2106, 53.50177
782.6927, 51.91718
783.1748, 52.84296
783.6569, 58.23566
784.1390, 61.62341
784.6212, 61.50848
785.1033, 59.65259
785.5854, 59.94714
786.0675, 61.86542
786.5496, 61.83209
787.0317, 56.99255
787.5139, 52.64752
787.9960, 56.17432
788.4781, 64.21625
788.9602, 69.86829
789.4423, 69.21210
789.9244, 67.36823
790.4066, 65.56689
790.8887, 63.73834
791.3708, 61.77368
791.8529, 60.43384
792.3350, 56.59137
792.8171, 47.23193
793.2993, 36.53552
793.7814, 38.19879
794.2635, 50.61597
794.7456, 59.92938
795.2277, 54.76129
795.7098, 46.16119
796.1920, 44.31073
796.6741, 47.60754
797.1562, 50.80328
797.6383, 52.97693
798.1204, 54.03864
798.6025, 53.32855
799.0847, 51.29181
799.5668, 50.19763
800.0489, 50.13470
800.5310, 50.66827
801.0131, 52.12378
801.4952, 53.94379
801.9774, 54.81696
802.4595, 54.69281
802.9416, 52.71417
803.4237, 45.47998
803.9058, 39.14032
804.3879, 39.35382
804.8701, 45.80902
805.3522, 52.34204
805.8343, 57.41846
806.3164, 62.74335
806.7985, 71.35626
807.2806, 81.91718
807.7628, 77.33868
808.2449, 55.01892
808.7270, 38.40735
809.2091, 49.19482
809.6912, 72.69269
810.1733, 75.67542
810.6555, 60.79126
811.1376, 48.14984
811.6197, 51.04187
812.1018, 58.81250
812.5839, 64.80518
813.0660, 68.72162
813.5482, 70.69354
814.0303, 71.28558
814.5124, 70.17987
814.9945, 66.53400
815.4766, 60.54419
815.9587, 57.71893
816.4409, 57.77899
816.9230, 59.39038
817.4051, 63.35565
817.8872, 68.02667
818.3693, 71.50043
818.8514, 73.63385
819.3336, 75.31030
819.8157, 80.06226
820.2978, 81.60352
820.7799, 73.74469
821.2620, 56.53003
821.7441, 48.60968
822.2263, 51.61115
822.7084, 57.72205
823.1905, 65.80493
823.6726, 74.39862
824.1547, 70.83539
824.6368, 55.83667
825.1190, 43.36420
825.6011, 43.17224
826.0832, 49.57611
826.5653, 60.69110
827.0474, 76.52271
827.5295, 85.34259
828.0117, 75.63983
828.4938, 67.06268
828.9759, 69.73401
829.4580, 83.91754
829.9401, 85.68292
830.4222, 72.99139
830.9044, 58.93018
831.3865, 53.17230
831.8686, 53.58484
832.3507, 56.56335
832.8328, 61.60901
833.3149, 64.00214
833.7971, 57.89728
834.2792, 50.69305
834.7614, 45.97046
835.2435, 43.83752
835.7256, 46.60345
836.2077, 58.32056
836.6898, 68.16223
837.1719, 69.37836
837.6541, 62.96588
838.1362, 58.13660
838.6183, 55.15649
839.1004, 54.71423
839.5825, 61.59778
840.0646, 68.66504
840.5468, 67.12408
841.0289, 57.30121
841.5110, 48.65802
841.9931, 43.25104
842.4752, 40.72278
842.9573, 42.25018
843.4395, 47.29675
843.9216, 48.47314
844.4037, 45.21228
844.8858, 41.58960
845.3679, 39.75238
845.8500, 39.24512
846.3322, 39.11176
846.8143, 39.36566
847.2964, 40.13971
847.7785, 43.32007
848.2606, 45.43219
848.7427, 42.48248
849.2249, 34.91705
849.7070, 34.96039
850.1891, 51.02808
850.6712, 58.83124
851.1533, 44.61908
851.6354, 15.20807
852.1176, 3.792847
852.5997, 9.134094
853.0818, 17.80414
853.5639, 24.92126
854.0460, 29.26001
854.5281, 27.91870
855.0103, 22.20508
855.4924, 17.93695
855.9745, 17.09113
856.4566, 17.86652
856.9387, 20.90326
857.4208, 25.05774
857.9030, 25.12415
858.3851, 20.68011
858.8672, 15.13940
859.3493, 7.419556
859.8314, 1.700195
860.3135, 10.50000
860.7957, 28.39368
861.2778, 38.01776
861.7599, 19.19299
862.2420, 3.182617
862.7241, 7.814636
863.2062, 26.48370
863.6884, 35.42157
864.1705, 30.06378
864.6526, 27.13092
865.1347, 32.50592
865.6168, 40.42072
866.0989, 35.13965
866.5811, 19.80963
867.0632, 9.732361
867.5453, 16.10126
868.0274, 22.12054
868.5095, 10.45728
868.9916, 9.576599
869.4738, 20.54871
869.9559, 9.847534
870.4380, 1.238647
870.9201, 4.039551
871.4022, 5.190308
871.8843, 2.024841
872.3665, 17.15454
872.8486, 25.82324
873.3307, 23.86218
873.8128, 16.87097
874.2949, 7.278198
874.7770, 1.599487
875.2592, 4.145996
875.7413, 6.972168
876.2234, 15.30188
876.7055, 15.41858
877.1876, 12.04456
877.6697, 8.773804
878.1519, 4.713989
878.6340, 7.790894
879.1161, 20.97888
879.5982, 32.51233
880.0803, 23.28284
880.5624, 3.701538
881.0446, 5.265137
881.5267, 2.447266
882.0088, 10.69714
882.4909, 11.56384
882.9730, 9.752075
883.4551, 8.804810
883.9373, 8.313477
884.4194, 10.63733
884.9015, 16.84680
885.3836, 22.95288
885.8657, 24.47119
886.3478, 23.07520
886.8300, 26.18921
887.3121, 34.21558
887.7942, 36.76843
888.2763, 18.77197
888.7584, 1.322632
889.2405, 9.032349
889.7227, 1.042725
890.2048, 6.075195
890.6869, 12.59558
891.1690, 17.06824
891.6511, 18.90125
892.1332, 18.20654
892.6154, 13.42908
893.0975, 4.875610
893.5796, 1.111328
894.0617, 3.255737
894.5438, 8.613403
895.0259, 4.458374
895.5081, 7.342163
895.9902, 12.69946
896.4723, 1.873047
896.9544, 6.823120
897.4365, 8.268921
897.9186, 3.920410
898.4008, 2.736816
898.8829, 11.48804
899.3650, 14.20239
899.8471, 3.026367
900.3292, 10.47754
900.8113, 12.56812
901.2935, 6.647339
901.7756, 0.3502200
902.2577, 1.283325
902.7398, 6.199463
903.2219, 19.12500
903.7040, 33.95764
904.1862, 38.51941
904.6683, 31.68225
905.1504, 28.44666
905.6325, 32.10913
906.1146, 39.75146
906.5967, 51.64270
907.0789, 63.72021
907.5610, 68.28955
908.0431, 58.02478
908.5252, 51.82849
909.0073, 52.62500
909.4894, 61.02600
909.9716, 82.10571
910.4537, 122.5270
910.9358, 140.8923
911.4179, 131.8646
911.9000, 118.7877
912.3821, 126.0833
912.8643, 144.9271
913.3464, 161.2751
913.8285, 173.4512
914.3106, 184.5323
914.7927, 191.3384
915.2748, 201.5388
915.7570, 219.9884
916.2391, 246.4417
916.7212, 278.0115
917.2033, 316.2225
917.6854, 351.5309
918.1675, 376.0398
918.6497, 395.2584
919.1318, 418.4695
919.6139, 445.1176
920.0960, 475.9266
920.5781, 513.9479
921.0602, 555.7616
921.5424, 595.6724
922.0245, 636.7161
922.5066, 694.0905
922.9887, 771.8901
923.4708, 853.0701
923.9529, 933.0830
924.4351, 1011.469
924.9172, 1081.293
925.3993, 1149.418
925.8814, 1232.042
926.3635, 1344.245
926.8456, 1459.915
927.3278, 1569.348
927.8099, 1675.559
928.2920, 1779.816
928.7741, 1873.199
929.2562, 1993.207
929.7383, 2146.434
930.2205, 2318.035
930.7026, 2490.771
931.1847, 2667.250
931.6668, 2849.448
932.1489, 3037.030
932.6310, 3242.640
933.1132, 3462.819
933.5953, 3708.361
934.0774, 3985.838
934.5595, 4297.900
935.0416, 4633.904
935.5237, 4989.332
936.0059, 5400.095
936.4880, 5907.728
936.9701, 6489.522
937.4522, 7092.460
937.9343, 7726.422
938.4164, 8399.675
938.8986, 9107.332
939.3807, 9881.509
939.8628, 10752.90
940.3449, 11716.30
940.8270, 12705.67
941.3091, 13716.18
941.7913, 14761.52
942.2734, 15852.34
942.7555, 16953.87
943.2376, 18032.72
943.7197, 19096.82
944.2018, 20181.69
944.6840, 21364.10
945.1661, 22480.50
945.6482, 23510.16
946.1303, 24419.10
946.6124, 25204.74
947.0945, 25891.65
947.5767, 26365.65
948.0588, 26626.12
948.5409, 26640.50
949.0230, 26375.73
949.5051, 25833.13
949.9872, 24986.60
950.4694, 23818.32
950.9515, 22473.98
951.4336, 20929.37
951.9157, 19300.38
952.3978, 17638.01
952.8799, 15935.48
953.3621, 14327.88
953.8442, 12825.88
954.3263, 11429.50
954.8084, 10137.20
955.2905, 8955.175
955.7726, 7896.108
956.2548, 6953.849
956.7369, 6121.379
957.2190, 5425.477
957.7011, 4809.623
958.1832, 4256.049
958.6653, 3765.118
959.1475, 3347.815
959.6296, 3011.106
960.1117, 2702.018
960.5938, 2406.110
961.0759, 2134.044
961.5580, 1896.473
962.0402, 1689.363
962.5223, 1502.905
963.0044, 1337.960
963.4865, 1187.120
963.9686, 1044.767
964.4507, 916.8064
964.9329, 813.7974
965.4150, 735.3022
965.8971, 660.2076
966.3792, 588.2911
966.8613, 519.7043
967.3434, 451.6890
967.8256, 389.6096
968.3077, 343.9152
968.7898, 314.1057
969.2719, 281.6670
969.7540, 241.7344
970.2361, 200.3939
970.7183, 156.6401
971.2004, 114.2318
971.6825, 92.77441
972.1646, 89.95825
972.6467, 86.16113
973.1288, 69.40088
973.6110, 52.94287
974.0931, 48.85278
974.5752, 52.21167
975.0573, 54.25903
975.5394, 49.23608
976.0215, 50.68115
976.5037, 59.45337
976.9858, 74.89502
977.4679, 96.57080
977.9500, 124.3525
978.4321, 158.7100
978.9142, 200.2932
979.3964, 240.5376
979.8785, 271.0454
980.3606, 300.1384
980.8427, 335.2173
981.3248, 377.2129
981.8069, 414.4509
982.2891, 446.6060
982.7712, 476.5354
983.2533, 504.1123
983.7354, 531.5718
984.2175, 570.0112
984.6996, 614.0977
985.1818, 645.4846
985.6639, 639.9067
986.1460, 637.9070
986.6281, 663.8083
987.1102, 698.7253
987.5923, 710.3208
988.0745, 695.7026
988.5566, 682.1675
989.0387, 675.1575
989.5208, 664.9336
990.0029, 639.3569
990.4850, 603.5510
990.9672, 564.3782
991.4493, 522.1223
991.9314, 480.4805
992.4135, 443.5505
992.8956, 403.7275
993.3777, 354.8926
993.8599, 298.1777
994.3420, 248.9460
994.8241, 207.1445
995.3062, 166.4641
995.7883, 116.2017
996.2704, 70.93945
996.7526, 42.08545
997.2347, 28.41113
997.7168, 25.72974
998.1990, 44.93579
998.6811, 51.37329
999.1632, 35.62866
999.6453, 12.01392
1000.127, 4.137207
1000.610, 8.640625
1001.092, 14.88745
1001.574, 21.09790
1002.056, 30.92310
1002.538, 51.01904
1003.020, 71.98706
1003.502, 83.55054
1003.984, 82.28027
1004.466, 94.12988
1004.949, 122.0210
1005.431, 151.6550
1005.913, 173.3508
1006.395, 189.4644
1006.877, 208.4568
1007.359, 226.8423
1007.841, 232.2251
1008.323, 199.8591
1008.806, 178.2781
1009.288, 183.9399
1009.770, 204.4524
1010.252, 215.8435
1010.734, 218.4473
1011.216, 229.6790
1011.698, 253.8584
1012.180, 283.2578
1012.662, 312.9988
1013.145, 342.4043
1013.627, 368.8794
1014.109, 388.1521
1014.591, 421.7609
1015.073, 472.8826
1015.555, 532.4595
1016.037, 599.0806
1016.519, 669.1888
1017.002, 723.4541
1017.484, 766.0491
1017.966, 815.9246
1018.448, 901.3921
1018.930, 977.7106
1019.412, 1013.502
1019.894, 1027.371
1020.376, 1061.773
1020.858, 1123.485
1021.341, 1168.039
1021.823, 1188.440
1022.305, 1191.177
1022.787, 1181.932
1023.269, 1160.901
1023.751, 1125.880
1024.233, 1074.010
1024.715, 1023.605
1025.198, 983.8064
1025.680, 939.1460
1026.162, 877.7886
1026.644, 804.8494
1027.126, 751.9545
1027.608, 717.0010
1028.090, 682.9796
1028.572, 633.2631
1029.054, 587.6638
1029.536, 555.8839
1030.019, 539.2461
1030.501, 542.1299
1030.983, 571.7102
1031.465, 598.0859
1031.947, 615.3127
1032.429, 638.6666
1032.911, 687.5841
1033.393, 755.0016
1033.876, 828.9652
1034.358, 908.4272
1034.840, 993.4480
1035.322, 1073.734
1035.804, 1172.963
1036.286, 1302.834
1036.768, 1461.213
1037.250, 1635.980
1037.733, 1827.809
1038.215, 2016.008
1038.697, 2190.985
1039.179, 2364.093
1039.661, 2551.142
1040.143, 2745.105
1040.625, 2938.888
1041.107, 3132.145
1041.589, 3323.071
1042.072, 3516.062
1042.554, 3692.425
1043.036, 3834.865
1043.518, 3943.579
1044.000, 4025.833
1044.482, 4080.776
1044.964, 4099.853
1045.446, 4088.902
1045.928, 4028.412
1046.411, 3911.247
1046.893, 3741.368
1047.375, 3518.475
1047.857, 3243.220
1048.339, 2952.000
1048.821, 2649.439
1049.303, 2355.660
1049.785, 2088.562
1050.268, 1845.727
1050.750, 1617.276
1051.232, 1403.224
1051.714, 1207.855
1052.196, 1031.365
1052.678, 873.3668
1053.160, 734.9023
1053.642, 614.0940
1054.125, 512.1532
1054.607, 425.1543
1055.089, 341.6729
1055.571, 242.8457
1056.053, 161.9153
1056.535, 120.1384
1057.017, 99.21729
1057.499, 70.88074
1057.981, 35.07336
1058.464, 2.163940
1058.946, 26.59290
1059.428, 50.66101
1059.910, 71.46814
1060.392, 85.70117
1060.874, 86.96472
1061.356, 72.70581
1061.838, 67.74829
1062.320, 78.49841
1062.803, 84.06262
1063.285, 75.12756
1063.767, 55.38721
1064.249, 30.97339
1064.731, 2.500000
1065.213, 27.39709
1065.695, 51.76282
1066.177, 85.61865
1066.660, 139.6589
1067.142, 199.8181
1067.624, 253.4061
1068.106, 300.9478
1068.588, 353.0157
1069.070, 409.3586
1069.552, 477.8604
1070.034, 567.8872
1070.516, 666.7812
1070.999, 764.3896
1071.481, 861.2715
1071.963, 967.6304
1072.445, 1084.378
1072.927, 1208.890
1073.409, 1339.603
1073.891, 1478.882
1074.373, 1629.116
1074.855, 1789.741
1075.338, 1958.171
1075.820, 2138.097
1076.302, 2308.289
1076.784, 2462.978
1077.266, 2615.072
1077.748, 2777.543
1078.230, 2942.632
1078.712, 3070.181
1079.195, 3165.173
1079.677, 3250.530
1080.159, 3347.318
1080.641, 3425.561
1081.123, 3468.030
1081.605, 3478.246
1082.087, 3469.946
1082.569, 3448.006
1083.052, 3377.391
1083.534, 3251.481
1084.016, 3109.114
1084.498, 2987.581
1084.980, 2862.576
1085.462, 2698.279
1085.944, 2498.271
1086.426, 2309.971
1086.908, 2140.036
1087.391, 1981.634
1087.873, 1837.094
1088.355, 1698.344
1088.837, 1542.053
1089.319, 1379.781
1089.801, 1243.844
1090.283, 1145.614
1090.765, 1057.287
1091.248, 968.8184
1091.730, 886.0947
1092.212, 812.6130
1092.694, 748.2952
1093.176, 692.8337
1093.658, 645.9507
1094.140, 602.8167
1094.622, 560.0200
1095.104, 521.5483
1095.587, 492.9277
1096.069, 470.3593
1096.551, 447.5052
1097.033, 423.0145
1097.515, 399.9834
1097.997, 377.5941
1098.479, 361.8789
1098.961, 364.5442
1099.443, 372.7849
1099.926, 368.0927
1100.408, 351.8655
1100.890, 339.5295
1101.372, 334.7581
1101.854, 333.3250
1102.336, 335.7762
1102.818, 339.7101
1103.300, 341.2209
1103.783, 340.6938
1104.265, 337.3088
1104.747, 329.4030
1105.229, 329.7827
1105.711, 353.4513
1106.193, 378.3292
1106.675, 393.7180
1107.157, 400.3003
1107.640, 399.9602
1108.122, 393.6609
1108.604, 392.7101
1109.086, 407.3883
1109.568, 420.6893
1110.050, 417.5688
1110.532, 406.8716
1111.014, 401.5875
1111.496, 407.0930
1111.979, 399.0834
1112.461, 376.1885
1112.943, 347.9851
1113.425, 324.3167
1113.907, 298.7274
1114.389, 256.3791
1114.871, 204.0332
1115.353, 169.1005
1115.835, 168.2430
1116.318, 161.2460
1116.800, 140.1954
1117.282, 114.6041
1117.764, 95.79602
1118.246, 81.97583
1118.728, 69.37799
1119.210, 58.22168
1119.692, 48.13281
1120.175, 40.46783
1120.657, 30.96118
1121.139, 17.71252
1121.621, 3.170227
1122.103, 7.725586
1122.585, 14.70422
1123.067, 16.78827
1123.549, 12.74475
1124.031, 6.693909
1124.514, 3.483643
1124.996, 10.82568
1125.478, 9.352112
1125.960, 1.038452
1126.442, 12.61639
1126.924, 25.38623
1127.406, 32.98553
1127.888, 30.15027
1128.370, 22.27484
1128.853, 9.342041
1129.335, 4.214600
1129.817, 9.681274
1130.299, 3.623657
1130.781, 0.1320190
1131.263, 0.5178830
1131.745, 1.149231
1132.227, 9.322998
1132.710, 16.96484
1133.192, 9.355408
1133.674, 10.18481
1134.156, 20.39777
1134.638, 10.13861
1135.120, 4.718628
1135.602, 9.971313
1136.084, 18.29694
1136.567, 18.60223
1137.049, 13.79871
1137.531, 8.577515
1138.013, 3.324951
1138.495, 2.919495
1138.977, 13.45654
1139.459, 24.26965
1139.941, 32.42743
1140.423, 37.91705
1140.906, 38.89447
1141.388, 36.80853
1141.870, 38.31104
1142.352, 48.04352
1142.834, 53.83472
1143.316, 43.18823
1143.798, 32.49286
1144.280, 34.74323
1144.762, 48.91132
1145.245, 52.30530
1145.727, 45.92596
1146.209, 43.88702
1146.691, 60.48981
1147.173, 75.13696
1147.655, 68.96198
1148.137, 55.73608
1148.619, 55.85486
1149.102, 72.55896
1149.584, 84.93292
1150.066, 92.23157
1150.548, 95.55243
1151.030, 92.86646
1151.512, 88.97546
1151.994, 88.83643
1152.476, 91.25024
1152.958, 90.93372
1153.441, 84.89050
1153.923, 86.78052
1154.405, 100.3717
1154.887, 113.2821
1155.369, 106.8112
1155.851, 94.69885
1156.333, 97.75641
1156.815, 116.8342
1157.297, 121.6878
1157.780, 100.0401
1158.262, 88.74036
1158.744, 100.4670
1159.226, 120.6205
1159.708, 125.3793
1160.190, 121.4359
1160.672, 121.7949
1161.154, 130.6328
1161.637, 133.9434
1162.119, 124.9135
1162.601, 117.6088
1163.083, 118.9824
1163.565, 125.3889
1164.047, 127.0073
1164.529, 125.5083
1165.011, 125.4201
1165.494, 128.2709
1165.976, 132.7038
1166.458, 140.1044
1166.940, 146.8863
1167.422, 151.6281
1167.904, 153.7462
1168.386, 147.5699
1168.868, 135.0477
1169.350, 125.6445
1169.833, 124.9553
1170.315, 127.3724
1170.797, 132.2294
1171.279, 138.2833
1171.761, 145.3873
1172.243, 153.2244
1172.725, 155.7751
1173.207, 153.2916
1173.689, 152.9781
1174.172, 162.4741
1174.654, 172.2194
1175.136, 179.7327
1175.618, 182.7594
1176.100, 173.7814
1176.582, 152.7916
1177.064, 143.7283
1177.546, 149.9117
1178.029, 157.9344
1178.511, 155.7023
1178.993, 152.6901
1179.475, 155.9517
1179.957, 164.1636
1180.439, 174.9601
1180.921, 189.3566
1181.403, 193.3911
1181.885, 182.3487
1182.368, 168.7517
1182.850, 159.6834
1183.332, 156.2055
1183.814, 162.5593
1184.296, 177.6751
1184.778, 182.3826
1185.260, 176.2965
1185.742, 168.1873
1186.224, 160.7591
1186.707, 154.3815
1187.189, 149.9266
1187.671, 145.6490
1188.153, 138.2342
1188.635, 125.8503
1189.117, 123.3995
1189.599, 132.8395
1190.081, 139.2250
1190.564, 133.7386
1191.046, 124.1747
1191.528, 116.5032
1192.010, 111.2764
1192.492, 110.4091
1192.974, 117.4449
1193.456, 120.8456
1193.938, 120.4595
1194.421, 117.2127
1194.903, 109.0998
1195.385, 100.3465
1195.867, 96.08148
1196.349, 95.94043
1196.831, 99.27008
1197.313, 109.1960
1197.795, 114.3098
1198.277, 113.5010
1198.760, 109.8208
1199.242, 104.8364
1199.724, 99.47247
1200.206, 93.82983
1200.688, 88.59845
1201.170, 87.74347
1201.652, 93.29712
1202.134, 100.9243
1202.616, 112.4946
1203.099, 119.2542
1203.581, 105.0731
1204.063, 83.68512
1204.545, 77.68982
1205.027, 86.71167
1205.509, 93.37622
1205.991, 94.79120
1206.473, 93.79138
1206.956, 90.39325
1207.438, 86.89813
1207.920, 87.87408
1208.402, 90.20990
1208.884, 89.02368
1209.366, 83.65875
1209.848, 76.97534
1210.330, 66.19379
1210.813, 61.22339
1211.295, 66.09155
1211.777, 75.50366
1212.259, 76.73926
1212.741, 77.84198
1213.223, 100.8985
1213.705, 157.6395
1214.187, 170.9409
1214.669, 116.5558
1215.151, 66.02985
1215.634, 48.18481
1216.116, 50.74402
1216.598, 58.14172
1217.080, 68.11420
1217.562, 77.24048
1218.044, 86.55493
1218.526, 87.27551
1219.008, 75.28052
1219.491, 63.38727
1219.973, 58.53674
1220.455, 57.83575
1220.937, 56.26544
1221.419, 54.18408
1221.901, 52.40051
1222.383, 50.98724
1222.865, 50.63013
1223.348, 52.13177
1223.830, 52.20013
1224.312, 46.00800
1224.794, 38.85913
1225.276, 43.58057
1225.758, 54.70459
1226.240, 60.25049
1226.722, 51.55273
1227.204, 45.19482
1227.687, 41.06305
1228.169, 39.97229
1228.651, 46.34827
1229.133, 53.88092
1229.615, 50.29865
1230.097, 38.97546
1230.579, 29.53510
1231.061, 23.04077
1231.543, 20.73706
1232.026, 23.26038
1232.508, 27.90308
1232.990, 34.75360
1233.472, 40.63702
1233.954, 38.50714
1234.436, 30.97687
1234.918, 27.79266
1235.400, 32.74359
1235.883, 36.97949
1236.365, 40.58856
1236.847, 39.84198
1237.329, 25.98712
1237.811, 9.115906
1238.293, 2.026611
1238.775, 3.656128
1239.257, 5.906555
1239.740, 8.878845
1240.222, 8.518433
1240.704, 3.353821
1241.186, 6.2256001E-02
1241.668, 9.460083
1242.150, 21.79993
1242.632, 25.42548
1243.114, 21.05914
1243.596, 18.71075
1244.078, 19.44659
1244.561, 17.65991
1245.043, 11.37067
1245.525, 7.680786
1246.007, 16.29718
1246.489, 29.38617
1246.971, 41.53534
1247.453, 51.19000
1247.936, 51.91583
1248.418, 42.07141
1248.900, 34.65265
1249.382, 32.72852
1249.864, 32.18445
1250.346, 30.46533
1250.828, 26.87701
1251.310, 18.98419
1251.792, 7.985596
1252.275, 3.561829
1252.757, 5.896667
1253.239, 9.478149
1253.721, 12.90161
1254.203, 15.57977
1254.685, 18.20026
1255.167, 20.79535
1255.649, 25.67261
1256.131, 31.85071
1256.614, 25.36963
1257.096, 7.286072
1257.578, 1.911377
1258.060, 6.808655
1258.542, 15.30499
1259.024, 8.391235
1259.506, 0.8657230
1259.988, 3.571594
1260.471, 0.7326660
1260.953, 3.464417
1261.435, 8.738464
1261.917, 10.07477
1262.399, 3.602539
1262.881, 0.5084840
1263.363, 10.66992
1263.845, 21.20624
1264.328, 25.89349
1264.810, 24.01550
1265.292, 27.60950
1265.774, 34.06738
1266.256, 30.95599
1266.738, 10.43939
1267.220, 0.4306030
1267.702, 17.76538
1268.184, 35.25763
1268.667, 22.94196
1269.149, 0.0000000E+00
##END=



