##NAMES=Hydroxylapatite
##RRUFFID=R100225
##IDEAL CHEMISTRY=Ca_5_(PO_4_)_3_OH
##LOCALITY=Sapo mine, Goiabeira, Minas Gerais, Brazil
##OWNER=RRUFF
##SOURCE=Luiz Menezes
##DESCRIPTION=Green hexagonal dipyramids
##STATUS=The identification of this mineral is not yet confirmed.
##URL=rruff.info/R100225
180.2268, 0.0000000E+00
180.7090, 0.3986820
181.1911, 2.298828
181.6732, 3.670959
182.1553, 2.591858
182.6374, 0.2971190
183.1195, 0.2471310
183.6017, 2.038574
184.0838, 4.067383
184.5659, 3.418945
185.0480, 0.6728520
185.5301, 1.079529
186.0123, 0.6766360
186.4944, 4.659363
186.9765, 6.404419
187.4586, 5.386658
187.9407, 3.612061
188.4228, 3.791931
188.9050, 5.781799
189.3871, 8.426758
189.8692, 11.51941
190.3513, 14.84998
190.8334, 17.47003
191.3155, 19.26477
191.7977, 20.47321
192.2798, 21.37042
192.7619, 21.96606
193.2440, 22.45093
193.7261, 22.94189
194.2082, 23.43756
194.6904, 23.99341
195.1725, 24.72009
195.6546, 25.33624
196.1367, 24.97070
196.6188, 23.53497
197.1009, 22.40167
197.5831, 22.42352
198.0652, 23.60370
198.5473, 24.76294
199.0294, 25.86743
199.5115, 26.85712
199.9937, 27.64984
200.4758, 28.21930
200.9579, 28.51440
201.4400, 28.44293
201.9221, 27.98267
202.4042, 27.22736
202.8864, 25.88776
203.3685, 24.52979
203.8506, 24.89911
204.3327, 27.48773
204.8148, 29.70435
205.2969, 29.60284
205.7791, 26.62817
206.2612, 25.57709
206.7433, 27.38867
207.2254, 30.76770
207.7075, 32.33923
208.1896, 31.71014
208.6718, 30.45422
209.1539, 29.29297
209.6360, 28.16193
210.1181, 27.55060
210.6002, 27.81537
211.0823, 28.45819
211.5645, 27.83435
212.0466, 25.33929
212.5287, 23.10022
213.0108, 22.32098
213.4929, 23.31134
213.9750, 24.67743
214.4572, 26.60571
214.9393, 28.75952
215.4214, 30.27808
215.9035, 31.18347
216.3856, 31.41260
216.8678, 30.73132
217.3499, 28.74988
217.8320, 27.13220
218.3141, 25.67151
218.7962, 24.55017
219.2783, 24.26318
219.7605, 24.98547
220.2426, 26.13855
220.7247, 27.57971
221.2068, 29.75244
221.6889, 30.78516
222.1710, 30.01782
222.6532, 28.19690
223.1353, 27.77600
223.6174, 29.69714
224.0995, 31.50293
224.5816, 31.89661
225.0637, 30.32397
225.5459, 28.80359
226.0280, 27.28540
226.5101, 25.89648
226.9922, 25.07788
227.4743, 25.22864
227.9564, 25.33435
228.4386, 24.82727
228.9207, 23.15735
229.4028, 22.19006
229.8849, 22.36975
230.3670, 23.15198
230.8492, 23.01514
231.3313, 21.47729
231.8134, 19.72681
232.2955, 18.34143
232.7776, 17.65198
233.2597, 16.53796
233.7419, 14.58337
234.2240, 12.33850
234.7061, 11.42371
235.1882, 12.97424
235.6703, 14.16199
236.1524, 13.59351
236.6346, 9.874634
237.1167, 7.641479
237.5988, 7.320435
238.0809, 8.224365
238.5630, 9.121460
239.0451, 9.814575
239.5273, 10.72473
240.0094, 12.21716
240.4915, 15.08521
240.9736, 16.28210
241.4557, 14.92383
241.9378, 12.26489
242.4200, 11.02979
242.9021, 12.26917
243.3842, 13.59119
243.8663, 13.67395
244.3484, 11.61072
244.8306, 10.28760
245.3127, 10.12598
245.7948, 10.69629
246.2769, 10.96033
246.7590, 10.56689
247.2411, 10.00500
247.7233, 9.675415
248.2054, 9.898804
248.6875, 9.136841
249.1696, 6.741455
249.6517, 3.811523
250.1338, 2.165771
250.6160, 2.300293
251.0981, 2.846436
251.5802, 3.470337
252.0623, 4.289429
252.5444, 4.781738
253.0265, 5.060547
253.5087, 4.922241
253.9908, 3.850098
254.4729, 1.048584
254.9550, 1.048828
255.4371, 1.587280
255.9192, 0.2431640
256.4014, 1.098022
256.8835, 2.281616
257.3656, 3.158081
257.8477, 3.235962
258.3298, 1.966919
258.8120, 1.180908
259.2941, 1.569214
259.7762, 3.262085
260.2583, 4.071167
260.7404, 3.603760
261.2225, 2.713379
261.7047, 2.254761
262.1868, 2.267456
262.6689, 2.619507
263.1510, 3.361450
263.6331, 4.446289
264.1152, 5.374878
264.5974, 6.126831
265.0795, 6.773315
265.5616, 7.342285
266.0437, 8.018555
266.5258, 8.253540
267.0079, 7.718384
267.4901, 6.597778
267.9722, 6.490845
268.4543, 7.898438
268.9364, 9.419434
269.4185, 9.910156
269.9006, 9.222656
270.3828, 8.085205
270.8649, 6.023560
271.3470, 3.640381
271.8291, 4.372925
272.3112, 9.525024
272.7933, 14.36963
273.2755, 14.95300
273.7576, 10.55078
274.2397, 6.663208
274.7218, 3.588013
275.2039, 1.606323
275.6860, 2.181641
276.1682, 6.060547
276.6503, 9.775269
277.1324, 10.96924
277.6145, 9.439819
278.0966, 8.071533
278.5787, 7.178955
279.0609, 6.556763
279.5430, 5.561768
280.0251, 4.096558
280.5072, 3.136963
280.9893, 3.592529
281.4715, 5.452148
281.9536, 6.386597
282.4357, 6.003784
282.9178, 5.240479
283.3999, 5.984375
283.8820, 8.323975
284.3642, 10.21362
284.8463, 10.18970
285.3284, 8.535889
285.8105, 8.140869
286.2926, 9.027710
286.7747, 10.75977
287.2569, 13.41772
287.7390, 16.90149
288.2211, 18.76416
288.7032, 16.92456
289.1853, 12.47595
289.6674, 10.66040
290.1496, 11.79675
290.6317, 13.53955
291.1138, 13.10803
291.5959, 10.97864
292.0780, 9.143799
292.5602, 8.623169
293.0423, 8.862549
293.5244, 7.852173
294.0065, 5.555176
294.4886, 3.140137
294.9707, 1.376343
295.4529, 0.3167720
295.9350, 0.2271730
296.4171, 1.686279
296.8992, 3.692383
297.3813, 4.299316
297.8634, 3.594849
298.3456, 2.723267
298.8277, 3.077515
299.3098, 3.887939
299.7919, 3.080566
300.2740, 0.6530760
300.7561, 4.564331
301.2383, 4.260010
301.7204, 0.5991210
302.2025, 2.447876
302.6846, 1.412964
303.1667, 1.481445
303.6488, 2.707275
304.1310, 1.374390
304.6131, 0.5917970
305.0952, 1.359619
305.5773, 1.198120
306.0594, 0.7771000
306.5415, 0.4803470
307.0237, 0.3364260
307.5058, 0.3698730
307.9879, 0.4707030
308.4700, 1.006592
308.9521, 3.100464
309.4343, 5.892578
309.9164, 7.773438
310.3985, 7.330078
310.8806, 6.197388
311.3627, 5.850220
311.8448, 6.383911
312.3270, 6.267700
312.8091, 2.936035
313.2912, 1.053833
313.7733, 2.654907
314.2554, 2.337891
314.7375, 7.247803
315.2197, 8.191406
315.7018, 5.587646
316.1839, 2.910522
316.6660, 0.8543700
317.1481, 0.1381840
317.6302, 0.4742430
318.1124, 4.803711
318.5945, 7.932251
319.0766, 7.566040
319.5587, 4.643311
320.0408, 2.407104
320.5229, 2.447388
321.0051, 3.047852
321.4872, 3.114380
321.9693, 1.487061
322.4514, 1.167358
322.9335, 4.168701
323.4156, 8.764526
323.8978, 11.64624
324.3799, 10.76648
324.8620, 9.385132
325.3441, 8.740479
325.8262, 9.349487
326.3083, 9.591553
326.7905, 8.369141
327.2726, 6.883057
327.7547, 6.653564
328.2368, 10.01831
328.7189, 12.46436
329.2010, 12.77368
329.6832, 10.67273
330.1653, 9.298828
330.6474, 8.692383
331.1295, 8.765747
331.6116, 9.673584
332.0938, 12.88098
332.5759, 14.54871
333.0580, 13.65417
333.5401, 10.58704
334.0222, 8.236328
334.5043, 6.858154
334.9865, 5.818237
335.4686, 4.607666
335.9507, 2.714600
336.4328, 2.148438
336.9149, 3.542236
337.3970, 6.098389
337.8792, 7.609863
338.3613, 7.980713
338.8434, 7.738159
339.3255, 6.927856
339.8076, 5.414063
340.2898, 4.657593
340.7719, 5.032227
341.2540, 5.575439
341.7361, 4.439941
342.2182, 1.339600
342.7003, 0.7030030
343.1825, 0.2788090
343.6646, 2.222534
344.1467, 4.079712
344.6288, 5.265259
345.1109, 6.079956
345.5930, 6.887085
346.0752, 7.622681
346.5573, 8.138672
347.0394, 8.670044
347.5215, 8.710083
348.0036, 6.222290
348.4857, 1.292114
348.9679, 2.443481
349.4500, 1.048218
349.9321, 3.754883
350.4142, 6.802002
350.8963, 6.968628
351.3784, 6.077759
351.8606, 6.621094
352.3427, 8.161865
352.8248, 9.119507
353.3069, 7.937988
353.7890, 5.881714
354.2711, 4.614136
354.7533, 4.274170
355.2354, 4.586548
355.7175, 6.174194
356.1996, 8.156982
356.6817, 9.006348
357.1638, 6.880493
357.6460, 4.236084
358.1281, 2.732178
358.6102, 2.171509
359.0923, 2.330933
359.5744, 4.155640
360.0565, 6.150146
360.5387, 6.917358
361.0208, 5.251709
361.5029, 3.131592
361.9850, 1.049805
362.4671, 0.7221680
362.9492, 1.506592
363.4314, 0.5173340
363.9135, 2.466064
364.3956, 2.423706
364.8777, 1.251831
365.3598, 3.555786
365.8419, 2.292236
366.3241, 0.7393800
366.8062, 2.812988
367.2883, 2.697510
367.7704, 2.375122
368.2526, 2.415283
368.7347, 2.951538
369.2168, 3.137817
369.6989, 2.563354
370.1810, 1.881836
370.6631, 1.634155
371.1453, 1.985962
371.6274, 2.275024
372.1095, 2.904419
372.5916, 3.595825
373.0737, 3.791748
373.5558, 3.349731
374.0380, 2.616211
374.5201, 1.494507
375.0022, 0.6960450
375.4843, 0.7846680
375.9664, 2.369385
376.4485, 6.762451
376.9307, 8.369141
377.4128, 6.553467
377.8949, 4.444946
378.3770, 3.267212
378.8591, 2.972290
379.3412, 2.589600
379.8234, 1.982910
380.3055, 1.619385
380.7876, 2.543701
381.2697, 4.624756
381.7518, 5.431519
382.2339, 3.887207
382.7161, 1.030762
383.1982, 0.9708250
383.6803, 2.113647
384.1624, 2.387207
384.6445, 1.334595
385.1266, 0.5759280
385.6088, 2.350220
386.0909, 3.985962
386.5730, 5.007813
387.0551, 3.973511
387.5372, 1.688354
388.0193, 0.4812010
388.5015, 2.566528
388.9836, 5.804077
389.4657, 7.798462
389.9478, 8.380005
390.4299, 8.935669
390.9120, 10.92737
391.3942, 13.28491
391.8763, 14.63208
392.3584, 14.17932
392.8405, 12.90283
393.3226, 10.80969
393.8047, 8.124756
394.2869, 5.942749
394.7690, 4.439819
395.2511, 3.809937
395.7332, 4.445190
396.2154, 7.660522
396.6975, 9.496826
397.1796, 8.015991
397.6617, 4.834106
398.1438, 2.729980
398.6259, 2.136108
399.1081, 2.594849
399.5902, 4.452393
400.0723, 8.015869
400.5544, 10.20044
401.0365, 10.33093
401.5186, 9.862915
402.0008, 9.886108
402.4829, 11.11487
402.9650, 11.28040
403.4471, 9.442505
403.9292, 6.341187
404.4113, 5.356323
404.8935, 7.415283
405.3756, 9.454590
405.8577, 9.631470
406.3398, 7.497314
406.8219, 6.201050
407.3040, 6.380005
407.7862, 7.293335
408.2683, 7.654663
408.7504, 7.454224
409.2325, 7.036743
409.7146, 6.593018
410.1967, 6.051392
410.6789, 4.761108
411.1610, 2.676025
411.6431, 1.422607
412.1252, 2.903198
412.6073, 6.374634
413.0894, 9.702393
413.5716, 12.32080
414.0537, 14.75647
414.5358, 17.79980
415.0179, 21.15161
415.5000, 24.04517
415.9821, 25.25500
416.4643, 26.12976
416.9464, 28.28210
417.4285, 31.88696
417.9106, 35.35925
418.3927, 37.46069
418.8748, 38.88196
419.3570, 40.38098
419.8391, 42.41199
420.3212, 44.30676
420.8033, 45.69067
421.2854, 46.89868
421.7675, 48.65906
422.2497, 50.19800
422.7318, 52.90698
423.2139, 58.09229
423.6960, 68.44983
424.1781, 76.53687
424.6602, 79.62842
425.1424, 80.28284
425.6245, 82.20911
426.1066, 85.83533
426.5887, 90.22961
427.0709, 95.75684
427.5530, 102.3958
428.0351, 106.7396
428.5172, 107.5356
428.9993, 107.9318
429.4814, 110.3170
429.9636, 115.7864
430.4457, 119.2474
430.9278, 120.1788
431.4099, 118.9852
431.8920, 116.1189
432.3741, 111.3539
432.8563, 106.6891
433.3384, 103.5514
433.8205, 101.6914
434.3026, 98.34778
434.7847, 93.36755
435.2668, 88.00330
435.7490, 83.48022
436.2311, 79.61853
436.7132, 75.88403
437.1953, 72.13757
437.6774, 68.44092
438.1595, 64.56152
438.6417, 60.69556
439.1238, 57.59229
439.6059, 55.59644
440.0880, 54.65674
440.5701, 55.28821
441.0522, 57.84875
441.5344, 59.34607
442.0165, 56.80847
442.4986, 52.63367
442.9807, 49.69360
443.4628, 49.80017
443.9449, 50.26355
444.4271, 50.08398
444.9092, 49.35449
445.3913, 48.71680
445.8734, 48.02185
446.3555, 47.65979
446.8376, 48.05701
447.3198, 51.09277
447.8019, 51.06860
448.2840, 44.95190
448.7661, 36.97180
449.2482, 33.34485
449.7303, 37.04761
450.2125, 39.72156
450.6946, 39.43872
451.1767, 36.50452
451.6588, 33.75208
452.1409, 31.19226
452.6230, 28.80298
453.1052, 26.64343
453.5873, 24.74109
454.0694, 22.60034
454.5515, 20.03833
455.0337, 17.53564
455.5158, 15.86328
455.9979, 15.01746
456.4800, 15.01941
456.9621, 16.70374
457.4442, 19.01270
457.9264, 19.44556
458.4085, 18.04395
458.8906, 15.78943
459.3727, 12.83069
459.8548, 9.714600
460.3369, 7.282227
460.8191, 5.642456
461.3012, 4.926270
461.7833, 6.129761
462.2654, 8.323730
462.7475, 9.554077
463.2296, 7.942993
463.7118, 6.009155
464.1939, 5.371948
464.6760, 6.155029
465.1581, 7.066528
465.6402, 8.260010
466.1223, 8.923706
466.6045, 8.584106
467.0866, 4.878296
467.5687, 2.966187
468.0508, 4.438843
468.5329, 7.727051
469.0150, 9.325928
469.4972, 7.889771
469.9793, 6.755127
470.4614, 7.127441
470.9435, 9.127441
471.4256, 10.58728
471.9077, 11.80676
472.3899, 11.95178
472.8720, 9.233643
473.3541, 3.153320
473.8362, 0.9411620
474.3183, 4.822754
474.8004, 11.10022
475.2826, 11.81555
475.7647, 7.364746
476.2468, 3.416748
476.7289, 3.665283
477.2110, 6.286743
477.6931, 7.208374
478.1753, 6.399414
478.6574, 5.072998
479.1395, 3.425537
479.6216, 2.110352
480.1037, 2.359985
480.5858, 5.550293
481.0680, 8.415771
481.5501, 8.401123
482.0322, 6.466675
482.5143, 4.578857
482.9964, 2.683228
483.4786, 1.764404
483.9607, 3.264404
484.4428, 7.543701
484.9249, 9.430298
485.4070, 5.206299
485.8892, 8.6914003E-02
486.3713, 2.846924
486.8534, 0.7290040
487.3355, 0.5137940
487.8176, 0.1174320
488.2997, 1.037231
488.7819, 1.041992
489.2640, 0.3316650
489.7461, 2.408447
490.2282, 5.527222
490.7103, 9.518188
491.1924, 10.58875
491.6746, 8.206299
492.1567, 5.098511
492.6388, 3.126709
493.1209, 2.338867
493.6030, 3.637695
494.0851, 7.829712
494.5673, 12.26355
495.0494, 12.42322
495.5315, 9.344849
496.0136, 6.716431
496.4957, 6.850952
496.9778, 7.998535
497.4600, 8.220703
497.9421, 7.602173
498.4242, 7.081421
498.9063, 7.650269
499.3884, 8.348755
499.8705, 8.376953
500.3527, 7.460815
500.8348, 6.124756
501.3169, 3.752686
501.7990, 1.277588
502.2811, 2.8320000E-02
502.7632, 1.909058
503.2454, 3.266602
503.7275, 3.045288
504.2096, 1.424927
504.6917, 0.4194340
505.1738, 0.6669920
505.6559, 0.6975100
506.1381, 0.6076660
506.6202, 4.061279
507.1023, 5.218750
507.5844, 3.454590
508.0665, 0.4807130
508.5486, 1.459473
509.0308, 2.357178
509.5129, 2.941895
509.9950, 3.446045
510.4771, 3.674561
510.9592, 2.559814
511.4413, 0.3171390
511.9235, 0.6984860
512.4056, 2.393799
512.8877, 7.072510
513.3698, 9.307373
513.8519, 8.630615
514.3340, 7.859619
514.8162, 10.30396
515.2983, 13.38428
515.7804, 13.89795
516.2625, 8.418945
516.7446, 3.421143
517.2267, 1.803711
517.7089, 2.655273
518.1910, 3.710938
518.6731, 5.972412
519.1552, 7.042969
519.6373, 5.190674
520.1194, 8.5693002E-02
520.6016, 2.596191
521.0837, 0.4860840
521.5658, 2.291260
522.0479, 2.518066
522.5300, 1.125244
523.0121, 2.463867
523.4943, 0.4704590
523.9764, 3.142090
524.4585, 5.360107
524.9406, 6.088135
525.4227, 6.743408
525.9048, 7.727539
526.3870, 9.028564
526.8691, 11.44653
527.3513, 14.82520
527.8334, 16.54102
528.3155, 13.20483
528.7976, 7.620361
529.2797, 3.727051
529.7618, 2.038330
530.2440, 1.780762
530.7261, 3.383057
531.2082, 5.769531
531.6903, 7.501953
532.1724, 7.552002
532.6545, 7.489990
533.1367, 8.054932
533.6188, 8.968262
534.1009, 9.319092
534.5830, 9.109863
535.0651, 8.135010
535.5472, 5.787109
536.0294, 1.548096
536.5115, 7.2265998E-02
536.9936, 2.158936
537.4757, 5.309082
537.9578, 6.851074
538.4399, 6.509033
538.9221, 6.659424
539.4042, 7.903809
539.8863, 9.150391
540.3684, 8.044678
540.8505, 4.792725
541.3326, 1.895752
541.8148, 0.2304690
542.2969, 0.3786620
542.7790, 0.3005370
543.2611, 2.068848
543.7432, 3.395996
544.2253, 2.553711
544.7075, 1.149902
545.1896, 0.6857910
545.6717, 1.513184
546.1538, 2.340332
546.6359, 2.261475
547.1180, 2.061523
547.6002, 2.495361
548.0823, 4.331055
548.5644, 6.141846
549.0465, 8.255127
549.5286, 10.19189
550.0107, 10.42944
550.4929, 7.186279
550.9750, 4.924805
551.4571, 5.503418
551.9392, 8.945068
552.4213, 10.57446
552.9034, 9.919922
553.3856, 8.960449
553.8677, 9.788818
554.3498, 12.13818
554.8319, 12.48267
555.3140, 10.11255
555.7961, 7.023193
556.2783, 5.796387
556.7604, 5.974121
557.2425, 6.238281
557.7246, 5.882813
558.2067, 5.688232
558.6888, 6.749023
559.1710, 8.704346
559.6531, 10.23975
560.1352, 10.76025
560.6173, 10.64478
561.0994, 9.803955
561.5815, 8.102783
562.0637, 7.030273
562.5458, 7.032715
563.0279, 7.667236
563.5100, 8.740967
563.9921, 11.03491
564.4742, 11.98755
564.9564, 10.61523
565.4385, 8.834717
565.9206, 9.963623
566.4027, 14.56909
566.8848, 18.26855
567.3669, 19.47510
567.8491, 19.00757
568.3312, 19.23999
568.8133, 20.15112
569.2954, 21.60327
569.7775, 24.07446
570.2596, 26.88037
570.7418, 28.48535
571.2239, 28.83325
571.7060, 28.84375
572.1881, 28.32397
572.6702, 28.22656
573.1523, 29.85083
573.6345, 34.85938
574.1166, 39.15039
574.5987, 39.90796
575.0808, 39.22070
575.5629, 40.60767
576.0450, 50.03735
576.5272, 55.59375
577.0093, 52.95264
577.4914, 43.80884
577.9735, 39.67212
578.4556, 42.06909
578.9377, 45.55957
579.4199, 47.95581
579.9020, 49.23730
580.3841, 50.49023
580.8662, 51.93848
581.3483, 52.33398
581.8304, 48.58374
582.3126, 42.31665
582.7947, 39.56470
583.2768, 42.09595
583.7589, 46.40186
584.2410, 49.45142
584.7231, 51.45020
585.2053, 52.81787
585.6874, 52.83496
586.1696, 53.01660
586.6517, 53.97754
587.1338, 55.67822
587.6159, 58.05029
588.0980, 62.37402
588.5801, 66.11108
589.0623, 67.88159
589.5444, 67.29980
590.0265, 67.43677
590.5086, 69.51587
590.9907, 70.79248
591.4728, 69.02686
591.9550, 63.92065
592.4371, 57.58228
592.9192, 49.67969
593.4013, 42.06128
593.8834, 37.94995
594.3655, 36.89087
594.8477, 35.94922
595.3298, 34.49512
595.8119, 32.13477
596.2940, 27.45215
596.7761, 21.38623
597.2582, 16.77026
597.7404, 15.68237
598.2225, 16.08398
598.7046, 16.78271
599.1867, 17.65112
599.6688, 18.53467
600.1509, 20.09180
600.6331, 21.09937
601.1152, 20.58691
601.5973, 17.65796
602.0794, 15.26270
602.5615, 13.44482
603.0436, 12.12524
603.5258, 11.20483
604.0079, 10.66577
604.4900, 10.83813
604.9721, 12.07617
605.4542, 13.67188
605.9363, 14.24561
606.4185, 13.85620
606.9006, 12.91113
607.3827, 10.75854
607.8648, 8.708984
608.3469, 9.073486
608.8290, 11.51489
609.3112, 13.97729
609.7933, 15.90259
610.2754, 16.91968
610.7575, 16.26465
611.2396, 13.47998
611.7217, 11.71167
612.2039, 12.46851
612.6860, 14.11353
613.1681, 15.41846
613.6502, 15.79932
614.1323, 16.84302
614.6144, 19.45703
615.0966, 21.77905
615.5787, 20.65234
616.0608, 15.35132
616.5429, 11.45557
617.0250, 10.64502
617.5071, 11.61816
617.9893, 11.61963
618.4714, 10.68970
618.9535, 9.285400
619.4356, 7.685303
619.9177, 5.804688
620.3998, 2.862793
620.8820, 0.8867190
621.3641, 3.228760
621.8462, 2.069336
622.3283, 0.3833010
622.8104, 2.694580
623.2925, 4.847900
623.7747, 6.173828
624.2568, 5.791016
624.7389, 4.937988
625.2210, 4.620850
625.7031, 5.194824
626.1852, 5.473877
626.6674, 5.420166
627.1495, 4.966064
627.6316, 3.698486
628.1137, 1.558838
628.5958, 0.1296390
629.0779, 4.2969000E-02
629.5601, 0.6892090
630.0422, 2.423828
630.5243, 4.735840
631.0064, 5.666016
631.4885, 2.291260
631.9706, 1.687012
632.4528, 2.285889
632.9349, 0.3081050
633.4170, 2.506592
633.8991, 2.924805
634.3812, 2.347412
634.8633, 0.7614750
635.3455, 3.015137
635.8276, 3.766602
636.3097, 0.3500980
636.7918, 5.889160
637.2739, 10.18994
637.7560, 13.23438
638.2382, 14.89185
638.7203, 14.55688
639.2024, 13.16797
639.6845, 11.22144
640.1666, 8.955322
640.6487, 8.767334
641.1309, 12.44141
641.6130, 16.97339
642.0951, 18.33057
642.5772, 17.06738
643.0594, 14.66016
643.5415, 9.401123
644.0236, 5.353271
644.5057, 6.251221
644.9879, 11.49561
645.4700, 14.52710
645.9521, 12.24463
646.4342, 8.966064
646.9163, 6.568359
647.3984, 5.216553
647.8806, 4.007813
648.3627, 2.969727
648.8448, 2.197266
649.3269, 2.049072
649.8090, 2.552979
650.2911, 2.170898
650.7733, 0.6870120
651.2554, 1.031006
651.7375, 2.356934
652.2196, 3.097900
652.7017, 2.705811
653.1838, 0.7141110
653.6660, 1.747559
654.1481, 4.260498
654.6302, 6.498535
655.1123, 7.964844
655.5944, 7.098633
656.0765, 6.768066
656.5587, 8.134277
657.0408, 10.78906
657.5229, 13.04932
658.0050, 15.21655
658.4871, 16.19067
658.9692, 15.09644
659.4514, 12.20947
659.9335, 10.87256
660.4156, 11.23999
660.8977, 11.87817
661.3798, 11.63696
661.8619, 10.88916
662.3441, 10.99683
662.8262, 12.09570
663.3083, 12.50244
663.7904, 10.03857
664.2725, 6.605957
664.7546, 4.387451
665.2368, 4.305908
665.7189, 4.261963
666.2010, 3.437256
666.6831, 2.408936
667.1652, 1.845703
667.6473, 1.701416
668.1295, 2.361816
668.6116, 4.319824
669.0937, 6.687988
669.5758, 7.636230
670.0579, 7.103760
670.5400, 5.807129
671.0222, 3.391357
671.5043, 0.8964840
671.9864, 0.6523440
672.4685, 2.342285
672.9506, 4.529053
673.4327, 7.609375
673.9149, 9.876465
674.3970, 8.901123
674.8791, 5.233154
675.3612, 2.795898
675.8433, 5.017334
676.3254, 7.627930
676.8076, 8.042236
677.2897, 5.581299
677.7718, 4.773682
678.2539, 6.556885
678.7360, 8.723389
679.2181, 9.976074
679.7003, 10.54028
680.1824, 10.19263
680.6645, 8.485840
681.1466, 7.218750
681.6287, 9.194336
682.1108, 13.22559
682.5930, 15.89966
683.0751, 16.45068
683.5572, 15.82349
684.0393, 13.68994
684.5214, 11.18701
685.0035, 9.934570
685.4857, 11.93262
685.9678, 13.43994
686.4499, 12.60938
686.9320, 10.72144
687.4141, 10.75854
687.8962, 14.07275
688.3784, 16.77197
688.8605, 17.94702
689.3426, 17.96240
689.8247, 17.83057
690.3068, 17.68384
690.7889, 17.59473
691.2711, 17.44116
691.7532, 17.18506
692.2353, 16.85034
692.7174, 16.39258
693.1995, 15.37085
693.6816, 14.11401
694.1638, 12.36182
694.6459, 8.384033
695.1280, 1.897949
695.6101, 1.148438
696.0922, 4.573242
696.5743, 10.96289
697.0565, 13.59912
697.5386, 11.58643
698.0207, 10.07178
698.5028, 8.974609
698.9849, 8.626221
699.4670, 10.19482
699.9492, 13.30933
700.4313, 13.19287
700.9135, 8.590088
701.3956, 4.511230
701.8777, 8.287598
702.3598, 15.81348
702.8419, 19.82202
703.3240, 16.58667
703.8062, 12.88110
704.2883, 12.05225
704.7704, 12.91016
705.2525, 13.72827
705.7346, 14.86450
706.2167, 15.07690
706.6989, 13.88208
707.1810, 11.90942
707.6631, 10.17725
708.1452, 8.431641
708.6273, 8.924316
709.1094, 13.47168
709.5916, 19.54517
710.0737, 20.94946
710.5558, 18.42456
711.0379, 15.61377
711.5200, 14.24951
712.0021, 13.41943
712.4843, 11.96948
712.9664, 10.15747
713.4485, 9.524902
713.9306, 12.04199
714.4127, 14.52686
714.8948, 15.44556
715.3770, 14.79199
715.8591, 13.71289
716.3412, 11.97852
716.8233, 10.27173
717.3054, 9.083252
717.7875, 8.531494
718.2697, 8.294922
718.7518, 8.197754
719.2339, 7.901855
719.7160, 7.596436
720.1981, 7.336426
720.6802, 7.049316
721.1624, 6.727539
721.6445, 6.308838
722.1266, 5.714844
722.6087, 5.003906
723.0908, 4.243408
723.5729, 3.524170
724.0551, 2.501221
724.5372, 0.6342770
725.0193, 1.059082
725.5014, 1.406006
725.9835, 0.1350100
726.4656, 0.9855960
726.9478, 1.829590
727.4299, 2.374756
727.9120, 2.513184
728.3941, 2.322998
728.8762, 1.920410
729.3583, 1.109619
729.8405, 0.5456540
730.3226, 1.363037
730.8047, 2.687012
731.2868, 3.012207
731.7689, 0.5002440
732.2510, 2.290771
732.7332, 0.3928220
733.2153, 5.255371
733.6974, 7.871094
734.1795, 7.594482
734.6616, 6.622314
735.1437, 5.121094
735.6259, 3.582031
736.1080, 3.685303
736.5901, 5.201660
737.0722, 6.147461
737.5543, 4.485107
738.0364, 2.555664
738.5186, 3.423828
739.0007, 6.432373
739.4828, 9.349854
739.9649, 12.68701
740.4470, 14.30103
740.9291, 12.13794
741.4113, 6.555176
741.8934, 3.296387
742.3755, 3.590088
742.8576, 4.035889
743.3397, 3.036377
743.8218, 0.9260250
744.3040, 0.6171880
744.7861, 2.155762
745.2682, 3.746826
745.7503, 4.079346
746.2324, 3.720215
746.7145, 3.145508
747.1967, 2.459961
747.6788, 2.718262
748.1609, 6.490723
748.6430, 9.849121
749.1251, 9.784180
749.6072, 5.090088
750.0894, 1.862305
750.5715, 0.6218260
751.0536, 0.5031740
751.5357, 1.425049
752.0178, 3.637939
752.4999, 3.779053
752.9821, 1.495850
753.4642, 0.7668460
753.9463, 0.2353520
754.4284, 2.112549
754.9105, 4.964111
755.3926, 8.333496
755.8748, 10.50488
756.3569, 9.412109
756.8390, 7.184570
757.3211, 5.748535
757.8032, 5.822266
758.2853, 5.657227
758.7675, 4.575684
759.2496, 3.730957
759.7318, 4.692627
760.2139, 7.917969
760.6960, 8.916748
761.1781, 6.858398
761.6602, 4.291260
762.1423, 4.799561
762.6245, 7.207520
763.1066, 8.514648
763.5887, 7.780762
764.0708, 6.920898
764.5529, 7.323730
765.0350, 8.326904
765.5172, 9.139160
765.9993, 9.735107
766.4814, 9.833496
766.9635, 9.133789
767.4456, 8.097168
767.9277, 7.150391
768.4099, 6.134521
768.8920, 6.196533
769.3741, 7.801758
769.8562, 9.750244
770.3383, 10.59302
770.8204, 10.39624
771.3026, 9.177246
771.7847, 6.194092
772.2668, 3.682617
772.7489, 4.282715
773.2310, 6.125732
773.7131, 6.235596
774.1953, 2.462158
774.6774, 1.089600
775.1595, 4.778320
775.6416, 7.460693
776.1237, 6.509766
776.6058, 1.385498
777.0880, 3.349609
777.5701, 6.689697
778.0522, 8.820557
778.5343, 9.314453
779.0164, 8.732666
779.4985, 8.863281
779.9807, 11.94165
780.4628, 13.96558
780.9449, 10.00977
781.4270, 3.652344
781.9091, 1.625000
782.3912, 12.57593
782.8734, 18.49390
783.3555, 14.62158
783.8376, 5.486572
784.3197, 2.432861
784.8018, 5.951904
785.2839, 9.625488
785.7661, 11.94165
786.2482, 12.64917
786.7303, 9.901367
787.2124, 5.029053
787.6945, 1.817139
788.1766, 3.343262
788.6588, 5.721924
789.1409, 7.099854
789.6230, 7.682861
790.1051, 8.475342
790.5872, 9.954346
791.0693, 11.76465
791.5515, 14.43457
792.0336, 16.96289
792.5157, 15.82715
792.9978, 11.10962
793.4799, 7.337646
793.9620, 6.271973
794.4442, 6.991211
794.9263, 9.078613
795.4084, 11.86914
795.8905, 13.55322
796.3726, 12.05981
796.8547, 10.62231
797.3369, 10.83423
797.8190, 12.16846
798.3011, 12.61816
798.7832, 10.88501
799.2653, 10.83813
799.7474, 14.00098
800.2296, 18.96802
800.7117, 21.99487
801.1938, 23.18408
801.6759, 23.36206
802.1580, 23.34204
802.6401, 22.17285
803.1223, 17.17676
803.6044, 10.04468
804.0865, 5.143066
804.5686, 5.857666
805.0507, 7.887939
805.5328, 11.24634
806.0150, 14.91602
806.4971, 15.87720
806.9792, 13.08179
807.4613, 11.09399
807.9434, 11.47974
808.4255, 13.02515
808.9077, 12.73926
809.3898, 11.07910
809.8719, 10.09595
810.3540, 10.84399
810.8361, 12.30176
811.3182, 14.06616
811.8004, 15.92334
812.2825, 17.23999
812.7646, 17.56323
813.2467, 17.46997
813.7288, 17.11499
814.2109, 16.44556
814.6931, 15.06567
815.1752, 12.85742
815.6573, 11.46875
816.1394, 11.65308
816.6215, 12.53174
817.1037, 12.72949
817.5858, 12.41553
818.0679, 12.04126
818.5500, 10.94287
819.0322, 10.75122
819.5143, 12.62134
819.9964, 15.83105
820.4785, 19.06543
820.9606, 23.54980
821.4427, 25.25806
821.9249, 22.79688
822.4070, 17.98438
822.8891, 14.16406
823.3712, 11.33911
823.8533, 9.739990
824.3354, 9.884766
824.8176, 10.38770
825.2997, 9.347168
825.7818, 7.683350
826.2639, 6.928467
826.7460, 9.847656
827.2281, 11.08984
827.7103, 7.069580
828.1924, 1.865479
828.6745, 1.342285
829.1566, 7.023682
829.6387, 11.06226
830.1208, 11.95581
830.6030, 11.48535
831.0851, 12.83838
831.5672, 14.96167
832.0493, 14.66895
832.5314, 10.02954
833.0135, 5.100830
833.4957, 2.638672
833.9778, 1.870117
834.4599, 1.896729
834.9420, 2.393311
835.4241, 3.452393
835.9063, 5.465332
836.3884, 7.670410
836.8705, 9.783691
837.3526, 11.75708
837.8347, 9.679443
838.3168, 2.183350
838.7990, 4.444824
839.2811, 2.425049
839.7632, 4.007813
840.2453, 9.397949
840.7274, 13.05737
841.2095, 14.43701
841.6917, 10.55884
842.1738, 6.006348
842.6559, 4.539551
843.1380, 7.369141
843.6201, 8.859863
844.1022, 8.837402
844.5844, 8.082275
845.0665, 7.006592
845.5486, 5.841309
846.0307, 5.473633
846.5128, 6.038574
846.9949, 6.058594
847.4771, 3.981445
847.9592, 1.413818
848.4413, 0.7690430
848.9234, 2.729248
849.4055, 2.254883
849.8876, 2.288086
850.3698, 6.563477
850.8519, 7.391113
851.3340, 5.171387
851.8161, 5.818848
852.2982, 9.280029
852.7803, 11.96558
853.2625, 10.20703
853.7446, 6.951172
854.2267, 5.369141
854.7088, 5.481445
855.1909, 5.576416
855.6730, 4.579102
856.1552, 4.115967
856.6373, 5.530762
857.1194, 8.317383
857.6015, 7.542725
858.0836, 2.661133
858.5657, 1.300049
859.0479, 1.062744
859.5300, 1.020020
860.0121, 0.6914060
860.4942, 4.775879
860.9763, 6.247314
861.4584, 1.248047
861.9406, 7.976318
862.4227, 8.138428
862.9048, 3.709961
863.3869, 2.050049
863.8690, 4.045898
864.3511, 6.543213
864.8333, 8.839844
865.3154, 11.17529
865.7975, 15.55054
866.2796, 20.87988
866.7617, 22.24438
867.2438, 15.48022
867.7260, 8.360352
868.2081, 6.797119
868.6902, 8.695557
869.1723, 10.74072
869.6544, 12.97925
870.1365, 14.32373
870.6187, 14.55200
871.1008, 14.08276
871.5829, 12.83521
872.0650, 10.96655
872.5471, 12.06152
873.0292, 17.39893
873.5114, 22.03174
873.9935, 19.40552
874.4756, 13.72998
874.9577, 10.48218
875.4399, 11.50586
875.9220, 12.47021
876.4041, 11.68921
876.8862, 11.02686
877.3683, 12.05786
877.8505, 15.33252
878.3326, 15.81738
878.8147, 13.08057
879.2968, 10.42676
879.7789, 11.77026
880.2610, 14.62842
880.7432, 14.38013
881.2253, 10.88306
881.7074, 8.377930
882.1895, 9.592773
882.6716, 11.72485
883.1537, 13.99146
883.6359, 16.25146
884.1180, 15.21729
884.6001, 9.872803
885.0822, 5.708008
885.5643, 6.486572
886.0464, 9.662842
886.5286, 8.252686
887.0107, 3.464600
887.4928, 0.2363280
887.9749, 2.246094
888.4570, 5.407715
888.9391, 8.659668
889.4213, 11.39893
889.9034, 11.93848
890.3855, 9.306885
890.8676, 6.597656
891.3497, 4.127686
891.8318, 2.289551
892.3140, 2.367432
892.7961, 3.797852
893.2782, 4.127686
893.7603, 1.735107
894.2424, 0.1325680
894.7245, 3.791016
895.2067, 8.921387
895.6888, 10.87573
896.1709, 6.102783
896.6530, 2.359375
897.1351, 0.2077640
897.6172, 1.000000
898.0994, 2.596191
898.5815, 4.195068
899.0636, 2.034424
899.5457, 4.427246
900.0278, 10.57446
900.5099, 12.73486
900.9921, 12.79297
901.4742, 12.06519
901.9563, 10.49072
902.4384, 10.22168
902.9205, 12.88257
903.4026, 14.75000
903.8848, 13.54004
904.3669, 9.780273
904.8490, 8.333252
905.3311, 9.099365
905.8132, 9.622314
906.2953, 7.267578
906.7775, 4.715088
907.2596, 5.109131
907.7417, 7.849854
908.2238, 10.45825
908.7059, 12.46924
909.1880, 14.05127
909.6702, 15.65063
910.1523, 16.62573
910.6344, 14.52295
911.1165, 9.463135
911.5986, 6.938232
912.0807, 9.383301
912.5629, 12.64893
913.0450, 12.00610
913.5271, 9.074219
914.0092, 6.124756
914.4913, 2.922852
914.9734, 1.456299
915.4556, 3.459961
915.9377, 5.878174
916.4198, 5.176270
916.9019, 1.034668
917.3840, 1.220215
917.8661, 6.506836
918.3483, 11.82275
918.8304, 12.50610
919.3125, 11.33398
919.7946, 11.10254
920.2767, 12.13574
920.7589, 12.48267
921.2410, 9.869873
921.7231, 8.317139
922.2052, 9.924072
922.6873, 14.17236
923.1694, 16.53516
923.6516, 16.93848
924.1337, 16.48291
924.6158, 14.92651
925.0979, 13.45410
925.5800, 14.65186
926.0621, 17.15771
926.5443, 17.62695
927.0264, 10.96338
927.5085, 7.236816
927.9906, 9.709961
928.4727, 15.21021
928.9548, 18.74048
929.4370, 20.28320
929.9191, 20.81006
930.4012, 20.53711
930.8833, 19.50000
931.3654, 16.89282
931.8475, 14.24390
932.3297, 13.65625
932.8118, 15.82349
933.2939, 18.99390
933.7761, 24.91162
934.2582, 29.68506
934.7403, 30.38599
935.2224, 26.81738
935.7045, 25.46899
936.1866, 26.45703
936.6688, 27.50586
937.1509, 26.54492
937.6330, 25.20825
938.1151, 25.78833
938.5972, 27.80688
939.0793, 28.77344
939.5615, 28.07031
940.0436, 26.27539
940.5257, 22.59204
941.0078, 18.39551
941.4899, 17.84814
941.9720, 20.93726
942.4542, 24.91284
942.9363, 29.33325
943.4184, 33.55005
943.9005, 35.97534
944.3826, 38.02612
944.8647, 41.94751
945.3469, 50.22217
945.8290, 56.69434
946.3111, 59.22607
946.7932, 61.09790
947.2753, 64.90698
947.7574, 70.90942
948.2396, 81.02173
948.7217, 95.37891
949.2038, 110.1545
949.6859, 121.7273
950.1680, 132.8389
950.6501, 144.7920
951.1323, 158.0068
951.6144, 177.3320
952.0965, 208.2253
952.5786, 235.7820
953.0607, 253.6812
953.5428, 266.3911
954.0250, 286.7490
954.5071, 314.1670
954.9892, 345.4380
955.4713, 379.2175
955.9534, 415.8440
956.4355, 453.3511
956.9177, 494.6423
957.3998, 544.5698
957.8819, 606.0759
958.3640, 671.5132
958.8461, 741.2324
959.3282, 814.5286
959.8104, 891.6589
960.2925, 970.7375
960.7746, 1044.958
961.2567, 1113.951
961.7388, 1171.569
962.2209, 1229.662
962.7031, 1262.711
963.1852, 1249.370
963.6673, 1190.212
964.1494, 1110.057
964.6315, 1005.582
965.1136, 892.7129
965.5958, 772.0293
966.0779, 652.3960
966.5600, 548.7893
967.0421, 460.2124
967.5242, 387.1343
968.0063, 334.3835
968.4885, 289.4255
968.9706, 248.6023
969.4527, 212.3828
969.9348, 180.2495
970.4169, 151.9907
970.8990, 130.7339
971.3812, 117.4766
971.8633, 106.8533
972.3454, 93.17285
972.8275, 79.13110
973.3096, 69.15625
973.7917, 63.62109
974.2739, 57.79102
974.7560, 47.84766
975.2381, 39.74121
975.7202, 36.32080
976.2023, 36.51099
976.6844, 34.75488
977.1666, 31.08081
977.6487, 27.49805
978.1308, 24.58374
978.6129, 22.62866
979.0950, 22.99487
979.5771, 24.28174
980.0593, 24.16968
980.5414, 20.65918
981.0235, 17.81250
981.5056, 16.02515
981.9877, 14.55103
982.4698, 12.10229
982.9520, 9.072510
983.4341, 8.615967
983.9162, 10.87012
984.3983, 12.66504
984.8804, 11.21143
985.3625, 8.835449
985.8447, 7.393311
986.3268, 6.855713
986.8089, 4.882080
987.2910, 0.3571780
987.7731, 2.165283
988.2552, 0.3537600
988.7374, 3.213867
989.2195, 2.643311
989.7016, 0.4794920
990.1837, 1.932373
990.6658, 0.9711910
991.1479, 3.247803
991.6301, 1.648438
992.1122, 0.7973630
992.5944, 0.9172360
993.0765, 1.980225
993.5586, 3.180420
994.0407, 2.497803
994.5228, 1.072754
995.0049, 0.9531250
995.4871, 2.714355
995.9692, 2.613281
996.4513, 0.9326170
996.9334, 8.1298999E-02
997.4155, 1.438721
997.8976, 2.256104
998.3798, 1.436035
998.8619, 0.4284670
999.3440, 1.924072
999.8261, 3.124512
1000.308, 5.030029
1000.790, 8.524658
1001.272, 10.65405
1001.755, 8.013916
1002.237, 3.219238
1002.719, 1.317871
1003.201, 6.251221
1003.683, 7.086182
1004.165, 2.209717
1004.647, 2.787842
1005.129, 4.214111
1005.612, 3.056396
1006.094, 1.570557
1006.576, 3.9059999E-03
1007.058, 0.6501460
1007.540, 1.614502
1008.022, 3.302734
1008.504, 1.905518
1008.986, 0.5541990
1009.468, 0.3703610
1009.951, 2.854736
1010.433, 5.496094
1010.915, 7.058105
1011.397, 7.599609
1011.879, 5.714600
1012.361, 3.580811
1012.843, 4.429443
1013.325, 9.168701
1013.807, 12.64355
1014.290, 13.87329
1014.772, 13.80005
1015.254, 12.33911
1015.736, 10.00024
1016.218, 9.071533
1016.700, 9.301514
1017.182, 9.139893
1017.664, 6.505859
1018.147, 5.132080
1018.629, 9.261719
1019.111, 15.45483
1019.593, 18.28809
1020.075, 16.15454
1020.557, 15.42456
1021.039, 16.79883
1021.521, 17.86548
1022.003, 14.92944
1022.486, 10.68945
1022.968, 10.77441
1023.450, 15.03467
1023.932, 18.12134
1024.414, 15.85718
1024.896, 14.56323
1025.378, 16.51245
1025.860, 20.70068
1026.343, 24.68140
1026.825, 28.33569
1027.307, 30.73145
1027.789, 31.04321
1028.271, 31.83081
1028.753, 37.41089
1029.235, 43.61230
1029.717, 45.25757
1030.199, 39.77637
1030.682, 36.59814
1031.164, 36.18945
1031.646, 36.70435
1032.128, 37.29150
1032.610, 37.85278
1033.092, 38.08545
1033.574, 38.05713
1034.056, 37.99512
1034.539, 36.73804
1035.021, 37.03662
1035.503, 41.24854
1035.985, 46.48193
1036.467, 48.55273
1036.949, 47.29102
1037.431, 47.36938
1037.913, 49.40479
1038.396, 51.99707
1038.878, 54.13770
1039.360, 56.08643
1039.842, 58.21558
1040.324, 60.26221
1040.806, 62.32007
1041.288, 64.66235
1041.770, 66.29346
1042.252, 68.10034
1042.734, 69.87891
1043.217, 71.45068
1043.699, 72.75439
1044.181, 73.61914
1044.663, 73.53906
1045.145, 73.75854
1045.627, 76.43335
1046.109, 78.52441
1046.591, 76.64209
1047.074, 70.43896
1047.556, 70.19824
1048.038, 75.95337
1048.520, 80.07593
1049.002, 76.01929
1049.484, 69.26270
1049.966, 64.32886
1050.448, 60.52075
1050.931, 55.27490
1051.413, 45.91528
1051.895, 40.59741
1052.377, 41.07861
1052.859, 43.62915
1053.341, 44.69922
1053.823, 44.24316
1054.305, 41.32642
1054.787, 35.79175
1055.270, 31.20557
1055.752, 28.53467
1056.234, 28.29663
1056.716, 31.77222
1057.198, 37.31958
1057.680, 38.43872
1058.162, 35.37207
1058.644, 31.93433
1059.126, 29.01733
1059.609, 26.90747
1060.091, 26.76562
1060.573, 27.01416
1061.055, 25.42163
1061.537, 20.92480
1062.019, 20.01831
1062.501, 23.51782
1062.983, 27.03003
1063.466, 28.00464
1063.948, 27.03613
1064.430, 24.36279
1064.912, 20.62061
1065.394, 17.76465
1065.876, 16.18286
1066.358, 16.17383
1066.840, 18.72485
1067.323, 21.57788
1067.805, 21.04785
1068.287, 17.83447
1068.769, 17.74390
1069.251, 21.18433
1069.733, 25.05469
1070.215, 27.94824
1070.697, 29.71338
1071.179, 29.56860
1071.661, 28.01440
1072.144, 27.23242
1072.626, 27.36499
1073.108, 27.05054
1073.590, 25.58618
1074.072, 24.72046
1074.554, 28.89990
1075.036, 34.00562
1075.518, 33.63623
1076.001, 24.67261
1076.483, 20.52686
1076.965, 24.65820
1077.447, 28.65015
1077.929, 27.75000
1078.411, 23.86279
1078.893, 22.58691
1079.375, 23.08228
1079.858, 22.87720
1080.340, 18.52856
1080.822, 15.62646
1081.304, 17.82031
1081.786, 21.16016
1082.268, 21.80640
1082.750, 19.64893
1083.232, 19.09155
1083.714, 20.19458
1084.197, 20.66260
1084.679, 18.02100
1085.161, 14.94019
1085.643, 13.93604
1086.125, 11.66089
1086.607, 9.578369
1087.089, 9.028564
1087.571, 6.553467
1088.054, 6.166748
1088.536, 6.855225
1089.018, 8.063232
1089.500, 9.227295
1089.982, 9.407715
1090.464, 8.466797
1090.946, 7.384521
1091.428, 6.199707
1091.911, 5.023926
1092.393, 3.822998
1092.875, 2.656006
1093.357, 1.361816
1093.839, 0.2370610
1094.321, 0.3378910
1094.803, 2.325684
1095.285, 4.415283
1095.767, 7.132324
1096.250, 8.359131
1096.732, 6.250000
1097.214, 1.067871
1097.696, 2.965576
1098.178, 5.814697
1098.660, 6.794922
1099.142, 4.679932
1099.624, 1.619873
1100.106, 2.168213
1100.589, 5.326172
1101.071, 5.086914
1101.553, 0.7526860
1102.035, 2.115967
1102.517, 1.717285
1102.999, 7.013672
1103.481, 12.80176
1103.963, 16.73999
1104.446, 12.98096
1104.928, 3.951416
1105.410, 0.1123050
1105.892, 8.388916
1106.374, 14.08521
1106.856, 14.99585
1107.338, 13.14917
1107.820, 9.918213
1108.302, 6.403076
1108.785, 5.440430
1109.267, 7.362305
1109.749, 9.728760
1110.231, 12.15063
1110.713, 14.17529
1111.195, 16.05103
1111.677, 17.28540
1112.159, 16.13501
1112.641, 12.95435
1113.124, 9.508545
1113.606, 5.849854
1114.088, 3.734131
1114.570, 6.201904
1115.052, 9.212891
1115.534, 9.102539
1116.016, 6.074707
1116.498, 5.439209
1116.981, 7.271484
1117.463, 8.816650
1117.945, 8.339111
1118.427, 7.855713
1118.909, 9.801514
1119.391, 12.80737
1119.873, 15.03955
1120.355, 16.66968
1120.838, 15.35840
1121.320, 9.801514
1121.802, 6.772461
1122.284, 15.08765
1122.766, 26.19971
1123.248, 25.93481
1123.730, 17.77686
1124.212, 11.30151
1124.694, 10.30713
1125.177, 9.844727
1125.659, 9.369141
1126.141, 9.839111
1126.623, 13.41406
1127.105, 18.47632
1127.587, 20.36499
1128.069, 19.22290
1128.551, 18.04443
1129.033, 18.42944
1129.516, 18.49341
1129.998, 17.58105
1130.480, 16.90186
1130.962, 14.94995
1131.444, 13.89893
1131.926, 12.13428
1132.408, 9.580322
1132.890, 7.354004
1133.373, 7.040771
1133.855, 6.822266
1134.337, 5.062500
1134.819, 2.747559
1135.301, 4.702881
1135.783, 10.66943
1136.265, 11.58130
1136.747, 3.757813
1137.229, 4.110840
1137.712, 4.578613
1138.194, 1.770508
1138.676, 1.347656
1139.158, 4.568604
1139.640, 5.287109
1140.122, 3.088623
1140.604, 2.540527
1141.086, 6.801758
1141.569, 11.09814
1142.051, 8.326660
1142.533, 3.113525
1143.015, 2.192627
1143.497, 8.685059
1143.979, 11.67456
1144.461, 10.45557
1144.943, 8.290527
1145.426, 6.268799
1145.908, 5.234619
1146.390, 8.002197
1146.872, 12.70435
1147.354, 15.49658
1147.836, 13.75293
1148.318, 12.23145
1148.800, 11.26147
1149.282, 10.06372
1149.765, 7.185059
1150.247, 3.920166
1150.729, 4.082031
1151.211, 6.946045
1151.693, 8.925293
1152.175, 8.518555
1152.657, 7.338379
1153.139, 5.163330
1153.621, 3.164063
1154.104, 2.693848
1154.586, 3.558838
1155.068, 5.820801
1155.550, 9.032715
1156.032, 10.35889
1156.514, 6.971680
1156.996, 3.490479
1157.478, 0.7004390
1157.961, 0.7714840
1158.443, 1.235352
1158.925, 5.789307
1159.407, 7.153564
1159.889, 4.462891
1160.371, 2.099609
1160.853, 1.320068
1161.335, 2.685791
1161.818, 7.805908
1162.300, 14.61597
1162.782, 16.83228
1163.264, 14.73145
1163.746, 12.43262
1164.228, 10.56348
1164.710, 9.747559
1165.192, 11.84277
1165.674, 13.95679
1166.156, 13.52002
1166.639, 11.11670
1167.121, 10.64746
1167.603, 12.12988
1168.085, 12.94922
1168.567, 12.31152
1169.049, 10.77637
1169.531, 7.404785
1170.013, 4.358887
1170.496, 4.003174
1170.978, 6.319824
1171.460, 9.733643
1171.942, 14.44238
1172.424, 16.27002
1172.906, 11.81787
1173.388, 6.330811
1173.870, 4.466553
1174.353, 5.073730
1174.835, 7.165527
1175.317, 11.18262
1175.799, 13.24390
1176.281, 13.26294
1176.763, 12.35620
1177.245, 10.61230
1177.727, 8.910400
1178.209, 8.333984
1178.692, 8.724609
1179.174, 9.507324
1179.656, 10.54688
1180.138, 9.681152
1180.620, 6.603516
1181.102, 4.122070
1181.584, 4.837158
1182.066, 6.584473
1182.548, 6.635986
1183.031, 5.957764
1183.513, 6.988037
1183.995, 10.98682
1184.477, 15.40649
1184.959, 20.32324
1185.441, 22.98755
1185.923, 19.64038
1186.405, 13.90503
1186.888, 10.70459
1187.370, 9.568604
1187.852, 8.407715
1188.334, 6.979492
1188.816, 4.748291
1189.298, 0.9602050
1189.780, 1.300781
1190.262, 3.035400
1190.745, 9.851563
1191.227, 12.36646
1191.709, 11.15454
1192.191, 11.52319
1192.673, 16.38062
1193.155, 19.06616
1193.637, 18.32471
1194.119, 16.18677
1194.601, 14.84937
1195.084, 13.58667
1195.566, 11.56226
1196.048, 9.084473
1196.530, 8.210938
1197.012, 10.01050
1197.494, 11.62793
1197.976, 12.46216
1198.458, 13.04810
1198.941, 14.38672
1199.423, 15.86914
1199.905, 16.64551
1200.387, 16.59570
1200.869, 15.19336
1201.351, 11.86890
1201.833, 8.057861
1202.315, 3.478271
1202.797, 0.1049800
1203.280, 1.621582
1203.762, 5.820068
1204.244, 7.398682
1204.726, 5.504883
1205.208, 3.735107
1205.690, 2.861572
1206.172, 1.886719
1206.654, 0.2619630
1207.136, 1.160156
1207.619, 0.6044920
1208.101, 1.087646
1208.583, 2.511719
1209.065, 3.391846
1209.547, 3.842041
1210.029, 2.788574
1210.511, 3.734131
1210.993, 8.934326
1211.476, 15.15234
1211.958, 15.76123
1212.440, 13.40625
1212.922, 13.29761
1213.404, 17.36621
1213.886, 18.34351
1214.368, 13.82397
1214.850, 10.50928
1215.333, 11.88623
1215.815, 14.99365
1216.297, 14.48853
1216.779, 11.89111
1217.261, 9.922119
1217.743, 9.153564
1218.225, 9.289551
1218.707, 10.60522
1219.189, 11.92480
1219.672, 13.03833
1220.154, 13.35132
1220.636, 10.85010
1221.118, 7.059814
1221.600, 4.800293
1222.082, 5.400146
1222.564, 5.333008
1223.046, 3.874023
1223.528, 3.396240
1224.011, 5.238037
1224.493, 8.735840
1224.975, 14.11084
1225.457, 19.88916
1225.939, 23.65088
1226.421, 24.79224
1226.903, 23.31714
1227.385, 18.62769
1227.868, 13.44897
1228.350, 8.812500
1228.832, 5.056885
1229.314, 2.981934
1229.796, 2.092773
1230.278, 1.533447
1230.760, 1.980957
1231.242, 1.779297
1231.724, 5.128906
1232.207, 8.675537
1232.689, 12.33179
1233.171, 14.27319
1233.653, 10.16382
1234.135, 3.451172
1234.617, 0.3503420
1235.099, 3.805908
1235.581, 2.600830
1236.063, 4.194824
1236.546, 8.695313
1237.028, 3.045654
1237.510, 4.343994
1237.992, 3.617188
1238.474, 1.049805
1238.956, 2.559326
1239.438, 0.4174800
1239.920, 2.797363
1240.403, 4.619385
1240.885, 4.596924
1241.367, 0.9528810
1241.849, 5.850830
1242.331, 3.492188
1242.813, 2.404541
1243.295, 6.478516
1243.777, 8.637451
1244.260, 7.653809
1244.742, 3.502441
1245.224, 0.2517090
1245.706, 1.099854
1246.188, 2.954590
1246.670, 4.112061
1247.152, 4.888672
1247.634, 5.214355
1248.116, 5.042725
1248.599, 6.140381
1249.081, 8.403564
1249.563, 9.768555
1250.045, 6.218018
1250.527, 4.678467
1251.009, 13.09717
1251.491, 22.15894
1251.973, 20.96289
1252.455, 10.10938
1252.938, 4.663574
1253.420, 4.375977
1253.902, 5.395020
1254.384, 6.929199
1254.866, 7.724609
1255.348, 7.111328
1255.830, 5.876953
1256.313, 3.346191
1256.795, 0.2006840
1257.277, 1.332031
1257.759, 6.043701
1258.241, 10.49683
1258.723, 14.40503
1259.205, 15.44897
1259.687, 11.57764
1260.169, 7.562256
1260.651, 8.205811
1261.134, 11.89014
1261.616, 13.68750
1262.098, 13.87842
1262.580, 13.77856
1263.062, 13.78662
1263.544, 13.61694
1264.026, 13.50269
1264.508, 12.61401
1264.991, 9.304443
1265.473, 5.315918
1265.955, 3.987549
1266.437, 4.794922
1266.919, 6.259033
1267.401, 8.276611
1267.883, 10.88892
1268.365, 14.57568
1268.848, 17.23804
1269.330, 16.78833
1269.812, 13.49072
1270.294, 11.10645
1270.776, 8.993164
1271.258, 6.953369
1271.740, 4.524902
1272.222, 5.219971
1272.704, 8.610352
1273.187, 12.61987
1273.669, 12.61743
1274.151, 11.85889
1274.633, 14.87012
1275.115, 18.12817
1275.597, 15.33740
1276.079, 4.786377
1276.561, 1.027344
1277.043, 3.966797
1277.526, 7.106201
1278.008, 6.103516
1278.490, 4.686279
1278.972, 5.965088
1279.454, 7.306641
1279.936, 4.773193
1280.418, 1.265625
1280.900, 0.9909670
1281.383, 10.02173
1281.865, 16.19507
1282.347, 12.12061
1282.829, 8.036865
1283.311, 7.170654
1283.793, 7.516357
1284.275, 7.826904
1284.757, 8.073242
1285.240, 8.352539
1285.722, 8.552490
1286.204, 8.323486
1286.686, 7.497314
1287.168, 6.390381
1287.650, 4.750000
1288.132, 3.785156
1288.614, 5.055664
1289.096, 7.034424
1289.578, 5.074951
1290.061, 1.700439
1290.543, 2.522705
1291.025, 13.34375
1291.507, 16.42651
1291.989, 9.912354
1292.471, 3.642822
1292.953, 3.037842
1293.435, 5.356201
1293.918, 9.262207
1294.400, 12.99341
1294.882, 13.60596
1295.364, 10.73096
1295.846, 8.390381
1296.328, 6.656250
1296.810, 5.923096
1297.292, 6.262207
1297.775, 7.277588
1298.257, 10.48975
1298.739, 13.40723
1299.221, 13.56958
1299.703, 11.22974
1300.185, 9.177734
1300.667, 7.419189
1301.149, 5.467285
1301.631, 2.695557
1302.114, 7.7393003E-02
1302.596, 0.0000000E+00
##END=



