##NAMES=Hydroxyapophyllite-(K)
##RRUFFID=R050169
##IDEAL CHEMISTRY=KCa_4_Si_8_O_20_(OH)&#183;8H_2_O
##LOCALITY=Christmas mine, Christmas, Gila County, Arizona, USA
##OWNER=RRUFF
##SOURCE=Marcus Origlieri
##DESCRIPTION=Colorless prismatic crystals associated with kinoite, R050168
##STATUS=The identification of this mineral is confirmed by single-crystal X-ray diffraction and chemical analysis.
##URL=rruff.info/R050169
##MEASURED CHEMISTRY=K_1.00_Ca_4.00_Si_8.00_O_20_((OH)_0.98_F_0.02_)_Σ=1_·8H_2_O
96.161, 0.000
97.554, 10.950
98.947, 229.796
100.340, 1043.627
101.732, 2417.593
103.124, 4416.141
104.516, 5705.348
105.908, 5430.715
107.300, 4105.221
108.691, 2345.639
110.082, 1452.283
111.473, 627.852
112.864, 165.322
114.254, 351.891
115.644, 383.176
117.034, 583.492
118.424, 978.393
119.813, 853.461
121.203, 1503.346
122.592, 1419.738
123.981, 1413.387
125.369, 1336.074
126.758, 1219.613
128.146, 1520.840
129.534, 1760.621
130.922, 2308.893
132.309, 2134.543
133.696, 2402.361
135.083, 2193.037
136.470, 2790.355
137.857, 2612.766
139.243, 2615.088
140.630, 2009.223
142.016, 1414.102
143.401, 900.658
144.787, 829.840
146.172, 556.604
147.557, 422.916
148.942, 413.748
150.327, 257.074
151.711, 350.887
153.096, 404.160
154.480, 884.871
155.863, 990.998
157.247, 1282.523
158.630, 1654.424
160.013, 1836.682
161.396, 1817.283
162.779, 1777.699
164.161, 1513.859
165.544, 1068.355
166.926, 804.086
168.308, 340.213
169.689, 82.484
171.070, 81.283
172.452, 39.508
173.833, 97.242
175.213, 165.867
176.594, 300.002
177.974, 426.953
179.354, 1041.885
180.734, 1389.578
182.114, 1750.133
183.493, 1820.605
184.872, 1951.334
186.251, 1955.689
187.630, 1908.133
189.008, 1544.609
190.387, 1405.135
191.765, 1646.719
193.143, 1682.373
194.520, 2062.113
195.898, 2222.984
197.275, 2844.973
198.652, 3165.051
200.029, 3852.215
201.405, 4414.504
202.782, 5063.922
204.158, 5571.551
205.534, 6545.523
206.909, 7354.621
208.285, 7031.797
209.660, 6890.053
211.035, 6325.387
212.410, 5190.799
213.784, 4441.287
215.159, 3815.855
216.533, 3234.490
217.907, 3037.197
219.281, 2785.969
220.654, 2689.814
222.027, 2700.725
223.400, 2890.699
224.773, 3162.738
226.146, 3218.840
227.518, 3178.195
228.891, 3038.195
230.263, 2737.359
231.634, 2325.297
233.006, 1694.223
234.377, 1372.211
235.748, 1055.258
237.119, 620.365
238.490, 426.531
239.860, 421.162
241.231, 277.977
242.601, 286.123
243.970, 105.719
245.340, 23.545
246.709, 84.693
248.079, 166.742
249.448, 127.512
250.816, 123.104
252.185, 9.336
253.553, 151.166
254.921, 82.641
256.289, 101.898
257.657, 112.455
259.024, 249.025
260.391, 243.645
261.758, 246.068
263.125, 290.117
264.492, 416.973
265.858, 534.801
267.224, 519.422
268.590, 490.705
269.956, 457.211
271.321, 389.916
272.687, 256.713
274.052, 157.906
275.416, 7.547
276.781, 182.326
278.146, 247.492
279.510, 31.928
280.874, 210.613
282.237, 192.531
283.601, 378.662
284.964, 391.990
286.327, 565.504
287.690, 1109.191
289.053, 1061.043
290.416, 1445.047
291.778, 2232.418
293.140, 2570.703
294.502, 3126.047
295.863, 3082.584
297.225, 3403.266
298.586, 3092.014
299.947, 2874.863
301.308, 2572.809
302.668, 2065.842
304.029, 2001.957
305.389, 1738.898
306.749, 1705.174
308.108, 1362.045
309.468, 1742.199
310.827, 1379.688
312.186, 1421.650
313.545, 1246.266
314.903, 1409.195
316.262, 1543.928
317.620, 1392.717
318.978, 1661.559
320.336, 1737.451
321.693, 1664.393
323.051, 1479.381
324.408, 1547.414
325.765, 1306.494
327.121, 1642.611
328.478, 1477.768
329.834, 1499.957
331.190, 1547.184
332.546, 1693.439
333.902, 1593.725
335.257, 1943.379
336.612, 1698.664
337.967, 1709.939
339.322, 1600.197
340.677, 1245.459
342.031, 1209.740
343.385, 868.043
344.739, 788.363
346.093, 433.705
347.446, 267.066
348.799, 327.451
350.153, 228.855
351.505, 166.279
352.858, 198.723
354.210, 187.188
355.563, 19.674
356.915, 207.826
358.267, 77.357
359.618, 83.893
360.969, 139.436
362.321, 207.002
363.672, 118.545
365.022, 89.891
366.373, 274.340
367.723, 133.809
369.073, 514.285
370.423, 511.777
371.773, 652.279
373.122, 470.793
374.471, 399.318
375.821, 610.854
377.169, 261.400
378.518, 292.953
379.866, 75.482
381.215, 127.938
382.563, 29.428
383.910, 236.914
385.258, 288.461
386.605, 180.078
387.952, 42.281
389.299, 180.260
390.646, 0.084
391.992, 232.641
393.339, 3.475
394.685, 234.283
396.031, 67.152
397.376, 308.000
398.722, 7.838
400.067, 108.359
401.412, 157.566
402.757, 136.760
404.101, 367.885
405.446, 313.867
406.790, 384.219
408.134, 346.639
409.478, 367.406
410.821, 463.094
412.165, 302.898
413.508, 361.021
414.851, 720.908
416.193, 609.143
417.536, 551.492
418.878, 785.414
420.220, 1222.367
421.562, 1479.359
422.904, 1782.363
424.245, 2901.414
425.586, 3751.527
426.927, 4964.682
428.268, 6354.881
429.609, 7113.127
430.949, 6904.393
432.289, 6291.688
433.629, 5175.004
434.969, 3941.404
436.309, 3158.820
437.648, 2352.146
438.987, 1738.064
440.326, 1475.137
441.665, 977.684
443.003, 852.240
444.342, 803.811
445.680, 565.391
447.018, 602.018
448.355, 484.646
449.693, 175.281
451.030, 310.918
452.367, 87.564
453.704, 495.203
455.041, 0.160
456.377, 287.453
457.713, 160.068
459.049, 321.678
460.385, 299.326
461.721, 254.971
463.056, 515.615
464.391, 220.256
465.726, 9.895
467.061, 385.480
468.395, 135.062
469.730, 57.367
471.064, 226.115
472.398, 237.404
473.731, 418.898
475.065, 48.197
476.398, 351.453
477.731, 482.699
479.064, 891.939
480.397, 935.168
481.729, 1240.387
483.062, 1571.594
484.394, 1437.793
485.725, 1565.979
487.057, 1347.154
488.389, 1183.318
489.720, 1029.471
491.051, 737.613
492.382, 757.744
493.712, 436.865
495.043, 571.035
496.373, 492.193
497.703, 414.342
499.032, 792.479
500.362, 594.627
501.691, 595.764
503.020, 703.891
504.349, 591.221
505.678, 553.096
507.007, 538.180
508.335, 464.250
509.663, 410.307
510.991, 659.346
512.319, 725.371
513.646, 474.381
514.973, 619.375
516.300, 541.891
517.627, 563.176
518.954, 701.105
520.280, 411.607
521.607, 730.223
522.933, 689.119
524.259, 674.594
525.584, 810.457
526.910, 735.303
528.235, 1059.133
529.560, 1205.943
530.885, 1301.738
532.209, 1438.258
533.534, 1340.275
534.858, 1453.016
536.182, 1536.738
537.506, 1332.441
538.829, 1470.125
540.152, 1819.955
541.476, 1258.529
542.799, 1607.354
544.121, 629.787
545.444, 1290.881
546.766, 1051.904
548.088, 1094.238
549.410, 960.670
550.732, 817.293
552.053, 1079.344
553.375, 1095.266
554.696, 783.527
556.017, 908.240
557.337, 1133.791
558.658, 1213.262
559.978, 1297.133
561.298, 1036.406
562.618, 1464.385
563.938, 1331.156
565.257, 1523.670
566.576, 2025.572
567.895, 1642.133
569.214, 2181.842
570.533, 2799.127
571.851, 2862.352
573.170, 3470.609
574.488, 4141.977
575.805, 4563.703
577.123, 5144.625
578.440, 5592.574
579.758, 6337.607
581.075, 7034.348
582.391, 6864.434
583.708, 7317.828
585.024, 6584.293
586.341, 6200.156
587.657, 5704.885
588.972, 5107.090
590.288, 4338.154
591.603, 3769.398
592.918, 3305.160
594.233, 2715.705
595.548, 2459.836
596.863, 2084.699
598.177, 1690.432
599.491, 1672.736
600.805, 1432.934
602.119, 1269.229
603.432, 1038.879
604.746, 972.242
606.059, 820.570
607.372, 750.477
608.685, 642.861
609.997, 674.537
611.309, 671.789
612.621, 667.219
613.933, 699.961
615.245, 728.490
616.557, 702.797
617.868, 683.266
619.179, 579.535
620.490, 757.463
621.801, 446.668
623.111, 879.836
624.421, 544.244
625.731, 1001.510
627.041, 515.059
628.351, 1038.541
629.660, 776.217
630.970, 593.922
632.279, 1164.859
633.588, 752.514
634.896, 875.389
636.205, 654.229
637.513, 1068.041
638.821, 999.820
640.129, 1204.566
641.437, 1383.281
642.744, 1355.961
644.051, 1465.611
645.358, 1465.945
646.665, 1540.529
647.972, 1580.084
649.278, 1710.684
650.584, 1967.170
651.890, 1753.082
653.196, 2519.500
654.502, 2241.625
655.807, 2700.105
657.113, 2428.723
658.418, 2946.182
659.722, 3375.932
661.027, 3277.166
662.331, 3208.348
663.636, 3085.012
664.940, 2975.785
666.244, 2601.756
667.547, 2778.066
668.851, 2488.350
670.154, 2488.320
671.457, 1930.473
672.760, 1629.377
674.062, 1811.715
675.365, 1394.602
676.667, 1232.480
677.969, 1129.348
679.271, 926.484
680.572, 688.322
681.874, 502.158
683.175, 731.959
684.476, 799.727
685.777, 532.461
687.077, 606.162
688.378, 380.830
689.678, 432.465
690.978, 310.062
692.278, 353.627
693.577, 332.039
694.877, 688.662
696.176, 220.125
697.475, 329.584
698.774, 67.051
700.072, 430.480
701.371, 167.949
702.669, 0.547
703.967, 304.062
705.265, 227.188
706.562, 397.457
707.860, 346.711
709.157, 192.004
710.454, 195.121
711.751, 101.719
713.047, 285.340
714.344, 114.637
715.640, 199.273
716.936, 149.859
718.232, 3.141
719.527, 215.500
720.823, 274.105
722.118, 42.676
723.413, 255.191
724.708, 50.328
726.002, 75.949
727.297, 340.320
728.591, 188.445
729.885, 130.617
731.179, 202.637
732.472, 177.621
733.766, 27.434
735.059, 45.574
736.352, 191.191
737.645, 355.918
738.937, 9.613
740.230, 233.246
741.522, 22.840
742.814, 26.379
744.106, 277.961
745.397, 306.406
746.689, 256.820
747.980, 189.797
749.271, 339.418
750.562, 42.602
751.853, 322.734
753.143, 182.723
754.433, 204.215
755.723, 223.117
757.013, 84.988
758.303, 722.812
759.592, 102.395
760.881, 344.281
762.170, 386.930
763.459, 550.547
764.748, 86.137
766.036, 184.199
767.325, 673.715
768.613, 39.801
769.901, 565.633
771.188, 362.027
772.476, 101.602
773.763, 678.660
775.050, 173.891
776.337, 463.086
777.624, 362.254
778.910, 335.395
780.196, 299.527
781.482, 413.629
782.768, 294.707
784.054, 176.793
785.339, 302.586
786.625, 772.957
787.910, 483.039
789.195, 799.105
790.479, 955.148
791.764, 730.164
793.048, 1110.270
794.332, 585.230
795.616, 939.160
796.900, 542.066
798.183, 472.945
799.467, 162.797
800.750, 421.613
802.033, 333.406
803.316, 112.367
804.598, 450.098
805.880, 205.203
807.163, 494.348
808.445, 155.875
809.726, 301.371
811.008, 78.164
812.289, 289.219
813.570, 210.578
814.851, 325.898
816.132, 426.203
817.413, 205.477
818.693, 195.727
819.973, 384.941
821.253, 263.137
822.533, 261.301
823.813, 584.445
825.092, 274.566
826.371, 459.656
827.650, 213.758
828.929, 477.824
830.208, 605.918
831.486, 658.984
832.764, 260.027
834.042, 366.574
835.320, 798.625
836.598, 489.645
837.875, 848.891
839.152, 613.992
840.429, 664.070
841.706, 1064.211
842.983, 539.340
844.259, 788.465
845.536, 1033.586
846.812, 413.688
848.088, 1083.773
849.363, 491.875
850.639, 1002.645
851.914, 948.715
853.189, 586.656
854.464, 651.758
855.739, 944.125
857.013, 1025.500
858.288, 1008.898
859.562, 343.539
860.836, 788.582
862.110, 769.602
863.383, 299.973
864.656, 816.441
865.930, 411.504
867.203, 787.344
868.475, 574.602
869.748, 587.008
871.020, 402.062
872.292, 640.332
873.564, 408.770
874.836, 535.457
876.108, 263.711
877.379, 480.277
878.650, 707.668
879.922, 585.461
881.192, 623.273
882.463, 405.035
883.733, 523.660
885.004, 236.910
886.274, 583.934
887.544, 490.895
888.813, 740.746
890.083, 222.852
891.352, 456.582
892.621, 784.965
893.890, 322.250
895.159, 514.098
896.427, 171.043
897.695, 304.484
898.964, 671.031
900.232, 482.367
901.499, 336.453
902.767, 281.105
904.034, 591.438
905.301, 75.008
906.568, 212.672
907.835, 831.738
909.102, 335.879
910.368, 480.883
911.634, 474.496
912.900, 514.414
914.166, 165.016
915.432, 748.605
916.697, 467.191
917.962, 35.219
919.227, 624.133
920.492, 437.684
921.757, 413.797
923.021, 559.328
924.285, 433.852
925.550, 403.199
926.813, 498.707
928.077, 465.512
929.341, 485.000
930.604, 374.477
931.867, 660.934
933.130, 291.238
934.393, 259.688
935.655, 905.945
936.918, 155.707
938.180, 699.988
939.442, 398.402
940.703, 260.809
941.965, 561.203
943.226, 497.590
944.488, 121.969
945.749, 296.332
947.009, 227.539
948.270, 346.031
949.530, 433.363
950.791, 520.680
952.051, 767.266
953.311, 319.562
954.570, 105.852
955.830, 722.051
957.089, 413.320
958.348, 717.113
959.607, 187.359
960.866, 617.852
962.124, 486.941
963.383, 292.863
964.641, 688.895
965.899, 358.586
967.156, 563.750
968.414, 653.922
969.671, 530.562
970.928, 665.148
972.185, 336.270
973.442, 576.117
974.699, 570.945
975.955, 388.520
977.211, 535.383
978.468, 185.090
979.723, 558.664
980.979, 375.363
982.234, 219.441
983.490, 1150.820
984.745, 30.570
986.000, 644.918
987.254, 619.883
988.509, 111.910
989.763, 644.340
991.017, 514.375
992.271, 531.098
993.525, 731.328
994.779, 802.773
996.032, 775.855
997.285, 836.887
998.538, 814.645
999.791, 293.012
1001.044, 1408.469
1002.296, 562.383
1003.548, 1016.992
1004.800, 1590.445
1006.052, 1548.520
1007.304, 1402.078
1008.555, 1113.344
1009.807, 1299.418
1011.058, 1305.605
1012.309, 1378.223
1013.559, 1218.434
1014.810, 953.594
1016.060, 687.617
1017.310, 630.027
1018.560, 1117.039
1019.810, 548.438
1021.060, 1020.840
1022.309, 1133.387
1023.558, 679.473
1024.807, 1408.840
1026.056, 925.715
1027.305, 1160.383
1028.553, 856.891
1029.801, 762.250
1031.049, 1273.469
1032.297, 800.062
1033.545, 944.809
1034.793, 1477.195
1036.040, 1123.055
1037.287, 1495.742
1038.534, 1371.098
1039.781, 1582.441
1041.027, 1943.199
1042.274, 1652.254
1043.520, 2008.480
1044.766, 2824.266
1046.012, 2315.078
1047.257, 2569.090
1048.503, 2876.480
1049.748, 4095.375
1050.993, 4324.223
1052.238, 5830.141
1053.483, 6724.070
1054.727, 8092.141
1055.971, 9889.594
1057.216, 12124.066
1058.459, 12994.941
1059.703, 13887.711
1060.947, 12500.230
1062.190, 11671.812
1063.433, 9728.117
1064.676, 7805.371
1065.919, 6212.809
1067.162, 5200.914
1068.404, 4811.328
1069.646, 3260.172
1070.888, 2787.988
1072.130, 2955.773
1073.372, 1941.484
1074.613, 2083.164
1075.855, 2063.047
1077.096, 1409.711
1078.337, 1621.285
1079.578, 1607.820
1080.818, 1547.332
1082.059, 1757.805
1083.299, 1124.215
1084.539, 1429.586
1085.779, 1285.902
1087.018, 1366.582
1088.258, 1207.801
1089.497, 1228.949
1090.736, 1090.973
1091.975, 1062.000
1093.213, 819.824
1094.452, 615.535
1095.690, 595.758
1096.928, 379.984
1098.166, 620.609
1099.404, 598.172
1100.642, 873.691
1101.879, 358.160
1103.116, 642.227
1104.353, 563.395
1105.590, 769.707
1106.827, 450.969
1108.063, 895.242
1109.299, 386.441
1110.536, 822.594
1111.771, 929.297
1113.007, 803.125
1114.243, 1149.082
1115.478, 1152.996
1116.713, 996.867
1117.948, 869.543
1119.183, 586.156
1120.418, 139.789
1121.652, 503.145
1122.886, 602.352
1124.120, 253.441
1125.354, 420.875
1126.588, 66.285
1127.821, 459.605
1129.055, 128.977
1130.288, 351.957
1131.521, 286.840
1132.753, 410.160
1133.986, 150.270
1135.218, 161.316
1136.450, 812.742
1137.682, 417.895
1138.914, 803.461
1140.146, 276.258
1141.377, 142.938
1142.609, 29.938
1143.840, 6.859
1145.071, 175.207
1146.301, 232.258
1147.532, 86.734
1148.762, 311.277
1149.992, 25.289
1151.222, 197.695
1152.452, 322.270
1153.682, 564.230
1154.911, 48.809
1156.140, 382.145
1157.369, 218.086
1158.598, 37.023
1159.827, 331.941
1161.055, 609.852
1162.284, 1.746
1163.512, 263.621
1164.740, 424.484
1165.967, 279.340
1167.195, 465.957
1168.422, 576.980
1169.650, 429.766
1170.877, 308.535
1172.103, 15.309
1173.330, 367.090
1174.557, 421.887
1175.783, 595.695
1177.009, 422.520
1178.235, 405.840
1179.461, 769.223
1180.686, 239.109
1181.912, 306.027
1183.137, 436.965
1184.362, 676.938
1185.587, 332.934
1186.811, 345.973
1188.036, 796.066
1189.260, 425.211
1190.484, 392.402
1191.708, 651.641
1192.932, 769.953
1194.155, 249.344
1195.378, 377.781
1196.602, 501.309
1197.825, 835.930
1199.047, 571.797
1200.270, 779.621
1201.492, 496.633
1202.715, 804.578
1203.937, 100.043
1205.159, 1251.016
1206.380, 769.133
1207.602, 716.141
1208.823, 161.637
1210.044, 622.340
1211.265, 575.914
1212.486, 310.559
1213.707, 775.910
1214.927, 602.438
1216.147, 648.020
1217.367, 631.551
1218.587, 709.809
1219.807, 508.637
1221.027, 622.371
1222.246, 270.004
1223.465, 315.875
1224.684, 601.215
1225.903, 658.672
1227.121, 498.695
1228.340, 611.992
1229.558, 640.996
1230.776, 602.320
1231.994, 391.566
1233.212, 181.109
1234.429, 998.359
1235.646, 584.719
1236.864, 76.398
1238.081, 1086.293
1239.297, 73.625
1240.514, 482.500
1241.730, 1013.102
1242.947, 264.559
1244.163, 338.840
1245.378, 256.059
1246.594, 881.852
1247.810, 760.566
1249.025, 18.621
1250.240, 949.598
1251.455, 568.949
1252.670, 329.797
1253.885, 518.402
1255.099, 470.047
1256.313, 276.180
1257.527, 6.828
1258.741, 14.410
1259.955, 433.332
1261.168, 154.445
1262.382, 141.438
1263.595, 579.070
1264.808, 187.465
1266.021, 92.070
1267.233, 283.094
1268.446, 243.133
1269.658, 221.586
1270.870, 1.730
1272.082, 222.938
1273.294, 6.770
1274.505, 198.465
1275.716, 0.000
##END=



