##NAMES=Hydroxykenomicrolite
##RRUFFID=R061058
##IDEAL CHEMISTRY=([box],Na,Sb^3+^)_2_Ta_2_O_6_(OH)
##LOCALITY=Mt. Vasin-Myl'k, Voron'ya Tundra, Russia
##OWNER=RRUFF
##SOURCE=Michael Scott
##DESCRIPTION=Grayish adamantine grains (orange under long wave ultraviolet light) intimately associated with simpsonite (bluish white in SW UV).
##STATUS=The identification of this mineral has been confirmed by single-crystal X-ray diffraction.
##URL=rruff.info/R061058
143.7055, 0.0000000E+00
144.1876, 23.10889
144.6697, 151.1147
145.1519, 303.6050
145.6340, 488.8281
146.1161, 710.3931
146.5982, 947.1885
147.0803, 1177.014
147.5624, 1392.667
148.0446, 1585.542
148.5267, 1725.224
149.0088, 1798.944
149.4909, 1845.643
149.9730, 1873.374
150.4551, 1880.110
150.9372, 1863.763
151.4194, 1824.853
151.9015, 1758.976
152.3836, 1649.983
152.8657, 1467.934
153.3478, 1283.357
153.8299, 1118.346
154.3121, 971.4238
154.7942, 837.9009
155.2763, 716.7822
155.7584, 607.5151
156.2405, 506.7734
156.7226, 409.9580
157.2048, 324.4219
157.6869, 251.8296
158.1690, 192.7300
158.6511, 149.3481
159.1332, 125.6450
159.6153, 119.9536
160.0975, 119.1753
160.5796, 115.5029
161.0617, 124.1182
161.5438, 158.9844
162.0259, 217.7852
162.5080, 281.6196
162.9902, 339.1313
163.4723, 391.6323
163.9544, 447.2480
164.4365, 513.2549
164.9186, 576.7485
165.4007, 624.3101
165.8829, 656.4868
166.3650, 689.1523
166.8471, 733.0410
167.3292, 784.5361
167.8113, 833.7031
168.2934, 888.3818
168.7756, 934.1533
169.2577, 951.3179
169.7398, 938.6865
170.2219, 926.4624
170.7040, 935.0356
171.1861, 957.0889
171.6683, 976.5415
172.1504, 991.6201
172.6325, 1002.767
173.1146, 1008.256
173.5967, 1007.293
174.0788, 1009.097
174.5610, 1023.458
175.0431, 1043.843
175.5252, 1058.296
176.0073, 1069.007
176.4894, 1087.802
176.9715, 1112.891
177.4537, 1161.126
177.9358, 1216.104
178.4179, 1258.427
178.9000, 1290.624
179.3821, 1321.478
179.8642, 1345.873
180.3464, 1367.857
180.8285, 1398.070
181.3106, 1438.134
181.7927, 1468.480
182.2748, 1478.800
182.7569, 1474.063
183.2391, 1461.023
183.7212, 1435.259
184.2033, 1402.671
184.6854, 1372.732
185.1675, 1345.349
185.6496, 1322.993
186.1318, 1316.770
186.6139, 1314.531
187.0960, 1299.180
187.5781, 1260.106
188.0602, 1210.639
188.5423, 1168.643
189.0245, 1135.287
189.5066, 1106.174
189.9887, 1083.662
190.4708, 1063.230
190.9529, 1038.710
191.4350, 1006.829
191.9172, 971.9082
192.3993, 939.8223
192.8814, 911.0688
193.3635, 883.8960
193.8456, 862.1143
194.3277, 840.0620
194.8099, 809.7715
195.2920, 765.6377
195.7741, 716.4707
196.2562, 676.0059
196.7383, 646.5229
197.2204, 615.3389
197.7026, 572.9834
198.1847, 526.8013
198.6668, 483.1914
199.1489, 441.3359
199.6310, 406.2354
200.1131, 388.9634
200.5953, 394.5542
201.0774, 393.6514
201.5595, 361.6035
202.0416, 320.6089
202.5237, 286.7388
203.0058, 265.7344
203.4880, 248.6230
203.9701, 223.0757
204.4522, 187.2158
204.9343, 152.8110
205.4164, 125.3564
205.8985, 101.4238
206.3807, 79.20703
206.8628, 59.59082
207.3449, 37.67432
207.8270, 1.481934
208.3091, 52.65430
208.7912, 89.77881
209.2734, 77.99854
209.7555, 52.70361
210.2376, 48.45508
210.7197, 74.54053
211.2018, 109.9927
211.6839, 134.6904
212.1661, 148.3589
212.6482, 157.0093
213.1303, 158.6357
213.6124, 158.0269
214.0945, 160.3154
214.5766, 166.7480
215.0588, 172.2178
215.5409, 171.6943
216.0230, 165.1699
216.5051, 156.8340
216.9872, 147.6699
217.4693, 136.8970
217.9515, 124.6509
218.4336, 111.1714
218.9157, 93.89258
219.3978, 69.74023
219.8799, 39.16406
220.3620, 6.504395
220.8442, 33.54004
221.3263, 68.62988
221.8084, 85.62891
222.2905, 83.48145
222.7726, 79.65771
223.2547, 85.49219
223.7369, 99.63330
224.2190, 114.9331
224.7011, 131.8477
225.1832, 146.9795
225.6653, 156.9951
226.1474, 162.0464
226.6296, 166.0684
227.1117, 169.6406
227.5938, 173.6191
228.0759, 180.9624
228.5580, 192.3975
229.0401, 206.9248
229.5223, 223.3994
230.0044, 241.7568
230.4865, 262.3516
230.9686, 289.7065
231.4507, 318.9077
231.9328, 338.9941
232.4150, 347.4028
232.8971, 349.8008
233.3792, 348.7051
233.8613, 345.1021
234.3434, 342.8545
234.8255, 339.5176
235.3077, 339.5615
235.7898, 353.2212
236.2719, 384.1670
236.7540, 413.7588
237.2361, 422.2388
237.7182, 416.2847
238.2004, 418.4854
238.6825, 442.0571
239.1646, 471.1616
239.6467, 487.6255
240.1288, 490.5566
240.6109, 491.1104
241.0931, 497.7632
241.5752, 508.1719
242.0573, 513.4077
242.5394, 511.5688
243.0215, 505.4097
243.5036, 489.0728
243.9858, 465.1123
244.4679, 460.4810
244.9500, 501.4067
245.4321, 570.8848
245.9142, 605.4316
246.3963, 584.9375
246.8785, 552.0229
247.3606, 521.4663
247.8427, 495.4985
248.3248, 482.2412
248.8069, 487.5430
249.2890, 506.6597
249.7712, 525.7437
250.2533, 543.1353
250.7354, 562.5391
251.2175, 591.1001
251.6996, 621.9346
252.1817, 638.7173
252.6639, 632.6675
253.1460, 616.7061
253.6281, 619.7632
254.1102, 652.0269
254.5923, 678.1313
255.0744, 688.4312
255.5566, 690.2778
256.0387, 690.5928
256.5208, 691.2749
257.0029, 697.0957
257.4850, 717.2305
257.9671, 763.0352
258.4492, 796.5703
258.9314, 799.5645
259.4135, 798.8423
259.8956, 821.7822
260.3777, 872.5225
260.8598, 931.5410
261.3419, 978.3477
261.8241, 1009.729
262.3062, 1038.888
262.7883, 1061.557
263.2704, 1085.565
263.7525, 1118.452
264.2346, 1158.349
264.7168, 1195.967
265.1989, 1222.549
265.6810, 1235.880
266.1631, 1251.879
266.6452, 1274.606
267.1273, 1299.518
267.6095, 1328.362
268.0916, 1357.042
268.5737, 1377.595
269.0558, 1384.329
269.5379, 1380.202
270.0201, 1382.908
270.5022, 1400.652
270.9843, 1418.069
271.4664, 1434.179
271.9485, 1448.355
272.4306, 1459.300
272.9128, 1466.284
273.3949, 1471.821
273.8770, 1482.824
274.3591, 1508.754
274.8412, 1524.053
275.3233, 1514.588
275.8055, 1501.108
276.2876, 1503.331
276.7697, 1526.951
277.2518, 1560.429
277.7339, 1587.272
278.2160, 1606.493
278.6982, 1621.933
279.1803, 1630.683
279.6624, 1636.229
280.1445, 1638.725
280.6266, 1638.921
281.1087, 1639.885
281.5909, 1648.449
282.0730, 1665.706
282.5551, 1667.515
283.0372, 1637.267
283.5193, 1606.838
284.0014, 1592.621
284.4836, 1591.927
284.9657, 1594.568
285.4478, 1599.889
285.9299, 1604.132
286.4120, 1589.116
286.8941, 1546.610
287.3763, 1500.934
287.8584, 1463.017
288.3405, 1431.436
288.8226, 1404.982
289.3047, 1386.989
289.7868, 1370.944
290.2690, 1348.928
290.7511, 1321.676
291.2332, 1283.602
291.7153, 1221.916
292.1974, 1151.706
292.6795, 1095.966
293.1617, 1063.318
293.6438, 1034.037
294.1259, 989.1587
294.6080, 932.1577
295.0901, 884.6860
295.5722, 857.7769
296.0544, 839.8989
296.5365, 811.6592
297.0186, 771.1528
297.5007, 729.7339
297.9828, 690.2778
298.4649, 652.9062
298.9471, 618.0986
299.4292, 585.7490
299.9113, 555.0498
300.3934, 524.6235
300.8755, 493.9932
301.3576, 466.7676
301.8398, 446.3076
302.3219, 427.6553
302.8040, 405.4976
303.2861, 379.8994
303.7682, 356.0308
304.2503, 338.5449
304.7325, 327.8081
305.2146, 314.9028
305.6967, 298.0493
306.1788, 281.3042
306.6609, 269.8071
307.1430, 259.7720
307.6252, 241.0488
308.1073, 206.8481
308.5894, 162.0464
309.0715, 128.4038
309.5536, 109.6992
310.0357, 98.25049
310.5179, 102.8755
311.0000, 110.3911
311.4821, 105.4170
311.9642, 82.98389
312.4463, 51.18652
312.9284, 23.05664
313.4106, 4.393066
313.8927, 20.59033
314.3748, 13.74219
314.8569, 6.202637
315.3390, 19.34961
315.8211, 50.12891
316.3033, 71.52002
316.7854, 48.83936
317.2675, 21.71191
317.7496, 61.67920
318.2317, 42.71533
318.7138, 21.92578
319.1960, 18.73828
319.6781, 30.69336
320.1602, 50.69922
320.6423, 75.67725
321.1244, 105.3076
321.6065, 140.0464
322.0887, 182.6509
322.5708, 222.2598
323.0529, 246.2607
323.5350, 267.6343
324.0171, 301.2686
324.4992, 352.0889
324.9814, 412.4351
325.4635, 477.7969
325.9456, 548.1309
326.4277, 615.4517
326.9098, 681.6338
327.3919, 738.6060
327.8741, 771.0425
328.3562, 774.4399
328.8383, 792.8823
329.3204, 859.2974
329.8025, 950.7373
330.2846, 1026.081
330.7668, 1077.423
331.2489, 1116.604
331.7310, 1151.383
332.2131, 1181.652
332.6952, 1218.416
333.1773, 1264.886
333.6595, 1316.187
334.1416, 1368.775
334.6237, 1422.833
335.1058, 1481.077
335.5879, 1547.702
336.0700, 1619.192
336.5522, 1669.480
337.0343, 1678.602
337.5164, 1693.363
337.9985, 1731.432
338.4806, 1778.656
338.9627, 1814.268
339.4449, 1830.364
339.9270, 1837.829
340.4091, 1857.118
340.8912, 1894.917
341.3733, 1932.768
341.8554, 1976.077
342.3376, 2015.172
342.8197, 2042.054
343.3018, 2057.256
343.7839, 2068.276
344.2660, 2081.329
344.7481, 2096.357
345.2303, 2114.171
345.7124, 2142.388
346.1945, 2163.839
346.6766, 2171.360
347.1587, 2168.796
347.6408, 2163.121
348.1230, 2157.661
348.6051, 2150.908
349.0872, 2138.952
349.5693, 2120.145
350.0514, 2102.801
350.5335, 2093.188
351.0157, 2085.663
351.4978, 2070.789
351.9799, 2045.757
352.4620, 2027.468
352.9441, 2040.343
353.4262, 2072.426
353.9084, 2073.501
354.3905, 2025.113
354.8726, 1961.381
355.3547, 1917.545
355.8368, 1891.354
356.3189, 1875.383
356.8011, 1881.689
357.2832, 1889.644
357.7653, 1875.463
358.2474, 1839.035
358.7295, 1799.443
359.2116, 1769.495
359.6938, 1747.678
360.1759, 1720.868
360.6580, 1682.914
361.1401, 1647.873
361.6222, 1623.090
362.1043, 1604.298
362.5865, 1587.219
363.0686, 1568.203
363.5507, 1545.402
364.0328, 1517.458
364.5149, 1476.748
364.9970, 1446.362
365.4792, 1432.627
365.9613, 1424.188
366.4434, 1415.792
366.9255, 1405.900
367.4076, 1396.347
367.8897, 1392.263
368.3719, 1392.504
368.8540, 1374.110
369.3361, 1315.979
369.8182, 1268.885
370.3003, 1254.952
370.7824, 1259.367
371.2646, 1263.101
371.7467, 1259.440
372.2288, 1249.264
372.7109, 1230.592
373.1930, 1202.060
373.6751, 1178.757
374.1573, 1174.438
374.6394, 1169.532
375.1215, 1138.345
375.6036, 1078.786
376.0857, 1029.675
376.5678, 1019.541
377.0500, 1029.784
377.5321, 1028.871
378.0142, 1013.725
378.4963, 987.8540
378.9784, 947.8916
379.4605, 895.6606
379.9427, 858.5430
380.4248, 848.9849
380.9069, 841.4414
381.3890, 825.4668
381.8711, 801.6709
382.3532, 769.7935
382.8354, 728.0098
383.3175, 682.3696
383.7996, 648.0894
384.2817, 632.7627
384.7638, 619.3057
385.2459, 613.9912
385.7281, 606.3320
386.2102, 584.2920
386.6923, 549.1475
387.1744, 515.1436
387.6565, 496.2788
388.1386, 492.8511
388.6208, 491.7983
389.1029, 501.5029
389.5850, 503.0352
390.0671, 482.9175
390.5492, 453.4048
391.0313, 432.3232
391.5135, 427.6777
391.9956, 433.4199
392.4777, 444.9873
392.9598, 464.4907
393.4419, 469.5918
393.9240, 446.8340
394.4062, 413.4590
394.8883, 384.6982
395.3704, 360.9429
395.8525, 342.6304
396.3346, 330.5693
396.8167, 323.8501
397.2989, 324.4648
397.7810, 333.3633
398.2631, 336.3394
398.7452, 319.6309
399.2273, 286.2705
399.7094, 263.8242
400.1916, 266.9517
400.6737, 265.0981
401.1558, 237.7905
401.6379, 197.9287
402.1200, 171.7319
402.6021, 169.2354
403.0843, 175.8965
403.5664, 164.6826
404.0485, 120.6201
404.5306, 91.41553
405.0127, 81.61523
405.4948, 80.66162
405.9770, 91.43066
406.4591, 106.9956
406.9412, 108.7886
407.4233, 78.90527
407.9054, 25.35693
408.3875, 4.901367
408.8697, 2.262207
409.3518, 6.410156
409.8339, 11.48682
410.3160, 35.11768
410.7981, 47.29004
411.2802, 43.41797
411.7624, 33.32471
412.2445, 23.10986
412.7266, 13.69629
413.2087, 10.02539
413.6908, 13.45557
414.1729, 22.06396
414.6551, 39.57471
415.1372, 63.30615
415.6193, 76.25293
416.1014, 69.27686
416.5835, 54.73828
417.0656, 40.26709
417.5478, 26.49561
418.0299, 12.86182
418.5120, 2.383789
418.9941, 14.89600
419.4762, 12.24902
419.9583, 29.02148
420.4405, 52.01562
420.9226, 44.58740
421.4047, 25.09912
421.8868, 2.868164
422.3689, 17.41846
422.8510, 27.16260
423.3332, 14.65527
423.8153, 19.56299
424.2974, 35.80371
424.7795, 23.62158
425.2616, 6.302734
425.7437, 12.28271
426.2259, 30.44141
426.7080, 47.68311
427.1901, 64.74121
427.6722, 75.51514
428.1543, 68.85303
428.6364, 45.91650
429.1186, 28.12109
429.6007, 20.29443
430.0828, 18.07715
430.5649, 18.12891
431.0470, 20.19922
431.5291, 22.95410
432.0113, 29.33350
432.4934, 33.91895
432.9755, 27.18018
433.4576, 12.08740
433.9397, 6.490234
434.4218, 22.62354
434.9040, 50.56396
435.3861, 59.70850
435.8682, 30.09766
436.3503, 9.904297
436.8324, 1.958008
437.3145, 4.174805
437.7967, 20.87207
438.2788, 48.72754
438.7609, 72.00537
439.2430, 73.45996
439.7251, 54.18945
440.2072, 50.97314
440.6894, 73.99170
441.1715, 99.13477
441.6536, 120.3604
442.1357, 138.8892
442.6178, 155.2490
443.0999, 168.9077
443.5821, 184.6323
444.0642, 213.8594
444.5463, 252.9751
445.0284, 271.0640
445.5105, 254.8438
445.9926, 232.1919
446.4748, 232.7417
446.9569, 252.1309
447.4390, 266.2549
447.9211, 264.0889
448.4032, 261.4849
448.8853, 269.1675
449.3675, 285.9272
449.8496, 308.7739
450.3317, 337.0376
450.8138, 366.7354
451.2959, 388.5996
451.7780, 396.0332
452.2602, 407.3271
452.7423, 425.2026
453.2244, 444.4204
453.7065, 462.0908
454.1886, 477.9683
454.6707, 493.1445
455.1529, 508.6519
455.6350, 523.7021
456.1171, 533.5288
456.5992, 532.7378
457.0813, 540.0278
457.5634, 564.7295
458.0455, 598.5562
458.5276, 638.1304
459.0098, 683.6792
459.4919, 722.9678
459.9740, 746.3462
460.4561, 758.1948
460.9382, 767.1504
461.4203, 774.1528
461.9025, 778.8442
462.3846, 779.1309
462.8667, 776.5835
463.3488, 782.2485
463.8309, 798.6021
464.3130, 819.6338
464.7952, 845.7988
465.2773, 874.6802
465.7594, 902.1733
466.2415, 927.1069
466.7236, 953.3345
467.2057, 984.4067
467.6879, 1020.405
468.1700, 1050.564
468.6521, 1069.254
469.1342, 1090.316
469.6163, 1120.372
470.0984, 1155.123
470.5806, 1188.210
471.0627, 1216.586
471.5448, 1241.107
472.0269, 1257.117
472.5090, 1265.523
472.9911, 1291.844
473.4733, 1350.582
473.9554, 1417.361
474.4375, 1463.588
474.9196, 1492.893
475.4017, 1528.772
475.8839, 1574.123
476.3660, 1629.740
476.8481, 1696.689
477.3302, 1773.585
477.8123, 1856.812
478.2944, 1946.858
478.7766, 2042.757
479.2587, 2139.177
479.7408, 2237.602
480.2229, 2334.129
480.7050, 2423.847
481.1871, 2514.936
481.6693, 2610.707
482.1514, 2711.060
482.6335, 2813.410
483.1156, 2914.873
483.5977, 3017.360
484.0798, 3123.564
484.5620, 3233.525
485.0441, 3346.003
485.5262, 3469.262
486.0083, 3585.684
486.4904, 3671.906
486.9725, 3727.210
487.4547, 3786.512
487.9368, 3878.772
488.4189, 3971.581
488.9010, 4027.913
489.3831, 4047.916
489.8652, 4047.783
490.3474, 4034.758
490.8295, 4011.141
491.3116, 3982.504
491.7937, 3951.634
492.2758, 3910.225
492.7579, 3863.128
493.2401, 3803.870
493.7222, 3719.334
494.2043, 3614.978
494.6864, 3511.670
495.1685, 3425.578
495.6506, 3353.966
496.1328, 3286.493
496.6149, 3227.084
497.0970, 3155.121
497.5791, 3055.843
498.0612, 2944.980
498.5433, 2837.160
499.0255, 2732.345
499.5076, 2635.021
499.9897, 2547.317
500.4718, 2468.109
500.9539, 2402.482
501.4360, 2348.323
501.9182, 2281.060
502.4003, 2180.277
502.8824, 2059.514
503.3645, 1973.102
503.8466, 1962.339
504.3287, 1932.909
504.8109, 1863.440
505.2930, 1786.581
505.7751, 1727.085
506.2572, 1687.161
506.7393, 1655.650
507.2214, 1627.439
507.7036, 1599.422
508.1857, 1555.002
508.6678, 1485.340
509.1499, 1428.000
509.6320, 1410.156
510.1141, 1402.928
510.5963, 1372.798
511.0784, 1315.262
511.5605, 1259.539
512.0426, 1221.968
512.5247, 1191.454
513.0068, 1155.974
513.4890, 1114.002
513.9711, 1061.845
514.4532, 993.7720
514.9353, 918.2144
515.4174, 868.7041
515.8995, 873.9438
516.3817, 866.3550
516.8638, 838.3472
517.3459, 801.5464
517.8280, 761.2368
518.3101, 719.9170
518.7922, 681.7227
519.2744, 649.2900
519.7565, 622.1436
520.2386, 600.0391
520.7207, 584.6260
521.2028, 565.7886
521.6849, 537.9922
522.1671, 506.9214
522.6492, 481.7915
523.1313, 463.8657
523.6134, 437.7104
524.0955, 387.7148
524.5776, 335.0122
525.0598, 302.1152
525.5419, 286.2856
526.0240, 269.3008
526.5061, 240.7129
526.9882, 206.8774
527.4703, 185.0991
527.9525, 186.2598
528.4346, 178.6401
528.9167, 156.1812
529.3988, 130.9233
529.8809, 104.5874
530.3630, 81.10205
530.8452, 69.81201
531.3273, 81.85645
531.8094, 100.0859
532.2915, 95.46484
532.7736, 68.28955
533.2557, 36.08545
533.7379, 0.2485350
534.2200, 33.17041
534.7021, 57.18115
535.1842, 72.23682
535.6663, 78.92090
536.1484, 72.79395
536.6306, 62.74268
537.1127, 51.98975
537.5948, 41.59717
538.0769, 32.75439
538.5590, 25.94678
539.0411, 21.52979
539.5233, 19.84277
540.0054, 20.72119
540.4875, 25.30859
540.9696, 37.58447
541.4517, 48.73535
541.9338, 55.51465
542.4160, 58.41650
542.8981, 57.73682
543.3802, 51.90332
543.8623, 46.76367
544.3444, 48.10840
544.8265, 53.87158
545.3087, 58.96826
545.7908, 62.47363
546.2729, 64.79785
546.7550, 66.23389
547.2371, 66.80029
547.7192, 66.85986
548.2014, 74.82471
548.6835, 71.90430
549.1656, 44.53125
549.6477, 10.30859
550.1298, 13.27686
550.6119, 23.26123
551.0941, 27.51123
551.5762, 28.82861
552.0583, 30.26074
552.5404, 50.71484
553.0225, 96.62256
553.5046, 135.9790
553.9868, 154.8999
554.4689, 159.1528
554.9510, 155.5117
555.4331, 139.8257
555.9152, 137.6377
556.3973, 170.4263
556.8795, 210.5010
557.3616, 229.0293
557.8437, 229.7446
558.3258, 235.9609
558.8079, 261.8052
559.2900, 295.9043
559.7722, 307.1162
560.2543, 277.0352
560.7364, 271.0015
561.2185, 320.6411
561.7006, 370.3838
562.1827, 390.6616
562.6649, 389.6069
563.1470, 392.0093
563.6291, 412.4844
564.1112, 432.6797
564.5933, 426.0132
565.0754, 401.5654
565.5576, 394.3130
566.0397, 413.7573
566.5218, 443.7271
567.0039, 468.3843
567.4860, 487.3550
567.9681, 509.1079
568.4503, 535.0078
568.9324, 561.8374
569.4145, 590.7974
569.8966, 619.1104
570.3787, 644.1187
570.8608, 665.1289
571.3430, 682.7065
571.8251, 697.1904
572.3072, 708.5942
572.7893, 713.9814
573.2714, 710.3618
573.7535, 715.6011
574.2357, 738.7700
574.7178, 774.8857
575.1999, 816.5581
575.6820, 866.5146
576.1641, 909.6787
576.6462, 939.4819
577.1284, 963.3701
577.6105, 985.4653
578.0926, 1006.789
578.5747, 1029.032
579.0568, 1053.354
579.5389, 1076.736
580.0211, 1089.785
580.5032, 1086.556
580.9853, 1102.388
581.4674, 1158.086
581.9495, 1211.129
582.4316, 1233.944
582.9138, 1237.196
583.3959, 1244.777
583.8780, 1263.479
584.3601, 1285.930
584.8422, 1305.097
585.3243, 1325.244
585.8065, 1356.161
586.2886, 1398.915
586.7707, 1444.940
587.2528, 1489.337
587.7349, 1529.844
588.2170, 1544.330
588.6992, 1501.476
589.1813, 1482.119
589.6634, 1510.915
590.1455, 1553.937
590.6276, 1589.545
591.1097, 1614.883
591.5919, 1632.126
592.0740, 1635.093
592.5561, 1635.208
593.0382, 1652.450
593.5203, 1684.068
594.0024, 1712.166
594.4846, 1732.278
594.9667, 1740.920
595.4488, 1730.075
595.9309, 1693.194
596.4130, 1676.645
596.8951, 1683.135
597.3773, 1703.827
597.8594, 1751.742
598.3415, 1804.547
598.8236, 1832.456
599.3057, 1828.883
599.7878, 1817.482
600.2700, 1819.376
600.7521, 1832.446
601.2342, 1852.405
601.7163, 1881.217
602.1984, 1896.756
602.6805, 1881.815
603.1627, 1852.711
603.6448, 1844.125
604.1269, 1861.987
604.6090, 1879.273
605.0911, 1899.601
605.5732, 1912.874
606.0554, 1903.736
606.5375, 1883.737
607.0196, 1879.257
607.5017, 1902.274
607.9838, 1933.058
608.4659, 1942.560
608.9481, 1931.097
609.4302, 1920.013
609.9123, 1906.830
610.3944, 1904.988
610.8765, 1938.237
611.3586, 1986.174
611.8408, 1993.382
612.3229, 1936.816
612.8050, 1882.994
613.2871, 1848.929
613.7692, 1828.050
614.2513, 1817.732
614.7335, 1815.131
615.2156, 1815.837
615.6977, 1818.150
616.1798, 1817.522
616.6619, 1801.303
617.1440, 1766.717
617.6262, 1734.168
618.1083, 1704.519
618.5904, 1680.562
619.0725, 1669.992
619.5546, 1666.941
620.0367, 1654.739
620.5189, 1628.876
621.0010, 1595.965
621.4831, 1552.124
621.9652, 1506.301
622.4473, 1470.122
622.9294, 1445.301
623.4116, 1430.059
623.8937, 1425.667
624.3758, 1425.648
624.8579, 1401.668
625.3400, 1343.934
625.8221, 1295.365
626.3043, 1268.748
626.7864, 1249.221
627.2685, 1226.493
627.7506, 1200.987
628.2327, 1174.759
628.7148, 1146.529
629.1970, 1119.916
629.6791, 1094.419
630.1612, 1072.915
630.6433, 1064.877
631.1254, 1069.993
631.6075, 1070.102
632.0897, 1046.186
632.5718, 1003.613
633.0539, 980.4424
633.5360, 984.3965
634.0181, 988.7656
634.5002, 993.3774
634.9824, 991.0552
635.4645, 972.1357
635.9466, 939.0371
636.4287, 910.4688
636.9108, 894.6611
637.3929, 883.0352
637.8751, 868.9570
638.3572, 854.7163
638.8393, 846.4067
639.3214, 844.8999
639.8035, 843.1958
640.2856, 833.2388
640.7678, 816.4727
641.2499, 809.5396
641.7320, 823.5469
642.2141, 822.2070
642.6962, 773.6987
643.1783, 723.1211
643.6605, 711.6440
644.1426, 737.0439
644.6247, 759.9805
645.1068, 768.7842
645.5889, 770.0010
646.0710, 764.8696
646.5532, 756.6050
647.0353, 751.1719
647.5174, 750.1143
647.9995, 750.8369
648.4816, 750.8848
648.9637, 750.5581
649.4459, 749.3989
649.9280, 744.9102
650.4101, 745.4888
650.8922, 755.1743
651.3743, 769.7026
651.8564, 788.3765
652.3386, 810.2085
652.8207, 824.0210
653.3028, 815.8735
653.7849, 809.0864
654.2670, 823.3794
654.7491, 849.4351
655.2313, 869.0142
655.7134, 878.1802
656.1955, 886.6128
656.6776, 905.5098
657.1597, 931.8501
657.6418, 944.5366
658.1240, 938.5630
658.6061, 931.2085
659.0882, 922.8442
659.5703, 919.8999
660.0524, 931.1880
660.5345, 954.9131
661.0167, 972.8682
661.4988, 981.8975
661.9809, 985.0610
662.4630, 978.4165
662.9451, 969.3115
663.4272, 970.5825
663.9094, 983.4561
664.3915, 995.0210
664.8736, 992.2153
665.3557, 979.8330
665.8378, 976.8623
666.3199, 983.1104
666.8021, 997.1484
667.2842, 1027.951
667.7663, 1056.054
668.2484, 1052.735
668.7305, 1021.112
669.2126, 1005.166
669.6948, 1031.645
670.1769, 1050.359
670.6590, 1030.665
671.1411, 999.0415
671.6232, 986.4150
672.1053, 995.5811
672.5875, 1009.946
673.0696, 1019.045
673.5517, 1022.258
674.0338, 1018.316
674.5159, 1007.682
674.9980, 990.8735
675.4802, 964.2700
675.9623, 938.5693
676.4444, 927.1108
676.9265, 929.1279
677.4086, 920.4907
677.8907, 890.8584
678.3729, 863.7754
678.8550, 840.3042
679.3371, 822.9536
679.8192, 821.0210
680.3013, 830.4546
680.7834, 832.5747
681.2656, 810.7061
681.7477, 776.9673
682.2298, 759.4297
682.7119, 754.9360
683.1940, 741.1079
683.6761, 712.8716
684.1583, 680.4678
684.6404, 652.1963
685.1225, 627.8022
685.6046, 602.1802
686.0867, 570.7344
686.5688, 545.1567
687.0510, 533.2056
687.5331, 520.4189
688.0152, 492.1099
688.4973, 456.1440
688.9794, 434.5146
689.4615, 441.0896
689.9437, 445.1787
690.4258, 419.1628
690.9079, 375.6995
691.3900, 332.0015
691.8721, 291.3384
692.3542, 260.5581
692.8364, 243.8677
693.3185, 237.7966
693.8006, 237.3694
694.2827, 247.9766
694.7648, 243.5481
695.2469, 211.1616
695.7291, 179.5034
696.2112, 163.9788
696.6933, 157.3811
697.1754, 149.6294
697.6575, 139.1160
698.1396, 127.1077
698.6218, 108.3396
699.1039, 93.80811
699.5860, 100.4663
700.0681, 118.1816
700.5502, 119.5459
701.0323, 94.45386
701.5145, 63.76953
701.9966, 57.73560
702.4787, 73.43726
702.9608, 71.96753
703.4429, 48.94531
703.9250, 29.69995
704.4072, 26.79126
704.8893, 29.23364
705.3714, 19.31201
705.8535, 5.718750
706.3356, 20.32886
706.8177, 16.84302
707.2999, 10.80591
707.7820, 6.768066
708.2641, 3.949951
708.7462, 1.439697
709.2283, 0.9401860
709.7104, 3.489502
710.1926, 8.976563
710.6747, 12.63623
711.1568, 1.065674
711.6389, 21.54492
712.1210, 30.18604
712.6031, 17.75586
713.0853, 0.1157230
713.5674, 10.55298
714.0495, 13.17725
714.5316, 2.640381
715.0137, 36.91260
715.4958, 61.89844
715.9780, 56.53613
716.4601, 45.38184
716.9422, 44.97974
717.4243, 51.25684
717.9064, 49.66431
718.3885, 30.95630
718.8707, 13.46191
719.3528, 10.04419
719.8349, 13.52539
720.3170, 15.13477
720.7991, 14.15234
721.2813, 12.96338
721.7634, 12.79736
722.2455, 14.17529
722.7276, 19.82544
723.2097, 30.22070
723.6918, 31.92798
724.1740, 19.96045
724.6561, 11.77417
725.1382, 20.32495
725.6203, 35.96387
726.1024, 36.35522
726.5845, 14.79395
727.0667, 5.366211
727.5488, 22.41089
728.0309, 39.91040
728.5130, 45.91113
728.9951, 44.05933
729.4772, 39.73779
729.9594, 34.53027
730.4415, 28.90723
730.9236, 21.36865
731.4057, 14.61401
731.8878, 16.33911
732.3699, 24.15161
732.8521, 23.64087
733.3342, 10.06079
733.8163, 3.958984
734.2984, 4.413818
734.7805, 7.218994
735.2626, 12.06567
735.7448, 7.077393
736.2269, 1.435303
736.7090, 11.68359
737.1911, 17.19629
737.6732, 8.663818
738.1553, 51.91284
738.6375, 61.66162
739.1196, 0.4016110
739.6017, 50.80811
740.0838, 39.61743
740.5659, 7.694336
741.0480, 2.914551
741.5302, 6.600586
742.0123, 15.15137
742.4944, 11.95264
742.9765, 4.048584
743.4586, 1.398682
743.9407, 3.162354
744.4229, 2.714111
744.9050, 0.9826660
745.3871, 0.4208980
745.8692, 12.34985
746.3513, 29.24756
746.8334, 41.88232
747.3156, 50.82593
747.7977, 53.08521
748.2798, 41.17798
748.7619, 31.72388
749.2440, 30.47607
749.7261, 32.81323
750.2083, 34.41333
750.6904, 34.65503
751.1725, 33.93799
751.6546, 28.86255
752.1367, 26.41577
752.6188, 37.89111
753.1010, 53.90454
753.5831, 55.31543
754.0652, 40.81616
754.5473, 26.79175
755.0294, 26.05957
755.5115, 33.16113
755.9937, 33.62671
756.4758, 27.11768
756.9579, 23.27100
757.4400, 22.68433
757.9221, 27.57031
758.4042, 42.28613
758.8864, 62.18921
759.3685, 73.88501
759.8506, 74.38940
760.3327, 72.15991
760.8148, 62.83984
761.2969, 55.44385
761.7791, 54.93506
762.2612, 58.55127
762.7433, 61.93750
763.2254, 64.11816
763.7075, 67.88208
764.1896, 77.73999
764.6718, 87.79883
765.1539, 86.49585
765.6360, 80.35718
766.1181, 89.05518
766.6002, 116.4102
767.0823, 143.9878
767.5645, 154.3855
768.0466, 150.8540
768.5287, 142.8655
769.0108, 128.7163
769.4929, 125.3220
769.9750, 138.1050
770.4572, 159.0696
770.9393, 185.2957
771.4214, 213.3347
771.9035, 229.3987
772.3856, 225.3770
772.8677, 221.1428
773.3499, 217.5400
773.8320, 216.2864
774.3141, 217.3462
774.7962, 220.4731
775.2783, 227.0107
775.7604, 238.2307
776.2426, 249.0215
776.7247, 257.2761
777.2068, 260.7307
777.6889, 252.8181
778.1710, 238.9978
778.6531, 233.4744
779.1353, 240.0896
779.6174, 251.7864
780.0995, 262.1226
780.5816, 270.9214
781.0637, 279.5015
781.5458, 288.9773
782.0280, 289.7573
782.5101, 275.3933
782.9922, 262.2852
783.4743, 266.3113
783.9564, 283.7568
784.4385, 293.5083
784.9207, 293.1611
785.4028, 284.7258
785.8849, 257.2190
786.3670, 233.8462
786.8491, 229.0371
787.3312, 235.5586
787.8134, 240.7258
788.2955, 241.5549
788.7776, 244.0339
789.2597, 257.2595
789.7418, 267.3811
790.2239, 255.7104
790.7061, 233.7671
791.1882, 227.8401
791.6703, 242.5203
792.1524, 255.4714
792.6345, 244.7922
793.1166, 220.8198
793.5988, 208.4314
794.0809, 207.1772
794.5630, 213.1243
795.0451, 226.6208
795.5272, 232.2400
796.0093, 216.2493
796.4915, 187.5281
796.9736, 174.2471
797.4557, 179.0159
797.9378, 184.0999
798.4199, 192.9724
798.9020, 195.7476
799.3842, 184.0950
799.8663, 167.5012
800.3484, 158.7520
800.8305, 159.3484
801.3126, 161.6365
801.7947, 170.2761
802.2769, 173.0344
802.7590, 155.0017
803.2411, 131.5251
803.7232, 124.1189
804.2053, 134.0078
804.6874, 146.3738
805.1696, 152.3289
805.6517, 154.7869
806.1338, 158.2373
806.6159, 161.0740
807.0980, 156.8591
807.5801, 145.8989
808.0623, 139.4497
808.5444, 144.4309
809.0265, 155.4612
809.5086, 162.5015
809.9907, 165.4292
810.4728, 166.9954
810.9550, 167.6921
811.4371, 164.5793
811.9192, 153.3640
812.4013, 140.9321
812.8834, 138.4487
813.3655, 147.4275
813.8477, 148.7461
814.3298, 135.1082
814.8119, 123.5303
815.2940, 115.3125
815.7761, 112.2947
816.2582, 119.4929
816.7404, 132.9771
817.2225, 142.2351
817.7046, 144.5969
818.1867, 139.8621
818.6688, 121.9614
819.1509, 101.3936
819.6331, 88.69116
820.1152, 83.17749
820.5973, 81.82007
821.0794, 83.12793
821.5615, 83.07886
822.0436, 73.44482
822.5258, 80.85352
823.0079, 66.77539
823.4900, 88.60840
823.9721, 104.0164
824.4542, 107.4697
824.9363, 103.5964
825.4185, 94.82910
825.9006, 83.69971
826.3827, 81.59155
826.8648, 92.02783
827.3469, 98.28223
827.8290, 98.27490
828.3111, 95.47461
828.7932, 90.58057
829.2753, 84.50464
829.7574, 79.04370
830.2396, 74.24219
830.7217, 69.97437
831.2038, 62.30835
831.6859, 59.96558
832.1680, 73.24756
832.6501, 88.29468
833.1323, 88.17651
833.6144, 74.70483
834.0965, 65.96265
834.5786, 72.78979
835.0607, 81.21411
835.5428, 82.08496
836.0250, 78.56421
836.5071, 72.13208
836.9892, 65.06519
837.4713, 63.63770
837.9534, 70.63965
838.4355, 78.40039
838.9177, 76.27393
839.3998, 67.98682
839.8819, 63.12964
840.3640, 62.20093
840.8461, 70.14771
841.3282, 88.94385
841.8104, 106.9128
842.2925, 111.9966
842.7746, 107.2158
843.2567, 107.6489
843.7388, 114.7944
844.2209, 120.6050
844.7031, 124.3049
845.1852, 126.0103
845.6673, 123.8813
846.1494, 120.8486
846.6315, 124.3665
847.1136, 139.1731
847.5958, 144.8552
848.0779, 128.6333
848.5600, 119.0654
849.0421, 129.0166
849.5242, 146.5884
850.0063, 160.9697
850.4885, 171.5413
850.9706, 181.9377
851.4527, 196.5613
851.9348, 206.2756
852.4169, 205.4436
852.8990, 198.4526
853.3812, 181.7207
853.8633, 163.8655
854.3454, 167.1667
854.8275, 199.8542
855.3096, 233.0242
855.7917, 239.8010
856.2739, 230.4656
856.7560, 216.2385
857.2381, 201.0054
857.7202, 197.9045
858.2023, 209.2158
858.6844, 223.5867
859.1666, 233.0215
859.6487, 236.0432
860.1308, 225.0454
860.6129, 200.4844
861.0950, 188.8804
861.5771, 194.7729
862.0593, 197.8076
862.5414, 186.4907
863.0235, 169.6472
863.5056, 162.1580
863.9877, 165.2041
864.4698, 164.8533
864.9520, 161.2419
865.4341, 153.8420
865.9162, 139.7849
866.3983, 124.7922
866.8804, 112.4102
867.3625, 103.2283
867.8447, 99.55811
868.3268, 105.8975
868.8089, 108.4912
869.2910, 103.6838
869.7731, 97.40039
870.2552, 91.08862
870.7374, 86.07471
871.2195, 85.59375
871.7016, 89.68604
872.1837, 89.28662
872.6658, 75.14990
873.1479, 61.33130
873.6301, 58.34106
874.1122, 59.13940
874.5943, 52.84521
875.0764, 41.77124
875.5585, 38.55127
876.0406, 49.84863
876.5228, 64.46143
877.0049, 75.29834
877.4870, 79.23730
877.9691, 61.88794
878.4512, 31.88037
878.9333, 24.72778
879.4155, 49.46509
879.8976, 77.94556
880.3797, 84.44629
880.8618, 75.36890
881.3439, 66.10205
881.8260, 56.73584
882.3082, 47.84570
882.7903, 39.53491
883.2724, 31.87451
883.7545, 24.18555
884.2366, 20.11426
884.7188, 28.01196
885.2009, 49.37329
885.6830, 58.69897
886.1651, 52.94629
886.6472, 43.02197
887.1293, 26.72949
887.6115, 15.17847
888.0936, 20.44849
888.5757, 38.77881
889.0578, 51.45630
889.5399, 57.53223
890.0220, 59.42871
890.5042, 51.80298
890.9863, 46.27710
891.4684, 48.81787
891.9505, 55.20190
892.4326, 60.40503
892.9147, 64.06812
893.3969, 67.53979
893.8790, 72.47925
894.3611, 75.49414
894.8432, 72.43848
895.3253, 69.53076
895.8074, 74.51636
896.2896, 83.66504
896.7717, 86.56592
897.2538, 79.29639
897.7359, 72.39990
898.2180, 73.77271
898.7001, 76.56543
899.1823, 73.89746
899.6644, 68.76685
900.1465, 66.38574
900.6286, 67.44580
901.1107, 69.87622
901.5928, 73.54541
902.0750, 74.66211
902.5571, 64.45630
903.0392, 50.30957
903.5213, 48.12964
904.0034, 56.32935
904.4855, 63.09546
904.9677, 64.15088
905.4498, 64.58594
905.9319, 70.47363
906.4140, 79.14844
906.8961, 83.89746
907.3782, 84.67041
907.8604, 78.31323
908.3425, 64.36475
908.8246, 57.38501
909.3067, 66.94287
909.7888, 84.36938
910.2709, 95.57202
910.7531, 100.5388
911.2352, 94.56519
911.7173, 75.59399
912.1994, 57.18652
912.6815, 41.81836
913.1636, 32.23535
913.6458, 32.19873
914.1279, 39.21631
914.6100, 42.90259
915.0921, 42.61523
915.5742, 40.42529
916.0563, 32.86426
916.5385, 30.25073
917.0206, 41.28882
917.5027, 55.42334
917.9848, 59.26904
918.4669, 52.65894
918.9490, 44.34692
919.4312, 25.56909
919.9133, 17.81958
920.3954, 33.93994
920.8775, 50.35205
921.3596, 54.89893
921.8417, 50.35181
922.3239, 41.16260
922.8060, 26.97437
923.2881, 14.01733
923.7702, 4.070313
924.2523, 5.158691
924.7344, 20.11133
925.2166, 30.16846
925.6987, 20.08350
926.1808, 4.203125
926.6629, 19.13159
927.1450, 15.68921
927.6271, 10.32251
928.1093, 11.90576
928.5914, 13.81104
929.0735, 11.97778
929.5556, 7.438477
930.0377, 2.870850
930.5198, 15.98413
931.0020, 15.64429
931.4841, 14.52222
931.9662, 43.60571
932.4483, 41.84521
932.9304, 28.68188
933.4125, 27.92114
933.8947, 35.97607
934.3768, 38.20239
934.8589, 31.06274
935.3410, 26.13599
935.8231, 35.43848
936.3052, 32.84570
936.7874, 49.06885
937.2695, 43.24585
937.7516, 46.08569
938.2337, 57.02002
938.7158, 62.99219
939.1979, 57.60889
939.6801, 53.09131
940.1622, 69.51440
940.6443, 94.92969
941.1264, 99.74097
941.6085, 88.45190
942.0906, 76.09277
942.5728, 66.00732
943.0549, 60.66821
943.5370, 62.22217
944.0191, 65.03638
944.5012, 57.61914
944.9833, 42.14331
945.4655, 36.20898
945.9476, 39.76416
946.4297, 43.20190
946.9118, 43.69922
947.3939, 48.42310
947.8760, 64.71997
948.3582, 85.99341
948.8403, 94.08887
949.3224, 88.74390
949.8045, 81.01904
950.2866, 69.95654
950.7687, 69.51221
951.2509, 87.80566
951.7330, 106.1812
952.2151, 103.5325
952.6972, 84.04565
953.1793, 68.45239
953.6614, 55.07202
954.1436, 56.91748
954.6257, 80.80664
955.1078, 99.50000
955.5899, 98.52368
956.0720, 90.29053
956.5541, 92.01562
957.0363, 103.3142
957.5184, 112.2087
958.0005, 122.2368
958.4826, 118.4985
958.9647, 89.85229
959.4468, 64.75781
959.9290, 60.83838
960.4111, 69.20435
960.8932, 74.58862
961.3753, 76.67480
961.8574, 78.29639
962.3395, 77.51367
962.8217, 79.98950
963.3038, 90.86353
963.7859, 99.87427
964.2680, 97.37720
964.7501, 89.11890
965.2322, 89.82422
965.7144, 104.5071
966.1965, 109.7908
966.6786, 96.30029
967.1607, 86.39746
967.6428, 88.58252
968.1249, 91.82690
968.6071, 87.81982
969.0892, 78.62183
969.5713, 70.05664
970.0534, 61.27344
970.5355, 55.78857
971.0176, 57.71118
971.4998, 57.95020
971.9819, 50.39551
972.4640, 42.49438
972.9461, 43.04956
973.4282, 49.52686
973.9103, 50.16431
974.3925, 39.13208
974.8746, 32.47144
975.3567, 37.78638
975.8388, 41.76416
976.3209, 36.03857
976.8030, 27.78735
977.2852, 23.83008
977.7673, 24.72729
978.2494, 30.13037
978.7315, 46.54150
979.2136, 54.71167
979.6957, 44.31055
980.1779, 31.28467
980.6600, 21.20508
981.1421, 15.61108
981.6242, 19.90186
982.1063, 31.75195
982.5884, 32.67944
983.0706, 7.157959
983.5527, 12.04346
984.0348, 11.93066
984.5169, 5.442627
984.9990, 4.312988
985.4811, 12.23755
985.9633, 10.63721
986.4454, 0.3955080
986.9275, 10.28564
987.4096, 16.93213
987.8917, 19.91406
988.3738, 15.58618
988.8560, 11.19824
989.3381, 12.80591
989.8202, 17.79150
990.3023, 21.46387
990.7844, 23.00342
991.2665, 23.07544
991.7487, 21.50269
992.2308, 18.99414
992.7129, 14.71533
993.1950, 10.30542
993.6771, 7.927002
994.1592, 6.160400
994.6414, 0.2336430
995.1235, 10.16895
995.6056, 13.06274
996.0877, 5.917725
996.5698, 21.54150
997.0519, 21.84229
997.5341, 13.11890
998.0162, 3.058838
998.4983, 22.10229
998.9804, 38.15527
999.4625, 49.75146
999.9446, 56.16382
1000.427, 58.19946
1000.909, 53.53247
1001.391, 32.15210
1001.873, 11.30981
1002.355, 8.258301
1002.837, 17.42700
1003.319, 25.97339
1003.802, 30.97632
1004.284, 35.39502
1004.766, 42.63379
1005.248, 50.76562
1005.730, 47.17236
1006.212, 41.22046
1006.694, 35.98267
1007.176, 36.48340
1007.659, 43.52222
1008.141, 60.99658
1008.623, 73.71338
1009.105, 67.12085
1009.587, 62.36084
1010.069, 63.15308
1010.551, 64.77563
1011.033, 56.02979
1011.515, 43.89795
1011.998, 44.96143
1012.480, 62.58472
1012.962, 76.37769
1013.444, 76.44995
1013.926, 72.73706
1014.408, 67.22583
1014.890, 63.01538
1015.372, 61.06982
1015.854, 63.29468
1016.337, 75.96533
1016.819, 100.4988
1017.301, 116.1416
1017.783, 111.8201
1018.265, 101.8081
1018.747, 88.11084
1019.229, 75.05273
1019.711, 65.03076
1020.194, 58.61255
1020.676, 56.62183
1021.158, 59.21191
1021.640, 64.24683
1022.122, 74.26660
1022.604, 82.44946
1023.086, 89.03662
1023.568, 90.18018
1024.051, 75.99243
1024.533, 57.19458
1025.015, 55.39697
1025.497, 73.95923
1025.979, 84.60742
1026.461, 72.39673
1026.943, 62.31421
1027.425, 59.11401
1027.907, 62.77148
1028.390, 78.71167
1028.872, 98.88135
1029.354, 110.3613
1029.836, 111.8105
1030.318, 112.5964
1030.800, 116.9470
1031.282, 116.9509
1031.764, 104.5325
1032.246, 94.18091
1032.729, 97.32617
1033.211, 106.3398
1033.693, 110.1699
1034.175, 108.1638
1034.657, 105.2124
1035.139, 95.45288
1035.621, 94.34619
1036.103, 115.2708
1036.586, 131.9333
1037.068, 127.5044
1037.550, 114.5208
1038.032, 106.3281
1038.514, 103.3774
1038.996, 112.6860
1039.478, 153.0679
1039.960, 174.8452
1040.443, 167.7815
1040.925, 153.0735
1041.407, 132.3755
1041.889, 113.4595
1042.371, 106.7988
1042.853, 110.2297
1043.335, 105.3337
1043.817, 84.49902
1044.299, 70.48877
1044.781, 64.79590
1045.264, 63.74707
1045.746, 67.44653
1046.228, 74.72192
1046.710, 86.42236
1047.192, 99.14575
1047.674, 97.09204
1048.156, 102.9753
1048.638, 110.8848
1049.121, 97.25342
1049.603, 114.9065
1050.085, 101.4424
1050.567, 78.88477
1051.049, 64.56177
1051.531, 56.87646
1052.013, 51.33447
1052.495, 47.89624
1052.978, 49.82739
1053.460, 58.54614
1053.942, 57.82251
1054.424, 41.76953
1054.906, 28.89746
1055.388, 33.36597
1055.870, 47.46069
1056.352, 53.51514
1056.834, 51.55786
1057.317, 56.61792
1057.799, 68.63037
1058.281, 69.81592
1058.763, 56.31055
1059.245, 45.98999
1059.727, 49.19824
1060.209, 58.73315
1060.691, 65.67603
1061.173, 68.96387
1061.656, 62.60400
1062.138, 48.31885
1062.620, 42.75635
1063.102, 35.11572
1063.584, 79.35791
1064.066, 91.72998
1064.548, 23.25073
1065.030, 26.00830
1065.513, 9.527100
1065.995, 9.624756
1066.477, 62.85913
1066.959, 33.65454
1067.441, 37.23999
1067.923, 41.27466
1068.405, 75.87720
1068.887, 44.17188
1069.370, 32.72949
1069.852, 87.55371
1070.334, 105.8184
1070.816, 66.42822
1071.298, 102.8325
1071.780, 72.64526
1072.262, 83.20630
1072.744, 74.75317
1073.226, 62.85034
1073.708, 53.20532
1074.191, 50.93188
1074.673, 69.75757
1075.155, 88.34009
1075.637, 82.12695
1076.119, 64.56152
1076.601, 57.43018
1077.083, 60.46045
1077.565, 57.80396
1078.047, 41.22437
1078.530, 30.53223
1079.012, 39.09009
1079.494, 49.63428
1079.976, 53.92749
1080.458, 54.86133
1080.940, 52.22632
1081.422, 49.65723
1081.904, 57.59448
1082.387, 80.96240
1082.869, 93.70728
1083.351, 83.49072
1083.833, 72.96802
1084.315, 62.34521
1084.797, 58.80103
1085.279, 75.46069
1085.761, 98.67578
1086.244, 103.2043
1086.726, 87.90308
1087.208, 75.67310
1087.690, 64.32642
1088.172, 60.49585
1088.654, 67.85791
1089.136, 77.74585
1089.618, 89.83154
1090.100, 97.05200
1090.583, 89.13501
1091.065, 69.64722
1091.547, 59.34546
1092.029, 59.26587
1092.511, 62.79517
1092.993, 70.00391
1093.475, 79.31567
1093.957, 91.52490
1094.439, 99.15649
1094.922, 94.95972
1095.404, 85.31909
1095.886, 85.73022
1096.368, 94.80762
1096.850, 95.85278
1097.332, 89.80811
1097.814, 88.27222
1098.296, 92.95508
1098.779, 92.06445
1099.261, 78.58667
1099.743, 64.80859
1100.225, 70.72437
1100.707, 56.57495
1101.189, 73.45117
1101.671, 50.83740
1102.153, 48.31274
1102.635, 64.02686
1103.118, 77.42798
1103.600, 81.43555
1104.082, 82.07422
1104.564, 83.47632
1105.046, 84.12793
1105.528, 79.70630
1106.010, 76.02124
1106.492, 83.79883
1106.974, 95.35474
1107.457, 96.06689
1107.939, 85.11572
1108.421, 72.62280
1108.903, 58.83667
1109.385, 54.96802
1109.867, 77.48633
1110.349, 97.60425
1110.831, 94.20801
1111.314, 84.27661
1111.796, 85.94385
1112.278, 95.75781
1112.760, 100.2725
1113.242, 96.44360
1113.724, 96.81201
1114.206, 104.3074
1114.688, 113.5137
1115.171, 128.7673
1115.653, 138.6245
1116.135, 135.9580
1116.617, 125.3059
1117.099, 111.7454
1117.581, 95.84302
1118.063, 83.90942
1118.545, 75.80542
1119.027, 73.73413
1119.510, 80.54883
1119.992, 80.08862
1120.474, 61.54761
1120.956, 44.47437
1121.438, 36.09985
1121.920, 33.75903
1122.402, 28.55005
1122.884, 26.04468
1123.366, 30.58154
1123.849, 40.07349
1124.331, 44.33594
1124.813, 36.80713
1125.295, 33.39209
1125.777, 36.11377
1126.259, 34.10034
1126.741, 39.38110
1127.223, 36.93872
1127.706, 40.24365
1128.188, 45.74854
1128.670, 47.36157
1129.152, 45.89746
1129.634, 44.28540
1130.116, 43.38501
1130.598, 39.92847
1131.080, 30.72803
1131.563, 21.88745
1132.045, 17.69580
1132.527, 15.04565
1133.009, 6.190186
1133.491, 1.100342
1133.973, 22.54346
1134.455, 59.55542
1134.937, 65.73608
1135.419, 22.08130
1135.901, 8.243408
1136.384, 9.906006
1136.866, 3.801270
1137.348, 20.74512
1137.830, 40.78467
1138.312, 39.70264
1138.794, 29.16528
1139.276, 35.40845
1139.758, 57.48877
1140.241, 64.56104
1140.723, 55.37964
1141.205, 49.93311
1141.687, 53.93506
1142.169, 54.09131
1142.651, 45.36963
1143.133, 34.69800
1143.615, 27.37793
1144.098, 23.56323
1144.580, 25.75098
1145.062, 31.73486
1145.544, 30.27026
1146.026, 22.74854
1146.508, 15.84863
1146.990, 11.68872
1147.472, 15.72021
1147.954, 30.03784
1148.437, 39.67798
1148.919, 26.23657
1149.401, 8.239014
1149.883, 0.7541500
1150.365, 4.324707
1150.847, 32.39404
1151.329, 66.20386
1151.811, 65.70142
1152.293, 32.31421
1152.776, 16.81812
1153.258, 46.46948
1153.740, 66.99609
1154.222, 48.37720
1154.704, 31.85083
1155.186, 39.43213
1155.668, 53.02222
1156.150, 59.92358
1156.633, 60.05615
1157.115, 51.74341
1157.597, 33.51831
1158.079, 30.08789
1158.561, 46.86548
1159.043, 64.11353
1159.525, 83.60449
1160.007, 88.00195
1160.490, 65.85815
1160.972, 45.14819
1161.454, 54.74194
1161.936, 80.38306
1162.418, 84.24219
1162.900, 70.45874
1163.382, 67.55200
1163.864, 72.98608
1164.346, 67.46729
1164.828, 49.56860
1165.311, 33.74463
1165.793, 26.80420
1166.275, 27.20728
1166.757, 37.16528
1167.239, 48.99463
1167.721, 56.79785
1168.203, 59.48535
1168.685, 50.34302
1169.168, 37.61719
1169.650, 38.71021
1170.132, 52.36475
1170.614, 56.46899
1171.096, 41.20581
1171.578, 25.63647
1172.060, 7.596191
1172.542, 0.4177250
1173.025, 15.81519
1173.507, 37.20020
1173.989, 56.10669
1174.471, 70.91040
1174.953, 79.02051
1175.435, 80.47632
1175.917, 76.34888
1176.399, 64.31006
1176.881, 58.77368
1177.364, 62.10791
1177.846, 61.28345
1178.328, 51.46777
1178.810, 44.31519
1179.292, 49.51099
1179.774, 60.05664
1180.256, 65.53369
1180.738, 65.87622
1181.220, 58.58667
1181.703, 46.69434
1182.185, 33.48193
1182.667, 24.25464
1183.149, 38.43652
1183.631, 79.00464
1184.113, 101.3184
1184.595, 60.66113
1185.077, 19.43896
1185.560, 21.57617
1186.042, 33.62085
1186.524, 28.56787
1187.006, 39.62769
1187.488, 30.41772
1187.970, 52.27783
1188.452, 65.47339
1188.934, 65.06128
1189.417, 60.64868
1189.899, 49.27148
1190.381, 40.54785
1190.863, 35.54565
1191.345, 33.93018
1191.827, 37.23975
1192.309, 39.40479
1192.791, 33.30518
1193.273, 22.59692
1193.755, 40.56372
1194.238, 36.51660
1194.720, 80.16357
1195.202, 92.13940
1195.684, 23.01172
1196.166, 26.17139
1196.648, 9.428223
1197.130, 10.03247
1197.612, 62.25073
1198.095, 34.38574
1198.577, 36.41504
1199.059, 40.32715
1199.541, 74.82764
1200.023, 43.07080
1200.505, 31.73633
1200.987, 86.62842
1201.469, 104.7866
1201.952, 65.25098
1202.434, 101.5342
1202.916, 2.363281
1203.398, 22.06274
1203.880, 93.01758
1204.362, 56.74536
1204.844, 94.18628
1205.326, 25.20947
1205.808, 21.59131
1206.291, 10.56372
1206.773, 1.025146
1207.255, 15.96289
1207.737, 57.42139
1208.219, 63.69263
1208.701, 39.09399
1209.183, 19.42456
1209.665, 11.67847
1210.147, 13.75879
1210.630, 24.26514
1211.112, 37.42847
1211.594, 49.94995
1212.076, 59.49121
1212.558, 64.46069
1213.040, 64.81958
1213.522, 50.94727
1214.004, 38.74219
1214.487, 58.34570
1214.969, 100.1130
1215.451, 120.2683
1215.933, 107.9575
1216.415, 95.64868
1216.897, 85.87744
1217.379, 77.38574
1217.861, 71.78052
1218.344, 63.20093
1218.826, 47.17651
1219.308, 31.98462
1219.790, 25.92603
1220.272, 27.36548
1220.754, 34.66553
1221.236, 46.23950
1221.718, 51.36401
1222.200, 50.21484
1222.682, 42.43018
1223.165, 31.22290
1223.647, 29.94336
1224.129, 42.02002
1224.611, 47.89453
1225.093, 27.48291
1225.575, 12.94116
1226.057, 40.11890
1226.539, 68.52002
1227.022, 60.44336
1227.504, 79.06592
1227.986, 53.39966
1228.468, 78.98267
1228.950, 83.62280
1229.432, 64.18555
1229.914, 53.85620
1230.396, 57.10303
1230.879, 55.69751
1231.361, 45.23340
1231.843, 45.80615
1232.325, 66.31885
1232.807, 81.09741
1233.289, 66.88843
1233.771, 45.52222
1234.253, 26.99951
1234.735, 18.22656
1235.218, 33.29126
1235.700, 61.89844
1236.182, 64.58228
1236.664, 47.30615
1237.146, 31.63867
1237.628, 22.52173
1238.110, 19.09229
1238.592, 23.07739
1239.074, 22.76538
1239.557, 2.340088
1240.039, 6.769287
1240.521, 18.09082
1241.003, 42.69556
1241.485, 18.52710
1241.967, 59.35864
1242.449, 103.6101
1242.931, 116.0166
1243.414, 1.183105
1243.896, 50.64917
1244.378, 34.25537
1244.860, 15.14771
1245.342, 87.69995
1245.824, 8.754150
1246.306, 62.07983
1246.788, 66.23657
1247.271, 101.0349
1247.753, 69.48022
1248.235, 58.35498
1248.717, 65.95508
1249.199, 83.82397
1249.681, 59.96362
1250.163, 24.90942
1250.645, 18.25781
1251.127, 32.46509
1251.609, 41.03027
1252.092, 41.12500
1252.574, 35.50269
1253.056, 18.48364
1253.538, 10.70117
1254.020, 15.04736
1254.502, 25.61475
1254.984, 42.17969
1255.466, 54.64941
1255.949, 55.66357
1256.431, 48.77051
1256.913, 38.37646
1257.395, 34.52539
1257.877, 38.27905
1258.359, 44.81958
1258.841, 35.87305
1259.323, 16.28345
1259.806, 14.84106
1260.288, 26.64404
1260.770, 32.38403
1261.252, 25.65625
1261.734, 17.11963
1262.216, 5.007568
1262.698, 0.5563960
1263.180, 6.425049
1263.662, 15.16479
1264.145, 21.21094
1264.627, 25.79614
1265.109, 30.03271
1265.591, 32.43140
1266.073, 29.70386
1266.555, 22.31860
1267.037, 11.66797
1267.519, 1.087891
1268.001, 6.190918
1268.484, 26.76929
1268.966, 35.90381
1269.448, 28.65405
1269.930, 16.58984
1270.412, 8.879639
1270.894, 2.916504
1271.376, 0.3251950
1271.858, 0.0000000E+00
##END=



