##NAMES=Hydroxylherderite
##RRUFFID=R060353
##IDEAL CHEMISTRY=CaBePO_4_(OH)
##LOCALITY=Shigar Valley, northeast of Skardu, Baltistan, Pakistan
##OWNER=RRUFF
##SOURCE=Herb Obodda
##DESCRIPTION=Colorless equant crystal
##STATUS=The identification of this mineral has been confirmed by X-ray diffraction and chemical analysis
##URL=rruff.info/R060353
##MEASURED CHEMISTRY=(Ca_0.99_Mn_0.01_)_Σ=1_Be_1.00_P_1.00_O_4_((OH)_0.52_F_0.48_)_Σ=1_; trace amounts of Na; Be not measured but assumed by stoichiometry; OH estimated by charge balance
157.5064, 0.0000000E+00
157.9885, 0.5193480
158.4706, 6.5919999E-03
158.9528, 4.006226
159.4349, 9.980957
159.9170, 16.29529
160.3991, 23.82446
160.8812, 33.77039
161.3633, 45.20538
161.8455, 59.81732
162.3276, 78.78485
162.8097, 102.3065
163.2918, 127.8207
163.7739, 154.2974
164.2560, 180.6132
164.7382, 199.6618
165.2203, 219.0453
165.7024, 238.4089
166.1845, 256.3855
166.6666, 273.3632
167.1487, 287.5258
167.6309, 301.3431
168.1130, 312.1066
168.5951, 313.7418
169.0772, 301.6134
169.5593, 280.5721
170.0414, 253.4486
170.5236, 218.1198
171.0057, 183.0314
171.4878, 152.3591
171.9699, 126.0226
172.4520, 104.5110
172.9341, 89.26160
173.4163, 78.16241
173.8984, 68.64691
174.3805, 59.55768
174.8626, 52.73212
175.3447, 50.39819
175.8268, 51.99512
176.3090, 54.85614
176.7911, 57.01062
177.2732, 59.21625
177.7553, 62.83020
178.2374, 69.03772
178.7195, 75.81549
179.2017, 80.46729
179.6838, 83.19287
180.1659, 85.45227
180.6480, 88.65057
181.1301, 92.26965
181.6122, 95.33710
182.0944, 98.56000
182.5765, 100.7878
183.0586, 98.03851
183.5407, 90.49384
184.0228, 82.46954
184.5049, 76.94391
184.9871, 73.67737
185.4692, 72.22504
185.9513, 71.69684
186.4334, 71.63501
186.9155, 74.54224
187.3976, 80.92029
187.8798, 88.22888
188.3619, 93.00665
188.8440, 95.93866
189.3261, 101.1837
189.8082, 111.2265
190.2903, 124.6711
190.7725, 136.5031
191.2546, 146.6682
191.7367, 156.3447
192.2188, 167.4067
192.7009, 179.8392
193.1830, 191.8155
193.6652, 203.3441
194.1473, 213.1108
194.6294, 221.7202
195.1115, 229.7845
195.5936, 234.1809
196.0757, 231.1368
196.5579, 221.0900
197.0400, 205.8669
197.5221, 183.9929
198.0042, 156.6641
198.4863, 132.2371
198.9684, 110.4764
199.4506, 91.29724
199.9327, 75.78796
200.4148, 64.15875
200.8969, 53.73950
201.3790, 42.94257
201.8611, 31.68994
202.3433, 23.92352
202.8254, 20.35333
203.3075, 19.07214
203.7896, 16.97308
204.2717, 13.85986
204.7538, 10.80316
205.2360, 8.326294
205.7181, 6.506531
206.2002, 4.336487
206.6823, 1.530090
207.1644, 1.294922
207.6465, 2.829529
208.1287, 2.729736
208.6108, 2.496948
209.0929, 2.851074
209.5750, 3.956360
210.0571, 4.634460
210.5392, 4.741333
211.0214, 4.505127
211.5035, 4.376648
211.9856, 4.306458
212.4677, 4.424988
212.9498, 5.038025
213.4319, 6.555786
213.9140, 6.754150
214.3962, 5.324890
214.8783, 2.757202
215.3604, 0.2856450
215.8425, 2.560303
216.3246, 5.107239
216.8067, 7.079590
217.2889, 8.483398
217.7710, 8.899048
218.2531, 7.510742
218.7352, 5.501587
219.2173, 5.834900
219.6994, 9.238037
220.1816, 13.57831
220.6637, 18.38690
221.1458, 24.70258
221.6279, 28.32513
222.1100, 28.15662
222.5921, 25.71576
223.0743, 25.28302
223.5564, 28.52167
224.0385, 30.89716
224.5206, 30.00586
225.0027, 24.33820
225.4848, 19.55200
225.9670, 15.98767
226.4491, 13.32092
226.9312, 10.69141
227.4133, 8.232910
227.8954, 5.608154
228.3775, 2.465637
228.8597, 2.258972
229.3418, 4.957214
229.8239, 4.802246
230.3060, 2.859863
230.7881, 2.129700
231.2702, 3.352722
231.7524, 4.717163
232.2345, 5.406250
232.7166, 5.178406
233.1987, 4.872559
233.6808, 4.332825
234.1629, 3.761353
234.6451, 3.801453
235.1272, 5.141235
235.6093, 6.026184
236.0914, 5.518616
236.5735, 2.630493
237.0556, 0.5168460
237.5378, 0.7427980
238.0199, 1.301819
238.5020, 1.404419
238.9841, 0.5645140
239.4662, 3.7048001E-02
239.9483, 0.4609380
240.4305, 2.430176
240.9126, 3.896667
241.3947, 4.658081
241.8768, 4.959290
242.3589, 5.292542
242.8410, 5.097534
243.3232, 5.739502
243.8053, 7.991699
244.2874, 12.94238
244.7695, 16.85718
245.2516, 19.54114
245.7337, 21.29633
246.2159, 22.75793
246.6980, 23.82690
247.1801, 24.77808
247.6622, 25.63049
248.1443, 26.08887
248.6264, 27.38452
249.1086, 29.89636
249.5907, 33.08508
250.0728, 35.71606
250.5549, 37.08521
251.0370, 39.08289
251.5191, 42.59106
252.0013, 48.13782
252.4834, 53.34485
252.9655, 58.35913
253.4476, 62.86902
253.9297, 66.55627
254.4118, 70.39453
254.8940, 71.45740
255.3761, 67.94775
255.8582, 58.13232
256.3403, 50.69421
256.8224, 46.38489
257.3046, 43.87769
257.7867, 41.01257
258.2688, 37.37500
258.7509, 34.28259
259.2330, 32.49463
259.7151, 32.44702
260.1973, 31.08105
260.6794, 27.93750
261.1615, 23.97827
261.6436, 20.61450
262.1257, 17.92676
262.6078, 15.56567
263.0900, 13.25684
263.5721, 10.84717
264.0542, 9.879517
264.5363, 10.69531
265.0184, 12.45081
265.5005, 14.37439
265.9827, 16.80615
266.4648, 18.59912
266.9469, 19.31628
267.4290, 18.89734
267.9111, 17.95581
268.3932, 16.16382
268.8754, 14.43982
269.3575, 14.06860
269.8396, 15.61584
270.3217, 16.38513
270.8038, 15.37952
271.2859, 12.68677
271.7681, 11.07007
272.2502, 10.85486
272.7323, 11.38269
273.2144, 11.99585
273.6965, 12.64844
274.1786, 13.05933
274.6608, 13.18079
275.1429, 13.02124
275.6250, 12.61340
276.1071, 11.91687
276.5892, 11.10083
277.0714, 10.13306
277.5535, 8.921509
278.0356, 8.447876
278.5177, 9.021362
278.9998, 10.44885
279.4819, 11.95850
279.9641, 13.58411
280.4462, 15.28955
280.9283, 17.19995
281.4104, 19.32104
281.8925, 21.04016
282.3746, 22.25818
282.8568, 23.02307
283.3389, 23.09863
283.8210, 22.30603
284.3031, 22.14514
284.7852, 24.20923
285.2673, 28.29993
285.7495, 31.26306
286.2316, 32.31531
286.7137, 32.34753
287.1958, 33.98047
287.6779, 37.42749
288.1600, 40.87500
288.6422, 42.83240
289.1243, 43.43140
289.6064, 44.27246
290.0885, 45.54333
290.5706, 47.20361
291.0527, 49.29175
291.5349, 51.79492
292.0170, 54.19275
292.4991, 56.26978
292.9812, 57.92456
293.4633, 58.67896
293.9454, 58.38147
294.4276, 58.42859
294.9097, 60.84888
295.3918, 65.17957
295.8739, 69.17212
296.3560, 71.85205
296.8381, 73.32800
297.3203, 73.63000
297.8024, 72.71643
298.2845, 71.54932
298.7666, 70.82800
299.2487, 70.51196
299.7308, 70.57959
300.2130, 71.70203
300.6951, 72.93994
301.1772, 72.61926
301.6593, 70.76147
302.1414, 68.53687
302.6235, 66.99268
303.1057, 65.86646
303.5878, 64.64795
304.0699, 63.34033
304.5520, 61.68811
305.0341, 58.75293
305.5162, 54.79932
305.9984, 51.91870
306.4805, 53.08130
306.9626, 55.88159
307.4447, 56.86560
307.9268, 54.42993
308.4089, 50.77759
308.8911, 47.11841
309.3732, 43.63513
309.8553, 41.11975
310.3374, 40.81250
310.8195, 41.35254
311.3016, 41.29346
311.7838, 39.92175
312.2659, 38.82947
312.7480, 39.92053
313.2301, 42.12732
313.7122, 42.87146
314.1943, 38.39136
314.6765, 33.76318
315.1586, 32.99231
315.6407, 37.62512
316.1228, 42.76025
316.6049, 46.45642
317.0870, 49.01221
317.5692, 50.86914
318.0513, 50.97351
318.5334, 51.39380
319.0155, 53.43640
319.4976, 57.52051
319.9797, 61.11182
320.4619, 62.40173
320.9440, 62.99963
321.4261, 64.67847
321.9082, 69.40515
322.3903, 73.99646
322.8724, 77.34729
323.3546, 79.40393
323.8367, 81.56116
324.3188, 84.54919
324.8009, 87.55750
325.2830, 90.06970
325.7651, 90.71448
326.2473, 92.14478
326.7294, 95.54626
327.2115, 100.5248
327.6936, 103.7815
328.1757, 102.4506
328.6578, 101.4020
329.1400, 103.0741
329.6221, 110.4652
330.1042, 116.4209
330.5863, 120.1322
331.0684, 122.3844
331.5505, 125.3691
332.0327, 129.3361
332.5148, 133.7362
332.9969, 138.6952
333.4790, 144.8176
333.9611, 149.7428
334.4432, 153.0460
334.9254, 155.3711
335.4075, 158.1331
335.8896, 162.7466
336.3717, 165.0182
336.8538, 163.2019
337.3359, 156.8545
337.8180, 150.7399
338.3001, 145.0399
338.7823, 139.3920
339.2644, 133.5907
339.7465, 127.7280
340.2286, 120.9910
340.7107, 112.6741
341.1928, 103.1915
341.6750, 96.41724
342.1571, 92.74133
342.6392, 89.82532
343.1213, 85.64417
343.6034, 80.20801
344.0855, 74.99072
344.5677, 70.27661
345.0498, 65.88379
345.5319, 61.35217
346.0140, 56.66650
346.4961, 52.51489
346.9782, 49.78857
347.4604, 48.12134
347.9425, 45.64197
348.4246, 41.96631
348.9067, 38.08472
349.3888, 35.30981
349.8709, 33.57153
350.3531, 32.42908
350.8352, 32.13159
351.3173, 32.19055
351.7994, 31.69238
352.2815, 30.60400
352.7636, 29.01038
353.2458, 26.47546
353.7279, 23.49316
354.2100, 21.15039
354.6921, 20.24219
355.1742, 19.88806
355.6563, 19.16248
356.1385, 18.09338
356.6206, 17.04956
357.1027, 16.42883
357.5848, 15.91125
358.0669, 15.16174
358.5490, 14.28247
359.0312, 12.84912
359.5133, 9.946655
359.9954, 6.128174
360.4775, 3.092651
360.9596, 1.312744
361.4417, 0.8117680
361.9239, 1.985962
362.4060, 5.735229
362.8881, 8.658813
363.3702, 9.232422
363.8523, 8.224121
364.3344, 6.808716
364.8166, 4.587158
365.2987, 2.666626
365.7808, 1.514404
366.2629, 1.193237
366.7450, 1.246216
367.2271, 2.335083
367.7093, 3.431152
368.1914, 3.627319
368.6735, 1.703979
369.1556, 0.1662600
369.6377, 0.6549070
370.1198, 0.7956540
370.6020, 0.4688720
371.0841, 1.098877
371.5662, 2.425171
372.0483, 2.648071
372.5304, 1.046021
373.0125, 0.3111570
373.4947, 1.412842
373.9768, 2.239868
374.4589, 2.724243
374.9410, 2.774170
375.4231, 2.664551
375.9052, 2.436768
376.3874, 2.044678
376.8695, 1.954102
377.3516, 2.386963
377.8337, 2.730469
378.3158, 2.015015
378.7979, 5.7007000E-02
379.2801, 1.645264
379.7622, 2.723145
380.2443, 3.229492
380.7264, 3.589600
381.2085, 3.857300
381.6906, 3.493652
382.1728, 1.328613
382.6549, 2.216919
383.1370, 4.250610
383.6191, 4.040283
384.1012, 2.585083
384.5833, 1.251221
385.0655, 5.4076999E-02
385.5476, 0.8809810
386.0297, 1.118408
386.5118, 1.161377
386.9939, 2.426636
387.4760, 5.301270
387.9582, 7.422607
388.4403, 5.336670
388.9224, 0.8934330
389.4045, 2.059570
389.8866, 0.5136720
390.3687, 2.193970
390.8509, 3.061035
391.3330, 2.224609
391.8151, 1.593872
392.2972, 3.030273
392.7793, 4.864380
393.2614, 5.387085
393.7436, 2.914551
394.2257, 0.8154300
394.7078, 1.099731
395.1899, 2.904541
395.6720, 3.965576
396.1541, 2.649414
396.6363, 1.176758
397.1184, 0.7034910
397.6005, 1.769409
398.0826, 2.546997
398.5647, 2.003052
399.0468, 1.294556
399.5290, 1.821533
400.0111, 6.045166
400.4932, 8.940308
400.9753, 8.932373
401.4574, 6.036255
401.9395, 4.792969
402.4217, 5.833130
402.9038, 7.828247
403.3859, 10.00110
403.8680, 12.58264
404.3501, 14.71716
404.8322, 16.04236
405.3144, 17.00342
405.7965, 18.89539
406.2786, 22.09595
406.7607, 25.00232
407.2428, 26.61841
407.7249, 26.88562
408.2071, 28.09717
408.6892, 30.36475
409.1713, 33.25305
409.6534, 36.58704
410.1355, 40.29370
410.6176, 43.19324
411.0998, 44.46643
411.5819, 45.04944
412.0640, 47.18921
412.5461, 50.83081
413.0282, 55.28906
413.5103, 60.69495
413.9925, 66.39368
414.4746, 70.91504
414.9567, 73.72913
415.4388, 76.21619
415.9209, 79.92578
416.4030, 84.46533
416.8852, 88.99255
417.3673, 92.33459
417.8494, 95.89404
418.3315, 101.0675
418.8136, 107.9115
419.2957, 115.3036
419.7779, 122.7205
420.2600, 130.1471
420.7421, 137.3116
421.2242, 143.8054
421.7063, 150.5862
422.1884, 158.0864
422.6706, 166.2284
423.1527, 174.8235
423.6348, 184.7999
424.1169, 194.3046
424.5990, 202.7106
425.0811, 210.1692
425.5633, 215.8934
426.0454, 220.3793
426.5275, 222.9794
427.0096, 222.8594
427.4917, 219.4891
427.9738, 214.1431
428.4560, 206.7197
428.9381, 197.3569
429.4202, 187.5795
429.9023, 177.4397
430.3844, 167.0656
430.8665, 156.1060
431.3487, 144.1615
431.8308, 134.1628
432.3129, 126.2083
432.7950, 120.6271
433.2771, 119.0967
433.7592, 121.7750
434.2414, 124.9044
434.7235, 126.0630
435.2056, 126.1277
435.6877, 129.2986
436.1698, 135.7849
436.6519, 143.0919
437.1341, 148.5757
437.6162, 152.7345
438.0983, 156.9346
438.5804, 161.3433
439.0625, 166.2401
439.5446, 171.8761
440.0268, 178.2396
440.5089, 185.1992
440.9910, 192.4487
441.4731, 200.7046
441.9552, 210.9825
442.4373, 223.5588
442.9195, 236.5500
443.4016, 248.8441
443.8837, 260.9724
444.3658, 273.6064
444.8479, 287.1034
445.3300, 301.0244
445.8122, 316.3965
446.2943, 332.6541
446.7764, 346.3314
447.2585, 357.2961
447.7406, 365.2994
448.2227, 370.1162
448.7049, 372.0092
449.1870, 370.0496
449.6691, 364.5510
450.1512, 355.0527
450.6333, 340.4962
451.1154, 318.8813
451.5976, 296.1813
452.0797, 273.9867
452.5618, 252.1936
453.0439, 229.6090
453.5260, 206.0931
454.0081, 183.4095
454.4903, 162.7698
454.9724, 144.3453
455.4545, 128.4133
455.9366, 115.4989
456.4187, 104.3250
456.9008, 92.65320
457.3830, 80.64709
457.8651, 70.58667
458.3472, 64.23401
458.8293, 60.12061
459.3114, 55.54712
459.7935, 50.52991
460.2757, 45.65649
460.7578, 40.87915
461.2399, 36.73267
461.7220, 34.17065
462.2041, 34.41040
462.6862, 34.57556
463.1684, 32.22107
463.6505, 28.33960
464.1326, 25.26147
464.6147, 25.00513
465.0968, 24.87244
465.5789, 23.02722
466.0611, 18.93286
466.5432, 16.32410
467.0253, 17.40588
467.5074, 19.49353
467.9895, 20.33887
468.4716, 19.21289
468.9538, 17.58557
469.4359, 15.14612
469.9180, 12.29333
470.4001, 10.33154
470.8822, 9.618530
471.3643, 9.233276
471.8465, 8.967896
472.3286, 8.909424
472.8107, 8.103638
473.2928, 6.279907
473.7749, 4.439209
474.2570, 4.137207
474.7392, 5.366455
475.2213, 5.398315
475.7034, 3.304443
476.1855, 9.7655997E-02
476.6676, 2.652222
477.1497, 4.867554
477.6319, 5.741211
478.1140, 3.570923
478.5961, 0.1584470
479.0782, 1.320679
479.5603, 0.5469970
480.0424, 0.7626950
480.5246, 1.550659
481.0067, 1.922241
481.4888, 2.025757
481.9709, 1.894775
482.4530, 1.532715
482.9352, 0.5280760
483.4173, 0.7783200
483.8994, 1.318237
484.3815, 0.5986330
484.8636, 2.276367
485.3457, 2.029541
485.8279, 1.158081
486.3100, 2.843506
486.7921, 1.271240
487.2742, 1.205444
487.7563, 2.455444
488.2384, 1.131104
488.7206, 0.9995120
489.2027, 3.266357
489.6848, 6.894409
490.1669, 7.868042
490.6490, 5.355103
491.1311, 2.684204
491.6133, 1.521973
492.0954, 1.823242
492.5775, 2.052856
493.0596, 2.268799
493.5417, 2.135254
494.0238, 1.058105
494.5060, 0.7663570
494.9881, 2.373413
495.4702, 3.412354
495.9523, 4.258545
496.4344, 5.088379
496.9165, 6.062988
497.3987, 7.779907
497.8808, 11.63977
498.3629, 15.78186
498.8450, 18.08130
499.3271, 18.31262
499.8092, 18.84448
500.2914, 20.63049
500.7735, 23.45959
501.2556, 27.19958
501.7377, 31.51440
502.2198, 37.00879
502.7019, 45.52197
503.1841, 55.43091
503.6662, 62.36536
504.1483, 61.99048
504.6304, 63.01855
505.1125, 68.56714
505.5946, 79.17493
506.0768, 87.12927
506.5589, 90.69861
507.0410, 94.13171
507.5231, 101.1747
508.0052, 112.3734
508.4873, 123.4637
508.9695, 133.7271
509.4516, 143.7612
509.9337, 154.0262
510.4158, 164.6064
510.8979, 177.0974
511.3800, 192.9132
511.8622, 210.9941
512.3443, 228.8556
512.8264, 246.4297
513.3085, 265.6118
513.7906, 288.0448
514.2728, 312.8040
514.7549, 338.8000
515.2370, 365.9564
515.7191, 393.9216
516.2012, 424.2927
516.6833, 454.8534
517.1655, 482.7312
517.6476, 509.5579
518.1297, 530.9955
518.6118, 547.6187
519.0939, 558.7979
519.5760, 558.0308
520.0582, 543.3999
520.5403, 517.2416
521.0224, 479.4746
521.5045, 425.8662
521.9866, 371.7239
522.4688, 314.2002
522.9509, 259.2328
523.4330, 213.3221
523.9151, 177.0043
524.3972, 146.8667
524.8793, 123.1158
525.3615, 104.6685
525.8436, 88.70996
526.3257, 75.19092
526.8078, 64.17761
527.2899, 56.40894
527.7720, 50.92896
528.2542, 45.70557
528.7363, 40.66907
529.2184, 36.16565
529.7005, 32.16833
530.1826, 29.04272
530.6647, 27.42847
531.1469, 28.23730
531.6290, 29.38550
532.1111, 29.85913
532.5932, 29.82300
533.0753, 29.60913
533.5574, 29.27637
534.0396, 28.78992
534.5217, 27.78699
535.0038, 26.21582
535.4859, 25.40588
535.9680, 26.26160
536.4501, 27.41077
536.9323, 27.89844
537.4144, 27.59509
537.8965, 26.77625
538.3786, 25.25671
538.8607, 23.55310
539.3428, 22.28198
539.8250, 21.43091
540.3071, 21.54919
540.7892, 23.13757
541.2713, 25.56726
541.7534, 26.93604
542.2355, 27.35681
542.7177, 28.27405
543.1998, 31.69824
543.6819, 36.08508
544.1640, 38.73926
544.6461, 39.43835
545.1282, 39.28967
545.6104, 37.92505
546.0925, 36.73804
546.5746, 37.20105
547.0567, 41.32751
547.5388, 44.52930
548.0209, 44.51587
548.5031, 42.88867
548.9852, 42.72815
549.4673, 46.02197
549.9494, 48.94226
550.4315, 50.31140
550.9136, 50.14111
551.3958, 50.87939
551.8779, 53.11499
552.3600, 55.37329
552.8421, 56.60388
553.3242, 56.67017
553.8063, 56.99036
554.2885, 57.60132
554.7706, 58.53796
555.2527, 60.58350
555.7348, 63.33691
556.2169, 64.10400
556.6990, 61.22278
557.1812, 57.05627
557.6633, 54.77551
558.1454, 54.08435
558.6275, 53.87219
559.1096, 53.26050
559.5917, 53.04150
560.0739, 54.19214
560.5560, 56.80847
561.0381, 59.04541
561.5202, 59.13403
562.0023, 59.15430
562.4844, 60.64905
562.9666, 64.57959
563.4487, 68.91565
563.9308, 73.61328
564.4129, 78.57654
564.8950, 83.71838
565.3771, 89.16565
565.8593, 94.22375
566.3414, 98.22827
566.8235, 101.7511
567.3056, 107.9321
567.7877, 117.0111
568.2698, 126.6852
568.7520, 135.7635
569.2341, 144.3359
569.7162, 152.8717
570.1983, 161.2571
570.6804, 170.4669
571.1625, 181.1848
571.6447, 193.2864
572.1268, 206.6061
572.6089, 221.5503
573.0910, 237.0132
573.5731, 252.2360
574.0552, 267.6144
574.5374, 284.1892
575.0195, 304.2788
575.5016, 323.4506
575.9837, 339.4724
576.4658, 352.6136
576.9479, 367.5876
577.4301, 386.5902
577.9122, 404.7521
578.3943, 419.9996
578.8764, 431.7340
579.3585, 443.6632
579.8406, 456.2546
580.3228, 467.9929
580.8049, 476.9430
581.2870, 483.2043
581.7691, 489.1119
582.2512, 494.7311
582.7333, 501.1367
583.2155, 510.5835
583.6975, 522.0377
584.1796, 533.0286
584.6617, 541.7612
585.1439, 549.8989
585.6260, 560.4487
586.1081, 572.3508
586.5902, 580.2797
587.0723, 582.6501
587.5544, 579.4509
588.0366, 570.1157
588.5187, 553.7450
589.0008, 535.4722
589.4829, 515.8767
589.9650, 494.4923
590.4471, 470.8386
590.9293, 444.1561
591.4114, 416.8866
591.8935, 388.1393
592.3756, 359.5326
592.8577, 334.2754
593.3398, 312.7283
593.8220, 291.9124
594.3041, 270.2046
594.7862, 249.1504
595.2683, 233.0299
595.7504, 221.4650
596.2325, 210.6647
596.7147, 197.2361
597.1968, 183.7761
597.6789, 173.7368
598.1610, 167.4307
598.6431, 161.3463
599.1252, 154.9299
599.6074, 147.1492
600.0895, 136.8843
600.5716, 121.4749
601.0537, 108.0975
601.5358, 97.72961
602.0179, 89.65466
602.5001, 83.83789
602.9822, 81.85864
603.4643, 79.17651
603.9464, 74.65649
604.4285, 69.02209
604.9106, 64.59326
605.3928, 61.47119
605.8749, 58.75391
606.3570, 55.60120
606.8391, 52.52576
607.3212, 51.87817
607.8033, 53.53625
608.2855, 54.65173
608.7676, 52.23779
609.2497, 48.29663
609.7318, 45.55249
610.2139, 44.67004
610.6960, 43.61792
611.1782, 40.73352
611.6603, 37.34192
612.1424, 34.82581
612.6245, 34.37622
613.1066, 33.80847
613.5887, 32.80322
614.0709, 31.51562
614.5530, 30.28674
615.0351, 29.44641
615.5172, 27.94055
615.9993, 25.14734
616.4814, 21.46570
616.9636, 18.93750
617.4457, 17.59509
617.9278, 17.16113
618.4099, 18.59875
618.8920, 20.73169
619.3741, 19.65723
619.8563, 15.18726
620.3384, 11.03381
620.8205, 10.69873
621.3026, 12.21729
621.7847, 13.40710
622.2668, 14.12927
622.7490, 13.62195
623.2311, 10.10498
623.7132, 5.678589
624.1953, 3.026367
624.6774, 4.375366
625.1595, 5.370239
625.6417, 5.515625
626.1238, 4.961304
626.6059, 3.991089
627.0880, 2.358887
627.5701, 1.104736
628.0522, 0.6817630
628.5344, 0.9484860
629.0165, 1.015259
629.4986, 0.8638920
629.9807, 1.304565
630.4628, 3.924927
630.9449, 7.233398
631.4271, 8.003052
631.9092, 5.883667
632.3913, 3.958496
632.8734, 5.298462
633.3555, 7.544189
633.8376, 8.124023
634.3198, 5.242065
634.8019, 3.041016
635.2840, 3.115845
635.7661, 4.294434
636.2482, 4.941284
636.7303, 4.704834
637.2125, 4.478271
637.6946, 4.636597
638.1767, 4.779907
638.6588, 3.634888
639.1409, 1.036743
639.6230, 1.642700
640.1052, 4.148071
640.5873, 6.212769
641.0694, 6.699585
641.5515, 5.712036
642.0336, 4.689575
642.5157, 4.587646
642.9979, 4.958252
643.4800, 5.516602
643.9621, 6.244995
644.4442, 6.429565
644.9263, 5.023804
645.4084, 3.339966
645.8906, 2.507935
646.3727, 3.466431
646.8548, 3.926880
647.3369, 3.425537
647.8190, 2.684448
648.3011, 2.760742
648.7833, 4.247681
649.2654, 4.659058
649.7475, 3.459229
650.2296, 1.226318
650.7117, 1.437866
651.1938, 4.427368
651.6760, 6.133423
652.1581, 5.359497
652.6402, 3.402222
653.1223, 1.764526
653.6044, 0.5704350
654.0865, 0.2803960
654.5687, 2.501221
655.0508, 4.679688
655.5329, 4.793823
656.0150, 2.628784
656.4971, 1.216187
656.9792, 2.534180
657.4614, 3.706787
657.9435, 2.793945
658.4256, 1.629272
658.9077, 2.854492
659.3898, 0.4315190
659.8719, 4.562622
660.3541, 5.424683
660.8362, 3.119507
661.3183, 1.472900
661.8004, 1.075684
662.2825, 1.350952
662.7646, 1.650757
663.2468, 2.034912
663.7289, 2.686768
664.2110, 4.075195
664.6931, 5.278564
665.1752, 5.360352
665.6573, 4.786133
666.1395, 4.652710
666.6216, 5.673828
667.1037, 6.819824
667.5858, 7.743652
668.0679, 8.506470
668.5500, 9.444214
669.0322, 10.54785
669.5143, 11.88257
669.9964, 13.78931
670.4785, 16.14526
670.9606, 16.75598
671.4427, 15.42102
671.9249, 14.20300
672.4070, 14.83105
672.8891, 16.76941
673.3712, 19.02466
673.8533, 21.55603
674.3354, 23.87561
674.8176, 25.82825
675.2997, 27.34705
675.7818, 28.23193
676.2639, 27.79297
676.7460, 28.02002
677.2281, 30.12048
677.7103, 32.79895
678.1924, 34.47681
678.6745, 34.86450
679.1566, 34.76453
679.6387, 33.92969
680.1208, 32.97913
680.6030, 33.63867
681.0851, 35.85950
681.5672, 37.47034
682.0493, 37.29272
682.5314, 36.38647
683.0135, 36.62341
683.4957, 37.72766
683.9778, 38.60645
684.4599, 38.66418
684.9420, 38.27979
685.4241, 37.35181
685.9063, 36.00208
686.3884, 35.57568
686.8705, 38.11780
687.3526, 40.10754
687.8347, 39.53418
688.3168, 35.71008
688.7990, 34.70776
689.2811, 37.42480
689.7632, 40.98486
690.2453, 43.44299
690.7274, 44.85681
691.2095, 44.89392
691.6917, 43.28760
692.1738, 42.01514
692.6559, 44.02771
693.1380, 47.57971
693.6201, 49.61670
694.1022, 49.06653
694.5844, 47.85950
695.0665, 46.63257
695.5486, 45.51953
696.0307, 44.70044
696.5128, 43.87402
696.9949, 43.74707
697.4771, 44.46436
697.9592, 45.69055
698.4413, 46.66577
698.9234, 47.28369
699.4055, 48.93469
699.8876, 52.75195
700.3698, 57.06531
700.8519, 57.00378
701.3340, 53.16687
701.8161, 49.48743
702.2982, 47.95935
702.7803, 47.86755
703.2625, 49.23792
703.7446, 51.56702
704.2267, 52.42651
704.7088, 49.24683
705.1909, 45.86316
705.6730, 44.19519
706.1552, 44.42737
706.6373, 45.02136
707.1194, 46.81274
707.6015, 48.00391
708.0836, 47.21863
708.5657, 44.26721
709.0479, 42.47351
709.5300, 41.82629
710.0121, 41.95215
710.4942, 43.39380
710.9763, 45.17627
711.4584, 44.79211
711.9406, 41.68762
712.4227, 38.35901
712.9048, 36.57141
713.3869, 35.40100
713.8690, 33.87671
714.3511, 31.53772
714.8333, 29.37476
715.3154, 27.81299
715.7975, 26.43359
716.2796, 24.74451
716.7617, 23.17175
717.2438, 20.76721
717.7260, 16.84839
718.2081, 12.57190
718.6902, 10.35120
719.1723, 9.918335
719.6544, 9.174927
720.1365, 7.122925
720.6187, 5.017700
721.1008, 4.541748
721.5829, 5.143921
722.0650, 5.570313
722.5471, 4.341797
723.0292, 3.686890
723.5114, 5.184937
723.9935, 8.164551
724.4756, 9.742188
724.9577, 8.969849
725.4398, 8.004150
725.9219, 7.233765
726.4041, 6.759277
726.8862, 7.338989
727.3683, 9.087036
727.8504, 10.95837
728.3325, 13.11621
728.8146, 14.82886
729.2968, 13.88647
729.7789, 10.57996
730.2610, 7.452515
730.7431, 5.740845
731.2252, 5.098145
731.7073, 5.453369
732.1895, 6.851563
732.6716, 8.405640
733.1537, 10.19678
733.6358, 11.84009
734.1179, 13.33142
734.6000, 14.85413
735.0822, 14.66394
735.5643, 12.36658
736.0464, 9.664429
736.5285, 7.668335
737.0106, 6.510254
737.4927, 6.965210
737.9749, 9.242432
738.4570, 11.95398
738.9391, 14.50574
739.4212, 16.53870
739.9033, 17.74109
740.3854, 18.44214
740.8676, 17.45508
741.3497, 12.16614
741.8318, 6.346313
742.3139, 3.853760
742.7960, 5.959351
743.2781, 8.224609
743.7603, 10.29907
744.2424, 12.50598
744.7245, 15.84131
745.2066, 19.96497
745.6887, 22.38171
746.1708, 21.90552
746.6530, 20.80310
747.1351, 21.74207
747.6172, 23.88330
748.0993, 25.77795
748.5814, 27.47180
749.0635, 28.14917
749.5457, 26.28271
750.0278, 23.44263
750.5099, 23.01880
750.9920, 26.52844
751.4741, 29.78943
751.9562, 32.13489
752.4384, 33.74976
752.9205, 34.96301
753.4026, 35.79858
753.8847, 36.10461
754.3668, 34.99744
754.8489, 34.35669
755.3311, 38.25000
755.8132, 44.84094
756.2953, 49.08716
756.7774, 46.11169
757.2595, 42.99976
757.7416, 43.43970
758.2238, 46.85681
758.7059, 49.61316
759.1880, 50.97070
759.6701, 52.47144
760.1522, 54.61279
760.6343, 57.24683
761.1165, 60.09058
761.5986, 63.17468
762.0807, 65.27661
762.5628, 65.15161
763.0449, 63.84839
763.5270, 63.07080
764.0092, 62.75269
764.4913, 62.57483
764.9734, 62.44788
765.4555, 62.33203
765.9376, 62.69629
766.4197, 63.55310
766.9019, 62.24622
767.3840, 56.87476
767.8661, 51.99438
768.3482, 49.90271
768.8303, 50.53235
769.3124, 49.66577
769.7946, 47.13708
770.2767, 45.04858
770.7588, 45.45044
771.2409, 47.04407
771.7230, 47.41870
772.2051, 46.52234
772.6873, 45.61511
773.1694, 46.37195
773.6515, 46.62695
774.1336, 44.42249
774.6157, 38.90771
775.0978, 35.17957
775.5800, 33.98535
776.0621, 33.76331
776.5442, 33.79980
777.0263, 34.11707
777.5084, 34.11414
777.9905, 33.80383
778.4727, 33.06128
778.9548, 31.52039
779.4369, 29.58020
779.9190, 27.88721
780.4011, 26.51550
780.8832, 25.47339
781.3654, 24.99451
781.8475, 24.68945
782.3296, 24.17749
782.8117, 23.79150
783.2938, 22.83765
783.7759, 20.79370
784.2581, 19.09851
784.7402, 19.12500
785.2223, 20.75720
785.7044, 21.09155
786.1865, 19.93542
786.6686, 18.89221
787.1508, 19.53345
787.6329, 21.11414
788.1150, 22.68176
788.5971, 24.16968
789.0792, 24.98596
789.5613, 24.39832
790.0435, 23.30286
790.5256, 22.49841
791.0077, 22.46155
791.4898, 21.38953
791.9719, 18.52502
792.4540, 15.68286
792.9362, 15.09985
793.4183, 16.47754
793.9004, 15.70020
794.3825, 12.21875
794.8646, 8.869507
795.3467, 9.161011
795.8289, 10.98218
796.3110, 11.01245
796.7931, 8.215820
797.2752, 6.233643
797.7573, 7.676147
798.2394, 9.855103
798.7216, 10.15295
799.2037, 8.025391
799.6858, 6.805298
800.1679, 6.582275
800.6500, 7.079468
801.1321, 9.120605
801.6143, 11.90979
802.0964, 10.66138
802.5785, 4.349976
803.0606, 1.384521
803.5427, 0.7158200
804.0248, 2.823486
804.5070, 5.559204
804.9891, 6.899536
805.4712, 7.122681
805.9533, 5.046753
806.4354, 2.820679
806.9175, 2.085571
807.3997, 3.270874
807.8818, 4.281006
808.3639, 5.119995
808.8460, 5.654663
809.3281, 6.037720
809.8102, 5.975220
810.2924, 4.424561
810.7745, 1.103638
811.2566, 2.230469
811.7387, 4.997925
812.2208, 6.638428
812.7029, 6.686646
813.1851, 4.097534
813.6672, 1.088013
814.1493, 3.214355
814.6314, 6.667969
815.1135, 7.143555
815.5956, 4.489868
816.0778, 2.297119
816.5599, 0.6718750
817.0420, 0.2802730
817.5241, 0.1420900
818.0062, 0.6213380
818.4883, 1.329102
818.9705, 1.891113
819.4526, 2.453125
819.9347, 2.979492
820.4168, 3.581787
820.8989, 4.518066
821.3810, 6.095703
821.8632, 6.508301
822.3453, 5.164551
822.8274, 3.973389
823.3095, 5.173584
823.7916, 8.092529
824.2737, 8.653564
824.7559, 6.697021
825.2380, 3.892578
825.7201, 0.4577640
826.2022, 2.018799
826.6843, 1.171631
827.1664, 3.735840
827.6486, 6.828369
828.1307, 5.468994
828.6128, 3.235352
829.0949, 1.641113
829.5770, 0.6972660
830.0591, 0.5480960
830.5413, 1.287842
831.0234, 2.024170
831.5055, 1.833740
831.9876, 1.291748
832.4697, 1.646240
832.9518, 2.868896
833.4340, 4.150879
833.9161, 5.126221
834.3982, 5.863037
834.8803, 6.632568
835.3624, 7.460938
835.8445, 6.850342
836.3267, 4.023438
836.8088, 1.268066
837.2909, 0.2424320
837.7730, 0.7036130
838.2551, 1.620117
838.7372, 2.884033
839.2194, 3.073486
839.7015, 0.5437010
840.1836, 4.403809
840.6657, 4.510010
841.1478, 1.384033
841.6299, 1.383057
842.1121, 3.856445
842.5942, 4.324219
843.0763, 1.374268
843.5584, 4.086914
844.0405, 6.621582
844.5226, 5.737305
845.0048, 5.258057
845.4869, 7.375488
845.9690, 10.45654
846.4511, 11.54980
846.9332, 10.86377
847.4153, 9.075439
847.8975, 4.854980
848.3796, 1.284424
848.8617, 5.9570000E-02
849.3438, 0.7377930
849.8259, 1.678223
850.3080, 3.189697
850.7902, 4.320801
851.2723, 4.977539
851.7544, 5.051025
852.2365, 3.680420
852.7186, 1.244141
853.2007, 4.6142999E-02
853.6829, 1.937744
854.1650, 3.705566
854.6471, 0.8540040
855.1292, 3.662109
855.6113, 4.870605
856.0934, 3.649414
856.5756, 8.673096
857.0577, 6.865234
857.5398, 2.419434
858.0219, 1.889160
858.5040, 5.576904
858.9861, 7.066650
859.4683, 4.786865
859.9504, 1.896729
860.4325, 2.777100
860.9146, 5.602295
861.3967, 7.309326
861.8788, 6.758545
862.3610, 6.005859
862.8431, 5.518066
863.3252, 5.368652
863.8073, 5.650146
864.2894, 6.661865
864.7715, 7.291260
865.2537, 7.559326
865.7358, 7.396973
866.2179, 6.296875
866.7000, 4.791504
867.1821, 4.874756
867.6642, 6.886475
868.1464, 7.611572
868.6285, 2.370117
869.1106, 3.153564
869.5927, 4.055664
870.0748, 1.597412
870.5569, 4.534180
871.0391, 3.627686
871.5212, 2.388184
872.0033, 2.515869
872.4854, 3.896240
872.9675, 6.757324
873.4496, 10.92944
873.9318, 13.39722
874.4139, 10.11914
874.8960, 5.754150
875.3781, 4.561523
875.8602, 6.242432
876.3423, 7.400635
876.8245, 5.859375
877.3066, 5.433105
877.7887, 7.843506
878.2708, 12.18799
878.7529, 14.25439
879.2350, 13.98242
879.7172, 12.59326
880.1993, 10.39136
880.6814, 7.794922
881.1635, 4.390381
881.6456, 0.8762210
882.1277, 0.9223630
882.6099, 1.776123
883.0920, 4.209717
883.5741, 4.332275
884.0562, 3.451660
884.5383, 4.276123
885.0204, 7.231445
885.5026, 9.599854
885.9847, 10.89233
886.4668, 11.25391
886.9489, 9.947510
887.4310, 8.087646
887.9131, 8.118164
888.3953, 11.57397
888.8774, 14.79761
889.3595, 15.92310
889.8416, 16.11182
890.3237, 16.51855
890.8058, 17.36914
891.2880, 17.76514
891.7701, 17.63037
892.2522, 17.19604
892.7343, 16.12939
893.2164, 15.00732
893.6985, 15.75366
894.1807, 18.47876
894.6628, 21.10962
895.1449, 22.38599
895.6270, 22.97949
896.1091, 23.28174
896.5912, 23.26953
897.0734, 22.77368
897.5555, 21.54932
898.0376, 20.93750
898.5197, 21.86938
899.0018, 23.87183
899.4839, 25.17017
899.9661, 25.81641
900.4482, 26.49268
900.9303, 28.55933
901.4124, 30.18213
901.8945, 29.32544
902.3766, 26.91821
902.8588, 26.18701
903.3409, 28.64331
903.8230, 30.62671
904.3051, 31.84204
904.7872, 31.89966
905.2693, 29.11426
905.7515, 24.11255
906.2336, 20.84302
906.7157, 20.77905
907.1978, 21.55591
907.6799, 20.97925
908.1620, 19.99707
908.6442, 19.85107
909.1263, 22.10278
909.6084, 22.69312
910.0905, 20.72656
910.5726, 18.21118
911.0547, 16.70898
911.5369, 16.34961
912.0190, 17.62036
912.5011, 20.61597
912.9832, 22.54272
913.4653, 19.97559
913.9474, 17.05713
914.4296, 17.60449
914.9117, 22.16821
915.3938, 24.52222
915.8759, 21.57397
916.3580, 19.35620
916.8401, 20.63306
917.3223, 24.59595
917.8044, 26.89990
918.2865, 27.56104
918.7686, 27.44775
919.2507, 27.11133
919.7328, 26.09106
920.2150, 23.11523
920.6971, 19.14160
921.1792, 16.50098
921.6613, 17.03589
922.1434, 17.43750
922.6255, 17.11548
923.1077, 16.59326
923.5898, 17.11255
924.0719, 18.54834
924.5540, 18.58984
925.0361, 16.41650
925.5182, 14.28027
926.0004, 15.02368
926.4825, 16.74683
926.9646, 16.81592
927.4467, 14.30176
927.9288, 12.70044
928.4109, 12.33911
928.8931, 12.21558
929.3752, 11.71045
929.8573, 10.82959
930.3394, 9.852051
930.8215, 8.794678
931.3036, 7.333740
931.7858, 3.919922
932.2679, 1.014404
932.7500, 2.074463
933.2321, 6.494629
933.7142, 9.025635
934.1964, 7.602295
934.6785, 5.286377
935.1606, 2.392578
935.6427, 0.6245120
936.1248, 2.186035
936.6069, 2.428955
937.0891, 3.004639
937.5712, 4.882080
938.0533, 6.552246
938.5354, 5.817627
939.0175, 4.212402
939.4996, 4.078125
939.9818, 8.035645
940.4639, 10.19678
940.9460, 9.841553
941.4281, 8.660156
941.9102, 8.448486
942.3923, 9.006348
942.8745, 8.742676
943.3566, 7.531494
943.8387, 6.072754
944.3208, 5.764160
944.8029, 4.885742
945.2850, 1.312988
945.7672, 5.230713
946.2493, 10.26733
946.7314, 13.12134
947.2135, 15.10156
947.6956, 16.69849
948.1777, 17.82495
948.6599, 17.25391
949.1420, 15.47388
949.6241, 15.31592
950.1062, 19.59253
950.5883, 24.16724
951.0704, 25.86768
951.5526, 25.95630
952.0347, 26.76318
952.5168, 28.80127
952.9989, 31.02222
953.4810, 33.47949
953.9631, 35.83276
954.4453, 37.24390
954.9274, 38.16919
955.4095, 40.43457
955.8916, 44.33203
956.3737, 48.25977
956.8558, 51.02417
957.3380, 53.47144
957.8201, 56.31860
958.3022, 59.62915
958.7843, 62.46167
959.2664, 64.52368
959.7485, 66.99268
960.2307, 70.33862
960.7128, 74.54028
961.1949, 80.23291
961.6770, 86.87158
962.1591, 92.38257
962.6412, 94.10669
963.1234, 96.56665
963.6055, 101.5630
964.0876, 108.6201
964.5697, 117.1311
965.0518, 127.3062
965.5339, 137.8367
966.0161, 148.6797
966.4982, 159.7139
966.9803, 169.6799
967.4624, 180.2249
967.9445, 194.5710
968.4266, 213.8796
968.9088, 232.0950
969.3909, 244.0781
969.8730, 257.3020
970.3551, 275.4692
970.8372, 298.1711
971.3193, 325.5459
971.8015, 357.4614
972.2836, 390.1414
972.7657, 420.4492
973.2478, 450.7424
973.7299, 484.5691
974.2120, 520.8645
974.6942, 557.3264
975.1763, 590.8062
975.6584, 627.8918
976.1405, 670.8494
976.6226, 716.5874
977.1047, 761.2393
977.5869, 805.1636
978.0690, 848.3687
978.5511, 890.6287
979.0332, 930.8699
979.5153, 969.3127
979.9974, 1004.935
980.4796, 1036.916
980.9617, 1064.918
981.4438, 1089.955
981.9259, 1112.682
982.4080, 1132.002
982.8901, 1147.892
983.3723, 1160.077
983.8544, 1167.748
984.3365, 1170.922
984.8186, 1169.712
985.3007, 1163.516
985.7828, 1153.589
986.2650, 1138.728
986.7471, 1120.967
987.2292, 1103.860
987.7113, 1087.596
988.1934, 1071.183
988.6755, 1054.431
989.1577, 1037.729
989.6398, 1021.344
990.1219, 1005.477
990.6040, 990.4219
991.0861, 976.2114
991.5682, 964.2029
992.0504, 953.6921
992.5325, 947.1396
993.0146, 946.0422
993.4967, 949.5974
993.9788, 954.2180
994.4609, 960.0347
994.9431, 965.7847
995.4252, 969.4858
995.9073, 975.0786
996.3894, 986.8149
996.8715, 1003.737
997.3536, 1024.360
997.8358, 1050.072
998.3179, 1076.144
998.8000, 1101.985
999.2821, 1129.271
999.7642, 1159.562
1000.246, 1193.062
1000.728, 1229.868
1001.211, 1270.347
1001.693, 1311.461
1002.175, 1351.539
1002.657, 1391.806
1003.139, 1433.873
1003.621, 1477.196
1004.103, 1516.420
1004.585, 1551.556
1005.068, 1582.950
1005.550, 1612.536
1006.032, 1635.452
1006.514, 1645.750
1006.996, 1643.547
1007.478, 1629.323
1007.960, 1603.190
1008.442, 1565.107
1008.924, 1510.738
1009.407, 1447.156
1009.889, 1376.966
1010.371, 1300.279
1010.853, 1220.546
1011.335, 1136.782
1011.817, 1055.026
1012.299, 974.9324
1012.781, 901.1575
1013.263, 838.7649
1013.746, 786.0603
1014.228, 736.0403
1014.710, 685.6255
1015.192, 641.7893
1015.674, 606.8809
1016.156, 577.4023
1016.638, 547.5417
1017.120, 518.3687
1017.603, 493.1396
1018.085, 472.2827
1018.567, 454.4937
1019.049, 439.6741
1019.531, 427.0791
1020.013, 416.5347
1020.495, 407.8572
1020.977, 398.2925
1021.459, 387.7451
1021.942, 376.9941
1022.424, 365.8088
1022.906, 355.3301
1023.388, 347.7415
1023.870, 341.8147
1024.352, 335.1262
1024.834, 325.1111
1025.316, 317.1670
1025.799, 312.7578
1026.281, 309.1943
1026.763, 304.0002
1027.245, 297.2966
1027.727, 289.1453
1028.209, 279.5820
1028.691, 269.2568
1029.173, 257.2556
1029.656, 245.7959
1030.138, 237.1162
1030.620, 230.5486
1031.102, 222.0742
1031.584, 210.9041
1032.066, 200.9001
1032.548, 193.3584
1033.030, 186.2598
1033.512, 175.6904
1033.995, 163.8013
1034.477, 154.8242
1034.959, 150.7144
1035.441, 145.6411
1035.923, 137.8064
1036.405, 129.0801
1036.887, 120.3040
1037.369, 111.5049
1037.851, 101.8589
1038.334, 91.66431
1038.816, 82.19751
1039.298, 74.24707
1039.780, 67.32104
1040.262, 61.36230
1040.744, 56.11743
1041.226, 51.00781
1041.708, 45.91479
1042.191, 41.10376
1042.673, 36.47681
1043.155, 32.44604
1043.637, 29.49463
1044.119, 27.34619
1044.601, 25.33105
1045.083, 23.42896
1045.565, 22.64404
1046.047, 26.57422
1046.530, 27.37793
1047.012, 20.54370
1047.494, 10.19287
1047.976, 9.143311
1048.458, 16.12451
1048.940, 20.59302
1049.422, 19.03979
1049.904, 16.35889
1050.386, 15.91919
1050.869, 16.41479
1051.351, 16.42773
1051.833, 15.61768
1052.315, 16.14185
1052.797, 18.44409
1053.279, 19.98364
1053.761, 18.48511
1054.243, 15.82129
1054.726, 15.42871
1055.208, 16.54004
1055.690, 17.15918
1056.172, 16.88403
1056.654, 15.43213
1057.136, 11.83618
1057.618, 8.361328
1058.100, 8.543213
1058.583, 11.56445
1059.065, 11.63184
1059.547, 8.374512
1060.029, 4.741455
1060.511, 2.346191
1060.993, 0.6882320
1061.475, 0.2272950
1061.957, 0.5954590
1062.439, 1.253662
1062.922, 2.290283
1063.404, 2.925781
1063.886, 2.847412
1064.368, 2.690918
1064.850, 3.221191
1065.332, 4.178223
1065.814, 5.231201
1066.296, 6.341064
1066.778, 7.482422
1067.261, 8.649902
1067.743, 9.900635
1068.225, 11.60425
1068.707, 13.25195
1069.189, 12.79956
1069.671, 10.72339
1070.153, 8.771973
1070.635, 8.358398
1071.118, 7.349609
1071.600, 3.703125
1072.082, 0.1071780
1072.564, 1.077637
1073.046, 1.218750
1073.528, 0.8674320
1074.010, 2.362305
1074.492, 5.669922
1074.974, 5.418945
1075.457, 5.457520
1075.939, 10.44678
1076.421, 18.85693
1076.903, 23.95532
1077.385, 23.40576
1077.867, 25.03442
1078.349, 30.74609
1078.831, 37.21362
1079.313, 39.45264
1079.796, 39.54395
1080.278, 41.13965
1080.760, 44.81104
1081.242, 49.10059
1081.724, 53.71167
1082.206, 58.76904
1082.688, 64.61401
1083.170, 70.64575
1083.652, 74.22363
1084.135, 75.97607
1084.617, 79.10083
1085.099, 85.42920
1085.581, 91.37549
1086.063, 95.08569
1086.545, 97.13550
1087.027, 98.16211
1087.509, 98.15967
1087.992, 98.53101
1088.474, 99.51636
1088.956, 97.71216
1089.438, 89.06323
1089.920, 78.29565
1090.402, 69.24512
1090.884, 61.91943
1091.366, 56.47461
1091.849, 53.43628
1092.331, 51.03491
1092.813, 49.27808
1093.295, 47.62280
1093.777, 44.88770
1094.259, 42.05420
1094.741, 41.83960
1095.223, 43.90137
1095.705, 44.92993
1096.188, 43.46460
1096.670, 40.88452
1097.152, 37.35400
1097.634, 33.31763
1098.116, 28.86011
1098.598, 24.43701
1099.080, 22.60938
1099.562, 23.94653
1100.044, 26.41260
1100.527, 30.84595
1101.009, 34.00342
1101.491, 33.27881
1101.973, 29.30908
1102.455, 25.05322
1102.937, 20.40771
1103.419, 17.25903
1103.901, 16.08789
1104.384, 16.95630
1104.866, 21.29150
1105.348, 26.92065
1105.830, 31.42896
1106.312, 34.38940
1106.794, 36.24268
1107.276, 36.98486
1107.758, 36.30762
1108.240, 32.77710
1108.723, 28.76196
1109.205, 29.22827
1109.687, 32.43433
1110.169, 34.35352
1110.651, 31.62427
1111.133, 30.85986
1111.615, 33.41821
1112.097, 36.64453
1112.579, 37.88647
1113.062, 37.82251
1113.544, 38.95581
1114.026, 41.23242
1114.508, 43.56372
1114.990, 45.67603
1115.472, 47.37109
1115.954, 47.49951
1116.436, 47.91260
1116.919, 51.82788
1117.401, 59.04272
1117.883, 65.82544
1118.365, 71.73535
1118.847, 77.48145
1119.329, 83.73975
1119.811, 89.81982
1120.293, 94.41675
1120.776, 98.30347
1121.258, 104.6411
1121.740, 113.3462
1122.222, 124.8945
1122.704, 140.1880
1123.186, 155.1982
1123.668, 165.1863
1124.150, 173.1982
1124.632, 182.5562
1125.115, 194.2375
1125.597, 205.4617
1126.079, 214.8535
1126.561, 228.6165
1127.043, 251.1145
1127.525, 276.8120
1128.007, 297.0664
1128.489, 313.6865
1128.971, 330.4492
1129.454, 351.3215
1129.936, 363.4805
1130.418, 364.4453
1130.900, 359.6934
1131.382, 353.7183
1131.864, 344.1765
1132.346, 321.0330
1132.828, 287.9299
1133.311, 256.5469
1133.793, 230.6606
1134.275, 208.8506
1134.757, 192.0237
1135.239, 177.0195
1135.721, 160.8132
1136.203, 143.9143
1136.685, 128.6077
1137.167, 115.1267
1137.650, 106.0198
1138.132, 105.8784
1138.614, 107.3164
1139.096, 107.6775
1139.578, 107.2227
1140.060, 105.6824
1140.542, 102.9988
1141.024, 103.7944
1141.506, 108.5208
1141.989, 112.4536
1142.471, 111.0117
1142.953, 108.5198
1143.435, 109.1890
1143.917, 111.2749
1144.399, 108.5662
1144.881, 100.4900
1145.363, 92.05737
1145.846, 84.26196
1146.328, 76.17651
1146.810, 66.00049
1147.292, 55.93188
1147.774, 47.98120
1148.256, 42.43970
1148.738, 38.02246
1149.220, 35.00586
1149.703, 31.87354
1150.185, 28.17432
1150.667, 24.25488
1151.149, 19.88184
1151.631, 15.87207
1152.113, 13.24976
1152.595, 12.19824
1153.077, 12.89185
1153.559, 16.03809
1154.042, 18.85034
1154.524, 20.50049
1155.006, 20.70703
1155.488, 18.07715
1155.970, 13.83496
1156.452, 10.31885
1156.934, 7.916748
1157.416, 6.969727
1157.898, 8.413086
1158.381, 9.317627
1158.863, 7.343994
1159.345, 4.118164
1159.827, 5.053223
1160.309, 8.652100
1160.791, 10.71387
1161.273, 8.922852
1161.755, 7.075195
1162.238, 6.286621
1162.720, 5.401855
1163.202, 3.125000
1163.684, 0.1860350
1164.166, 0.4375000
1164.648, 0.5380860
1165.130, 1.789795
1165.612, 2.708984
1166.094, 4.395020
1166.577, 8.518066
1167.059, 12.13306
1167.541, 11.36353
1168.023, 6.710938
1168.505, 5.644531
1168.987, 7.934082
1169.469, 9.534668
1169.951, 6.096436
1170.433, 3.670654
1170.916, 6.536865
1171.398, 11.02197
1171.880, 12.36694
1172.362, 10.54712
1172.844, 9.133301
1173.326, 8.458008
1173.808, 8.226563
1174.290, 9.501953
1174.773, 9.937012
1175.255, 6.180420
1175.737, 1.442627
1176.219, 3.407715
1176.701, 12.18018
1177.183, 14.21753
1177.665, 7.485596
1178.147, 0.1286620
1178.630, 1.581299
1179.112, 1.456299
1179.594, 1.785645
1180.076, 2.555176
1180.558, 3.814941
1181.040, 5.711670
1181.522, 4.567383
1182.004, 0.7097170
1182.486, 5.714355
1182.969, 6.164551
1183.451, 4.787354
1183.933, 2.937744
1184.415, 1.007813
1184.897, 1.580811
1185.379, 5.035400
1185.861, 6.375732
1186.343, 3.504639
1186.825, 1.252197
1187.308, 7.190918
1187.790, 14.18042
1188.272, 14.60693
1188.754, 8.170166
1189.236, 1.666016
1189.718, 5.111572
1190.200, 8.356445
1190.682, 5.975586
1191.165, 2.016602
1191.647, 0.1896970
1192.129, 0.4838870
1192.611, 1.076416
1193.093, 1.680908
1193.575, 1.117920
1194.057, 1.032715
1194.539, 1.308105
1195.021, 2.580566
1195.504, 6.890869
1195.986, 7.124512
1196.468, 5.343750
1196.950, 3.809814
1197.432, 2.484131
1197.914, 3.655029
1198.396, 7.784668
1198.878, 11.11157
1199.360, 11.40356
1199.843, 10.67188
1200.325, 11.57666
1200.807, 12.83496
1201.289, 12.48071
1201.771, 10.01099
1202.253, 7.353027
1202.735, 4.316406
1203.217, 2.734131
1203.700, 4.877930
1204.182, 7.508057
1204.664, 5.538330
1205.146, 8.324707
1205.628, 9.842041
1206.110, 9.740479
1206.592, 12.86548
1207.074, 11.31250
1207.557, 9.592041
1208.039, 10.85645
1208.521, 13.11108
1209.003, 14.52979
1209.485, 15.22144
1209.967, 15.20337
1210.449, 13.72241
1210.931, 14.10181
1211.413, 16.68115
1211.896, 19.04688
1212.378, 18.61865
1212.860, 17.95874
1213.342, 21.81201
1213.824, 26.98755
1214.306, 25.99829
1214.788, 15.18652
1215.270, 10.32495
1215.752, 12.31079
1216.235, 15.82178
1216.717, 18.64600
1217.199, 19.59009
1217.681, 15.92969
1218.163, 9.838623
1218.645, 6.399170
1219.127, 6.674805
1219.609, 6.488525
1220.092, 5.641846
1220.574, 3.856934
1221.056, 1.313721
1221.538, 5.359131
1222.020, 2.436035
1222.502, 4.492676
1222.984, 8.465332
1223.466, 8.995361
1223.948, 7.149170
1224.431, 2.731934
1224.913, 0.7429200
1225.395, 0.2683110
1225.877, 2.726074
1226.359, 4.193848
1226.841, 5.190674
1227.323, 7.753418
1227.805, 12.67871
1228.287, 12.16797
1228.770, 5.356445
1229.252, 0.3081050
1229.734, 2.380859
1230.216, 7.245117
1230.698, 10.77930
1231.180, 12.82251
1231.662, 12.94800
1232.144, 10.77173
1232.627, 9.347656
1233.109, 9.088623
1233.591, 9.478271
1234.073, 10.79077
1234.555, 11.97070
1235.037, 12.45312
1235.519, 12.30688
1236.001, 11.46777
1236.484, 9.857178
1236.966, 9.060303
1237.448, 9.191895
1237.930, 8.741943
1238.412, 4.962402
1238.894, 2.090332
1239.376, 4.376709
1239.858, 2.114258
1240.340, 8.341553
1240.823, 3.989014
1241.305, 3.992676
1241.787, 8.916992
1242.269, 12.11377
1242.751, 6.736328
1243.233, 1.920654
1243.715, 2.521240
1244.197, 5.187012
1244.679, 4.164795
1245.162, 0.4401860
1245.644, 0.5705570
1246.126, 1.612793
1246.608, 3.345703
1247.090, 1.004639
1247.572, 1.637939
1248.054, 7.356689
1248.536, 14.53442
1249.019, 17.58130
1249.501, 17.82861
1249.983, 16.70776
1250.465, 14.61987
1250.947, 14.65430
1251.429, 21.81152
1251.911, 25.78857
1252.393, 23.59961
1252.875, 19.02271
1253.358, 17.18115
1253.840, 16.86230
1254.322, 14.74634
1254.804, 10.93677
1255.286, 8.764404
1255.768, 10.46411
1256.250, 11.68018
1256.732, 11.59790
1257.214, 11.39673
1257.697, 13.53979
1258.179, 16.00684
1258.661, 15.01074
1259.143, 10.91260
1259.625, 7.410400
1260.107, 4.561768
1260.589, 3.566895
1261.071, 4.773438
1261.554, 7.130127
1262.036, 10.92212
1262.518, 13.28711
1263.000, 12.41968
1263.482, 9.102539
1263.964, 7.912598
1264.446, 9.294189
1264.928, 10.64844
1265.411, 11.27417
1265.893, 11.47632
1266.375, 10.12744
1266.857, 9.634521
1267.339, 12.59766
1267.821, 17.52661
1268.303, 19.80566
1268.785, 19.20020
1269.267, 19.78076
1269.750, 22.04077
1270.232, 23.14453
1270.714, 19.74805
1271.196, 15.74341
1271.678, 13.59790
1272.160, 12.91162
1272.642, 13.33057
1273.124, 14.75903
1273.606, 15.11670
1274.089, 14.55566
1274.571, 13.33765
1275.053, 13.76245
1275.535, 12.54492
1276.017, 7.625244
1276.499, 1.918457
1276.981, 0.7180180
1277.463, 0.6521000
1277.946, 1.399902
1278.428, 5.032471
1278.910, 8.184814
1279.392, 10.10547
1279.874, 10.93311
1280.356, 10.39062
1280.838, 9.463379
1281.320, 9.529053
1281.802, 9.826660
1282.285, 8.857666
1282.767, 6.912842
1283.249, 4.815918
1283.731, 2.295898
1284.213, 0.4411620
1284.695, 0.7045900
1285.177, 0.9743650
1285.659, 0.2890630
1286.141, 1.436768
1286.624, 6.238281
1287.106, 11.96533
1287.588, 12.04321
1288.070, 4.210938
1288.552, 0.9570310
1289.034, 2.880615
1289.516, 2.408447
1289.998, 1.090332
1290.481, 4.551025
1290.963, 8.252930
1291.445, 10.95215
1291.927, 11.02515
1292.409, 8.150635
1292.891, 8.292480
1293.373, 11.33691
1293.855, 13.71118
1294.338, 10.48193
1294.820, 9.835938
1295.302, 19.20728
1295.784, 28.19287
1296.266, 23.39771
1296.748, 10.71265
1297.230, 6.648926
1297.712, 8.413086
1298.194, 11.81885
1298.677, 17.25366
1299.159, 18.63525
1299.641, 12.43237
1300.123, 7.347656
1300.605, 10.93262
1301.087, 18.65747
1301.569, 20.51099
1302.051, 17.24390
1302.533, 10.99487
1303.016, 0.0000000E+00
##END=



