##NAMES=Hydroxylbastnasite-(Ce)
##RRUFFID=R060283
##IDEAL CHEMISTRY=CeCO_3_(OH)
##LOCALITY=Trimouns, Luzenac, France
##OWNER=RRUFF
##SOURCE=Herb Obodda
##DESCRIPTION=Brown hexagonal tablet
##STATUS=The identification of this mineral has been confirmed by X-ray diffraction and chemical analysis
##URL=rruff.info/R060283
##MEASURED CHEMISTRY=(Ce_0.50_Nd_0.24_(La,Pr)_0.23_Y_0.03_)_Σ=1_CO_3_((OH)_0.65_F_0.35_)_Σ=1_
80.125, 0.000
81.521, 20.415
82.916, 29.247
84.311, 59.253
85.706, 107.138
87.101, 58.931
88.496, 18.529
89.890, 32.379
91.284, 21.036
92.678, 2.164
94.071, 50.165
95.465, 8.330
96.858, 10.761
98.251, 16.008
99.644, 13.639
101.036, 80.382
102.428, 108.946
103.820, 161.075
105.212, 255.544
106.604, 449.151
107.995, 651.723
109.387, 920.108
110.777, 1265.173
112.168, 1682.803
113.559, 2170.898
114.949, 2831.375
116.339, 3412.162
117.729, 4139.196
119.119, 4804.420
120.508, 5340.781
121.897, 5423.226
123.286, 5123.675
124.675, 4824.036
126.063, 4257.240
127.452, 3850.228
128.840, 3780.956
130.228, 3819.384
131.615, 4127.478
133.003, 4428.209
134.390, 4977.550
135.777, 5173.479
137.164, 5352.975
138.550, 5370.018
139.937, 5456.591
141.323, 5072.678
142.709, 4862.266
144.094, 4591.350
145.480, 4324.925
146.865, 3959.993
148.250, 3798.553
149.635, 3710.608
151.019, 3733.157
152.403, 3804.196
153.788, 3912.718
155.171, 4279.715
156.555, 4395.176
157.939, 4606.082
159.322, 4605.422
160.705, 4524.174
162.088, 4398.327
163.470, 4059.762
164.853, 3769.177
166.235, 3509.604
167.617, 3227.070
168.998, 2999.582
170.380, 2975.197
171.761, 2835.934
173.142, 2973.807
174.523, 3058.833
175.904, 3315.021
177.284, 3487.378
178.664, 3629.912
180.044, 3792.628
181.424, 3693.529
182.803, 3792.622
184.183, 3592.905
185.562, 3466.382
186.940, 3410.053
188.319, 3437.920
189.698, 3357.980
191.076, 3476.236
192.454, 3423.686
193.831, 3657.330
195.209, 3628.165
196.586, 3729.193
197.963, 3798.411
199.340, 3594.815
200.717, 3632.413
202.093, 3497.213
203.470, 3341.237
204.846, 3199.496
206.221, 2933.028
207.597, 2674.851
208.972, 2544.972
210.347, 2392.395
211.722, 2095.181
213.097, 1811.328
214.472, 1660.799
215.846, 1302.625
217.220, 1230.805
218.594, 1168.322
219.967, 1093.159
221.341, 1146.328
222.714, 1205.756
224.087, 1154.440
225.460, 1315.363
226.832, 1397.503
228.204, 1549.850
229.577, 1599.365
230.948, 1657.046
232.320, 1813.843
233.692, 1761.731
235.063, 1851.705
236.434, 1961.761
237.805, 2027.899
239.175, 2023.116
240.545, 2096.411
241.916, 2102.781
243.286, 2291.228
244.655, 2346.747
246.025, 2502.117
247.394, 2537.100
248.763, 2729.532
250.132, 2943.363
251.501, 3087.611
252.869, 3384.396
254.237, 3537.556
255.605, 3710.069
256.973, 3924.214
258.340, 3988.728
259.708, 4069.632
261.075, 3971.881
262.442, 3977.454
263.808, 3888.215
265.175, 3782.384
266.541, 3528.829
267.907, 3289.537
269.273, 3106.494
270.639, 2830.691
272.004, 2641.118
273.369, 2392.765
274.734, 2200.666
276.099, 2012.051
277.463, 1845.944
278.828, 1691.392
280.192, 1551.238
281.556, 1477.831
282.919, 1341.811
284.283, 1338.955
285.646, 1268.260
287.009, 1390.720
288.372, 1122.329
289.734, 1091.085
291.097, 1219.983
292.459, 1178.019
293.821, 1169.191
295.183, 1275.494
296.544, 1327.925
297.905, 1328.481
299.266, 1421.160
300.627, 1550.959
301.988, 1705.875
303.348, 1853.904
304.709, 2072.047
306.069, 2250.530
307.428, 2470.658
308.788, 2677.122
310.147, 2883.688
311.507, 3128.354
312.865, 3381.118
314.224, 3622.978
315.583, 3841.931
316.941, 3971.974
318.299, 4234.200
319.657, 4503.418
321.015, 4560.911
322.372, 4719.293
323.729, 5003.286
325.086, 5184.907
326.443, 5282.904
327.800, 5510.505
329.156, 5582.167
330.512, 5865.078
331.868, 5916.896
333.224, 6110.576
334.579, 6153.063
335.935, 6365.363
337.290, 6383.765
338.645, 6645.672
339.999, 6693.265
341.354, 6688.315
342.708, 6805.118
344.062, 6822.932
345.416, 6824.376
346.769, 6835.229
348.123, 6855.240
349.476, 6762.788
350.829, 6640.971
352.182, 6624.514
353.534, 6568.821
354.887, 6546.552
356.239, 6375.228
357.591, 6167.723
358.942, 5993.290
360.294, 5734.812
361.645, 5674.887
362.996, 5403.866
364.347, 5111.783
365.698, 5015.548
367.048, 4828.330
368.398, 4666.714
369.748, 4407.364
371.098, 4269.192
372.448, 4060.877
373.797, 3911.812
375.146, 3823.654
376.495, 3594.628
377.844, 3518.328
379.192, 3550.968
380.540, 3336.999
381.889, 3324.979
383.236, 3037.907
384.584, 3000.722
385.932, 2966.561
387.279, 2854.389
388.626, 2648.233
389.973, 2612.090
391.319, 2576.960
392.666, 2355.842
394.012, 2355.735
395.358, 2228.637
396.704, 2146.550
398.049, 2154.471
399.394, 2029.401
400.740, 2029.340
402.084, 1916.286
403.429, 1890.240
404.774, 1782.200
406.118, 1704.167
407.462, 1665.139
408.806, 1605.170
410.150, 1410.257
411.493, 1447.398
412.836, 1315.590
414.179, 1299.832
415.522, 1249.121
416.865, 1126.459
418.207, 1088.845
419.549, 1062.271
420.891, 948.735
422.233, 857.236
423.575, 755.771
424.916, 747.340
426.257, 613.940
427.598, 641.570
428.939, 551.229
430.279, 522.915
431.619, 490.627
432.959, 411.364
434.299, 366.123
435.639, 408.905
436.978, 354.708
438.318, 327.531
439.657, 341.374
440.996, 263.234
442.334, 307.111
443.673, 286.004
445.011, 278.913
446.349, 253.835
447.687, 284.771
449.024, 220.720
450.361, 265.680
451.699, 248.651
453.036, 216.632
454.372, 245.622
455.709, 240.621
457.045, 278.628
458.381, 171.641
459.717, 240.662
461.053, 208.687
462.388, 250.718
463.724, 230.997
465.059, 220.792
466.394, 165.833
467.728, 134.878
469.063, 66.924
470.397, 135.971
471.731, 126.019
473.065, 53.067
474.398, 88.115
475.732, 33.162
477.065, 49.208
478.398, 0.251
479.731, 47.289
481.063, 24.676
482.396, 28.340
483.728, 27.647
485.060, 35.657
486.391, 20.695
487.723, 46.754
489.054, 62.849
490.385, 63.988
491.716, 76.249
493.047, 87.412
494.377, 80.711
495.708, 74.070
497.038, 72.485
498.368, 111.957
499.697, 137.508
501.027, 159.151
502.356, 151.897
503.685, 80.746
505.014, 122.663
506.342, 109.669
507.671, 160.761
508.999, 115.964
510.327, 158.257
511.655, 127.662
512.982, 138.166
514.310, 108.774
515.637, 105.473
516.964, 151.262
518.291, 133.166
519.617, 113.176
520.944, 69.282
522.270, 31.465
523.596, 96.707
524.921, 58.041
526.247, 56.448
527.572, 64.928
528.897, 16.487
530.222, 69.102
531.547, 13.797
532.871, 33.549
534.196, 22.633
535.520, 14.223
536.844, 8.137
538.167, 32.894
539.491, 51.888
540.814, 102.852
542.137, 110.686
543.460, 128.719
544.783, 129.625
546.105, 159.513
547.427, 164.384
548.749, 239.237
550.071, 229.073
551.393, 293.891
552.714, 320.691
554.035, 353.474
555.356, 429.239
556.677, 535.986
557.998, 553.715
559.318, 637.427
560.638, 693.120
561.958, 782.795
563.278, 892.452
564.597, 939.091
565.917, 1104.711
567.236, 1149.313
568.555, 1299.897
569.874, 1359.462
571.192, 1436.008
572.511, 1515.534
573.829, 1720.041
575.147, 1783.528
576.464, 1871.617
577.782, 1966.442
579.099, 1975.867
580.416, 2004.273
581.733, 2007.657
583.050, 2107.021
584.366, 2095.363
585.683, 1995.683
586.999, 2066.982
588.315, 1964.260
589.630, 1944.516
590.946, 2069.750
592.261, 1898.961
593.576, 1918.151
594.891, 1791.320
596.206, 1685.466
597.520, 1668.590
598.834, 1619.691
600.148, 1440.770
601.462, 1352.827
602.776, 1275.862
604.089, 1217.873
605.402, 1098.862
606.715, 1021.827
608.028, 938.771
609.341, 849.693
610.653, 801.592
611.965, 715.469
613.277, 638.321
614.589, 637.151
615.901, 588.958
617.212, 507.741
618.523, 477.502
619.834, 472.239
621.145, 469.957
622.456, 429.652
623.766, 382.332
625.076, 363.991
626.386, 399.631
627.696, 372.253
629.006, 393.854
630.315, 320.443
631.624, 451.020
632.933, 361.588
634.242, 358.144
635.551, 455.690
636.859, 401.131
638.167, 424.655
639.475, 363.979
640.783, 500.486
642.090, 403.456
643.398, 455.873
644.705, 508.978
646.012, 411.538
647.318, 466.106
648.625, 441.501
649.931, 514.049
651.237, 529.811
652.543, 474.835
653.849, 537.115
655.155, 588.352
656.460, 620.138
657.765, 640.296
659.070, 710.063
660.375, 753.131
661.679, 864.238
662.984, 1044.769
664.288, 1066.938
665.592, 1136.002
666.895, 1210.577
668.199, 1142.566
669.502, 1099.239
670.805, 1134.190
672.108, 1044.761
673.411, 1118.426
674.713, 1093.314
676.016, 1130.170
677.318, 1237.108
678.620, 1203.531
679.921, 1285.086
681.223, 1231.739
682.524, 1292.579
683.825, 1364.438
685.126, 1485.414
686.427, 1698.782
687.727, 1864.687
689.028, 2121.766
690.328, 2397.624
691.628, 2515.599
692.927, 2849.467
694.227, 3067.633
695.526, 3127.880
696.825, 2918.755
698.124, 2899.510
699.423, 2872.716
700.721, 2551.858
702.020, 2394.992
703.318, 2261.148
704.616, 2115.302
705.913, 2056.453
707.211, 1911.601
708.508, 1831.747
709.805, 1791.889
711.102, 1595.030
712.399, 1463.167
713.695, 1389.303
714.992, 1217.436
716.288, 1202.567
717.584, 1059.696
718.879, 1050.823
720.175, 1064.948
721.470, 906.071
722.765, 1062.193
724.060, 1025.313
725.355, 1059.431
726.649, 1119.548
727.944, 1174.663
729.238, 1143.777
730.532, 1253.890
731.825, 1217.001
733.119, 1265.111
734.412, 1275.220
735.705, 1149.328
736.998, 1155.435
738.291, 1157.541
739.584, 1101.646
740.876, 1120.751
742.168, 1084.856
743.460, 1131.959
744.752, 1066.062
746.043, 1052.166
747.334, 1105.268
748.626, 1205.507
749.916, 1132.649
751.207, 1123.834
752.498, 1170.937
753.788, 1119.040
755.078, 1158.143
756.368, 1137.527
757.658, 1174.631
758.947, 1172.736
760.237, 1163.842
761.526, 1325.948
762.815, 1318.242
764.104, 1413.758
765.392, 1401.909
766.680, 1522.020
767.969, 1614.131
769.257, 1696.321
770.544, 1768.435
771.832, 1889.670
773.119, 1969.787
774.406, 1980.084
775.693, 2048.845
776.980, 2178.246
778.267, 2180.080
779.553, 2354.649
780.839, 2461.649
782.125, 2516.987
783.411, 2459.452
784.697, 2539.220
785.982, 2590.952
787.267, 2547.276
788.552, 2620.063
789.837, 2584.040
791.122, 2524.117
792.406, 2544.000
793.690, 2452.356
794.974, 2411.818
796.258, 2321.692
797.542, 2169.430
798.825, 2183.273
800.108, 1994.224
801.391, 2014.492
802.674, 1909.764
803.957, 1774.716
805.239, 1675.873
806.522, 1605.104
807.804, 1540.655
809.085, 1440.035
810.367, 1404.850
811.649, 1272.637
812.930, 1147.526
814.211, 1100.950
815.492, 1005.990
816.772, 915.915
818.053, 907.146
819.333, 830.706
820.613, 814.088
821.893, 748.171
823.173, 708.343
824.452, 675.287
825.732, 635.470
827.011, 592.731
828.290, 562.949
829.568, 563.088
830.847, 512.133
832.125, 486.297
833.403, 538.516
834.681, 515.730
835.959, 512.901
837.236, 563.212
838.514, 619.440
839.791, 661.700
841.068, 674.978
842.345, 805.289
843.621, 900.618
844.898, 1092.972
846.174, 1278.336
847.450, 1476.720
848.726, 1726.122
850.001, 1879.534
851.277, 1994.951
852.552, 2047.369
853.827, 2119.786
855.102, 2083.203
856.376, 1944.619
857.651, 1790.034
858.925, 1712.448
860.199, 1592.860
861.473, 1422.271
862.746, 1194.681
864.020, 1186.089
865.293, 1104.495
866.566, 989.900
867.839, 1019.303
869.112, 1102.705
870.384, 1352.105
871.656, 1811.502
872.928, 2212.980
874.200, 2348.502
875.472, 2089.893
876.744, 1867.285
878.015, 1613.673
879.286, 1366.101
880.557, 1114.485
881.828, 870.867
883.098, 656.246
884.369, 513.624
885.639, 398.998
886.909, 277.371
888.178, 240.741
889.448, 173.108
890.717, 138.474
891.987, 86.836
893.256, 66.197
894.524, 55.555
895.793, 56.911
897.061, 11.265
898.330, 22.615
899.598, 25.963
900.865, 0.308
902.133, 10.649
903.401, 6.986
904.668, 46.319
905.935, 61.649
907.202, 27.975
908.468, 3.701
909.735, 42.615
911.001, 55.929
912.267, 68.238
913.533, 41.545
914.799, 5.847
916.064, 4.856
917.330, 26.434
918.595, 40.721
919.860, 43.003
921.124, 25.283
922.389, 52.557
923.653, 22.827
924.918, 51.093
926.182, 18.355
927.445, 6.389
928.709, 8.856
929.972, 22.907
931.236, 0.311
932.499, 8.481
933.761, 13.286
935.024, 9.892
936.286, 34.938
937.549, 33.795
938.811, 42.680
940.073, 33.597
941.334, 36.065
942.596, 37.164
943.857, 33.519
945.118, 40.554
946.379, 41.623
947.640, 47.726
948.900, 60.867
950.161, 30.054
951.421, 15.271
952.681, 51.511
953.940, 66.791
955.200, 29.122
956.459, 63.483
957.719, 63.889
958.978, 36.335
960.236, 27.817
961.495, 3.670
962.753, 21.858
964.012, 38.415
965.270, 14.010
966.527, 18.368
967.785, 4.266
969.043, 11.079
970.300, 12.582
971.557, 8.731
972.814, 2.969
974.071, 31.309
975.327, 68.575
976.583, 41.829
977.840, 38.070
979.095, 48.298
980.351, 66.513
981.607, 100.715
982.862, 82.906
984.117, 78.085
985.372, 85.255
986.627, 138.415
987.882, 79.571
989.136, 133.717
990.390, 149.853
991.644, 112.979
992.898, 131.093
994.152, 176.194
995.405, 130.282
996.659, 153.357
997.912, 128.417
999.165, 172.463
1000.417, 180.495
1001.670, 180.512
1002.922, 173.516
1004.174, 202.508
1005.426, 163.489
1006.678, 197.460
1007.930, 178.418
1009.181, 194.360
1010.432, 201.288
1011.683, 184.200
1012.934, 208.097
1014.185, 188.979
1015.435, 160.846
1016.685, 183.700
1017.935, 186.348
1019.185, 175.112
1020.435, 204.195
1021.684, 163.001
1022.934, 108.797
1024.183, 98.571
1025.432, 165.331
1026.680, 130.075
1027.929, 162.804
1029.177, 121.516
1030.425, 167.213
1031.673, 163.893
1032.921, 142.563
1034.169, 169.211
1035.416, 153.923
1036.663, 185.543
1037.911, 186.191
1039.157, 230.842
1040.404, 227.514
1041.650, 238.131
1042.897, 274.073
1044.143, 289.334
1045.389, 329.125
1046.634, 336.794
1047.880, 351.298
1049.125, 346.940
1050.371, 369.507
1051.615, 377.967
1052.860, 418.359
1054.105, 429.823
1055.349, 465.182
1056.593, 476.698
1057.837, 536.209
1059.081, 575.298
1060.325, 648.734
1061.568, 713.140
1062.812, 791.480
1064.055, 836.840
1065.298, 903.115
1066.540, 939.196
1067.783, 1028.822
1069.025, 1108.119
1070.267, 1172.487
1071.509, 1357.740
1072.751, 1539.907
1073.993, 1831.315
1075.234, 2396.649
1076.475, 3244.733
1077.716, 4852.347
1078.957, 7734.332
1080.198, 11935.887
1081.438, 17419.697
1082.679, 22737.984
1083.919, 25005.049
1085.159, 25304.873
1086.398, 23912.559
1087.638, 24014.451
1088.877, 25427.537
1090.116, 28225.627
1091.355, 30087.809
1092.594, 29518.016
1093.833, 26270.232
1095.071, 22606.328
1096.309, 19973.014
1097.547, 19578.391
1098.785, 22003.785
1100.023, 24828.055
1101.260, 28251.271
1102.498, 29658.271
1103.735, 28081.184
1104.972, 24478.404
1106.208, 20158.348
1107.445, 15227.659
1108.681, 11218.255
1109.918, 7650.480
1111.154, 5147.532
1112.389, 3393.970
1113.625, 2337.383
1114.860, 1627.171
1116.096, 1171.524
1117.331, 1017.824
1118.566, 781.206
1119.800, 684.992
1121.035, 595.521
1122.269, 563.309
1123.503, 506.536
1124.737, 489.055
1125.971, 434.344
1127.205, 447.769
1128.438, 366.136
1129.671, 358.558
1130.904, 323.112
1132.137, 318.598
1133.370, 297.288
1134.602, 279.121
1135.834, 265.473
1137.066, 241.517
1138.298, 229.858
1139.530, 246.821
1140.762, 248.408
1141.993, 214.874
1143.224, 230.460
1144.455, 201.785
1145.686, 159.061
1146.917, 204.313
1148.147, 199.748
1149.377, 205.028
1150.607, 160.422
1151.837, 213.221
1153.067, 194.216
1154.296, 163.783
1155.526, 178.061
1156.755, 186.265
1157.984, 164.390
1159.213, 174.491
1160.441, 182.623
1161.670, 168.782
1162.898, 161.935
1164.126, 174.398
1165.354, 145.315
1166.581, 142.560
1167.809, 124.696
1169.036, 123.609
1170.263, 95.578
1171.490, 101.551
1172.717, 95.895
1173.943, 114.089
1175.170, 99.051
1176.396, 118.962
1177.622, 122.930
1178.848, 134.720
1180.073, 94.501
1181.299, 103.289
1182.524, 76.067
1183.749, 93.739
1184.974, 82.624
1186.199, 77.836
1187.423, 69.387
1188.648, 78.134
1189.872, 61.729
1191.096, 74.369
1192.320, 37.933
1193.543, 48.144
1194.767, 83.126
1195.990, 45.644
1197.213, 59.145
1198.436, 47.732
1199.659, 82.203
1200.881, 50.811
1202.104, 95.252
1203.326, 48.679
1204.548, 45.091
1205.770, 74.487
1206.991, 53.870
1208.213, 56.239
1209.434, 67.592
1210.655, 57.930
1211.876, 29.254
1213.096, 23.563
1214.317, 3.886
1215.537, 54.169
1216.757, 32.436
1217.977, 36.684
1219.197, 70.917
1220.417, 5.136
1221.636, 24.339
1222.855, 33.527
1224.074, 30.701
1225.293, 24.864
1226.512, 22.014
1227.731, 21.554
1228.949, 33.288
1230.167, 13.409
1231.385, 25.522
1232.603, 3.622
1233.820, 0.282
1235.038, 3.809
1236.255, 5.102
1237.472, 34.980
1238.689, 11.061
1239.906, 40.141
1241.122, 0.220
1242.338, 23.298
1243.555, 7.377
1244.771, 21.459
1245.986, 23.548
1247.202, 14.635
1248.417, 2.718
1249.633, 12.789
1250.848, 13.869
1252.063, 11.052
1253.277, 33.969
1254.492, 20.112
1255.706, 4.183
1256.920, 17.248
1258.134, 14.304
1259.348, 8.357
1260.562, 25.411
1261.775, 4.461
1262.988, 32.490
1264.201, 32.499
1265.414, 16.483
1266.627, 4.540
1267.839, 3.578
1269.052, 22.377
1270.264, 16.319
1271.476, 18.244
1272.688, 1.146
1273.899, 10.035
1275.111, 16.913
1276.322, 15.777
1277.533, 12.625
1278.744, 11.552
1279.955, 7.752
1281.165, 25.968
1282.376, 7.211
1283.586, 10.470
1284.796, 4.747
1286.006, 0.961
1287.215, 8.284
1288.425, 0.338
1289.634, 26.003
1290.843, 33.656
1292.052, 35.192
1293.261, 1.925
1294.469, 20.542
1295.678, 2.145
1296.886, 5.263
1298.094, 8.686
1299.302, 18.123
1300.509, 9.422
1301.717, 11.955
1302.924, 29.477
1304.131, 30.987
1305.338, 19.486
1306.545, 10.974
1307.752, 9.450
1308.958, 3.085
1310.164, 10.634
1311.370, 16.198
1312.576, 14.778
1313.782, 43.626
1314.987, 26.019
1316.193, 6.395
1317.398, 24.766
1318.603, 9.877
1319.807, 11.469
1321.012, 19.804
1322.216, 1.128
1323.421, 40.441
1324.625, 38.743
1325.829, 33.030
1327.032, 31.312
1328.236, 54.505
1329.439, 38.763
1330.642, 24.966
1331.845, 4.859
1333.048, 18.271
1334.251, 63.428
1335.453, 35.511
1336.656, 50.640
1337.858, 32.610
1339.060, 37.617
1340.261, 48.765
1341.463, 63.749
1342.664, 22.786
1343.866, 62.768
1345.067, 9.890
1346.267, 48.875
1347.468, 47.022
1348.669, 55.989
1349.869, 76.937
1351.069, 73.004
1352.269, 49.980
1353.469, 53.964
1354.668, 46.991
1355.868, 53.975
1357.067, 42.836
1358.266, 34.648
1359.465, 39.259
1360.664, 39.220
1361.862, 73.089
1363.061, 44.976
1364.259, 41.006
1365.457, 73.656
1366.655, 47.481
1367.852, 58.357
1369.050, 72.224
1370.247, 85.153
1371.444, 100.974
1372.641, 87.966
1373.838, 51.859
1375.035, 97.627
1376.231, 40.500
1377.427, 74.234
1378.623, 109.755
1379.819, 95.467
1381.015, 105.696
1382.211, 97.636
1383.406, 113.432
1384.601, 88.406
1385.796, 140.061
1386.991, 127.992
1388.185, 165.772
1389.380, 187.829
1390.574, 193.644
1391.768, 243.530
1392.962, 270.024
1394.156, 355.831
1395.350, 483.687
1396.543, 545.522
1397.736, 732.336
1398.929, 824.686
1400.122, 984.380
1401.315, 1178.176
1402.507, 1342.746
1403.700, 1387.420
1404.892, 1561.093
1406.084, 1543.864
1407.276, 1495.586
1408.467, 1517.561
1409.659, 1571.882
1410.850, 1589.271
1412.041, 1697.021
1413.232, 1819.451
1414.423, 1827.196
1415.614, 1981.132
1416.804, 1985.516
1417.994, 2060.125
1419.184, 2070.550
1420.374, 2073.455
1421.564, 2077.228
1422.753, 2116.309
1423.943, 2041.625
1425.132, 2031.968
1426.321, 2042.264
1427.510, 1907.554
1428.698, 1907.060
1429.887, 1867.628
1431.075, 1768.071
1432.263, 1818.737
1433.451, 1745.292
1434.639, 1693.821
1435.827, 1778.371
1437.014, 1729.822
1438.201, 1754.180
1439.388, 1802.755
1440.575, 1743.319
1441.762, 1665.869
1442.949, 1582.407
1444.135, 1511.235
1445.321, 1433.394
1446.507, 1345.894
1447.693, 1248.388
1448.879, 1146.873
1450.064, 998.345
1451.250, 960.804
1452.435, 829.246
1453.620, 694.676
1454.805, 685.095
1455.989, 605.510
1457.174, 560.913
1458.358, 551.300
1459.542, 509.671
1460.726, 525.021
1461.910, 503.383
1463.093, 496.757
1464.277, 513.114
1465.460, 516.511
1466.643, 554.906
1467.826, 578.291
1469.009, 585.733
1470.191, 671.236
1471.373, 671.742
1472.556, 753.256
1473.738, 793.837
1474.919, 814.420
1476.101, 875.053
1477.283, 904.760
1478.464, 932.507
1479.645, 929.781
1480.826, 929.052
1482.007, 879.865
1483.187, 850.690
1484.368, 794.534
1485.548, 734.393
1486.728, 686.268
1487.908, 633.166
1489.088, 553.078
1490.268, 529.018
1491.447, 489.986
1492.626, 425.987
1493.805, 340.024
1494.984, 308.104
1496.163, 254.232
1497.341, 199.414
1498.520, 200.653
1499.698, 172.956
1500.876, 135.594
1502.054, 70.753
1503.232, 70.254
1504.409, 29.823
1505.586, 3.462
1506.763, 18.178
1507.940, 30.977
1509.117, 67.870
1510.294, 8.867
1511.470, 4.019
1512.647, 53.224
1513.823, 5.391
1514.999, 1.149
1516.174, 2.859
1517.350, 13.758
1518.526, 0.131
1519.701, 21.223
1520.876, 2.442
1522.051, 4.048
1523.226, 7.490
1524.400, 1.422
1525.574, 11.021
1526.749, 0.052
1527.923, 13.661
1529.097, 0.000
##END=



