##NAMES=Inesite
##RRUFFID=R070456
##IDEAL CHEMISTRY=Ca_2_Mn^2+^_7_Si_10_O_28_(OH)_2_&#183;5H_2_O
##LOCALITY=Fengjiashan mine (Daye Copper mine), Daye County, Huangshi Prefecture, Hubei Province, China
##OWNER=RRUFF
##SOURCE=Michael Scott
##DESCRIPTION=Fan-shaped cluster of pink laths associated with quartz and brown platy hubeite
##STATUS=The identification of this mineral is confirmed by single-crystal X-ray diffraction and chemical analysis.
##URL=rruff.info/R070456
##MEASURED CHEMISTRY=Ca_2.00_(Mn^2+^_6.03_Fe^2+^_0.93_Mg_0.04_)_Σ=7_Si_10.00_O_28_(OH)_2_·5H_2_O; (OH) estimated by charge balance; H_2_O by difference
144.3699, 0.0000000E+00
144.8521, 1.243408
145.3342, 15.75122
145.8163, 40.19360
146.2984, 76.21143
146.7805, 108.5835
147.2626, 127.2964
147.7448, 126.1948
148.2269, 117.8413
148.7090, 96.67578
149.1911, 59.21680
149.6732, 45.02490
150.1554, 64.84863
150.6375, 102.7329
151.1196, 141.7412
151.6017, 196.8765
152.0838, 239.5088
152.5659, 259.8296
153.0481, 249.1387
153.5302, 247.1963
154.0123, 257.4282
154.4944, 277.1089
154.9765, 302.4204
155.4586, 340.9873
155.9408, 378.4160
156.4229, 408.6738
156.9050, 407.3027
157.3871, 389.2651
157.8692, 380.9565
158.3513, 379.5708
158.8335, 374.3833
159.3156, 362.2549
159.7977, 346.7080
160.2798, 329.1401
160.7619, 305.5811
161.2440, 286.6045
161.7262, 280.8286
162.2083, 283.8579
162.6904, 279.5620
163.1725, 252.5376
163.6546, 220.9580
164.1367, 198.4443
164.6189, 197.7461
165.1010, 197.6143
165.5831, 185.5356
166.0652, 163.0361
166.5473, 144.0186
167.0294, 137.8403
167.5116, 138.2100
167.9937, 138.5781
168.4758, 138.7056
168.9579, 136.1758
169.4400, 127.7861
169.9221, 118.2070
170.4043, 129.0020
170.8864, 157.1323
171.3685, 190.1255
171.8506, 222.1987
172.3327, 247.7983
172.8148, 262.2563
173.2970, 265.1045
173.7791, 255.5239
174.2612, 246.8555
174.7433, 253.7529
175.2254, 270.7070
175.7076, 284.8403
176.1897, 290.0732
176.6718, 288.5947
177.1539, 282.5718
177.6360, 271.4800
178.1181, 258.7783
178.6003, 245.3555
179.0824, 232.3784
179.5645, 224.9478
180.0466, 231.9536
180.5287, 245.8320
181.0108, 251.7881
181.4930, 247.4194
181.9751, 234.9839
182.4572, 214.6323
182.9393, 187.0454
183.4214, 159.8164
183.9035, 137.3120
184.3857, 119.2422
184.8678, 104.8770
185.3499, 94.87402
185.8320, 87.58887
186.3141, 80.03027
186.7962, 72.10449
187.2784, 65.44189
187.7605, 60.37695
188.2426, 57.27588
188.7247, 58.86572
189.2068, 68.81152
189.6889, 82.38574
190.1711, 87.99707
190.6532, 85.49854
191.1353, 76.02686
191.6174, 53.88086
192.0995, 21.25830
192.5816, 1.734863
193.0638, 10.35010
193.5459, 38.15137
194.0280, 45.25146
194.5101, 29.63037
194.9922, 2.889160
195.4743, 27.10742
195.9565, 60.12793
196.4386, 81.61279
196.9207, 81.58447
197.4028, 62.58740
197.8849, 51.52637
198.3671, 50.18799
198.8492, 51.71729
199.3313, 46.76270
199.8134, 34.90625
200.2955, 20.23877
200.7776, 2.460938
201.2598, 18.48633
201.7419, 33.84375
202.2240, 42.36768
202.7061, 46.88281
203.1882, 46.85498
203.6703, 38.33545
204.1525, 43.26318
204.6346, 80.88428
205.1167, 157.9048
205.5988, 202.5435
206.0809, 204.3472
206.5630, 183.7656
207.0452, 185.8877
207.5273, 217.8345
208.0094, 250.2759
208.4915, 267.4224
208.9736, 265.4043
209.4557, 269.6484
209.9379, 281.4355
210.4200, 299.9038
210.9021, 323.4131
211.3842, 353.1621
211.8663, 385.3359
212.3484, 419.6719
212.8306, 457.7510
213.3127, 488.3838
213.7948, 510.9775
214.2769, 525.7539
214.7590, 532.9429
215.2411, 531.5908
215.7233, 524.4819
216.2054, 512.0923
216.6875, 492.2227
217.1696, 474.2632
217.6517, 458.6621
218.1338, 445.4248
218.6160, 436.0688
219.0981, 433.6377
219.5802, 429.7300
220.0623, 417.1338
220.5444, 390.4102
221.0265, 370.3228
221.5087, 362.8296
221.9908, 364.9150
222.4729, 353.5200
222.9550, 319.7715
223.4371, 285.2681
223.9192, 268.3037
224.4014, 281.8906
224.8835, 281.2905
225.3656, 253.0127
225.8477, 200.9316
226.3298, 174.7700
226.8119, 188.7988
227.2941, 210.4346
227.7762, 212.2183
228.2583, 182.8579
228.7404, 157.7520
229.2225, 143.5596
229.7046, 139.5820
230.1868, 132.9604
230.6689, 122.7212
231.1510, 110.8911
231.6331, 98.25342
232.1152, 81.36475
232.5974, 70.62402
233.0795, 67.23340
233.5616, 71.30811
234.0437, 84.88818
234.5258, 116.9399
235.0079, 149.8545
235.4901, 166.1602
235.9722, 155.2832
236.4543, 149.2861
236.9364, 157.9629
237.4185, 182.0405
237.9006, 189.0679
238.3828, 166.5757
238.8649, 139.4531
239.3470, 132.7964
239.8291, 157.5835
240.3112, 183.0552
240.7933, 206.1392
241.2755, 227.4893
241.7576, 230.9673
242.2397, 201.5039
242.7218, 168.2212
243.2039, 163.9380
243.6860, 209.7646
244.1682, 245.0552
244.6503, 255.5176
245.1324, 239.9556
245.6145, 220.3159
246.0966, 188.4331
246.5787, 160.4155
247.0609, 155.3154
247.5430, 185.7275
248.0251, 215.4385
248.5072, 238.3296
248.9893, 254.3354
249.4714, 261.1626
249.9536, 254.1465
250.4357, 243.3970
250.9178, 238.3335
251.3999, 235.0527
251.8820, 240.1821
252.3641, 261.6992
252.8463, 302.6343
253.3284, 321.0698
253.8105, 307.2817
254.2926, 278.7183
254.7747, 255.3149
255.2568, 240.0825
255.7390, 228.1519
256.2211, 218.8530
256.7032, 212.2739
257.1853, 201.3574
257.6674, 183.3555
258.1495, 165.3223
258.6317, 157.1021
259.1138, 165.5312
259.5959, 165.4468
260.0780, 148.2998
260.5601, 112.9604
261.0422, 85.56885
261.5244, 68.90381
262.0065, 56.55420
262.4886, 40.05420
262.9707, 13.93115
263.4528, 1.760742
263.9349, 6.8359002E-02
264.4171, 19.86426
264.8992, 37.09424
265.3813, 54.67529
265.8634, 65.94824
266.3455, 60.47412
266.8276, 30.50635
267.3098, 8.591309
267.7919, 5.087402
268.2740, 19.32617
268.7561, 23.09131
269.2382, 9.176758
269.7203, 2.818359
270.2025, 12.38574
270.6846, 64.18506
271.1667, 104.9956
271.6488, 122.5151
272.1309, 118.2197
272.6130, 112.0171
273.0952, 101.8945
273.5773, 94.31982
274.0594, 95.17383
274.5415, 104.4688
275.0236, 123.3076
275.5057, 158.4922
275.9879, 205.1777
276.4700, 223.3120
276.9521, 205.7119
277.4342, 180.3994
277.9163, 173.5884
278.3984, 186.6182
278.8806, 205.4438
279.3627, 228.1914
279.8448, 254.1763
280.3269, 282.7920
280.8090, 315.7490
281.2911, 344.3149
281.7733, 360.0571
282.2554, 362.6460
282.7375, 360.8701
283.2196, 354.0938
283.7017, 344.9893
284.1838, 343.6797
284.6660, 350.8354
285.1481, 361.2749
285.6302, 371.8813
286.1123, 382.5801
286.5944, 391.3462
287.0765, 396.2715
287.5587, 400.3276
288.0408, 413.7505
288.5229, 437.4697
289.0050, 459.4712
289.4871, 467.2256
289.9692, 463.5752
290.4514, 466.2065
290.9335, 480.2144
291.4156, 499.8047
291.8977, 513.2749
292.3798, 520.8008
292.8619, 525.7397
293.3441, 530.9785
293.8262, 535.6729
294.3083, 535.2314
294.7904, 526.3315
295.2726, 516.7905
295.7547, 523.2827
296.2368, 543.7197
296.7189, 560.3018
297.2010, 559.9868
297.6831, 547.0820
298.1653, 530.7812
298.6474, 511.4082
299.1295, 491.3223
299.6116, 478.9238
300.0937, 470.7217
300.5758, 450.0435
301.0580, 393.3740
301.5401, 321.2817
302.0222, 268.4341
302.5043, 241.9829
302.9864, 225.1235
303.4685, 204.4995
303.9507, 180.1196
304.4328, 152.5576
304.9149, 116.7285
305.3970, 80.32471
305.8791, 53.65283
306.3612, 39.24658
306.8434, 26.55371
307.3255, 1.895508
307.8076, 27.34814
308.2897, 46.69678
308.7718, 38.28320
309.2539, 23.11621
309.7361, 22.48877
310.2182, 39.23193
310.7003, 54.22168
311.1824, 52.59033
311.6645, 41.20264
312.1466, 30.38770
312.6288, 27.05713
313.1109, 23.59766
313.5930, 14.84277
314.0751, 0.4453130
314.5572, 15.98340
315.0393, 37.52197
315.5215, 58.49707
316.0036, 72.53418
316.4857, 68.19336
316.9678, 65.01660
317.4499, 72.02393
317.9320, 89.01318
318.4142, 109.5928
318.8963, 134.5332
319.3784, 160.3921
319.8605, 184.6650
320.3426, 213.9858
320.8247, 233.9951
321.3069, 233.2573
321.7890, 216.0156
322.2711, 206.8784
322.7532, 211.1196
323.2353, 225.0801
323.7174, 246.8164
324.1996, 299.2598
324.6817, 332.0620
325.1638, 323.8506
325.6459, 286.7695
326.1280, 265.9727
326.6101, 274.9868
327.0923, 294.4307
327.5744, 316.0874
328.0565, 348.7036
328.5386, 371.5918
329.0207, 377.5645
329.5028, 374.2256
329.9850, 378.5073
330.4671, 385.8369
330.9492, 406.1084
331.4313, 447.0361
331.9134, 525.5103
332.3955, 579.9468
332.8777, 601.0898
333.3598, 602.5928
333.8419, 604.8481
334.3240, 602.3799
334.8061, 610.0034
335.2882, 635.9087
335.7704, 684.6147
336.2525, 717.7202
336.7346, 726.9341
337.2167, 730.2891
337.6988, 751.2603
338.1809, 797.0176
338.6631, 840.7646
339.1452, 872.6416
339.6273, 893.7959
340.1094, 923.9604
340.5915, 965.7700
341.0736, 1013.092
341.5558, 1059.168
342.0379, 1103.637
342.5200, 1140.858
343.0021, 1172.710
343.4842, 1199.829
343.9663, 1219.816
344.4485, 1232.094
344.9306, 1240.995
345.4127, 1254.464
345.8948, 1270.355
346.3769, 1267.720
346.8590, 1240.513
347.3412, 1198.050
347.8233, 1154.885
348.3054, 1111.463
348.7875, 1071.315
349.2696, 1036.139
349.7517, 1006.485
350.2339, 984.4678
350.7160, 972.5347
351.1981, 960.7720
351.6802, 937.6123
352.1623, 904.0898
352.6444, 864.1094
353.1266, 814.7949
353.6087, 762.0845
354.0908, 714.7988
354.5729, 673.3784
355.0550, 637.0068
355.5371, 607.7607
356.0193, 582.7842
356.5014, 557.4404
356.9835, 526.8970
357.4656, 497.7437
357.9477, 474.4531
358.4298, 457.2866
358.9120, 446.8999
359.3941, 448.2104
359.8762, 454.8965
360.3583, 460.3804
360.8404, 460.3862
361.3225, 461.0044
361.8047, 468.7437
362.2868, 480.9233
362.7689, 485.0254
363.2510, 464.4473
363.7331, 441.5176
364.2152, 431.0254
364.6974, 441.7583
365.1795, 455.5659
365.6616, 469.9775
366.1437, 483.6187
366.6258, 493.9692
367.1079, 498.2705
367.5901, 500.9497
368.0722, 503.7651
368.5543, 509.9897
369.0364, 510.2485
369.5185, 497.8164
370.0006, 482.2251
370.4828, 476.4741
370.9649, 490.2754
371.4470, 502.3530
371.9291, 507.4058
372.4112, 503.7969
372.8933, 501.9292
373.3755, 503.0518
373.8576, 504.4229
374.3397, 503.0269
374.8218, 497.1411
375.3039, 492.1743
375.7861, 488.1792
376.2682, 485.5156
376.7503, 488.4858
377.2324, 500.1357
377.7145, 509.0015
378.1967, 503.5869
378.6788, 482.0718
379.1609, 472.2563
379.6430, 481.7393
380.1251, 498.8457
380.6072, 496.6460
381.0894, 474.4688
381.5715, 449.6387
382.0536, 431.0034
382.5357, 417.6807
383.0178, 406.1416
383.4999, 396.4146
383.9821, 387.3696
384.4642, 377.2856
384.9463, 366.2910
385.4284, 355.9150
385.9105, 343.7871
386.3926, 333.2651
386.8748, 335.0566
387.3569, 348.7998
387.8390, 354.8970
388.3211, 327.4502
388.8032, 283.0942
389.2853, 250.5894
389.7675, 244.5425
390.2496, 245.8931
390.7317, 239.1826
391.2138, 226.4287
391.6959, 216.1401
392.1780, 222.2905
392.6602, 227.6582
393.1423, 217.6572
393.6244, 187.0864
394.1065, 147.4507
394.5886, 92.02490
395.0707, 31.53809
395.5529, 14.30762
396.0350, 33.64160
396.5171, 42.33252
396.9992, 44.20264
397.4813, 37.26074
397.9634, 35.40381
398.4456, 54.20215
398.9277, 73.45898
399.4098, 72.43066
399.8919, 23.06104
400.3740, 17.07227
400.8561, 36.37646
401.3383, 36.04980
401.8204, 41.07959
402.3025, 52.95557
402.7846, 68.71191
403.2667, 88.25537
403.7488, 117.6602
404.2310, 134.9478
404.7131, 134.5088
405.1952, 123.2847
405.6773, 119.5762
406.1594, 126.7417
406.6415, 136.6689
407.1237, 142.5923
407.6058, 142.9888
408.0879, 148.7002
408.5700, 162.1348
409.0521, 177.5562
409.5342, 187.5845
410.0164, 192.3828
410.4985, 194.7021
410.9806, 195.9595
411.4627, 193.6738
411.9448, 175.5342
412.4269, 142.5381
412.9091, 119.0381
413.3912, 137.4634
413.8733, 179.1035
414.3554, 203.2407
414.8375, 195.0059
415.3196, 178.7153
415.8018, 178.4390
416.2839, 191.8496
416.7660, 211.1543
417.2481, 239.0972
417.7302, 267.1348
418.2123, 284.0347
418.6945, 286.1963
419.1766, 289.8682
419.6587, 306.0522
420.1408, 328.7773
420.6229, 349.5840
421.1050, 356.8608
421.5872, 369.6904
422.0693, 407.2559
422.5514, 468.2461
423.0335, 499.8203
423.5156, 461.7793
423.9977, 408.6128
424.4799, 375.5366
424.9620, 384.4922
425.4441, 392.4321
425.9262, 398.4619
426.4083, 402.1367
426.8904, 402.3481
427.3726, 397.8877
427.8547, 391.4077
428.3368, 384.9282
428.8189, 380.4785
429.3010, 364.6733
429.7831, 328.8530
430.2653, 292.5942
430.7474, 284.9121
431.2295, 313.5342
431.7116, 335.3560
432.1937, 337.4878
432.6758, 324.4585
433.1580, 319.8779
433.6401, 325.7847
434.1222, 325.1675
434.6043, 292.4604
435.0864, 236.6094
435.5685, 210.6919
436.0507, 228.3633
436.5328, 263.8818
437.0149, 285.1641
437.4970, 292.8540
437.9791, 289.5308
438.4612, 263.1240
438.9434, 232.0596
439.4255, 224.8716
439.9076, 243.9932
440.3897, 265.5625
440.8718, 272.8062
441.3539, 271.2114
441.8361, 267.3921
442.3182, 253.6992
442.8003, 248.4175
443.2824, 271.1162
443.7645, 313.8799
444.2466, 341.7310
444.7288, 330.9165
445.2109, 309.2500
445.6930, 291.5322
446.1751, 277.7998
446.6572, 271.4985
447.1393, 279.9072
447.6215, 294.3525
448.1036, 301.0308
448.5857, 294.3213
449.0678, 286.4028
449.5499, 281.4287
450.0320, 279.7720
450.5142, 268.1929
450.9963, 241.4365
451.4784, 212.0508
451.9605, 190.0259
452.4426, 176.3145
452.9247, 165.3203
453.4069, 155.7925
453.8890, 147.0264
454.3711, 139.8047
454.8532, 134.7500
455.3353, 128.2358
455.8174, 116.1367
456.2996, 98.53857
456.7817, 82.48926
457.2638, 69.07178
457.7459, 61.78271
458.2281, 60.98926
458.7102, 63.98389
459.1923, 67.46436
459.6744, 72.73535
460.1565, 75.58643
460.6386, 69.60205
461.1208, 56.36963
461.6029, 42.91357
462.0850, 37.28516
462.5671, 31.43359
463.0492, 15.20117
463.5313, 19.38721
464.0135, 43.15967
464.4956, 36.13037
464.9777, 11.62500
465.4598, 11.58789
465.9419, 38.60400
466.4240, 53.76270
466.9062, 45.64404
467.3883, 13.62158
467.8704, 8.351074
468.3525, 10.13428
468.8346, 8.176270
469.3167, 12.81934
469.7989, 34.76758
470.2810, 42.90430
470.7631, 32.57764
471.2452, 10.00391
471.7273, 13.50439
472.2094, 40.67920
472.6916, 60.76855
473.1737, 70.52490
473.6558, 70.18604
474.1379, 56.43848
474.6200, 25.47998
475.1021, 0.8286130
475.5843, 7.899902
476.0664, 44.59424
476.5485, 64.43457
477.0306, 51.96680
477.5127, 28.27295
477.9948, 25.01855
478.4770, 38.74023
478.9591, 54.33936
479.4412, 61.90332
479.9233, 66.97949
480.4054, 75.27734
480.8875, 87.05664
481.3697, 102.4551
481.8518, 131.1245
482.3339, 159.8472
482.8160, 173.4839
483.2981, 148.1875
483.7802, 126.2881
484.2624, 124.3931
484.7445, 138.5479
485.2266, 153.3818
485.7087, 169.0806
486.1908, 182.4434
486.6729, 191.3330
487.1551, 193.5293
487.6372, 198.2256
488.1193, 208.2856
488.6014, 218.8647
489.0835, 224.7930
489.5656, 225.9370
490.0478, 222.7964
490.5299, 214.5664
491.0120, 202.2925
491.4941, 189.6201
491.9762, 175.5918
492.4583, 166.0674
492.9405, 168.5054
493.4226, 180.4692
493.9047, 184.7271
494.3868, 179.2959
494.8689, 169.3848
495.3510, 157.2700
495.8332, 145.7749
496.3153, 144.1064
496.7974, 166.9185
497.2795, 192.8755
497.7616, 194.1147
498.2437, 174.4292
498.7259, 158.0923
499.2080, 165.1123
499.6901, 177.7627
500.1722, 180.3931
500.6543, 166.2412
501.1364, 155.2300
501.6186, 159.5781
502.1007, 167.9863
502.5828, 166.8096
503.0649, 136.6792
503.5470, 116.1709
504.0291, 117.5366
504.5113, 139.8770
504.9934, 161.0171
505.4755, 179.1680
505.9576, 189.5005
506.4397, 186.3110
506.9218, 165.1025
507.4040, 157.4214
507.8861, 168.9346
508.3682, 191.2983
508.8503, 213.0410
509.3324, 238.9751
509.8145, 250.4106
510.2967, 237.0845
510.7788, 210.4819
511.2609, 211.6689
511.7430, 238.3652
512.2252, 253.7612
512.7073, 210.2568
513.1894, 146.1841
513.6715, 127.8125
514.1536, 177.5835
514.6357, 236.1597
515.1179, 266.0923
515.6000, 275.3267
516.0821, 270.7949
516.5642, 235.6255
517.0463, 211.0908
517.5284, 215.0601
518.0106, 246.5645
518.4927, 272.2578
518.9748, 282.2661
519.4569, 281.5703
519.9390, 265.9653
520.4211, 218.5137
520.9033, 191.8096
521.3854, 191.4414
521.8675, 203.9033
522.3496, 209.2075
522.8317, 202.1411
523.3138, 208.4683
523.7960, 234.9229
524.2781, 275.4863
524.7602, 286.8281
525.2423, 266.1011
525.7244, 243.1226
526.2065, 233.1074
526.6887, 238.6245
527.1708, 252.5132
527.6529, 275.5635
528.1350, 293.8906
528.6171, 296.3799
529.0992, 288.6045
529.5814, 285.3330
530.0635, 296.4429
530.5456, 310.3027
531.0277, 320.9878
531.5098, 328.4263
531.9919, 332.3989
532.4741, 319.1606
532.9562, 312.2417
533.4383, 331.0405
533.9204, 388.3281
534.4025, 428.1382
534.8846, 427.2725
535.3668, 413.4004
535.8489, 412.0732
536.3310, 430.2056
536.8131, 449.8584
537.2952, 473.2065
537.7773, 496.0420
538.2595, 502.7666
538.7416, 489.1455
539.2237, 476.3652
539.7058, 474.4502
540.1879, 482.4023
540.6700, 493.5361
541.1522, 508.5107
541.6343, 520.4521
542.1164, 517.5654
542.5985, 506.0752
543.0806, 504.4395
543.5627, 521.5986
544.0449, 538.1333
544.5270, 535.4233
545.0091, 517.2715
545.4912, 492.4126
545.9733, 458.3984
546.4554, 424.2100
546.9376, 396.7974
547.4197, 376.4121
547.9018, 351.4966
548.3839, 315.3091
548.8660, 276.4238
549.3481, 240.5166
549.8303, 213.5044
550.3124, 178.9648
550.7945, 123.9712
551.2766, 69.56494
551.7587, 51.54248
552.2408, 85.37207
552.7230, 106.8828
553.2051, 96.48242
553.6872, 62.44287
554.1693, 37.65430
554.6514, 22.22607
555.1335, 14.02100
555.6157, 13.42529
556.0978, 18.89551
556.5799, 28.85498
557.0620, 44.28174
557.5441, 54.20947
558.0262, 39.67920
558.5084, 14.29248
558.9905, 1.123047
559.4726, 16.94189
559.9547, 34.69922
560.4368, 39.93408
560.9189, 35.18896
561.4011, 27.65527
561.8832, 5.117188
562.3653, 33.46387
562.8474, 0.2778320
563.3295, 18.30518
563.8116, 23.07666
564.2938, 27.26855
564.7759, 6.503418
565.2580, 14.28223
565.7401, 23.26172
566.2222, 7.418457
566.7043, 35.07275
567.1865, 5.084473
567.6686, 4.071289
568.1507, 10.16504
568.6328, 4.305664
569.1149, 9.940918
569.5970, 13.09863
570.0792, 20.22998
570.5613, 2.375488
571.0434, 17.33740
571.5255, 26.38184
572.0076, 18.65283
572.4897, 11.25830
572.9719, 5.262695
573.4540, 10.11230
573.9361, 13.31885
574.4182, 38.73096
574.9003, 5.256348
575.3824, 7.680176
575.8646, 32.56885
576.3467, 8.068848
576.8288, 26.34277
577.3109, 33.99756
577.7930, 21.52930
578.2751, 30.09668
578.7573, 5.565430
579.2394, 12.95557
579.7215, 23.20264
580.2036, 21.01709
580.6857, 54.11035
581.1678, 21.82129
581.6500, 34.24023
582.1321, 24.47266
582.6142, 9.691406
583.0963, 33.47412
583.5784, 16.46240
584.0605, 62.75342
584.5427, 56.11816
585.0248, 55.21436
585.5069, 20.48242
585.9890, 66.54932
586.4711, 61.46338
586.9532, 34.61621
587.4354, 25.26172
587.9175, 6.189941
588.3996, 11.09277
588.8817, 26.29590
589.3638, 38.86523
589.8459, 42.67480
590.3281, 49.09766
590.8102, 69.21582
591.2923, 111.0698
591.7744, 140.1426
592.2565, 151.6694
592.7386, 151.9473
593.2208, 149.0420
593.7029, 142.9438
594.1850, 143.5532
594.6671, 158.0366
595.1492, 179.0386
595.6313, 189.3672
596.1135, 190.8589
596.5956, 196.2295
597.0777, 218.2959
597.5598, 246.1987
598.0419, 269.2339
598.5240, 286.5039
599.0062, 299.6206
599.4883, 306.9878
599.9704, 312.0513
600.4525, 317.9077
600.9346, 325.3794
601.4167, 333.1387
601.8989, 342.4922
602.3810, 351.4199
602.8631, 355.2417
603.3452, 348.2363
603.8273, 350.0024
604.3094, 370.5518
604.7916, 404.2656
605.2737, 419.7764
605.7558, 416.4126
606.2379, 402.9736
606.7200, 376.3965
607.2021, 344.7046
607.6843, 332.2256
608.1664, 341.3569
608.6485, 357.6416
609.1306, 378.9048
609.6127, 396.0103
610.0948, 395.8677
610.5770, 359.4570
611.0591, 330.3208
611.5412, 335.4604
612.0233, 359.4800
612.5054, 374.2729
612.9875, 362.5771
613.4697, 354.7153
613.9518, 357.9927
614.4339, 371.3315
614.9160, 388.8340
615.3981, 417.3496
615.8802, 433.8335
616.3624, 414.7109
616.8445, 359.6196
617.3266, 348.5757
617.8087, 386.4155
618.2908, 437.0879
618.7729, 467.4756
619.2551, 481.9736
619.7372, 489.4214
620.2193, 486.8799
620.7014, 490.2515
621.1835, 512.7666
621.6656, 545.8862
622.1478, 573.2397
622.6299, 592.5273
623.1120, 608.6016
623.5941, 623.2925
624.0762, 639.1367
624.5583, 651.4014
625.0405, 662.0767
625.5226, 674.5342
626.0047, 688.1416
626.4868, 699.3096
626.9689, 737.1772
627.4510, 814.4521
627.9332, 890.7793
628.4153, 922.8208
628.8974, 916.7197
629.3795, 929.1211
629.8616, 970.7788
630.3438, 1030.560
630.8259, 1097.556
631.3080, 1169.952
631.7901, 1239.210
632.2722, 1300.088
632.7543, 1359.269
633.2365, 1406.726
633.7186, 1447.518
634.2007, 1506.218
634.6828, 1596.385
635.1649, 1692.542
635.6470, 1783.405
636.1292, 1867.658
636.6113, 1964.633
637.0934, 2072.689
637.5755, 2189.654
638.0576, 2315.898
638.5397, 2449.733
639.0219, 2598.043
639.5040, 2762.022
639.9861, 2927.828
640.4682, 3073.938
640.9503, 3203.583
641.4324, 3344.234
641.9146, 3496.531
642.3967, 3660.927
642.8788, 3841.932
643.3609, 4032.688
643.8430, 4214.681
644.3251, 4375.818
644.8073, 4538.217
645.2894, 4712.691
645.7715, 4897.853
646.2536, 5073.983
646.7357, 5246.833
647.2178, 5403.258
647.7000, 5539.488
648.1821, 5654.261
648.6642, 5758.657
649.1463, 5852.356
649.6284, 5936.620
650.1105, 6018.665
650.5927, 6095.225
651.0748, 6132.038
651.5569, 6121.974
652.0390, 6089.565
652.5211, 6068.640
653.0032, 6044.698
653.4854, 5988.959
653.9675, 5886.416
654.4496, 5758.307
654.9317, 5611.402
655.4138, 5449.692
655.8959, 5278.015
656.3781, 5088.880
656.8602, 4903.527
657.3423, 4732.084
657.8244, 4571.988
658.3065, 4398.982
658.7886, 4207.870
659.2708, 4015.960
659.7529, 3826.886
660.2350, 3640.641
660.7171, 3481.366
661.1992, 3350.886
661.6813, 3226.972
662.1635, 3088.345
662.6456, 2943.271
663.1277, 2810.321
663.6099, 2692.420
664.0920, 2584.064
664.5741, 2477.275
665.0562, 2377.552
665.5383, 2291.842
666.0204, 2231.365
666.5026, 2174.082
666.9847, 2117.804
667.4668, 2060.552
667.9489, 1997.933
668.4310, 1914.274
668.9131, 1854.589
669.3953, 1838.286
669.8774, 1852.608
670.3595, 1840.426
670.8416, 1799.610
671.3237, 1753.453
671.8058, 1705.860
672.2880, 1663.777
672.7701, 1646.202
673.2522, 1652.809
673.7343, 1667.197
674.2164, 1684.782
674.6985, 1698.462
675.1807, 1697.416
675.6628, 1675.048
676.1449, 1662.501
676.6270, 1678.770
677.1091, 1702.828
677.5912, 1714.428
678.0734, 1703.485
678.5555, 1697.565
679.0376, 1698.282
679.5197, 1704.675
680.0018, 1717.827
680.4839, 1738.500
680.9661, 1749.116
681.4482, 1741.248
681.9303, 1725.938
682.4124, 1723.329
682.8945, 1731.193
683.3766, 1740.416
683.8588, 1752.745
684.3409, 1759.806
684.8230, 1750.804
685.3051, 1728.471
685.7872, 1712.017
686.2693, 1729.209
686.7515, 1734.552
687.2336, 1697.230
687.7157, 1607.154
688.1978, 1548.490
688.6799, 1534.726
689.1620, 1529.931
689.6442, 1507.266
690.1263, 1466.509
690.6084, 1423.002
691.0905, 1378.371
691.5726, 1331.046
692.0547, 1280.487
692.5369, 1226.339
693.0190, 1166.541
693.5011, 1094.899
693.9832, 1027.887
694.4653, 983.6763
694.9474, 951.0781
695.4296, 910.5938
695.9117, 852.3110
696.3938, 791.0454
696.8759, 723.8271
697.3580, 656.7358
697.8401, 609.3931
698.3223, 589.3638
698.8044, 567.1167
699.2865, 528.8047
699.7686, 481.8940
700.2507, 465.1992
700.7328, 478.1885
701.2150, 489.5684
701.6971, 469.6152
702.1792, 438.9365
702.6613, 434.1104
703.1434, 455.5796
703.6255, 470.0054
704.1077, 445.0479
704.5898, 414.4858
705.0719, 403.8623
705.5540, 422.9873
706.0361, 443.3848
706.5182, 469.5029
707.0004, 490.4448
707.4825, 494.1084
707.9646, 474.3618
708.4467, 468.9209
708.9288, 484.9248
709.4109, 506.5645
709.8931, 508.7817
710.3752, 496.0991
710.8573, 488.7197
711.3394, 494.5356
711.8215, 503.2373
712.3036, 503.4292
712.7858, 498.8701
713.2679, 497.0308
713.7500, 500.2427
714.2321, 507.0190
714.7142, 527.3145
715.1964, 552.7393
715.6785, 547.3267
716.1606, 493.4785
716.6427, 439.5137
717.1248, 400.4062
717.6069, 374.6226
718.0891, 351.3037
718.5712, 331.2471
719.0533, 310.6343
719.5354, 286.0645
720.0175, 261.6899
720.4996, 248.6816
720.9818, 246.6562
721.4639, 238.4614
721.9460, 203.3145
722.4281, 165.7246
722.9102, 146.5605
723.3923, 154.1641
723.8745, 157.3354
724.3566, 153.5894
724.8387, 140.1992
725.3208, 113.3652
725.8029, 65.62402
726.2850, 36.50781
726.7672, 31.47852
727.2493, 35.09814
727.7314, 23.62354
728.2135, 1.974121
728.6956, 4.385742
729.1777, 17.13037
729.6599, 38.15137
730.1420, 22.01367
730.6241, 12.09570
731.1062, 32.37451
731.5883, 7.294434
732.0704, 11.22949
732.5526, 1.252441
733.0347, 31.20947
733.5168, 40.07666
733.9989, 15.01611
734.4810, 5.005859
734.9631, 10.52979
735.4453, 4.241211
735.9274, 7.174805
736.4095, 23.29395
736.8916, 34.03711
737.3737, 30.62354
737.8558, 21.22412
738.3380, 17.43408
738.8201, 18.32275
739.3022, 18.92139
739.7843, 16.82812
740.2664, 13.11816
740.7485, 6.667480
741.2307, 2.762207
741.7128, 1.586914
742.1949, 21.39355
742.6770, 40.75049
743.1591, 40.39893
743.6412, 17.66504
744.1234, 4.515137
744.6055, 1.580566
745.0876, 4.647949
745.5697, 14.72070
746.0518, 27.39355
746.5339, 31.03711
747.0161, 23.44727
747.4982, 12.93896
747.9803, 2.513672
748.4624, 13.78174
748.9445, 9.808105
749.4266, 25.81641
749.9088, 50.18115
750.3909, 56.60303
750.8730, 50.75098
751.3551, 34.84668
751.8372, 3.811523
752.3193, 16.13672
752.8015, 21.01074
753.2836, 15.68506
753.7657, 1.119141
754.2478, 19.23193
754.7299, 29.83203
755.2120, 22.93604
755.6942, 8.679688
756.1763, 8.571289
756.6584, 26.00928
757.1405, 38.10205
757.6226, 37.46680
758.1047, 36.87842
758.5869, 39.01611
759.0690, 43.65527
759.5511, 49.12207
760.0332, 53.39404
760.5153, 63.17383
760.9974, 84.85205
761.4796, 110.6768
761.9617, 115.2769
762.4438, 101.4741
762.9259, 86.72900
763.4080, 75.99609
763.8901, 71.37061
764.3723, 81.82373
764.8544, 103.7373
765.3365, 116.2305
765.8186, 104.0259
766.3007, 87.47852
766.7828, 72.09375
767.2650, 58.18945
767.7471, 59.11670
768.2292, 80.99365
768.7113, 100.8291
769.1934, 106.5337
769.6755, 99.19385
770.1577, 80.80176
770.6398, 51.33008
771.1219, 31.61084
771.6040, 52.18408
772.0861, 83.10254
772.5682, 87.38379
773.0504, 59.60791
773.5325, 38.30176
774.0146, 50.55273
774.4967, 64.58398
774.9788, 55.58691
775.4609, 10.87354
775.9431, 8.282227
776.4252, 4.952148
776.9073, 28.74316
777.3894, 49.36670
777.8715, 65.51465
778.3536, 63.94629
778.8358, 41.60986
779.3179, 15.48633
779.8000, 2.008301
780.2821, 12.30908
780.7642, 17.44043
781.2463, 19.03271
781.7285, 11.78857
782.2106, 16.99170
782.6927, 49.27197
783.1748, 66.60449
783.6569, 61.21045
784.1390, 60.19775
784.6212, 66.51855
785.1033, 74.08643
785.5854, 72.68896
786.0675, 64.33398
786.5496, 61.45801
787.0317, 68.46533
787.5139, 76.33350
787.9960, 73.52588
788.4781, 66.53418
788.9602, 64.90576
789.4423, 87.03955
789.9244, 97.52979
790.4066, 77.63770
790.8887, 45.29736
791.3708, 26.37939
791.8529, 25.78271
792.3350, 29.27588
792.8171, 36.31494
793.2993, 42.92188
793.7814, 38.45068
794.2635, 25.70361
794.7456, 19.21387
795.2277, 27.94873
795.7098, 39.16064
796.1920, 42.66113
796.6741, 40.05371
797.1562, 34.60156
797.6383, 18.92822
798.1204, 11.07080
798.6025, 18.03320
799.0847, 33.79492
799.5668, 44.95898
800.0489, 49.39307
800.5310, 55.02441
801.0131, 67.42627
801.4952, 81.05908
801.9774, 77.81348
802.4595, 61.67627
802.9416, 48.87988
803.4237, 49.01123
803.9058, 52.31787
804.3879, 54.39502
804.8701, 55.76367
805.3522, 56.43945
805.8343, 55.89209
806.3164, 55.04297
806.7985, 53.21387
807.2806, 50.23486
807.7628, 51.70410
808.2449, 59.33838
808.7270, 63.62988
809.2091, 60.69678
809.6912, 53.78516
810.1733, 41.06738
810.6555, 25.86475
811.1376, 19.64746
811.6197, 38.80518
812.1018, 56.77588
812.5839, 60.21924
813.0660, 51.65186
813.5482, 42.03564
814.0303, 29.45068
814.5124, 20.27734
814.9945, 17.79834
815.4766, 20.11670
815.9587, 15.43604
816.4409, 4.993164
816.9230, 7.779297
817.4051, 50.50586
817.8872, 99.14746
818.3693, 113.7783
818.8514, 100.8774
819.3336, 80.17920
819.8157, 43.11670
820.2978, 16.35205
820.7799, 17.67822
821.2620, 40.23779
821.7441, 49.91846
822.2263, 42.05957
822.7084, 36.91553
823.1905, 44.63281
823.6726, 59.46973
824.1547, 61.51074
824.6368, 53.08057
825.1190, 49.33350
825.6011, 67.97266
826.0832, 86.77441
826.5653, 83.36865
827.0474, 62.69629
827.5295, 52.81836
828.0117, 69.59717
828.4938, 87.85840
828.9760, 104.7969
829.4581, 118.2686
829.9402, 113.3501
830.4223, 88.84033
830.9044, 61.96387
831.3865, 34.58154
831.8687, 14.14941
832.3508, 18.86035
832.8329, 43.35596
833.3150, 64.42090
833.7971, 74.88818
834.2792, 77.21094
834.7614, 66.76270
835.2435, 45.42090
835.7256, 33.16797
836.2077, 32.57324
836.6898, 35.58398
837.1719, 39.05615
837.6541, 43.00195
838.1362, 51.66357
838.6183, 64.27588
839.1004, 68.69482
839.5825, 51.65771
840.0646, 33.84326
840.5468, 33.93750
841.0289, 47.58691
841.5110, 61.85840
841.9931, 76.03125
842.4752, 83.77588
842.9573, 83.46240
843.4395, 76.48340
843.9216, 67.37549
844.4037, 55.91064
844.8858, 46.85449
845.3679, 42.42920
845.8500, 43.30029
846.3322, 56.27930
846.8143, 76.50732
847.2964, 88.17236
847.7785, 76.89844
848.2606, 62.02490
848.7427, 48.87354
849.2249, 38.85107
849.7070, 37.70068
850.1891, 53.70459
850.6712, 61.03027
851.1533, 50.49512
851.6354, 30.10254
852.1176, 20.48779
852.5997, 20.63623
853.0818, 24.01611
853.5639, 29.40332
854.0460, 34.47900
854.5281, 36.23438
855.0103, 36.14551
855.4924, 37.10889
855.9745, 40.15283
856.4566, 45.52832
856.9387, 57.29883
857.4208, 69.00195
857.9030, 64.76660
858.3851, 42.73047
858.8672, 27.86084
859.3493, 27.92139
859.8314, 34.43311
860.3135, 36.84424
860.7957, 36.10107
861.2778, 34.33154
861.7599, 29.96729
862.2420, 27.85352
862.7241, 30.88379
863.2062, 36.88379
863.6884, 42.49707
864.1705, 48.62451
864.6526, 51.98975
865.1347, 52.70801
865.6168, 49.41260
866.0989, 33.05664
866.5811, 9.972656
867.0632, 6.476563
867.5453, 36.64453
868.0274, 63.62744
868.5095, 53.91064
868.9916, 29.31787
869.4738, 15.44482
869.9559, 26.45850
870.4380, 34.46973
870.9201, 40.11621
871.4022, 41.87109
871.8843, 36.81689
872.3665, 25.45068
872.8486, 13.78613
873.3307, 2.379883
873.8128, 7.517578
874.2949, 19.51709
874.7770, 26.61377
875.2592, 17.12988
875.7413, 16.66309
876.2234, 41.58643
876.7055, 46.35303
877.1876, 42.01953
877.6697, 31.73779
878.1519, 12.14209
878.6340, 10.27051
879.1161, 28.76270
879.5982, 48.79785
880.0803, 54.77051
880.5624, 51.14453
881.0446, 42.40332
881.5267, 29.02539
882.0088, 21.28955
882.4909, 31.91260
882.9730, 42.65820
883.4551, 41.35742
883.9373, 27.12939
884.4194, 19.07910
884.9015, 17.84473
885.3836, 20.29932
885.8657, 27.97412
886.3478, 37.65625
886.8300, 38.49658
887.3121, 31.82129
887.7942, 26.70459
888.2763, 30.06641
888.7584, 34.97119
889.2405, 37.33691
889.7227, 36.98584
890.2048, 37.12109
890.6869, 39.37012
891.1690, 38.89600
891.6511, 32.51416
892.1332, 22.77051
892.6154, 17.11816
893.0975, 15.12012
893.5796, 15.53906
894.0617, 23.94385
894.5438, 29.73682
895.0259, 16.97656
895.5081, 5.943848
895.9902, 16.75488
896.4723, 2.968750
896.9544, 15.84277
897.4365, 15.58984
897.9186, 7.330078
898.4008, 2.801758
898.8829, 13.52637
899.3650, 9.197754
899.8471, 22.02393
900.3292, 51.52246
900.8113, 38.52637
901.2935, 8.237793
901.7756, 3.633789
902.2577, 29.34766
902.7398, 52.31738
903.2219, 56.90137
903.7040, 53.14648
904.1862, 48.12354
904.6683, 41.76221
905.1504, 45.25195
905.6325, 58.37500
906.1146, 81.46338
906.5967, 129.4961
907.0789, 180.5874
907.5610, 203.2710
908.0431, 189.0640
908.5252, 170.9478
909.0073, 143.6611
909.4894, 128.5479
909.9716, 142.6475
910.4537, 189.5806
910.9358, 209.7134
911.4179, 200.6050
911.9000, 191.4917
912.3821, 207.5103
912.8643, 234.8911
913.3464, 251.0552
913.8285, 257.3008
914.3106, 270.9009
914.7927, 315.7920
915.2748, 351.6733
915.7570, 355.7974
916.2391, 335.9365
916.7212, 337.4209
917.2033, 363.3081
917.6854, 390.7847
918.1675, 411.1279
918.6497, 427.2598
919.1318, 438.6001
919.6139, 449.5586
920.0960, 471.9111
920.5781, 517.3618
921.0602, 567.3394
921.5424, 623.0913
922.0245, 676.6680
922.5066, 710.4600
922.9887, 716.0562
923.4708, 743.2974
923.9529, 805.8862
924.4351, 874.8896
924.9172, 903.7783
925.3993, 911.5220
925.8814, 936.1406
926.3635, 991.2822
926.8456, 1050.451
927.3278, 1108.113
927.8099, 1159.787
928.2920, 1201.497
928.7741, 1230.131
929.2562, 1263.717
929.7383, 1306.348
930.2205, 1337.279
930.7026, 1328.729
931.1847, 1297.943
931.6668, 1279.924
932.1489, 1275.986
932.6310, 1269.771
933.1132, 1264.255
933.5953, 1246.182
934.0774, 1198.560
934.5595, 1124.620
935.0416, 1071.033
935.5237, 1041.205
936.0059, 1012.157
936.4880, 974.6177
936.9701, 930.3926
937.4522, 882.7871
937.9343, 830.5503
938.4164, 772.0771
938.8986, 694.0635
939.3807, 622.1021
939.8628, 565.5254
940.3449, 521.5479
940.8270, 488.2051
941.3091, 468.6377
941.7913, 445.1929
942.2734, 414.7646
942.7555, 379.1479
943.2376, 333.7959
943.7197, 285.7285
944.2018, 249.8242
944.6840, 233.3022
945.1661, 217.6719
945.6482, 195.2231
946.1303, 170.6816
946.6124, 146.8657
947.0945, 122.5166
947.5767, 107.9453
948.0588, 105.2212
948.5409, 100.5181
949.0230, 75.76855
949.5051, 44.68506
949.9872, 33.38086
950.4694, 41.18506
950.9515, 42.12207
951.4336, 13.03271
951.9157, 12.12695
952.3978, 17.68359
952.8799, 7.261719
953.3621, 0.7011720
953.8442, 1.717285
954.3263, 3.606934
954.8084, 3.813965
955.2905, 3.677246
955.7726, 7.968750
956.2548, 12.90088
956.7369, 10.57861
957.2190, 7.849121
957.7011, 23.78418
958.1832, 37.76562
958.6653, 46.37598
959.1475, 44.47559
959.6296, 32.33350
960.1117, 10.32812
960.5938, 24.04785
961.0759, 47.98926
961.5580, 27.84375
962.0402, 10.22119
962.5223, 35.65332
963.0044, 42.59717
963.4865, 43.18555
963.9686, 34.01318
964.4507, 26.01270
964.9329, 25.57812
965.4150, 31.86328
965.8971, 38.09521
966.3792, 44.00439
966.8613, 43.49609
967.3434, 25.76855
967.8256, 5.680664
968.3077, 2.073242
968.7898, 0.3515630
969.2719, 0.2368160
969.7540, 2.962402
970.2361, 5.984863
970.7183, 7.883301
971.2004, 9.507813
971.6825, 10.31104
972.1646, 11.66943
972.6467, 22.68799
973.1288, 49.79248
973.6110, 73.62256
974.0931, 72.85352
974.5752, 64.41260
975.0573, 67.03857
975.5394, 88.20166
976.0215, 104.8794
976.5037, 115.2568
976.9858, 126.2900
977.4679, 148.3076
977.9500, 175.0547
978.4321, 184.9355
978.9142, 178.4424
979.3964, 168.2695
979.8785, 154.9839
980.3606, 146.6411
980.8427, 150.5190
981.3248, 163.8936
981.8069, 174.8433
982.2891, 183.7212
982.7712, 189.0337
983.2533, 188.2822
983.7354, 187.5073
984.2175, 200.0649
984.6996, 219.5244
985.1818, 232.1553
985.6639, 228.8633
986.1460, 226.0659
986.6281, 229.5640
987.1102, 234.6401
987.5923, 235.8291
988.0745, 231.9526
988.5566, 237.5503
989.0387, 254.0000
989.5208, 270.1831
990.0029, 271.3813
990.4850, 270.0879
990.9672, 285.1489
991.4493, 316.8828
991.9314, 336.1035
992.4135, 323.3203
992.8957, 315.4614
993.3778, 325.6943
993.8599, 348.3994
994.3420, 364.7900
994.8242, 375.3848
995.3063, 383.9634
995.7884, 391.6187
996.2705, 398.6255
996.7526, 401.8159
997.2347, 405.6528
997.7169, 418.0703
998.1990, 449.2261
998.6811, 467.7363
999.1632, 469.3154
999.6453, 467.1294
1000.127, 477.6934
1000.610, 494.7852
1001.092, 494.5098
1001.574, 475.4146
1002.056, 476.5718
1002.538, 543.1582
1003.020, 613.5459
1003.502, 654.5366
1003.984, 668.7358
1004.466, 670.5356
1004.949, 655.9932
1005.431, 661.3154
1005.913, 706.2974
1006.395, 771.1924
1006.877, 833.0044
1007.359, 892.2988
1007.841, 950.9946
1008.323, 1003.634
1008.806, 1063.892
1009.288, 1137.354
1009.770, 1212.256
1010.252, 1282.667
1010.734, 1348.411
1011.216, 1400.116
1011.698, 1437.163
1012.180, 1463.052
1012.662, 1470.507
1013.145, 1475.815
1013.627, 1497.110
1014.109, 1534.420
1014.591, 1551.278
1015.073, 1535.221
1015.555, 1526.347
1016.037, 1538.824
1016.519, 1567.759
1017.002, 1611.245
1017.484, 1662.470
1017.966, 1699.235
1018.448, 1700.957
1018.930, 1706.448
1019.412, 1726.114
1019.894, 1761.237
1020.376, 1815.835
1020.858, 1894.769
1021.341, 1964.017
1021.823, 2022.292
1022.305, 2079.152
1022.787, 2144.020
1023.269, 2210.647
1023.751, 2269.645
1024.233, 2321.917
1024.715, 2381.263
1025.198, 2455.212
1025.680, 2533.141
1026.162, 2613.787
1026.644, 2693.458
1027.126, 2769.673
1027.608, 2839.962
1028.090, 2890.109
1028.572, 2910.370
1029.054, 2922.074
1029.536, 2939.846
1030.019, 2955.232
1030.501, 2961.291
1030.983, 2964.421
1031.465, 2932.574
1031.947, 2862.154
1032.429, 2777.513
1032.911, 2696.947
1033.393, 2615.691
1033.876, 2523.009
1034.358, 2420.165
1034.840, 2316.950
1035.322, 2207.827
1035.804, 2110.082
1036.286, 2028.295
1036.768, 1957.595
1037.250, 1888.190
1037.733, 1819.988
1038.215, 1758.438
1038.697, 1703.210
1039.179, 1657.146
1039.661, 1620.632
1040.143, 1593.860
1040.625, 1577.140
1041.107, 1571.037
1041.589, 1572.780
1042.072, 1583.715
1042.554, 1598.045
1043.036, 1614.639
1043.518, 1630.936
1044.000, 1632.778
1044.482, 1628.798
1044.964, 1647.605
1045.446, 1735.046
1045.928, 1804.091
1046.411, 1823.239
1046.893, 1820.708
1047.375, 1836.898
1047.857, 1870.926
1048.339, 1900.609
1048.821, 1924.031
1049.303, 1931.583
1049.785, 1897.134
1050.268, 1856.973
1050.750, 1850.042
1051.232, 1882.668
1051.714, 1873.700
1052.196, 1807.777
1052.678, 1744.898
1053.160, 1714.032
1053.642, 1694.424
1054.125, 1642.983
1054.607, 1569.633
1055.089, 1497.524
1055.571, 1424.205
1056.053, 1371.919
1056.535, 1361.640
1057.017, 1361.643
1057.499, 1343.583
1057.981, 1307.793
1058.464, 1284.100
1058.946, 1273.352
1059.428, 1262.477
1059.910, 1229.875
1060.392, 1203.689
1060.874, 1218.100
1061.356, 1264.206
1061.838, 1283.082
1062.320, 1260.231
1062.803, 1251.414
1063.285, 1276.562
1063.767, 1305.123
1064.249, 1273.123
1064.731, 1216.118
1065.213, 1210.519
1065.695, 1290.765
1066.177, 1335.701
1066.660, 1282.258
1067.142, 1214.220
1067.624, 1176.106
1068.106, 1161.679
1068.588, 1122.354
1069.070, 1062.257
1069.552, 1010.164
1070.034, 994.5718
1070.516, 977.2119
1070.999, 932.4072
1071.481, 870.5117
1071.963, 809.7109
1072.445, 748.0132
1072.927, 701.4072
1073.409, 672.7539
1073.891, 647.0469
1074.373, 605.4404
1074.855, 560.6826
1075.338, 535.9819
1075.820, 530.9902
1076.302, 517.5967
1076.784, 480.1641
1077.266, 444.6313
1077.748, 418.9600
1078.230, 400.8145
1078.713, 385.5391
1079.195, 371.9644
1079.677, 356.0088
1080.159, 335.0151
1080.641, 316.3564
1081.123, 308.9692
1081.605, 302.5366
1082.087, 287.7920
1082.569, 263.8086
1083.052, 244.8135
1083.534, 230.7207
1084.016, 220.3467
1084.498, 213.6279
1084.980, 209.6602
1085.462, 205.1948
1085.944, 202.8623
1086.426, 210.5386
1086.908, 240.0503
1087.391, 255.0845
1087.873, 251.3848
1088.355, 236.8701
1088.837, 214.6304
1089.319, 188.9595
1089.801, 172.3062
1090.283, 166.0010
1090.765, 162.8032
1091.248, 164.9502
1091.730, 163.6079
1092.212, 155.1914
1092.694, 142.2070
1093.176, 131.6001
1093.658, 122.0288
1094.140, 107.7188
1094.622, 84.73340
1095.104, 67.81445
1095.587, 67.17432
1096.069, 72.36914
1096.551, 78.35303
1097.033, 85.88428
1097.515, 87.72656
1097.997, 82.58936
1098.479, 78.05078
1098.961, 83.30469
1099.443, 87.70947
1099.926, 76.82617
1100.408, 55.81836
1100.890, 35.65137
1101.372, 13.91895
1101.854, 2.078125
1102.336, 4.158203
1102.818, 8.504395
1103.300, 0.2104490
1103.783, 14.54834
1104.265, 16.73535
1104.747, 6.466797
1105.229, 3.229980
1105.711, 12.72559
1106.193, 13.40283
1106.675, 0.8925780
1107.157, 21.03369
1107.640, 27.77441
1108.122, 23.55469
1108.604, 18.07471
1109.086, 13.43066
1109.568, 7.631348
1110.050, 6.115723
1110.532, 16.72607
1111.014, 12.04688
1111.496, 7.464844
1111.979, 13.51953
1112.461, 5.970215
1112.943, 5.235840
1113.425, 17.49121
1113.907, 27.72070
1114.389, 31.93750
1114.871, 31.89404
1115.353, 30.98242
1115.835, 34.15967
1116.318, 24.69629
1116.800, 2.873535
1117.282, 24.86328
1117.764, 11.88477
1118.246, 14.74268
1118.728, 10.44434
1119.210, 18.04297
1119.692, 35.47363
1120.175, 16.56885
1120.657, 2.465332
1121.139, 0.3857420
1121.621, 5.349609
1122.103, 13.34814
1122.585, 22.20117
1123.067, 24.09131
1123.549, 17.93262
1124.031, 7.877930
1124.514, 11.87549
1124.996, 26.06055
1125.478, 26.45361
1125.960, 16.11328
1126.442, 3.681641
1126.924, 10.23877
1127.406, 17.50488
1127.888, 14.70850
1128.370, 7.411133
1128.853, 8.113770
1129.335, 20.58789
1129.817, 15.09814
1130.299, 11.14697
1130.781, 22.39600
1131.263, 17.83398
1131.745, 4.515137
1132.227, 25.09521
1132.710, 49.48877
1133.192, 33.24854
1133.674, 2.800781
1134.156, 18.55469
1134.638, 3.428223
1135.120, 24.36084
1135.602, 45.80078
1136.084, 56.67725
1136.567, 36.21240
1137.049, 3.937500
1137.531, 8.415039
1138.013, 1.565430
1138.495, 13.19092
1138.977, 50.38965
1139.459, 67.52148
1139.941, 50.85303
1140.423, 22.75000
1140.906, 17.63428
1141.388, 28.26953
1141.870, 33.23291
1142.352, 29.44775
1142.834, 32.27734
1143.316, 60.80127
1143.798, 83.86816
1144.280, 90.59570
1144.762, 82.68848
1145.245, 55.98145
1145.727, 15.87646
1146.209, 4.792969
1146.691, 6.009277
1147.173, 24.93604
1147.655, 48.19043
1148.137, 64.76270
1148.619, 65.27002
1149.102, 50.45703
1149.584, 35.08740
1150.066, 19.55566
1150.548, 12.50195
1151.030, 27.43018
1151.512, 39.27881
1151.994, 17.83496
1152.476, 12.44678
1152.958, 18.21387
1153.441, 10.66895
1153.923, 22.52148
1154.405, 15.91162
1154.887, 9.416504
1155.369, 15.50684
1155.851, 29.40576
1156.333, 54.39551
1156.815, 83.21387
1157.297, 91.18750
1157.780, 65.42725
1158.262, 53.73535
1158.744, 62.78271
1159.226, 77.61475
1159.708, 82.54688
1160.190, 83.90723
1160.672, 94.16064
1161.154, 112.0068
1161.637, 116.1265
1162.119, 97.90967
1162.601, 77.89600
1163.083, 59.14404
1163.565, 41.66797
1164.047, 20.36475
1164.529, 2.345215
1165.011, 3.382813
1165.494, 28.45752
1165.976, 49.45898
1166.458, 55.70508
1166.940, 63.40479
1167.422, 81.96484
1167.904, 102.0044
1168.386, 90.43164
1168.868, 60.88184
1169.350, 53.28857
1169.833, 91.06836
1170.315, 114.7700
1170.797, 88.31641
1171.279, 59.40820
1171.761, 53.39990
1172.243, 66.05957
1172.725, 81.54248
1173.207, 97.75879
1173.689, 105.1895
1174.172, 97.85205
1174.654, 83.49854
1175.136, 50.91064
1175.618, 24.73926
1176.100, 28.35254
1176.582, 59.50684
1177.064, 72.53955
1177.546, 69.20654
1178.029, 72.43018
1178.511, 105.4272
1178.993, 134.3809
1179.475, 141.0918
1179.957, 133.1357
1180.439, 115.4897
1180.921, 88.23145
1181.403, 80.87256
1181.885, 95.42822
1182.368, 108.0967
1182.850, 94.03076
1183.332, 78.25977
1183.814, 78.16406
1184.296, 88.29297
1184.778, 94.50977
1185.260, 97.13867
1185.742, 97.36182
1186.224, 95.14307
1186.707, 94.88135
1187.189, 108.4136
1187.671, 116.9121
1188.153, 95.29834
1188.635, 51.43848
1189.117, 34.15186
1189.599, 45.66357
1190.081, 67.11279
1190.564, 98.40967
1191.046, 118.3779
1191.528, 88.35059
1192.010, 47.15576
1192.492, 40.43652
1192.974, 69.98535
1193.456, 83.19629
1193.938, 77.47754
1194.421, 78.23877
1194.903, 99.49219
1195.385, 119.7334
1195.867, 114.1318
1196.349, 96.42383
1196.831, 82.29297
1197.313, 73.53857
1197.795, 65.22559
1198.277, 55.89844
1198.760, 56.30664
1199.242, 83.38525
1199.724, 109.2500
1200.206, 86.51660
1200.688, 44.30615
1201.170, 35.28809
1201.652, 84.20605
1202.134, 105.5684
1202.616, 95.38037
1203.099, 78.46240
1203.581, 68.43115
1204.063, 62.45068
1204.545, 63.74609
1205.027, 68.05127
1205.509, 64.38965
1205.991, 44.09814
1206.473, 36.79199
1206.956, 45.86279
1207.438, 58.15234
1207.920, 69.75391
1208.402, 72.80566
1208.884, 48.89502
1209.366, 7.626465
1209.848, 14.74268
1210.330, 13.06934
1210.813, 0.2265630
1211.295, 28.90576
1211.777, 56.50195
1212.259, 63.68457
1212.741, 61.32861
1213.223, 62.31104
1213.705, 67.11377
1214.187, 72.65723
1214.669, 82.02490
1215.151, 78.69531
1215.634, 55.01807
1216.116, 34.62451
1216.598, 53.49463
1217.080, 86.84668
1217.562, 102.1182
1218.044, 96.97559
1218.526, 95.22217
1219.008, 98.00342
1219.491, 106.5610
1219.973, 123.7598
1220.455, 138.2764
1220.937, 124.5498
1221.419, 104.6934
1221.901, 114.4775
1222.383, 160.4829
1222.865, 170.5923
1223.348, 131.5928
1223.830, 101.7314
1224.312, 102.3872
1224.794, 114.7827
1225.276, 118.2515
1225.758, 113.8599
1226.240, 100.1309
1226.722, 74.43359
1227.204, 57.89697
1227.687, 52.42578
1228.169, 48.60986
1228.651, 41.60205
1229.133, 36.51660
1229.615, 41.13135
1230.097, 51.92676
1230.579, 66.93896
1231.061, 91.20166
1231.543, 85.14502
1232.026, 41.46191
1232.508, 7.244629
1232.990, 9.523926
1233.472, 27.32227
1233.954, 43.65430
1234.436, 55.64648
1234.918, 54.51807
1235.400, 34.05859
1235.883, 26.36035
1236.365, 32.92871
1236.847, 40.02148
1237.329, 40.10303
1237.811, 36.82617
1238.293, 30.05469
1238.775, 24.75830
1239.257, 30.84229
1239.740, 53.65771
1240.222, 67.77100
1240.704, 72.91211
1241.186, 73.73340
1241.668, 73.16357
1242.150, 69.64453
1242.632, 58.97900
1243.114, 46.25977
1243.596, 40.59668
1244.079, 43.36426
1244.561, 54.49414
1245.043, 74.86865
1245.525, 81.58887
1246.007, 39.10400
1246.489, 4.006348
1246.971, 8.982422
1247.453, 10.85205
1247.936, 29.41895
1248.418, 48.11865
1248.900, 54.06641
1249.382, 46.48145
1249.864, 42.05322
1250.346, 57.84570
1250.828, 74.90479
1251.310, 84.67285
1251.792, 85.96436
1252.275, 69.71240
1252.757, 39.28076
1253.239, 34.83936
1253.721, 56.57080
1254.203, 74.58838
1254.685, 61.31592
1255.167, 47.92578
1255.649, 56.42480
1256.131, 71.41016
1256.614, 62.92627
1257.096, 35.20996
1257.578, 25.60498
1258.060, 37.44531
1258.542, 49.98096
1259.024, 49.11084
1259.506, 48.80566
1259.988, 55.50439
1260.471, 64.62646
1260.953, 68.71582
1261.435, 68.03809
1261.917, 62.29004
1262.399, 51.83496
1262.881, 45.49951
1263.363, 51.72266
1263.845, 55.44629
1264.328, 53.38525
1264.810, 49.23291
1265.292, 50.86963
1265.774, 55.56201
1266.256, 51.66406
1266.738, 37.78027
1267.220, 36.08398
1267.702, 66.46436
1268.184, 87.84766
1268.667, 88.75391
1269.149, 79.98047
1269.631, 80.41895
1270.113, 83.37793
1270.595, 71.48096
1271.077, 42.50732
1271.559, 34.85498
1272.041, 62.05713
1272.523, 75.93994
1273.006, 60.80469
1273.488, 37.17822
1273.970, 34.32959
1274.452, 41.09766
1274.934, 43.31299
1275.416, 39.15625
1275.898, 32.92041
1276.380, 22.87891
1276.863, 20.18799
1277.345, 29.33398
1277.827, 39.93213
1278.309, 41.09082
1278.791, 36.93555
1279.273, 30.21240
1279.755, 21.63330
1280.237, 16.57812
1280.719, 15.31689
1281.202, 10.52051
1281.684, 2.239258
1282.166, 8.504395
1282.648, 17.08105
1283.130, 43.31543
1283.612, 38.67822
1284.094, 11.58447
1284.576, 8.104004
1285.058, 26.42432
1285.541, 46.19678
1286.023, 64.23633
1286.505, 75.95361
1286.987, 70.41797
1287.469, 61.33936
1287.951, 57.22705
1288.433, 48.81787
1288.915, 45.91943
1289.398, 40.45117
1289.880, 38.94873
1290.362, 50.37842
1290.844, 51.74609
1291.326, 19.54541
1291.808, 1.353027
1292.290, 7.687012
1292.772, 34.68848
1293.255, 36.47803
1293.737, 26.06787
1294.219, 0.0000000E+00
##END=



