##NAMES=Iowaite
##RRUFFID=R120110
##IDEAL CHEMISTRY=Mg_6_Fe^3+^_2_(OH)_16_Cl_2_&#183;4H_2_O
##LOCALITY=Kaznakhtinskiy Range, Altai Mountains, Russia
##OWNER=RRUFF
##SOURCE=Marcus Origlieri
##DESCRIPTION=Dark purple massive, associated with chrysotile
##STATUS=The identification of this mineral is not yet confirmed.
##URL=rruff.info/R120110
175.0097, 0.0000000E+00
175.4918, 0.2279050
175.9739, 0.8992770
176.4561, 1.713043
176.9382, 2.840408
177.4203, 3.357712
177.9024, 3.067291
178.3845, 2.528595
178.8666, 1.921295
179.3488, 1.189911
179.8309, 0.5111240
180.3130, 2.5238000E-02
180.7951, 5.3893998E-02
181.2772, 5.1224001E-02
181.7593, 8.8499999E-04
182.2415, 2.6520001E-02
182.7236, 0.3521580
183.2057, 1.169220
183.6878, 2.215546
184.1699, 3.027313
184.6520, 3.460846
185.1342, 3.488525
185.6163, 2.830215
186.0984, 1.933411
186.5805, 1.184982
187.0626, 0.5628970
187.5447, 0.2375030
188.0269, 0.6614230
188.5090, 1.913483
188.9911, 2.993088
189.4732, 3.673218
189.9553, 4.099747
190.4374, 4.509552
190.9196, 5.113342
191.4017, 5.653351
191.8838, 5.403290
192.3659, 4.211792
192.8480, 3.691788
193.3301, 5.231842
193.8123, 8.135651
194.2944, 9.953262
194.7765, 9.633591
195.2586, 8.414993
195.7407, 7.732834
196.2228, 7.534790
196.7050, 7.284653
197.1871, 6.450699
197.6692, 5.103302
198.1513, 4.201645
198.6334, 4.321655
199.1155, 4.650375
199.5977, 4.552826
200.0798, 3.991989
200.5619, 3.639923
201.0440, 4.209732
201.5261, 5.756958
202.0082, 6.887939
202.4904, 7.154648
202.9725, 7.189804
203.4546, 7.311417
203.9367, 7.267502
204.4188, 7.108505
204.9009, 7.689056
205.3831, 9.732468
205.8652, 10.82037
206.3473, 10.46344
206.8294, 9.815155
207.3115, 9.391891
207.7936, 8.927216
208.2758, 8.582245
208.7579, 8.416000
209.2400, 8.652206
209.7221, 8.610077
210.2042, 7.851044
210.6863, 7.113617
211.1685, 7.023010
211.6506, 7.660385
212.1327, 8.547806
212.6148, 8.908249
213.0969, 8.277847
213.5790, 7.938171
214.0612, 8.312180
214.5433, 8.736496
215.0254, 8.545868
215.5075, 7.619217
215.9896, 6.487656
216.4717, 5.984970
216.9539, 6.488937
217.4360, 6.757385
217.9181, 6.828857
218.4002, 6.685440
218.8823, 6.171066
219.3644, 5.264725
219.8466, 4.336792
220.3287, 3.922440
220.8108, 4.120392
221.2929, 4.392120
221.7750, 4.870773
222.2571, 5.309357
222.7393, 5.340332
223.2214, 4.850586
223.7035, 4.178864
224.1856, 3.812897
224.6677, 3.732056
225.1498, 3.395737
225.6320, 2.270889
226.1141, 0.9001620
226.5962, 0.2835540
227.0783, 0.7600710
227.5604, 1.473480
228.0425, 1.524353
228.5247, 1.059784
229.0068, 0.6171720
229.4889, 0.5528410
229.9710, 0.6439970
230.4531, 0.3199310
230.9352, 0.6614840
231.4174, 1.662125
231.8995, 2.213974
232.3816, 2.409637
232.8637, 2.107483
233.3458, 1.552231
233.8279, 0.9007110
234.3101, 0.7476810
234.7922, 1.462860
235.2743, 2.069290
235.7564, 1.955521
236.2385, 1.348434
236.7206, 0.6831970
237.2028, 9.2864998E-02
237.6849, 0.3680420
238.1670, 0.3937530
238.6491, 0.4648590
239.1312, 1.075790
239.6133, 0.8541870
240.0955, 0.1278080
240.5776, 0.5447690
241.0597, 0.8154750
241.5418, 0.7772060
242.0239, 0.8974610
242.5060, 1.440857
242.9882, 1.767914
243.4703, 1.561905
243.9524, 1.064606
244.4345, 0.6234590
244.9166, 0.4360660
245.3987, 0.4605710
245.8809, 0.5196840
246.3630, 0.6622770
246.8451, 0.7825780
247.3272, 0.8966060
247.8093, 0.9635470
248.2914, 0.8964390
248.7736, 0.6325680
249.2557, 0.2640380
249.7378, 0.1702420
250.2199, 0.5396120
250.7020, 0.9769440
251.1841, 1.516983
251.6663, 2.077972
252.1484, 2.560028
252.6305, 2.919662
253.1126, 3.179550
253.5947, 3.411591
254.0768, 3.553894
254.5590, 3.743835
255.0411, 3.962250
255.5232, 4.236359
256.0053, 4.689529
256.4874, 5.372726
256.9695, 6.076599
257.4517, 6.287064
257.9338, 4.965256
258.4159, 4.401978
258.8980, 5.236008
259.3801, 6.575348
259.8622, 7.393051
260.3444, 7.341476
260.8265, 6.966141
261.3086, 7.305923
261.7907, 9.039780
262.2728, 10.46826
262.7549, 11.35759
263.2371, 12.04999
263.7192, 12.80185
264.2013, 13.69095
264.6834, 14.78328
265.1655, 16.24001
265.6476, 18.40639
266.1298, 20.05229
266.6119, 20.77716
267.0940, 21.19073
267.5761, 21.72696
268.0582, 22.49248
268.5403, 23.60631
269.0225, 25.29388
269.5046, 27.75142
269.9867, 29.93382
270.4688, 31.52461
270.9509, 33.00134
271.4330, 34.74393
271.9152, 36.80243
272.3973, 39.07542
272.8794, 41.42453
273.3615, 43.87532
273.8436, 46.69824
274.3257, 50.24025
274.8079, 53.94075
275.2900, 57.18221
275.7721, 59.99071
276.2542, 63.02419
276.7363, 66.89554
277.2184, 71.49226
277.7006, 75.77885
278.1827, 79.37035
278.6648, 82.93643
279.1469, 87.01154
279.6290, 91.52969
280.1111, 95.97127
280.5933, 99.98819
281.0754, 103.6731
281.5575, 107.5032
282.0396, 111.9064
282.5217, 115.9448
283.0038, 119.0446
283.4860, 121.2681
283.9681, 123.0037
284.4502, 124.4023
284.9323, 125.4239
285.4144, 126.0277
285.8965, 126.0955
286.3787, 126.0316
286.8608, 126.3243
287.3429, 126.7335
287.8250, 126.2999
288.3071, 124.4649
288.7892, 121.9062
289.2714, 119.7169
289.7535, 117.9995
290.2356, 116.1214
290.7177, 113.5520
291.1998, 110.6098
291.6819, 108.1387
292.1641, 106.4032
292.6462, 104.8769
293.1283, 102.9952
293.6104, 100.8574
294.0925, 98.90765
294.5746, 97.23389
295.0568, 95.88814
295.5389, 95.09023
296.0210, 95.03116
296.5031, 94.90198
296.9852, 93.72871
297.4673, 91.94154
297.9495, 90.62949
298.4316, 90.46991
298.9137, 90.83304
299.3958, 90.69148
299.8779, 89.90683
300.3600, 89.33824
300.8422, 89.71172
301.3243, 90.60208
301.8064, 91.39183
302.2885, 92.19759
302.7706, 92.84846
303.2527, 92.89235
303.7349, 92.25516
304.2170, 92.07527
304.6991, 93.19798
305.1812, 94.97639
305.6633, 96.51955
306.1454, 97.65585
306.6276, 98.69243
307.1097, 99.92152
307.5918, 101.3301
308.0739, 102.6755
308.5560, 103.8817
309.0381, 104.9553
309.5203, 105.8505
310.0024, 106.5412
310.4845, 107.3503
310.9666, 108.8706
311.4487, 110.8277
311.9308, 111.7203
312.4130, 110.7513
312.8951, 109.3443
313.3772, 108.8172
313.8593, 109.0622
314.3414, 109.4356
314.8235, 109.6747
315.3057, 109.7986
315.7878, 109.9656
316.2699, 110.4010
316.7520, 110.3816
317.2341, 109.0156
317.7162, 106.8000
318.1984, 104.7875
318.6805, 103.8471
319.1626, 103.1104
319.6447, 101.0248
320.1268, 97.33609
320.6089, 93.57851
321.0911, 90.95003
321.5732, 88.67363
322.0553, 85.63795
322.5374, 81.41260
323.0195, 76.68970
323.5016, 71.98427
323.9838, 67.26151
324.4659, 63.07002
324.9480, 59.95840
325.4301, 57.28615
325.9122, 54.30916
326.3943, 50.93800
326.8765, 47.39479
327.3586, 43.57800
327.8407, 39.60806
328.3228, 36.28185
328.8049, 33.95883
329.2870, 32.12553
329.7692, 30.49037
330.2513, 29.00836
330.7334, 26.99001
331.2155, 23.48587
331.6976, 19.25870
332.1797, 16.15604
332.6619, 14.54448
333.1440, 13.71271
333.6261, 13.48016
334.1082, 13.47095
334.5903, 12.88678
335.0724, 11.22716
335.5546, 9.166290
336.0367, 7.304886
336.5188, 5.562271
337.0009, 4.206223
337.4830, 3.525635
337.9651, 3.328156
338.4473, 3.251877
338.9294, 3.381866
339.4115, 3.670166
339.8936, 3.999390
340.3757, 4.269409
340.8578, 4.273819
341.3400, 3.807526
341.8221, 3.194092
342.3042, 2.938324
342.7863, 3.068115
343.2684, 3.127380
343.7505, 2.820618
344.2327, 2.411011
344.7148, 2.406525
345.1969, 2.938034
345.6790, 3.541214
346.1611, 3.729706
346.6432, 3.570267
347.1254, 3.335297
347.6075, 2.952011
348.0896, 2.696838
348.5717, 2.882675
349.0538, 3.482498
349.5359, 4.182007
350.0181, 4.990814
350.5002, 5.793427
350.9823, 6.120102
351.4644, 5.762650
351.9465, 5.073318
352.4286, 3.986954
352.9108, 2.658600
353.3929, 1.829407
353.8750, 1.913803
354.3571, 2.688080
354.8392, 3.656128
355.3214, 5.126022
355.8035, 6.107269
356.2856, 6.234924
356.7677, 5.633179
357.2498, 4.180710
357.7319, 1.657288
358.2141, 0.6910860
358.6962, 0.8822020
359.1783, 1.503052
359.6604, 3.345917
360.1425, 3.965714
360.6246, 4.105438
361.1068, 4.386093
361.5889, 4.887787
362.0710, 5.464203
362.5531, 5.992569
363.0352, 6.480728
363.5173, 7.052795
363.9995, 7.793854
364.4816, 8.530762
364.9637, 9.138535
365.4458, 9.670944
365.9279, 10.29683
366.4100, 11.12505
366.8922, 12.05402
367.3743, 12.72514
367.8564, 12.86908
368.3385, 13.15364
368.8206, 13.87665
369.3027, 14.69353
369.7849, 15.13907
370.2670, 15.09514
370.7491, 14.89661
371.2312, 15.00775
371.7133, 15.54666
372.1954, 16.05960
372.6776, 16.70084
373.1597, 17.19061
373.6418, 17.37570
374.1239, 17.25017
374.6060, 16.84406
375.0881, 16.13004
375.5703, 15.12842
376.0524, 14.47762
376.5345, 14.61925
377.0166, 14.59941
377.4987, 14.29190
377.9808, 13.66632
378.4630, 12.59033
378.9451, 10.99843
379.4272, 9.199753
379.9093, 7.921707
380.3914, 7.293121
380.8735, 7.035049
381.3557, 7.477371
381.8378, 8.000687
382.3199, 8.145813
382.8020, 7.855682
383.2841, 7.375290
383.7662, 6.986252
384.2484, 6.724564
384.7305, 6.291489
385.2126, 5.570908
385.6947, 4.776733
386.1768, 3.817184
386.6589, 2.842468
387.1411, 2.118469
387.6232, 1.814880
388.1053, 1.859451
388.5874, 2.082596
389.0695, 2.910324
389.5516, 3.069565
390.0338, 1.560257
390.5159, 0.2649840
390.9980, 0.9916840
391.4801, 0.2423860
391.9622, 0.8509980
392.4443, 0.7129520
392.9265, 0.8482670
393.4086, 1.780396
393.8907, 1.502655
394.3728, 0.7968900
394.8549, 0.3553310
395.3370, 1.651886
395.8192, 2.117188
396.3013, 0.5509340
396.7834, 2.312119
397.2655, 3.984818
397.7476, 4.156189
398.2297, 3.936417
398.7119, 3.869629
399.1940, 3.785629
399.6761, 3.348450
400.1582, 2.239746
400.6403, 1.254547
401.1224, 1.521759
401.6046, 2.948929
402.0867, 3.779938
402.5688, 3.252136
403.0509, 2.116821
403.5330, 1.172592
404.0151, 0.4116820
404.4973, 9.6802004E-02
404.9794, 0.9198150
405.4615, 2.107635
405.9436, 2.183975
406.4257, 0.8830720
406.9078, 0.8418880
407.3900, 2.360794
407.8721, 3.653076
408.3542, 4.733063
408.8363, 5.489349
409.3184, 6.110764
409.8005, 6.651932
410.2827, 7.131989
410.7648, 7.591812
411.2469, 8.038300
411.7290, 8.555695
412.2111, 9.282089
412.6932, 10.12532
413.1754, 11.33443
413.6575, 13.12974
414.1396, 15.18314
414.6217, 17.27144
415.1038, 19.30099
415.5859, 21.08617
416.0681, 22.44235
416.5502, 23.47495
417.0323, 24.20346
417.5144, 24.26662
417.9965, 24.28275
418.4786, 24.22375
418.9608, 24.33153
419.4429, 25.12244
419.9250, 26.90192
420.4071, 29.34401
420.8892, 31.59532
421.3713, 33.72983
421.8535, 35.46498
422.3356, 36.83119
422.8177, 37.87053
423.2998, 38.34093
423.7819, 38.33162
424.2640, 38.43106
424.7462, 39.33144
425.2283, 41.11783
425.7104, 42.79181
426.1925, 44.77939
426.6746, 46.13266
427.1567, 46.11188
427.6389, 45.39183
428.1210, 45.04538
428.6031, 45.63196
429.0852, 46.65814
429.5673, 47.08522
430.0494, 46.73180
430.5316, 46.44189
431.0137, 46.48099
431.4958, 46.60049
431.9779, 46.49541
432.4600, 46.20627
432.9421, 46.29008
433.4243, 47.57843
433.9064, 49.68037
434.3885, 50.87971
434.8706, 50.95705
435.3527, 50.45914
435.8348, 49.06892
436.3170, 47.44678
436.7991, 46.81790
437.2812, 47.89935
437.7633, 49.47961
438.2454, 50.58459
438.7275, 51.23531
439.2097, 51.44501
439.6918, 50.96593
440.1739, 50.41510
440.6560, 50.83858
441.1381, 52.28766
441.6202, 53.64743
442.1024, 54.71567
442.5845, 55.47523
443.0666, 55.60826
443.5487, 55.17453
444.0308, 55.13629
444.5129, 56.25587
444.9951, 58.43102
445.4772, 60.70393
445.9593, 63.10976
446.4414, 65.56036
446.9235, 68.01843
447.4056, 70.50432
447.8878, 73.08807
448.3699, 75.74228
448.8520, 78.35181
449.3341, 80.67958
449.8162, 82.17159
450.2983, 85.03288
450.7805, 90.11670
451.2626, 95.44170
451.7447, 100.1309
452.2268, 104.2654
452.7089, 108.3688
453.1910, 112.7410
453.6732, 117.2589
454.1553, 121.5101
454.6374, 125.6655
455.1195, 128.9700
455.6016, 130.7139
456.0837, 132.1816
456.5659, 134.6837
457.0480, 138.3674
457.5301, 141.8679
458.0122, 143.9943
458.4943, 144.7490
458.9764, 144.0485
459.4586, 141.2249
459.9407, 137.7484
460.4228, 134.8103
460.9049, 131.8793
461.3870, 127.8531
461.8691, 122.1073
462.3513, 115.4771
462.8334, 108.8259
463.3155, 102.1373
463.7976, 95.52217
464.2797, 89.12161
464.7618, 82.81604
465.2440, 76.27391
465.7261, 69.45961
466.2082, 62.96776
466.6903, 57.12024
467.1724, 51.60953
467.6545, 45.86913
468.1367, 39.93033
468.6188, 34.60480
469.1009, 30.55513
469.5830, 27.58273
470.0651, 24.54420
470.5472, 21.27026
471.0294, 18.17561
471.5115, 15.36913
471.9936, 12.80200
472.4757, 10.28575
472.9578, 7.814240
473.4399, 5.793640
473.9221, 4.862717
474.4042, 5.407928
474.8863, 4.771835
475.3684, 1.145432
475.8505, 1.620682
476.3326, 1.276550
476.8148, 0.7442630
477.2969, 1.850952
477.7790, 0.7584230
478.2611, 1.470963
478.7432, 2.471481
479.2253, 1.591629
479.7075, 1.320145
480.1896, 2.917511
480.6717, 4.373199
481.1538, 4.419952
481.6359, 3.226791
482.1180, 1.901535
482.6002, 1.299637
483.0823, 1.077286
483.5644, 0.1010890
484.0465, 1.904053
484.5286, 3.640060
485.0107, 4.448715
485.4929, 4.701904
485.9750, 4.677139
486.4571, 4.268784
486.9392, 4.263443
487.4213, 5.069214
487.9034, 6.634872
488.3856, 9.064774
488.8677, 12.50438
489.3498, 15.94217
489.8319, 18.62817
490.3140, 20.49896
490.7961, 21.69901
491.2783, 21.30869
491.7604, 21.23451
492.2425, 22.25255
492.7246, 24.21710
493.2067, 27.12531
493.6888, 30.96739
494.1710, 34.87979
494.6531, 37.38925
495.1352, 37.79578
495.6173, 38.99277
496.0994, 40.82910
496.5815, 43.47124
497.0637, 47.50705
497.5458, 52.37183
498.0279, 56.90753
498.5100, 60.44081
498.9921, 63.38165
499.4742, 66.87921
499.9564, 71.22269
500.4385, 75.37463
500.9206, 78.75565
501.4027, 82.26901
501.8848, 86.45435
502.3669, 91.31171
502.8491, 96.46008
503.3312, 101.4784
503.8133, 106.6357
504.2954, 112.8208
504.7775, 120.2324
505.2596, 127.6021
505.7418, 133.8915
506.2239, 140.0364
506.7060, 147.4396
507.1881, 156.3634
507.6702, 165.6763
508.1523, 174.6465
508.6345, 183.6938
509.1166, 193.4138
509.5987, 203.9342
510.0808, 215.2233
510.5629, 227.0381
511.0450, 239.5309
511.5272, 254.5858
512.0093, 274.2515
512.4914, 293.7648
512.9735, 310.7481
513.4556, 327.2333
513.9377, 345.9986
514.4199, 367.6768
514.9020, 391.4851
515.3841, 416.2580
515.8662, 441.9759
516.3483, 468.5162
516.8304, 495.1180
517.3126, 523.3577
517.7947, 553.3698
518.2768, 585.3425
518.7589, 619.8000
519.2410, 657.0206
519.7231, 695.6307
520.2053, 733.5344
520.6874, 770.4535
521.1695, 809.8368
521.6516, 853.5582
522.1337, 898.0720
522.6158, 941.0339
523.0980, 982.8201
523.5801, 1024.700
524.0622, 1067.937
524.5443, 1110.457
525.0264, 1149.494
525.5085, 1185.667
525.9907, 1220.923
526.4728, 1256.502
526.9549, 1290.783
527.4370, 1321.160
527.9191, 1347.655
528.4012, 1372.257
528.8834, 1395.605
529.3655, 1416.756
529.8476, 1435.313
530.3297, 1451.164
530.8118, 1463.985
531.2939, 1473.627
531.7761, 1480.352
532.2582, 1484.758
532.7403, 1486.816
533.2224, 1486.126
533.7045, 1482.497
534.1866, 1476.686
534.6688, 1469.550
535.1509, 1460.649
535.6330, 1448.805
536.1151, 1433.139
536.5972, 1413.886
537.0793, 1391.524
537.5615, 1366.098
538.0436, 1338.132
538.5257, 1308.744
539.0078, 1276.105
539.4899, 1238.288
539.9720, 1195.362
540.4542, 1150.460
540.9363, 1104.619
541.4184, 1058.122
541.9005, 1011.162
542.3826, 963.7466
542.8647, 916.2416
543.3469, 868.2719
543.8290, 820.6090
544.3111, 775.0109
544.7932, 731.6414
545.2753, 689.9531
545.7574, 649.4592
546.2396, 610.7051
546.7217, 574.4645
547.2038, 540.3331
547.6859, 507.5514
548.1680, 475.4427
548.6501, 444.2632
549.1323, 414.9604
549.6144, 387.7126
550.0965, 362.4359
550.5786, 338.8781
551.0607, 316.8538
551.5428, 296.7125
552.0250, 278.3025
552.5071, 260.9471
552.9892, 243.7153
553.4713, 227.1848
553.9534, 213.2281
554.4355, 202.2712
554.9177, 191.4834
555.3998, 179.3719
555.8819, 167.1893
556.3640, 156.4363
556.8461, 147.1915
557.3282, 138.7887
557.8104, 131.4932
558.2925, 124.5448
558.7746, 116.8135
559.2567, 108.3296
559.7388, 100.5031
560.2209, 94.14868
560.7031, 89.01111
561.1852, 84.20695
561.6673, 80.18855
562.1494, 75.76790
562.6315, 70.18346
563.1136, 64.64842
563.5958, 60.06088
564.0779, 56.40608
564.5600, 53.36699
565.0421, 50.79936
565.5242, 48.53508
566.0063, 45.94400
566.4885, 42.93770
566.9706, 39.99136
567.4527, 36.95987
567.9348, 34.07330
568.4169, 31.57439
568.8990, 29.48181
569.3812, 27.57191
569.8633, 25.94073
570.3454, 24.37691
570.8275, 22.37999
571.3096, 19.98888
571.7917, 17.95322
572.2739, 16.53992
572.7560, 15.64694
573.2381, 15.16948
573.7202, 15.30592
574.2023, 15.14807
574.6844, 14.40596
575.1666, 13.44852
575.6487, 12.50122
576.1308, 11.57034
576.6129, 10.55156
577.0950, 9.372894
577.5771, 8.205353
578.0593, 7.482224
578.5414, 7.486237
579.0235, 7.143311
579.5056, 5.913818
579.9877, 4.789551
580.4698, 4.329483
580.9520, 4.334778
581.4341, 4.299698
581.9162, 4.027435
582.3983, 3.551819
582.8804, 2.752060
583.3625, 1.668716
583.8447, 0.9555360
584.3268, 0.8348690
584.8089, 0.9985500
585.2910, 1.346283
585.7731, 1.814438
586.2552, 1.701553
586.7374, 0.1905060
587.2195, 1.131378
587.7016, 1.122864
588.1837, 0.4280850
588.6658, 0.2916410
589.1479, 1.059418
589.6301, 1.952530
590.1122, 1.989380
590.5943, 1.069611
591.0764, 0.2317350
591.5585, 1.012253
592.0406, 1.570618
592.5228, 0.4709010
593.0049, 1.114868
593.4870, 1.669098
593.9691, 0.8312840
594.4512, 0.1965480
594.9333, 0.2075810
595.4155, 0.5688020
595.8976, 1.137558
596.3797, 1.419418
596.8618, 1.576736
597.3439, 1.660507
597.8260, 1.699463
598.3082, 1.783981
598.7903, 2.020233
599.2724, 2.016617
599.7545, 1.416107
600.2366, 0.6440730
600.7188, 0.1129000
601.2009, 0.1292570
601.6830, 0.1878510
602.1651, 0.1519850
602.6472, 7.5989999E-03
603.1293, 0.3869090
603.6115, 1.540810
604.0936, 1.980339
604.5757, 0.9155810
605.0578, 0.2058260
605.5399, 0.4798970
606.0220, 2.2194000E-02
606.5042, 0.6290130
606.9863, 1.351639
607.4684, 1.775360
607.9505, 0.9190220
608.4326, 1.166405
608.9147, 2.254990
609.3969, 1.461418
609.8790, 5.8990002E-02
610.3611, 0.7270280
610.8432, 0.9291840
611.3253, 0.6994020
611.8074, 0.5578770
612.2896, 1.586990
612.7717, 1.517525
613.2538, 0.8378450
613.7359, 0.3492890
614.2180, 0.2962420
614.7001, 0.4911730
615.1823, 0.7012860
615.6644, 0.9103700
616.1465, 1.367104
616.6286, 2.646942
617.1107, 3.361389
617.5928, 2.857117
618.0750, 1.833763
618.5571, 0.8374560
619.0392, 9.5140003E-03
619.5213, 0.3491670
620.0034, 0.3261950
620.4855, 1.550598
620.9677, 2.272018
621.4498, 2.441971
621.9319, 2.249512
622.4140, 1.709824
622.8961, 0.9466400
623.3782, 9.8053001E-02
623.8604, 1.136307
624.3425, 1.516052
624.8246, 0.2253880
625.3067, 1.361893
625.7888, 2.594833
626.2709, 3.340836
626.7531, 3.421700
627.2352, 2.732811
627.7173, 1.733154
628.1994, 1.207077
628.6815, 1.151085
629.1636, 1.667007
629.6458, 3.579735
630.1279, 4.990631
630.6100, 4.525925
631.0921, 3.077744
631.5742, 2.258087
632.0563, 2.603951
632.5385, 3.210938
633.0206, 3.525162
633.5027, 3.613579
633.9848, 3.522133
634.4669, 3.266998
634.9490, 3.161804
635.4312, 3.476685
635.9133, 4.106750
636.3954, 4.549248
636.8775, 4.870049
637.3596, 4.889236
637.8417, 4.457497
638.3239, 3.839851
638.8060, 3.008095
639.2881, 2.144547
639.7702, 1.717407
640.2523, 2.079926
640.7344, 2.848877
641.2166, 3.315758
641.6987, 3.469910
642.1808, 3.440376
642.6629, 3.073326
643.1450, 2.819237
643.6271, 3.284111
644.1093, 4.243660
644.5914, 4.860329
645.0735, 4.864159
645.5556, 4.635635
646.0377, 4.110970
646.5198, 3.549736
647.0020, 3.404869
647.4841, 3.721848
647.9662, 4.156410
648.4483, 4.418419
648.9304, 4.530533
649.4125, 4.687828
649.8947, 4.885124
650.3768, 5.099174
650.8589, 5.271255
651.3410, 5.428543
651.8231, 5.716858
652.3052, 6.084900
652.7874, 6.250252
653.2695, 6.036911
653.7516, 5.554054
654.2337, 4.665092
654.7158, 3.563026
655.1979, 3.267525
655.6801, 4.181396
656.1622, 5.339745
656.6443, 5.671295
657.1264, 5.153625
657.6085, 4.678894
658.0906, 3.837975
658.5728, 3.549873
659.0549, 4.718040
659.5370, 6.103333
660.0191, 6.255348
660.5012, 5.094559
660.9833, 3.826675
661.4655, 3.514084
661.9476, 3.783875
662.4297, 3.244217
662.9118, 1.701050
663.3939, 0.9003300
663.8760, 1.630196
664.3582, 2.875931
664.8403, 3.486771
665.3224, 3.528969
665.8045, 3.570221
666.2866, 3.830017
666.7687, 3.980476
667.2509, 3.779594
667.7330, 3.336578
668.2151, 2.808510
668.6972, 2.313911
669.1793, 2.162514
669.6614, 2.811012
670.1436, 4.143257
670.6257, 4.908859
671.1078, 4.861206
671.5899, 4.693954
672.0720, 4.310806
672.5541, 4.132179
673.0363, 4.683662
673.5184, 5.892815
674.0005, 6.856522
674.4826, 7.186646
674.9647, 7.106400
675.4468, 6.706955
675.9290, 6.065094
676.4111, 5.389702
676.8932, 4.740288
677.3753, 4.281006
677.8574, 4.291695
678.3395, 4.810242
678.8217, 5.155869
679.3038, 5.265839
679.7859, 5.216400
680.2680, 5.000450
680.7501, 4.615852
681.2322, 3.890678
681.7144, 2.883247
682.1965, 2.172546
682.6786, 2.412727
683.1607, 3.126762
683.6428, 3.410088
684.1249, 3.316841
684.6071, 3.551964
685.0892, 4.405289
685.5713, 5.293793
686.0534, 5.581131
686.5355, 5.249229
687.0176, 4.895271
687.4998, 4.407524
687.9819, 4.088753
688.4640, 3.995598
688.9461, 4.054245
689.4282, 4.395584
689.9103, 4.942154
690.3925, 5.167984
690.8746, 4.482796
691.3567, 3.356377
691.8388, 3.026985
692.3209, 3.528496
692.8030, 3.832069
693.2852, 3.571930
693.7673, 3.250572
694.2494, 3.488388
694.7315, 4.222809
695.2136, 4.498413
695.6957, 3.903015
696.1779, 3.280396
696.6600, 3.037308
697.1421, 2.833038
697.6242, 2.148796
698.1063, 1.069366
698.5884, 0.2546540
699.0706, 0.2245560
699.5527, 0.7270050
700.0348, 1.076408
700.5169, 1.238930
700.9990, 1.429405
701.4811, 1.887436
701.9633, 2.165565
702.4454, 1.562065
702.9275, 0.3951640
703.4096, 0.2131880
703.8917, 0.2097930
704.3738, 0.7472920
704.8560, 1.152054
705.3381, 1.417549
705.8202, 1.471542
706.3023, 1.343559
706.7844, 1.169464
707.2665, 1.020012
707.7487, 0.9824300
708.2308, 1.432182
708.7129, 2.605576
709.1950, 3.130356
709.6771, 2.511223
710.1592, 1.651115
710.6414, 1.045166
711.1235, 0.6325990
711.6056, 0.3001560
712.0877, 2.9464999E-02
712.5698, 0.1859820
713.0519, 0.5255430
713.5341, 0.6530000
714.0162, 6.1600000E-02
714.4983, 1.415398
714.9804, 2.433998
715.4625, 2.552505
715.9446, 2.138397
716.4268, 2.062065
716.9089, 2.542862
717.3910, 2.424202
717.8731, 0.8624500
718.3552, 0.2150730
718.8373, 0.8629910
719.3195, 2.650909
719.8016, 2.787659
720.2837, 0.5607070
720.7658, 1.192970
721.2479, 0.6862030
721.7300, 0.7398610
722.2122, 1.794579
722.6943, 2.396675
723.1764, 2.752373
723.6585, 2.954544
724.1406, 2.920250
724.6227, 2.408104
725.1049, 1.291122
725.5870, 0.8735050
726.0691, 1.618607
726.5512, 2.318405
727.0333, 2.479805
727.5154, 2.468224
727.9976, 2.660774
728.4797, 3.076111
728.9618, 3.392708
729.4439, 3.526207
729.9260, 3.458099
730.4081, 3.010475
730.8903, 2.375282
731.3724, 1.951134
731.8545, 1.859940
732.3366, 2.106659
732.8187, 2.822861
733.3008, 3.902725
733.7830, 4.003265
734.2651, 2.515099
734.7472, 1.364601
735.2293, 1.205200
735.7114, 1.349548
736.1935, 1.319511
736.6757, 1.163795
737.1578, 1.195412
737.6399, 1.716072
738.1220, 2.180885
738.6041, 2.133186
739.0862, 1.827484
739.5684, 1.590744
740.0505, 1.511002
740.5326, 1.712486
741.0147, 2.320442
741.4968, 3.157402
741.9789, 3.731613
742.4611, 4.081413
742.9432, 3.997520
743.4253, 3.012939
743.9074, 2.150322
744.3895, 1.896423
744.8716, 2.176720
745.3538, 2.995941
745.8359, 4.642097
746.3180, 5.882050
746.8001, 5.697281
747.2822, 5.167549
747.7643, 5.268234
748.2465, 6.041771
748.7286, 7.638596
749.2107, 10.12391
749.6928, 12.13000
750.1749, 11.16700
750.6570, 7.020485
751.1392, 4.310234
751.6213, 3.223862
752.1034, 3.174446
752.5855, 4.904839
753.0676, 6.893936
753.5497, 7.019157
754.0319, 5.191536
754.5140, 3.975273
754.9961, 4.350197
755.4782, 5.121452
755.9603, 5.821587
756.4424, 6.342636
756.9246, 6.457474
757.4067, 6.193771
757.8888, 6.002151
758.3709, 6.314888
758.8530, 6.948097
759.3351, 7.326004
759.8173, 7.460838
760.2994, 7.130882
760.7815, 5.887596
761.2636, 4.894829
761.7457, 5.538483
762.2278, 7.359207
762.7100, 8.079102
763.1921, 6.619125
763.6742, 5.659149
764.1563, 6.243950
764.6384, 7.217445
765.1205, 7.757408
765.6027, 7.843948
766.0848, 7.695755
766.5669, 7.433708
767.0490, 7.173576
767.5311, 6.858276
768.0132, 6.577667
768.4954, 6.836472
768.9775, 7.777115
769.4596, 8.204323
769.9417, 7.289566
770.4238, 5.842941
770.9059, 5.295334
771.3881, 5.847862
771.8702, 6.615517
772.3523, 8.083275
772.8344, 9.152512
773.3165, 9.285439
773.7986, 8.912323
774.2808, 8.458488
774.7629, 8.027008
775.2450, 7.589607
775.7271, 6.750328
776.2092, 6.110001
776.6913, 7.025063
777.1735, 9.030365
777.6556, 10.04269
778.1377, 9.558990
778.6198, 8.433708
779.1019, 7.277466
779.5840, 6.248390
780.0662, 6.293549
780.5483, 8.642891
781.0304, 9.720802
781.5125, 8.010574
781.9946, 6.318703
782.4767, 6.254387
782.9589, 7.122337
783.4410, 7.501076
783.9231, 6.976219
784.4052, 6.300308
784.8873, 5.848648
785.3694, 5.544937
785.8516, 5.321777
786.3337, 5.165688
786.8158, 4.962524
787.2979, 4.673607
787.7800, 4.712624
788.2621, 5.848274
788.7443, 8.014694
789.2264, 8.857224
789.7085, 7.934059
790.1906, 6.925468
790.6727, 6.120583
791.1548, 5.608536
791.6370, 5.741051
792.1191, 6.363464
792.6012, 6.339455
793.0833, 4.655457
793.5654, 3.351807
794.0475, 3.455666
794.5297, 4.137253
795.0118, 4.551369
795.4939, 4.700737
795.9760, 5.107117
796.4581, 6.110718
796.9402, 7.156998
797.4224, 7.410034
797.9045, 6.942955
798.3866, 6.074295
798.8687, 4.742012
799.3508, 3.881645
799.8329, 4.123169
800.3151, 4.876617
800.7972, 5.003754
801.2793, 4.208824
801.7614, 3.960541
802.2435, 5.205360
802.7256, 5.787270
803.2078, 4.150131
803.6899, 2.145279
804.1720, 1.958351
804.6541, 3.571022
805.1362, 4.969650
805.6183, 4.987770
806.1005, 4.416679
806.5826, 3.824989
807.0647, 3.325073
807.5468, 3.237175
808.0289, 3.581871
808.5110, 4.062965
808.9932, 4.514595
809.4753, 4.814224
809.9574, 4.547516
810.4395, 3.510315
810.9216, 2.822693
811.4037, 2.638870
811.8859, 2.645859
812.3680, 2.740860
812.8501, 2.912460
813.3322, 3.286156
813.8143, 3.982445
814.2964, 4.014771
814.7786, 2.324272
815.2607, 0.7934110
815.7428, 0.8089680
816.2249, 1.537598
816.7070, 1.743553
817.1891, 1.230446
817.6713, 0.6096270
818.1534, 0.3085330
818.6355, 0.2472990
819.1176, 0.3055420
819.5997, 0.4736790
820.0818, 0.6601260
820.5640, 0.8378300
821.0461, 1.176079
821.5282, 1.908554
822.0103, 2.762093
822.4924, 2.894180
822.9745, 2.043289
823.4567, 1.044647
823.9388, 1.045631
824.4209, 2.208656
824.9030, 0.7221980
825.3851, 1.580368
825.8672, 2.174477
826.3494, 0.7324750
826.8315, 0.5989610
827.3136, 0.6585920
827.7957, 0.3494800
828.2778, 0.4765930
828.7599, 0.7679210
829.2421, 0.6935880
829.7242, 0.1641310
830.2063, 0.6685870
830.6884, 1.827896
831.1705, 2.845528
831.6526, 2.176193
832.1348, 0.2679440
832.6169, 1.445793
833.0990, 0.6501620
833.5811, 0.2629390
834.0632, 8.7890998E-02
834.5453, 0.6082990
835.0275, 0.5603100
835.5096, 0.4969560
835.9917, 1.538589
836.4738, 2.728142
836.9559, 3.704338
837.4380, 4.531982
837.9202, 4.958900
838.4023, 4.500206
838.8844, 3.251099
839.3665, 2.139519
839.8486, 1.746254
840.3307, 1.600388
840.8129, 1.194519
841.2950, 0.6957550
841.7771, 0.4840930
842.2592, 0.5777970
842.7413, 0.6659390
843.2234, 0.5425640
843.7056, 0.3710250
844.1877, 0.6110460
844.6698, 1.324173
845.1519, 1.355522
845.6340, 0.3074340
846.1161, 0.3126530
846.5983, 0.2650530
847.0804, 1.467888
847.5625, 2.745262
848.0446, 4.164131
848.5267, 4.591194
849.0089, 2.697311
849.4910, 1.380783
849.9731, 1.869003
850.4552, 2.944145
850.9373, 3.755615
851.4194, 4.126724
851.9016, 3.893364
852.3837, 2.778748
852.8658, 1.793915
853.3479, 2.212402
853.8300, 3.223289
854.3121, 3.320663
854.7943, 2.567955
855.2764, 1.759911
855.7585, 1.237991
856.2406, 1.145546
856.7227, 1.865417
857.2048, 3.265656
857.6870, 3.457924
858.1691, 2.032051
858.6512, 1.002914
859.1333, 0.8714750
859.6154, 1.285957
860.0975, 2.198334
860.5797, 3.445160
861.0618, 4.111557
861.5439, 3.675430
862.0260, 3.544746
862.5081, 4.290016
862.9902, 4.954819
863.4724, 4.854233
863.9545, 4.329964
864.4366, 3.992416
864.9187, 3.986534
865.4008, 3.992828
865.8829, 3.807045
866.3651, 3.515884
866.8472, 3.199776
867.3293, 2.859436
867.8114, 2.316750
868.2935, 1.624245
868.7756, 1.495720
869.2578, 2.584167
869.7399, 4.248627
870.2220, 4.803307
870.7041, 4.186165
871.1862, 3.719528
871.6683, 3.529007
872.1505, 3.451691
872.6326, 3.488312
873.1147, 3.489670
873.5968, 3.100655
874.0789, 2.114052
874.5610, 1.871796
875.0432, 2.918266
875.5253, 3.956657
876.0074, 4.926643
876.4895, 5.587921
876.9716, 5.588638
877.4537, 5.093964
877.9359, 4.666672
878.4180, 4.310066
878.9001, 4.508209
879.3822, 6.528473
879.8643, 8.559944
880.3464, 8.085777
880.8286, 5.844009
881.3107, 4.240059
881.7928, 4.010277
882.2749, 4.155853
882.7570, 3.563622
883.2391, 3.664589
883.7213, 2.595863
884.2034, 3.525024
884.6855, 4.099953
885.1676, 4.057121
885.6497, 3.463882
886.1318, 2.167244
886.6140, 0.5437850
887.0961, 1.7930000E-03
887.5782, 1.229721
888.0603, 1.741364
888.5424, 0.7480320
889.0245, 8.8836998E-02
889.5067, 0.8934250
889.9888, 2.176674
890.4709, 2.867775
890.9530, 3.068108
891.4351, 3.049721
891.9172, 2.517288
892.3994, 2.076134
892.8815, 2.352257
893.3636, 2.708183
893.8457, 2.149384
894.3278, 1.072067
894.8099, 0.9169160
895.2921, 2.414230
895.7742, 3.981453
896.2563, 4.019302
896.7384, 3.193741
897.2205, 2.398460
897.7026, 1.779213
898.1848, 1.805008
898.6669, 2.609032
899.1490, 3.447716
899.6311, 3.593452
900.1132, 3.132210
900.5953, 2.169571
901.0775, 0.6052400
901.5596, 0.3076930
902.0417, 0.3328090
902.5238, 0.1067430
903.0059, 0.8316270
903.4880, 1.820145
903.9702, 3.244377
904.4523, 5.692657
904.9344, 6.168098
905.4165, 2.255577
905.8986, 0.4439090
906.3807, 0.3764800
906.8629, 2.051804
907.3450, 2.201447
907.8271, 1.082909
908.3092, 0.3501970
908.7913, 0.3238830
909.2734, 0.8425830
909.7556, 2.358261
910.2377, 3.977036
910.7198, 4.810921
911.2019, 5.164848
911.6840, 5.913651
912.1661, 7.184944
912.6483, 7.826912
913.1304, 6.677483
913.6125, 4.895645
914.0946, 4.294952
914.5767, 4.434204
915.0588, 4.196075
915.5410, 3.556564
916.0231, 3.417038
916.5052, 4.408203
916.9873, 5.810959
917.4694, 6.195656
917.9515, 5.500923
918.4337, 4.659035
918.9158, 3.520439
919.3979, 3.052124
919.8800, 3.856445
920.3621, 4.911797
920.8442, 5.076782
921.3264, 4.463379
921.8085, 4.274048
922.2906, 5.262955
922.7727, 5.423370
923.2548, 3.513229
923.7369, 2.050743
924.2191, 2.726540
924.7012, 4.370537
925.1833, 5.152534
925.6654, 4.832718
926.1475, 4.570831
926.6296, 5.131226
927.1118, 5.336128
927.5939, 3.969597
928.0760, 2.370735
928.5581, 2.249115
929.0402, 3.315918
929.5223, 3.963291
930.0045, 3.407185
930.4866, 2.805431
930.9687, 3.603802
931.4508, 4.793568
931.9329, 4.388660
932.4150, 2.972260
932.8972, 2.792656
933.3793, 4.352596
933.8614, 6.005604
934.3435, 6.377140
934.8256, 5.713203
935.3077, 4.114300
935.7899, 1.739998
936.2720, 1.384533
936.7541, 3.586967
937.2362, 4.808414
937.7183, 3.022320
938.2004, 0.2592540
938.6826, 0.3697470
939.1647, 1.192417
939.6468, 2.267097
940.1289, 2.592808
940.6110, 3.098289
941.0931, 4.384472
941.5753, 5.320766
942.0574, 4.693985
942.5395, 3.189709
943.0216, 2.799511
943.5037, 4.198689
943.9858, 4.654812
944.4680, 3.045479
944.9501, 1.561234
945.4322, 0.9587970
945.9143, 0.9248120
946.3964, 1.539967
946.8785, 2.461441
947.3607, 2.323727
947.8428, 6.1340000E-02
948.3249, 1.987202
948.8070, 1.747341
949.2891, 0.5935900
949.7712, 0.7205280
950.2534, 1.890743
950.7355, 2.502834
951.2176, 2.480484
951.6997, 2.156597
952.1818, 1.566746
952.6639, 1.089287
953.1461, 1.398499
953.6282, 2.184944
954.1103, 2.906551
954.5924, 3.393192
955.0745, 3.139839
955.5566, 1.877903
956.0388, 0.4440960
956.5209, 1.8813999E-02
957.0030, 0.4035870
957.4851, 0.5918580
957.9672, 0.5857430
958.4493, 0.6337510
958.9315, 0.7889670
959.4136, 1.056774
959.8957, 1.542023
960.3778, 2.028595
960.8599, 1.775833
961.3420, 0.4847950
961.8242, 6.6628002E-02
962.3063, 0.9638710
962.7884, 1.643757
963.2705, 1.518188
963.7526, 1.081097
964.2347, 0.9027100
964.7169, 0.9057660
965.1990, 0.6714860
965.6811, 0.2097820
966.1632, 0.6962890
966.6453, 0.4438170
967.1274, 0.1893620
967.6096, 0.2048870
968.0917, 0.4143940
968.5738, 0.9104080
969.0559, 1.636021
969.5380, 1.712738
970.0201, 0.1259540
970.5023, 1.239594
970.9844, 0.3963700
971.4665, 2.135746
971.9486, 1.491676
972.4307, 0.6214680
972.9128, 2.176807
973.3950, 2.631409
973.8771, 2.474194
974.3592, 1.420509
974.8413, 0.4584500
975.3234, 0.4888760
975.8055, 1.149364
976.2877, 2.153194
976.7698, 3.249809
977.2519, 3.909576
977.7340, 3.880390
978.2161, 3.479927
978.6982, 2.774796
979.1804, 2.079144
979.6625, 2.039677
980.1446, 2.551289
980.6267, 3.450657
981.1088, 4.583733
981.5909, 5.090626
982.0731, 4.309902
982.5552, 2.979424
983.0373, 2.416008
983.5194, 2.532433
984.0015, 2.696972
984.4836, 2.889717
984.9658, 3.121384
985.4479, 3.368347
985.9300, 4.005722
986.4121, 5.573368
986.8942, 7.507225
987.3763, 7.435982
987.8585, 4.845089
988.3406, 3.678726
988.8227, 4.377106
989.3048, 5.812111
989.7869, 8.057545
990.2690, 9.819836
990.7512, 9.250259
991.2333, 6.614426
991.7154, 5.312946
992.1975, 6.064064
992.6796, 6.622532
993.1617, 6.535957
993.6439, 6.663582
994.1260, 7.827789
994.6081, 9.200127
995.0902, 9.451984
995.5723, 8.532890
996.0544, 8.018272
996.5366, 8.191715
997.0187, 8.482357
997.5008, 8.976967
997.9829, 9.262341
998.4650, 8.798820
998.9471, 8.073242
999.4293, 8.013454
999.9114, 8.778522
1000.393, 9.309280
1000.876, 8.914223
1001.358, 8.736732
1001.840, 9.817425
1002.322, 10.84169
1002.804, 10.26451
1003.286, 8.744209
1003.768, 8.040089
1004.250, 8.679062
1004.733, 9.334759
1005.215, 9.370598
1005.697, 9.042690
1006.179, 8.561607
1006.661, 7.862282
1007.143, 6.155586
1007.625, 4.033871
1008.107, 3.545944
1008.589, 5.684875
1009.072, 7.936989
1009.554, 7.745842
1010.036, 6.875805
1010.518, 7.624866
1011.000, 9.262215
1011.482, 10.40842
1011.964, 10.75645
1012.446, 10.27591
1012.929, 8.867550
1013.411, 7.393360
1013.893, 6.870209
1014.375, 6.998459
1014.857, 7.418694
1015.339, 7.954552
1015.821, 7.978718
1016.303, 7.445721
1016.785, 7.232391
1017.268, 8.005035
1017.750, 8.985638
1018.232, 8.668472
1018.714, 7.451824
1019.196, 6.940231
1019.678, 7.157917
1020.160, 7.972019
1020.642, 9.303959
1021.125, 10.24819
1021.607, 10.04566
1022.089, 9.122757
1022.571, 8.215439
1023.053, 7.358799
1023.535, 7.784775
1024.017, 9.632870
1024.499, 10.48709
1024.981, 9.448494
1025.464, 8.154587
1025.946, 8.143845
1026.428, 8.915630
1026.910, 8.902935
1027.392, 8.059025
1027.874, 7.335045
1028.356, 6.557400
1028.838, 6.447449
1029.321, 7.576550
1029.803, 8.564922
1030.285, 7.850578
1030.767, 5.814129
1031.249, 4.557915
1031.731, 4.128498
1032.213, 4.364941
1032.695, 5.613216
1033.177, 6.562714
1033.660, 6.552898
1034.142, 6.378334
1034.624, 6.935402
1035.106, 7.075676
1035.588, 7.385937
1036.070, 8.255062
1036.552, 9.089260
1037.034, 9.910812
1037.516, 11.44288
1037.999, 12.95585
1038.481, 14.36530
1038.963, 15.57888
1039.445, 16.60431
1039.927, 17.47505
1040.409, 17.62454
1040.891, 18.62762
1041.373, 21.05631
1041.855, 23.64117
1042.338, 26.12194
1042.820, 28.34744
1043.302, 30.30848
1043.784, 31.92302
1044.266, 32.59128
1044.748, 31.41417
1045.230, 30.77184
1045.712, 31.11382
1046.195, 31.61670
1046.677, 32.37284
1047.159, 32.83924
1047.641, 31.96191
1048.123, 30.13907
1048.605, 29.97075
1049.087, 32.60086
1049.569, 35.04028
1050.052, 36.59503
1050.534, 38.27413
1051.016, 40.63920
1051.498, 43.29939
1051.980, 45.76837
1052.462, 48.08044
1052.944, 50.65278
1053.426, 53.56429
1053.908, 56.75910
1054.391, 60.68749
1054.873, 64.31715
1055.355, 67.09016
1055.837, 69.77733
1056.319, 71.49731
1056.801, 73.54016
1057.283, 74.90907
1057.765, 75.56927
1058.248, 75.32571
1058.730, 74.18258
1059.212, 72.04610
1059.694, 67.95590
1060.176, 63.47657
1060.658, 60.79764
1061.140, 59.55131
1061.622, 56.89371
1062.104, 51.52369
1062.587, 46.55799
1063.069, 43.69582
1063.551, 40.93062
1064.033, 36.70844
1064.515, 32.18133
1064.997, 28.88179
1065.479, 26.60335
1065.961, 23.91579
1066.443, 20.20744
1066.926, 17.04420
1067.408, 15.26503
1067.890, 13.99419
1068.372, 12.56190
1068.854, 11.44167
1069.336, 11.77817
1069.818, 12.93088
1070.300, 12.47449
1070.782, 9.198940
1071.265, 6.848423
1071.747, 7.980995
1072.229, 9.464836
1072.711, 9.743790
1073.193, 9.124771
1073.675, 7.443668
1074.157, 5.312679
1074.639, 4.263737
1075.122, 4.858795
1075.604, 5.471718
1076.086, 5.334045
1076.568, 5.036236
1077.050, 4.898624
1077.532, 4.788383
1078.014, 4.581635
1078.496, 4.267693
1078.979, 3.803326
1079.461, 3.159115
1079.943, 2.738052
1080.425, 2.876110
1080.907, 3.109589
1081.389, 3.230469
1081.871, 3.283607
1082.353, 3.223606
1082.835, 3.167946
1083.318, 3.404518
1083.800, 3.990463
1084.282, 4.399063
1084.764, 4.129440
1085.246, 3.978920
1085.728, 4.929966
1086.210, 5.631973
1086.692, 4.383522
1087.175, 2.241776
1087.657, 1.253456
1088.139, 1.735767
1088.621, 2.320499
1089.103, 2.562939
1089.585, 2.659401
1090.067, 2.725872
1090.549, 2.646400
1091.031, 2.291431
1091.514, 1.754295
1091.996, 1.085682
1092.478, 0.3421970
1092.960, 0.1817090
1093.442, 0.5034750
1093.924, 0.3796350
1094.406, 0.7304840
1094.888, 1.831738
1095.370, 2.392178
1095.853, 2.482182
1096.335, 2.195370
1096.817, 1.621532
1097.299, 1.021851
1097.781, 0.3966290
1098.263, 7.5080998E-02
1098.745, 0.5286900
1099.227, 0.5875780
1099.709, 0.2333560
1100.192, 1.332569
1100.674, 2.184681
1101.156, 2.736755
1101.638, 3.014473
1102.120, 2.993286
1102.602, 2.805855
1103.084, 2.567539
1103.566, 2.083618
1104.049, 1.188568
1104.531, 9.4028004E-02
1105.013, 1.560730
1105.495, 3.154099
1105.977, 3.078087
1106.459, 0.8251080
1106.941, 0.8994940
1107.423, 1.571953
1107.906, 1.773075
1108.388, 1.192581
1108.870, 0.6579930
1109.352, 0.9545630
1109.834, 1.557278
1110.316, 1.387318
1110.798, 0.3257560
1111.280, 0.1124650
1111.762, 0.7091330
1112.245, 1.375996
1112.727, 1.626602
1113.209, 1.799057
1113.691, 2.173332
1114.173, 2.472256
1114.655, 2.240345
1115.137, 1.530556
1115.619, 1.064693
1116.102, 0.9124790
1116.584, 0.8881230
1117.066, 1.350662
1117.548, 1.373920
1118.030, 5.7170998E-02
1118.512, 1.283722
1118.994, 0.2711750
1119.476, 2.200451
1119.958, 2.877541
1120.441, 0.9306530
1120.923, 0.1618800
1121.405, 8.3199999E-04
1121.887, 0.1081810
1122.369, 0.4247170
1122.851, 0.5610050
1123.333, 0.8215870
1123.815, 2.750328
1124.297, 2.913044
1124.780, 1.098904
1125.262, 0.3895530
1125.744, 1.134575
1126.226, 1.701084
1126.708, 1.773041
1127.190, 1.792416
1127.672, 2.016155
1128.154, 2.229809
1128.636, 2.039417
1129.119, 2.308609
1129.601, 2.576797
1130.083, 2.621140
1130.565, 3.294449
1131.047, 3.626495
1131.529, 3.989857
1132.011, 4.556427
1132.493, 4.668694
1132.976, 3.524757
1133.458, 1.660709
1133.940, 0.5838280
1134.422, 0.2507780
1134.904, 0.1832350
1135.386, 0.3565480
1135.868, 0.7621000
1136.350, 1.387749
1136.833, 1.949585
1137.315, 2.265751
1137.797, 2.315605
1138.279, 1.796791
1138.761, 1.033138
1139.243, 1.308510
1139.725, 2.359837
1140.207, 3.061729
1140.689, 3.251007
1141.172, 3.222675
1141.654, 3.123577
1142.136, 3.216007
1142.618, 4.163750
1143.100, 5.020504
1143.582, 3.509560
1144.064, 0.9672280
1144.546, 0.2713810
1145.029, 1.203323
1145.511, 2.261818
1145.993, 2.948441
1146.475, 3.297565
1146.957, 3.286823
1147.439, 3.063396
1147.921, 2.622581
1148.403, 2.173012
1148.885, 1.759060
1149.368, 1.630848
1149.850, 2.502106
1150.332, 4.117977
1150.814, 5.221394
1151.296, 5.328819
1151.778, 4.583832
1152.260, 1.930214
1152.742, 0.2339970
1153.224, 1.6937001E-02
1153.707, 1.472294
1154.189, 2.908379
1154.671, 4.130165
1155.153, 4.839165
1155.635, 4.975590
1156.117, 4.830284
1156.599, 3.417549
1157.081, 3.246368
1157.563, 7.572121
1158.046, 10.71128
1158.528, 7.267220
1159.010, 1.717731
1159.492, 0.4529760
1159.974, 3.208889
1160.456, 4.657749
1160.938, 3.593891
1161.420, 2.751190
1161.903, 1.927158
1162.385, 1.768101
1162.867, 2.595852
1163.349, 3.833900
1163.831, 5.735977
1164.313, 7.620823
1164.795, 7.129139
1165.277, 3.751297
1165.760, 1.915905
1166.242, 2.146469
1166.724, 2.229614
1167.206, 1.775558
1167.688, 1.331692
1168.170, 1.176529
1168.652, 1.193584
1169.134, 1.287014
1169.616, 1.424213
1170.099, 1.190300
1170.581, 0.4424740
1171.063, 1.519260
1171.545, 4.737640
1172.027, 5.938435
1172.509, 3.830067
1172.991, 1.646484
1173.473, 1.897827
1173.956, 3.301281
1174.438, 3.659939
1174.920, 3.351925
1175.402, 3.866585
1175.884, 4.780830
1176.366, 4.023304
1176.848, 1.935894
1177.330, 1.314243
1177.813, 3.262768
1178.295, 5.146049
1178.777, 4.452068
1179.259, 2.719856
1179.741, 1.599087
1180.223, 0.9703370
1180.705, 0.6430930
1181.187, 0.7962570
1181.669, 2.145264
1182.151, 4.407936
1182.634, 5.665676
1183.116, 4.894157
1183.598, 3.586201
1184.080, 1.719963
1184.562, 0.6386070
1185.044, 2.264988
1185.526, 4.294197
1186.008, 4.086048
1186.490, 2.334919
1186.973, 1.189369
1187.455, 1.032963
1187.937, 0.8383260
1188.419, 1.7521000E-02
1188.901, 0.2751960
1189.383, 0.4042170
1189.865, 1.397919
1190.347, 2.864262
1190.830, 4.094627
1191.312, 4.204613
1191.794, 3.399326
1192.276, 2.668713
1192.758, 1.881134
1193.240, 1.711891
1193.722, 2.576775
1194.204, 2.643429
1194.687, 1.012386
1195.169, 0.2420730
1195.651, 2.341488
1196.133, 5.041035
1196.615, 4.336288
1197.097, 5.987480
1197.579, 6.166172
1198.061, 5.431282
1198.543, 5.765556
1199.026, 2.282143
1199.508, 0.7950670
1199.990, 3.165085
1200.472, 5.664516
1200.954, 5.282379
1201.436, 3.664864
1201.918, 3.333023
1202.400, 3.538559
1202.883, 2.372128
1203.365, 0.6570780
1203.847, 0.4683230
1204.329, 1.761971
1204.811, 3.383099
1205.293, 4.858707
1205.775, 5.681828
1206.257, 5.416748
1206.740, 4.497353
1207.222, 2.407120
1207.704, 0.6189080
1208.186, 0.7487870
1208.668, 1.902645
1209.150, 3.125729
1209.632, 4.009441
1210.114, 3.361042
1210.596, 0.1361730
1211.078, 1.723278
1211.561, 1.219532
1212.043, 3.825665
1212.525, 4.560402
1213.007, 4.566860
1213.489, 4.550587
1213.971, 4.313572
1214.453, 3.411392
1214.935, 1.908962
1215.417, 1.018570
1215.900, 0.8475950
1216.382, 0.9060290
1216.864, 1.200348
1217.346, 1.623119
1217.828, 2.210510
1218.310, 2.587337
1218.792, 2.449974
1219.274, 2.027729
1219.757, 1.710506
1220.239, 1.488148
1220.721, 1.218864
1221.203, 0.9805560
1221.685, 1.274525
1222.167, 2.055832
1222.649, 2.748821
1223.131, 3.156052
1223.614, 3.435249
1224.096, 3.861500
1224.578, 3.857224
1225.060, 2.124405
1225.542, 0.1809230
1226.024, 0.3413960
1226.506, 1.274845
1226.988, 0.2491040
1227.470, 2.006710
1227.953, 2.172470
1228.435, 0.8132060
1228.917, 2.964699
1229.399, 1.816540
1229.881, 0.9201580
1230.363, 1.899021
1230.845, 2.931896
1231.327, 2.747036
1231.810, 2.177731
1232.292, 2.523685
1232.774, 3.377842
1233.256, 2.926140
1233.738, 3.078201
1234.220, 3.115528
1234.702, 1.921394
1235.184, 2.600266
1235.667, 0.6516490
1236.149, 0.3561480
1236.631, 1.669308
1237.113, 4.245201
1237.595, 4.290070
1238.077, 2.799496
1238.559, 2.418930
1239.041, 3.021847
1239.523, 4.353695
1240.005, 6.097672
1240.488, 6.802845
1240.970, 6.276524
1241.452, 5.045273
1241.934, 3.360783
1242.416, 1.841259
1242.898, 0.6428990
1243.380, 0.3476640
1243.862, 2.703270
1244.344, 5.238762
1244.827, 4.668530
1245.309, 2.484512
1245.791, 1.266911
1246.273, 1.299091
1246.755, 1.702625
1247.237, 2.396145
1247.719, 3.020081
1248.201, 3.628624
1248.684, 3.737911
1249.166, 3.199562
1249.648, 2.764477
1250.130, 3.237820
1250.612, 3.816055
1251.094, 3.344189
1251.576, 2.035530
1252.058, 1.132381
1252.541, 0.6114730
1253.023, 0.6521870
1253.505, 1.305962
1253.987, 2.061798
1254.469, 2.806580
1254.951, 3.039822
1255.433, 2.440857
1255.915, 1.836819
1256.397, 2.471626
1256.880, 3.073872
1257.362, 3.352306
1257.844, 3.125488
1258.326, 3.186024
1258.808, 3.393764
1259.290, 3.063896
1259.772, 2.330585
1260.254, 2.334614
1260.737, 3.608021
1261.219, 4.926132
1261.701, 6.476936
1262.183, 7.182495
1262.665, 5.909935
1263.147, 4.317589
1263.629, 3.627010
1264.111, 3.348778
1264.594, 2.550816
1265.076, 1.478973
1265.558, 1.155354
1266.040, 1.815308
1266.522, 2.326672
1267.004, 2.747894
1267.486, 2.688030
1267.968, 1.925526
1268.450, 1.398827
1268.932, 1.601574
1269.415, 1.962215
1269.897, 1.906345
1270.379, 1.655487
1270.861, 1.893120
1271.343, 2.374012
1271.825, 2.056034
1272.307, 2.290024
1272.789, 2.320347
1273.271, 1.971897
1273.754, 2.192440
1274.236, 1.473476
1274.718, 1.027885
1275.200, 1.972313
1275.682, 2.910606
1276.164, 3.126610
1276.646, 2.999065
1277.128, 2.608940
1277.611, 2.196171
1278.093, 2.105896
1278.575, 1.585567
1279.057, 1.773888
1279.539, 0.7775690
1280.021, 0.1861990
1280.503, 0.1596110
1280.985, 0.5032350
1281.468, 2.712803
1281.950, 3.994263
1282.432, 3.293896
1282.914, 1.787136
1283.396, 0.2841950
1283.878, 5.6799999E-03
1284.360, 0.7162320
1284.842, 0.7988820
1285.324, 0.0000000E+00
##END=



