##NAMES=Iranite
##RRUFFID=R060781
##IDEAL CHEMISTRY=Pb_10_Cu(CrO_4_)_6_(SiO_4_)_2_(OH)_2_
##LOCALITY=Chapacase mine, Sierra Cerillos district, Tocopilla, Chile
##OWNER=RRUFF
##SOURCE=Michael Scott
##DESCRIPTION=Corroded aggregate of orange platy crystals associated with red wulfenite; structure type sample.
##STATUS=The identification of this mineral is confirmed by single-crystal X-ray diffraction and chemical analysis.
##URL=rruff.info/R060781
##MEASURED CHEMISTRY=Cu_1.00_Pb_10.00_((Cr_0.99_[box]_0.01_)_Σ=1_(O_3.82_(OH)_0.18_)_Σ=4_)_6_(Si_1.00_O_4_)_2_(OH)_2_
114.1069, 0.0000000E+00
114.5891, 116.9492
115.0712, 301.8203
115.5533, 429.4219
116.0354, 656.8984
116.5175, 687.3906
116.9996, 600.4873
117.4818, 372.8311
117.9639, 23.12793
118.4460, 161.8496
118.9281, 267.1768
119.4102, 330.9395
119.8923, 172.5303
120.3745, 265.0635
120.8566, 312.2324
121.3387, 251.7012
121.8208, 314.0332
122.3029, 121.1045
122.7850, 187.5576
123.2672, 152.6738
123.7493, 162.5322
124.2314, 72.91406
124.7135, 30.64062
125.1956, 94.81152
125.6777, 102.5049
126.1599, 26.37598
126.6420, 61.25879
127.1241, 108.1621
127.6062, 1.034180
128.0883, 132.6943
128.5704, 254.3398
129.0526, 319.2041
129.5347, 332.0059
130.0168, 320.7393
130.4989, 299.7139
130.9810, 265.0713
131.4631, 247.6582
131.9453, 261.5449
132.4274, 287.4678
132.9095, 328.5518
133.3916, 382.4268
133.8737, 424.6807
134.3558, 405.8242
134.8380, 264.3945
135.3201, 175.1455
135.8022, 176.7686
136.2843, 219.8135
136.7664, 257.6562
137.2485, 267.5205
137.7307, 263.1318
138.2128, 300.4150
138.6949, 443.0723
139.1770, 561.4355
139.6591, 621.7119
140.1412, 644.8066
140.6234, 667.8594
141.1055, 715.0264
141.5876, 786.3691
142.0697, 864.2334
142.5518, 960.0781
143.0339, 1053.323
143.5161, 1131.123
143.9982, 1194.263
144.4803, 1253.644
144.9624, 1318.448
145.4445, 1389.523
145.9266, 1467.306
146.4088, 1549.865
146.8909, 1639.294
147.3730, 1739.058
147.8551, 1850.086
148.3372, 1965.664
148.8193, 2075.088
149.3015, 2179.048
149.7836, 2283.840
150.2657, 2393.567
150.7478, 2506.907
151.2299, 2616.152
151.7120, 2719.274
152.1942, 2810.320
152.6763, 2887.345
153.1584, 2952.434
153.6405, 3012.462
154.1226, 3068.060
154.6047, 3116.325
155.0869, 3155.941
155.5690, 3185.894
156.0511, 3214.977
156.5332, 3238.264
157.0153, 3256.401
157.4974, 3276.082
157.9796, 3288.571
158.4617, 3299.278
158.9438, 3293.475
159.4259, 3268.240
159.9080, 3225.550
160.3901, 3162.731
160.8723, 3075.677
161.3544, 2976.153
161.8365, 2896.904
162.3186, 2859.752
162.8007, 2818.803
163.2828, 2771.247
163.7650, 2714.525
164.2471, 2642.871
164.7292, 2551.612
165.2113, 2443.152
165.6934, 2352.131
166.1755, 2323.073
166.6577, 2267.677
167.1398, 2137.044
167.6219, 1959.377
168.1040, 1797.877
168.5861, 1707.297
169.0682, 1695.743
169.5504, 1652.590
170.0325, 1558.676
170.5146, 1456.644
170.9967, 1367.458
171.4788, 1292.553
171.9609, 1255.866
172.4431, 1211.481
172.9252, 1157.298
173.4073, 1109.807
173.8894, 1078.632
174.3715, 1049.062
174.8536, 1007.349
175.3358, 950.3311
175.8179, 880.8975
176.3000, 812.1006
176.7821, 739.0083
177.2642, 683.8862
177.7463, 666.2534
178.2285, 666.8350
178.7106, 649.2559
179.1927, 602.0332
179.6748, 544.7324
180.1569, 499.5312
180.6390, 467.9346
181.1212, 438.4883
181.6033, 400.8735
182.0854, 358.7529
182.5675, 334.4834
183.0496, 345.7954
183.5317, 367.4902
184.0139, 371.0835
184.4960, 356.5435
184.9781, 329.1201
185.4602, 314.3013
185.9423, 307.7876
186.4244, 295.7861
186.9066, 262.3584
187.3887, 228.9609
187.8708, 213.2822
188.3529, 219.4688
188.8350, 236.2339
189.3171, 253.5005
189.7993, 273.9390
190.2814, 285.7012
190.7635, 286.1221
191.2456, 277.0210
191.7277, 254.8457
192.2098, 217.0283
192.6920, 174.0146
193.1741, 146.9268
193.6562, 141.5898
194.1383, 144.6177
194.6204, 161.6841
195.1025, 179.8662
195.5847, 186.3755
196.0668, 175.1978
196.5489, 151.0591
197.0310, 125.7783
197.5131, 84.10303
197.9952, 62.89697
198.4774, 84.82227
198.9595, 124.8403
199.4416, 147.5977
199.9237, 132.4575
200.4058, 89.38672
200.8879, 73.77246
201.3701, 118.8628
201.8522, 142.6846
202.3343, 165.0171
202.8164, 181.1284
203.2985, 192.7622
203.7806, 177.8301
204.2628, 205.3374
204.7449, 221.3872
205.2270, 239.9102
205.7091, 280.8965
206.1912, 280.7095
206.6733, 319.7148
207.1555, 346.3364
207.6376, 383.0698
208.1197, 405.0039
208.6018, 431.0757
209.0839, 472.2883
209.5660, 507.0540
210.0482, 527.9917
210.5303, 566.9595
211.0124, 579.2876
211.4945, 614.8403
211.9766, 656.1978
212.4588, 691.9307
212.9409, 720.9387
213.4230, 744.6182
213.9051, 764.5254
214.3872, 779.3516
214.8693, 794.3281
215.3515, 812.5540
215.8336, 835.4941
216.3157, 862.7773
216.7978, 905.2896
217.2799, 945.1904
217.7620, 960.8296
218.2442, 948.6587
218.7263, 936.7131
219.2084, 953.9065
219.6905, 999.7161
220.1726, 1039.861
220.6547, 1066.011
221.1369, 1071.624
221.6190, 1114.121
222.1011, 1148.083
222.5832, 1174.282
223.0653, 1170.311
223.5474, 1204.601
224.0296, 1223.175
224.5117, 1240.845
224.9938, 1279.776
225.4759, 1278.805
225.9580, 1316.895
226.4401, 1339.052
226.9223, 1368.160
227.4044, 1381.482
227.8865, 1399.383
228.3686, 1432.620
228.8507, 1424.129
229.3328, 1438.616
229.8150, 1467.667
230.2971, 1499.439
230.7792, 1529.417
231.2613, 1556.100
231.7434, 1566.279
232.2255, 1545.044
232.7077, 1500.747
233.1898, 1460.731
233.6719, 1428.457
234.1540, 1401.432
234.6361, 1376.325
235.1182, 1353.449
235.6004, 1334.624
236.0825, 1326.215
236.5646, 1324.864
237.0467, 1311.858
237.5288, 1280.600
238.0109, 1241.632
238.4931, 1198.691
238.9752, 1153.666
239.4573, 1114.975
239.9394, 1094.500
240.4215, 1089.735
240.9036, 1073.786
241.3858, 1040.721
241.8679, 998.7214
242.3500, 951.5166
242.8321, 899.9451
243.3142, 846.5151
243.7963, 791.3289
244.2785, 734.4902
244.7606, 683.1406
245.2427, 638.4639
245.7248, 599.7188
246.2069, 570.7380
246.6890, 549.1597
247.1712, 524.6226
247.6533, 484.9060
248.1354, 428.9951
248.6175, 382.0559
249.0996, 352.8938
249.5817, 325.6306
250.0639, 289.2769
250.5460, 246.1177
251.0281, 208.3889
251.5102, 191.7227
251.9923, 198.8872
252.4744, 194.7114
252.9566, 168.5049
253.4387, 138.5010
253.9208, 110.0913
254.4029, 83.65576
254.8850, 58.39160
255.3671, 30.79492
255.8493, 4.5410000E-02
256.3314, 17.95264
256.8135, 1.551758
257.2956, 13.43115
257.7777, 7.261719
258.2598, 55.63037
258.7419, 106.2378
259.2241, 131.8232
259.7062, 130.0166
260.1883, 139.7544
260.6704, 170.6968
261.1525, 206.6123
261.6346, 252.0210
262.1168, 299.3442
262.5989, 332.7896
263.0810, 332.0127
263.5631, 291.9736
264.0452, 274.5000
264.5273, 311.5137
265.0095, 342.5161
265.4916, 338.9082
265.9737, 310.1284
266.4558, 285.2700
266.9379, 304.2856
267.4200, 279.1201
267.9022, 261.9258
268.3843, 251.9497
268.8664, 272.0005
269.3485, 253.2651
269.8306, 249.7524
270.3127, 246.7075
270.7949, 222.0454
271.2770, 236.9712
271.7591, 212.5801
272.2412, 203.9292
272.7233, 188.1328
273.2054, 187.8721
273.6876, 182.7383
274.1697, 161.9414
274.6518, 149.4956
275.1339, 150.3960
275.6160, 133.5107
276.0981, 148.5337
276.5803, 135.7627
277.0624, 110.9331
277.5445, 111.1089
278.0266, 93.84180
278.5087, 74.23779
278.9908, 22.19092
279.4730, 14.53320
279.9551, 14.98877
280.4372, 21.11719
280.9193, 38.89453
281.4014, 68.70801
281.8835, 111.7275
282.3657, 171.1113
282.8478, 242.2446
283.3299, 294.9043
283.8120, 307.9165
284.2941, 326.2700
284.7762, 357.8120
285.2584, 399.4873
285.7405, 447.4185
286.2226, 500.1533
286.7047, 555.6079
287.1868, 607.6450
287.6689, 653.1997
288.1511, 698.2153
288.6332, 735.9272
289.1153, 775.8667
289.5974, 832.9023
290.0795, 914.9316
290.5616, 1009.861
291.0438, 1078.542
291.5259, 1091.822
292.0080, 1122.668
292.4901, 1184.165
292.9722, 1264.440
293.4543, 1354.858
293.9365, 1451.936
294.4186, 1550.871
294.9007, 1640.892
295.3828, 1718.894
295.8649, 1793.679
296.3470, 1861.981
296.8292, 1930.526
297.3113, 2004.850
297.7934, 2087.231
298.2755, 2174.013
298.7576, 2257.503
299.2397, 2332.665
299.7219, 2417.268
300.2040, 2530.521
300.6861, 2640.824
301.1682, 2720.679
301.6503, 2766.158
302.1324, 2802.053
302.6146, 2864.479
303.0967, 2966.999
303.5788, 3054.186
304.0609, 3117.584
304.5430, 3170.822
305.0251, 3218.165
305.5073, 3261.276
305.9894, 3301.943
306.4715, 3341.378
306.9536, 3378.356
307.4357, 3420.154
307.9178, 3458.683
308.4000, 3508.021
308.8821, 3581.771
309.3642, 3675.756
309.8463, 3770.577
310.3284, 3839.180
310.8105, 3877.910
311.2927, 3962.230
311.7748, 4120.810
312.2569, 4302.381
312.7390, 4488.593
313.2211, 4681.890
313.7032, 4893.867
314.1854, 5130.956
314.6675, 5395.870
315.1496, 5686.131
315.6317, 5978.872
316.1138, 6326.815
316.5959, 6749.469
317.0781, 7235.208
317.5602, 7760.868
318.0423, 8313.842
318.5244, 8894.289
319.0065, 9504.381
319.4886, 10134.17
319.9708, 10814.60
320.4529, 11539.48
320.9350, 12320.29
321.4171, 13172.55
321.8992, 14115.72
322.3813, 15114.42
322.8635, 16094.82
323.3456, 17037.32
323.8277, 18045.22
324.3098, 19184.96
324.7919, 20389.03
325.2740, 21606.36
325.7562, 22814.52
326.2383, 24051.09
326.7204, 25374.39
327.2025, 26787.70
327.6846, 28235.50
328.1667, 29682.79
328.6489, 31173.11
329.1310, 32727.87
329.6131, 34349.63
330.0952, 36034.01
330.5773, 37821.87
331.0594, 39704.15
331.5416, 41468.46
332.0237, 43050.98
332.5058, 44525.80
332.9879, 46016.45
333.4700, 47513.64
333.9521, 48850.25
334.4343, 49925.59
334.9164, 50767.82
335.3985, 51455.88
335.8806, 51987.92
336.3628, 52392.68
336.8449, 52706.42
337.3270, 52929.55
337.8091, 53038.64
338.2912, 52925.90
338.7733, 52721.83
339.2555, 52646.42
339.7376, 52720.21
340.2197, 52880.61
340.7018, 53093.03
341.1839, 53359.90
341.6660, 53694.54
342.1482, 54152.56
342.6303, 54645.54
343.1124, 55097.22
343.5945, 55506.82
344.0766, 55889.63
344.5587, 56288.94
345.0409, 56645.70
345.5230, 56835.00
346.0051, 56847.48
346.4872, 56704.79
346.9693, 56393.02
347.4514, 55929.05
347.9336, 55364.67
348.4157, 54694.49
348.8978, 53966.51
349.3799, 53280.66
349.8620, 52631.47
350.3441, 52020.03
350.8263, 51466.57
351.3084, 50945.12
351.7905, 50416.33
352.2726, 49864.04
352.7547, 49312.35
353.2368, 48813.90
353.7190, 48426.08
354.2011, 47902.89
354.6832, 47201.41
355.1653, 46365.91
355.6474, 45440.10
356.1295, 44429.41
356.6117, 43303.75
357.0938, 42022.34
357.5759, 40557.47
358.0580, 39063.90
358.5401, 37508.93
359.0222, 35958.76
359.5044, 34423.86
359.9865, 32923.22
360.4686, 31460.93
360.9507, 30054.37
361.4328, 28699.34
361.9149, 27430.62
362.3971, 26206.91
362.8792, 25098.25
363.3613, 24144.72
363.8434, 23318.14
364.3255, 22569.98
364.8076, 21875.58
365.2898, 21251.25
365.7719, 20758.39
366.2540, 20435.25
366.7361, 20207.90
367.2182, 20107.43
367.7003, 20072.08
368.1825, 20057.11
368.6646, 20046.54
369.1467, 20037.53
369.6288, 20039.22
370.1109, 20090.46
370.5930, 20039.33
371.0752, 19845.26
371.5573, 19583.65
372.0394, 19287.45
372.5215, 18962.27
373.0036, 18601.87
373.4857, 18184.28
373.9679, 17708.15
374.4500, 17262.95
374.9321, 16826.09
375.4142, 16454.69
375.8963, 16166.54
376.3784, 15958.04
376.8606, 15817.35
377.3427, 15740.98
377.8248, 15725.22
378.3069, 15768.58
378.7890, 15888.56
379.2711, 16021.80
379.7533, 16169.47
380.2354, 16308.17
380.7175, 16411.82
381.1996, 16480.59
381.6817, 16490.38
382.1638, 16410.21
382.6460, 16240.42
383.1281, 16009.09
383.6102, 15685.44
384.0923, 15333.26
384.5744, 15022.95
385.0565, 14752.91
385.5387, 14545.55
386.0208, 14422.04
386.5029, 14371.91
386.9850, 14380.27
387.4671, 14461.51
387.9492, 14559.78
388.4314, 14629.91
388.9135, 14673.56
389.3956, 14671.32
389.8777, 14619.58
390.3598, 14517.98
390.8419, 14354.05
391.3241, 14132.08
391.8062, 13889.98
392.2883, 13647.89
392.7704, 13408.91
393.2525, 13203.05
393.7346, 13036.63
394.2168, 12896.91
394.6989, 12775.62
395.1810, 12679.68
395.6631, 12618.34
396.1452, 12601.78
396.6273, 12617.89
397.1095, 12629.62
397.5916, 12666.17
398.0737, 12662.72
398.5558, 12601.77
399.0379, 12507.38
399.5201, 12410.86
400.0022, 12316.19
400.4843, 12189.64
400.9664, 11989.55
401.4485, 11709.12
401.9306, 11366.77
402.4128, 10924.98
402.8949, 10462.56
403.3770, 10014.07
403.8591, 9577.230
404.3412, 9134.749
404.8233, 8673.855
405.3055, 8194.271
405.7876, 7710.914
406.2697, 7215.247
406.7518, 6725.999
407.2339, 6234.454
407.7160, 5754.892
408.1982, 5302.976
408.6803, 4887.115
409.1624, 4502.177
409.6445, 4147.308
410.1266, 3827.257
410.6087, 3517.987
411.0909, 3217.501
411.5730, 2927.587
412.0551, 2645.291
412.5372, 2371.624
413.0193, 2122.180
413.5014, 1918.862
413.9836, 1752.399
414.4657, 1582.854
414.9478, 1398.562
415.4299, 1226.707
415.9120, 1091.085
416.3941, 985.2544
416.8763, 894.9937
417.3584, 831.2822
417.8405, 771.1592
418.3226, 685.0605
418.8047, 573.6436
419.2868, 470.3518
419.7690, 391.5706
420.2511, 335.7993
420.7332, 293.2368
421.2153, 275.9133
421.6974, 253.4453
422.1795, 207.3232
422.6617, 150.4224
423.1438, 104.6218
423.6259, 77.24512
424.1080, 59.74292
424.5901, 39.59204
425.0722, 14.35840
425.5544, 7.288330
426.0365, 27.39502
426.5186, 42.47583
427.0007, 47.07007
427.4828, 43.09326
427.9649, 38.12354
428.4471, 37.40723
428.9292, 41.03296
429.4113, 54.17529
429.8934, 92.65161
430.3755, 123.5408
430.8576, 137.5476
431.3398, 141.3347
431.8219, 142.9849
432.3040, 145.7605
432.7861, 151.2451
433.2682, 164.5098
433.7503, 189.5510
434.2325, 209.1826
434.7146, 221.2898
435.1967, 226.8508
435.6788, 219.6807
436.1609, 202.0254
436.6430, 192.4036
437.1252, 213.0750
437.6073, 256.5105
438.0894, 283.2961
438.5715, 287.4639
439.0536, 283.2725
439.5357, 279.8154
440.0179, 275.4004
440.5000, 280.4956
440.9821, 254.9258
441.4642, 236.9797
441.9463, 226.2285
442.4284, 245.0645
442.9106, 225.0747
443.3927, 220.2649
443.8748, 215.8220
444.3569, 189.6001
444.8390, 202.7559
445.3211, 176.3438
445.8033, 165.3584
446.2854, 146.9189
446.7675, 143.6064
447.2496, 135.0879
447.7317, 110.7473
448.2138, 94.73413
448.6960, 91.91064
449.1781, 70.93250
449.6602, 81.43982
450.1423, 63.79517
450.6244, 33.88196
451.1065, 28.89465
451.5887, 6.383423
452.0708, 9.826294
452.5529, 3.520142
453.0350, 35.57654
453.5171, 52.47742
453.9992, 46.55273
454.4814, 84.81750
454.9635, 82.83716
455.4456, 95.86462
455.9277, 120.2111
456.4098, 133.4220
456.8919, 164.7958
457.3741, 179.1055
457.8562, 194.4885
458.3383, 186.4471
458.8204, 220.1149
459.3025, 245.7914
459.7846, 263.7814
460.2668, 251.6764
460.7489, 277.9199
461.2310, 288.5085
461.7131, 298.2660
462.1952, 329.3434
462.6773, 320.5742
463.1595, 350.9102
463.6416, 365.3511
464.1237, 386.7661
464.6058, 392.4119
465.0879, 402.6448
465.5700, 411.1217
466.0522, 410.5930
466.5343, 420.7678
467.0164, 444.6458
467.4985, 475.7930
467.9806, 509.7817
468.4627, 547.2773
468.9449, 576.0535
469.4270, 592.7126
469.9091, 605.6715
470.3912, 615.4414
470.8733, 624.2657
471.3554, 634.9702
471.8376, 648.8523
472.3197, 666.0551
472.8018, 687.3446
473.2839, 715.2230
473.7660, 741.8350
474.2481, 765.5814
474.7303, 788.9166
475.2124, 811.3788
475.6945, 834.1846
476.1766, 861.7357
476.6587, 900.0024
477.1408, 946.6743
477.6230, 989.2595
478.1051, 1010.697
478.5872, 1057.721
479.0693, 1096.693
479.5514, 1128.034
480.0335, 1129.356
480.5157, 1169.093
480.9978, 1193.249
481.4799, 1216.678
481.9620, 1261.554
482.4441, 1266.682
482.9262, 1310.922
483.4084, 1339.161
483.8905, 1374.190
484.3726, 1393.267
484.8547, 1416.897
485.3368, 1456.063
485.8189, 1467.375
486.3011, 1487.296
486.7832, 1505.178
487.2653, 1518.990
487.7474, 1527.061
488.2295, 1528.996
488.7116, 1523.640
489.1938, 1502.048
489.6759, 1484.820
490.1580, 1476.765
490.6401, 1471.366
491.1222, 1462.862
491.6043, 1449.393
492.0865, 1432.394
492.5686, 1413.083
493.0507, 1391.894
493.5328, 1369.419
494.0149, 1346.815
494.4970, 1322.340
494.9792, 1291.722
495.4613, 1256.158
495.9434, 1221.878
496.4255, 1194.404
496.9076, 1166.695
497.3897, 1127.865
497.8719, 1078.600
498.3540, 1029.061
498.8361, 982.6547
499.3182, 940.9920
499.8003, 907.6786
500.2824, 880.7248
500.7646, 855.8466
501.2467, 831.3831
501.7288, 806.4553
502.2109, 784.3859
502.6930, 761.2648
503.1751, 729.7142
503.6573, 679.4856
504.1394, 616.3186
504.6215, 570.0739
505.1036, 557.2935
505.5857, 542.1635
506.0678, 513.6512
506.5500, 483.0673
507.0321, 464.3735
507.5142, 458.1365
507.9963, 459.0188
508.4784, 461.9316
508.9605, 466.3352
509.4427, 459.3851
509.9248, 429.7451
510.4069, 400.2256
510.8890, 387.9342
511.3711, 383.0082
511.8532, 368.2764
512.3353, 336.3004
512.8174, 301.5900
513.2996, 285.6486
513.7817, 287.8550
514.2638, 295.9939
514.7459, 313.0288
515.2280, 327.1229
515.7101, 318.9758
516.1923, 288.4216
516.6744, 268.5231
517.1565, 271.6641
517.6386, 282.9362
518.1207, 290.3480
518.6028, 294.7296
519.0850, 298.0812
519.5671, 301.6749
520.0492, 306.2839
520.5313, 311.3999
521.0134, 318.1149
521.4955, 325.9897
521.9777, 337.1151
522.4598, 347.8655
522.9419, 354.5269
523.4240, 357.4789
523.9061, 360.8347
524.3882, 369.9330
524.8704, 384.0017
525.3525, 391.5798
525.8346, 388.1637
526.3167, 386.5000
526.7988, 394.3508
527.2809, 405.1451
527.7631, 383.2491
528.2452, 398.4723
528.7273, 405.7523
529.2094, 405.5350
529.6915, 375.4317
530.1736, 383.8740
530.6558, 376.8682
531.1379, 369.3026
531.6200, 383.2864
532.1021, 357.6052
532.5842, 371.1512
533.0663, 368.9384
533.5485, 373.8712
534.0306, 363.2162
534.5127, 357.3082
534.9948, 366.8713
535.4769, 367.7316
535.9590, 355.0570
536.4412, 342.5082
536.9233, 308.2103
537.4054, 281.8840
537.8875, 270.6920
538.3696, 260.2596
538.8517, 241.7971
539.3339, 218.9617
539.8160, 201.5165
540.2981, 195.6725
540.7802, 196.8802
541.2623, 199.1546
541.7444, 203.4547
542.2266, 197.9509
542.7087, 171.7737
543.1908, 141.4809
543.6729, 127.4174
544.1550, 129.9766
544.6371, 131.2848
545.1193, 122.4249
545.6014, 111.3417
546.0835, 106.8464
546.5656, 108.7330
547.0477, 112.4700
547.5298, 116.2836
548.0120, 118.4830
548.4941, 113.5122
548.9762, 87.84369
549.4583, 72.95062
549.9404, 80.86316
550.4225, 91.36969
550.9047, 86.56714
551.3868, 66.92517
551.8689, 46.34186
552.3510, 36.01721
552.8331, 34.55249
553.3152, 35.28546
553.7974, 40.77954
554.2795, 42.53943
554.7616, 31.43262
555.2437, 18.06207
555.7258, 14.30267
556.2079, 23.06995
556.6901, 31.06433
557.1722, 28.53784
557.6543, 20.06744
558.1364, 12.71143
558.6185, 7.331665
559.1006, 7.842834
559.5828, 19.53473
560.0649, 39.99524
560.5470, 50.15289
561.0291, 44.55103
561.5112, 37.33557
561.9933, 28.26483
562.4755, 20.50330
562.9576, 20.41040
563.4397, 27.80731
563.9218, 32.48590
564.4039, 20.62769
564.8860, 7.678040
565.3682, 19.59796
565.8503, 5.588562
566.3324, 10.71570
566.8145, 26.23291
567.2966, 36.86700
567.7787, 35.48425
568.2609, 18.49890
568.7430, 0.1885990
569.2251, 8.947693
569.7072, 10.31738
570.1893, 13.07062
570.6714, 19.33105
571.1536, 20.90375
571.6357, 7.256714
572.1178, 19.50830
572.5999, 29.31213
573.0820, 6.052551
573.5641, 13.94269
574.0463, 16.49304
574.5284, 10.22394
575.0105, 6.920837
575.4926, 9.322449
575.9747, 11.18530
576.4568, 3.861145
576.9390, 13.81348
577.4211, 23.45459
577.9032, 21.91516
578.3853, 16.18134
578.8674, 3.448914
579.3495, 9.546448
579.8317, 13.03778
580.3138, 3.133484
580.7959, 9.988159
581.2781, 19.73706
581.7602, 25.66345
582.2423, 24.19250
582.7244, 13.42188
583.2065, 4.111877
583.6887, 6.401611
584.1708, 19.37036
584.6529, 27.57196
585.1350, 29.66125
585.6171, 28.80444
586.0992, 22.30389
586.5814, 15.05670
587.0635, 14.21313
587.5456, 21.00220
588.0277, 29.25067
588.5098, 30.96606
588.9919, 25.88159
589.4741, 29.09149
589.9562, 48.48206
590.4383, 63.88214
590.9204, 64.77429
591.4025, 59.61340
591.8846, 58.69946
592.3668, 64.74765
592.8489, 72.45441
593.3310, 79.57611
593.8131, 85.16736
594.2952, 86.55533
594.7773, 83.31705
595.2595, 77.89062
595.7416, 70.18948
596.2237, 61.62592
596.7058, 63.89188
597.1879, 88.92789
597.6700, 107.6924
598.1522, 111.4869
598.6343, 108.8889
599.1164, 108.1979
599.5985, 110.6107
600.0806, 111.8806
600.5627, 106.5067
601.0449, 96.41132
601.5270, 95.64636
602.0091, 107.5269
602.4912, 121.0715
602.9733, 136.4478
603.4554, 149.1000
603.9376, 151.8382
604.4197, 142.6165
604.9018, 137.7866
605.3839, 153.9279
605.8660, 174.7793
606.3481, 173.4694
606.8303, 151.0219
607.3124, 135.5930
607.7945, 146.0715
608.2766, 173.3232
608.7587, 187.1925
609.2408, 175.5368
609.7230, 167.5999
610.2051, 164.7004
610.6872, 164.7803
611.1693, 166.9425
611.6514, 170.8146
612.1335, 176.3242
612.6157, 184.4494
613.0978, 192.8601
613.5799, 194.9501
614.0620, 189.9203
614.5441, 188.8448
615.0262, 196.1422
615.5084, 207.0938
615.9905, 215.9743
616.4726, 222.8148
616.9547, 231.8801
617.4368, 248.6223
617.9189, 263.8115
618.4011, 268.3359
618.8832, 266.1670
619.3653, 268.3149
619.8474, 279.3578
620.3295, 292.4066
620.8116, 295.5279
621.2938, 286.2163
621.7759, 276.4453
622.2580, 260.5297
622.7401, 250.1931
623.2222, 250.9900
623.7043, 260.4802
624.1865, 274.3363
624.6686, 292.3520
625.1507, 295.9871
625.6328, 319.2929
626.1149, 334.7185
626.5970, 342.5998
627.0792, 320.5233
627.5613, 337.0305
628.0434, 338.1719
628.5255, 338.5494
629.0076, 360.4268
629.4897, 342.8959
629.9719, 365.0255
630.4540, 371.5121
630.9361, 385.1573
631.4182, 383.1166
631.9003, 385.8246
632.3824, 404.3224
632.8646, 414.2262
633.3467, 410.6057
633.8288, 424.7762
634.3109, 407.3256
634.7930, 417.9716
635.2751, 440.6831
635.7573, 438.2620
636.2394, 453.2505
636.7215, 441.0127
637.2036, 442.3122
637.6857, 446.6426
638.1678, 451.6874
638.6500, 453.8734
639.1321, 454.6822
639.6142, 460.8159
640.0963, 476.0358
640.5784, 494.5225
641.0605, 503.7250
641.5427, 496.8200
642.0248, 500.4701
642.5069, 524.9430
642.9890, 550.0620
643.4711, 571.5073
643.9532, 587.0292
644.4354, 591.5024
644.9175, 579.4504
645.3996, 566.5850
645.8817, 566.9395
646.3638, 578.1741
646.8459, 594.8829
647.3281, 616.4670
647.8102, 639.2333
648.2923, 660.7347
648.7744, 680.5881
649.2565, 695.8834
649.7386, 699.7747
650.2208, 708.2441
650.7029, 729.6143
651.1850, 752.4276
651.6671, 766.2796
652.1492, 770.5154
652.6313, 770.9083
653.1135, 769.7900
653.5956, 768.8636
654.0777, 774.4581
654.5598, 787.5779
655.0419, 799.0226
655.5240, 804.0297
656.0062, 807.4680
656.4883, 818.0248
656.9704, 836.4643
657.4525, 849.4084
657.9346, 849.1317
658.4167, 848.7673
658.8989, 857.2412
659.3810, 871.5328
659.8631, 884.2583
660.3452, 893.0639
660.8273, 899.2582
661.3094, 904.1974
661.7916, 906.9449
662.2737, 912.0225
662.7558, 921.2580
663.2379, 929.3982
663.7200, 934.7517
664.2021, 937.5738
664.6843, 939.4046
665.1664, 940.2219
665.6485, 940.6360
666.1306, 938.8663
666.6127, 937.8078
667.0948, 939.9436
667.5770, 945.9893
668.0591, 959.1575
668.5412, 982.5862
669.0233, 1009.290
669.5054, 1019.266
669.9875, 1002.766
670.4697, 994.0997
670.9518, 1000.173
671.4339, 1009.093
671.9160, 1018.103
672.3981, 1026.391
672.8802, 1031.459
673.3624, 1030.114
673.8445, 1029.201
674.3266, 1035.405
674.8087, 1045.316
675.2908, 1052.349
675.7729, 1055.902
676.2551, 1061.253
676.7372, 1073.555
677.2193, 1091.486
677.7014, 1101.417
678.1835, 1088.969
678.6656, 1088.254
679.1478, 1112.829
679.6299, 1141.468
680.1120, 1156.398
680.5941, 1158.624
681.0762, 1162.550
681.5583, 1180.754
682.0405, 1204.090
682.5226, 1213.179
683.0047, 1209.105
683.4868, 1211.611
683.9689, 1227.838
684.4510, 1249.184
684.9332, 1265.529
685.4153, 1262.746
685.8974, 1297.452
686.3795, 1324.257
686.8616, 1343.791
687.3438, 1334.048
687.8259, 1363.817
688.3080, 1378.642
688.7901, 1392.841
689.2722, 1428.104
689.7543, 1422.595
690.2365, 1455.167
690.7186, 1471.981
691.2007, 1497.045
691.6828, 1507.531
692.1649, 1522.822
692.6470, 1553.296
693.1292, 1574.996
693.6113, 1583.164
694.0934, 1608.982
694.5755, 1602.286
695.0576, 1622.850
695.5397, 1655.136
696.0219, 1662.037
696.5040, 1685.638
696.9861, 1701.594
697.4682, 1686.666
697.9503, 1696.735
698.4324, 1713.223
698.9146, 1722.575
699.3967, 1722.732
699.8788, 1724.033
700.3609, 1732.736
700.8430, 1745.459
701.3251, 1755.047
701.8073, 1760.627
702.2894, 1763.333
702.7715, 1763.370
703.2536, 1761.001
703.7357, 1756.599
704.2178, 1749.670
704.7000, 1738.453
705.1821, 1722.426
705.6642, 1705.346
706.1463, 1692.957
706.6284, 1684.732
707.1105, 1674.874
707.5927, 1662.916
708.0748, 1649.381
708.5569, 1635.772
709.0390, 1620.803
709.5211, 1600.509
710.0032, 1572.116
710.4854, 1547.721
710.9675, 1535.426
711.4496, 1522.791
711.9317, 1497.003
712.4138, 1463.778
712.8959, 1438.738
713.3781, 1429.287
713.8602, 1424.664
714.3423, 1409.127
714.8244, 1382.959
715.3065, 1356.825
715.7886, 1331.562
716.2708, 1305.180
716.7529, 1257.041
717.2350, 1254.025
717.7171, 1242.771
718.1992, 1223.688
718.6813, 1174.372
719.1635, 1163.255
719.6456, 1136.297
720.1277, 1108.334
720.6098, 1101.535
721.0919, 1054.731
721.5740, 1046.860
722.0562, 1022.924
722.5383, 1005.782
723.0204, 972.7031
723.5025, 942.6307
723.9846, 910.8052
724.4667, 878.5678
724.9489, 846.9798
725.4310, 817.3131
725.9131, 793.3139
726.3952, 778.9514
726.8773, 761.1990
727.3594, 732.4446
727.8416, 704.0771
728.3237, 689.1537
728.8058, 681.0856
729.2879, 662.2177
729.7700, 623.9596
730.2521, 577.8214
730.7343, 535.3345
731.2164, 497.6130
731.6985, 479.0144
732.1806, 485.7875
732.6627, 488.9088
733.1448, 470.8197
733.6270, 437.3386
734.1091, 404.0516
734.5912, 370.7437
735.0733, 337.9639
735.5554, 303.3231
736.0375, 271.2308
736.5197, 246.4587
737.0018, 226.1812
737.4839, 205.2469
737.9660, 181.8667
738.4481, 153.5759
738.9302, 111.6975
739.4124, 61.83154
739.8945, 29.48389
740.3766, 17.81934
740.8587, 9.142822
741.3408, 4.634766
741.8229, 23.28540
742.3051, 47.32007
742.7872, 81.39795
743.2693, 110.7292
743.7514, 129.7803
744.2335, 149.6838
744.7156, 178.9587
745.1978, 211.8042
745.6799, 238.5364
746.1620, 256.3796
746.6441, 267.6697
747.1262, 267.4858
747.6083, 264.5017
748.0905, 282.2771
748.5726, 320.5884
749.0547, 356.2019
749.5368, 377.7715
750.0189, 391.1919
750.5010, 407.5574
750.9832, 428.8457
751.4653, 446.5435
751.9474, 456.6951
752.4295, 467.3745
752.9116, 483.3916
753.3937, 499.6121
753.8759, 509.4829
754.3580, 511.2720
754.8401, 510.7917
755.3222, 513.4578
755.8043, 515.0935
756.2864, 507.5144
756.7686, 493.7866
757.2507, 488.3604
757.7328, 497.0020
758.2149, 506.8799
758.6970, 499.1306
759.1791, 472.8022
759.6613, 448.9531
760.1434, 430.9780
760.6255, 409.2959
761.1076, 377.7056
761.5897, 342.9800
762.0718, 308.8589
762.5540, 276.0708
763.0361, 251.8555
763.5182, 255.6074
764.0003, 252.3647
764.4824, 209.7256
764.9645, 144.0103
765.4467, 88.15088
765.9288, 49.14160
766.4109, 9.479492
766.8930, 49.15283
767.3751, 122.8506
767.8572, 195.9062
768.3394, 266.6768
768.8215, 343.9136
769.3036, 436.2163
769.7857, 527.1401
770.2678, 595.5288
770.7499, 644.3955
771.2321, 700.7178
771.7142, 781.9448
772.1963, 851.5942
772.6784, 878.1641
773.1605, 901.7144
773.6426, 967.6279
774.1248, 1074.081
774.6069, 1186.404
775.0890, 1288.945
775.5711, 1375.490
776.0532, 1425.174
776.5353, 1444.108
777.0175, 1478.538
777.4996, 1537.631
777.9817, 1602.538
778.4638, 1659.696
778.9459, 1711.181
779.4280, 1771.234
779.9102, 1846.832
780.3923, 1919.734
780.8744, 1977.317
781.3565, 2043.810
781.8386, 2137.671
782.3207, 2250.547
782.8029, 2361.756
783.2850, 2462.627
783.7671, 2569.144
784.2492, 2694.986
784.7313, 2834.342
785.2134, 2979.719
785.6956, 3130.003
786.1777, 3284.568
786.6598, 3442.539
787.1419, 3605.857
787.6240, 3774.852
788.1061, 3946.406
788.5883, 4134.351
789.0704, 4333.876
789.5525, 4559.834
790.0346, 4829.940
790.5167, 5125.758
790.9988, 5418.668
791.4810, 5699.456
791.9631, 6024.546
792.4452, 6437.390
792.9273, 6865.172
793.4094, 7244.703
793.8915, 7614.803
794.3737, 8033.919
794.8558, 8518.082
795.3379, 9057.082
795.8200, 9650.073
796.3021, 10286.05
796.7842, 10928.29
797.2664, 11578.99
797.7485, 12270.50
798.2306, 13011.20
798.7127, 13788.71
799.1948, 14594.46
799.6769, 15423.76
800.1591, 16289.51
800.6412, 17232.51
801.1233, 18156.94
801.6054, 19049.35
802.0875, 19935.22
802.5696, 20824.72
803.0518, 21727.43
803.5339, 22654.89
804.0160, 23628.24
804.4981, 24605.00
804.9802, 25586.90
805.4623, 26531.10
805.9445, 27362.26
806.4266, 28074.56
806.9087, 28710.83
807.3908, 29294.63
807.8729, 29814.97
808.3550, 30246.33
808.8372, 30583.40
809.3193, 30862.63
809.8014, 31108.13
810.2835, 31244.93
810.7656, 31216.32
811.2477, 31063.48
811.7299, 30868.46
812.2120, 30637.22
812.6941, 30343.61
813.1762, 29943.69
813.6583, 29522.15
814.1404, 29128.96
814.6226, 28738.69
815.1047, 28309.89
815.5868, 27832.93
816.0689, 27324.19
816.5510, 26766.00
817.0331, 26200.95
817.5153, 25713.27
817.9974, 25289.31
818.4795, 24858.77
818.9616, 24402.93
819.4437, 23947.50
819.9258, 23520.78
820.4080, 23120.63
820.8901, 22734.03
821.3722, 22350.30
821.8543, 22004.97
822.3364, 21693.61
822.8185, 21439.21
823.3007, 21257.94
823.7828, 21143.21
824.2649, 21080.12
824.7470, 21076.87
825.2291, 21104.04
825.7112, 21137.59
826.1934, 21206.73
826.6755, 21332.56
827.1576, 21518.50
827.6397, 21765.69
828.1218, 22074.72
828.6039, 22441.35
829.0861, 22874.41
829.5682, 23361.87
830.0503, 23835.92
830.5324, 24294.38
831.0145, 24825.58
831.4966, 25470.74
831.9788, 26194.52
832.4609, 26942.99
832.9430, 27720.93
833.4251, 28499.14
833.9072, 29250.21
834.3893, 30045.68
834.8715, 30921.83
835.3536, 31829.49
835.8357, 32729.11
836.3178, 33622.48
836.7999, 34529.25
837.2820, 35480.36
837.7642, 36412.54
838.2463, 37249.93
838.7284, 38074.43
839.2105, 39002.88
839.6926, 40023.67
840.1747, 41024.08
840.6569, 41943.08
841.1390, 42810.16
841.6211, 43686.23
842.1032, 44557.94
842.5853, 45365.63
843.0674, 46103.13
843.5496, 46804.12
844.0317, 47503.84
844.5138, 48157.67
844.9959, 48690.57
845.4780, 49090.92
845.9601, 49407.74
846.4423, 49666.66
846.9244, 49805.55
847.4065, 49753.64
847.8886, 49611.60
848.3707, 49476.11
848.8528, 49353.44
849.3350, 49207.21
849.8171, 49018.58
850.2992, 48810.63
850.7813, 48574.03
851.2634, 48339.09
851.7455, 48136.38
852.2277, 47977.85
852.7098, 47887.62
853.1919, 47891.51
853.6740, 47939.04
854.1561, 47932.72
854.6382, 47889.98
855.1204, 47919.73
855.6025, 48037.63
856.0846, 48173.94
856.5667, 48306.37
857.0488, 48396.15
857.5309, 48355.58
858.0131, 48153.06
858.4952, 47948.11
858.9773, 47797.65
859.4594, 47559.38
859.9415, 47158.02
860.4236, 46663.96
860.9058, 46167.16
861.3879, 45667.79
861.8700, 45058.16
862.3521, 44280.29
862.8342, 43419.59
863.3163, 42515.76
863.7985, 41555.90
864.2806, 40530.61
864.7627, 39440.11
865.2448, 38315.46
865.7269, 37182.18
866.2090, 35986.51
866.6912, 34623.29
867.1733, 33141.47
867.6554, 31687.24
868.1375, 30275.66
868.6196, 28826.43
869.1017, 27287.16
869.5839, 25724.50
870.0660, 24260.65
870.5481, 22908.00
871.0302, 21550.56
871.5123, 20155.01
871.9944, 18814.92
872.4766, 17569.62
872.9587, 16396.84
873.4408, 15259.08
873.9229, 14155.19
874.4050, 13174.79
874.8871, 12387.03
875.3693, 11643.94
875.8514, 10917.46
876.3335, 10203.58
876.8156, 9460.017
877.2977, 8717.107
877.7798, 8071.221
878.2620, 7572.593
878.7441, 7144.080
879.2262, 6719.461
879.7083, 6328.326
880.1904, 6029.138
880.6725, 5806.342
881.1547, 5595.450
881.6368, 5368.231
882.1189, 5150.004
882.6010, 4975.131
883.0831, 4841.028
883.5652, 4722.326
884.0474, 4620.730
884.5295, 4511.383
885.0116, 4382.707
885.4937, 4259.177
885.9758, 4167.902
886.4579, 4105.808
886.9401, 4041.979
887.4222, 3984.650
887.9043, 3907.635
888.3864, 3797.733
888.8685, 3682.852
889.3506, 3566.914
889.8328, 3455.993
890.3149, 3367.906
890.7970, 3317.204
891.2791, 3243.261
891.7612, 3112.713
892.2433, 2963.568
892.7255, 2798.911
893.2076, 2642.196
893.6897, 2534.810
894.1718, 2483.522
894.6539, 2456.887
895.1360, 2437.574
895.6182, 2422.771
896.1003, 2403.316
896.5824, 2386.896
897.0645, 2396.423
897.5466, 2434.920
898.0287, 2486.852
898.5109, 2538.640
898.9930, 2605.974
899.4751, 2730.738
899.9572, 2916.488
900.4393, 3107.742
900.9214, 3300.005
901.4036, 3507.037
901.8857, 3738.451
902.3678, 3984.495
902.8499, 4226.860
903.3320, 4462.808
903.8141, 4720.668
904.2963, 5012.769
904.7784, 5312.282
905.2605, 5617.396
905.7426, 5926.174
906.2247, 6231.373
906.7068, 6535.384
907.1890, 6850.958
907.6711, 7203.020
908.1532, 7524.616
908.6353, 7789.776
909.1174, 8008.454
909.5995, 8180.931
910.0817, 8316.762
910.5638, 8438.636
911.0459, 8553.435
911.5280, 8633.088
912.0101, 8658.560
912.4922, 8628.492
912.9744, 8524.089
913.4565, 8361.120
913.9386, 8196.223
914.4207, 8044.339
914.9028, 7881.926
915.3849, 7685.830
915.8671, 7467.572
916.3492, 7260.745
916.8313, 7066.815
917.3134, 6847.951
917.7955, 6589.475
918.2776, 6340.714
918.7598, 6137.592
919.2419, 5949.197
919.7240, 5715.190
920.2061, 5423.741
920.6882, 5137.514
921.1703, 4863.833
921.6525, 4587.163
922.1346, 4298.306
922.6167, 4008.969
923.0988, 3732.192
923.5809, 3466.812
924.0630, 3199.062
924.5452, 2928.874
925.0273, 2655.747
925.5094, 2372.035
925.9915, 2093.506
926.4736, 1837.233
926.9557, 1596.380
927.4379, 1349.963
927.9200, 1089.454
928.4021, 856.2373
928.8842, 695.1172
929.3663, 562.3286
929.8484, 400.3730
930.3306, 225.6021
930.8127, 81.06689
931.2948, 24.98486
931.7769, 113.7412
932.2590, 198.5020
932.7411, 281.2275
933.2233, 373.4795
933.7054, 468.7966
934.1875, 524.6079
934.6696, 536.2295
935.1517, 543.3118
935.6339, 566.0425
936.1160, 596.8269
936.5981, 625.7327
937.0802, 653.2083
937.5623, 668.8994
938.0444, 670.5996
938.5266, 668.2078
939.0087, 663.0156
939.4908, 657.0854
939.9729, 653.8186
940.4550, 652.2981
940.9371, 645.0256
941.4193, 628.8516
941.9014, 611.4146
942.3835, 592.6755
942.8656, 573.2295
943.3477, 558.4963
943.8298, 540.8840
944.3120, 503.7690
944.7941, 443.3660
945.2762, 398.7908
945.7583, 397.0925
946.2404, 396.3550
946.7225, 374.5952
947.2047, 343.3552
947.6868, 314.2649
948.1689, 288.7185
948.6510, 264.1741
949.1331, 241.1216
949.6152, 213.5581
950.0974, 172.3579
950.5795, 126.5305
951.0616, 89.89502
951.5437, 59.67603
952.0258, 24.40698
952.5079, 19.25391
952.9901, 62.23267
953.4722, 94.15527
953.9543, 120.6564
954.4364, 156.6829
954.9185, 199.8596
955.4006, 235.8538
955.8828, 262.3182
956.3649, 287.2103
956.8470, 315.4755
957.3291, 345.4255
957.8112, 372.2119
958.2933, 395.2122
958.7755, 425.7332
959.2576, 465.3416
959.7397, 505.6661
960.2218, 545.2378
960.7039, 581.7650
961.1860, 615.0422
961.6682, 643.7521
962.1503, 651.4449
962.6324, 616.3882
963.1145, 605.6340
963.5966, 637.7625
964.0787, 679.5424
964.5609, 717.7703
965.0430, 752.2958
965.5251, 783.2415
966.0072, 811.1542
966.4893, 832.3952
966.9714, 843.4708
967.4536, 852.0851
967.9357, 854.8228
968.4178, 860.4031
968.8999, 879.1421
969.3820, 908.3237
969.8641, 935.5664
970.3463, 956.1914
970.8284, 976.9595
971.3105, 1001.849
971.7926, 1027.347
972.2747, 1048.812
972.7568, 1069.409
973.2390, 1096.559
973.7211, 1130.971
974.2032, 1163.166
974.6853, 1186.511
975.1674, 1205.086
975.6495, 1219.513
976.1317, 1233.779
976.6138, 1240.624
977.0959, 1284.296
977.5780, 1319.709
978.0601, 1347.291
978.5422, 1344.653
979.0244, 1380.219
979.5065, 1399.975
979.9886, 1418.739
980.4707, 1458.663
980.9528, 1458.581
981.4349, 1497.451
981.9171, 1520.270
982.3992, 1549.918
982.8813, 1563.658
983.3634, 1581.847
983.8455, 1615.236
984.3276, 1639.673
984.8098, 1650.204
985.2919, 1678.181
985.7740, 1674.004
986.2561, 1697.377
986.7382, 1732.433
987.2203, 1741.977
987.7025, 1768.466
988.1846, 1788.015
988.6667, 1777.264
989.1488, 1817.674
989.6309, 1833.667
990.1130, 1823.897
990.5952, 1854.729
991.0773, 1840.648
991.5594, 1836.135
992.0415, 1839.019
992.5236, 1828.934
993.0057, 1835.364
993.4879, 1822.274
993.9700, 1804.963
994.4521, 1791.607
994.9342, 1756.437
995.4163, 1742.811
995.8984, 1732.480
996.3806, 1717.933
996.8627, 1693.804
997.3448, 1668.600
997.8269, 1647.441
998.3090, 1626.531
998.7911, 1599.653
999.2733, 1567.358
999.7554, 1539.983
1000.237, 1524.996
1000.720, 1509.710
1001.202, 1494.264
1001.684, 1471.664
1002.166, 1429.604
1002.648, 1380.156
1003.130, 1345.993
1003.612, 1331.597
1004.094, 1317.990
1004.577, 1293.531
1005.059, 1270.303
1005.541, 1262.574
1006.023, 1258.309
1006.505, 1238.645
1006.987, 1205.263
1007.469, 1174.995
1007.951, 1157.208
1008.433, 1142.477
1008.916, 1121.599
1009.398, 1097.576
1009.880, 1071.136
1010.362, 1047.113
1010.844, 1037.036
1011.326, 1041.023
1011.808, 1045.197
1012.290, 1039.598
1012.773, 1031.518
1013.255, 1032.400
1013.737, 1037.341
1014.219, 1034.039
1014.701, 1023.533
1015.183, 1015.232
1015.665, 1012.489
1016.147, 1010.806
1016.629, 1005.388
1017.112, 998.6052
1017.594, 997.9445
1018.076, 1001.503
1018.558, 997.2635
1019.040, 983.9520
1019.522, 971.0811
1020.004, 963.2139
1020.486, 956.9374
1020.969, 949.5173
1021.451, 942.6691
1021.933, 940.1891
1022.415, 941.8914
1022.897, 948.4336
1023.379, 961.2917
1023.861, 963.9247
1024.343, 941.5309
1024.825, 907.6411
1025.307, 898.0504
1025.790, 915.9407
1026.272, 913.2567
1026.754, 885.3671
1027.236, 863.0804
1027.718, 856.1699
1028.200, 856.1119
1028.682, 855.9974
1029.164, 855.8634
1029.647, 855.1674
1030.129, 853.6716
1030.611, 851.9775
1031.093, 850.7447
1031.575, 848.1565
1032.057, 842.5026
1032.539, 836.2866
1033.021, 832.6765
1033.504, 831.3640
1033.986, 829.9084
1034.468, 830.2839
1034.950, 825.9309
1035.432, 812.6658
1035.914, 799.8266
1036.396, 792.7848
1036.878, 788.3378
1037.360, 779.5408
1037.843, 765.5023
1038.325, 757.8593
1038.807, 762.6385
1039.289, 763.2160
1039.771, 756.8312
1040.253, 745.8079
1040.735, 726.8306
1041.217, 705.5078
1041.699, 693.5693
1042.182, 692.4157
1042.664, 693.4118
1043.146, 700.0655
1043.628, 704.0864
1044.110, 706.8458
1044.592, 704.0640
1045.074, 689.5460
1045.556, 667.0008
1046.039, 645.1368
1046.521, 620.7277
1047.003, 609.2551
1047.485, 629.5876
1047.967, 640.5909
1048.449, 619.9725
1048.931, 591.0460
1049.413, 575.9377
1049.896, 572.5250
1050.378, 567.2977
1050.860, 558.1310
1051.342, 548.0597
1051.824, 535.8763
1052.306, 525.0510
1052.788, 520.6644
1053.270, 516.0439
1053.752, 500.3773
1054.234, 475.9245
1054.717, 459.8602
1055.199, 462.5135
1055.681, 461.5312
1056.163, 449.5594
1056.645, 433.7445
1057.127, 412.5805
1057.609, 393.3954
1058.091, 390.1685
1058.574, 401.1627
1059.056, 399.8615
1059.538, 368.0272
1060.020, 338.7078
1060.502, 322.6736
1060.984, 313.2755
1061.466, 307.4497
1061.948, 304.8538
1062.431, 306.9314
1062.913, 312.9287
1063.395, 314.1848
1063.877, 300.7365
1064.359, 291.0397
1064.841, 296.9871
1065.323, 305.4807
1065.805, 309.3486
1066.287, 306.6113
1066.770, 291.8431
1067.252, 264.6416
1067.734, 245.9180
1068.216, 250.4153
1068.698, 257.2949
1069.180, 258.8091
1069.662, 256.7870
1070.144, 250.7495
1070.626, 242.4397
1071.109, 235.3656
1071.591, 230.3192
1072.073, 225.6564
1072.555, 221.9290
1073.037, 217.1599
1073.519, 207.4701
1074.001, 198.0370
1074.483, 194.4660
1074.966, 194.9995
1075.448, 195.7536
1075.930, 195.9511
1076.412, 192.0635
1076.894, 176.7344
1077.376, 163.6159
1077.858, 164.1821
1078.340, 167.9401
1078.823, 163.9455
1079.305, 154.2495
1079.787, 146.5589
1080.269, 143.1062
1080.751, 138.3179
1081.233, 125.6176
1081.715, 115.6810
1082.197, 117.3003
1082.679, 122.6284
1083.162, 124.8336
1083.644, 123.5631
1084.126, 118.2501
1084.608, 107.4071
1085.090, 101.9839
1085.572, 114.5678
1086.054, 124.5383
1086.536, 115.5623
1087.019, 101.5678
1087.501, 100.0606
1087.983, 106.5288
1088.465, 103.4554
1088.947, 84.50171
1089.429, 66.84631
1089.911, 54.27716
1090.393, 47.99808
1090.875, 55.23425
1091.358, 64.58167
1091.840, 60.89847
1092.322, 49.11157
1092.804, 47.50262
1093.286, 63.59839
1093.768, 74.27734
1094.250, 66.70718
1094.732, 56.87552
1095.214, 53.04855
1095.697, 50.79156
1096.179, 43.36432
1096.661, 33.37738
1097.143, 30.48203
1097.625, 39.28049
1098.107, 43.57721
1098.589, 31.81680
1099.071, 22.82034
1099.554, 29.61237
1100.036, 39.16687
1100.518, 39.36667
1101.000, 32.11887
1101.482, 22.55048
1101.964, 8.310516
1102.446, 6.368164
1102.928, 39.01517
1103.411, 60.97318
1103.893, 45.34164
1104.375, 19.85941
1104.857, 4.818146
1105.339, 0.6183470
1105.821, 5.779022
1106.303, 23.60327
1106.785, 35.38699
1107.267, 37.74307
1107.750, 35.62924
1108.232, 27.65637
1108.714, 18.77155
1109.196, 12.85004
1109.678, 9.464294
1110.160, 5.599243
1110.642, 0.3827820
1111.124, 1.190491
1111.606, 6.455627
1112.089, 15.33075
1112.571, 30.16336
1113.053, 39.82776
1113.535, 31.81296
1114.017, 13.49707
1114.499, 3.491089
1114.981, 4.068390
1115.463, 3.815704
1115.946, 2.198120
1116.428, 0.8806460
1116.910, 0.1676940
1117.392, 0.2948910
1117.874, 1.002258
1118.356, 1.362244
1118.838, 6.221344
1119.320, 23.76581
1119.802, 32.74158
1120.285, 30.11765
1120.767, 25.45813
1121.249, 18.70477
1121.731, 13.64771
1122.213, 12.99026
1122.695, 14.81683
1123.177, 16.01907
1123.659, 16.62491
1124.141, 16.77090
1124.624, 17.40128
1125.106, 12.86368
1125.588, 1.058014
1126.070, 8.451447
1126.552, 1.469208
1127.034, 17.63882
1127.516, 23.52771
1127.998, 19.97589
1128.481, 15.02722
1128.963, 7.997772
1129.445, 9.248688
1129.927, 21.89655
1130.409, 26.33868
1130.891, 11.76019
1131.373, 6.646027
1131.855, 9.481171
1132.338, 0.3641050
1132.820, 6.393951
1133.302, 10.70926
1133.784, 10.60266
1134.266, 6.050476
1134.748, 1.762390
1135.230, 0.4598390
1135.712, 0.9134220
1136.194, 8.780457
1136.677, 18.98318
1137.159, 20.36780
1137.641, 15.12711
1138.123, 12.55371
1138.605, 12.52509
1139.087, 8.269073
1139.569, 1.740021
1140.051, 8.183960
1140.533, 2.453857
1141.016, 7.865997
1141.498, 10.03433
1141.980, 8.524231
1142.462, 15.82758
1142.944, 27.42001
1143.426, 26.12985
1143.908, 10.28467
1144.390, 3.847839
1144.873, 6.518799
1145.355, 2.636719
1145.837, 6.722137
1146.319, 16.54419
1146.801, 22.84027
1147.283, 23.83200
1147.765, 12.41074
1148.247, 7.688354
1148.729, 18.40714
1149.212, 10.32700
1149.694, 0.2268370
1150.176, 3.5064999E-02
1150.658, 1.126556
1151.140, 6.191071
1151.622, 13.75916
1152.104, 8.548187
1152.586, 5.379669
1153.068, 12.54190
1153.551, 7.773499
1154.033, 4.593140
1154.515, 10.86005
1154.997, 16.22989
1155.479, 12.95883
1155.961, 9.883331
1156.443, 19.18466
1156.925, 32.51770
1157.408, 29.91183
1157.890, 7.005554
1158.372, 6.788910
1158.854, 3.2593001E-02
1159.336, 4.845459
1159.818, 2.739258
1160.300, 0.8029480
1160.782, 3.337463
1161.265, 5.017181
1161.747, 6.074005
1162.229, 6.562714
1162.711, 7.250732
1163.193, 11.20618
1163.675, 6.548157
1164.157, 15.66248
1164.639, 27.06146
1165.121, 10.35681
1165.604, 10.38025
1166.086, 8.676758
1166.568, 9.887024
1167.050, 22.20392
1167.532, 27.91068
1168.014, 29.62607
1168.496, 26.97916
1168.978, 24.47119
1169.460, 23.76709
1169.943, 19.80804
1170.425, 7.133057
1170.907, 5.638916
1171.389, 3.477570
1171.871, 29.17523
1172.353, 36.88123
1172.835, 28.92477
1173.317, 22.66025
1173.800, 21.58255
1174.282, 24.11624
1174.764, 15.17703
1175.246, 33.49704
1175.728, 43.99435
1176.210, 47.92737
1176.692, 21.55551
1177.174, 32.97253
1177.656, 28.58759
1178.139, 23.64255
1178.621, 40.33835
1179.103, 17.54984
1179.585, 34.18173
1180.067, 35.14099
1180.549, 43.25137
1181.031, 35.79312
1181.513, 33.13263
1181.995, 46.03232
1182.478, 50.31244
1182.960, 41.15961
1183.442, 50.01477
1183.924, 27.08417
1184.406, 32.04004
1184.888, 48.75293
1185.370, 40.16360
1185.852, 48.96924
1186.335, 51.31601
1186.817, 23.87015
1187.299, 48.47668
1187.781, 50.27075
1188.263, 28.83795
1188.745, 51.77969
1189.227, 34.07349
1189.709, 30.89056
1190.192, 38.62924
1190.674, 34.96655
1191.156, 49.36609
1191.638, 46.23328
1192.120, 41.63724
1192.602, 43.83539
1193.084, 26.93674
1193.566, 42.82492
1194.048, 34.14270
1194.531, 30.05878
1195.013, 34.34573
1195.495, 35.02167
1195.977, 25.79858
1196.459, 17.04987
1196.941, 21.25940
1197.423, 32.70975
1197.905, 32.56000
1198.387, 23.54727
1198.870, 20.97290
1199.352, 24.71887
1199.834, 26.45047
1200.316, 23.73892
1200.798, 23.30908
1201.280, 30.60773
1201.762, 39.76956
1202.244, 44.80273
1202.727, 45.01132
1203.209, 34.82678
1203.691, 21.61365
1204.173, 20.56030
1204.655, 29.65472
1205.137, 35.66476
1205.619, 34.32635
1206.101, 29.42752
1206.583, 19.86746
1207.066, 11.23145
1207.548, 4.914124
1208.030, 2.531097
1208.512, 8.613739
1208.994, 17.53314
1209.476, 20.71780
1209.958, 17.52539
1210.440, 17.25449
1210.922, 23.64209
1211.405, 29.40305
1211.887, 34.88745
1212.369, 37.99768
1212.851, 38.91739
1213.333, 37.03030
1213.815, 30.09198
1214.297, 20.93060
1214.779, 18.31378
1215.262, 24.28577
1215.744, 28.18530
1216.226, 27.75790
1216.708, 30.98898
1217.190, 38.77258
1217.672, 40.61267
1218.154, 29.63272
1218.636, 15.65179
1219.119, 14.66022
1219.601, 22.63434
1220.083, 30.29535
1220.565, 35.98627
1221.047, 31.12512
1221.529, 17.75839
1222.011, 6.754150
1222.493, 1.851532
1222.975, 3.289429
1223.458, 12.22827
1223.940, 24.48495
1224.422, 43.33481
1224.904, 56.50748
1225.386, 40.74396
1225.868, 16.26529
1226.350, 16.62827
1226.832, 37.53635
1227.314, 49.82129
1227.797, 44.07230
1228.279, 39.31683
1228.761, 45.07565
1229.243, 48.38235
1229.725, 43.90250
1230.207, 36.48224
1230.689, 23.09384
1231.171, 12.75064
1231.654, 25.00113
1232.136, 56.97263
1232.618, 57.70709
1233.100, 9.455597
1233.582, 14.88123
1234.064, 6.571442
1234.546, 6.117706
1235.028, 15.33508
1235.510, 22.46140
1235.993, 28.77240
1236.475, 33.03824
1236.957, 31.25296
1237.439, 24.79440
1237.921, 20.92566
1238.403, 18.89148
1238.885, 18.57880
1239.367, 20.06705
1239.849, 24.58759
1240.332, 32.45364
1240.814, 39.66788
1241.296, 41.29053
1241.778, 43.07492
1242.260, 56.49646
1242.742, 69.07355
1243.224, 62.14587
1243.706, 45.64462
1244.189, 38.60397
1244.671, 40.43240
1245.153, 35.95456
1245.635, 12.00031
1246.117, 5.596039
1246.599, 55.45425
1247.081, 86.56564
1247.563, 51.96152
1248.046, 10.51617
1248.528, 4.571991
1249.010, 17.95056
1249.492, 24.78403
1249.974, 21.79810
1250.456, 26.91232
1250.938, 47.06393
1251.420, 45.96332
1251.902, 16.66306
1252.385, 3.024292
1252.867, 0.2382200
1253.349, 11.50964
1253.831, 19.37247
1254.313, 24.11505
1254.795, 25.75293
1255.277, 24.87668
1255.759, 22.60373
1256.241, 18.37189
1256.724, 12.24405
1257.206, 5.917969
1257.688, 12.82977
1258.170, 39.87567
1258.652, 61.28854
1259.134, 55.98050
1259.616, 38.22281
1260.098, 37.98709
1260.581, 40.20013
1261.063, 41.06277
1261.545, 38.32587
1262.027, 23.77332
1262.509, 6.608307
1262.991, 0.3084410
1263.473, 10.91321
1263.955, 19.84930
1264.438, 29.57132
1264.920, 25.69809
1265.402, 12.45703
1265.884, 0.0000000E+00
##END=



