##NAMES=Jadeite
##RRUFFID=R050220
##IDEAL CHEMISTRY=NaAlSi_2_O_6_
##LOCALITY=Clear Creek, San Benito County, California, USA
##OWNER=RRUFF
##SOURCE=Hatt Yoder
##DESCRIPTION=Aggregate of colorless bladed crystals
##STATUS=The identification of this mineral has been confirmed by X-ray diffraction and chemical analysis
##URL=rruff.info/R050220
##MEASURED CHEMISTRY=Na_1.00_Al_1.00_(Si_0.99_Al_0.01_)_2_O_6_
133.7618, 0.0000000E+00
134.2439, 7.6941997E-02
134.7260, 0.4468690
135.2081, 1.418335
135.6902, 2.934097
136.1723, 4.662064
136.6545, 6.401009
137.1366, 8.117668
137.6187, 10.04272
138.1008, 12.12668
138.5829, 14.42207
139.0650, 17.04145
139.5472, 19.90414
140.0293, 23.31927
140.5114, 27.42558
140.9935, 32.19698
141.4756, 37.71992
141.9577, 43.76852
142.4399, 50.69863
142.9220, 59.80759
143.4041, 72.21136
143.8862, 84.93169
144.3683, 96.99987
144.8504, 110.6477
145.3326, 117.6807
145.8147, 116.5087
146.2968, 107.9070
146.7789, 96.65564
147.2610, 80.43090
147.7431, 63.83926
148.2253, 49.56702
148.7074, 37.13585
149.1895, 26.96445
149.6716, 19.72646
150.1537, 15.50167
150.6358, 12.32227
151.1180, 10.31649
151.6001, 8.619888
152.0822, 6.886787
152.5643, 6.371658
153.0464, 6.111488
153.5285, 5.350006
154.0107, 3.590569
154.4928, 2.445633
154.9749, 2.708244
155.4570, 3.480652
155.9391, 3.809990
156.4212, 3.198975
156.9034, 2.444313
157.3855, 1.688080
157.8676, 0.9103390
158.3497, 0.3252640
158.8318, 6.2103000E-02
159.3139, 1.4900000E-02
159.7961, 8.1375003E-02
160.2782, 0.1580050
160.7603, 0.2533870
161.2424, 0.4272080
161.7245, 0.7615890
162.2066, 0.8813860
162.6888, 0.4871600
163.1709, 0.1834870
163.6530, 0.7419890
164.1351, 1.080513
164.6172, 1.241478
165.0993, 1.242569
165.5815, 1.076065
166.0636, 0.7809600
166.5457, 0.2746890
167.0278, 0.3488160
167.5099, 0.8936000
167.9920, 1.492630
168.4742, 1.853416
168.9563, 1.623795
169.4384, 0.4464260
169.9205, 0.6330260
170.4026, 0.8309400
170.8847, 0.3659900
171.3669, 0.1903460
171.8490, 0.7481920
172.3311, 1.143456
172.8132, 1.170135
173.2953, 0.6782910
173.7774, 6.9889999E-03
174.2596, 0.6655270
174.7417, 1.301468
175.2238, 1.747704
175.7059, 1.784615
176.1880, 1.596649
176.6701, 1.379234
177.1523, 0.9802090
177.6344, 0.8544920
178.1165, 1.836113
178.5986, 3.747086
179.0807, 5.455696
179.5628, 5.802269
180.0450, 5.409302
180.5271, 5.518845
181.0092, 6.471596
181.4913, 8.022057
181.9734, 9.696770
182.4555, 11.52788
182.9377, 13.93549
183.4198, 17.18882
183.9019, 21.31063
184.3840, 26.35747
184.8661, 32.81998
185.3482, 39.84888
185.8304, 46.05630
186.3125, 51.41313
186.7946, 56.16660
187.2767, 60.25716
187.7588, 63.85685
188.2409, 67.56433
188.7231, 71.64900
189.2052, 75.93240
189.6873, 79.86768
190.1694, 83.44797
190.6515, 87.19174
191.1336, 91.55451
191.6158, 96.61379
192.0979, 102.1950
192.5800, 108.6993
193.0621, 115.6557
193.5442, 121.4605
194.0263, 126.1002
194.5085, 130.0149
194.9906, 133.0054
195.4727, 135.1375
195.9548, 138.6077
196.4369, 144.0015
196.9190, 151.2094
197.4012, 159.5039
197.8833, 168.6502
198.3654, 179.7021
198.8475, 192.9211
199.3296, 208.2353
199.8117, 227.6856
200.2939, 251.3848
200.7760, 279.4050
201.2581, 314.1761
201.7402, 356.2226
202.2223, 403.1081
202.7044, 457.1490
203.1866, 520.6845
203.6687, 570.5222
204.1508, 603.2468
204.6329, 618.2157
205.1150, 600.5434
205.5971, 542.9433
206.0793, 468.5904
206.5614, 401.9898
207.0435, 344.1306
207.5256, 292.0940
208.0077, 245.3699
208.4898, 203.8945
208.9720, 166.7942
209.4541, 133.6891
209.9362, 105.7090
210.4183, 84.64378
210.9004, 71.62244
211.3825, 62.00883
211.8647, 55.05304
212.3468, 50.78230
212.8289, 47.01752
213.3110, 43.74657
213.7931, 40.96843
214.2752, 38.70856
214.7574, 36.95413
215.2395, 35.74872
215.7216, 35.17174
216.2037, 35.24101
216.6858, 35.34912
217.1679, 35.45522
217.6500, 35.67567
218.1322, 36.02144
218.6143, 36.20024
219.0964, 37.24641
219.5785, 39.39420
220.0606, 42.68411
220.5427, 46.83189
221.0249, 52.03896
221.5070, 57.83749
221.9891, 63.68266
222.4712, 69.74150
222.9533, 75.74023
223.4354, 82.60258
223.9176, 90.82681
224.3997, 92.53882
224.8818, 85.98911
225.3639, 74.83912
225.8460, 62.28053
226.3281, 46.81258
226.8103, 33.35719
227.2924, 23.40597
227.7745, 16.89724
228.2566, 11.83906
228.7387, 8.523872
229.2208, 6.303017
229.7030, 4.626274
230.1851, 3.708313
230.6672, 2.933968
231.1493, 2.207176
231.6314, 1.534332
232.1135, 1.026894
232.5957, 0.7059480
233.0778, 0.5001750
233.5599, 0.3377760
234.0420, 0.1826710
234.5241, 0.1386180
235.0062, 0.2516630
235.4884, 0.5226060
235.9705, 0.7657470
236.4526, 0.8862990
236.9347, 1.076897
237.4168, 1.510887
237.8989, 2.205566
238.3811, 3.116951
238.8632, 4.337532
239.3453, 5.865662
239.8274, 7.114197
240.3095, 8.125175
240.7916, 8.823891
241.2738, 9.095001
241.7559, 8.668533
242.2380, 8.346794
242.7201, 8.217361
243.2022, 8.284088
243.6843, 8.591652
244.1665, 9.214478
244.6486, 9.996544
245.1307, 10.84539
245.6128, 11.86216
246.0949, 12.72290
246.5770, 13.22371
247.0592, 13.45274
247.5413, 14.29526
248.0234, 15.99951
248.5055, 17.99493
248.9876, 19.84109
249.4697, 21.37025
249.9519, 23.13003
250.4340, 25.11692
250.9161, 27.36161
251.3982, 30.08239
251.8803, 33.31828
252.3624, 36.93785
252.8446, 40.77486
253.3267, 44.69286
253.8088, 49.27139
254.2909, 54.98077
254.7730, 61.40840
255.2551, 66.88997
255.7373, 71.90842
256.2194, 75.20267
256.7015, 76.13593
257.1836, 74.86521
257.6657, 70.71639
258.1478, 62.73555
258.6299, 52.11066
259.1121, 42.02283
259.5942, 32.00739
260.0763, 23.31158
260.5584, 16.39827
261.0405, 11.55640
261.5226, 7.866676
262.0048, 5.624626
262.4869, 4.367378
262.9690, 2.903824
263.4511, 1.022812
263.9332, 0.5894390
264.4153, 1.639023
264.8975, 2.082573
265.3796, 2.110626
265.8617, 1.524071
266.3438, 0.6945950
266.8259, 0.3302310
267.3080, 0.5731740
267.7902, 0.9128490
268.2723, 1.176414
268.7544, 1.369087
269.2365, 1.472702
269.7186, 1.503601
270.2007, 1.424644
270.6829, 1.208199
271.1650, 0.8917690
271.6471, 0.2967830
272.1292, 0.7197490
272.6113, 2.172180
273.0934, 3.415657
273.5756, 4.408516
274.0577, 5.245834
274.5398, 5.961586
275.0219, 6.463707
275.5040, 7.306068
275.9861, 8.804100
276.4683, 10.87753
276.9504, 12.39270
277.4325, 13.19610
277.9146, 13.84053
278.3967, 14.99693
278.8788, 16.73567
279.3610, 18.28215
279.8431, 19.24701
280.3252, 19.78339
280.8073, 20.66024
281.2894, 21.90368
281.7715, 23.53337
282.2537, 25.77576
282.7358, 28.63203
283.2179, 31.02208
283.7000, 32.42871
284.1821, 33.36472
284.6642, 35.44835
285.1464, 38.79449
285.6285, 42.46042
286.1106, 45.64684
286.5927, 48.41676
287.0748, 51.66450
287.5569, 55.65327
288.0391, 60.05380
288.5212, 64.06747
289.0033, 67.70026
289.4854, 71.27338
289.9675, 75.18742
290.4496, 79.34795
290.9318, 83.09308
291.4139, 86.47443
291.8960, 89.22872
292.3781, 90.93909
292.8602, 91.63400
293.3423, 91.38429
293.8245, 90.12915
294.3066, 87.95466
294.7887, 85.08560
295.2708, 81.53679
295.7529, 77.40229
296.2350, 72.34098
296.7172, 66.62534
297.1993, 61.46735
297.6814, 57.47681
298.1635, 54.36536
298.6456, 51.67751
299.1277, 49.41060
299.6099, 47.32455
300.0920, 45.16647
300.5741, 43.01145
301.0562, 41.13533
301.5383, 39.45998
302.0204, 38.19711
302.5026, 37.81493
302.9847, 38.28465
303.4668, 39.01555
303.9489, 39.52168
304.4310, 39.95738
304.9131, 40.61887
305.3953, 41.57790
305.8774, 42.80715
306.3595, 44.16011
306.8416, 45.68608
307.3237, 47.70499
307.8058, 50.75073
308.2880, 54.27872
308.7701, 57.66933
309.2522, 60.94490
309.7343, 63.82781
310.2164, 66.51094
310.6985, 68.72600
311.1807, 69.62090
311.6628, 68.49886
312.1449, 65.98990
312.6270, 62.51880
313.1091, 57.96068
313.5912, 53.08356
314.0734, 47.85503
314.5555, 42.61868
315.0376, 37.95615
315.5197, 33.96921
316.0018, 30.71266
316.4839, 28.48553
316.9661, 27.39792
317.4482, 26.43262
317.9303, 24.90665
318.4124, 23.34517
318.8945, 22.34764
319.3766, 22.57753
319.8588, 22.99756
320.3409, 23.13374
320.8230, 22.98404
321.3051, 23.10286
321.7872, 23.62119
322.2693, 24.40057
322.7515, 25.38213
323.2336, 26.43365
323.7157, 27.90199
324.1978, 30.13538
324.6799, 32.93330
325.1620, 35.39510
325.6442, 36.86513
326.1263, 38.33173
326.6084, 40.32991
327.0905, 43.80446
327.5726, 46.58411
328.0547, 48.60338
328.5369, 49.84227
329.0190, 50.29823
329.5011, 50.26704
329.9832, 49.21143
330.4653, 46.84589
330.9474, 42.81642
331.4296, 38.36453
331.9117, 32.99493
332.3938, 27.41798
332.8759, 22.64844
333.3580, 19.01958
333.8401, 15.62627
334.3223, 12.25406
334.8044, 8.856628
335.2865, 5.758179
335.7686, 2.756012
336.2507, 0.3098140
336.7328, 0.9381260
337.2150, 0.4584810
337.6971, 0.2344670
338.1792, 0.6542660
338.6613, 1.615967
339.1434, 2.595871
339.6255, 3.756912
340.1076, 4.559845
340.5898, 4.463959
341.0719, 3.311630
341.5540, 2.492340
342.0361, 2.244354
342.5182, 2.307022
343.0003, 2.022568
343.4825, 1.338852
343.9646, 0.7150880
344.4467, 0.4389800
344.9288, 0.4886320
345.4109, 0.5928650
345.8930, 0.8186950
346.3752, 0.8669890
346.8573, 0.2472230
347.3394, 1.009750
347.8215, 2.431168
348.3036, 3.830338
348.7857, 5.253433
349.2679, 6.921600
349.7500, 8.844727
350.2321, 10.68724
350.7142, 11.89778
351.1963, 12.71878
351.6784, 13.85698
352.1606, 15.43878
352.6427, 17.51314
353.1248, 20.22328
353.6069, 23.55774
354.0890, 27.28922
354.5711, 31.13971
355.0533, 35.31409
355.5354, 40.14026
356.0175, 45.64639
356.4996, 51.86893
356.9817, 59.38109
357.4638, 67.72588
357.9460, 75.80992
358.4281, 82.94489
358.9102, 89.69720
359.3923, 96.18886
359.8744, 102.3412
360.3565, 109.1845
360.8387, 117.5873
361.3208, 126.8710
361.8029, 136.1562
362.2850, 144.9568
362.7671, 153.8515
363.2492, 162.9548
363.7314, 172.2955
364.2135, 182.2132
364.6956, 192.3130
365.1777, 203.2186
365.6598, 215.3492
366.1419, 229.4053
366.6241, 243.9826
367.1062, 257.8403
367.5883, 271.8461
368.0704, 288.4116
368.5525, 308.3613
369.0346, 330.4544
369.5168, 354.5002
369.9989, 381.1496
370.4810, 408.4689
370.9631, 437.0018
371.4452, 466.1440
371.9273, 495.3772
372.4095, 526.1873
372.8916, 554.6187
373.3737, 581.1204
373.8558, 605.9537
374.3379, 622.9000
374.8200, 632.7701
375.3022, 633.9246
375.7843, 624.6271
376.2664, 603.6750
376.7485, 575.3974
377.2306, 538.7460
377.7127, 495.9170
378.1949, 453.7023
378.6770, 412.0353
379.1591, 372.6657
379.6412, 336.6448
380.1233, 303.6612
380.6054, 275.4633
381.0876, 252.4041
381.5697, 233.4646
382.0518, 217.4698
382.5339, 204.4693
383.0160, 193.0053
383.4981, 182.6661
383.9803, 173.4714
384.4624, 166.1836
384.9445, 160.8525
385.4266, 155.9716
385.9087, 150.2114
386.3908, 143.8182
386.8730, 137.4595
387.3551, 131.4958
387.8372, 125.2339
388.3193, 117.5917
388.8014, 108.8052
389.2835, 99.83745
389.7657, 90.75908
390.2478, 82.02776
390.7299, 74.33417
391.2120, 67.88885
391.6941, 61.98479
392.1762, 56.19402
392.6584, 50.69882
393.1405, 45.68591
393.6226, 41.09117
394.1047, 37.11667
394.5868, 34.11903
395.0689, 32.13651
395.5511, 30.08463
396.0332, 27.22684
396.5153, 24.26672
396.9974, 21.75609
397.4795, 19.85852
397.9616, 18.35034
398.4438, 17.47423
398.9259, 17.10809
399.4080, 16.65170
399.8901, 15.53062
400.3722, 14.69341
400.8543, 14.57935
401.3365, 15.51282
401.8186, 16.28783
402.3007, 16.81148
402.7828, 17.18892
403.2649, 17.56932
403.7470, 18.00313
404.2292, 18.39955
404.7113, 18.65964
405.1934, 18.78333
405.6755, 19.23769
406.1576, 20.06779
406.6397, 20.98546
407.1219, 21.71223
407.6040, 22.25296
408.0861, 23.17325
408.5682, 24.61952
409.0503, 26.34642
409.5324, 27.92203
410.0146, 29.35857
410.4967, 30.92471
410.9788, 32.73264
411.4609, 34.75111
411.9430, 36.83110
412.4251, 38.98875
412.9073, 41.38576
413.3894, 44.46744
413.8715, 47.98932
414.3536, 51.17020
414.8357, 53.62154
415.3178, 55.83537
415.8000, 58.51778
416.2821, 61.55795
416.7642, 64.35201
417.2463, 66.19182
417.7284, 67.77844
418.2105, 69.99879
418.6927, 73.26796
419.1748, 76.07120
419.6569, 77.20975
420.1390, 77.37392
420.6211, 77.60017
421.1032, 78.00070
421.5854, 78.76637
422.0675, 80.13039
422.5496, 82.11284
423.0317, 84.01764
423.5138, 85.60722
423.9959, 87.11491
424.4781, 88.71841
424.9602, 89.71124
425.4423, 91.62675
425.9244, 94.98560
426.4065, 99.35365
426.8886, 103.7547
427.3708, 108.3067
427.8529, 112.8025
428.3350, 117.1038
428.8171, 121.1236
429.2992, 125.6459
429.7813, 130.9940
430.2635, 136.4026
430.7456, 141.2894
431.2277, 145.7121
431.7098, 149.2767
432.1919, 152.0012
432.6740, 153.7881
433.1562, 154.2381
433.6383, 153.2975
434.1204, 151.4465
434.6025, 149.3197
435.0846, 146.6667
435.5667, 141.6566
436.0489, 133.8754
436.5310, 125.0619
437.0131, 117.3600
437.4952, 110.4457
437.9773, 103.3108
438.4594, 95.34377
438.9415, 87.15800
439.4236, 79.47534
439.9058, 72.26033
440.3879, 65.52002
440.8700, 59.05460
441.3521, 53.07858
441.8342, 47.86353
442.3163, 43.55756
442.7985, 39.71104
443.2806, 36.16681
443.7627, 32.90555
444.2448, 29.81921
444.7269, 26.61253
445.2090, 23.85631
445.6912, 22.03152
446.1733, 21.14447
446.6554, 19.92004
447.1375, 17.62527
447.6196, 15.24602
448.1017, 13.39888
448.5839, 12.48589
449.0660, 11.65349
449.5481, 11.06120
450.0302, 10.51796
450.5123, 9.563477
450.9944, 7.875427
451.4766, 6.378448
451.9587, 5.425323
452.4408, 5.041519
452.9229, 4.486176
453.4050, 3.678711
453.8871, 2.870911
454.3693, 2.257019
454.8514, 1.835602
455.3335, 1.665100
455.8156, 1.854645
456.2977, 2.147537
456.7798, 1.937103
457.2620, 1.260101
457.7441, 0.6484990
458.2262, 0.3230130
458.7083, 0.2737430
459.1904, 0.6860660
459.6725, 1.595703
460.1547, 2.192734
460.6368, 1.516541
461.1189, 0.1071620
461.6010, 1.195236
462.0831, 2.326920
462.5652, 3.018600
463.0474, 2.906265
463.5295, 2.163559
464.0116, 1.275269
464.4937, 7.9833999E-02
464.9758, 0.8972170
465.4579, 1.284378
465.9401, 0.9628910
466.4222, 0.5444180
466.9043, 1.2665000E-02
467.3864, 0.5064850
467.8685, 0.7468570
468.3506, 0.2922060
468.8328, 8.9461997E-02
469.3149, 0.3515010
469.7970, 0.9461980
470.2791, 1.388107
470.7612, 1.653870
471.2433, 1.795547
471.7255, 1.835266
472.2076, 1.775421
472.6897, 1.561249
473.1718, 1.118744
473.6539, 0.6608890
474.1360, 0.4533390
474.6182, 0.5068050
475.1003, 0.5769040
475.5824, 0.6053160
476.0645, 0.6242220
476.5466, 0.7519530
477.0287, 0.9759670
477.5109, 1.114517
477.9930, 1.082657
478.4751, 0.8825840
478.9572, 0.4080810
479.4393, 0.3817750
479.9214, 1.031311
480.4036, 1.037766
480.8857, 0.6662900
481.3678, 0.2936100
481.8499, 0.1549680
482.3320, 0.3364720
482.8141, 0.1866150
483.2963, 1.190445
483.7784, 1.970596
484.2605, 2.245895
484.7426, 2.238953
485.2247, 1.965408
485.7068, 1.313507
486.1890, 0.9114230
486.6711, 1.132675
487.1532, 1.489639
487.6353, 1.505127
488.1174, 0.6900180
488.5995, 0.3261260
489.0817, 0.7414550
489.5638, 1.668076
490.0459, 2.210037
490.5280, 2.240189
491.0101, 2.196854
491.4922, 2.294952
491.9744, 2.537552
492.4565, 2.561249
492.9386, 2.320679
493.4207, 2.038315
493.9028, 1.917450
494.3849, 1.953400
494.8671, 2.156830
495.3492, 2.592392
495.8313, 3.088852
496.3134, 3.319550
496.7955, 3.367462
497.2776, 3.549332
497.7598, 4.266449
498.2419, 5.078857
498.7240, 5.477661
499.2061, 5.445862
499.6882, 5.358368
500.1703, 5.398346
500.6525, 5.510513
501.1346, 5.632172
501.6167, 5.636429
502.0988, 5.822174
502.5809, 6.384766
503.0630, 7.177536
503.5452, 7.888901
504.0273, 7.944855
504.5094, 8.460587
504.9915, 9.869583
505.4736, 12.20198
505.9557, 14.22636
506.4379, 15.84183
506.9200, 17.25757
507.4021, 18.55869
507.8842, 19.69682
508.3663, 21.05283
508.8484, 22.72511
509.3306, 24.51970
509.8127, 26.04584
510.2948, 27.30916
510.7769, 28.75269
511.2590, 30.52679
511.7411, 32.60085
512.2233, 35.08490
512.7054, 37.92984
513.1875, 40.44157
513.6696, 41.47441
514.1517, 42.10605
514.6339, 44.03725
515.1160, 47.76245
515.5981, 51.55722
516.0802, 53.66034
516.5623, 55.31065
517.0444, 58.16548
517.5266, 64.07706
518.0087, 69.95580
518.4908, 74.42062
518.9729, 77.82974
519.4550, 81.81062
519.9371, 87.07652
520.4193, 92.59286
520.9014, 98.02042
521.3835, 103.4896
521.8656, 108.6341
522.3477, 113.4426
522.8298, 117.9166
523.3120, 122.4543
523.7941, 127.4590
524.2762, 130.3218
524.7583, 130.5509
525.2404, 128.5272
525.7225, 125.2332
526.2047, 120.7082
526.6868, 114.4816
527.1689, 105.5433
527.6510, 94.80814
528.1331, 84.40166
528.6152, 74.25627
529.0974, 64.69119
529.5795, 55.38855
530.0616, 46.87251
530.5437, 40.11252
531.0258, 35.50661
531.5079, 31.85449
531.9901, 28.75310
532.4722, 25.90305
532.9543, 22.90889
533.4364, 18.94321
533.9185, 15.49348
534.4006, 13.08043
534.8828, 11.65822
535.3649, 10.54243
535.8470, 9.995209
536.3291, 9.479538
536.8112, 8.736069
537.2933, 7.603119
537.7755, 6.958389
538.2576, 7.017197
538.7397, 7.246552
539.2218, 7.061996
539.7039, 6.425598
540.1860, 5.550064
540.6682, 4.348831
541.1503, 3.195923
541.6324, 3.091492
542.1145, 3.926254
542.5966, 4.598419
543.0787, 4.326263
543.5609, 3.611313
544.0430, 3.308670
544.5251, 3.408783
545.0072, 3.484695
545.4893, 3.173798
545.9714, 2.711487
546.4536, 2.303467
546.9357, 1.933914
547.4178, 1.833878
547.8999, 2.282135
548.3820, 2.999298
548.8641, 3.600159
549.3463, 3.919617
549.8284, 4.215149
550.3105, 4.501175
550.7926, 4.794113
551.2747, 5.166428
551.7568, 5.593445
552.2390, 6.149948
552.7211, 6.904053
553.2032, 7.877243
553.6853, 8.764465
554.1674, 9.551331
554.6495, 10.36801
555.1317, 11.42593
555.6138, 12.69048
556.0959, 13.68993
556.5780, 14.18935
557.0601, 14.78267
557.5422, 16.47316
558.0244, 18.95537
558.5065, 21.34505
558.9886, 22.95261
559.4707, 24.47412
559.9528, 26.54018
560.4349, 29.08113
560.9171, 31.55775
561.3992, 33.34636
561.8813, 35.32108
562.3634, 38.21526
562.8455, 42.69682
563.3276, 46.24559
563.8098, 47.88448
564.2919, 48.84601
564.7740, 50.16565
565.2561, 51.70068
565.7382, 53.91032
566.2203, 56.97388
566.7025, 60.69954
567.1846, 64.46210
567.6667, 68.26335
568.1488, 72.50754
568.6309, 77.27676
569.1130, 82.58244
569.5952, 88.46286
570.0773, 94.98708
570.5594, 101.6045
571.0415, 108.0824
571.5236, 114.5043
572.0057, 121.0163
572.4879, 127.7781
572.9700, 134.1604
573.4521, 140.1621
573.9342, 145.4189
574.4163, 149.4035
574.8984, 152.3895
575.3806, 153.5533
575.8627, 153.0153
576.3448, 150.4633
576.8269, 145.0813
577.3090, 134.9990
577.7911, 124.2869
578.2733, 113.7096
578.7554, 103.4004
579.2375, 92.88719
579.7196, 81.71104
580.2017, 71.40433
580.6838, 63.20735
581.1660, 57.12915
581.6481, 51.95314
582.1302, 47.74786
582.6123, 44.12373
583.0944, 40.71529
583.5765, 37.49518
584.0587, 34.41643
584.5408, 31.36320
585.0229, 28.82465
585.5050, 27.56618
585.9871, 27.24802
586.4692, 26.99242
586.9513, 26.20129
587.4334, 25.44560
587.9155, 25.31088
588.3976, 25.74957
588.8798, 25.69838
589.3619, 24.50427
589.8440, 23.13879
590.3261, 22.13548
590.8082, 21.75352
591.2903, 20.83426
591.7725, 19.16360
592.2546, 17.23854
592.7367, 15.56850
593.2188, 14.17166
593.7009, 12.83395
594.1830, 11.52069
594.6652, 10.24519
595.1473, 8.821030
595.6294, 7.346466
596.1115, 6.336304
596.5936, 6.367462
597.0757, 6.745682
597.5579, 6.646790
598.0400, 6.129547
598.5221, 5.477402
599.0042, 4.563248
599.4863, 3.776779
599.9684, 3.437042
600.4506, 3.649582
600.9327, 3.858856
601.4148, 4.025604
601.8969, 4.086990
602.3790, 3.989365
602.8611, 3.589462
603.3433, 3.308945
603.8254, 3.230850
604.3075, 3.209274
604.7896, 2.959320
605.2717, 2.426056
605.7538, 2.069290
606.2360, 2.057266
606.7181, 2.253036
607.2002, 2.393204
607.6823, 2.472305
608.1644, 2.445099
608.6465, 2.248428
609.1287, 1.948944
609.6108, 1.632797
610.0929, 1.301849
610.5750, 0.9323270
611.0571, 0.2374110
611.5392, 0.3292850
612.0214, 0.3602290
612.5035, 0.4082340
612.9856, 1.131271
613.4677, 1.778137
613.9498, 2.237823
614.4319, 2.404510
614.9141, 2.146133
615.3962, 1.854691
615.8783, 1.564240
616.3604, 1.263733
616.8425, 0.8282780
617.3246, 0.2048030
617.8068, 1.7075000E-02
618.2889, 0.7495880
618.7710, 1.920807
619.2531, 2.229568
619.7352, 1.764450
620.2173, 1.251892
620.6995, 1.255936
621.1816, 1.418747
621.6637, 1.269073
622.1458, 0.7693480
622.6279, 0.3692470
623.1100, 0.5050510
623.5922, 0.7115940
624.0743, 0.6082610
624.5564, 3.5339002E-02
625.0385, 0.6642000
625.5206, 1.378464
626.0027, 1.959396
626.4849, 2.118805
626.9670, 1.692139
627.4491, 1.262100
627.9312, 0.8982700
628.4133, 0.5924070
628.8954, 0.3172760
629.3776, 7.3425002E-02
629.8597, 9.5275998E-02
630.3418, 0.2126460
630.8239, 0.2222290
631.3060, 9.2193998E-02
631.7881, 0.6735230
632.2703, 1.153870
632.7524, 1.391129
633.2345, 1.362442
633.7166, 0.8748630
634.1987, 0.1335300
634.6808, 0.7683260
635.1630, 0.4333340
635.6451, 0.2159580
636.1272, 0.7225950
636.6093, 1.090744
637.0914, 1.219299
637.5735, 1.005798
638.0557, 0.6432500
638.5378, 0.3319550
639.0199, 4.1733000E-02
639.5020, 1.2619000E-02
639.9841, 0.4135890
640.4662, 0.9097600
640.9484, 0.6715090
641.4305, 0.1664430
641.9126, 0.7332460
642.3947, 0.4391330
642.8768, 0.1796720
643.3589, 0.7442020
643.8411, 1.149139
644.3232, 0.9221040
644.8053, 1.107208
645.2874, 3.087433
645.7695, 3.804413
646.2516, 3.029984
646.7338, 2.414490
647.2159, 2.205093
647.6980, 2.218445
648.1801, 2.392578
648.6622, 2.814575
649.1443, 3.154495
649.6265, 3.451447
650.1086, 3.592697
650.5907, 3.301300
651.0728, 2.621826
651.5549, 2.293259
652.0370, 2.524353
652.5192, 2.947968
653.0013, 2.983032
653.4834, 2.814438
653.9655, 2.873749
654.4476, 3.540222
654.9297, 4.292130
655.4119, 4.898117
655.8940, 5.340927
656.3761, 5.578186
656.8582, 5.203903
657.3403, 5.015381
657.8224, 5.389023
658.3046, 6.284805
658.7867, 6.985489
659.2688, 7.463791
659.7509, 7.796494
660.2330, 7.980881
660.7151, 8.016312
661.1973, 8.094131
661.6794, 8.203049
662.1615, 8.435623
662.6436, 8.909714
663.1257, 9.568069
663.6078, 10.32213
664.0900, 11.19388
664.5721, 11.98772
665.0542, 12.43927
665.5363, 12.78003
666.0184, 13.29797
666.5005, 14.29536
666.9827, 15.18294
667.4648, 15.68513
667.9469, 16.01814
668.4290, 16.57010
668.9111, 17.32712
669.3932, 18.30141
669.8754, 19.59723
670.3575, 21.14359
670.8396, 22.50807
671.3217, 23.67090
671.8038, 24.86588
672.2859, 26.16881
672.7681, 27.58618
673.2502, 29.22551
673.7323, 31.06898
674.2144, 32.99332
674.6965, 34.97058
675.1786, 36.92822
675.6608, 38.69083
676.1429, 40.23833
676.6250, 42.18710
677.1071, 44.94019
677.5892, 48.04044
678.0714, 51.14581
678.5535, 54.13625
679.0356, 57.45807
679.5177, 61.01930
679.9998, 65.01860
680.4819, 69.36726
680.9641, 74.10139
681.4462, 80.13472
681.9283, 87.74461
682.4104, 96.29953
682.8925, 104.8761
683.3746, 113.6953
683.8568, 122.8848
684.3389, 132.3524
684.8210, 142.7864
685.3031, 155.2069
685.7852, 169.0033
686.2673, 182.9178
686.7495, 196.1798
687.2316, 210.1257
687.7137, 225.4462
688.1958, 241.8347
688.6779, 257.9680
689.1600, 273.4026
689.6422, 289.8144
690.1243, 307.5467
690.6064, 326.8776
691.0885, 348.5408
691.5706, 372.6741
692.0527, 398.7986
692.5349, 427.8380
693.0170, 458.6182
693.4991, 488.6279
693.9812, 517.6392
694.4633, 549.2874
694.9454, 587.7983
695.4276, 628.3350
695.9097, 667.5482
696.3918, 704.8924
696.8739, 740.7817
697.3560, 777.2296
697.8381, 811.1541
698.3203, 840.8515
698.8024, 867.7072
699.2845, 886.4833
699.7666, 897.4739
700.2487, 898.6288
700.7308, 886.4902
701.2130, 861.5719
701.6951, 826.4938
702.1772, 780.4650
702.6593, 727.7556
703.1414, 670.5770
703.6235, 611.0171
704.1057, 553.5355
704.5878, 498.4511
705.0699, 447.3153
705.5520, 400.5938
706.0341, 358.1183
706.5162, 320.4906
706.9984, 288.1102
707.4805, 259.0276
707.9626, 232.6062
708.4447, 208.9243
708.9268, 188.6318
709.4089, 172.0783
709.8911, 157.4500
710.3732, 143.9141
710.8553, 131.5809
711.3374, 121.2557
711.8195, 112.8323
712.3016, 105.0251
712.7838, 96.77585
713.2659, 88.95409
713.7480, 82.28555
714.2301, 76.82318
714.7122, 71.86804
715.1943, 67.28313
715.6765, 62.98682
716.1586, 58.92966
716.6407, 55.02141
717.1228, 51.65997
717.6049, 49.01155
718.0870, 46.51732
718.5692, 43.50955
719.0513, 40.09232
719.5334, 37.41980
720.0155, 35.66144
720.4976, 34.18112
720.9797, 32.14944
721.4619, 29.97012
721.9440, 28.32285
722.4261, 27.71635
722.9082, 26.95667
723.3903, 25.21599
723.8724, 23.10255
724.3546, 21.37891
724.8367, 20.26924
725.3188, 19.41393
725.8009, 18.88794
726.2830, 18.52412
726.7651, 18.05952
727.2473, 17.49931
727.7294, 16.67836
728.2115, 15.43135
728.6936, 14.08302
729.1757, 13.29028
729.6578, 12.93568
730.1400, 12.62262
730.6221, 12.14780
731.1042, 11.65868
731.5863, 11.30551
732.0684, 11.03355
732.5505, 10.66045
733.0327, 10.01836
733.5148, 9.398773
733.9969, 8.880463
734.4790, 8.460846
734.9611, 8.126617
735.4432, 7.904572
735.9254, 7.687042
736.4075, 7.449707
736.8896, 7.174866
737.3717, 6.702682
737.8538, 6.064987
738.3359, 5.587814
738.8181, 5.720413
739.3002, 5.961792
739.7823, 5.747162
740.2644, 5.079803
740.7465, 4.504547
741.2286, 4.251465
741.7108, 4.073822
742.1929, 3.815948
742.6750, 3.425354
743.1571, 3.252899
743.6392, 3.447525
744.1213, 3.685181
744.6035, 3.517899
745.0856, 2.916260
745.5677, 2.767624
746.0498, 3.165298
746.5319, 3.591782
747.0140, 3.392242
747.4962, 2.874008
747.9783, 2.610977
748.4604, 2.789825
748.9425, 2.824661
749.4246, 2.167282
749.9067, 1.419769
750.3889, 1.117828
750.8710, 1.751617
751.3531, 1.935959
751.8352, 1.466232
752.3173, 0.8633270
752.7994, 0.7808380
753.2816, 1.229324
753.7637, 1.667282
754.2458, 2.059082
754.7279, 2.302475
755.2100, 2.216583
755.6921, 1.880936
756.1743, 1.403183
756.6564, 0.5688480
757.1385, 9.2651002E-02
757.6206, 0.7064060
758.1027, 1.798889
758.5848, 2.471298
759.0670, 2.336868
759.5491, 2.110519
760.0312, 1.750092
760.5133, 1.402588
760.9954, 1.416153
761.4775, 1.824188
761.9597, 2.059448
762.4418, 1.893585
762.9239, 1.626343
763.4060, 1.882462
763.8881, 2.441483
764.3702, 2.717926
764.8524, 1.894226
765.3345, 1.283325
765.8166, 1.840240
766.2987, 3.119705
766.7808, 4.005432
767.2629, 3.886505
767.7451, 3.920547
768.2272, 4.365768
768.7093, 5.095551
769.1914, 5.792328
769.6735, 6.475342
770.1556, 6.815704
770.6378, 6.439545
771.1199, 5.883575
771.6020, 6.318817
772.0841, 7.497513
772.5662, 8.500320
773.0483, 8.594910
773.5305, 8.604782
774.0126, 8.949524
774.4947, 9.650543
774.9768, 10.60721
775.4589, 12.11908
775.9410, 13.45816
776.4232, 14.39465
776.9053, 14.99217
777.3874, 15.49115
777.8695, 15.87065
778.3516, 16.44527
778.8337, 17.68056
779.3159, 19.09991
779.7980, 19.88654
780.2801, 20.00906
780.7622, 19.39925
781.2443, 17.21991
781.7264, 15.00285
782.2086, 13.92122
782.6907, 13.93510
783.1728, 13.15717
783.6548, 10.88974
784.1370, 8.631195
784.6191, 6.881973
785.1012, 5.628128
785.5833, 4.600754
786.0654, 3.806732
786.5475, 3.212784
787.0297, 2.961105
787.5118, 2.822556
787.9939, 2.314636
788.4760, 1.487991
788.9581, 0.8168180
789.4402, 0.7268070
789.9224, 0.7418520
790.4045, 0.5486150
790.8866, 0.1117100
791.3687, 0.1401060
791.8508, 0.1149440
792.3329, 3.1539999E-02
792.8151, 2.3010001E-02
793.2972, 4.9789000E-02
793.7793, 5.0064001E-02
794.2614, 2.5192000E-02
794.7435, 3.3661000E-02
795.2256, 0.1876980
795.7078, 0.3497160
796.1899, 0.3351900
796.6720, 0.1601410
797.1541, 0.1255650
797.6362, 0.5963900
798.1183, 1.057861
798.6005, 1.182419
799.0826, 0.9413760
799.5647, 0.7422640
800.0468, 0.5258480
800.5289, 0.4928890
801.0110, 1.013092
801.4932, 1.905914
801.9753, 1.578995
802.4574, 7.5195000E-02
802.9395, 1.135071
803.4216, 0.5824130
803.9037, 0.5550080
804.3859, 1.049454
804.8680, 0.8248600
805.3501, 0.5623780
805.8322, 0.3891910
806.3143, 0.3237610
806.7964, 0.4397890
807.2786, 0.7540440
807.7607, 0.7169490
808.2428, 0.2458040
808.7249, 0.2754520
809.2070, 0.6476440
809.6891, 0.8721470
810.1713, 0.9221190
810.6534, 0.8057860
811.1355, 0.6289370
811.6176, 0.3590090
812.0997, 0.1341090
812.5818, 2.5986001E-02
813.0640, 4.0192001E-02
813.5461, 0.2860410
814.0282, 1.196884
814.5103, 1.847473
814.9924, 1.711533
815.4745, 0.8248290
815.9567, 0.4899750
816.4388, 0.7390590
816.9209, 1.127777
817.4030, 1.491043
817.8851, 1.745834
818.3672, 1.617737
818.8494, 1.166824
819.3315, 0.8762210
819.8136, 1.085464
820.2957, 1.461136
820.7778, 1.972870
821.2599, 2.614899
821.7421, 2.594269
822.2242, 1.474121
822.7063, 0.6030120
823.1884, 0.7518010
823.6705, 1.665070
824.1526, 1.965302
824.6348, 1.677490
825.1169, 1.275864
825.5990, 0.9210360
826.0811, 0.6955260
826.5632, 0.7651370
827.0453, 1.072693
827.5275, 1.267654
828.0096, 0.9322200
828.4917, 0.7926480
828.9738, 1.288895
829.4559, 2.269348
829.9380, 2.578537
830.4202, 2.123932
830.9023, 1.464172
831.3844, 0.6319730
831.8665, 0.1014560
832.3486, 7.4386999E-02
832.8307, 0.9696200
833.3129, 1.726166
833.7950, 1.807083
834.2771, 1.685135
834.7592, 1.634048
835.2413, 1.621170
835.7234, 1.433533
836.2056, 0.8256680
836.6877, 0.4478300
837.1698, 0.5373690
837.6519, 0.9372410
838.1340, 1.159836
838.6161, 1.215118
839.0983, 1.268494
839.5804, 1.401352
840.0625, 1.550842
840.5446, 1.613052
841.0267, 1.633179
841.5089, 1.720673
841.9910, 2.154007
842.4731, 2.381592
842.9552, 2.024857
843.4373, 1.421783
843.9194, 1.304977
844.4016, 1.790649
844.8837, 2.269257
845.3658, 2.648300
845.8479, 2.855331
846.3300, 2.610519
846.8121, 2.080154
847.2943, 1.739944
847.7764, 1.871368
848.2585, 2.061295
848.7406, 2.036835
849.2227, 1.923340
849.7048, 1.968948
850.1870, 2.136917
850.6691, 2.397400
851.1512, 2.834854
851.6333, 3.264999
852.1154, 3.415298
852.5975, 3.245544
853.0797, 3.026016
853.5618, 2.776627
854.0439, 2.606354
854.5260, 2.609451
855.0081, 2.760620
855.4902, 3.038696
855.9724, 3.623337
856.4545, 3.966537
856.9366, 3.784973
857.4187, 3.496094
857.9008, 3.429230
858.3829, 3.574814
858.8651, 3.991318
859.3472, 4.799225
859.8293, 5.474060
860.3114, 5.113205
860.7935, 4.122894
861.2756, 3.468506
861.7578, 3.300018
862.2399, 3.482361
862.7220, 4.477509
863.2041, 5.323181
863.6862, 5.215408
864.1683, 3.939499
864.6505, 3.110748
865.1326, 2.697815
865.6147, 2.682175
866.0968, 3.269409
866.5789, 4.267365
867.0610, 4.869873
867.5432, 5.071533
868.0253, 5.162140
868.5074, 5.380890
868.9895, 5.598129
869.4716, 5.683823
869.9537, 5.629028
870.4359, 5.626297
870.9180, 5.791428
871.4001, 5.976471
871.8822, 5.998962
872.3643, 5.921677
872.8464, 6.393875
873.3286, 7.381866
873.8107, 8.264297
874.2928, 8.643570
874.7749, 8.809433
875.2570, 8.994156
875.7391, 9.212326
876.2213, 9.511505
876.7034, 10.14061
877.1855, 10.55188
877.6676, 10.55014
878.1497, 10.35623
878.6318, 10.34966
879.1140, 10.47020
879.5961, 10.85966
880.0782, 11.68298
880.5603, 12.61049
881.0424, 13.20334
881.5245, 13.56914
882.0067, 13.89774
882.4888, 14.11226
882.9709, 14.52145
883.4530, 15.41873
883.9351, 16.47552
884.4172, 17.30363
884.8994, 17.89113
885.3815, 18.32303
885.8636, 18.62642
886.3457, 18.66631
886.8278, 17.98010
887.3099, 16.94632
887.7921, 16.60338
888.2742, 17.23790
888.7563, 17.76099
889.2384, 17.33421
889.7205, 16.58978
890.2026, 16.18593
890.6848, 16.41264
891.1669, 15.96349
891.6490, 14.57420
892.1311, 13.11798
892.6132, 12.42180
893.0953, 12.21304
893.5775, 11.03421
894.0596, 8.917236
894.5417, 7.225571
895.0238, 7.196579
895.5059, 7.648987
895.9880, 7.776306
896.4702, 7.540695
896.9523, 7.276627
897.4344, 7.130951
897.9165, 6.723862
898.3986, 5.786591
898.8807, 4.559860
899.3629, 4.009781
899.8450, 4.054825
900.3271, 4.085434
900.8092, 3.792496
901.2913, 3.390854
901.7734, 3.015381
902.2556, 2.698196
902.7377, 2.475464
903.2198, 2.436951
903.7019, 2.369080
904.1840, 2.139816
904.6661, 1.977844
905.1483, 2.567703
905.6304, 3.827164
906.1125, 3.858276
906.5946, 1.984100
907.0767, 0.1541900
907.5588, 0.9570010
908.0410, 2.722168
908.5231, 3.252335
909.0052, 1.288559
909.4873, 0.2075650
909.9694, 1.027054
910.4515, 2.202194
910.9337, 2.572876
911.4158, 2.090485
911.8979, 2.043915
912.3800, 2.478943
912.8621, 2.810440
913.3442, 2.386856
913.8264, 1.707703
914.3085, 1.385071
914.7906, 1.430847
915.2727, 1.379791
915.7548, 1.133087
916.2369, 0.6931460
916.7191, 0.1166080
917.2012, 1.126175
917.6833, 1.237808
918.1654, 0.4234310
918.6475, 0.1444400
919.1296, 0.3556820
919.6118, 1.044144
920.0939, 0.4401550
920.5760, 0.8641360
921.0581, 1.478561
921.5402, 0.2087860
922.0223, 0.8988190
922.5045, 1.474777
922.9866, 1.666580
923.4687, 1.660141
923.9508, 1.453018
924.4329, 1.069153
924.9150, 0.4944310
925.3972, 0.1302950
925.8793, 0.8196720
926.3614, 1.381668
926.8435, 1.505539
927.3256, 1.071472
927.8077, 0.4603730
928.2899, 0.5317230
928.7720, 1.383957
929.2541, 1.770691
929.7362, 1.667267
930.2183, 1.511703
930.7004, 1.298523
931.1826, 1.071747
931.6647, 0.8822630
932.1468, 0.6840360
932.6289, 0.3461150
933.1110, 8.9400999E-02
933.5931, 0.3452910
934.0753, 0.3885650
934.5574, 0.1383360
935.0395, 0.6640930
935.5216, 1.696182
936.0037, 1.758438
936.4858, 0.8223720
936.9680, 5.4779998E-03
937.4501, 0.3628390
937.9322, 0.4957430
938.4143, 0.6033330
938.8964, 0.7188110
939.3785, 0.8959200
939.8607, 1.139404
940.3428, 1.464050
940.8249, 2.081390
941.3070, 2.569992
941.7891, 2.422256
942.2712, 1.601532
942.7534, 1.084351
943.2355, 0.9365690
943.7176, 0.9355470
944.1997, 0.8838650
944.6818, 0.8679960
945.1639, 1.022278
945.6461, 1.360962
946.1282, 1.647003
946.6103, 1.916351
947.0924, 2.002457
947.5745, 1.729980
948.0566, 1.231064
948.5388, 1.294434
949.0209, 1.887711
949.5030, 2.391449
949.9851, 2.433670
950.4672, 2.346771
950.9493, 2.410004
951.4315, 2.594223
951.9136, 2.840317
952.3957, 3.148987
952.8778, 3.517395
953.3599, 4.021194
953.8420, 4.488358
954.3242, 4.640503
954.8063, 4.516312
955.2884, 4.391525
955.7705, 4.283768
956.2526, 4.352188
956.7347, 4.838593
957.2169, 5.493683
957.6990, 6.126526
958.1811, 6.737442
958.6632, 7.142532
959.1453, 7.261047
959.6274, 7.333817
960.1096, 7.398209
960.5917, 7.528473
961.0738, 8.170853
961.5559, 9.236420
962.0380, 10.15842
962.5201, 10.57715
963.0023, 10.81720
963.4844, 10.87361
963.9665, 10.92557
964.4486, 11.44586
964.9307, 12.64674
965.4128, 13.71669
965.8950, 14.44897
966.3771, 15.06979
966.8592, 15.81372
967.3413, 16.69656
967.8234, 18.00745
968.3055, 19.82339
968.7877, 21.62611
969.2698, 22.95175
969.7519, 24.27554
970.2340, 25.95134
970.7161, 28.01404
971.1982, 30.21056
971.6804, 32.55328
972.1625, 35.06470
972.6446, 37.67607
973.1267, 40.53804
973.6088, 44.05374
974.0909, 48.10321
974.5731, 52.20337
975.0552, 56.29547
975.5373, 60.28439
976.0194, 63.94981
976.5015, 67.67554
976.9836, 72.21735
977.4658, 77.51982
977.9479, 83.37872
978.4300, 89.74170
978.9121, 96.45982
979.3942, 103.5358
979.8763, 110.8626
980.3585, 118.4453
980.8406, 126.1947
981.3226, 134.3827
981.8047, 143.2841
982.2869, 152.4765
982.7690, 161.8454
983.2511, 171.3571
983.7332, 180.6679
984.2153, 189.8073
984.6974, 198.6679
985.1796, 208.3469
985.6617, 216.8004
986.1438, 222.1491
986.6259, 224.8625
987.1080, 226.3592
987.5901, 226.7270
988.0723, 226.2944
988.5544, 225.0479
989.0365, 223.1391
989.5186, 220.5318
990.0007, 217.4433
990.4828, 214.7533
990.9650, 212.7400
991.4471, 210.1993
991.9292, 207.0054
992.4113, 202.5448
992.8934, 196.0428
993.3755, 187.4244
993.8577, 178.9102
994.3398, 170.8408
994.8219, 161.7113
995.3040, 150.0260
995.7861, 137.1793
996.2682, 124.8927
996.7504, 113.3170
997.2325, 102.5626
997.7146, 92.45964
998.1967, 83.54803
998.6788, 76.17374
999.1609, 69.67526
999.6431, 62.91260
1000.125, 56.00143
1000.607, 50.31361
1001.089, 46.18544
1001.572, 42.46381
1002.054, 37.63940
1002.536, 32.99382
1003.018, 29.96904
1003.500, 28.98938
1003.982, 27.57521
1004.464, 25.35742
1004.946, 23.12012
1005.428, 21.16174
1005.911, 19.46236
1006.393, 18.03198
1006.875, 16.84634
1007.357, 15.90344
1007.839, 15.49937
1008.321, 14.91586
1008.803, 13.34750
1009.285, 11.58134
1009.768, 10.81529
1010.250, 11.45456
1010.732, 11.46912
1011.214, 10.63945
1011.696, 9.741180
1012.178, 9.721664
1012.660, 10.05095
1013.142, 9.853561
1013.624, 9.093536
1014.107, 8.485184
1014.589, 8.090408
1015.071, 8.167358
1015.553, 8.982544
1016.035, 10.25168
1016.517, 10.92589
1016.999, 11.07050
1017.481, 11.45242
1017.964, 12.46492
1018.446, 13.46925
1018.928, 13.73618
1019.410, 13.76431
1019.892, 14.15714
1020.374, 14.96667
1020.856, 16.27271
1021.338, 18.21144
1021.820, 20.29169
1022.303, 22.08635
1022.785, 23.72911
1023.267, 25.40053
1023.749, 27.17154
1024.231, 29.39850
1024.713, 32.42145
1025.195, 35.76227
1025.677, 39.34329
1026.160, 43.06400
1026.642, 46.79968
1027.124, 50.54268
1027.606, 54.38545
1028.088, 58.30530
1028.570, 62.57426
1029.052, 67.69359
1029.534, 73.25488
1030.016, 78.75711
1030.499, 84.00298
1030.981, 90.14793
1031.463, 97.76227
1031.945, 105.3182
1032.427, 111.9521
1032.909, 117.9848
1033.391, 124.4417
1033.873, 131.4049
1034.355, 139.2798
1034.838, 148.6004
1035.320, 158.6065
1035.802, 169.0692
1036.284, 179.9395
1036.766, 191.1285
1037.248, 202.8234
1037.730, 213.7007
1038.212, 223.6363
1038.695, 232.1940
1039.177, 239.8069
1039.659, 245.2595
1040.141, 247.0677
1040.623, 245.0978
1041.105, 239.6410
1041.587, 229.7144
1042.069, 217.9809
1042.552, 204.7064
1043.034, 190.3156
1043.516, 175.4102
1043.998, 160.0088
1044.480, 144.9811
1044.962, 129.9806
1045.444, 116.3114
1045.926, 105.4025
1046.408, 95.68427
1046.891, 85.77129
1047.373, 75.47603
1047.855, 66.65283
1048.337, 59.36687
1048.819, 53.26602
1049.301, 48.62029
1049.783, 44.69005
1050.265, 40.57057
1050.747, 36.44048
1051.230, 32.69965
1051.712, 29.57619
1052.194, 26.76384
1052.676, 24.19749
1053.158, 22.04599
1053.640, 20.91240
1054.122, 20.43677
1054.604, 19.02484
1055.087, 16.50122
1055.569, 14.18170
1056.051, 12.88989
1056.533, 12.00368
1057.015, 11.14090
1057.497, 10.32478
1057.979, 9.847809
1058.461, 9.748230
1058.943, 9.419739
1059.426, 8.543274
1059.908, 7.705322
1060.390, 7.988419
1060.872, 8.722427
1061.354, 8.892120
1061.836, 8.093018
1062.318, 7.370010
1062.800, 6.772232
1063.282, 6.265289
1063.765, 5.729614
1064.247, 5.281845
1064.729, 5.567047
1065.211, 6.366135
1065.693, 6.734543
1066.175, 5.378540
1066.657, 4.420517
1067.139, 5.125290
1067.622, 6.376251
1068.104, 6.582092
1068.586, 5.705368
1069.068, 5.787079
1069.550, 7.082413
1070.032, 7.883728
1070.514, 5.843399
1070.996, 3.407394
1071.479, 2.840195
1071.961, 4.153259
1072.443, 5.158997
1072.925, 5.749863
1073.407, 6.161041
1073.889, 6.366562
1074.371, 6.577545
1074.853, 7.185822
1075.335, 8.057144
1075.818, 9.009674
1076.300, 10.12595
1076.782, 10.85411
1077.264, 10.69096
1077.746, 10.50488
1078.228, 10.80244
1078.710, 11.49876
1079.192, 12.09634
1079.674, 12.59091
1080.156, 12.97720
1080.639, 13.12947
1081.121, 13.32906
1081.603, 14.06380
1082.085, 14.74783
1082.567, 14.48633
1083.049, 13.05634
1083.531, 11.77907
1084.013, 10.73528
1084.496, 9.647598
1084.978, 8.070007
1085.460, 6.449615
1085.942, 5.356064
1086.424, 4.720016
1086.906, 3.971420
1087.388, 2.840332
1087.870, 1.966827
1088.353, 1.540421
1088.835, 1.310791
1089.317, 0.8096770
1089.799, 0.1985930
1090.281, 7.5562000E-02
1090.763, 0.1215670
1091.245, 0.1978910
1091.727, 0.2470700
1092.209, 0.7178960
1092.692, 0.9606780
1093.174, 1.031006
1093.656, 1.195160
1094.138, 1.445511
1094.620, 1.737991
1095.102, 2.220108
1095.584, 2.427216
1096.066, 1.621307
1096.548, 0.5861970
1097.031, 0.3398590
1097.513, 1.207123
1097.995, 1.247772
1098.477, 0.3292850
1098.959, 0.4038850
1099.441, 0.1228640
1099.923, 1.072296
1100.405, 1.490891
1100.888, 1.494446
1101.370, 1.447617
1101.852, 1.487366
1102.334, 1.353165
1102.816, 0.9701230
1103.298, 0.5222630
1103.780, 3.6392000E-02
1104.262, 0.3068540
1104.745, 0.3874820
1105.227, 0.3486630
1105.709, 0.7671510
1106.191, 0.8851620
1106.673, 0.1968080
1107.155, 0.2701570
1107.637, 0.1160280
1108.119, 6.3750997E-02
1108.601, 0.6204830
1109.083, 0.2883760
1109.566, 0.3812710
1110.048, 0.4206090
1110.530, 0.7480470
1111.012, 0.4506530
1111.494, 0.3460390
1111.976, 0.8660130
1112.458, 1.039719
1112.940, 0.6695400
1113.423, 1.014023
1113.905, 8.0794998E-02
1114.387, 0.2682190
1114.869, 0.9389040
1115.351, 0.5986630
1115.833, 0.9531560
1116.315, 1.042618
1116.797, 7.0983998E-02
1117.280, 0.9067540
1117.762, 0.9795380
1118.244, 0.1231540
1118.726, 1.028198
1119.208, 0.5260620
1119.690, 1.014954
1120.172, 1.305679
1120.654, 1.213150
1121.136, 1.061829
1121.619, 0.8656460
1122.101, 0.6558380
1122.583, 0.3451390
1123.065, 6.0074002E-02
1123.547, 0.3539580
1124.029, 1.193954
1124.511, 1.816086
1124.993, 1.815353
1125.475, 1.510208
1125.958, 0.7879330
1126.440, 3.9978001E-02
1126.922, 0.3326870
1127.404, 1.522232
1127.886, 1.823425
1128.368, 0.8289030
1128.850, 0.1470340
1129.332, 0.1481630
1129.815, 0.1867830
1130.297, 0.3854060
1130.779, 0.4933930
1131.261, 1.004318
1131.743, 1.946198
1132.225, 2.537720
1132.707, 2.395432
1133.189, 2.158203
1133.672, 2.592148
1134.154, 3.202347
1134.636, 3.409882
1135.118, 3.104752
1135.600, 2.727402
1136.082, 2.224579
1136.564, 1.851013
1137.046, 1.822937
1137.528, 1.913589
1138.010, 1.526566
1138.493, 1.073746
1138.975, 1.335983
1139.457, 3.597534
1139.939, 4.666458
1140.421, 4.125366
1140.903, 3.315430
1141.385, 3.486496
1141.867, 4.107788
1142.350, 3.827728
1142.832, 2.896347
1143.314, 2.203110
1143.796, 2.177490
1144.278, 2.353973
1144.760, 2.768570
1145.242, 3.162994
1145.724, 3.071152
1146.207, 2.699234
1146.689, 2.899155
1147.171, 3.676300
1147.653, 4.276367
1148.135, 4.037399
1148.617, 3.857513
1149.099, 4.202789
1149.581, 4.690308
1150.063, 4.373291
1150.546, 3.428116
1151.028, 3.156158
1151.510, 3.814224
1151.992, 4.505325
1152.474, 4.794296
1152.956, 4.748184
1153.438, 4.317902
1153.920, 3.690247
1154.402, 3.342392
1154.885, 3.213013
1155.367, 3.031097
1155.849, 2.770599
1156.331, 2.604706
1156.813, 2.563248
1157.295, 2.633484
1157.777, 2.822968
1158.259, 3.148560
1158.742, 3.452759
1159.224, 3.752289
1159.706, 3.809967
1160.188, 3.442947
1160.670, 2.994827
1161.152, 2.607086
1161.634, 2.452133
1162.116, 2.861526
1162.599, 4.123962
1163.081, 4.667648
1163.563, 4.367416
1164.045, 3.847946
1164.527, 3.278000
1165.009, 2.891968
1165.491, 3.158554
1165.973, 3.703873
1166.455, 3.791702
1166.938, 2.569733
1167.420, 2.351395
1167.902, 3.431091
1168.384, 4.443130
1168.866, 3.993408
1169.348, 2.899643
1169.830, 2.567993
1170.312, 2.797440
1170.794, 2.848541
1171.277, 2.191269
1171.759, 1.875916
1172.241, 2.085022
1172.723, 2.528244
1173.205, 3.005447
1173.687, 3.428925
1174.169, 3.664673
1174.651, 3.658463
1175.134, 3.429428
1175.616, 2.470398
1176.098, 1.888489
1176.580, 2.052872
1177.062, 2.468582
1177.544, 2.457169
1178.026, 2.184021
1178.508, 2.022552
1178.990, 2.019653
1179.473, 2.252335
1179.955, 3.303482
1180.437, 3.825546
1180.919, 3.217560
1181.401, 2.172501
1181.883, 2.042740
1182.365, 2.539581
1182.847, 3.067963
1183.329, 3.582840
1183.812, 3.441406
1184.294, 1.248901
1184.776, 0.3386990
1185.258, 6.8970002E-02
1185.740, 1.347275
1186.222, 2.097214
1186.704, 2.238022
1187.186, 2.115738
1187.669, 1.758316
1188.151, 1.447357
1188.633, 1.296310
1189.115, 1.274673
1189.597, 1.386002
1190.079, 1.579041
1190.561, 1.761093
1191.043, 1.886353
1191.526, 1.672226
1192.008, 0.8008120
1192.490, 0.1110990
1192.972, 2.2461001E-02
1193.454, 0.2821810
1193.936, 0.8044740
1194.418, 1.535797
1194.900, 2.042114
1195.382, 2.311005
1195.865, 2.241806
1196.347, 1.436340
1196.829, 0.8645480
1197.311, 1.495117
1197.793, 2.166382
1198.275, 1.645813
1198.757, 9.8494999E-02
1199.239, 0.3126530
1199.721, 0.8467710
1200.204, 1.890778
1200.686, 1.758682
1201.168, 1.608704
1201.650, 2.353958
1202.132, 3.114944
1202.614, 2.751617
1203.096, 1.274902
1203.578, 0.7283780
1204.061, 1.097595
1204.543, 1.648056
1205.025, 2.339569
1205.507, 2.641663
1205.989, 1.704178
1206.471, 0.5398860
1206.953, 0.6419830
1207.435, 1.978577
1207.917, 2.809479
1208.400, 3.043488
1208.882, 2.902679
1209.364, 2.259613
1209.846, 1.569153
1210.328, 1.047012
1210.810, 0.6702420
1211.292, 0.3504640
1211.774, 9.7992003E-02
1212.256, 0.5556340
1212.739, 1.767929
1213.221, 2.680008
1213.703, 2.307419
1214.185, 1.709518
1214.667, 1.445892
1215.149, 1.386200
1215.631, 1.299866
1216.113, 1.192429
1216.596, 1.114578
1217.078, 1.070084
1217.560, 1.197693
1218.042, 1.900925
1218.524, 2.480042
1219.006, 2.507492
1219.488, 2.149979
1219.970, 1.633438
1220.453, 0.9970550
1220.935, 0.7520600
1221.417, 1.003723
1221.899, 1.258911
1222.381, 1.145508
1222.863, 0.9833830
1223.345, 0.9425050
1223.827, 0.9941250
1224.309, 1.028122
1224.792, 1.066040
1225.274, 1.361313
1225.756, 2.014755
1226.238, 2.427521
1226.720, 1.910355
1227.202, 1.385071
1227.684, 1.353699
1228.166, 1.672592
1228.648, 1.940491
1229.131, 2.153824
1229.613, 2.287628
1230.095, 2.329941
1230.577, 2.325668
1231.059, 2.431046
1231.541, 2.313141
1232.023, 1.549866
1232.505, 0.5829010
1232.988, 0.9393460
1233.470, 2.193863
1233.952, 2.588974
1234.434, 1.447708
1234.916, 0.4980160
1235.398, 0.7985690
1235.880, 1.252121
1236.362, 1.417297
1236.844, 1.382050
1237.327, 1.226654
1237.809, 0.9705350
1238.291, 0.6283570
1238.773, 0.1039580
1239.255, 0.1756590
1239.737, 0.4799190
1240.219, 1.114471
1240.701, 1.386993
1241.183, 1.330231
1241.666, 0.8123020
1242.148, 6.6253997E-02
1242.630, 0.2151030
1243.112, 0.3441310
1243.594, 0.7713930
1244.076, 0.8006130
1244.558, 0.6996920
1245.040, 0.5062870
1245.523, 0.3283230
1246.005, 0.5363920
1246.487, 1.027771
1246.969, 1.665131
1247.451, 2.692184
1247.933, 2.981659
1248.415, 2.151108
1248.897, 1.243210
1249.380, 0.7447510
1249.862, 0.5900570
1250.344, 0.8325960
1250.826, 1.275314
1251.308, 1.530045
1251.790, 1.367477
1252.272, 1.380829
1252.754, 1.642517
1253.236, 1.948135
1253.719, 2.384094
1254.201, 2.567673
1254.683, 1.328827
1255.165, 0.3916170
1255.647, 0.9003140
1256.129, 0.8894200
1256.611, 1.562607
1257.093, 0.8778840
1257.575, 0.2558290
1258.058, 0.6228940
1258.540, 1.308395
1259.022, 1.693497
1259.504, 1.752151
1259.986, 1.417969
1260.468, 0.4952090
1260.950, 1.3123000E-02
1261.432, 9.8618001E-02
1261.915, 0.3370970
1262.397, 0.5242310
1262.879, 0.7762300
1263.361, 1.340240
1263.843, 1.948257
1264.325, 2.261673
1264.807, 2.272049
1265.289, 1.946487
1265.771, 1.298035
1266.254, 0.9107210
1266.736, 1.365204
1267.218, 1.704819
1267.700, 1.170151
1268.182, 0.7635500
1268.664, 0.8778840
1269.146, 1.496750
1269.628, 1.438751
1270.110, 0.7899930
1270.593, 0.3962400
1271.075, 0.8970950
1271.557, 1.390945
1272.039, 1.311508
1272.521, 1.214951
1273.003, 1.666489
1273.485, 2.515106
1273.967, 2.521179
1274.450, 1.860062
1274.932, 1.332367
1275.414, 1.400406
1275.896, 1.462662
1276.378, 1.468460
1276.860, 1.325226
1277.342, 0.8307650
1277.824, 0.1934360
1278.306, 9.3989996E-03
1278.789, 0.0000000E+00
##END=



