##NAMES=Jahnsite-(CaMnMg)
##RRUFFID=R060213
##IDEAL CHEMISTRY=CaMn^2+^Mg_2_Fe^3+^_2_(PO_4_)_4_(OH)_2_&#183;8H_2_O
##LOCALITY=Tip Top mine, Custer County, South Dakota, USA
##OWNER=RRUFF
##SOURCE=Marcus Origlieri
##DESCRIPTION=Brown tabular crystals associated with black prismatic rockbridgeite, R060858
##STATUS=The identification of this mineral has been confirmed only by single crystal X-ray diffraction.
##URL=rruff.info/R060213
91.82715, 0.0000000E+00
92.30927, 5.6244001E-02
92.79138, 4.599945
93.27350, 10.24835
93.75562, 13.53571
94.23773, 13.46368
94.71985, 11.38116
95.20197, 9.388275
95.68408, 8.598755
96.16620, 7.798370
96.64832, 8.500671
97.13043, 10.94815
97.61255, 12.63885
98.09467, 12.22870
98.57678, 8.916046
99.05890, 6.695526
99.54102, 9.348175
100.0231, 13.57095
100.5052, 16.20804
100.9874, 14.46567
101.4695, 7.986237
101.9516, 5.074463
102.4337, 8.200317
102.9158, 11.23227
103.3979, 16.59201
103.8801, 20.47812
104.3622, 22.46683
104.8443, 22.84811
105.3264, 20.53915
105.8085, 20.74112
106.2906, 24.73898
106.7728, 27.67307
107.2549, 25.92111
107.7370, 21.78729
108.2191, 17.53842
108.7012, 13.19843
109.1833, 9.963928
109.6655, 7.869934
110.1476, 10.39230
110.6297, 14.84607
111.1118, 16.05408
111.5939, 11.93964
112.0760, 6.582214
112.5582, 4.693878
113.0403, 5.952087
113.5224, 7.163116
114.0045, 5.690063
114.4866, 1.723389
114.9688, 0.5611570
115.4509, 1.553253
115.9330, 4.285889
116.4151, 5.301422
116.8972, 4.272125
117.3793, 2.431763
117.8615, 1.540100
118.3436, 2.393311
118.8257, 2.197418
119.3078, 0.3461910
119.7899, 3.352020
120.2720, 5.498260
120.7542, 6.240936
121.2363, 5.759094
121.7184, 4.572479
122.2005, 0.8560180
122.6826, 1.534180
123.1647, 1.538055
123.6468, 0.1817020
124.1290, 1.059692
124.6111, 1.322357
125.0932, 0.7680970
125.5753, 0.7670900
126.0574, 2.885406
126.5395, 3.934357
127.0217, 1.594299
127.5038, 3.482056
127.9859, 7.906006
128.4680, 8.990936
128.9501, 7.169647
129.4323, 6.097748
129.9144, 6.331604
130.3965, 7.146301
130.8786, 8.048065
131.3607, 9.169342
131.8428, 9.670471
132.3250, 7.890778
132.8071, 5.013000
133.2892, 3.277832
133.7713, 4.399261
134.2534, 7.514343
134.7355, 9.565674
135.2177, 9.681274
135.6998, 9.854004
136.1819, 10.94815
136.6640, 12.86591
137.1461, 15.31168
137.6282, 18.47699
138.1104, 22.56311
138.5925, 25.08072
139.0746, 25.24515
139.5567, 24.42218
140.0388, 22.50497
140.5209, 19.83847
141.0031, 17.24066
141.4852, 15.63409
141.9673, 15.09912
142.4494, 15.58551
142.9315, 18.06973
143.4136, 20.70816
143.8958, 22.16449
144.3779, 22.15329
144.8600, 21.54004
145.3421, 21.75891
145.8242, 23.75394
146.3063, 24.78424
146.7885, 23.75562
147.2706, 22.02505
147.7527, 21.49463
148.2348, 23.00278
148.7169, 25.28671
149.1990, 25.52164
149.6812, 23.65662
150.1633, 22.06042
150.6454, 22.08670
151.1275, 23.26810
151.6096, 24.11633
152.0917, 23.94794
152.5739, 23.28763
153.0560, 23.20999
153.5381, 24.07233
154.0202, 24.39249
154.5023, 22.33249
154.9844, 17.74887
155.4665, 14.14407
155.9487, 13.72763
156.4308, 14.47064
156.9129, 14.73734
157.3950, 14.05164
157.8771, 13.37704
158.3592, 14.48004
158.8414, 18.50970
159.3235, 21.28055
159.8056, 21.00861
160.2877, 19.61966
160.7698, 18.65271
161.2519, 18.76190
161.7341, 19.66888
162.2162, 20.58368
162.6983, 21.88098
163.1804, 22.59644
163.6625, 22.43976
164.1446, 21.71472
164.6268, 20.68076
165.1089, 19.44714
165.5910, 18.12189
166.0731, 17.43240
166.5552, 17.48105
167.0373, 17.99658
167.5195, 19.54303
168.0016, 21.65036
168.4837, 23.08960
168.9658, 22.81744
169.4479, 21.04355
169.9300, 21.41513
170.4122, 26.57285
170.8943, 31.04547
171.3764, 31.65854
171.8585, 28.98123
172.3406, 26.06702
172.8227, 25.13705
173.3049, 26.36295
173.7870, 27.53445
174.2691, 28.76535
174.7512, 29.70691
175.2333, 30.16003
175.7154, 30.14429
176.1976, 29.52289
176.6797, 27.24594
177.1618, 24.09296
177.6439, 22.27408
178.1260, 23.54721
178.6081, 26.10797
179.0903, 27.20416
179.5724, 26.50992
180.0545, 25.58591
180.5366, 25.16183
181.0187, 24.89127
181.5008, 24.31815
181.9830, 22.71948
182.4651, 20.75613
182.9472, 20.54102
183.4293, 23.28650
183.9114, 25.74179
184.3935, 26.39099
184.8757, 26.14441
185.3578, 26.12683
185.8399, 27.02045
186.3220, 28.74893
186.8041, 30.70306
187.2862, 34.44730
187.7684, 36.65018
188.2505, 34.63687
188.7326, 30.31699
189.2147, 27.55542
189.6968, 29.76291
190.1789, 37.20694
190.6611, 42.39377
191.1432, 44.51123
191.6253, 45.22650
192.1074, 43.61121
192.5895, 40.77029
193.0716, 39.23013
193.5538, 41.51376
194.0359, 48.42041
194.5180, 52.40466
195.0001, 51.27197
195.4822, 49.92923
195.9643, 51.27948
196.4465, 54.88977
196.9286, 57.95401
197.4107, 57.58807
197.8928, 53.11282
198.3749, 50.98846
198.8570, 52.54953
199.3392, 55.18219
199.8213, 57.45865
200.3034, 59.19824
200.7855, 60.54211
201.2676, 61.43863
201.7497, 61.88138
202.2319, 63.03061
202.7140, 66.35352
203.1961, 69.57932
203.6782, 70.13989
204.1603, 67.66626
204.6424, 64.77621
205.1246, 64.00427
205.6067, 64.89108
206.0888, 65.33920
206.5709, 64.52771
207.0530, 63.21426
207.5351, 62.55475
208.0173, 62.81970
208.4994, 62.98929
208.9815, 61.85602
209.4636, 60.00006
209.9457, 58.64703
210.4278, 59.07492
210.9100, 60.20892
211.3921, 59.39920
211.8742, 55.74493
212.3563, 51.97885
212.8384, 49.76117
213.3205, 48.56625
213.8027, 47.48419
214.2848, 45.93445
214.7669, 44.14789
215.2490, 43.06345
215.7311, 43.16953
216.2132, 43.23712
216.6954, 42.80984
217.1775, 41.98911
217.6596, 40.92029
218.1417, 39.59085
218.6238, 38.08762
219.1059, 36.98938
219.5881, 36.93671
220.0702, 36.49155
220.5523, 35.14404
221.0344, 33.16116
221.5165, 30.89139
221.9986, 28.45703
222.4808, 25.95511
222.9629, 24.28653
223.4450, 23.37158
223.9271, 23.55786
224.4092, 26.10138
224.8913, 29.68793
225.3735, 32.08780
225.8556, 31.69266
226.3377, 28.82394
226.8198, 27.10809
227.3019, 28.04474
227.7840, 28.61035
228.2662, 27.62485
228.7483, 25.85263
229.2304, 24.83316
229.7125, 25.66043
230.1946, 28.05862
230.6767, 28.97415
231.1589, 27.74280
231.6410, 25.90622
232.1231, 22.85980
232.6052, 19.49686
233.0873, 17.48611
233.5694, 17.93399
234.0516, 20.49768
234.5337, 22.75986
235.0158, 24.93445
235.4979, 26.67520
235.9800, 27.78265
236.4621, 28.37759
236.9443, 28.58841
237.4264, 28.33603
237.9085, 27.91257
238.3906, 28.70102
238.8727, 32.38708
239.3548, 35.16690
239.8370, 35.13153
240.3191, 33.16025
240.8012, 31.38120
241.2833, 30.83646
241.7654, 31.17984
242.2475, 31.25784
242.7297, 30.31888
243.2118, 30.24231
243.6939, 32.72925
244.1760, 36.87897
244.6581, 39.76993
245.1402, 39.71606
245.6224, 38.29861
246.1045, 38.83868
246.5866, 41.96609
247.0687, 45.05423
247.5508, 46.72266
248.0329, 47.25204
248.5151, 47.55722
248.9972, 47.63705
249.4793, 48.03687
249.9614, 49.81741
250.4435, 53.25610
250.9256, 56.37167
251.4078, 57.44843
251.8899, 56.95685
252.3720, 57.22055
252.8541, 59.45422
253.3362, 61.98270
253.8183, 63.00220
254.3005, 62.59158
254.7826, 61.75833
255.2647, 60.65393
255.7468, 59.43066
256.2289, 58.92252
256.7110, 59.81598
257.1931, 60.82367
257.6753, 60.77182
258.1574, 59.81158
258.6395, 58.87448
259.1216, 58.84244
259.6037, 59.49219
260.0858, 59.13107
260.5680, 56.77698
261.0501, 54.52213
261.5322, 54.02374
262.0143, 54.74826
262.4964, 55.06619
262.9785, 53.65317
263.4607, 50.83594
263.9428, 48.42441
264.4249, 46.26437
264.9070, 44.85483
265.3891, 44.47839
265.8712, 44.90067
266.3534, 45.73703
266.8355, 47.13644
267.3176, 48.73425
267.7997, 48.71912
268.2818, 45.44095
268.7639, 43.08304
269.2461, 44.46161
269.7282, 47.33163
270.2103, 48.15625
270.6924, 44.57736
271.1745, 38.25720
271.6566, 34.86664
272.1388, 36.37054
272.6209, 37.62900
273.1030, 37.00098
273.5851, 35.50439
274.0672, 34.46069
274.5493, 34.54028
275.0315, 34.97592
275.5136, 33.79474
275.9957, 30.11923
276.4778, 26.38165
276.9599, 22.81558
277.4420, 19.51025
277.9242, 16.36832
278.4063, 13.34940
278.8884, 10.91309
279.3705, 10.01974
279.8526, 11.45633
280.3347, 12.84528
280.8169, 15.12851
281.2990, 16.56046
281.7811, 15.08371
282.2632, 10.49374
282.7453, 5.210754
283.2274, 3.096832
283.7096, 6.076141
284.1917, 7.434601
284.6738, 5.685059
285.1559, 3.537354
285.6380, 2.588287
286.1201, 2.997437
286.6023, 3.885590
287.0844, 4.278717
287.5665, 4.077545
288.0486, 3.754120
288.5307, 3.232452
289.0128, 2.669434
289.4950, 1.844604
289.9771, 0.9660950
290.4592, 0.6406860
290.9413, 1.514526
291.4234, 3.705200
291.9055, 5.521973
292.3877, 7.659393
292.8698, 8.748169
293.3519, 7.735016
293.8340, 5.290741
294.3161, 2.762512
294.7982, 1.064407
295.2804, 0.1622470
295.7625, 0.2497710
296.2446, 0.1827240
296.7267, 0.7570650
297.2088, 1.814682
297.6909, 2.842285
298.1731, 2.983200
298.6552, 1.727432
299.1373, 0.4734800
299.6194, 1.900848
300.1015, 2.240707
300.5836, 2.038803
301.0658, 0.8471220
301.5479, 0.6557010
302.0300, 1.784927
302.5121, 2.270935
302.9942, 2.282715
303.4763, 2.075302
303.9585, 0.7217410
304.4406, 0.7231750
304.9227, 4.126328
305.4048, 7.509537
305.8869, 7.820282
306.3690, 4.497650
306.8512, 0.5247190
307.3333, 4.811691
307.8154, 8.989868
308.2975, 10.38379
308.7796, 6.810242
309.2617, 2.708084
309.7439, 0.5130920
310.2260, 0.4485470
310.7081, 1.690018
311.1902, 3.660950
311.6723, 6.658340
312.1544, 7.278076
312.6366, 3.795563
313.1187, 0.6270600
313.6008, 0.6249080
314.0829, 0.4300080
314.5650, 0.2173160
315.0471, 0.7764890
315.5293, 1.326370
316.0114, 1.076523
316.4935, 1.265564
316.9756, 3.140366
317.4577, 3.750214
317.9398, 3.570175
318.4220, 3.275970
318.9041, 3.229294
319.3862, 3.603348
319.8683, 4.780457
320.3504, 7.859375
320.8326, 10.02405
321.3147, 10.48349
321.7968, 10.44943
322.2789, 11.14644
322.7610, 12.87634
323.2431, 14.90529
323.7253, 15.98219
324.2074, 14.90401
324.6895, 15.60617
325.1716, 19.41486
325.6537, 23.38904
326.1358, 25.68152
326.6180, 26.22234
327.1001, 26.01353
327.5822, 26.00638
328.0643, 26.26453
328.5464, 26.44077
329.0285, 26.06499
329.5107, 25.80392
329.9928, 25.97638
330.4749, 26.62691
330.9570, 27.80324
331.4391, 29.56313
331.9212, 31.70320
332.4034, 33.02391
332.8855, 33.18153
333.3676, 32.93275
333.8497, 31.85394
334.3318, 30.49135
334.8139, 29.57468
335.2961, 29.48132
335.7782, 30.17592
336.2603, 31.66159
336.7424, 35.44659
337.2245, 37.73563
337.7066, 37.67661
338.1888, 36.42247
338.6709, 34.63188
339.1530, 32.61769
339.6351, 30.90485
340.1172, 30.44196
340.5993, 32.12799
341.0815, 32.76012
341.5636, 32.01781
342.0457, 30.65086
342.5278, 28.59865
343.0099, 26.17166
343.4920, 24.15215
343.9742, 23.26793
344.4563, 23.55124
344.9384, 24.35521
345.4205, 27.49010
345.9026, 29.33257
346.3847, 27.93742
346.8669, 24.64413
347.3490, 21.88072
347.8311, 21.17953
348.3132, 22.00867
348.7953, 22.28781
349.2774, 21.76665
349.7596, 21.02304
350.2417, 19.41989
350.7238, 18.02779
351.2059, 18.48300
351.6880, 21.28787
352.1701, 24.37529
352.6523, 23.79268
353.1344, 17.69644
353.6165, 13.60207
354.0986, 13.54819
354.5807, 14.68016
355.0628, 15.98586
355.5450, 17.09366
356.0271, 17.50053
356.5092, 16.39859
356.9913, 13.71812
357.4734, 11.62604
357.9555, 10.25261
358.4377, 9.483063
358.9198, 9.819275
359.4019, 10.67935
359.8840, 10.89078
360.3661, 9.573334
360.8482, 7.294373
361.3304, 5.716537
361.8125, 4.941116
362.2946, 4.705963
362.7767, 4.961456
363.2588, 5.635803
363.7409, 6.924164
364.2231, 9.025040
364.7052, 10.89442
365.1873, 10.80794
365.6694, 8.498566
366.1515, 6.484192
366.6336, 5.957489
367.1158, 5.782181
367.5979, 5.164474
368.0800, 3.980896
368.5621, 2.271027
369.0442, 0.8838200
369.5263, 1.221501
370.0085, 1.066674
370.4906, 2.314072
370.9727, 1.622604
371.4548, 2.088348
371.9369, 0.3338320
372.4190, 0.8077700
372.9012, 0.2417300
373.3833, 2.158569
373.8654, 2.933960
374.3475, 2.477768
374.8296, 2.036224
375.3117, 2.623451
375.7939, 3.398453
376.2760, 2.968216
376.7581, 2.896302
377.2402, 1.460739
377.7223, 1.897484
378.2044, 1.017242
378.6866, 0.7612760
379.1687, 1.906342
379.6508, 3.452240
380.1329, 4.017494
380.6150, 3.634796
381.0971, 3.510437
381.5793, 4.836342
382.0614, 6.317589
382.5435, 5.689583
383.0256, 2.595779
383.5077, 0.4497910
383.9898, 1.401588
384.4720, 0.4546970
384.9541, 0.2333450
385.4362, 1.175522
385.9183, 1.322823
386.4004, 1.002968
386.8825, 4.887352
387.3647, 7.018333
387.8468, 5.465340
388.3289, 1.802635
388.8110, 0.1289830
389.2931, 1.187531
389.7752, 2.142349
390.2574, 1.767448
390.7395, 1.268753
391.2216, 2.504723
391.7037, 5.803825
392.1858, 9.333992
392.6679, 10.95970
393.1501, 10.27758
393.6322, 9.394836
394.1143, 6.972260
394.5964, 5.555168
395.0785, 7.138702
395.5606, 11.04906
396.0428, 15.29731
396.5249, 18.75217
397.0070, 21.31269
397.4891, 22.47805
397.9712, 20.39879
398.4533, 19.12711
398.9355, 19.98621
399.4176, 21.45754
399.8997, 21.52997
400.3818, 19.70006
400.8639, 17.58908
401.3460, 17.88135
401.8282, 22.09299
402.3103, 24.45995
402.7924, 22.62688
403.2745, 21.32533
403.7566, 23.89375
404.2387, 29.27530
404.7209, 33.71753
405.2030, 33.99567
405.6851, 30.91685
406.1672, 30.84633
406.6493, 36.79704
407.1314, 41.47449
407.6136, 43.01576
408.0957, 42.63470
408.5778, 41.25160
409.0599, 39.16959
409.5420, 37.36311
410.0241, 37.43875
410.5063, 39.73933
410.9884, 42.09142
411.4705, 44.57288
411.9526, 46.67815
412.4347, 48.20428
412.9168, 49.10578
413.3990, 49.31268
413.8811, 48.58733
414.3632, 47.10779
414.8453, 45.26286
415.3274, 42.46381
415.8095, 40.74765
416.2917, 42.14278
416.7738, 45.01239
417.2559, 47.32423
417.7380, 48.61253
418.2201, 49.15951
418.7022, 48.95845
419.1844, 48.07858
419.6665, 47.44611
420.1486, 47.45909
420.6307, 47.71336
421.1128, 47.68359
421.5949, 47.38654
422.0771, 47.11115
422.5592, 46.82452
423.0413, 46.65659
423.5234, 46.78804
424.0055, 47.22754
424.4876, 47.94696
424.9698, 49.11803
425.4519, 50.55446
425.9340, 51.23650
426.4161, 51.46198
426.8982, 50.49672
427.3803, 46.64902
427.8625, 41.61514
428.3446, 39.29607
428.8267, 41.21186
429.3088, 44.72881
429.7909, 45.48267
430.2730, 41.51279
430.7552, 39.37003
431.2373, 40.41409
431.7194, 42.29488
432.2015, 43.70399
432.6836, 44.37038
433.1657, 44.21434
433.6479, 43.02184
434.1300, 40.87811
434.6121, 39.31252
435.0942, 38.72649
435.5763, 38.28981
436.0584, 37.39358
436.5406, 36.84723
437.0227, 38.12337
437.5048, 41.58076
437.9869, 45.24936
438.4690, 45.65459
438.9511, 41.33127
439.4333, 38.34592
439.9154, 37.60939
440.3975, 37.63580
440.8796, 37.80261
441.3617, 38.28268
441.8438, 39.72954
442.3260, 43.08299
442.8081, 47.35252
443.2902, 48.55598
443.7723, 44.87481
444.2544, 43.05746
444.7365, 47.60759
445.2187, 53.76083
445.7008, 57.14146
446.1829, 56.74924
446.6650, 55.06880
447.1471, 53.51683
447.6292, 52.34875
448.1114, 53.25853
448.5935, 57.07089
449.0756, 61.92937
449.5577, 67.00781
450.0398, 71.94679
450.5219, 75.51607
451.0041, 76.13708
451.4862, 76.12860
451.9683, 77.77299
452.4504, 80.87524
452.9325, 84.08536
453.4146, 86.79310
453.8968, 89.23849
454.3789, 91.86860
454.8610, 94.45702
455.3431, 97.71993
455.8252, 103.0814
456.3073, 108.5088
456.7895, 111.5693
457.2716, 112.0534
457.7537, 111.5890
458.2358, 111.2671
458.7179, 111.0909
459.2000, 113.3878
459.6822, 120.1634
460.1643, 126.6720
460.6464, 131.4471
461.1285, 135.3032
461.6106, 139.5383
462.0927, 144.4976
462.5748, 149.1912
463.0569, 151.8710
463.5391, 151.6864
464.0212, 152.2173
464.5033, 153.7366
464.9854, 155.8338
465.4675, 158.4061
465.9496, 161.0420
466.4318, 163.1297
466.9139, 163.9950
467.3960, 164.4427
467.8781, 167.6022
468.3602, 175.4338
468.8423, 180.8747
469.3245, 179.1176
469.8066, 175.9953
470.2887, 176.1755
470.7708, 180.2636
471.2529, 185.1975
471.7350, 189.0324
472.2172, 191.8741
472.6993, 193.7102
473.1814, 194.1022
473.6635, 194.7829
474.1456, 197.6755
474.6277, 201.7378
475.1099, 204.6144
475.5920, 205.7099
476.0741, 205.8055
476.5562, 205.2945
477.0383, 204.2051
477.5204, 202.3528
478.0026, 199.4796
478.4847, 196.6580
478.9668, 195.6773
479.4489, 197.1432
479.9310, 197.4029
480.4131, 195.1041
480.8953, 192.5237
481.3774, 191.6621
481.8595, 191.9638
482.3416, 191.2720
482.8237, 188.2004
483.3058, 183.5576
483.7880, 180.1273
484.2701, 179.4918
484.7522, 177.8153
485.2343, 173.6429
485.7164, 169.3682
486.1985, 167.5717
486.6807, 167.9634
487.1628, 167.5752
487.6449, 163.4119
488.1270, 155.7941
488.6091, 149.3062
489.0912, 143.8886
489.5734, 139.7842
490.0555, 138.4120
490.5376, 137.5534
491.0197, 134.2777
491.5018, 127.6620
491.9839, 120.7149
492.4661, 116.7651
492.9482, 115.4775
493.4303, 114.1563
493.9124, 112.7842
494.3945, 110.6656
494.8766, 106.5114
495.3588, 101.1148
495.8409, 96.67464
496.3230, 94.25687
496.8051, 92.46920
497.2872, 90.68053
497.7693, 88.67020
498.2515, 85.33125
498.7336, 79.96195
499.2157, 73.94510
499.6978, 69.43787
500.1799, 66.75937
500.6620, 64.42971
501.1442, 63.40717
501.6263, 61.84848
502.1084, 57.64068
502.5905, 51.62317
503.0726, 46.53571
503.5547, 44.08649
504.0369, 43.67139
504.5190, 43.21820
505.0011, 42.90982
505.4832, 42.24285
505.9653, 41.46939
506.4474, 40.15849
506.9296, 37.55345
507.4117, 33.93132
507.8938, 30.70158
508.3759, 29.51022
508.8580, 29.68485
509.3401, 26.87798
509.8223, 19.06458
510.3044, 12.71475
510.7865, 11.06145
511.2686, 11.50814
511.7507, 11.91533
512.2328, 11.93777
512.7150, 11.49544
513.1971, 10.28275
513.6792, 8.562119
514.1613, 7.104118
514.6434, 6.039848
515.1255, 5.008324
515.6077, 3.498947
516.0898, 1.803703
516.5719, 1.119011
517.0540, 0.4859457
517.5361, 1.121924
518.0182, 1.348480
518.5004, 3.303474
518.9825, 6.561714
519.4646, 7.537048
519.9467, 6.268776
520.4288, 2.130890
520.9109, 6.070099
521.3931, 8.897011
521.8752, 1.169533
522.3573, 5.348526
522.8394, 5.657806
523.3215, 2.380341
523.8036, 0.4642330
524.2858, 1.234619
524.7679, 0.7633970
525.2500, 0.3449630
525.7321, 8.0192998E-02
526.2142, 0.6736220
526.6964, 2.837334
527.1785, 4.528839
527.6606, 4.766525
528.1427, 3.889717
528.6248, 2.623177
529.1069, 1.038300
529.5891, 0.3978730
530.0712, 0.6104810
530.5533, 0.2725520
531.0354, 0.1296540
531.5175, 3.036766
531.9996, 6.578407
532.4818, 8.360497
532.9639, 8.535095
533.4460, 8.953735
533.9281, 10.81110
534.4102, 12.36028
534.8923, 11.48104
535.3745, 9.004822
535.8566, 7.918823
536.3387, 9.737808
536.8208, 13.08129
537.3029, 15.10117
537.7850, 15.02238
538.2672, 15.19906
538.7493, 15.72441
539.2314, 16.36617
539.7135, 16.89142
540.1956, 17.55401
540.6777, 19.15297
541.1599, 22.23637
541.6420, 26.02496
542.1241, 28.58911
542.6062, 29.48405
543.0883, 30.97212
543.5704, 34.51631
544.0526, 37.56407
544.5347, 38.16564
545.0168, 36.80623
545.4989, 36.18190
545.9810, 37.93736
546.4631, 40.36765
546.9453, 40.86638
547.4274, 39.63475
547.9095, 39.50528
548.3916, 42.02698
548.8737, 45.76028
549.3558, 48.18855
549.8380, 49.22025
550.3201, 49.84233
550.8022, 49.96321
551.2843, 49.84573
551.7664, 49.82341
552.2485, 49.88068
552.7307, 49.80986
553.2128, 49.45811
553.6949, 49.05734
554.1770, 49.38289
554.6591, 51.82784
555.1412, 52.18172
555.6234, 47.72469
556.1055, 43.73189
556.5876, 44.50439
557.0697, 48.69608
557.5518, 51.38562
558.0339, 49.00166
558.5161, 44.09679
558.9982, 42.95771
559.4803, 46.33930
559.9624, 48.96979
560.4445, 49.28999
560.9266, 48.43230
561.4088, 47.43939
561.8909, 46.31775
562.3730, 45.04755
562.8551, 43.23595
563.3372, 41.53904
563.8193, 40.92045
564.3015, 41.16497
564.7836, 40.93095
565.2657, 39.44671
565.7478, 37.74835
566.2299, 37.87491
566.7120, 41.13197
567.1942, 43.20883
567.6763, 43.15224
568.1584, 42.41951
568.6405, 42.20470
569.1226, 42.10931
569.6047, 40.62431
570.0869, 36.86536
570.5690, 32.47614
571.0511, 31.10747
571.5332, 33.58562
572.0153, 35.91491
572.4974, 38.79671
572.9796, 40.28637
573.4617, 38.14389
573.9438, 33.81424
574.4259, 31.14043
574.9080, 32.40517
575.3901, 34.88003
575.8723, 35.60546
576.3544, 34.70953
576.8365, 33.14030
577.3186, 31.02824
577.8007, 29.25424
578.2828, 29.25673
578.7650, 31.04392
579.2471, 30.83456
579.7292, 27.35719
580.2113, 22.94017
580.6934, 17.41014
581.1755, 12.44037
581.6577, 11.01333
582.1398, 13.89563
582.6219, 17.68261
583.1040, 17.45557
583.5861, 12.43616
584.0682, 9.578728
584.5504, 10.73599
585.0325, 11.75618
585.5146, 11.58340
585.9967, 10.60549
586.4788, 9.168739
586.9609, 7.332298
587.4431, 5.566063
587.9252, 3.959419
588.4073, 2.734665
588.8894, 3.203148
589.3715, 5.929474
589.8536, 8.208450
590.3358, 7.843834
590.8179, 5.708649
591.3000, 5.020439
591.7821, 7.047241
592.2642, 8.216942
592.7463, 6.343742
593.2285, 3.656296
593.7106, 3.028923
594.1927, 4.461914
594.6748, 5.515907
595.1569, 4.124428
595.6390, 0.9672160
596.1212, 0.2421190
596.6033, 2.349586
597.0854, 3.671570
597.5675, 2.093071
598.0496, 1.2657000E-02
598.5317, 0.8043370
599.0139, 0.4126430
599.4960, 6.4902999E-02
599.9781, 0.9264370
600.4602, 2.034904
600.9423, 0.8752520
601.4244, 2.597221
601.9066, 3.950096
602.3887, 0.6775970
602.8708, 3.809883
603.3529, 4.387245
603.8350, 1.057442
604.3171, 1.158562
604.7993, 0.9847490
605.2814, 6.0577001E-02
605.7635, 1.006783
606.2456, 1.965492
606.7277, 2.490273
607.2098, 2.457176
607.6920, 1.837234
608.1741, 0.4292370
608.6562, 1.993149
609.1383, 4.027267
609.6204, 6.458954
610.1025, 7.523636
610.5847, 5.340698
611.0668, 2.019287
611.5489, 0.6380160
612.0310, 2.229584
612.5131, 4.677879
612.9952, 6.522797
613.4774, 7.671455
613.9595, 7.610168
614.4416, 6.141449
614.9237, 4.587593
615.4058, 3.715538
615.8879, 3.374763
616.3701, 3.050194
616.8522, 2.639503
617.3343, 2.439224
617.8164, 2.476906
618.2985, 2.791389
618.7806, 3.514351
619.2628, 4.558624
619.7449, 5.726685
620.2270, 6.835663
620.7091, 7.648521
621.1912, 7.654732
621.6733, 6.332466
622.1555, 5.866508
622.6376, 8.372711
623.1197, 10.03211
623.6018, 7.617012
624.0839, 2.624641
624.5660, 0.7500310
625.0482, 0.6521070
625.5303, 1.262901
626.0124, 4.325272
626.4945, 7.939331
626.9766, 9.839241
627.4587, 9.403549
627.9409, 8.063492
628.4230, 7.044586
628.9051, 6.350548
629.3872, 5.858414
629.8693, 5.647682
630.3514, 5.503357
630.8336, 5.380188
631.3157, 5.308769
631.7978, 5.167908
632.2799, 5.031693
632.7620, 5.345337
633.2441, 6.643593
633.7263, 8.600662
634.2084, 9.911644
634.6905, 10.49233
635.1726, 10.79205
635.6547, 11.29597
636.1368, 11.20348
636.6190, 9.185410
637.1011, 5.455788
637.5832, 3.000175
638.0653, 3.555328
638.5474, 5.042435
639.0295, 6.027779
639.5117, 6.554070
639.9938, 6.798920
640.4759, 6.821037
640.9580, 6.739212
641.4401, 6.647194
641.9222, 6.483322
642.4044, 6.894051
642.8865, 8.864510
643.3686, 10.24989
643.8507, 10.12953
644.3328, 9.459091
644.8149, 9.344589
645.2971, 9.950256
645.7792, 10.46440
646.2613, 10.22072
646.7434, 9.410027
647.2255, 8.260788
647.7076, 6.747604
648.1898, 5.964767
648.6719, 6.704933
649.1540, 7.989716
649.6361, 8.032440
650.1182, 6.508865
650.6003, 5.529869
651.0825, 6.089645
651.5646, 6.402184
652.0467, 4.810566
652.5288, 2.391140
653.0109, 1.314102
653.4930, 2.298222
653.9752, 3.900993
654.4573, 4.180359
654.9394, 3.003262
655.4215, 3.308968
655.9036, 6.094028
656.3857, 8.396965
656.8679, 8.254898
657.3500, 6.833332
657.8321, 5.095943
658.3142, 2.961708
658.7963, 2.085350
659.2784, 4.478073
659.7606, 7.547661
660.2427, 8.409523
660.7248, 7.075775
661.2069, 5.366203
661.6890, 4.247093
662.1711, 3.612331
662.6533, 3.310661
663.1354, 3.474239
663.6175, 3.318516
664.0996, 2.102463
664.5817, 1.427071
665.0638, 2.480320
665.5460, 4.182640
666.0281, 5.123131
666.5102, 4.932312
666.9923, 3.946495
667.4744, 1.424110
667.9565, 1.407887
668.4387, 1.052261
668.9208, 2.731857
669.4029, 6.642475
669.8850, 9.211544
670.3671, 10.54012
670.8492, 10.63165
671.3314, 8.899925
671.8135, 7.443531
672.2956, 5.724754
672.7777, 4.875046
673.2598, 6.701557
673.7419, 9.450577
674.2241, 9.938519
674.7062, 7.031258
675.1883, 3.118172
675.6704, 1.083477
676.1525, 0.7556650
676.6346, 0.2345050
677.1168, 0.8766020
677.5989, 0.9284130
678.0810, 1.563583
678.5631, 5.213863
679.0452, 7.538086
679.5273, 8.372402
680.0095, 8.926727
680.4916, 9.541504
680.9737, 9.939388
681.4558, 9.926491
681.9379, 9.504875
682.4200, 8.398140
682.9022, 6.725376
683.3843, 5.366943
683.8664, 5.568298
684.3485, 7.418560
684.8306, 8.879436
685.3127, 10.42420
685.7949, 10.71233
686.2770, 7.726109
686.7591, 3.995686
687.2412, 2.455696
687.7233, 3.520737
688.2054, 4.544334
688.6876, 3.649971
689.1697, 2.685898
689.6518, 3.765415
690.1339, 6.505146
690.6160, 9.755882
691.0981, 13.10291
691.5803, 15.53290
692.0624, 15.48012
692.5445, 12.64412
693.0266, 9.777336
693.5087, 5.925388
693.9908, 3.422009
694.4730, 3.659096
694.9551, 4.969666
695.4372, 5.699574
695.9193, 5.648613
696.4014, 5.526501
696.8835, 5.642773
697.3657, 5.979469
697.8478, 6.848473
698.3299, 8.016281
698.8120, 8.264362
699.2941, 7.108864
699.7762, 5.431030
700.2584, 4.331917
700.7405, 3.859646
701.2226, 3.358688
701.7047, 2.306477
702.1868, 1.889362
702.6689, 2.536419
703.1511, 3.772869
703.6332, 5.522408
704.1153, 7.536343
704.5974, 8.899853
705.0795, 8.803879
705.5616, 7.878494
706.0438, 7.100800
706.5259, 6.410877
707.0080, 5.217728
707.4901, 3.228626
707.9722, 1.321663
708.4543, 0.2729640
708.9365, 9.6371002E-02
709.4186, 1.105213
709.9007, 4.766495
710.3828, 7.628426
710.8649, 8.901787
711.3470, 9.395721
711.8292, 10.15174
712.3113, 10.76891
712.7934, 9.327507
713.2755, 3.649826
713.7576, 2.304474
714.2397, 1.401798
714.7219, 5.264175
715.2040, 10.22942
715.6861, 12.12743
716.1682, 11.58271
716.6503, 8.332115
717.1324, 3.123306
717.6146, 0.1051060
718.0967, 0.8045460
718.5788, 0.4820590
719.0609, 0.6333310
719.5430, 2.815533
720.0251, 8.004070
720.5073, 14.30457
720.9894, 17.00986
721.4715, 13.58558
721.9536, 7.872822
722.4357, 4.425877
722.9178, 3.096264
723.4000, 3.485519
723.8821, 5.769958
724.3642, 7.337631
724.8463, 6.480465
725.3284, 4.011414
725.8105, 1.776150
726.2927, 0.5788540
726.7748, 1.247372
727.2569, 1.162495
727.7390, 3.755451
728.2211, 5.281395
728.7032, 5.775658
729.1854, 5.116611
729.6675, 3.358959
730.1496, 1.920376
730.6317, 2.873623
731.1138, 5.390411
731.5959, 6.101898
732.0781, 4.804661
732.5602, 3.955021
733.0423, 4.741428
733.5244, 6.020191
734.0065, 6.213337
734.4886, 5.044739
734.9708, 4.362537
735.4529, 5.049877
735.9350, 5.393555
736.4171, 3.685001
736.8992, 1.812954
737.3813, 2.392712
737.8635, 5.427483
738.3456, 8.243546
738.8277, 8.885426
739.3098, 8.009789
739.7919, 6.683849
740.2740, 4.819157
740.7562, 3.500782
741.2383, 3.005482
741.7204, 3.028091
742.2025, 3.384518
742.6846, 4.040157
743.1667, 4.612701
743.6489, 5.077530
744.1310, 5.499016
744.6131, 5.903446
745.0952, 6.241905
745.5773, 6.611637
746.0594, 6.882908
746.5416, 6.749031
747.0237, 6.025276
747.5058, 5.067478
747.9879, 3.906219
748.4700, 2.837975
748.9521, 3.333397
749.4343, 5.625828
749.9164, 7.730404
750.3985, 8.606174
750.8806, 8.414040
751.3627, 7.360489
751.8448, 4.465786
752.3270, 3.300770
752.8091, 5.305592
753.2912, 7.280731
753.7733, 8.180878
754.2554, 8.196777
754.7375, 7.399632
755.2197, 5.890377
755.7018, 4.653011
756.1839, 4.606518
756.6660, 5.196529
757.1481, 5.520767
757.6302, 5.625927
758.1124, 5.955158
758.5945, 6.703690
759.0766, 7.165363
759.5587, 6.335384
760.0408, 4.276306
760.5229, 3.787498
761.0051, 6.573521
761.4872, 8.366543
761.9693, 7.793739
762.4514, 6.779194
762.9335, 6.934834
763.4156, 7.884964
763.8978, 8.016022
764.3799, 6.403980
764.8620, 4.417568
765.3441, 3.072906
765.8262, 2.148327
766.3083, 1.254349
766.7905, 0.3508190
767.2726, 0.4609600
767.7547, 1.143486
768.2368, 1.638969
768.7189, 1.813320
769.2010, 1.742649
769.6832, 1.056633
770.1653, 0.4087030
770.6474, 2.281929
771.1295, 5.119995
771.6116, 7.732090
772.0938, 9.042297
772.5759, 8.940304
773.0580, 7.929947
773.5401, 5.418751
774.0222, 2.842579
774.5043, 1.159588
774.9865, 0.3327370
775.4686, 0.3664590
775.9507, 1.156399
776.4328, 2.103836
776.9149, 2.530903
777.3970, 2.605019
777.8792, 3.389259
778.3613, 5.196178
778.8434, 5.954262
779.3255, 4.868401
779.8076, 3.127888
780.2897, 0.8272930
780.7719, 1.403736
781.2540, 0.6743350
781.7361, 6.560715
782.2182, 11.24006
782.7003, 9.150925
783.1824, 5.381058
783.6646, 3.674156
784.1467, 3.803749
784.6288, 4.307663
785.1109, 4.696167
785.5930, 4.811790
786.0751, 4.248566
786.5573, 3.292126
787.0394, 3.336536
787.5215, 4.489040
788.0036, 5.254475
788.4857, 5.019711
788.9678, 4.063572
789.4500, 2.420712
789.9321, 0.2365490
790.4142, 0.7651520
790.8963, 2.960262
791.3784, 5.971935
791.8605, 7.351830
792.3427, 7.534470
792.8248, 6.541222
793.3069, 4.680370
793.7890, 2.831314
794.2711, 0.9694710
794.7532, 5.9680998E-02
795.2354, 2.422733
795.7175, 1.149366
796.1996, 5.788113
796.6817, 1.408051
797.1638, 1.376736
797.6459, 1.144314
798.1281, 6.382133
798.6102, 8.208683
799.0923, 5.450409
799.5744, 4.316113
800.0565, 5.733036
800.5386, 7.263374
801.0208, 8.567307
801.5029, 9.019352
801.9850, 7.145775
802.4671, 2.743397
802.9492, 4.0730000E-02
803.4313, 1.583611
803.9135, 3.732063
804.3956, 4.059273
804.8777, 3.683861
805.3598, 4.422832
805.8419, 6.455608
806.3240, 8.729553
806.8062, 10.68341
807.2883, 11.85365
807.7704, 10.67686
808.2525, 7.191246
808.7346, 5.377491
809.2167, 6.227039
809.6989, 7.004642
810.1810, 5.493843
810.6631, 6.952377
811.1452, 3.052608
811.6273, 7.852528
812.1094, 10.53865
812.5916, 10.20512
813.0737, 8.819729
813.5558, 6.224857
814.0379, 3.533012
814.5200, 2.025280
815.0021, 2.050800
815.4843, 2.967247
815.9664, 5.340588
816.4485, 7.943207
816.9306, 9.635277
817.4127, 10.41844
817.8948, 10.62259
818.3770, 10.27943
818.8591, 9.160194
819.3412, 6.910889
819.8233, 4.168961
820.3054, 3.175587
820.7875, 4.126381
821.2697, 5.384823
821.7518, 7.661324
822.2339, 9.043915
822.7160, 7.433971
823.1981, 4.629040
823.6802, 4.082920
824.1624, 6.495010
824.6445, 8.051476
825.1266, 7.211449
825.6087, 6.113335
826.0908, 5.440315
826.5729, 5.537022
827.0551, 7.435944
827.5372, 10.75288
828.0193, 13.43981
828.5014, 14.04325
828.9835, 12.86533
829.4656, 9.427399
829.9478, 4.446335
830.4299, 1.720257
830.9120, 2.018822
831.3941, 3.586891
831.8762, 5.513721
832.3583, 7.302048
832.8404, 7.489052
833.3225, 5.191002
833.8046, 3.846581
834.2867, 4.066776
834.7689, 4.462555
835.2510, 4.526970
835.7331, 4.495106
836.2152, 4.695347
836.6973, 4.973232
837.1794, 5.516758
837.6616, 7.105545
838.1437, 8.451736
838.6258, 8.271305
839.1079, 7.484665
839.5900, 7.192314
840.0721, 7.507610
840.5543, 8.202919
841.0364, 9.280304
841.5185, 10.15079
842.0006, 9.632069
842.4827, 8.004745
842.9648, 7.027203
843.4470, 6.902534
843.9291, 6.998520
844.4112, 7.153992
844.8933, 6.895374
845.3754, 5.120281
845.8575, 1.120094
846.3397, 0.1482700
846.8218, 5.764938
847.3039, 9.569977
847.7860, 8.763168
848.2681, 6.503372
848.7502, 4.953510
849.2324, 4.311279
849.7145, 4.745987
850.1966, 7.232845
850.6787, 9.092976
851.1608, 8.360077
851.6429, 6.502926
852.1251, 4.867096
852.6072, 3.712914
853.0893, 3.012814
853.5714, 2.524944
854.0535, 2.542358
854.5356, 3.889648
855.0178, 5.910355
855.4999, 5.613811
855.9820, 2.848454
856.4641, 0.7922740
856.9462, 0.3150180
857.4283, 1.217346
857.9105, 3.815441
858.3926, 7.658375
858.8747, 9.045368
859.3568, 5.500046
859.8389, 3.836090
860.3210, 6.780151
860.8032, 9.132324
861.2853, 7.245430
861.7674, 3.498772
862.2495, 2.243500
862.7316, 4.496910
863.2137, 6.372734
863.6959, 6.346004
864.1780, 5.234123
864.6601, 2.263435
865.1422, 0.7814980
865.6243, 7.4676998E-02
866.1064, 4.311100
866.5886, 7.531643
867.0707, 5.642513
867.5528, 1.605022
868.0349, 0.9435010
868.5170, 3.137390
868.9991, 5.224701
869.4813, 6.890324
869.9634, 7.223995
870.4455, 5.438095
870.9276, 2.836700
871.4097, 1.998192
871.8918, 0.3461420
872.3740, 1.766365
872.8561, 1.390240
873.3382, 4.358654
873.8203, 4.168400
874.3024, 2.319321
874.7845, 1.032906
875.2667, 5.257790
875.7488, 7.730148
876.2309, 7.651669
876.7130, 6.283035
877.1951, 2.308041
877.6772, 1.264984
878.1594, 1.131390
878.6415, 1.297428
879.1236, 0.9146340
879.6057, 0.6628759
880.0878, 0.8809090
880.5699, 0.2248230
881.0521, 8.1696004E-02
881.5342, 0.6937070
882.0163, 1.817394
882.4984, 2.499996
882.9805, 2.516521
883.4626, 1.880192
883.9448, 0.3863750
884.4269, 1.199909
884.9090, 4.3830998E-02
885.3911, 4.857769
885.8732, 6.412010
886.3553, 2.655323
886.8375, 0.6814960
887.3196, 0.7320980
887.8017, 0.8412060
888.2838, 1.584133
888.7659, 1.391441
889.2480, 1.719776
889.7302, 3.479252
890.2123, 4.608864
890.6944, 3.888756
891.1765, 2.951027
891.6586, 3.746361
892.1407, 2.576589
892.6229, 2.631282
893.1050, 1.237347
893.5871, 2.075443
894.0692, 1.361614
894.5513, 0.6566090
895.0334, 0.5601960
895.5156, 0.8159900
895.9977, 0.6940120
896.4798, 1.500156
896.9619, 1.001724
897.4440, 0.9666523
897.9261, 0.3429340
898.4083, 0.6094860
898.8904, 0.3267100
899.3725, 0.7347560
899.8546, 2.661301
900.3367, 3.592480
900.8188, 2.101925
901.3010, 0.2467880
901.7831, 0.3271790
902.2652, 2.300812
902.7473, 4.458088
903.2294, 6.293365
903.7115, 7.389038
904.1937, 7.432968
904.6758, 6.866035
905.1579, 5.795158
905.6400, 4.354614
906.1221, 3.057976
906.6042, 1.720352
907.0864, 0.9939500
907.5685, 1.563473
908.0506, 2.288807
908.5327, 2.709068
909.0148, 2.623039
909.4969, 1.297161
909.9791, 1.201214
910.4612, 2.556911
910.9433, 0.3819080
911.4254, 2.817646
911.9075, 4.829155
912.3896, 5.738708
912.8718, 5.201332
913.3539, 3.585037
913.8360, 2.732147
914.3181, 3.707390
914.8002, 5.467453
915.2823, 6.320862
915.7645, 6.433929
916.2466, 7.296928
916.7287, 8.974937
917.2108, 10.43633
917.6929, 11.38837
918.1750, 11.92188
918.6572, 12.22111
919.1393, 12.15340
919.6214, 10.72229
920.1035, 6.499435
920.5856, 4.476326
921.0677, 6.412857
921.5499, 8.562988
922.0320, 8.688034
922.5141, 8.241821
922.9962, 9.613937
923.4783, 13.20267
923.9604, 14.61380
924.4426, 10.64171
924.9247, 7.709869
925.4068, 8.799751
925.8889, 11.10624
926.3710, 12.25227
926.8531, 12.45605
927.3353, 13.14523
927.8174, 14.97102
928.2995, 15.99169
928.7816, 14.02991
929.2637, 11.30700
929.7458, 9.798752
930.2280, 9.424477
930.7101, 10.60493
931.1922, 12.87333
931.6743, 14.69462
932.1564, 14.67155
932.6385, 14.43649
933.1207, 17.45209
933.6028, 22.56548
934.0849, 24.09746
934.5670, 21.77237
935.0491, 20.56406
935.5313, 22.61326
936.0134, 25.54008
936.4955, 26.15802
936.9776, 27.69860
937.4597, 29.17336
937.9418, 28.71198
938.4240, 30.74780
938.9061, 30.28844
939.3882, 29.51481
939.8703, 29.28251
940.3524, 29.97803
940.8345, 32.75323
941.3167, 38.65833
941.7988, 42.68105
942.2809, 43.47240
942.7630, 44.18124
943.2451, 44.37350
943.7272, 45.57134
944.2094, 49.96303
944.6915, 56.40296
945.1736, 61.21228
945.6557, 63.26495
946.1378, 64.74519
946.6199, 65.44880
947.1021, 66.87997
947.5842, 70.27930
948.0663, 74.99980
948.5484, 80.15067
949.0305, 85.51051
949.5126, 91.27361
949.9948, 97.83516
950.4769, 104.3441
950.9590, 109.7902
951.4411, 114.6686
951.9232, 120.4034
952.4053, 126.8360
952.8875, 132.3973
953.3696, 136.5778
953.8517, 141.6329
954.3338, 150.4974
954.8159, 161.4363
955.2980, 169.7623
955.7802, 175.8497
956.2623, 181.9585
956.7444, 188.5339
957.2265, 197.1977
957.7086, 209.2414
958.1907, 222.4296
958.6729, 232.6943
959.1550, 239.9728
959.6371, 246.6249
960.1192, 252.4741
960.6013, 260.0536
961.0834, 270.1354
961.5656, 281.2097
962.0477, 292.9167
962.5298, 304.4840
963.0119, 312.9989
963.4940, 316.6427
963.9761, 321.9192
964.4583, 329.5096
964.9404, 337.8672
965.4225, 347.5115
965.9046, 356.8991
966.3867, 364.5361
966.8688, 370.5949
967.3510, 376.0345
967.8331, 379.7526
968.3152, 384.7511
968.7973, 394.3936
969.2794, 403.0222
969.7615, 407.1133
970.2437, 408.0115
970.7258, 407.8185
971.2079, 406.7559
971.6900, 403.4747
972.1721, 396.3287
972.6542, 388.1578
973.1364, 380.4152
973.6185, 372.7470
974.1006, 365.1335
974.5827, 357.1903
975.0648, 348.1059
975.5469, 337.5690
976.0291, 326.3119
976.5112, 314.6000
976.9933, 302.6647
977.4754, 289.9745
977.9575, 277.5098
978.4396, 267.3922
978.9218, 259.7123
979.4039, 253.9185
979.8860, 249.7937
980.3681, 245.8936
980.8502, 240.1062
981.3323, 232.8985
981.8145, 225.6453
982.2966, 218.4966
982.7787, 212.5620
983.2608, 208.1183
983.7429, 204.5524
984.2250, 201.5573
984.7072, 198.7311
985.1893, 195.3474
985.6714, 191.4209
986.1535, 186.3969
986.6356, 180.0879
987.1177, 173.5959
987.5999, 166.9287
988.0820, 161.0042
988.5641, 156.9945
989.0462, 154.0441
989.5283, 149.0629
990.0104, 140.9448
990.4926, 134.4347
990.9747, 130.7858
991.4568, 126.3513
991.9389, 119.2585
992.4210, 111.5822
992.9031, 105.5805
993.3853, 100.9552
993.8674, 95.55067
994.3495, 88.31670
994.8316, 82.11549
995.3137, 77.04138
995.7958, 72.97212
996.2780, 70.84740
996.7601, 69.06342
997.2422, 65.59924
997.7243, 60.61544
998.2064, 56.26791
998.6885, 53.17536
999.1707, 50.44088
999.6528, 47.98959
1000.135, 45.67220
1000.617, 43.48849
1001.099, 41.33396
1001.581, 39.25761
1002.063, 37.16474
1002.545, 34.41965
1003.028, 29.70010
1003.510, 25.81072
1003.992, 25.02785
1004.474, 25.13504
1004.956, 24.39177
1005.438, 22.75607
1005.920, 20.18761
1006.402, 16.87376
1006.885, 14.31425
1007.367, 14.11090
1007.849, 14.24927
1008.331, 12.06358
1008.813, 9.519577
1009.295, 10.49962
1009.777, 13.64250
1010.259, 13.56831
1010.741, 8.693565
1011.224, 4.328362
1011.706, 6.045235
1012.188, 9.981316
1012.670, 10.44244
1013.152, 8.500458
1013.634, 6.215813
1014.116, 4.057350
1014.598, 2.478203
1015.081, 1.682076
1015.563, 1.518501
1016.045, 2.430008
1016.527, 3.356178
1017.009, 0.3762820
1017.491, 5.189110
1017.973, 6.505100
1018.455, 2.944336
1018.937, 0.6491850
1019.420, 1.825989
1019.902, 1.840607
1020.384, 2.452484
1020.866, 3.370369
1021.348, 2.958771
1021.830, 1.281166
1022.312, 0.3293690
1022.794, 0.4757690
1023.276, 0.3744890
1023.759, 0.8228840
1024.241, 0.9029493
1024.723, 2.257450
1025.205, 1.078728
1025.687, 1.516769
1026.169, 1.040390
1026.651, 4.184277
1027.133, 0.7138600
1027.616, 2.339569
1028.098, 2.452499
1028.580, 0.7810970
1029.062, 0.7612150
1029.544, 2.197372
1030.026, 2.714371
1030.508, 1.913948
1030.990, 1.754166
1031.473, 3.138508
1031.955, 3.899548
1032.437, 2.551704
1032.919, 0.1763690
1033.401, 3.284409
1033.883, 7.089348
1034.365, 7.815231
1034.847, 3.796616
1035.329, 0.3290560
1035.812, 2.163170
1036.294, 3.149006
1036.776, 1.618172
1037.258, 1.192329
1037.740, 2.611855
1038.222, 2.128387
1038.704, 3.833366
1039.186, 11.80113
1039.668, 15.20904
1040.151, 7.660271
1040.633, 0.3879390
1041.115, 1.401131
1041.597, 6.972977
1042.079, 10.09914
1042.561, 10.49595
1043.043, 10.42507
1043.525, 8.557243
1044.008, 8.180801
1044.490, 11.71951
1044.972, 14.97199
1045.454, 14.28364
1045.936, 11.98032
1046.418, 12.75459
1046.900, 17.34048
1047.382, 20.28841
1047.865, 19.44807
1048.347, 19.14896
1048.829, 20.36497
1049.311, 22.41500
1049.793, 25.80920
1050.275, 29.32429
1050.757, 30.56863
1051.239, 29.16922
1051.721, 28.74101
1052.203, 29.82922
1052.686, 32.17017
1053.168, 37.10040
1053.650, 41.84412
1054.132, 44.61933
1054.614, 45.86697
1055.096, 45.99030
1055.578, 45.09865
1056.060, 45.52321
1056.543, 49.71389
1057.025, 52.75320
1057.507, 52.00484
1057.989, 50.66512
1058.471, 50.48682
1058.953, 51.51167
1059.435, 54.00616
1059.917, 57.83871
1060.400, 60.74678
1060.882, 61.30753
1061.364, 61.81143
1061.846, 64.00797
1062.328, 65.49931
1062.810, 63.36670
1063.292, 59.98946
1063.774, 59.44590
1064.256, 61.90800
1064.739, 63.44644
1065.221, 61.52093
1065.703, 60.44592
1066.185, 63.41370
1066.667, 66.38570
1067.149, 66.11040
1067.631, 64.18340
1068.113, 62.71010
1068.595, 62.12750
1069.078, 62.56235
1069.560, 64.48380
1070.042, 66.50526
1070.524, 68.82749
1071.006, 70.17410
1071.488, 68.67018
1071.970, 66.25858
1072.452, 65.70392
1072.935, 66.92410
1073.417, 67.72404
1073.899, 67.26151
1074.381, 66.61345
1074.863, 65.26382
1075.345, 64.65861
1075.827, 67.57384
1076.309, 71.57248
1076.792, 73.05376
1077.274, 72.12428
1077.756, 71.47343
1078.238, 72.05853
1078.720, 72.42497
1079.202, 70.65658
1079.684, 69.88212
1080.166, 73.81609
1080.648, 78.45157
1081.130, 78.87639
1081.613, 75.99410
1082.095, 73.78156
1082.577, 73.44995
1083.059, 73.73717
1083.541, 75.42661
1084.023, 75.57929
1084.505, 70.45400
1084.987, 65.28163
1085.469, 65.93980
1085.952, 70.11505
1086.434, 71.94209
1086.916, 69.96436
1087.398, 67.17539
1087.880, 63.67998
1088.362, 61.33626
1088.844, 62.39212
1089.326, 63.53979
1089.809, 61.42596
1090.291, 57.78918
1090.773, 56.03431
1091.255, 56.49302
1091.737, 56.68494
1092.219, 56.13046
1092.701, 54.55205
1093.183, 50.92155
1093.666, 47.02764
1094.148, 43.75870
1094.630, 41.68997
1095.112, 42.02730
1095.594, 44.25947
1096.076, 44.91666
1096.558, 41.72187
1097.040, 39.40170
1097.522, 40.36858
1098.005, 41.64669
1098.487, 41.94312
1098.969, 41.29978
1099.451, 39.49408
1099.933, 36.87271
1100.415, 34.70515
1100.897, 33.48862
1101.379, 32.08823
1101.861, 29.09470
1102.344, 27.27451
1102.826, 29.46838
1103.308, 31.94633
1103.790, 30.51690
1104.272, 26.62921
1104.754, 24.84566
1105.236, 26.24522
1105.718, 27.07661
1106.201, 25.97808
1106.683, 25.18968
1107.165, 25.97899
1107.647, 26.67117
1108.129, 26.26191
1108.611, 24.85973
1109.093, 22.33007
1109.575, 18.50515
1110.057, 16.21265
1110.540, 16.84548
1111.022, 17.35458
1111.504, 17.02170
1111.986, 16.80144
1112.468, 17.85477
1112.950, 18.87082
1113.432, 17.59114
1113.914, 14.23113
1114.396, 12.55029
1114.879, 14.26411
1115.361, 14.69062
1115.843, 12.76777
1116.325, 10.99885
1116.807, 10.07514
1117.289, 9.855713
1117.771, 10.88583
1118.253, 12.40502
1118.736, 11.08566
1119.218, 11.45116
1119.700, 12.54029
1120.182, 9.300667
1120.664, 13.01329
1121.146, 10.56316
1121.628, 6.927353
1122.110, 5.549698
1122.593, 5.476624
1123.075, 4.694916
1123.557, 3.121178
1124.039, 2.237022
1124.521, 2.129005
1125.003, 2.533684
1125.485, 3.721062
1125.967, 4.320816
1126.449, 3.360497
1126.932, 2.134895
1127.414, 2.501747
1127.896, 4.148224
1128.378, 4.965164
1128.860, 4.876472
1129.342, 4.621056
1129.824, 4.203796
1130.306, 4.149124
1130.788, 4.732338
1131.271, 5.020042
1131.753, 3.919876
1132.235, 2.486282
1132.717, 4.129295
1133.199, 8.467400
1133.681, 9.915123
1134.163, 8.428078
1134.645, 5.482948
1135.128, 1.498505
1135.610, 0.1705930
1136.092, 2.771416
1136.574, 7.327591
1137.056, 9.334808
1137.538, 9.211166
1138.020, 7.562134
1138.502, 4.996422
1138.984, 4.556526
1139.467, 6.257225
1139.949, 7.527817
1140.431, 7.335739
1140.913, 6.825714
1141.395, 6.874855
1141.877, 7.076935
1142.359, 6.643608
1142.841, 5.779121
1143.323, 5.079224
1143.806, 4.580605
1144.288, 3.037518
1144.770, 0.4981960
1145.252, 0.9089890
1145.734, 0.1207580
1146.216, 2.558739
1146.698, 6.315174
1147.180, 10.15516
1147.663, 12.93158
1148.145, 14.72301
1148.627, 15.12677
1149.109, 14.83264
1149.591, 16.12486
1150.073, 19.95705
1150.555, 23.03976
1151.037, 22.71149
1151.520, 21.76951
1152.002, 21.65861
1152.484, 22.29047
1152.966, 24.18274
1153.448, 26.45701
1153.930, 27.66400
1154.412, 27.65498
1154.894, 27.29467
1155.376, 26.17997
1155.859, 26.05560
1156.341, 28.75712
1156.823, 31.00361
1157.305, 30.32517
1157.787, 29.03674
1158.269, 29.99503
1158.751, 32.36701
1159.233, 32.77037
1159.715, 29.69081
1160.198, 29.09313
1160.680, 34.00636
1161.162, 37.51156
1161.644, 37.43135
1162.126, 36.95350
1162.608, 37.99646
1163.090, 39.56364
1163.572, 40.14164
1164.055, 39.78741
1164.537, 39.71167
1165.019, 40.03746
1165.501, 40.38060
1165.983, 40.45720
1166.465, 41.29978
1166.947, 43.72515
1167.429, 45.40238
1167.911, 44.11938
1168.394, 41.09987
1168.876, 39.20968
1169.358, 38.45992
1169.840, 39.80434
1170.322, 43.30378
1170.804, 43.65121
1171.286, 39.81453
1171.768, 36.84212
1172.250, 37.43712
1172.733, 38.93873
1173.215, 38.23112
1173.697, 35.91947
1174.179, 32.95419
1174.661, 29.79506
1175.143, 28.20446
1175.625, 28.00570
1176.107, 27.85840
1176.590, 27.40947
1177.072, 27.19092
1177.554, 27.56755
1178.036, 28.20651
1178.518, 29.45813
1179.000, 30.04562
1179.482, 27.59226
1179.964, 23.77070
1180.447, 21.55165
1180.929, 20.64786
1181.411, 18.72781
1181.893, 15.13594
1182.375, 12.35349
1182.857, 12.13210
1183.339, 12.65632
1183.821, 13.26072
1184.303, 13.83166
1184.786, 14.63582
1185.268, 15.12421
1185.750, 14.41069
1186.232, 12.61180
1186.714, 10.66635
1187.196, 8.391068
1187.678, 7.034515
1188.160, 7.175537
1188.642, 7.782711
1189.125, 9.250843
1189.607, 10.34640
1190.089, 9.808655
1190.571, 8.638855
1191.053, 8.902199
1191.535, 10.57317
1192.017, 10.55779
1192.499, 8.056400
1192.982, 6.218220
1193.464, 5.179932
1193.946, 5.262672
1194.428, 7.044533
1194.910, 8.338818
1195.392, 7.055176
1195.874, 4.267403
1196.356, 2.718716
1196.839, 2.299820
1197.321, 0.9107780
1197.803, 1.285320
1198.285, 0.9604380
1198.767, 2.124214
1199.249, 4.602379
1199.731, 4.936531
1200.213, 3.412468
1200.695, 5.409366
1201.177, 4.356701
1201.660, 6.215061
1202.142, 6.293526
1202.624, 4.912533
1203.106, 2.746948
1203.588, 1.173069
1204.070, 0.3318940
1204.552, 0.6745570
1205.034, 2.150269
1205.517, 3.260231
1205.999, 3.832375
1206.481, 3.347256
1206.963, 3.544504
1207.445, 3.409821
1207.927, 3.396122
1208.409, 1.049702
1208.891, 2.297050
1209.374, 6.072060
1209.856, 7.981560
1210.338, 6.668503
1210.820, 5.240807
1211.302, 3.620045
1211.784, 2.697449
1212.266, 3.450245
1212.748, 4.301102
1213.230, 4.114876
1213.713, 3.320091
1214.195, 2.860077
1214.677, 2.747295
1215.159, 1.116615
1215.641, 1.241039
1216.123, 1.966469
1216.605, 0.4224660
1217.087, 3.381668
1217.569, 2.747742
1218.052, 1.356731
1218.534, 1.649879
1219.016, 2.788025
1219.498, 2.999886
1219.980, 2.576622
1220.462, 3.055042
1220.944, 4.084126
1221.426, 4.154526
1221.909, 3.153122
1222.391, 3.574917
1222.873, 0.9838520
1223.355, 2.469414
1223.837, 2.012478
1224.319, 0.1452750
1224.801, 3.866287
1225.283, 7.835640
1225.766, 9.292789
1226.248, 9.026112
1226.730, 7.943760
1227.212, 6.497368
1227.694, 5.351765
1228.176, 4.784237
1228.658, 4.270378
1229.140, 3.396961
1229.622, 2.953491
1230.104, 3.587021
1230.587, 4.245499
1231.069, 3.888081
1231.551, 3.626801
1232.033, 5.077831
1232.515, 7.616940
1232.997, 8.884937
1233.479, 8.746689
1233.961, 7.958603
1234.444, 6.319687
1234.926, 4.614700
1235.408, 2.707180
1235.890, 2.415173
1236.372, 4.885063
1236.854, 7.721817
1237.336, 8.199528
1237.818, 7.143784
1238.301, 6.162659
1238.783, 5.541843
1239.265, 7.051640
1239.747, 9.926367
1240.229, 10.72635
1240.711, 9.329874
1241.193, 8.761072
1241.675, 10.32307
1242.157, 11.33951
1242.640, 8.764339
1243.122, 6.452171
1243.604, 8.539646
1244.086, 11.05223
1244.568, 8.994095
1245.050, 9.885664
1245.532, 9.031097
1246.014, 6.929764
1246.496, 6.710175
1246.979, 2.654110
1247.461, 1.134911
1247.943, 3.947742
1248.425, 6.698612
1248.907, 9.412243
1249.389, 10.64738
1249.871, 8.943832
1250.353, 6.557243
1250.836, 6.225014
1251.318, 7.058392
1251.800, 5.748283
1252.282, 1.957939
1252.764, 0.8915410
1253.246, 2.599159
1253.728, 3.360229
1254.210, 2.255993
1254.693, 0.9256360
1255.175, 1.430229
1255.657, 2.936501
1256.139, 5.391762
1256.621, 7.169643
1257.103, 4.058998
1257.585, 6.977108
1258.067, 2.245037
1258.549, 7.602268
1259.031, 8.661591
1259.514, 5.879642
1259.996, 4.548958
1260.478, 6.153885
1260.960, 6.637814
1261.442, 2.504395
1261.924, 0.3406490
1262.406, 0.6222500
1262.888, 2.815578
1263.371, 6.241646
1263.853, 9.026741
1264.335, 9.220387
1264.817, 7.508110
1265.299, 5.126789
1265.781, 1.890427
1266.263, 0.7965970
1266.745, 2.170261
1267.228, 3.948242
1267.710, 5.939346
1268.192, 7.270386
1268.674, 7.615036
1269.156, 7.384628
1269.638, 7.364956
1270.120, 7.390060
1270.602, 8.066963
1271.084, 8.659969
1271.567, 7.121304
1272.049, 4.452728
1272.531, 2.556740
1273.013, 1.641819
1273.495, 1.500111
1273.977, 1.705578
1274.459, 3.688435
1274.941, 8.240551
1275.423, 10.77003
1275.906, 7.060970
1276.388, 3.488125
1276.870, 3.079113
1277.352, 3.786221
1277.834, 4.851097
1278.316, 5.415535
1278.798, 3.666882
1279.280, 0.2145230
1279.763, 0.4133680
1280.245, 2.818958
1280.727, 4.618103
1281.209, 4.697109
1281.691, 5.243275
1282.173, 6.816315
1282.655, 6.097828
1283.137, 3.749260
1283.620, 0.9533650
1284.102, 9.7434998E-02
1284.584, 0.2995800
1285.066, 0.0000000E+00
##END=



