##NAMES=Jahnsite-(CaMnMn)
##RRUFFID=R080072
##IDEAL CHEMISTRY=CaMn^2+^Mn^2+^_2_Fe^3+^_2_(PO_4_)_4_(OH)_2_&#183;8H_2_O
##LOCALITY=Tip Top mine, Custer Country, South Dakota, USA
##OWNER=RRUFF
##SOURCE=Tom Loomis
##DESCRIPTION=Pale yellow blocky to thick tabular crystals associated with scholzite, R080068
##STATUS=The identification of this mineral has been confirmed only by single crystal X-ray diffraction.
##URL=rruff.info/R080072
140.5652, 0.0000000E+00
141.0473, 1.280823
141.5294, 2.310852
142.0115, 3.161499
142.4937, 2.168152
142.9758, 0.6606450
143.4579, 0.1851200
143.9400, 0.3107910
144.4221, 0.2316280
144.9042, 8.2520001E-02
145.3864, 0.2698970
145.8685, 1.017761
146.3506, 2.330383
146.8327, 3.783569
147.3148, 5.317261
147.7969, 7.049438
148.2791, 8.517822
148.7612, 9.784302
149.2433, 10.77527
149.7254, 11.35425
150.2075, 10.60767
150.6896, 10.24017
151.1718, 10.89343
151.6539, 13.50452
152.1360, 15.77307
152.6181, 17.61243
153.1002, 19.07800
153.5823, 20.31415
154.0645, 21.20837
154.5466, 21.99060
155.0287, 22.76971
155.5108, 24.06702
155.9929, 24.77002
156.4750, 24.28259
156.9572, 22.91193
157.4393, 21.91132
157.9214, 21.40741
158.4035, 21.42596
158.8856, 21.98322
159.3677, 23.92017
159.8499, 25.57654
160.3320, 26.20557
160.8141, 26.00433
161.2962, 26.15192
161.7783, 27.25519
162.2604, 28.76233
162.7426, 30.22565
163.2247, 31.60107
163.7068, 32.83820
164.1889, 33.80420
164.6710, 34.51025
165.1531, 35.38159
165.6353, 36.94666
166.1174, 38.66907
166.5995, 39.96991
167.0816, 40.07477
167.5637, 40.09930
168.0458, 40.77203
168.5280, 42.08228
169.0101, 43.62097
169.4922, 45.35632
169.9743, 47.07227
170.4564, 48.46368
170.9385, 48.89429
171.4207, 49.25226
171.9028, 50.45502
172.3849, 52.56158
172.8670, 54.75806
173.3491, 56.43103
173.8312, 57.77197
174.3134, 59.15399
174.7955, 61.22919
175.2776, 63.21063
175.7597, 63.89624
176.2418, 63.10730
176.7239, 62.16882
177.2061, 62.37115
177.6882, 63.44043
178.1703, 64.59723
178.6524, 65.91577
179.1345, 67.26379
179.6166, 67.89929
180.0988, 67.64264
180.5809, 67.25848
181.0630, 67.72076
181.5451, 68.75873
182.0272, 69.40009
182.5093, 68.35474
182.9915, 66.25085
183.4736, 64.77673
183.9557, 64.18506
184.4378, 63.89471
184.9199, 63.18939
185.4020, 62.04840
185.8842, 60.35321
186.3663, 57.80725
186.8484, 54.60480
187.3305, 51.55261
187.8126, 48.74506
188.2947, 45.95862
188.7769, 42.67792
189.2590, 38.93781
189.7411, 35.41913
190.2232, 32.56244
190.7053, 30.29456
191.1874, 28.02881
191.6696, 25.63593
192.1517, 23.35999
192.6338, 21.53918
193.1159, 20.16754
193.5980, 19.41315
194.0801, 19.74091
194.5623, 21.03687
195.0444, 21.64594
195.5265, 21.20380
196.0086, 20.28760
196.4907, 20.24701
196.9728, 21.18823
197.4550, 22.06598
197.9371, 21.78094
198.4192, 19.92847
198.9013, 19.77039
199.3834, 22.01593
199.8655, 25.60303
200.3477, 27.96954
200.8298, 28.90814
201.3119, 29.52155
201.7940, 30.63806
202.2761, 32.35919
202.7582, 33.42908
203.2404, 33.54358
203.7225, 33.08350
204.2046, 33.16156
204.6867, 33.93677
205.1688, 34.73297
205.6509, 35.20819
206.1331, 35.40741
206.6152, 35.07855
207.0973, 34.19647
207.5794, 32.77899
208.0615, 30.66895
208.5436, 27.50397
209.0258, 24.58960
209.5079, 22.76074
209.9900, 22.14484
210.4721, 22.17468
210.9542, 23.43365
211.4363, 25.08508
211.9185, 23.97333
212.4006, 19.06653
212.8827, 13.57782
213.3648, 9.500122
213.8469, 7.024963
214.3290, 5.119385
214.8112, 3.976807
215.2933, 3.284729
215.7754, 1.777466
216.2575, 1.035767
216.7396, 3.757629
217.2217, 5.525208
217.7039, 6.108276
218.1860, 6.414368
218.6681, 6.356567
219.1502, 6.085083
219.6323, 6.198914
220.1144, 6.888794
220.5966, 7.625122
221.0787, 8.066833
221.5608, 8.026367
222.0429, 8.218750
222.5250, 8.942139
223.0071, 9.888306
223.4893, 9.857056
223.9714, 8.392029
224.4535, 6.642578
224.9356, 5.221313
225.4177, 4.353149
225.8998, 3.260071
226.3820, 1.787354
226.8641, 7.1716003E-02
227.3462, 1.272827
227.8283, 1.809875
228.3104, 2.622803
228.7925, 4.365662
229.2747, 7.760620
229.7568, 10.45264
230.2389, 12.08081
230.7210, 13.01166
231.2031, 14.47394
231.6852, 17.14374
232.1674, 19.33069
232.6495, 20.01355
233.1316, 18.09705
233.6137, 17.14233
234.0958, 17.48871
234.5779, 18.79993
235.0601, 20.18512
235.5422, 21.84796
236.0243, 23.32440
236.5064, 24.31854
236.9885, 24.30029
237.4706, 25.01654
237.9528, 26.81207
238.4349, 29.24078
238.9170, 31.14410
239.3991, 32.18848
239.8812, 33.20361
240.3633, 34.63556
240.8455, 36.98639
241.3276, 38.40436
241.8097, 38.11896
242.2918, 37.16791
242.7739, 37.99005
243.2560, 41.83850
243.7382, 45.52563
244.2203, 47.74567
244.7024, 47.82703
245.1845, 48.30383
245.6666, 49.02277
246.1487, 50.21313
246.6309, 52.38617
247.1130, 55.89246
247.5951, 59.82733
248.0772, 63.89069
248.5593, 68.15448
249.0414, 72.37988
249.5236, 76.71240
250.0057, 80.89807
250.4878, 84.51550
250.9699, 87.14075
251.4520, 89.94519
251.9341, 93.22791
252.4163, 97.00348
252.8984, 101.2831
253.3805, 106.3012
253.8626, 111.6816
254.3447, 116.6751
254.8268, 121.0279
255.3090, 125.6788
255.7911, 131.0319
256.2732, 137.2972
256.7553, 142.6890
257.2374, 146.8200
257.7195, 150.4826
258.2017, 154.6060
258.6838, 159.2227
259.1659, 164.3245
259.6480, 170.0986
260.1301, 176.5328
260.6122, 182.7704
261.0944, 188.8743
261.5765, 194.7419
262.0586, 200.1746
262.5407, 204.8370
263.0228, 209.9703
263.5049, 215.8292
263.9871, 222.4488
264.4692, 229.4001
264.9513, 237.0822
265.4334, 244.5631
265.9155, 250.9102
266.3976, 255.5094
266.8798, 260.7079
267.3619, 267.0386
267.8440, 274.3751
268.3261, 281.2352
268.8082, 287.4403
269.2903, 293.5159
269.7725, 300.1450
270.2546, 307.6917
270.7367, 313.6833
271.2188, 317.3804
271.7009, 319.2705
272.1830, 321.5704
272.6652, 324.5509
273.1473, 327.1453
273.6294, 328.7032
274.1115, 329.1707
274.5936, 328.6303
275.0757, 327.0709
275.5579, 324.5676
276.0400, 321.3447
276.5221, 317.4387
277.0042, 312.6774
277.4863, 306.6047
277.9684, 299.0652
278.4506, 292.2156
278.9327, 286.5685
279.4148, 281.2577
279.8969, 274.1985
280.3790, 265.1610
280.8611, 255.9315
281.3433, 247.3867
281.8254, 239.5374
282.3075, 232.2490
282.7896, 225.6466
283.2717, 219.1751
283.7538, 211.5653
284.2360, 202.7463
284.7181, 194.8527
285.2002, 189.5452
285.6823, 186.3948
286.1644, 181.1529
286.6465, 173.4301
287.1287, 165.2135
287.6108, 159.1898
288.0929, 155.2523
288.5750, 151.5927
289.0571, 147.5202
289.5392, 143.1635
290.0214, 139.2307
290.5035, 135.7867
290.9856, 132.3965
291.4677, 128.5168
291.9498, 124.2298
292.4319, 120.1704
292.9141, 116.3729
293.3962, 112.9735
293.8783, 110.3685
294.3604, 108.5868
294.8425, 107.2199
295.3246, 106.2509
295.8068, 105.4584
296.2889, 103.9786
296.7710, 101.0721
297.2531, 97.99457
297.7352, 97.23755
298.2173, 98.57336
298.6995, 100.0052
299.1816, 100.0862
299.6637, 99.21198
300.1458, 98.15411
300.6279, 96.90460
301.1100, 95.76410
301.5922, 95.16553
302.0743, 95.02203
302.5564, 95.02155
303.0385, 94.92621
303.5206, 94.84888
304.0027, 95.10706
304.4849, 95.90814
304.9670, 96.33618
305.4491, 95.28265
305.9312, 93.16724
306.4133, 90.99640
306.8954, 89.03900
307.3776, 87.41376
307.8597, 86.62976
308.3418, 86.82593
308.8239, 86.52106
309.3060, 84.21960
309.7881, 80.75031
310.2703, 77.52380
310.7524, 75.09393
311.2345, 73.08411
311.7166, 71.44403
312.1987, 70.14575
312.6808, 68.68866
313.1630, 67.00427
313.6451, 64.96039
314.1272, 62.31525
314.6093, 58.02271
315.0914, 54.08594
315.5735, 51.79767
316.0557, 50.89526
316.5378, 49.97583
317.0199, 48.29889
317.5020, 46.55829
317.9841, 45.23993
318.4662, 44.37885
318.9484, 43.86237
319.4305, 44.25330
319.9126, 45.01306
320.3947, 44.70959
320.8768, 41.07965
321.3589, 37.70441
321.8411, 36.52411
322.3232, 38.71539
322.8053, 40.96155
323.2874, 42.98987
323.7695, 44.60571
324.2516, 45.55219
324.7338, 43.98883
325.2159, 43.17627
325.6980, 44.40381
326.1801, 48.32098
326.6622, 51.86481
327.1443, 54.59998
327.6265, 57.03253
328.1086, 59.62439
328.5907, 62.69910
329.0728, 65.68524
329.5549, 68.51947
330.0370, 71.14282
330.5192, 73.74939
331.0013, 76.43085
331.4834, 79.10529
331.9655, 81.72540
332.4476, 84.37708
332.9297, 86.81573
333.4119, 89.00922
333.8940, 90.99829
334.3761, 92.81512
334.8582, 94.25958
335.3403, 95.77246
335.8224, 97.67615
336.3046, 100.2975
336.7867, 102.2946
337.2688, 103.5062
337.7509, 104.1495
338.2330, 104.7296
338.7151, 105.3445
339.1973, 105.7026
339.6794, 105.6461
340.1615, 105.1662
340.6436, 104.5602
341.1257, 103.9056
341.6078, 103.0618
342.0900, 101.7994
342.5721, 100.1558
343.0542, 98.33057
343.5363, 96.41132
344.0184, 94.40009
344.5005, 92.15619
344.9827, 89.69135
345.4648, 87.13702
345.9469, 84.60638
346.4290, 82.06427
346.9111, 79.69647
347.3932, 77.59595
347.8754, 75.52863
348.3575, 72.97650
348.8396, 69.99432
349.3217, 67.14978
349.8038, 64.97461
350.2859, 63.23053
350.7681, 61.34796
351.2502, 59.22906
351.7323, 57.05145
352.2144, 55.25378
352.6965, 53.60254
353.1786, 51.47546
353.6608, 47.90369
354.1429, 43.99982
354.6250, 41.30933
355.1071, 39.93860
355.5892, 38.75458
356.0714, 36.88739
356.5535, 34.65845
357.0356, 32.53809
357.5177, 30.90076
357.9998, 29.25818
358.4819, 27.08826
358.9641, 24.52954
359.4462, 22.43933
359.9283, 21.53937
360.4104, 21.14539
360.8925, 20.68304
361.3746, 19.93408
361.8568, 19.23560
362.3389, 18.77844
362.8210, 18.46954
363.3031, 18.07166
363.7852, 17.45557
364.2673, 16.77081
364.7495, 16.08514
365.2316, 15.41388
365.7137, 14.70148
366.1958, 13.92761
366.6779, 13.12933
367.1600, 12.33350
367.6422, 11.63275
368.1243, 10.84668
368.6064, 10.00378
369.0885, 9.106323
369.5706, 7.877930
370.0527, 5.807922
370.5349, 3.798218
371.0170, 2.429443
371.4991, 2.196472
371.9812, 1.818787
372.4633, 1.195984
372.9454, 0.3698120
373.4276, 0.4400020
373.9097, 1.043640
374.3918, 1.993958
374.8739, 3.730469
375.3560, 6.706116
375.8381, 8.497681
376.3203, 8.800476
376.8024, 8.289673
377.2845, 7.902893
377.7666, 7.642090
378.2487, 7.504028
378.7308, 7.468384
379.2130, 7.555359
379.6951, 7.898682
380.1772, 8.575745
380.6593, 9.180542
381.1414, 9.578857
381.6235, 10.45850
382.1057, 9.367126
382.5878, 8.573669
383.0699, 8.062744
383.5520, 8.640808
384.0341, 7.842346
384.5162, 7.613831
384.9984, 7.420959
385.4805, 6.465393
385.9626, 6.950867
386.4447, 6.032471
386.9268, 5.691589
387.4089, 4.346863
387.8911, 2.432495
388.3732, 0.7365110
388.8553, 0.1574710
389.3374, 0.7555540
389.8195, 1.581726
390.3016, 2.614502
390.7838, 3.479553
391.2659, 3.704468
391.7480, 3.739685
392.2301, 4.058960
392.7122, 4.897705
393.1943, 5.910156
393.6765, 6.849487
394.1586, 7.834534
394.6407, 9.177307
395.1228, 11.64612
395.6049, 13.99573
396.0870, 15.48065
396.5692, 15.62573
397.0513, 16.17725
397.5334, 17.89825
398.0155, 20.07019
398.4976, 21.77393
398.9797, 22.52399
399.4619, 23.21680
399.9440, 23.71442
400.4261, 24.01495
400.9082, 25.42761
401.3903, 28.77753
401.8724, 32.43658
402.3546, 35.37732
402.8367, 37.27930
403.3188, 39.07996
403.8009, 40.79205
404.2830, 42.44885
404.7651, 44.09027
405.2473, 45.60925
405.7294, 47.39685
406.2115, 49.80530
406.6936, 52.85516
407.1757, 55.13263
407.6578, 56.41821
408.1400, 57.55292
408.6221, 59.70422
409.1042, 62.84631
409.5863, 65.64099
410.0684, 67.63715
410.5505, 69.13635
411.0327, 70.79315
411.5148, 72.62372
411.9969, 74.84839
412.4790, 78.06641
412.9611, 81.79797
413.4432, 84.83850
413.9254, 87.01727
414.4075, 88.66620
414.8896, 89.70276
415.3717, 90.47308
415.8538, 91.79004
416.3359, 94.53320
416.8181, 97.67175
417.3002, 100.3497
417.7823, 102.5677
418.2644, 104.3417
418.7465, 105.3693
419.2286, 106.1401
419.7108, 107.0846
420.1929, 108.0292
420.6750, 109.5485
421.1571, 112.4089
421.6392, 116.0566
422.1213, 118.9918
422.6035, 119.7281
423.0856, 120.5961
423.5677, 122.7441
424.0498, 126.7538
424.5319, 130.2308
425.0140, 132.4313
425.4962, 134.3304
425.9783, 136.9106
426.4604, 140.4282
426.9425, 144.2905
427.4246, 148.4890
427.9067, 153.0212
428.3889, 157.5526
428.8710, 162.0480
429.3531, 166.5562
429.8352, 171.1429
430.3173, 175.7352
430.7994, 180.3139
431.2816, 184.8174
431.7637, 189.3671
432.2458, 194.1097
432.7279, 199.0103
433.2100, 203.5654
433.6921, 207.6224
434.1743, 211.4024
434.6564, 215.5150
435.1385, 220.0394
435.6206, 224.0980
436.1027, 226.5416
436.5848, 227.9274
437.0670, 229.9266
437.5491, 233.1486
438.0312, 236.2978
438.5133, 238.0014
438.9954, 238.5280
439.4775, 238.5364
439.9597, 238.1600
440.4418, 237.7718
440.9239, 237.7825
441.4060, 238.1567
441.8881, 238.5192
442.3702, 238.3787
442.8524, 238.1400
443.3345, 238.2497
443.8166, 238.9316
444.2987, 239.7177
444.7808, 240.0598
445.2629, 240.3448
445.7451, 241.5881
446.2272, 244.6143
446.7093, 247.9474
447.1914, 251.2668
447.6735, 254.9951
448.1556, 257.1381
448.6378, 256.0579
449.1199, 254.4227
449.6020, 255.0609
450.0841, 259.0905
450.5662, 263.0792
451.0483, 266.6021
451.5305, 269.7062
452.0126, 272.6011
452.4947, 275.4632
452.9768, 277.6996
453.4589, 278.8031
453.9410, 278.7260
454.4232, 278.6675
454.9053, 278.6640
455.3874, 278.6663
455.8695, 278.8190
456.3516, 279.0130
456.8337, 278.4540
457.3159, 276.4612
457.7980, 273.9173
458.2801, 272.5193
458.7622, 272.1404
459.2443, 271.7948
459.7264, 271.2239
460.2086, 270.1428
460.6907, 268.0784
461.1728, 264.8677
461.6549, 261.2265
462.1370, 257.4064
462.6191, 253.5943
463.1013, 250.1469
463.5834, 247.4166
464.0655, 244.8610
464.5476, 242.3654
465.0297, 239.9026
465.5118, 237.2515
465.9940, 234.4324
466.4761, 231.4358
466.9582, 228.1974
467.4403, 224.0344
467.9224, 220.7336
468.4045, 218.6489
468.8867, 217.3386
469.3688, 216.0978
469.8509, 214.7318
470.3330, 213.6749
470.8151, 213.2278
471.2972, 213.2726
471.7794, 212.5656
472.2615, 211.0002
472.7436, 209.0767
473.2257, 206.9611
473.7078, 204.6493
474.1899, 202.7701
474.6721, 201.3204
475.1542, 200.1860
475.6363, 199.5161
476.1184, 199.2825
476.6005, 198.9749
477.0826, 198.2130
477.5648, 197.3453
478.0469, 196.9902
478.5290, 197.1046
479.0111, 197.2955
479.4932, 197.4284
479.9753, 197.4227
480.4575, 197.0599
480.9396, 196.0988
481.4217, 195.4650
481.9038, 196.3122
482.3859, 197.7231
482.8680, 198.3350
483.3502, 196.6052
483.8323, 195.0521
484.3144, 194.7688
484.7965, 195.6763
485.2786, 196.3143
485.7607, 196.3846
486.2429, 196.1724
486.7250, 195.8120
487.2071, 195.2776
487.6892, 194.6569
488.1713, 193.9866
488.6534, 193.2193
489.1356, 192.2592
489.6177, 191.0590
490.0998, 189.9004
490.5819, 189.0967
491.0640, 188.3807
491.5461, 186.0862
492.0283, 182.0044
492.5104, 177.9149
492.9925, 175.2707
493.4746, 173.7477
493.9567, 171.8171
494.4388, 169.2769
494.9210, 166.6268
495.4031, 164.4862
495.8852, 162.6540
496.3673, 160.5896
496.8494, 158.2043
497.3315, 155.3795
497.8137, 151.6151
498.2958, 147.1512
498.7779, 143.1727
499.2600, 140.9361
499.7421, 138.9073
500.2242, 135.8312
500.7064, 131.1903
501.1885, 127.0543
501.6706, 125.0345
502.1527, 123.4283
502.6348, 120.5476
503.1169, 114.4841
503.5991, 109.1945
504.0812, 105.4399
504.5633, 102.8448
505.0454, 100.0106
505.5275, 97.29761
506.0096, 93.78589
506.4918, 88.73376
506.9739, 81.84473
507.4560, 76.63092
507.9381, 73.45044
508.4202, 70.96527
508.9023, 67.80090
509.3845, 64.00262
509.8666, 60.40155
510.3487, 57.18109
510.8308, 54.17474
511.3129, 51.12488
511.7950, 48.05054
512.2772, 45.02850
512.7593, 42.08942
513.2414, 39.23901
513.7235, 36.45123
514.2056, 33.72266
514.6877, 31.01733
515.1699, 28.36395
515.6520, 25.68927
516.1341, 22.85785
516.6162, 19.49695
517.0983, 16.62677
517.5804, 14.94708
518.0626, 13.86700
518.5447, 12.42047
519.0268, 9.788391
519.5089, 7.476624
519.9910, 5.942200
520.4731, 5.122314
520.9553, 4.173828
521.4374, 3.100281
521.9195, 1.920288
522.4016, 0.6213380
522.8837, 0.8074950
523.3658, 2.211182
523.8480, 3.615784
524.3301, 4.919861
524.8122, 5.907349
525.2943, 6.589722
525.7764, 7.359802
526.2585, 8.493225
526.7407, 9.566162
527.2228, 9.750000
527.7049, 9.139099
528.1870, 8.297791
528.6691, 7.330078
529.1512, 6.437927
529.6334, 5.917175
530.1155, 5.800110
530.5976, 5.732727
531.0797, 5.875122
531.5618, 5.800842
532.0439, 5.044434
532.5261, 2.765930
533.0082, 0.8481450
533.4903, 7.7026002E-02
533.9724, 4.2785998E-02
534.4545, 0.5941770
534.9366, 1.903137
535.4188, 3.385620
535.9009, 4.880737
536.3830, 6.399780
536.8651, 8.261536
537.3472, 10.53723
537.8293, 13.03210
538.3115, 15.60541
538.7936, 18.24908
539.2757, 21.07147
539.7578, 24.08112
540.2399, 27.22675
540.7220, 30.54565
541.2042, 33.97205
541.6863, 37.31152
542.1684, 40.31586
542.6505, 43.46594
543.1326, 47.71161
543.6147, 52.77094
544.0969, 57.69891
544.5790, 61.62390
545.0611, 65.27496
545.5432, 69.28729
546.0253, 73.71613
546.5074, 78.02991
546.9896, 81.42914
547.4717, 84.90436
547.9538, 89.27600
548.4359, 95.70544
548.9180, 101.6521
549.4001, 106.8906
549.8823, 111.5911
550.3644, 116.0023
550.8465, 120.1393
551.3286, 124.0543
551.8107, 127.7678
552.2928, 131.2928
552.7750, 134.6509
553.2571, 137.9198
553.7392, 140.7446
554.2213, 142.5061
554.7034, 143.4729
555.1855, 145.5316
555.6677, 148.9075
556.1498, 152.3309
556.6319, 154.2544
557.1140, 155.2278
557.5961, 156.4052
558.0782, 158.3464
558.5604, 160.1965
559.0425, 160.9837
559.5246, 161.1426
560.0067, 161.6417
560.4888, 163.8116
560.9709, 165.5552
561.4531, 165.5538
561.9352, 163.7822
562.4173, 162.5818
562.8994, 163.3820
563.3815, 163.9219
563.8636, 162.9658
564.3458, 159.7914
564.8279, 157.1895
565.3100, 155.4169
565.7921, 153.8312
566.2742, 151.5817
566.7563, 148.6594
567.2385, 145.9233
567.7206, 143.7919
568.2027, 141.6725
568.6848, 138.0331
569.1669, 133.0544
569.6490, 128.4772
570.1312, 125.7689
570.6133, 123.7827
571.0954, 120.8407
571.5775, 116.8828
572.0596, 112.6663
572.5417, 108.1683
573.0239, 103.9056
573.5060, 100.5258
573.9881, 98.49573
574.4702, 96.08282
574.9523, 92.18066
575.4344, 87.86377
575.9166, 84.52264
576.3987, 83.32306
576.8808, 81.39410
577.3629, 78.12830
577.8450, 74.03149
578.3271, 70.57092
578.8093, 67.81860
579.2914, 65.17255
579.7735, 62.40533
580.2556, 59.62012
580.7377, 56.90186
581.2198, 54.22412
581.7020, 51.65161
582.1841, 49.41095
582.6662, 47.31769
583.1483, 44.73779
583.6304, 41.49719
584.1125, 38.41016
584.5947, 36.74677
585.0768, 35.65723
585.5589, 33.85034
586.0410, 30.04437
586.5231, 26.42999
587.0052, 24.08038
587.4874, 22.62360
587.9695, 21.11652
588.4516, 19.28094
588.9337, 17.46979
589.4158, 15.82129
589.8979, 14.37671
590.3801, 12.98230
590.8622, 11.47156
591.3443, 10.12030
591.8264, 9.177307
592.3085, 8.659241
592.7906, 8.037842
593.2728, 7.232727
593.7549, 6.485535
594.2370, 6.174744
594.7191, 6.165955
595.2012, 5.938354
595.6833, 5.229248
596.1655, 4.502380
596.6476, 4.507813
597.1297, 4.899719
597.6118, 4.873718
598.0939, 3.439758
598.5760, 2.065430
599.0582, 1.674316
599.5403, 2.202820
600.0224, 2.675110
600.5045, 2.907471
600.9866, 3.029968
601.4688, 3.079468
601.9509, 3.018799
602.4330, 3.107971
602.9151, 3.475769
603.3972, 3.815552
603.8793, 3.737671
604.3615, 3.158630
604.8436, 3.010498
605.3257, 3.459106
605.8078, 4.215759
606.2899, 4.918274
606.7720, 5.549316
607.2542, 6.024353
607.7363, 6.170410
608.2184, 6.280640
608.7005, 6.834473
609.1826, 7.681702
609.6647, 8.290100
610.1469, 8.291199
610.6290, 8.063782
611.1111, 7.819214
611.5932, 7.573486
612.0753, 7.311401
612.5574, 6.765076
613.0396, 6.422974
613.5217, 6.631775
614.0038, 7.852112
614.4859, 8.414551
614.9680, 8.143066
615.4501, 7.444946
615.9323, 6.680664
616.4144, 5.826904
616.8965, 5.337646
617.3786, 5.407410
617.8607, 5.670532
618.3428, 5.563904
618.8250, 5.112854
619.3071, 4.427246
619.7892, 3.306213
620.2713, 2.161194
620.7534, 1.509399
621.2355, 1.244080
621.7177, 0.8843990
622.1998, 0.2860720
622.6819, 1.207825
623.1640, 1.100525
623.6461, 0.3071290
624.1282, 1.296692
624.6104, 1.474487
625.0925, 1.381775
625.5746, 1.363159
626.0567, 1.535278
626.5388, 1.395874
627.0209, 0.8700560
627.5031, 0.1219480
627.9852, 0.7702640
628.4673, 1.781677
628.9494, 2.365051
629.4315, 2.253357
629.9136, 1.924011
630.3958, 2.276245
630.8779, 3.048645
631.3600, 3.445801
631.8421, 2.568726
632.3242, 1.574280
632.8063, 1.553650
633.2885, 2.286804
633.7706, 2.546570
634.2527, 1.072693
634.7348, 0.2716670
635.2169, 0.3537600
635.6990, 1.219299
636.1812, 1.820496
636.6633, 1.034302
637.1454, 0.1964110
637.6275, 1.157104
638.1096, 1.754395
638.5917, 2.845093
639.0739, 4.618713
639.5560, 6.452759
640.0381, 7.545776
640.5202, 8.019531
641.0023, 8.359558
641.4844, 8.596130
641.9666, 8.948059
642.4487, 9.775452
642.9308, 10.90216
643.4129, 11.92932
643.8950, 12.40869
644.3771, 13.04199
644.8593, 14.28400
645.3414, 16.01996
645.8235, 17.64313
646.3056, 18.69196
646.7877, 19.98737
647.2698, 21.88660
647.7520, 24.43677
648.2341, 26.56909
648.7162, 28.13556
649.1983, 29.64648
649.6804, 31.46906
650.1625, 33.56671
650.6447, 35.58783
651.1268, 37.48322
651.6089, 39.47131
652.0910, 41.72119
652.5731, 44.20038
653.0552, 46.92163
653.5374, 49.97186
654.0195, 53.03442
654.5016, 56.00098
654.9837, 58.89771
655.4658, 61.78131
655.9479, 64.62012
656.4301, 67.45996
656.9122, 70.14838
657.3943, 72.89862
657.8764, 76.28613
658.3585, 80.65833
658.8406, 84.88452
659.3228, 88.49219
659.8049, 91.65991
660.2870, 95.24762
660.7691, 99.25928
661.2512, 103.2686
661.7333, 107.1578
662.2155, 110.8074
662.6976, 113.8277
663.1797, 116.1778
663.6618, 118.2160
664.1439, 119.8340
664.6260, 121.4553
665.1082, 123.5918
665.5903, 126.6336
666.0724, 129.1182
666.5545, 130.7787
667.0366, 131.6938
667.5187, 131.9146
668.0009, 130.9047
668.4830, 130.4059
668.9651, 130.6950
669.4472, 131.3627
669.9293, 131.9518
670.4114, 132.4735
670.8936, 132.2800
671.3757, 131.1240
671.8578, 129.2699
672.3399, 126.8427
672.8220, 123.9946
673.3041, 121.3118
673.7863, 119.3038
674.2684, 117.3609
674.7505, 115.1107
675.2326, 112.5383
675.7147, 109.7125
676.1968, 106.5287
676.6790, 103.1434
677.1611, 99.62238
677.6432, 95.93396
678.1253, 92.37012
678.6074, 89.01044
679.0895, 85.69305
679.5717, 82.35492
680.0538, 78.92792
680.5359, 75.52325
681.0180, 72.21942
681.5001, 69.11047
681.9822, 66.23657
682.4644, 63.50183
682.9465, 60.77197
683.4286, 57.96246
683.9107, 55.31158
684.3928, 53.11957
684.8749, 51.10229
685.3571, 48.85535
685.8392, 45.68829
686.3213, 42.91748
686.8034, 41.38080
687.2855, 40.22192
687.7676, 37.88208
688.2498, 33.52997
688.7319, 29.86548
689.2140, 27.51013
689.6961, 26.22394
690.1782, 25.42328
690.6603, 25.02246
691.1425, 24.44440
691.6246, 23.45728
692.1067, 22.28619
692.5888, 20.97125
693.0709, 19.50714
693.5530, 18.11591
694.0352, 17.13037
694.5173, 16.34821
694.9994, 15.75879
695.4815, 15.30066
695.9636, 14.38281
696.4457, 12.12866
696.9279, 10.16260
697.4100, 9.331116
697.8921, 9.845154
698.3742, 10.07568
698.8563, 10.00836
699.3384, 9.697693
699.8206, 9.053589
700.3027, 8.180542
700.7848, 7.587708
701.2669, 7.368347
701.7490, 7.142395
702.2311, 6.110474
702.7133, 4.996094
703.1954, 5.004517
703.6775, 7.385071
704.1596, 8.914917
704.6417, 7.567810
705.1238, 4.931641
705.6060, 3.237915
706.0881, 3.116943
706.5702, 3.092957
707.0523, 3.102173
707.5344, 3.079712
708.0165, 2.845764
708.4987, 2.379639
708.9808, 2.050354
709.4629, 2.035522
709.9450, 2.120972
710.4271, 1.902649
710.9092, 1.438171
711.3914, 0.9218750
711.8735, 0.3148800
712.3556, 0.1881100
712.8377, 0.5624390
713.3198, 0.7462160
713.8019, 0.4719850
714.2841, 1.152161
714.7662, 2.419800
715.2483, 2.531616
715.7304, 1.536865
716.2125, 1.032776
716.6946, 1.184998
717.1768, 1.376831
717.6589, 1.301697
718.1410, 0.9653320
718.6231, 0.2313840
719.1052, 0.9281010
719.5873, 1.741760
720.0695, 1.249573
720.5516, 0.2293700
721.0337, 0.2636720
721.5158, 3.4851000E-02
721.9979, 0.1354370
722.4800, 0.2658080
722.9622, 0.7661740
723.4443, 0.9749150
723.9264, 0.6265870
724.4085, 0.5003660
724.8906, 0.7396850
725.3727, 1.037598
725.8549, 0.9686280
726.3370, 0.4672240
726.8191, 0.4744870
727.3012, 1.192993
727.7833, 2.105530
728.2654, 2.593262
728.7476, 2.742493
729.2297, 2.759155
729.7118, 2.708374
730.1939, 2.539917
730.6760, 1.992065
731.1581, 1.375427
731.6403, 1.149841
732.1224, 1.951172
732.6045, 2.457336
733.0866, 2.285706
733.5687, 1.800049
734.0508, 1.834717
734.5330, 2.585693
735.0151, 3.012329
735.4972, 2.674438
735.9793, 2.050842
736.4614, 2.337402
736.9435, 3.373108
737.4257, 4.323792
737.9078, 5.005066
738.3899, 5.233032
738.8720, 4.360229
739.3541, 2.799194
739.8362, 1.983398
740.3184, 2.926941
740.8005, 4.161865
741.2826, 5.297668
741.7647, 6.309021
742.2468, 6.910217
742.7289, 6.911621
743.2111, 6.950745
743.6932, 7.334595
744.1753, 7.997192
744.6574, 8.676697
745.1395, 9.363647
745.6216, 9.850952
746.1038, 9.944580
746.5859, 9.789612
747.0680, 9.438049
747.5501, 8.909302
748.0322, 8.610535
748.5143, 8.711914
748.9965, 9.132080
749.4786, 10.00934
749.9607, 11.59778
750.4428, 12.24078
750.9249, 11.68463
751.4070, 10.63330
751.8892, 9.290466
752.3713, 7.665161
752.8534, 7.214417
753.3355, 8.064087
753.8176, 9.217407
754.2997, 9.918640
754.7819, 10.24677
755.2640, 10.23535
755.7461, 9.824890
756.2282, 9.524658
756.7103, 9.806274
757.1924, 10.20514
757.6746, 10.30786
758.1567, 9.865906
758.6388, 9.490295
759.1209, 9.016907
759.6030, 8.797974
760.0851, 9.415527
760.5673, 10.91632
761.0494, 11.71039
761.5315, 11.54034
762.0136, 10.95544
762.4957, 10.43365
762.9778, 10.00610
763.4600, 9.725952
763.9421, 9.635071
764.4242, 9.646118
764.9063, 9.991882
765.3884, 10.29767
765.8705, 10.09564
766.3527, 8.550049
766.8348, 7.669189
767.3169, 7.824402
767.7990, 8.423157
768.2811, 8.469299
768.7632, 7.919617
769.2454, 7.876404
769.7275, 8.732605
770.2096, 9.742798
770.6917, 9.796692
771.1738, 9.182495
771.6559, 8.544800
772.1381, 7.889404
772.6202, 7.624084
773.1023, 8.355164
773.5844, 9.518860
774.0665, 10.15088
774.5486, 9.847900
775.0308, 9.408508
775.5129, 8.735596
775.9950, 7.993958
776.4771, 7.648743
776.9592, 7.720093
777.4413, 7.638306
777.9235, 7.171936
778.4056, 6.642761
778.8877, 6.309998
779.3698, 6.234924
779.8519, 6.567932
780.3340, 7.804443
780.8162, 9.039185
781.2983, 10.02173
781.7804, 10.65411
782.2625, 10.67737
782.7446, 9.351929
783.2267, 8.615173
783.7089, 8.830200
784.1910, 9.704407
784.6731, 10.46802
785.1552, 11.17169
785.6373, 11.88019
786.1194, 12.73236
786.6016, 13.39789
787.0837, 13.35382
787.5658, 12.72028
788.0479, 11.85498
788.5300, 10.21667
789.0121, 9.136658
789.4943, 9.511353
789.9764, 10.96130
790.4585, 11.93896
790.9406, 12.21277
791.4227, 12.40552
791.9048, 12.77478
792.3870, 13.21759
792.8691, 13.41321
793.3512, 13.34943
793.8333, 13.15344
794.3154, 12.84485
794.7975, 12.47461
795.2797, 12.24402
795.7618, 12.07764
796.2439, 11.67090
796.7260, 10.14386
797.2081, 9.138367
797.6902, 9.838928
798.1724, 11.69287
798.6545, 12.41956
799.1366, 11.59314
799.6187, 10.72528
800.1008, 10.19061
800.5829, 10.02814
801.0651, 10.52850
801.5472, 11.60419
802.0293, 12.66467
802.5114, 13.56219
802.9935, 14.12170
803.4756, 13.80139
803.9578, 12.93817
804.4399, 12.66431
804.9220, 14.34399
805.4041, 15.52374
805.8862, 15.14984
806.3683, 13.70587
806.8505, 13.22272
807.3326, 13.86310
807.8147, 14.69531
808.2968, 15.52814
808.7789, 16.21490
809.2610, 16.25415
809.7432, 15.80865
810.2253, 15.51923
810.7074, 16.11102
811.1895, 16.67999
811.6716, 16.45331
812.1537, 15.69214
812.6359, 15.39960
813.1180, 16.27924
813.6001, 16.87610
814.0822, 16.74939
814.5643, 16.14343
815.0464, 16.03302
815.5286, 16.43280
816.0107, 16.55151
816.4928, 15.88055
816.9749, 14.93701
817.4570, 14.51935
817.9391, 14.49011
818.4213, 14.43933
818.9034, 14.22266
819.3855, 13.89130
819.8676, 13.37152
820.3497, 12.73694
820.8318, 12.22064
821.3140, 11.75458
821.7961, 11.59308
822.2782, 11.96240
822.7603, 12.51270
823.2424, 12.37079
823.7245, 11.61206
824.2067, 10.73035
824.6888, 9.920715
825.1709, 9.091431
825.6530, 8.110840
826.1351, 7.041443
826.6172, 6.042847
827.0994, 4.986267
827.5815, 4.256653
828.0636, 4.165466
828.5457, 4.334534
829.0278, 3.895386
829.5099, 2.738770
829.9921, 1.758484
830.4742, 1.219788
830.9563, 0.8818360
831.4384, 0.1712650
831.9205, 0.6575320
832.4026, 0.9179080
832.8848, 0.2260130
833.3669, 1.145325
833.8490, 0.5824580
834.3311, 0.6484380
834.8132, 1.101868
835.2953, 0.1251830
835.7775, 0.4819950
836.2596, 0.4875490
836.7417, 8.5510001E-02
837.2238, 0.5365600
837.7059, 1.338867
838.1880, 1.895813
838.6702, 2.038574
839.1523, 2.167847
839.6344, 3.136292
840.1165, 4.202148
840.5986, 4.226501
841.0807, 1.849609
841.5629, 0.1540530
842.0450, 0.1860350
842.5271, 0.8726810
843.0092, 1.228699
843.4913, 1.230042
843.9734, 0.9177250
844.4556, 0.1698610
844.9377, 0.4210820
845.4198, 9.8082997E-02
845.9019, 1.251770
846.3840, 2.085022
846.8661, 2.426880
847.3483, 2.377136
847.8304, 1.474426
848.3125, 0.5126950
848.7946, 0.2749630
849.2767, 1.220825
849.7589, 1.827026
850.2410, 2.091675
850.7231, 2.027954
851.2052, 1.549011
851.6873, 0.7279050
852.1694, 0.1066890
852.6516, 0.9417720
853.1337, 1.538330
853.6158, 1.366028
854.0979, 1.073792
854.5800, 1.426819
855.0621, 2.631348
855.5443, 3.445679
856.0264, 3.390137
856.5085, 3.125427
856.9906, 3.024597
857.4727, 3.091064
857.9548, 2.438416
858.4370, 0.9937130
858.9191, 0.2454830
859.4012, 0.4897460
859.8833, 0.1207280
860.3654, 0.5370480
860.8475, 1.370361
861.3297, 1.644165
861.8118, 0.2985230
862.2939, 0.9945680
862.7760, 1.277161
863.2581, 0.7016600
863.7402, 0.3724980
864.2224, 0.3908690
864.7045, 0.3464360
865.1866, 3.9124001E-02
865.6687, 0.5305180
866.1508, 0.2457280
866.6329, 0.5817260
867.1151, 0.9256590
867.5972, 0.4583130
868.0793, 1.793823
868.5614, 1.607544
869.0435, 0.4947510
869.5256, 0.4181520
870.0078, 2.467224
870.4899, 3.764709
870.9720, 3.562378
871.4541, 2.557983
871.9362, 2.222229
872.4183, 2.508667
872.9005, 3.082825
873.3826, 3.931763
873.8647, 4.843262
874.3468, 5.691650
874.8289, 6.442017
875.3110, 7.020203
875.7932, 6.779968
876.2753, 7.237732
876.7574, 8.729370
877.2395, 10.72034
877.7216, 12.77429
878.2037, 14.91437
878.6859, 16.24060
879.1680, 16.47864
879.6501, 16.78125
880.1322, 18.47931
880.6143, 21.04230
881.0964, 23.85553
881.5786, 26.97943
882.0607, 29.52625
882.5428, 30.47369
883.0249, 31.31140
883.5070, 33.05450
883.9891, 35.86285
884.4713, 38.79944
884.9534, 41.95087
885.4355, 44.59631
885.9176, 45.42670
886.3997, 45.58185
886.8818, 47.60114
887.3640, 51.42694
887.8461, 55.21136
888.3282, 57.68176
888.8103, 60.04071
889.2924, 63.09003
889.7745, 66.75195
890.2567, 69.64838
890.7388, 71.46692
891.2209, 73.75781
891.7030, 77.34656
892.1851, 81.60126
892.6672, 85.22479
893.1494, 88.39423
893.6315, 91.34583
894.1136, 93.79193
894.5957, 96.46179
895.0778, 99.81750
895.5599, 103.7145
896.0421, 107.7922
896.5242, 112.6755
897.0063, 116.4347
897.4884, 118.3004
897.9705, 119.3698
898.4526, 121.8182
898.9348, 125.4746
899.4169, 128.7701
899.8990, 131.1857
900.3811, 133.2008
900.8632, 135.0673
901.3453, 136.9309
901.8275, 139.0687
902.3096, 142.3647
902.7917, 144.2386
903.2738, 144.2972
903.7559, 143.2980
904.2380, 141.9872
904.7202, 140.3408
905.2023, 137.7505
905.6844, 134.2353
906.1665, 130.6938
906.6486, 128.3840
907.1307, 125.9235
907.6129, 121.9686
908.0950, 116.3583
908.5771, 110.6536
909.0592, 104.7861
909.5413, 99.40509
910.0234, 95.07947
910.5056, 91.46234
910.9877, 86.32251
911.4698, 79.74756
911.9519, 73.33252
912.4340, 67.91943
912.9161, 63.10767
913.3983, 58.72919
913.8804, 54.71057
914.3625, 50.90521
914.8446, 47.99512
915.3267, 44.25299
915.8088, 38.73535
916.2910, 32.71136
916.7731, 28.83929
917.2552, 27.07019
917.7373, 25.73895
918.2194, 24.61194
918.7015, 23.25122
919.1837, 20.96313
919.6658, 18.23779
920.1479, 15.72687
920.6300, 13.72266
921.1121, 11.71234
921.5942, 9.362244
922.0764, 7.195618
922.5585, 5.752502
923.0406, 5.072693
923.5227, 3.880127
924.0048, 2.083679
924.4869, 0.7983400
924.9691, 1.554993
925.4512, 2.955200
925.9333, 3.175415
926.4154, 2.173401
926.8975, 1.613342
927.3796, 2.907410
927.8618, 3.596191
928.3439, 2.575378
928.8260, 0.2836910
929.3081, 1.102173
929.7902, 1.594543
930.2723, 1.295837
930.7545, 0.3322140
931.2366, 2.039734
931.7187, 2.141541
932.2008, 1.249329
932.6829, 0.6146850
933.1650, 0.2415770
933.6472, 0.7337040
934.1293, 2.512451
934.6114, 4.815857
935.0935, 6.598389
935.5756, 7.881836
936.0577, 8.846252
936.5399, 9.460754
937.0220, 10.04584
937.5041, 10.67383
937.9862, 11.56110
938.4683, 12.99933
938.9504, 15.10907
939.4326, 17.35669
939.9147, 19.82013
940.3968, 22.10577
940.8789, 23.90466
941.3610, 25.27600
941.8431, 27.15076
942.3253, 29.53149
942.8074, 32.04474
943.2895, 34.19885
943.7716, 36.54102
944.2537, 39.71661
944.7358, 43.54706
945.2180, 47.37988
945.7001, 50.78467
946.1822, 54.64679
946.6643, 59.45557
947.1464, 64.57306
947.6285, 68.38226
948.1107, 71.11096
948.5928, 74.40259
949.0749, 78.80597
949.5570, 83.42712
950.0391, 87.23895
950.5212, 90.96033
951.0034, 95.38049
951.4855, 100.9382
951.9676, 106.5859
952.4497, 112.2299
952.9318, 118.0706
953.4139, 124.0920
953.8961, 130.3964
954.3782, 137.8727
954.8603, 146.4033
955.3424, 154.9453
955.8245, 163.2521
956.3066, 170.9010
956.7888, 177.3256
957.2709, 182.6908
957.7530, 188.2424
958.2351, 194.1068
958.7172, 200.1656
959.1993, 206.6821
959.6815, 213.1027
960.1636, 217.9034
960.6457, 221.5128
961.1278, 225.2100
961.6099, 229.4714
962.0920, 233.8435
962.5742, 238.0502
963.0563, 242.2605
963.5384, 246.5756
964.0205, 250.9260
964.5026, 255.5610
964.9847, 260.3201
965.4669, 265.7733
965.9490, 272.9014
966.4311, 280.9133
966.9132, 288.5302
967.3953, 295.6202
967.8774, 302.5286
968.3596, 308.7886
968.8417, 315.4728
969.3238, 323.6008
969.8059, 332.5970
970.2880, 339.6096
970.7701, 344.4696
971.2523, 349.1721
971.7344, 354.3395
972.2165, 359.9227
972.6986, 366.4398
973.1807, 373.2035
973.6628, 378.8811
974.1450, 382.2776
974.6271, 386.1052
975.1092, 392.0508
975.5913, 397.6022
976.0734, 400.1363
976.5555, 399.5740
977.0377, 399.4183
977.5198, 399.7908
978.0019, 399.8970
978.4840, 399.3756
978.9661, 398.2903
979.4482, 396.8988
979.9304, 395.0841
980.4125, 391.3163
980.8946, 384.8207
981.3767, 377.0641
981.8588, 368.0596
982.3409, 358.4143
982.8231, 350.0808
983.3052, 342.7272
983.7873, 334.3408
984.2694, 323.6402
984.7515, 312.5862
985.2336, 302.2111
985.7158, 292.4672
986.1979, 283.3682
986.6800, 275.0453
987.1621, 267.0439
987.6442, 259.5413
988.1263, 251.9039
988.6085, 243.2413
989.0906, 234.1169
989.5727, 226.1992
990.0548, 219.4810
990.5369, 213.2505
991.0190, 206.8810
991.5012, 201.2069
991.9833, 196.9322
992.4654, 193.6771
992.9475, 190.0536
993.4296, 186.0613
993.9117, 181.9126
994.3939, 177.3878
994.8760, 173.3829
995.3581, 171.8065
995.8402, 171.3613
996.3223, 169.7527
996.8044, 165.2591
997.2866, 162.1406
997.7687, 161.3290
998.2508, 161.5626
998.7329, 162.3738
999.2150, 163.6711
999.6971, 163.0798
1000.179, 160.6663
1000.661, 158.5163
1001.143, 157.9655
1001.626, 158.3497
1002.108, 159.7746
1002.590, 161.8209
1003.072, 162.4758
1003.554, 160.6050
1004.036, 159.9450
1004.518, 161.5552
1005.000, 164.1551
1005.483, 165.5878
1005.965, 166.2291
1006.447, 167.0067
1006.929, 168.1213
1007.411, 169.4365
1007.893, 170.9878
1008.375, 172.6461
1008.857, 174.3104
1009.339, 175.9889
1009.822, 177.7126
1010.304, 179.4805
1010.786, 181.2385
1011.268, 183.3008
1011.750, 185.0433
1012.232, 185.9184
1012.714, 185.8132
1013.196, 184.4451
1013.679, 181.2476
1014.161, 177.3002
1014.643, 172.7369
1015.125, 167.6401
1015.607, 162.2222
1016.089, 156.4519
1016.571, 149.8834
1017.053, 142.4600
1017.535, 134.5601
1018.018, 126.1188
1018.500, 117.6099
1018.982, 109.2010
1019.464, 100.9097
1019.946, 93.44489
1020.428, 87.12042
1020.910, 80.44824
1021.392, 72.47296
1021.875, 64.08130
1022.357, 56.80200
1022.839, 50.56781
1023.321, 45.33362
1023.803, 41.90552
1024.285, 38.26703
1024.767, 33.56348
1025.249, 28.71521
1025.731, 24.63727
1026.214, 21.31445
1026.696, 18.25378
1027.178, 15.42975
1027.660, 12.67328
1028.142, 9.736206
1028.624, 6.868713
1029.106, 4.152161
1029.588, 1.677551
1030.071, 0.1097410
1030.553, 0.9003300
1031.035, 1.761963
1031.517, 2.971436
1031.999, 4.349609
1032.481, 5.766724
1032.963, 7.098694
1033.445, 8.088806
1033.927, 8.761292
1034.410, 8.820313
1034.892, 7.304138
1035.374, 5.851807
1035.856, 5.758179
1036.338, 7.068787
1036.820, 7.524414
1037.302, 7.109375
1037.784, 6.256897
1038.266, 4.748596
1038.749, 3.324280
1039.231, 2.809937
1039.713, 2.966064
1040.195, 3.263611
1040.677, 4.120728
1041.159, 4.144653
1041.641, 3.057983
1042.123, 1.418823
1042.605, 0.2726440
1043.088, 1.953125
1043.570, 3.237305
1044.052, 4.087646
1044.534, 5.317017
1045.016, 8.021484
1045.498, 10.53876
1045.980, 11.76306
1046.462, 12.07336
1046.945, 13.22321
1047.427, 15.24860
1047.909, 17.51196
1048.391, 19.86700
1048.873, 22.18463
1049.355, 24.24707
1049.837, 26.23981
1050.319, 28.39038
1050.802, 30.59833
1051.284, 33.44501
1051.766, 37.12115
1052.248, 40.92145
1052.730, 44.24390
1053.212, 47.26355
1053.694, 50.57800
1054.176, 54.11346
1054.658, 57.54083
1055.141, 60.64496
1055.623, 63.65570
1056.105, 66.54736
1056.587, 69.48132
1057.069, 72.87878
1057.551, 76.77008
1058.033, 79.88745
1058.515, 82.04236
1058.998, 83.78448
1059.480, 85.33984
1059.962, 86.95502
1060.444, 89.07520
1060.926, 91.70410
1061.408, 93.55280
1061.890, 94.46204
1062.372, 94.96771
1062.854, 95.24982
1063.337, 95.22778
1063.819, 94.36462
1064.301, 93.13446
1064.783, 92.74884
1065.265, 94.33453
1065.747, 94.86316
1066.229, 92.78821
1066.711, 89.92737
1067.193, 87.13287
1067.676, 84.45435
1068.158, 82.76031
1068.640, 81.96875
1069.122, 81.00330
1069.604, 79.00061
1070.086, 76.78650
1070.568, 74.97137
1071.050, 73.29114
1071.532, 71.08997
1072.015, 67.96161
1072.497, 65.82935
1072.979, 65.08655
1073.461, 64.39209
1073.943, 62.17206
1074.425, 59.19086
1074.907, 56.12219
1075.389, 53.12445
1075.872, 51.33594
1076.354, 51.78955
1076.836, 52.47656
1077.318, 52.91901
1077.800, 53.20764
1078.282, 53.37738
1078.764, 53.56354
1079.246, 54.28473
1079.729, 55.72443
1080.211, 57.56696
1080.693, 59.99811
1081.175, 62.44019
1081.657, 64.35065
1082.139, 65.74170
1082.621, 67.49213
1083.103, 69.59192
1083.585, 72.26923
1084.068, 76.07410
1084.550, 80.11890
1085.032, 83.51385
1085.514, 86.51215
1085.996, 89.43024
1086.478, 91.79736
1086.960, 95.41852
1087.442, 100.6540
1087.925, 105.9017
1088.407, 109.3965
1088.889, 112.0496
1089.371, 115.9042
1089.853, 120.7612
1090.335, 124.8035
1090.817, 126.6907
1091.299, 128.5258
1091.781, 130.6204
1092.264, 133.2077
1092.746, 137.0358
1093.228, 141.8060
1093.710, 145.9642
1094.192, 149.1656
1094.674, 151.7794
1095.156, 153.6225
1095.638, 155.4098
1096.120, 157.8065
1096.603, 160.6313
1097.085, 162.4211
1097.567, 163.0790
1098.049, 163.9616
1098.531, 165.7029
1099.013, 167.5184
1099.495, 168.7674
1099.977, 169.6064
1100.459, 170.2012
1100.942, 170.5037
1101.424, 170.6844
1101.906, 170.7859
1102.388, 170.5497
1102.870, 169.6302
1103.352, 168.3350
1103.834, 167.4095
1104.316, 166.6120
1104.799, 165.2812
1105.281, 163.2892
1105.763, 160.4842
1106.245, 156.6174
1106.727, 152.3824
1107.209, 148.5333
1107.691, 145.0294
1108.173, 141.9058
1108.656, 139.1431
1109.138, 136.8016
1109.620, 135.8075
1110.102, 134.2144
1110.584, 130.5535
1111.066, 125.9078
1111.548, 122.2305
1112.030, 119.4956
1112.512, 118.6638
1112.995, 120.3838
1113.477, 120.6061
1113.959, 113.9999
1114.441, 105.7294
1114.923, 100.4850
1115.405, 98.37335
1115.887, 94.82990
1116.369, 89.46906
1116.852, 84.68359
1117.334, 81.42859
1117.816, 78.89642
1118.298, 76.51251
1118.780, 73.94849
1119.262, 70.61139
1119.744, 65.89435
1120.226, 61.98822
1120.708, 59.25293
1121.191, 56.65344
1121.673, 53.55560
1122.155, 50.14954
1122.637, 46.46545
1123.119, 42.77032
1123.601, 39.79968
1124.083, 38.93054
1124.565, 37.24109
1125.047, 33.94244
1125.530, 30.17902
1126.012, 26.78217
1126.494, 23.78558
1126.976, 21.50635
1127.458, 19.88971
1127.940, 18.41650
1128.422, 16.54633
1128.904, 15.03180
1129.386, 14.56012
1129.869, 14.43085
1130.351, 13.50281
1130.833, 11.78912
1131.315, 10.34442
1131.797, 9.303162
1132.279, 8.119690
1132.761, 5.671143
1133.243, 3.522217
1133.726, 3.207642
1134.208, 4.320801
1134.690, 4.712158
1135.172, 4.336975
1135.654, 3.487000
1136.136, 2.114624
1136.618, 0.7109990
1137.100, 0.5068970
1137.583, 1.256531
1138.065, 0.8919680
1138.547, 0.9244380
1139.029, 1.211304
1139.511, 0.6167600
1139.993, 2.047485
1140.475, 1.935730
1140.957, 1.143372
1141.439, 1.153992
1141.922, 1.429016
1142.404, 0.9618530
1142.886, 0.9508670
1143.368, 2.357300
1143.850, 3.074280
1144.332, 3.323914
1144.814, 3.019470
1145.296, 2.451172
1145.779, 2.191833
1146.261, 2.310425
1146.743, 2.999878
1147.225, 5.624268
1147.707, 6.903015
1148.189, 5.628235
1148.671, 3.997498
1149.153, 4.185730
1149.635, 5.735046
1150.118, 6.400513
1150.600, 6.229126
1151.082, 5.945740
1151.564, 5.674377
1152.046, 5.686523
1152.528, 6.181763
1153.010, 6.938843
1153.492, 7.740906
1153.974, 8.571167
1154.457, 9.110779
1154.939, 9.352112
1155.421, 9.973328
1155.903, 11.81714
1156.385, 13.71198
1156.867, 15.06366
1157.349, 15.96466
1157.831, 16.40637
1158.313, 16.37280
1158.796, 17.06152
1159.278, 18.77533
1159.760, 20.40814
1160.242, 20.43909
1160.724, 20.36566
1161.206, 21.57892
1161.688, 23.98950
1162.170, 26.45142
1162.653, 28.97717
1163.135, 31.78979
1163.617, 35.20551
1164.099, 38.18146
1164.581, 38.87000
1165.063, 38.96735
1165.545, 40.49884
1166.027, 43.83746
1166.510, 46.27350
1166.992, 47.61694
1167.474, 49.32263
1167.956, 52.06244
1168.438, 55.22021
1168.920, 58.37256
1169.402, 61.27618
1169.884, 63.67542
1170.366, 65.24487
1170.849, 67.34143
1171.331, 69.99988
1171.813, 72.75720
1172.295, 75.40021
1172.777, 77.91022
1173.259, 80.71838
1173.741, 83.39215
1174.223, 85.19855
1174.706, 84.71375
1175.188, 85.66315
1175.670, 88.52637
1176.152, 91.60406
1176.634, 93.61072
1177.116, 95.03418
1177.598, 96.93567
1178.080, 99.13684
1178.563, 100.9000
1179.045, 101.2573
1179.527, 102.4709
1180.009, 105.3423
1180.491, 107.7448
1180.973, 106.9253
1181.455, 104.3550
1181.937, 103.8777
1182.419, 105.1924
1182.901, 105.9181
1183.384, 104.5861
1183.866, 103.5501
1184.348, 103.4238
1184.830, 103.3359
1185.312, 101.9196
1185.794, 99.71497
1186.276, 98.21472
1186.758, 97.43304
1187.240, 96.44971
1187.723, 94.68323
1188.205, 92.86493
1188.687, 91.24762
1189.169, 89.50409
1189.651, 87.28937
1190.133, 84.51428
1190.615, 80.54413
1191.097, 75.25067
1191.580, 70.74408
1192.062, 68.91058
1192.544, 66.79852
1193.026, 63.27295
1193.508, 59.07056
1193.990, 55.88257
1194.472, 53.40491
1194.954, 50.55835
1195.437, 47.07385
1195.919, 43.75208
1196.401, 40.98938
1196.883, 38.43445
1197.365, 36.06036
1197.847, 33.69312
1198.329, 30.48492
1198.811, 26.86334
1199.293, 24.59174
1199.776, 24.45062
1200.258, 23.96478
1200.740, 21.43701
1201.222, 18.79486
1201.704, 16.95154
1202.186, 15.77826
1202.668, 15.15179
1203.150, 14.86957
1203.633, 14.03937
1204.115, 12.19391
1204.597, 10.28754
1205.079, 8.336060
1205.561, 6.962769
1206.043, 6.781494
1206.525, 7.475586
1207.007, 7.499756
1207.490, 6.943604
1207.972, 6.140686
1208.454, 5.023193
1208.936, 4.081299
1209.418, 3.697327
1209.900, 3.407715
1210.382, 2.932861
1210.864, 2.285583
1211.346, 1.469360
1211.828, 0.5541380
1212.311, 6.4575002E-02
1212.793, 0.3120730
1213.275, 7.0800997E-02
1213.757, 1.423645
1214.239, 2.716187
1214.721, 2.455261
1215.203, 0.9223630
1215.685, 0.3096310
1216.167, 0.4778440
1216.650, 0.6548460
1217.132, 0.1035160
1217.614, 9.7699999E-04
1218.096, 1.362610
1218.578, 2.626953
1219.060, 2.104187
1219.542, 0.1492310
1220.024, 0.7931520
1220.507, 0.8273320
1220.989, 0.8489380
1221.471, 1.460449
1221.953, 1.901855
1222.435, 1.887390
1222.917, 1.702820
1223.399, 1.559631
1223.881, 1.489990
1224.364, 1.767151
1224.846, 2.323547
1225.328, 2.694641
1225.810, 2.675110
1226.292, 2.936279
1226.774, 2.099365
1227.256, 1.550415
1227.738, 1.274109
1228.220, 2.076660
1228.703, 1.492920
1229.185, 1.469055
1229.667, 1.471008
1230.149, 0.7003780
1230.631, 1.361084
1231.113, 0.6083370
1231.595, 0.4235230
1232.077, 1.7517000E-02
1232.560, 0.1041870
1233.042, 5.5420000E-02
1233.524, 0.5512080
1234.006, 0.8450930
1234.488, 0.6490480
1234.970, 1.091614
1235.452, 0.3861080
1235.934, 0.6836550
1236.417, 1.412598
1236.899, 1.232483
1237.381, 1.673645
1237.863, 1.875122
1238.345, 0.9957280
1238.827, 1.994080
1239.309, 2.175110
1239.791, 1.520691
1240.273, 2.444885
1240.755, 1.901306
1241.238, 1.878845
1241.720, 2.247864
1242.202, 2.204712
1242.684, 2.806702
1243.166, 2.783264
1243.648, 2.702271
1244.130, 2.862610
1244.612, 2.332581
1245.094, 3.078552
1245.577, 2.950562
1246.059, 3.254944
1246.541, 4.315369
1247.023, 4.584717
1247.505, 3.442871
1247.987, 3.142273
1248.469, 4.356018
1248.951, 5.941956
1249.434, 6.481201
1249.916, 6.552734
1250.398, 6.839172
1250.880, 7.382935
1251.362, 7.778076
1251.844, 8.020630
1252.326, 8.072937
1252.808, 7.873596
1253.291, 7.730591
1253.773, 7.916504
1254.255, 8.369568
1254.737, 9.236694
1255.219, 10.40613
1255.701, 10.94812
1256.183, 10.82562
1256.665, 10.29327
1257.147, 9.301086
1257.630, 8.543823
1258.112, 8.782471
1258.594, 9.400696
1259.076, 10.18481
1259.558, 11.07526
1260.040, 10.81720
1260.522, 9.401672
1261.004, 8.985962
1261.487, 10.20068
1261.969, 11.55182
1262.451, 11.36517
1262.933, 10.91138
1263.415, 11.06000
1263.897, 11.57172
1264.379, 11.09827
1264.861, 9.666687
1265.344, 8.528809
1265.826, 8.133850
1266.308, 8.142151
1266.790, 8.408020
1267.272, 8.341187
1267.754, 7.483521
1268.236, 6.262756
1268.718, 5.532227
1269.200, 5.318115
1269.682, 6.167419
1270.165, 8.259583
1270.647, 9.629639
1271.129, 8.838257
1271.611, 7.829529
1272.093, 7.264465
1272.575, 6.911499
1273.057, 6.450623
1273.539, 6.011169
1274.021, 5.877441
1274.504, 6.083374
1274.986, 6.132141
1275.468, 6.018005
1275.950, 5.656982
1276.432, 4.660828
1276.914, 3.863037
1277.396, 4.761780
1277.878, 6.275208
1278.361, 6.718384
1278.843, 5.792969
1279.325, 5.122314
1279.807, 4.863953
1280.289, 4.727661
1280.771, 4.575378
1281.253, 4.510254
1281.735, 4.841370
1282.218, 5.348389
1282.700, 5.652466
1283.182, 5.770020
1283.664, 6.382568
1284.146, 7.556763
1284.628, 7.914063
1285.110, 6.898315
1285.592, 5.759460
1286.074, 5.661438
1286.557, 5.782104
1287.039, 5.400269
1287.521, 4.747070
1288.003, 4.581726
1288.485, 4.845154
1288.967, 5.024902
1289.449, 5.040894
1289.931, 4.707275
1290.414, 3.100525
1290.896, 2.086182
1291.378, 2.907715
1291.860, 4.673279
1292.342, 5.307678
1292.824, 4.984863
1293.306, 4.125366
1293.788, 2.755066
1294.271, 1.835144
1294.753, 2.422668
1295.235, 2.519348
1295.717, 1.258301
1296.199, 0.1799320
1296.681, 0.6539310
1297.163, 2.599487
1297.645, 3.543457
1298.127, 3.219604
1298.609, 2.835815
1299.092, 2.568970
1299.574, 2.087952
1300.056, 1.221558
1300.538, 0.4524540
1301.020, 0.8258670
1301.502, 1.539612
1301.984, 1.759705
1302.466, 1.420288
1302.948, 0.9462890
1303.431, 0.2871700
1303.913, 1.8738000E-02
1304.395, 0.0000000E+00
##END=



