##NAMES=Jasmundite
##RRUFFID=R060805
##IDEAL CHEMISTRY=Ca_11_O_2_(SiO_4_)_4_S
##LOCALITY=Bellerberg, Eifel Mts., Germany
##OWNER=RRUFF
##SOURCE=Michael Scott
##DESCRIPTION=Brownish-green irregular grains
##STATUS=The identification of this mineral is confirmed by single-crystal X-ray diffraction and chemical analysis.
##URL=rruff.info/R060805
##MEASURED CHEMISTRY=(Ca_10.64_Mg_0.18_Fe_0.09_Al_0.06_[box]_0.03_)_Σ=11_O_2_((Si_0.99_Ti_0.01_)_Σ=1_O_4_)_4_(S_0.78_P_0.12_O_0.10_)_Σ=1_ ; = gray host
144.6693, 0.0000000E+00
145.1514, 2.676880
145.6336, 12.84784
146.1157, 26.15692
146.5978, 42.20911
147.0799, 61.27374
147.5620, 81.40698
148.0441, 94.15564
148.5263, 91.78033
149.0084, 88.81378
149.4905, 87.04120
149.9726, 86.23419
150.4547, 86.54675
150.9368, 88.56097
151.4190, 90.80200
151.9011, 86.24146
152.3832, 62.92889
152.8653, 45.07733
153.3474, 42.70966
153.8295, 49.20111
154.3117, 51.75482
154.7938, 41.17773
155.2759, 18.37207
155.7580, 2.882324
156.2401, 2.188965
156.7222, 3.871338
157.2044, 2.922607
157.6865, 8.7890001E-03
158.1686, 3.980713
158.6507, 8.408813
159.1328, 13.28967
159.6149, 19.34863
160.0971, 26.95752
160.5792, 35.17883
161.0613, 45.25049
161.5434, 55.92358
162.0255, 63.45630
162.5076, 64.30725
162.9898, 58.44910
163.4719, 60.55701
163.9540, 79.29907
164.4361, 95.97363
164.9182, 98.59314
165.4003, 90.92603
165.8825, 87.35400
166.3646, 100.0298
166.8467, 128.6407
167.3288, 146.3439
167.8109, 148.3483
168.2930, 145.6289
168.7752, 140.4270
169.2573, 134.3455
169.7394, 132.4086
170.2215, 139.7697
170.7036, 155.8739
171.1857, 163.9806
171.6679, 155.2267
172.1500, 146.9956
172.6321, 152.9928
173.1142, 170.6802
173.5963, 183.8652
174.0784, 179.5032
174.5606, 158.2888
175.0427, 142.6665
175.5248, 136.2231
176.0069, 132.0884
176.4890, 124.7288
176.9711, 114.8439
177.4533, 108.9774
177.9354, 113.3094
178.4175, 126.6497
178.8996, 134.2520
179.3817, 132.8617
179.8638, 128.6130
180.3460, 124.0759
180.8281, 119.6680
181.3102, 117.6865
181.7923, 120.4103
182.2744, 127.2808
182.7565, 132.6840
183.2387, 134.2299
183.7208, 136.1478
184.2029, 142.6008
184.6850, 153.0804
185.1671, 162.2126
185.6492, 165.9258
186.1314, 165.1798
186.6135, 165.9753
187.0956, 171.0050
187.5777, 175.5535
188.0598, 176.3523
188.5419, 172.4540
189.0241, 168.1948
189.5062, 168.1654
189.9883, 170.5204
190.4704, 168.8885
190.9525, 161.9058
191.4346, 152.0565
191.9168, 138.1259
192.3989, 120.8851
192.8810, 109.2916
193.3631, 110.3296
193.8452, 120.5768
194.3273, 128.5602
194.8095, 134.7323
195.2916, 138.2571
195.7737, 137.2819
196.2558, 132.4236
196.7379, 125.8759
197.2200, 117.0223
197.7022, 108.1222
198.1843, 104.0146
198.6664, 107.3597
199.1485, 111.9645
199.6306, 114.4855
200.1127, 114.8790
200.5949, 112.0448
201.0770, 102.7218
201.5591, 91.61951
202.0412, 88.64502
202.5233, 96.83899
203.0054, 105.4692
203.4876, 106.1256
203.9697, 99.89514
204.4518, 93.71338
204.9339, 90.34778
205.4160, 88.58765
205.8981, 86.38123
206.3803, 84.18726
206.8624, 80.43921
207.3445, 72.09314
207.8266, 60.57153
208.3087, 52.81409
208.7908, 52.17883
209.2730, 55.69385
209.7551, 59.38794
210.2372, 64.61719
210.7193, 65.47632
211.2014, 52.40186
211.6835, 30.94177
212.1657, 21.34485
212.6478, 34.00989
213.1299, 55.35010
213.6120, 66.87939
214.0941, 68.12646
214.5763, 65.57874
215.0584, 61.10083
215.5405, 55.08057
216.0226, 48.22852
216.5047, 40.16235
216.9868, 32.34204
217.4690, 26.17871
217.9511, 21.49060
218.4332, 18.96790
218.9153, 19.66345
219.3974, 22.64294
219.8795, 26.54468
220.3617, 31.84595
220.8438, 36.19543
221.3259, 34.97363
221.8080, 28.79163
222.2901, 26.04285
222.7722, 34.13257
223.2544, 45.98108
223.7365, 49.03735
224.2186, 40.15222
224.7007, 28.24109
225.1828, 22.29321
225.6649, 21.31567
226.1471, 20.19592
226.6292, 15.83569
227.1113, 11.57263
227.5934, 12.82080
228.0755, 20.61951
228.5576, 28.42432
229.0398, 31.50354
229.5219, 29.84216
230.0040, 23.64209
230.4861, 6.202026
230.9682, 11.71997
231.4503, 19.17822
231.9325, 15.70398
232.4146, 7.911621
232.8967, 2.128784
233.3788, 12.85791
233.8609, 17.52161
234.3430, 8.542847
234.8252, 0.8511960
235.3073, 0.2280270
235.7894, 9.467407
236.2715, 21.07178
236.7536, 32.17432
237.2357, 41.09180
237.7179, 42.92419
238.2000, 29.61121
238.6821, 17.94299
239.1642, 18.34619
239.6463, 28.09583
240.1284, 38.43896
240.6106, 46.46204
241.0927, 50.96423
241.5748, 48.12061
242.0569, 32.75085
242.5390, 19.40283
243.0211, 15.62646
243.5033, 17.46692
243.9854, 15.95068
244.4675, 6.779907
244.9496, 5.096680
245.4317, 8.544800
245.9138, 1.547485
246.3960, 7.123901
246.8781, 17.88257
247.3602, 28.65417
247.8423, 36.92126
248.3244, 41.96497
248.8065, 43.73047
249.2887, 41.42676
249.7708, 32.87842
250.2529, 26.37952
250.7350, 23.21106
251.2171, 21.92590
251.6992, 21.61707
252.1814, 21.98914
252.6635, 22.23657
253.1456, 21.29041
253.6277, 18.59021
254.1098, 17.18127
254.5919, 17.13550
255.0741, 18.18799
255.5562, 21.21179
256.0383, 25.67578
256.5204, 29.23865
257.0025, 30.07861
257.4846, 28.46313
257.9668, 24.36182
258.4489, 12.92627
258.9310, 3.460205
259.4131, 0.7796630
259.8952, 0.3378910
260.3773, 7.444214
260.8595, 21.76978
261.3416, 41.00574
261.8237, 48.52832
262.3058, 33.46655
262.7879, 21.96765
263.2701, 20.33362
263.7522, 24.86877
264.2343, 30.21875
264.7164, 33.67480
265.1985, 34.68652
265.6806, 34.20703
266.1628, 33.64075
266.6449, 31.42908
267.1270, 24.34338
267.6091, 17.64001
268.0912, 16.96313
268.5733, 23.08435
269.0555, 31.00659
269.5376, 33.68921
270.0197, 27.79053
270.5018, 27.14893
270.9839, 34.76672
271.4660, 44.37354
271.9482, 53.94800
272.4303, 62.35046
272.9124, 67.07104
273.3945, 63.45923
273.8766, 48.37952
274.3587, 39.94751
274.8409, 44.26099
275.3230, 49.97095
275.8051, 52.22107
276.2872, 51.80359
276.7693, 52.37793
277.2514, 56.75977
277.7336, 64.70996
278.2157, 73.68530
278.6978, 87.22571
279.1799, 96.91187
279.6620, 97.11206
280.1441, 92.22217
280.6263, 89.70740
281.1084, 94.21729
281.5905, 102.6870
282.0726, 106.8096
282.5547, 104.3118
283.0368, 102.7029
283.5190, 103.6637
284.0011, 107.1069
284.4832, 113.9661
284.9653, 125.2977
285.4474, 137.0789
285.9295, 144.8418
286.4117, 148.5492
286.8938, 148.1381
287.3759, 139.3677
287.8580, 129.3896
288.3401, 123.8241
288.8222, 122.9596
289.3044, 125.7250
289.7865, 134.3407
290.2686, 147.3774
290.7507, 156.4482
291.2328, 159.7367
291.7149, 158.6847
292.1971, 152.0521
292.6792, 140.9235
293.1613, 134.5671
293.6434, 144.7917
294.1255, 159.7072
294.6076, 155.1487
295.0898, 125.7919
295.5719, 97.54028
296.0540, 94.67627
296.5361, 111.3596
297.0182, 121.6945
297.5003, 117.4277
297.9825, 109.4254
298.4646, 105.2937
298.9467, 105.0493
299.4288, 107.9424
299.9109, 114.6299
300.3930, 123.5811
300.8752, 129.5436
301.3573, 134.6595
301.8394, 134.4722
302.3215, 123.0371
302.8036, 105.5277
303.2857, 92.77527
303.7679, 89.54333
304.2500, 90.36670
304.7321, 84.41467
305.2142, 64.72424
305.6963, 52.35156
306.1784, 53.01660
306.6606, 59.09839
307.1427, 64.79895
307.6248, 68.64832
308.1069, 70.61633
308.5890, 70.89526
309.0711, 69.95789
309.5533, 64.53149
310.0354, 49.93579
310.5175, 36.06128
310.9996, 27.77148
311.4817, 24.34546
311.9638, 22.72168
312.4460, 20.92395
312.9281, 18.88794
313.4102, 16.00745
313.8923, 12.86877
314.3744, 8.038208
314.8565, 1.409912
315.3387, 11.72888
315.8208, 17.85852
316.3029, 17.53870
316.7850, 13.77917
317.2671, 13.16504
317.7492, 17.81702
318.2314, 19.77942
318.7135, 11.37878
319.1956, 4.772583
319.6777, 10.91846
320.1598, 30.42822
320.6419, 51.23657
321.1241, 62.39893
321.6062, 63.87097
322.0883, 58.81897
322.5704, 40.56238
323.0525, 23.98645
323.5346, 17.62134
324.0168, 19.74231
324.4989, 24.71851
324.9810, 34.33582
325.4631, 43.63672
325.9452, 38.56995
326.4273, 14.54333
326.9095, 6.765259
327.3916, 9.956543
327.8737, 3.412476
328.3558, 6.0547002E-02
328.8379, 3.571167
329.3200, 8.457275
329.8022, 9.003906
330.2843, 6.369019
330.7664, 8.221558
331.2485, 19.95984
331.7306, 34.10962
332.2127, 36.69690
332.6949, 25.85364
333.1770, 14.89600
333.6591, 5.727905
334.1412, 0.3632810
334.6233, 0.2081300
335.1054, 6.817749
335.5876, 15.04895
336.0697, 18.16626
336.5518, 14.91296
337.0339, 15.41821
337.5161, 22.22681
337.9982, 30.37036
338.4803, 36.35754
338.9624, 41.05872
339.4445, 48.30579
339.9266, 61.15027
340.4088, 77.79187
340.8909, 88.09290
341.3730, 82.70056
341.8551, 81.86682
342.3372, 91.71094
342.8193, 105.5569
343.3015, 115.6759
343.7836, 119.4697
344.2657, 120.9110
344.7478, 126.2185
345.2299, 136.2747
345.7120, 147.9984
346.1942, 163.7209
346.6763, 179.1035
347.1584, 191.2743
347.6405, 200.7760
348.1226, 210.5836
348.6047, 225.1062
349.0869, 242.7914
349.5690, 249.6196
350.0511, 237.9849
350.5332, 228.1317
351.0153, 226.8773
351.4974, 232.8768
351.9796, 245.5022
352.4617, 266.9236
352.9438, 290.1289
353.4259, 307.3625
353.9080, 318.6486
354.3901, 322.3188
354.8723, 311.7405
355.3544, 298.4170
355.8365, 297.8879
356.3186, 311.9906
356.8007, 325.6282
357.2828, 332.5869
357.7650, 333.9255
358.2471, 329.7263
358.7292, 319.2194
359.2113, 309.2975
359.6934, 306.1653
360.1755, 310.2527
360.6577, 317.4724
361.1398, 330.3011
361.6219, 344.0228
362.1040, 358.3994
362.5861, 371.5634
363.0682, 376.7782
363.5504, 368.7843
364.0325, 353.5544
364.5146, 351.5264
364.9967, 380.8104
365.4788, 400.5494
365.9609, 402.8398
366.4431, 397.2683
366.9252, 391.5704
367.4073, 388.1428
367.8894, 386.9408
368.3715, 388.2573
368.8536, 392.7091
369.3358, 396.5273
369.8179, 401.6683
370.3000, 404.3000
370.7821, 401.0758
371.2642, 394.1870
371.7463, 388.0157
372.2285, 384.5496
372.7106, 383.8777
373.1927, 389.4492
373.6748, 407.5007
374.1569, 416.1040
374.6390, 398.2192
375.1212, 372.8184
375.6033, 355.6980
376.0854, 350.2683
376.5675, 350.8325
377.0496, 355.1014
377.5317, 360.8997
378.0139, 359.8409
378.4960, 348.1201
378.9781, 334.5605
379.4602, 328.7841
379.9423, 329.6399
380.4244, 330.8964
380.9066, 332.5310
381.3887, 331.9181
381.8708, 324.7588
382.3529, 311.9484
382.8350, 299.8805
383.3171, 292.3127
383.7993, 289.1931
384.2814, 288.3708
384.7635, 292.3701
385.2456, 293.5605
385.7277, 288.2333
386.2098, 280.4329
386.6920, 272.9645
387.1741, 267.1051
387.6562, 267.3339
388.1383, 281.8369
388.6204, 317.8983
389.1025, 334.7300
389.5847, 313.5571
390.0668, 293.3430
390.5489, 288.2988
391.0310, 295.6832
391.5131, 307.9187
391.9952, 321.3491
392.4774, 335.1776
392.9595, 347.5017
393.4416, 358.6987
393.9237, 367.1281
394.4058, 370.5486
394.8879, 372.1851
395.3701, 375.1665
395.8522, 379.9050
396.3343, 382.2679
396.8164, 374.7498
397.2985, 361.4957
397.7806, 360.8237
398.2628, 379.0306
398.7449, 397.4227
399.2270, 397.5645
399.7091, 384.9965
400.1912, 378.2640
400.6733, 386.1399
401.1555, 395.5789
401.6376, 396.1565
402.1197, 390.2654
402.6018, 386.8025
403.0839, 390.1699
403.5660, 396.2020
404.0482, 395.8665
404.5303, 383.1093
405.0124, 375.9155
405.4945, 380.3511
405.9766, 386.9636
406.4587, 387.3918
406.9409, 381.8306
407.4230, 376.6777
407.9051, 377.7083
408.3872, 384.6008
408.8693, 390.0471
409.3514, 395.4794
409.8336, 397.4543
410.3157, 390.1309
410.7978, 381.2754
411.2799, 381.7371
411.7620, 395.4255
412.2441, 411.3270
412.7263, 412.1287
413.2084, 396.6609
413.6905, 389.8826
414.1726, 401.0029
414.6547, 414.7865
415.1368, 418.3654
415.6190, 414.1760
416.1011, 412.6918
416.5832, 421.7100
417.0653, 433.6040
417.5474, 438.2666
418.0295, 435.8882
418.5117, 431.0010
418.9938, 422.3511
419.4759, 415.5774
419.9580, 428.1670
420.4401, 474.9897
420.9222, 507.6421
421.4044, 503.7865
421.8865, 486.0231
422.3686, 477.0753
422.8507, 481.4885
423.3328, 494.6714
423.8149, 513.8374
424.2971, 539.8838
424.7792, 555.7806
425.2613, 550.8215
425.7434, 547.8340
426.2255, 553.2257
426.7076, 563.7041
427.1898, 576.0002
427.6719, 588.9791
428.1540, 598.6959
428.6361, 595.9463
429.1182, 577.6121
429.6003, 568.2983
430.0825, 578.5736
430.5646, 591.4084
431.0467, 600.7139
431.5288, 604.3291
432.0109, 595.0688
432.4930, 556.3123
432.9752, 509.2026
433.4573, 487.4951
433.9394, 490.9215
434.4215, 494.5474
434.9036, 486.1796
435.3857, 470.8918
435.8679, 461.0789
436.3500, 459.9592
436.8321, 455.7738
437.3142, 443.8127
437.7963, 428.3024
438.2784, 412.6498
438.7606, 397.8945
439.2427, 385.6416
439.7248, 378.3071
440.2069, 375.8047
440.6890, 366.4695
441.1711, 337.4984
441.6533, 316.3333
442.1354, 314.2102
442.6175, 320.7856
443.0996, 323.0707
443.5817, 318.2627
444.0638, 308.4534
444.5460, 294.0941
445.0281, 276.0648
445.5102, 266.3071
445.9923, 271.7518
446.4744, 276.3693
446.9565, 267.2998
447.4387, 249.8318
447.9208, 238.0264
448.4029, 239.6659
448.8850, 246.5532
449.3671, 251.4176
449.8492, 254.0664
450.3314, 253.5874
450.8135, 249.0276
451.2956, 242.7201
451.7777, 239.2063
452.2598, 240.8835
452.7419, 237.4839
453.2241, 219.9060
453.7062, 202.4989
454.1883, 198.3729
454.6704, 205.1844
455.1525, 210.5537
455.6346, 205.3713
456.1168, 193.6034
456.5989, 193.8728
457.0810, 219.7076
457.5631, 234.5403
458.0452, 228.0667
458.5273, 214.7343
459.0095, 204.2300
459.4916, 198.2219
459.9737, 195.1669
460.4558, 193.2725
460.9379, 192.4802
461.4200, 195.5562
461.9022, 204.9147
462.3843, 212.9987
462.8664, 215.6794
463.3485, 214.0756
463.8306, 209.9791
464.3127, 202.2751
464.7949, 195.1638
465.2770, 189.2356
465.7591, 185.6793
466.2412, 188.2261
466.7233, 197.5214
467.2054, 207.0981
467.6876, 210.8970
468.1697, 208.8632
468.6518, 201.6008
469.1339, 181.2189
469.6160, 165.2032
470.0981, 162.1279
470.5803, 165.1597
471.0624, 164.4707
471.5445, 156.6097
472.0266, 146.5089
472.5087, 140.7588
472.9908, 139.6055
473.4730, 140.7620
473.9551, 144.9521
474.4372, 150.4711
474.9193, 158.7415
475.4014, 167.3854
475.8835, 170.5477
476.3657, 163.6833
476.8478, 153.9321
477.3299, 146.9583
477.8120, 142.9496
478.2941, 145.2378
478.7762, 157.7269
479.2584, 167.7509
479.7405, 155.2859
480.2226, 111.4824
480.7047, 84.34180
481.1868, 88.42578
481.6689, 96.53625
482.1511, 92.62720
482.6332, 80.46045
483.1153, 71.46301
483.5974, 71.55579
484.0795, 76.39563
484.5616, 75.28552
485.0438, 63.45959
485.5259, 59.19958
486.0080, 74.98511
486.4901, 89.62378
486.9722, 89.58191
487.4543, 78.28784
487.9365, 69.72693
488.4186, 74.81665
488.9007, 83.91663
489.3828, 79.67896
489.8649, 62.72693
490.3470, 50.98633
490.8292, 53.41638
491.3113, 61.50903
491.7934, 60.52466
492.2755, 48.76770
492.7576, 38.96021
493.2397, 34.14905
493.7219, 31.10608
494.2040, 26.31299
494.6861, 20.94312
495.1682, 20.09290
495.6503, 27.41626
496.1324, 38.69531
496.6146, 40.91895
497.0967, 28.21265
497.5788, 18.89868
498.0609, 19.83093
498.5430, 20.12878
499.0251, 7.626831
499.5073, 13.34644
499.9894, 22.96838
500.4715, 2.661011
500.9536, 39.87500
501.4358, 37.09424
501.9179, 6.962036
502.4000, 40.79944
502.8821, 41.07703
503.3642, 24.19470
503.8463, 18.46875
504.3285, 26.02209
504.8106, 30.96777
505.2927, 27.88916
505.7748, 22.96594
506.2569, 22.23511
506.7390, 24.49927
507.2212, 23.51514
507.7033, 15.08923
508.1854, 2.892578
508.6675, 1.934082
509.1496, 3.734009
509.6317, 10.36096
510.1139, 21.19861
510.5960, 29.31262
511.0781, 28.01917
511.5602, 19.44849
512.0423, 12.88574
512.5244, 15.36304
513.0065, 21.84863
513.4886, 23.81372
513.9708, 21.30164
514.4529, 17.96606
514.9350, 14.29077
515.4171, 11.59912
515.8992, 12.87256
516.3813, 19.11731
516.8635, 23.11707
517.3456, 25.43518
517.8277, 23.97107
518.3098, 13.64001
518.7919, 1.786987
519.2740, 12.29822
519.7562, 12.28479
520.2383, 6.391846
520.7204, 5.229736
521.2025, 10.84204
521.6846, 15.28809
522.1667, 10.58655
522.6489, 11.39673
523.1310, 32.30579
523.6131, 65.46191
524.0952, 87.07776
524.5773, 79.67578
525.0594, 64.19507
525.5416, 68.31836
526.0237, 88.25610
526.5058, 101.5509
526.9879, 100.2289
527.4700, 93.19788
527.9521, 90.66711
528.4343, 92.91528
528.9164, 100.2748
529.3985, 117.9680
529.8806, 135.3313
530.3627, 145.7426
530.8448, 152.8906
531.3270, 164.8958
531.8091, 184.7106
532.2912, 204.9525
532.7733, 212.0453
533.2554, 203.7446
533.7375, 205.0889
534.2197, 225.2679
534.7018, 243.4128
535.1839, 245.6464
535.6660, 238.6826
536.1481, 235.2584
536.6302, 240.4082
537.1124, 245.3500
537.5945, 241.7356
538.0766, 233.8429
538.5587, 230.8507
539.0408, 234.5900
539.5229, 241.1510
540.0051, 248.1405
540.4872, 255.3645
540.9693, 253.3030
541.4514, 232.6840
541.9335, 214.1523
542.4156, 201.7283
542.8978, 192.5896
543.3799, 184.4403
543.8620, 176.5874
544.3441, 168.8330
544.8262, 158.8519
545.3083, 148.5852
545.7905, 147.9700
546.2726, 159.2809
546.7547, 168.8984
547.2368, 168.8727
547.7189, 164.4647
548.2010, 165.7570
548.6832, 174.4006
549.1653, 182.3014
549.6474, 187.2715
550.1295, 190.5828
550.6116, 191.5898
551.0938, 191.6859
551.5759, 195.6003
552.0580, 206.5922
552.5401, 221.4321
553.0222, 230.9371
553.5043, 231.9001
553.9865, 235.7666
554.4686, 245.9493
554.9507, 257.4204
555.4328, 268.8085
555.9149, 279.4491
556.3970, 287.8867
556.8792, 293.2909
557.3613, 296.0590
557.8434, 296.2825
558.3255, 296.1616
558.8076, 297.6594
559.2897, 302.0325
559.7719, 304.9331
560.2540, 298.8066
560.7361, 283.8064
561.2182, 279.2078
561.7003, 292.0022
562.1824, 303.4019
562.6646, 307.6375
563.1467, 308.2627
563.6288, 309.6165
564.1109, 312.4907
564.5930, 314.5812
565.0751, 314.4917
565.5573, 312.4589
566.0394, 305.8608
566.5215, 291.6399
567.0036, 282.0410
567.4857, 287.8387
567.9678, 299.9396
568.4500, 299.5237
568.9321, 281.3405
569.4142, 269.6395
569.8963, 272.9821
570.3784, 283.6754
570.8605, 298.8888
571.3427, 315.9097
571.8248, 327.5636
572.3069, 329.2992
572.7890, 324.4070
573.2711, 320.6174
573.7532, 317.1091
574.2354, 316.1976
574.7175, 322.1670
575.1996, 327.1949
575.6817, 327.1071
576.1638, 323.2655
576.6459, 318.1040
577.1281, 307.8878
577.6102, 301.2947
578.0923, 311.1903
578.5744, 330.1753
579.0565, 338.8665
579.5386, 332.4237
580.0208, 319.9832
580.5029, 309.1587
580.9850, 300.0139
581.4671, 300.7017
581.9492, 327.2208
582.4313, 344.0603
582.9135, 342.0601
583.3956, 330.5793
583.8777, 314.3721
584.3599, 296.2184
584.8420, 284.0739
585.3241, 289.3079
585.8062, 303.4246
586.2883, 306.9016
586.7704, 299.7711
587.2526, 291.2480
587.7347, 284.5507
588.2168, 278.9634
588.6989, 272.7386
589.1810, 264.2754
589.6631, 261.6068
590.1453, 273.3223
590.6274, 282.3312
591.1095, 276.5574
591.5916, 262.8964
592.0737, 254.2261
592.5558, 255.3092
593.0380, 259.3209
593.5201, 256.6881
594.0022, 247.9821
594.4843, 242.5779
594.9664, 241.4656
595.4485, 241.4709
595.9307, 240.4708
596.4128, 239.4894
596.8949, 241.4263
597.3770, 249.4767
597.8591, 252.7177
598.3412, 243.4132
598.8234, 231.1543
599.3055, 225.1420
599.7876, 224.8782
600.2697, 224.9600
600.7518, 222.1643
601.2339, 217.7565
601.7161, 214.7592
602.1982, 213.5496
602.6803, 212.2595
603.1624, 212.9943
603.6445, 210.6436
604.1266, 197.2064
604.6088, 178.4230
605.0909, 169.9526
605.5730, 183.8977
606.0551, 195.4126
606.5372, 185.3542
607.0193, 165.4397
607.5015, 154.2170
607.9836, 154.2919
608.4657, 155.7919
608.9478, 149.6050
609.4299, 138.3909
609.9120, 139.3995
610.3942, 163.9072
610.8763, 178.4240
611.3584, 167.7030
611.8405, 150.7504
612.3226, 139.8655
612.8047, 134.9053
613.2869, 130.8788
613.7690, 123.7745
614.2511, 118.6870
614.7332, 122.3292
615.2153, 131.7374
615.6974, 140.5859
616.1796, 146.9880
616.6617, 147.6630
617.1438, 137.7111
617.6259, 117.6516
618.1080, 102.5331
618.5901, 90.77283
619.0723, 86.80493
619.5544, 100.0703
620.0365, 114.9260
620.5186, 115.0483
621.0007, 100.5153
621.4828, 88.58630
621.9650, 94.44751
622.4471, 106.1012
622.9292, 102.9127
623.4113, 87.48120
623.8934, 76.00281
624.3755, 74.59692
624.8577, 78.65698
625.3398, 82.08923
625.8219, 85.67993
626.3040, 86.53516
626.7861, 78.89392
627.2682, 75.89392
627.7504, 84.84973
628.2325, 97.09656
628.7146, 103.2909
629.1967, 101.5664
629.6788, 96.86755
630.1609, 89.83997
630.6431, 83.27832
631.1252, 83.43408
631.6073, 89.60315
632.0894, 94.63733
632.5715, 96.17957
633.0536, 92.93408
633.5358, 81.05164
634.0179, 55.45667
634.5000, 44.57031
634.9821, 61.73413
635.4642, 77.43701
635.9464, 84.90564
636.4285, 85.19019
636.9106, 77.58899
637.3927, 62.48157
637.8748, 49.69824
638.3569, 48.46436
638.8391, 53.95239
639.3212, 58.35413
639.8033, 61.10083
640.2854, 58.65308
640.7675, 48.17114
641.2496, 35.84692
641.7318, 32.84351
642.2139, 43.10193
642.6960, 48.28430
643.1781, 45.12915
643.6602, 40.95300
644.1423, 39.09741
644.6245, 37.26221
645.1066, 30.73206
645.5887, 18.51062
646.0708, 9.075684
646.5529, 11.91125
647.0350, 21.12952
647.5172, 25.48267
647.9993, 24.93591
648.4814, 24.09192
648.9635, 24.99792
649.4456, 27.00940
649.9277, 29.62463
650.4099, 35.14099
650.8920, 32.90979
651.3741, 10.61816
651.8562, 5.233398
652.3383, 0.5096440
652.8204, 12.90100
653.3026, 18.63733
653.7847, 12.82336
654.2668, 7.713745
654.7489, 14.83423
655.2310, 26.96741
655.7131, 32.87073
656.1953, 32.40186
656.6774, 27.07214
657.1595, 16.55603
657.6416, 6.825806
658.1237, 9.037476
658.6058, 28.31702
659.0880, 35.95825
659.5701, 20.48816
660.0522, 6.523926
660.5343, 1.482300
661.0164, 1.220093
661.4985, 2.2095000E-02
661.9807, 3.122070
662.4628, 2.572876
662.9449, 10.99231
663.4270, 26.37463
663.9091, 27.16187
664.3912, 15.95154
664.8734, 5.050293
665.3555, 0.8504640
665.8376, 3.417236
666.3197, 4.498901
666.8018, 3.591797
667.2839, 6.118774
667.7661, 18.30383
668.2482, 24.39441
668.7303, 14.37024
669.2124, 0.3643800
669.6945, 8.051880
670.1766, 7.539063
670.6588, 5.833496
671.1409, 6.311279
671.6230, 6.571777
672.1051, 3.612183
672.5872, 1.267456
673.0693, 5.861816
673.5515, 9.228638
674.0336, 8.784668
674.5157, 0.3149410
674.9978, 17.17688
675.4799, 23.43250
675.9620, 14.50476
676.4442, 6.170898
676.9263, 1.751709
677.4084, 1.232666
677.8905, 7.995972
678.3726, 21.30249
678.8547, 24.85388
679.3369, 3.002075
679.8190, 17.22986
680.3011, 16.97937
680.7832, 6.369995
681.2653, 1.875610
681.7474, 6.250122
682.2296, 8.921875
682.7117, 1.483521
683.1938, 19.38025
683.6759, 22.75757
684.1580, 9.455078
684.6401, 2.408447
685.1223, 9.400146
685.6044, 11.84778
686.0865, 8.137329
686.5686, 1.196899
687.0507, 6.786743
687.5328, 2.556519
688.0150, 2.297119
688.4971, 14.31494
688.9792, 28.59619
689.4613, 35.41211
689.9434, 34.91553
690.4255, 33.45020
690.9077, 34.75232
691.3898, 37.54370
691.8719, 40.40344
692.3540, 43.10242
692.8361, 44.16785
693.3182, 43.38635
693.8004, 40.15881
694.2825, 32.57910
694.7646, 22.65149
695.2467, 20.04102
695.7288, 31.23657
696.2109, 40.03809
696.6931, 46.73596
697.1752, 50.21594
697.6573, 49.10095
698.1394, 44.44751
698.6215, 37.37610
699.1036, 26.83716
699.5858, 19.62427
700.0679, 23.61914
700.5500, 33.85742
701.0321, 41.59485
701.5142, 46.41809
701.9963, 52.93909
702.4785, 64.28882
702.9606, 74.87378
703.4427, 72.12158
703.9248, 51.80530
704.4069, 35.11340
704.8890, 19.98511
705.3712, 11.65845
705.8533, 15.42969
706.3354, 25.80591
706.8175, 37.61243
707.2996, 51.39172
707.7817, 59.01917
708.2639, 51.23315
708.7460, 42.12122
709.2281, 42.61304
709.7102, 50.25378
710.1923, 61.39050
710.6744, 74.04480
711.1566, 83.02979
711.6387, 80.22571
712.1208, 68.25574
712.6029, 63.48535
713.0850, 66.98523
713.5671, 68.22485
714.0493, 62.02087
714.5314, 56.52747
715.0135, 61.64551
715.4956, 77.76794
715.9777, 84.00464
716.4598, 70.23145
716.9420, 60.61560
717.4241, 62.67236
717.9062, 70.23560
718.3883, 79.21692
718.8704, 88.30334
719.3525, 96.28723
719.8347, 103.5452
720.3168, 107.9861
720.7989, 102.6205
721.2810, 91.19641
721.7631, 88.96045
722.2452, 98.25037
722.7274, 103.9313
723.2095, 93.43481
723.6916, 72.76721
724.1737, 62.61670
724.6558, 65.37769
725.1379, 73.60315
725.6201, 93.21765
726.1022, 108.9742
726.5843, 114.3420
727.0664, 111.7352
727.5485, 102.6877
728.0306, 84.34021
728.5128, 70.99780
728.9949, 70.32275
729.4770, 75.45178
729.9591, 81.93079
730.4412, 89.08960
730.9233, 96.73145
731.4055, 104.8236
731.8876, 111.1742
732.3697, 111.6725
732.8518, 107.4479
733.3339, 107.9213
733.8160, 113.7308
734.2982, 116.6628
734.7803, 112.4844
735.2624, 106.7209
735.7445, 107.5826
736.2266, 116.3945
736.7087, 118.5748
737.1909, 104.1697
737.6730, 94.86780
738.1551, 99.12769
738.6372, 110.0931
739.1193, 126.1029
739.6014, 142.9192
740.0836, 147.3711
740.5657, 125.2488
741.0478, 101.4706
741.5299, 103.3969
742.0120, 117.6616
742.4941, 118.2241
742.9763, 102.5483
743.4584, 85.23083
743.9405, 76.49866
744.4226, 72.20398
744.9047, 57.95154
745.3868, 30.44836
745.8690, 19.42725
746.3511, 33.18518
746.8332, 51.19238
747.3153, 64.11328
747.7974, 72.59851
748.2795, 78.11633
748.7617, 80.21582
749.2438, 81.07690
749.7259, 79.81836
750.2080, 78.55286
750.6901, 79.82373
751.1722, 81.15112
751.6544, 77.92212
752.1365, 69.47961
752.6186, 61.49890
753.1007, 57.77783
753.5828, 57.50562
754.0649, 61.71753
754.5471, 68.51257
755.0292, 69.88098
755.5113, 63.70276
755.9934, 55.98486
756.4755, 52.19629
756.9576, 52.00891
757.4398, 55.10437
757.9219, 65.51575
758.4040, 65.98792
758.8861, 44.77625
759.3682, 24.17371
759.8503, 23.87988
760.3325, 36.87317
760.8146, 44.29089
761.2967, 40.94019
761.7788, 39.58667
762.2609, 45.57324
762.7430, 52.43933
763.2252, 56.80652
763.7073, 58.17944
764.1894, 55.72546
764.6715, 49.03577
765.1536, 41.17725
765.6357, 33.20654
766.1179, 26.36414
766.6000, 25.09729
767.0821, 28.32373
767.5642, 27.06824
768.0463, 17.78406
768.5284, 6.765503
769.0106, 1.524292
769.4927, 1.986328
769.9748, 6.703369
770.4569, 20.87292
770.9390, 25.92590
771.4211, 9.432129
771.9033, 8.631470
772.3854, 9.812378
772.8675, 1.850220
773.3496, 9.599976
773.8317, 8.067993
774.3138, 7.755249
774.7960, 15.57544
775.2781, 22.23730
775.7602, 19.95068
776.2423, 10.14124
776.7244, 3.975220
777.2065, 21.77808
777.6887, 34.83325
778.1708, 32.80774
778.6529, 20.93945
779.1350, 7.590332
779.6171, 5.911987
780.0992, 15.09851
780.5814, 18.24463
781.0635, 16.76025
781.5456, 11.49597
782.0277, 2.682983
782.5098, 1.405151
782.9919, 0.7161870
783.4741, 3.137573
783.9562, 3.485962
784.4383, 4.729126
784.9204, 11.42969
785.4025, 22.13452
785.8846, 27.91492
786.3668, 26.99170
786.8489, 23.01709
787.3310, 11.13403
787.8131, 1.341064
788.2952, 3.483887
788.7773, 13.20630
789.2595, 19.78113
789.7416, 19.22058
790.2237, 16.24939
790.7058, 11.59094
791.1879, 8.648804
791.6700, 15.53821
792.1522, 29.21240
792.6343, 37.86536
793.1164, 37.32080
793.5985, 4.421911
794.0806, 39.55769
794.5627, 60.06192
795.0449, 66.72167
795.5270, 18.06803
796.0091, 40.83954
796.4912, 34.98717
796.9733, 27.96107
797.4554, 60.78510
797.9376, 20.17720
798.4197, 52.36927
798.9018, 55.50086
799.3839, 71.93281
799.8660, 59.56409
800.3481, 56.09077
800.8303, 81.42797
801.3124, 90.81226
801.7945, 75.12811
802.2766, 92.40548
802.7587, 50.79104
803.2408, 60.85476
803.7230, 93.21601
804.2051, 78.97973
804.6872, 96.78365
805.1693, 76.59631
805.6514, 69.60205
806.1335, 57.10791
806.6157, 42.64758
807.0978, 30.23523
807.5799, 32.64282
808.0620, 47.26953
808.5441, 52.02515
809.0262, 42.40649
809.5084, 30.75037
809.9905, 25.21594
810.4726, 24.95923
810.9547, 28.71863
811.4368, 39.51819
811.9189, 44.38623
812.4011, 40.56787
812.8832, 34.77820
813.3653, 27.88440
813.8474, 21.76794
814.3295, 19.13538
814.8116, 20.23291
815.2938, 22.47144
815.7759, 27.68164
816.2580, 31.32397
816.7401, 29.91895
817.2222, 27.11584
817.7043, 27.37842
818.1865, 30.36243
818.6686, 31.92798
819.1507, 29.46423
819.6328, 26.33752
820.1149, 27.53381
820.5970, 29.19336
821.0792, 22.94849
821.5613, 10.37329
822.0434, 0.3786620
822.5255, 2.864868
823.0076, 0.9576420
823.4897, 6.621338
823.9719, 18.29260
824.4540, 19.15857
824.9361, 8.123779
825.4182, 5.369751
825.9003, 19.45129
826.3824, 35.29468
826.8646, 36.61243
827.3467, 25.60010
827.8288, 22.15991
828.3109, 30.90759
828.7930, 38.12744
829.2751, 38.23303
829.7573, 39.92407
830.2394, 50.11694
830.7215, 66.81775
831.2036, 85.50281
831.6857, 107.9139
832.1678, 122.4950
832.6500, 119.7747
833.1321, 115.9316
833.6142, 117.6389
834.0963, 125.0955
834.5784, 140.6049
835.0605, 162.1616
835.5427, 178.4075
836.0248, 180.6881
836.5069, 179.3905
836.9890, 180.1294
837.4711, 186.5188
837.9532, 206.5227
838.4354, 239.6520
838.9175, 280.1118
839.3996, 325.0380
839.8817, 367.7120
840.3638, 392.2152
840.8459, 402.7072
841.3281, 432.2378
841.8102, 482.8667
842.2923, 527.6810
842.7744, 553.9968
843.2565, 579.6925
843.7386, 626.6776
844.2208, 693.7368
844.7029, 760.6929
845.1850, 831.2930
845.6671, 891.8223
846.1492, 927.9740
846.6313, 968.8726
847.1135, 1040.410
847.5956, 1130.521
848.0777, 1209.255
848.5598, 1267.314
849.0419, 1335.442
849.5240, 1417.051
850.0062, 1511.152
850.4883, 1629.815
850.9704, 1754.010
851.4525, 1855.369
851.9346, 1933.231
852.4167, 2019.975
852.8989, 2140.211
853.3810, 2264.313
853.8631, 2369.956
854.3452, 2466.425
854.8273, 2569.359
855.3094, 2674.750
855.7916, 2761.179
856.2737, 2816.466
856.7558, 2861.241
857.2379, 2932.433
857.7200, 3010.403
858.2021, 3040.134
858.6843, 3023.547
859.1664, 2987.218
859.6485, 2939.730
860.1306, 2883.337
860.6127, 2820.172
861.0948, 2749.448
861.5770, 2670.254
862.0591, 2582.907
862.5412, 2479.007
863.0233, 2354.719
863.5054, 2219.805
863.9875, 2075.607
864.4697, 1930.182
864.9518, 1802.333
865.4339, 1694.611
865.9160, 1597.875
866.3981, 1523.588
866.8802, 1445.025
867.3624, 1353.889
867.8445, 1256.418
868.3266, 1153.475
868.8087, 1047.691
869.2908, 954.4995
869.7729, 887.1316
870.2551, 818.1505
870.7372, 734.7838
871.2193, 652.4410
871.7014, 579.9652
872.1835, 518.7689
872.6656, 470.8833
873.1478, 437.3339
873.6299, 409.2195
874.1120, 386.4282
874.5941, 362.1371
875.0762, 324.7551
875.5583, 283.6740
876.0405, 256.5890
876.5226, 244.6436
877.0047, 235.1396
877.4868, 220.5264
877.9689, 202.6530
878.4510, 181.1975
878.9332, 159.1190
879.4153, 146.3152
879.8974, 142.3326
880.3795, 138.4364
880.8616, 131.3467
881.3438, 123.8436
881.8259, 120.1472
882.3080, 118.8572
882.7901, 111.0732
883.2722, 96.30078
883.7543, 84.64441
884.2365, 78.21204
884.7186, 74.83728
885.2007, 74.17896
885.6828, 74.02454
886.1649, 67.93726
886.6470, 53.54736
887.1292, 41.43738
887.6113, 29.31213
888.0934, 24.25830
888.5755, 34.73694
889.0576, 47.80701
889.5397, 46.21240
890.0219, 30.68945
890.5040, 26.57349
890.9861, 49.06738
891.4682, 60.53101
891.9503, 45.07458
892.4324, 28.62329
892.9146, 30.09644
893.3967, 40.36389
893.8788, 41.13049
894.3609, 28.38354
894.8430, 17.28992
895.3251, 13.74451
895.8073, 11.92810
896.2894, 7.258057
896.7715, 3.710205
897.2536, 8.592285
897.7357, 19.31189
898.2178, 24.90454
898.7000, 18.62402
899.1821, 12.11792
899.6642, 18.78479
900.1463, 26.90613
900.6284, 17.48816
901.1105, 1.143799
901.5927, 5.454956
902.0748, 9.181396
902.5569, 23.73877
903.0390, 21.19592
903.5211, 10.79065
904.0032, 7.441895
904.4854, 8.729126
904.9675, 7.138062
905.4496, 2.290771
905.9317, 0.5554200
906.4138, 1.496338
906.8959, 6.271240
907.3781, 12.21094
907.8602, 18.10205
908.3423, 13.74817
908.8244, 0.5922850
909.3065, 12.12830
909.7886, 17.90039
910.2708, 16.95093
910.7529, 7.540283
911.2350, 7.417847
911.7171, 20.48718
912.1992, 32.93384
912.6814, 33.15479
913.1635, 15.91504
913.6456, 2.296143
914.1277, 1.911255
914.6099, 7.197754
915.0920, 9.373901
915.5741, 8.512207
916.0562, 6.525879
916.5383, 2.204834
917.0204, 0.9644780
917.5026, 5.458984
917.9847, 4.925537
918.4668, 11.57300
918.9489, 32.83447
919.4310, 34.75439
919.9131, 11.71985
920.3953, 3.098267
920.8774, 3.714233
921.3595, 2.200806
921.8416, 0.9456790
922.3237, 0.5247800
922.8058, 1.753296
923.2880, 3.677246
923.7701, 9.858765
924.2522, 24.70422
924.7343, 33.55811
925.2164, 25.20691
925.6985, 17.39575
926.1807, 22.12231
926.6628, 32.43152
927.1449, 39.24878
927.6270, 41.56750
928.1091, 43.39233
928.5912, 46.37781
929.0734, 49.35083
929.5555, 50.49805
930.0376, 52.17493
930.5197, 57.26453
931.0018, 64.56250
931.4839, 73.89441
931.9661, 84.37231
932.4482, 85.41052
932.9303, 60.15088
933.4124, 30.84912
933.8945, 19.50464
934.3766, 19.78967
934.8588, 23.06543
935.3409, 27.82812
935.8230, 37.08386
936.3051, 52.67346
936.7872, 62.44568
937.2693, 44.83020
937.7515, 17.68835
938.2336, 14.92969
938.7157, 29.88452
939.1978, 44.53015
939.6799, 53.58044
940.1620, 51.80444
940.6442, 34.06458
941.1263, 11.88989
941.6084, 4.750122
942.0905, 8.831421
942.5726, 11.87158
943.0547, 13.15076
943.5369, 12.62183
944.0190, 10.28772
944.5011, 7.044189
944.9832, 3.180054
945.4653, 0.3892820
945.9474, 0.7652590
946.4296, 6.157715
946.9117, 6.283325
947.3938, 5.6519002E-02
947.8759, 6.906616
948.3580, 12.36182
948.8401, 14.88745
949.3223, 12.11316
949.8044, 5.064575
950.2865, 0.7825930
950.7686, 0.4672850
951.2507, 2.444214
951.7328, 5.700439
952.2150, 10.02173
952.6971, 16.42578
953.1792, 21.03845
953.6613, 15.66333
954.1434, 0.4172360
954.6255, 9.347900
955.1077, 9.885742
955.5898, 7.614624
956.0719, 3.012573
956.5540, 2.912476
957.0361, 11.10852
957.5182, 18.58899
958.0004, 15.56885
958.4825, 4.120850
958.9646, 7.195068
959.4467, 17.89124
959.9288, 34.57092
960.4109, 28.15369
960.8931, 15.16663
961.3752, 8.900146
961.8573, 8.675171
962.3394, 12.13977
962.8215, 25.86060
963.3036, 28.81262
963.7858, 9.525269
964.2679, 4.142700
964.7500, 2.469238
965.2321, 15.21387
965.7142, 17.99768
966.1964, 11.94128
966.6785, 10.64197
967.1606, 15.48499
967.6427, 21.68201
968.1248, 37.95654
968.6069, 46.64575
969.0891, 31.35608
969.5712, 8.267456
970.0533, 0.8402100
970.5354, 4.808594
971.0175, 12.35779
971.4996, 26.85364
971.9818, 34.37366
972.4639, 26.98462
972.9460, 18.09814
973.4281, 14.20105
973.9102, 14.42468
974.3923, 17.78125
974.8745, 24.36401
975.3566, 29.23669
975.8387, 28.88623
976.3208, 31.07886
976.8029, 43.18958
977.2850, 53.05334
977.7672, 45.81287
978.2493, 31.49487
978.7314, 34.29675
979.2135, 61.04333
979.6956, 76.46008
980.1777, 62.64941
980.6599, 47.63184
981.1420, 40.48291
981.6241, 38.24146
982.1062, 40.91919
982.5883, 45.23962
983.0704, 42.55432
983.5526, 27.94446
984.0347, 24.32532
984.5168, 52.48816
984.9989, 76.75806
985.4810, 79.83960
985.9631, 70.79346
986.4453, 52.80750
986.9274, 31.52795
987.4095, 20.39685
987.8916, 24.01343
988.3737, 32.70154
988.8558, 50.03613
989.3380, 63.20813
989.8201, 64.15942
990.3022, 57.44519
990.7843, 45.46777
991.2664, 30.98438
991.7485, 20.17236
992.2307, 14.35803
992.7128, 13.99976
993.1949, 23.82886
993.6770, 34.31262
994.1591, 37.76587
994.6412, 39.15662
995.1234, 45.55078
995.6055, 56.71558
996.0876, 67.05945
996.5697, 74.43542
997.0518, 81.24585
997.5339, 91.14172
998.0161, 98.44531
998.4982, 96.64307
998.9803, 91.06262
999.4624, 90.13867
999.9445, 93.64978
1000.427, 93.57751
1000.909, 86.52380
1001.391, 76.16443
1001.873, 51.17944
1002.355, 36.90686
1002.837, 67.76221
1003.319, 112.7909
1003.801, 123.1993
1004.284, 98.33801
1004.766, 83.08655
1005.248, 102.0634
1005.730, 117.7778
1006.212, 105.9087
1006.694, 91.27808
1007.176, 97.56531
1007.658, 111.3149
1008.141, 107.8936
1008.623, 86.72620
1009.105, 72.23401
1009.587, 76.63892
1010.069, 84.22107
1010.551, 91.16638
1011.033, 95.21680
1011.515, 92.20801
1011.997, 86.31311
1012.480, 83.20923
1012.962, 83.98950
1013.444, 86.61890
1013.926, 91.74292
1014.408, 96.30200
1014.890, 100.7125
1015.372, 102.3042
1015.854, 94.74817
1016.336, 85.15112
1016.819, 86.98364
1017.301, 100.4635
1017.783, 107.0553
1018.265, 94.73193
1018.747, 83.71204
1019.229, 84.50354
1019.711, 86.08069
1020.193, 77.30359
1020.676, 66.59363
1021.158, 68.30859
1021.640, 82.65271
1022.122, 94.23132
1022.604, 103.1216
1023.086, 102.8540
1023.568, 79.44482
1024.050, 57.40698
1024.532, 58.02380
1025.015, 67.79578
1025.497, 61.74133
1025.979, 40.88086
1026.461, 39.78113
1026.943, 88.55164
1027.425, 122.6655
1027.907, 118.6921
1028.389, 105.2483
1028.871, 93.00256
1029.354, 84.08435
1029.836, 80.08984
1030.318, 81.05615
1030.800, 86.29736
1031.282, 96.98389
1031.764, 105.8024
1032.246, 116.7327
1032.728, 122.8433
1033.211, 118.2271
1033.693, 109.7594
1034.175, 103.3552
1034.657, 98.42188
1035.139, 96.44458
1035.621, 102.6665
1036.103, 107.1970
1036.585, 106.1965
1037.068, 107.6086
1037.550, 122.5359
1038.032, 136.5374
1038.514, 125.2964
1038.996, 92.45728
1039.478, 83.74976
1039.960, 123.6074
1040.442, 149.3059
1040.924, 152.7212
1041.406, 153.5022
1041.889, 159.1389
1042.371, 164.2466
1042.853, 162.3198
1043.335, 155.0334
1043.817, 151.0139
1044.299, 150.3000
1044.781, 152.5234
1045.263, 160.1641
1045.746, 166.0962
1046.228, 167.5437
1046.710, 167.7661
1047.192, 171.3291
1047.674, 175.0935
1048.156, 166.7498
1048.638, 140.8596
1049.120, 126.2734
1049.603, 127.1926
1050.085, 125.5354
1050.567, 113.9324
1051.049, 105.6946
1051.531, 113.9744
1052.013, 129.8599
1052.495, 127.3008
1052.977, 102.9624
1053.459, 102.7292
1053.942, 132.1531
1054.424, 145.1492
1054.906, 128.0950
1055.388, 110.0305
1055.870, 112.1816
1056.352, 122.5679
1056.834, 114.6680
1057.316, 90.90869
1057.798, 89.02246
1058.281, 108.5659
1058.763, 130.8843
1059.245, 152.3369
1059.727, 153.7871
1060.209, 122.2144
1060.691, 82.81396
1061.173, 73.06421
1061.655, 86.15161
1062.138, 102.5591
1062.620, 119.6533
1063.102, 122.5964
1063.584, 110.0427
1064.066, 88.07983
1064.548, 59.67896
1065.030, 40.85278
1065.512, 56.81055
1065.995, 87.44849
1066.477, 91.28906
1066.959, 77.37280
1067.441, 65.86279
1067.923, 58.83301
1068.405, 53.49927
1068.887, 48.71777
1069.369, 43.44043
1069.851, 34.46362
1070.333, 28.40869
1070.816, 36.19116
1071.298, 49.49390
1071.780, 57.61890
1072.262, 60.55151
1072.744, 59.87427
1073.226, 56.48828
1073.708, 53.20361
1074.190, 52.50342
1074.673, 51.31201
1075.155, 45.12012
1075.637, 38.60669
1076.119, 35.76416
1076.601, 36.17871
1077.083, 41.62988
1077.565, 50.04370
1078.047, 50.89746
1078.530, 37.17944
1079.012, 23.58008
1079.494, 16.92773
1079.976, 11.44775
1080.458, 2.107422
1080.940, 11.81201
1081.422, 0.6413570
1081.904, 28.70190
1082.386, 46.22754
1082.869, 47.93652
1083.351, 42.52295
1083.833, 21.20850
1084.315, 7.037109
1084.797, 13.76318
1085.279, 24.28223
1085.761, 25.88379
1086.243, 21.25562
1086.726, 16.92627
1087.208, 13.31348
1087.690, 6.834717
1088.172, 11.03662
1088.654, 12.76245
1089.136, 18.53979
1089.618, 43.00464
1090.100, 36.51001
1090.583, 12.84961
1091.065, 10.34399
1091.547, 31.88794
1092.029, 31.59253
1092.511, 3.831543
1092.993, 11.17358
1093.475, 7.865967
1093.957, 1.910645
1094.439, 4.1499999E-03
1094.922, 4.092041
1095.404, 19.55420
1095.886, 37.15625
1096.368, 22.41968
1096.850, 19.97803
1097.332, 43.42456
1097.814, 47.12207
1098.296, 49.07153
1098.778, 54.56348
1099.261, 62.09644
1099.743, 71.00806
1100.225, 79.03052
1100.707, 79.07715
1101.189, 77.57422
1101.671, 92.33081
1102.153, 116.8630
1102.635, 131.8977
1103.118, 136.6040
1103.600, 147.6240
1104.082, 165.9792
1104.564, 190.7439
1105.046, 223.8113
1105.528, 259.8511
1106.010, 294.0837
1106.492, 327.1755
1106.974, 353.5112
1107.457, 381.0283
1107.939, 433.4487
1108.421, 514.6812
1108.903, 581.1521
1109.385, 606.2307
1109.867, 621.5132
1110.349, 643.9797
1110.831, 655.9475
1111.313, 642.6406
1111.796, 613.9956
1112.278, 581.1421
1112.760, 544.9771
1113.242, 507.5317
1113.724, 464.5061
1114.206, 431.0664
1114.688, 419.2080
1115.170, 402.1582
1115.653, 365.3157
1116.135, 329.2004
1116.617, 315.8123
1117.099, 312.2961
1117.581, 278.9849
1118.063, 206.5532
1118.545, 170.6724
1119.027, 182.7507
1119.510, 184.6379
1119.992, 161.5557
1120.474, 137.3318
1120.956, 124.0408
1121.438, 119.7781
1121.920, 113.3452
1122.402, 103.2314
1122.884, 93.43555
1123.366, 86.24658
1123.849, 76.64453
1124.331, 65.48633
1124.813, 67.30029
1125.295, 95.95068
1125.777, 121.0024
1126.259, 115.2915
1126.741, 95.73047
1127.223, 69.47998
1127.705, 44.49316
1128.188, 53.39209
1128.670, 77.76904
1129.152, 90.22314
1129.634, 78.81445
1130.116, 70.19092
1130.598, 78.37598
1131.080, 80.29883
1131.562, 48.34131
1132.045, 20.68115
1132.527, 30.31201
1133.009, 52.45215
1133.491, 64.45898
1133.973, 65.24268
1134.455, 55.92529
1134.937, 35.75488
1135.419, 30.66602
1135.901, 60.61133
1136.384, 83.58447
1136.866, 93.31348
1137.348, 92.72363
1137.830, 77.24219
1138.312, 57.73682
1138.794, 43.15332
1139.276, 35.16553
1139.758, 42.59717
1140.240, 70.71924
1140.723, 101.6914
1141.205, 141.8574
1141.687, 153.8340
1142.169, 123.0464
1142.651, 89.13672
1143.133, 81.50635
1143.615, 89.72168
1144.097, 94.40234
1144.580, 95.60889
1145.062, 105.7622
1145.544, 117.6011
1146.026, 100.5938
1146.508, 56.00439
1146.990, 25.42822
1147.472, 24.57910
1147.954, 44.60498
1148.437, 92.11084
1148.919, 136.3916
1149.401, 132.6948
1149.883, 105.2446
1150.365, 83.99707
1150.847, 69.48389
1151.329, 50.06104
1151.811, 25.90576
1152.293, 7.080078
1152.776, 3.642090
1153.258, 4.794922
1153.740, 14.51514
1154.222, 27.45117
1154.704, 20.94727
1155.186, 13.42285
1155.668, 25.36230
1156.150, 45.78760
1156.632, 46.73535
1157.115, 20.52441
1157.597, 13.67188
1158.079, 24.01904
1158.561, 27.30908
1159.043, 19.60742
1159.525, 10.90674
1160.007, 4.178711
1160.489, 0.0000000E+00
##END=



