##NAMES=Jeremejevite
##RRUFFID=R060617
##IDEAL CHEMISTRY=Al_6_(BO_3_)_5_F_3_
##LOCALITY=Ameib Farm, Usakos, Karibib District, Erongo Region, Namibia
##OWNER=RRUFF
##SOURCE=Michael Scott
##DESCRIPTION=Very pale blue hexagonal prism
##STATUS=The identification of this mineral is confirmed by single-crystal X-ray diffraction and chemical analysis.
##URL=rruff.info/R060617
##MEASURED CHEMISTRY=(Al_5.99_Fe^3+^_0.01_)_Σ=6_(BO_3_)_5_(F_2.85_(OH)_0.15_)_Σ=3_ ; B and H not measured but estimated by difference and charge balance
93.97052, 0.0000000E+00
94.45264, 1.198364
94.93475, 3.248596
95.41687, 4.913452
95.89898, 3.991272
96.38110, 2.730408
96.86321, 3.635254
97.34533, 4.389587
97.82745, 4.550415
98.30956, 3.867279
98.79168, 1.070465
99.27380, 0.2999880
99.75591, 6.4269997E-02
100.2380, 1.077484
100.7201, 1.929108
101.2023, 1.697845
101.6844, 1.005096
102.1665, 0.7974550
102.6486, 0.9827880
103.1307, 1.465790
103.6128, 1.353882
104.0950, 0.3411870
104.5771, 0.2460630
105.0592, 0.4289250
105.5413, 1.900360
106.0234, 3.622192
106.5055, 5.229004
106.9877, 6.850342
107.4698, 8.969025
107.9519, 12.88885
108.4340, 15.30411
108.9161, 14.44400
109.3982, 11.07935
109.8804, 7.180237
110.3625, 4.316925
110.8446, 2.588623
111.3267, 1.429749
111.8088, 0.5133360
112.2909, 0.1683650
112.7731, 0.9193120
113.2552, 2.720215
113.7373, 4.927734
114.2194, 6.591736
114.7015, 7.280426
115.1836, 8.014130
115.6658, 8.975555
116.1479, 9.755737
116.6300, 9.967072
117.1121, 9.551483
117.5942, 8.855011
118.0763, 8.508240
118.5584, 8.736542
119.0406, 8.890045
119.5227, 8.651764
120.0048, 8.160583
120.4869, 7.728699
120.9690, 7.286102
121.4511, 7.487793
121.9333, 8.700073
122.4154, 10.85132
122.8975, 13.53635
123.3796, 16.05789
123.8617, 18.34387
124.3438, 19.53906
124.8260, 18.93494
125.3081, 17.40222
125.7902, 15.58755
126.2723, 13.60953
126.7544, 11.59613
127.2365, 10.04132
127.7187, 8.977997
128.2008, 8.500305
128.6829, 8.860626
129.1650, 9.657928
129.6471, 10.39075
130.1292, 10.75735
130.6114, 10.77124
131.0935, 10.61246
131.5756, 10.24805
132.0577, 9.721619
132.5398, 8.946136
133.0219, 8.000336
133.5041, 7.052704
133.9862, 6.237152
134.4683, 5.555878
134.9504, 5.001038
135.4325, 4.601288
135.9146, 4.271362
136.3968, 3.856567
136.8789, 3.382874
137.3610, 3.142029
137.8431, 3.529388
138.3252, 4.692749
138.8073, 5.838379
139.2895, 7.154358
139.7716, 8.344299
140.2537, 8.986938
140.7358, 8.922791
141.2179, 8.568695
141.7000, 8.561279
142.1821, 8.882660
142.6643, 8.855804
143.1464, 7.992981
143.6285, 6.508118
144.1106, 5.159058
144.5927, 4.104858
145.0748, 3.266449
145.5570, 2.545959
146.0391, 1.985535
146.5212, 1.544891
147.0033, 1.282684
147.4854, 1.223969
147.9675, 0.9152530
148.4497, 0.1590580
148.9318, 1.269684
149.4139, 1.963470
149.8960, 2.163361
150.3781, 2.179749
150.8602, 2.556152
151.3424, 3.553772
151.8245, 3.083771
152.3066, 2.519409
152.7887, 1.789337
153.2708, 0.8322750
153.7529, 0.3738710
154.2351, 1.786774
154.7172, 3.306488
155.1993, 4.548157
155.6814, 6.466675
156.1635, 9.407806
156.6456, 12.92455
157.1278, 16.46100
157.6099, 19.78561
158.0920, 23.04721
158.5741, 26.87076
159.0562, 32.07729
159.5383, 36.82916
160.0205, 40.74080
160.5026, 43.86484
160.9847, 46.26863
161.4668, 47.85400
161.9489, 48.77435
162.4310, 49.83897
162.9131, 50.80769
163.3953, 52.18448
163.8774, 54.04019
164.3595, 56.41927
164.8416, 59.81120
165.3237, 64.87605
165.8058, 71.19446
166.2880, 77.60977
166.7701, 83.86682
167.2522, 90.28952
167.7343, 97.20465
168.2164, 104.6045
168.6985, 112.4449
169.1807, 119.6538
169.6628, 127.4499
170.1449, 137.6836
170.6270, 151.0826
171.1091, 167.3342
171.5912, 185.2672
172.0734, 203.2054
172.5555, 226.5357
173.0376, 253.3239
173.5197, 286.4254
174.0018, 329.3887
174.4839, 382.3084
174.9661, 446.8127
175.4482, 532.4343
175.9303, 640.8365
176.4124, 773.1850
176.8945, 958.5675
177.3766, 1165.925
177.8588, 1348.095
178.3409, 1478.198
178.8230, 1556.574
179.3051, 1529.682
179.7872, 1311.458
180.2693, 1073.802
180.7515, 843.8735
181.2336, 633.9230
181.7157, 457.9908
182.1978, 329.0559
182.6799, 250.7306
183.1620, 191.5117
183.6441, 155.1219
184.1263, 129.4582
184.6084, 111.2914
185.0905, 99.30331
185.5726, 91.43159
186.0547, 85.98480
186.5368, 83.26289
187.0190, 83.11450
187.5011, 85.10765
187.9832, 89.76505
188.4653, 97.38586
188.9474, 107.9934
189.4296, 121.9151
189.9117, 141.0952
190.3938, 165.2515
190.8759, 186.3512
191.3580, 208.6912
191.8401, 225.0714
192.3223, 226.0910
192.8044, 209.4268
193.2865, 183.8748
193.7686, 152.3196
194.2507, 117.1245
194.7328, 86.96437
195.2150, 65.08020
195.6971, 49.84158
196.1792, 38.38695
196.6613, 31.24527
197.1434, 26.47899
197.6255, 23.00626
198.1077, 20.55524
198.5898, 18.65373
199.0719, 17.10336
199.5540, 15.90175
200.0361, 15.06732
200.5182, 14.67067
201.0004, 14.58897
201.4825, 14.71980
201.9646, 15.05435
202.4467, 15.58134
202.9288, 16.21573
203.4109, 16.97845
203.8930, 18.21880
204.3752, 19.57083
204.8573, 21.92905
205.3394, 25.61823
205.8215, 30.53088
206.3036, 36.46028
206.7857, 43.58646
207.2679, 52.06696
207.7500, 59.23535
208.2321, 67.85181
208.7142, 72.45302
209.1963, 69.80392
209.6784, 61.27179
210.1606, 50.24377
210.6427, 39.28799
211.1248, 28.22110
211.6069, 19.68163
212.0890, 14.37285
212.5711, 10.59056
213.0533, 8.056961
213.5354, 6.537796
214.0175, 5.692169
214.4996, 5.283875
214.9817, 5.420212
215.4638, 5.171844
215.9460, 4.141785
216.4281, 3.171402
216.9102, 2.625000
217.3923, 2.526413
217.8744, 2.722733
218.3565, 3.100449
218.8387, 3.672745
219.3208, 4.489441
219.8029, 5.831116
220.2850, 7.162506
220.7671, 8.111267
221.2492, 8.690979
221.7314, 9.193039
222.2135, 9.810455
222.6956, 10.57077
223.1777, 11.65857
223.6598, 13.27190
224.1419, 15.06183
224.6240, 16.56160
225.1062, 17.79558
225.5883, 19.48209
226.0704, 22.13087
226.5525, 25.82297
227.0346, 30.44051
227.5167, 35.20068
227.9989, 41.37192
228.4810, 49.81464
228.9631, 60.53015
229.4452, 74.01132
229.9273, 92.10501
230.4094, 113.2886
230.8916, 133.4357
231.3737, 157.9091
231.8558, 177.6328
232.3379, 181.1067
232.8200, 167.0408
233.3021, 145.7184
233.7843, 117.8092
234.2664, 87.65523
234.7485, 62.00180
235.2306, 42.71193
235.7127, 28.51935
236.1948, 18.18231
236.6770, 12.13911
237.1591, 7.958984
237.6412, 5.134460
238.1233, 3.228317
238.6054, 1.931427
239.0875, 1.302139
239.5697, 1.021973
240.0518, 0.5803990
240.5339, 0.1015780
241.0160, 0.6959990
241.4981, 0.9924930
241.9802, 1.179825
242.4624, 1.461472
242.9445, 1.938385
243.4266, 2.433441
243.9087, 2.624634
244.3908, 2.422424
244.8729, 2.152344
245.3550, 1.811356
245.8372, 1.495102
246.3193, 1.291336
246.8014, 1.231812
247.2835, 1.274094
247.7656, 1.379715
248.2477, 1.639328
248.7299, 1.733963
249.2120, 1.528717
249.6941, 1.207626
250.1762, 0.9053650
250.6583, 0.6625210
251.1404, 0.4313050
251.6226, 0.1217800
252.1047, 0.3163910
252.5868, 0.7199710
253.0689, 1.139755
253.5510, 1.487411
254.0331, 1.629150
254.5153, 1.558777
254.9974, 1.465775
255.4795, 1.629211
255.9616, 2.047302
256.4437, 2.789551
256.9258, 3.999527
257.4080, 5.361588
257.8901, 6.647949
258.3722, 7.831619
258.8543, 9.076828
259.3364, 10.58672
259.8185, 12.33847
260.3007, 14.47223
260.7828, 16.86546
261.2649, 19.65831
261.7470, 22.74982
262.2291, 26.24289
262.7112, 30.42380
263.1934, 35.51241
263.6755, 41.09772
264.1576, 49.40421
264.6397, 60.42274
265.1218, 73.50665
265.6039, 89.33490
266.0861, 107.2197
266.5682, 125.4835
267.0503, 143.2198
267.5324, 161.6077
268.0145, 170.0380
268.4966, 164.8981
268.9788, 155.3991
269.4609, 144.0750
269.9430, 132.0162
270.4251, 120.9830
270.9072, 112.7954
271.3893, 107.7242
271.8715, 98.73616
272.3536, 83.40955
272.8357, 67.48676
273.3178, 52.21747
273.7999, 38.22813
274.2820, 26.69664
274.7642, 18.54678
275.2463, 13.58220
275.7284, 9.726898
276.2105, 6.985489
276.6926, 5.016937
277.1747, 3.945145
277.6568, 3.558212
278.1389, 3.437881
278.6211, 3.366272
279.1032, 3.368149
279.5853, 3.578857
280.0674, 3.936722
280.5495, 4.522903
281.0316, 5.346863
281.5138, 6.418777
281.9959, 7.713776
282.4780, 9.186829
282.9601, 10.95615
283.4422, 13.34143
283.9243, 16.29909
284.4065, 19.81172
284.8886, 23.79633
285.3707, 28.41660
285.8528, 33.76181
286.3349, 39.82132
286.8170, 46.90472
287.2992, 55.91183
287.7813, 67.32852
288.2634, 78.66376
288.7455, 91.02670
289.2276, 102.4209
289.7097, 110.6990
290.1919, 115.4165
290.6740, 116.3414
291.1561, 112.2795
291.6382, 102.5452
292.1203, 92.73367
292.6024, 82.42047
293.0846, 72.84482
293.5667, 65.03802
294.0488, 59.11311
294.5309, 55.02441
295.0130, 52.91521
295.4951, 52.94038
295.9773, 53.84338
296.4594, 55.39029
296.9415, 57.95085
297.4236, 61.82390
297.9057, 66.99451
298.3878, 73.38695
298.8700, 81.27945
299.3521, 90.44945
299.8342, 99.06131
300.3163, 108.6417
300.7984, 116.2322
301.2805, 120.9735
301.7627, 122.5690
302.2448, 119.6634
302.7269, 110.8698
303.2090, 97.30472
303.6911, 82.68759
304.1732, 65.44626
304.6554, 49.60838
305.1375, 36.66687
305.6196, 26.45682
306.1017, 18.67763
306.5838, 13.40425
307.0659, 10.26227
307.5481, 8.828903
308.0302, 9.206024
308.5123, 10.18175
308.9944, 11.38940
309.4765, 12.93959
309.9586, 15.15311
310.4408, 18.20264
310.9229, 21.46559
311.4050, 24.02335
311.8871, 25.86833
312.3692, 27.81558
312.8513, 29.95093
313.3335, 32.30222
313.8156, 34.82466
314.2977, 37.49451
314.7798, 40.63269
315.2619, 44.57751
315.7440, 49.34938
316.2262, 54.59326
316.7083, 59.88322
317.1904, 65.92082
317.6725, 73.38052
318.1546, 82.26340
318.6367, 91.83215
319.1188, 101.3732
319.6010, 111.3375
320.0831, 123.3280
320.5652, 136.7054
321.0473, 152.6781
321.5294, 171.1632
322.0115, 192.5605
322.4937, 218.5099
322.9758, 249.3427
323.4579, 285.7005
323.9400, 328.1086
324.4221, 376.1458
324.9042, 429.5618
325.3864, 492.0004
325.8685, 559.3155
326.3506, 627.1390
326.8327, 696.2850
327.3148, 757.8537
327.7969, 799.4899
328.2791, 824.8234
328.7612, 821.0844
329.2433, 775.7681
329.7254, 704.5936
330.2075, 619.5329
330.6896, 522.6345
331.1718, 427.1125
331.6539, 344.4537
332.1360, 276.1718
332.6181, 218.7027
333.1002, 174.6804
333.5823, 139.7420
334.0645, 112.1862
334.5466, 91.47620
335.0287, 74.86351
335.5108, 60.95381
335.9929, 49.75081
336.4750, 40.59390
336.9572, 34.05835
337.4393, 28.57343
337.9214, 23.69635
338.4035, 19.35072
338.8856, 15.45487
339.3677, 11.97931
339.8499, 8.908676
340.3320, 6.274765
340.8141, 4.140472
341.2962, 2.245178
341.7783, 0.4618380
342.2604, 1.083420
342.7426, 2.151016
343.2247, 2.667892
343.7068, 2.894745
344.1889, 3.175781
344.6710, 3.542526
345.1531, 3.868118
345.6353, 4.306824
346.1174, 4.591721
346.5995, 4.432434
347.0816, 3.852798
347.5637, 3.198990
348.0458, 2.828995
348.5280, 2.771072
349.0101, 2.163330
349.4922, 1.209290
349.9743, 0.3819270
350.4564, 2.825607
350.9385, 5.998093
351.4207, 9.540573
351.9028, 13.16937
352.3849, 17.12976
352.8670, 22.59953
353.3491, 30.39340
353.8312, 38.65559
354.3134, 47.88455
354.7955, 57.17577
355.2776, 65.68695
355.7597, 73.08838
356.2418, 79.30936
356.7239, 84.16241
357.2061, 86.43227
357.6882, 89.80893
358.1703, 94.21954
358.6524, 99.66797
359.1345, 105.9736
359.6166, 113.2445
360.0987, 121.7935
360.5808, 131.9147
361.0630, 143.5684
361.5451, 157.3351
362.0272, 173.0097
362.5093, 190.7811
362.9914, 209.9885
363.4735, 231.4945
363.9557, 256.0619
364.4378, 283.9844
364.9199, 315.9642
365.4020, 354.7158
365.8841, 396.6382
366.3662, 451.9275
366.8484, 517.0423
367.3305, 597.1770
367.8126, 695.9345
368.2947, 814.4465
368.7768, 954.7761
369.2589, 1122.544
369.7411, 1323.535
370.2232, 1537.103
370.7053, 1805.596
371.1874, 2050.549
371.6695, 2260.989
372.1516, 2416.535
372.6338, 2474.744
373.1159, 2385.207
373.5980, 2151.789
374.0801, 1886.203
374.5622, 1539.715
375.0443, 1221.319
375.5265, 959.1404
376.0086, 747.3851
376.4907, 580.2159
376.9728, 456.6968
377.4549, 368.4516
377.9370, 298.5282
378.4192, 250.0053
378.9013, 211.5881
379.3834, 184.0079
379.8655, 162.7410
380.3476, 145.4928
380.8297, 131.7500
381.3119, 120.2480
381.7940, 110.2498
382.2761, 101.7031
382.7582, 93.38208
383.2403, 85.09421
383.7224, 77.10004
384.2046, 69.40259
384.6867, 62.09358
385.1688, 55.24590
385.6509, 48.94649
386.1330, 43.18250
386.6151, 37.84645
387.0973, 32.90678
387.5794, 28.59286
388.0615, 25.16042
388.5436, 22.42233
389.0257, 20.19331
389.5078, 18.45438
389.9900, 17.21071
390.4721, 16.50410
390.9542, 16.31714
391.4363, 16.54530
391.9184, 17.20035
392.4005, 18.21443
392.8827, 19.44527
393.3648, 20.86443
393.8469, 22.63214
394.3290, 24.80602
394.8111, 27.36664
395.2932, 30.51971
395.7754, 34.40820
396.2575, 37.99103
396.7396, 40.61778
397.2217, 42.13895
397.7038, 42.13893
398.1859, 39.90822
398.6681, 36.75383
399.1501, 32.93823
399.6323, 28.79303
400.1144, 25.29544
400.5965, 22.94179
401.0786, 21.59727
401.5607, 20.95093
402.0428, 21.08635
402.5250, 21.61137
403.0071, 22.42024
403.4892, 23.59998
403.9713, 25.22888
404.4534, 27.34720
404.9355, 30.02499
405.4177, 33.28558
405.8998, 37.03053
406.3819, 41.87885
406.8640, 48.51526
407.3461, 55.49181
407.8282, 62.30444
408.3104, 68.84193
408.7925, 75.18808
409.2746, 81.47467
409.7567, 87.60077
410.2388, 93.20006
410.7209, 97.66394
411.2031, 102.3536
411.6852, 106.7859
412.1673, 111.8061
412.6494, 117.8232
413.1315, 125.1001
413.6136, 134.3165
414.0958, 146.3844
414.5779, 161.5581
415.0600, 178.8575
415.5421, 200.8685
416.0242, 222.5707
416.5063, 244.1550
416.9885, 263.9598
417.4706, 278.7719
417.9527, 287.1223
418.4348, 288.6522
418.9169, 281.7224
419.3990, 264.6250
419.8812, 242.6180
420.3633, 213.9527
420.8454, 183.3802
421.3275, 154.7954
421.8096, 129.1086
422.2917, 106.4825
422.7739, 87.38124
423.2560, 71.78423
423.7381, 58.39717
424.2202, 47.12807
424.7023, 38.12947
425.1844, 31.72621
425.6666, 27.47687
426.1487, 23.79324
426.6308, 20.10162
427.1129, 16.54741
427.5950, 13.24733
428.0771, 10.15564
428.5593, 7.793701
429.0414, 6.726288
429.5235, 6.479141
430.0056, 5.875381
430.4877, 4.710876
430.9698, 3.648254
431.4520, 3.169312
431.9341, 3.005539
432.4162, 2.548660
432.8983, 1.615036
433.3804, 0.6455990
433.8625, 0.2161870
434.3447, 0.4307710
434.8268, 0.3264010
435.3089, 0.4489290
435.7910, 1.280869
436.2731, 1.771790
436.7552, 1.960144
437.2374, 2.057434
437.7195, 2.181076
438.2016, 2.316910
438.6837, 2.403442
439.1658, 2.486298
439.6479, 2.458344
440.1301, 2.156555
440.6122, 1.827484
441.0943, 1.726715
441.5764, 1.890915
442.0585, 2.162476
442.5406, 2.398270
443.0227, 2.638351
443.5049, 2.552460
443.9870, 1.801331
444.4691, 1.069687
444.9512, 0.5679470
445.4333, 0.2280120
445.9154, 8.6410999E-02
446.3976, 0.4414670
446.8797, 0.8133090
447.3618, 1.162277
447.8439, 1.514847
448.3260, 1.763092
448.8081, 1.602249
449.2903, 1.540451
449.7724, 1.895828
450.2545, 2.686615
450.7366, 3.749786
451.2187, 5.095657
451.7008, 6.637329
452.1830, 7.883255
452.6651, 8.591553
453.1472, 9.575516
453.6293, 11.51474
454.1114, 13.98802
454.5935, 16.41144
455.0757, 18.50752
455.5578, 20.81604
456.0399, 23.67168
456.5220, 27.08922
457.0041, 31.27658
457.4862, 36.46194
457.9684, 42.09845
458.4505, 47.78180
458.9326, 53.56297
459.4147, 58.34805
459.8968, 62.65968
460.3789, 65.35612
460.8611, 65.29636
461.3432, 62.59550
461.8253, 58.00648
462.3074, 51.66167
462.7895, 44.07216
463.2716, 37.20227
463.7538, 31.02390
464.2359, 25.53674
464.7180, 20.59572
465.2001, 16.37192
465.6822, 13.13622
466.1643, 10.88107
466.6465, 9.320999
467.1286, 8.180161
467.6107, 7.472916
468.0928, 6.955490
468.5749, 6.682022
469.0570, 6.545319
469.5392, 6.607864
470.0213, 6.767746
470.5034, 6.864487
470.9855, 6.822128
471.4676, 6.764145
471.9497, 6.888885
472.4319, 7.192062
472.9140, 7.696686
473.3961, 8.449417
473.8782, 9.387268
474.3603, 10.45587
474.8424, 11.66878
475.3246, 13.11642
475.8067, 15.01598
476.2888, 17.12187
476.7709, 18.78566
477.2530, 19.87778
477.7351, 21.31581
478.2173, 23.64586
478.6994, 26.54231
479.1815, 29.41628
479.6636, 32.17604
480.1457, 35.14873
480.6278, 38.69562
481.1100, 42.51540
481.5920, 46.20929
482.0742, 49.72697
482.5563, 52.73537
483.0384, 55.04756
483.5205, 56.57764
484.0026, 56.94263
484.4847, 55.91660
484.9669, 54.06058
485.4490, 51.16225
485.9311, 47.66861
486.4132, 44.28035
486.8953, 41.25049
487.3774, 38.48892
487.8596, 35.85933
488.3417, 33.24774
488.8238, 31.06107
489.3059, 29.07837
489.7880, 27.65076
490.2701, 27.26381
490.7523, 27.56326
491.2344, 27.77696
491.7165, 27.43539
492.1986, 26.78107
492.6807, 26.40262
493.1628, 26.35242
493.6450, 26.27475
494.1271, 26.10002
494.6092, 25.93254
495.0913, 25.94684
495.5734, 26.09842
496.0555, 26.01085
496.5377, 25.00758
497.0198, 23.61801
497.5019, 23.43591
497.9840, 24.74500
498.4661, 26.20227
498.9482, 27.00365
499.4304, 27.45180
499.9125, 28.13298
500.3946, 29.02998
500.8767, 30.27650
501.3588, 31.97816
501.8409, 34.15295
502.3231, 36.86079
502.8052, 40.09441
503.2873, 43.53983
503.7694, 46.85233
504.2515, 50.04543
504.7336, 53.78285
505.2158, 58.25670
505.6979, 62.99680
506.1800, 68.10356
506.6621, 73.26831
507.1442, 77.99065
507.6263, 82.11223
508.1085, 85.92284
508.5906, 89.89157
509.0727, 94.20673
509.5548, 97.99196
510.0369, 101.8372
510.5190, 104.5464
511.0012, 105.8157
511.4833, 105.5799
511.9654, 103.7750
512.4475, 100.3268
512.9296, 95.40694
513.4117, 89.05075
513.8939, 81.05037
514.3760, 72.96666
514.8581, 64.62924
515.3402, 56.81679
515.8223, 50.20392
516.3044, 44.69854
516.7866, 39.66023
517.2687, 34.70331
517.7508, 30.10916
518.2329, 26.26348
518.7150, 23.14877
519.1971, 20.46182
519.6793, 18.05863
520.1614, 15.99554
520.6435, 14.54080
521.1256, 13.86091
521.6077, 13.13283
522.0898, 12.03372
522.5720, 10.96446
523.0541, 10.37883
523.5362, 10.22228
524.0183, 10.01944
524.5004, 9.399055
524.9825, 8.496017
525.4647, 8.002205
525.9468, 8.210564
526.4289, 8.442757
526.9110, 8.627594
527.3931, 8.818497
527.8752, 9.013924
528.3574, 9.242905
528.8395, 9.607452
529.3216, 10.20383
529.8037, 11.01366
530.2858, 11.92587
530.7679, 12.90171
531.2501, 14.06748
531.7322, 15.64245
532.2143, 17.35625
532.6964, 18.94670
533.1785, 20.35882
533.6606, 21.74749
534.1428, 23.31432
534.6249, 24.91480
535.1070, 26.34026
535.5891, 27.58588
536.0712, 28.36525
536.5533, 28.45618
537.0355, 27.86638
537.5176, 26.83035
537.9997, 25.13409
538.4818, 23.29510
538.9639, 21.32028
539.4460, 19.33861
539.9282, 17.51952
540.4103, 15.89371
540.8924, 14.33736
541.3745, 12.71499
541.8566, 11.01840
542.3387, 9.531685
542.8209, 8.235641
543.3029, 7.209190
543.7850, 6.710907
544.2672, 6.375916
544.7493, 5.754715
545.2314, 4.740112
545.7135, 3.681488
546.1956, 2.977943
546.6777, 2.601181
547.1599, 2.274963
547.6420, 2.035385
548.1241, 1.740044
548.6062, 1.109756
549.0883, 0.4064870
549.5704, 0.1001510
550.0526, 0.4200520
550.5347, 0.8239820
551.0168, 1.022797
551.4989, 1.052734
551.9810, 0.9703290
552.4631, 0.7857360
552.9453, 0.5486600
553.4274, 0.2990110
553.9095, 3.5422999E-02
554.3916, 0.2214130
554.8737, 0.4186780
555.3558, 0.6735920
555.8380, 1.192253
556.3201, 1.710930
556.8022, 1.842728
557.2843, 1.519569
557.7664, 1.061287
558.2485, 0.8246150
558.7307, 0.8160480
559.2128, 0.8608860
559.6949, 1.022881
560.1770, 1.144882
560.6591, 1.153900
561.1412, 1.108322
561.6234, 1.068016
562.1055, 1.044250
562.5876, 1.062859
563.0697, 1.257195
563.5518, 1.519493
564.0339, 1.438606
564.5161, 0.9137650
564.9982, 0.3140950
565.4803, 0.1187060
565.9624, 0.4070280
566.4445, 0.6886670
566.9266, 1.041161
567.4088, 1.277802
567.8909, 1.193810
568.3730, 1.025307
568.8551, 1.088364
569.3372, 1.424896
569.8193, 1.839348
570.3015, 2.134064
570.7836, 2.325653
571.2657, 2.722954
571.7478, 3.480591
572.2299, 4.248795
572.7120, 4.996559
573.1942, 5.718002
573.6763, 6.377304
574.1584, 6.987389
574.6405, 7.648140
575.1226, 8.453659
575.6047, 9.383354
576.0869, 10.35722
576.5690, 11.37698
577.0511, 12.42812
577.5332, 13.50267
578.0153, 14.61147
578.4974, 15.81620
578.9796, 17.19054
579.4617, 18.29156
579.9438, 18.85500
580.4259, 19.12813
580.9080, 19.37714
581.3901, 19.61824
581.8723, 19.74134
582.3544, 19.65453
582.8365, 19.44192
583.3186, 19.39981
583.8007, 19.90862
584.2828, 19.99401
584.7650, 19.27941
585.2471, 18.46782
585.7292, 17.99184
586.2113, 17.84076
586.6934, 17.79890
587.1755, 17.72374
587.6577, 17.68811
588.1398, 17.86290
588.6219, 18.26031
589.1040, 18.79613
589.5861, 19.51959
590.0682, 20.30547
590.5504, 20.98837
591.0325, 21.59931
591.5146, 22.34748
591.9967, 23.42088
592.4788, 24.54832
592.9609, 25.52979
593.4431, 26.36711
593.9252, 27.05606
594.4073, 27.58306
594.8894, 28.05081
595.3715, 28.59140
595.8536, 29.19054
596.3358, 29.94423
596.8179, 30.82637
597.3000, 31.86567
597.7821, 33.06024
598.2642, 34.42664
598.7463, 35.92493
599.2285, 37.55608
599.7106, 39.52789
600.1927, 42.20221
600.6748, 45.56367
601.1569, 48.86655
601.6390, 51.87704
602.1212, 55.23520
602.6033, 59.56429
603.0854, 64.39702
603.5675, 68.97705
604.0496, 73.20353
604.5317, 77.26428
605.0139, 81.52605
605.4960, 85.58818
605.9781, 88.96359
606.4602, 91.55053
606.9423, 93.23972
607.4244, 93.97137
607.9066, 93.72707
608.3887, 92.34853
608.8708, 89.37215
609.3529, 85.82693
609.8350, 81.52876
610.3171, 76.88139
610.7993, 72.03660
611.2814, 67.09003
611.7635, 62.17238
612.2456, 57.31055
612.7277, 52.59415
613.2098, 48.12623
613.6920, 43.85546
614.1741, 39.96404
614.6562, 36.59314
615.1383, 33.55200
615.6204, 30.67754
616.1025, 27.92889
616.5847, 25.16931
617.0668, 21.92276
617.5489, 19.09158
618.0310, 17.49358
618.5131, 16.70499
618.9952, 15.90435
619.4774, 14.83584
619.9595, 13.59218
620.4416, 12.24050
620.9237, 10.73842
621.4058, 9.529007
621.8879, 8.990417
622.3701, 8.362267
622.8522, 7.270180
623.3343, 6.131668
623.8164, 5.418907
624.2985, 5.214714
624.7806, 5.130844
625.2628, 4.845528
625.7448, 4.407722
626.2269, 4.043556
626.7090, 3.778343
627.1912, 3.351723
627.6733, 2.481316
628.1554, 1.509605
628.6375, 1.312607
629.1196, 2.115067
629.6017, 2.544556
630.0839, 2.083275
630.5660, 1.463440
631.0481, 1.036949
631.5302, 0.8796920
632.0123, 1.204796
632.4944, 2.111229
632.9766, 3.028336
633.4587, 2.848885
633.9408, 1.270889
634.4229, 0.1398470
634.9050, 0.3746340
635.3871, 0.6004490
635.8693, 0.6439740
636.3514, 0.5358280
636.8335, 0.2834700
637.3156, 0.1520000
637.7977, 0.5411220
638.2798, 0.6629260
638.7620, 0.6420060
639.2441, 0.7511520
639.7262, 1.012878
640.2083, 1.172874
640.6904, 1.029755
641.1725, 0.7038120
641.6547, 0.5971600
642.1368, 0.8762890
642.6189, 1.141502
643.1010, 1.307190
643.5831, 1.533592
644.0652, 1.937065
644.5474, 2.487732
645.0295, 3.104103
645.5116, 3.750862
645.9937, 4.395424
646.4758, 4.940170
646.9579, 5.387321
647.4401, 6.007278
647.9222, 6.901138
648.4043, 7.841904
648.8864, 8.688080
649.3685, 9.443542
649.8506, 10.07973
650.3328, 10.39772
650.8149, 10.90253
651.2970, 12.06785
651.7791, 13.37519
652.2612, 14.16803
652.7433, 14.40791
653.2255, 14.44338
653.7076, 14.49538
654.1897, 14.62212
654.6718, 15.09097
655.1539, 16.11805
655.6360, 16.95773
656.1182, 17.57806
656.6003, 17.91083
657.0824, 17.62483
657.5645, 16.99136
658.0466, 16.79955
658.5287, 17.41066
659.0109, 18.54110
659.4930, 19.81950
659.9751, 21.30100
660.4572, 23.28310
660.9393, 25.84266
661.4214, 29.02789
661.9036, 32.89081
662.3857, 37.44459
662.8678, 42.68776
663.3499, 49.82082
663.8320, 56.02739
664.3141, 61.96911
664.7963, 66.26657
665.2784, 67.88991
665.7605, 66.77147
666.2426, 63.15341
666.7247, 56.57802
667.2068, 48.53601
667.6890, 41.47427
668.1711, 35.38113
668.6532, 29.81239
669.1353, 24.60844
669.6174, 20.13148
670.0995, 17.00154
670.5817, 15.09890
671.0638, 13.04460
671.5459, 10.28070
672.0280, 8.023537
672.5101, 6.996429
672.9922, 6.490898
673.4744, 5.730637
673.9565, 4.641975
674.4386, 3.605820
674.9207, 2.902786
675.4028, 2.473000
675.8849, 2.140816
676.3671, 1.932533
676.8492, 1.695625
677.3313, 1.285088
677.8134, 0.9708180
678.2955, 1.056137
678.7776, 1.422188
679.2598, 1.643524
679.7419, 1.640038
680.2240, 1.449089
680.7061, 0.9468150
681.1882, 0.3276140
681.6703, 0.1522520
682.1525, 0.4267960
682.6346, 0.4325100
683.1167, 5.4924000E-02
683.5988, 0.5619050
684.0809, 0.6507340
684.5630, 0.1955410
685.0452, 0.6777110
685.5273, 0.2617030
686.0094, 0.2492520
686.4915, 0.3378910
686.9736, 0.1322940
687.4557, 9.1568001E-02
687.9379, 0.4666820
688.4200, 0.9174960
688.9021, 1.088638
689.3842, 1.112419
689.8663, 1.290237
690.3484, 1.678085
690.8306, 2.197929
691.3127, 2.812637
691.7948, 3.493912
692.2769, 4.112350
692.7590, 4.695511
693.2411, 5.142685
693.7233, 5.226265
694.2054, 5.403374
694.6875, 6.054779
695.1696, 7.025711
695.6517, 7.899818
696.1339, 8.510399
696.6160, 8.925941
697.0981, 9.277962
697.5802, 9.503586
698.0623, 9.289978
698.5444, 8.561630
699.0266, 7.834969
699.5087, 7.495682
699.9908, 7.422157
700.4729, 7.159515
700.9550, 6.617935
701.4371, 6.015633
701.9193, 5.063309
702.4014, 4.320053
702.8835, 4.297379
703.3656, 4.727966
703.8477, 5.010323
704.3298, 4.881065
704.8120, 4.581581
705.2941, 4.364464
705.7762, 4.228119
706.2583, 4.185059
706.7404, 4.254250
707.2225, 4.295937
707.7046, 4.214890
708.1867, 4.062721
708.6688, 3.992126
709.1509, 4.136902
709.6331, 4.018158
710.1152, 3.420776
710.5973, 2.726875
711.0794, 2.046959
711.5615, 1.465004
712.0436, 1.142937
712.5258, 1.129433
713.0079, 1.166100
713.4900, 0.9127500
713.9721, 0.4339680
714.4542, 0.1211780
714.9363, 3.0228000E-02
715.4185, 0.2026900
715.9006, 0.8996890
716.3827, 1.664612
716.8648, 1.739159
717.3469, 0.9874730
717.8290, 0.4473500
718.3112, 0.2718200
718.7933, 0.2545090
719.2754, 0.4897000
719.7575, 0.7360990
720.2396, 0.5384450
720.7217, 0.1521680
721.2039, 0.7290570
721.6860, 0.4118120
722.1681, 0.4581530
722.6502, 0.3890080
723.1323, 0.7624660
723.6144, 1.630508
724.0966, 1.630943
724.5787, 1.406456
725.0608, 1.788643
725.5429, 2.762428
726.0250, 3.367477
726.5071, 3.130623
726.9893, 3.028854
727.4714, 3.430267
727.9535, 4.143364
728.4356, 4.997147
728.9177, 5.931900
729.3998, 6.918037
729.8820, 7.974266
730.3641, 8.991966
730.8462, 9.575348
731.3283, 9.691391
731.8104, 10.37471
732.2925, 12.01562
732.7747, 13.81709
733.2568, 15.14812
733.7389, 16.08053
734.2210, 17.05639
734.7031, 18.04131
735.1852, 19.10970
735.6674, 20.56245
736.1495, 21.87775
736.6316, 22.52892
737.1137, 22.66564
737.5958, 22.81581
738.0779, 23.25053
738.5601, 23.72919
739.0422, 23.90300
739.5243, 23.78435
740.0064, 23.52019
740.4885, 23.09991
740.9706, 22.73549
741.4528, 22.57973
741.9349, 22.49444
742.4170, 22.10748
742.8991, 21.21088
743.3812, 20.73045
743.8633, 21.10133
744.3455, 21.49737
744.8276, 21.48227
745.3097, 21.21321
745.7918, 20.94304
746.2739, 20.78146
746.7560, 20.72086
747.2382, 20.76428
747.7203, 20.84512
748.2024, 20.74555
748.6845, 20.47408
749.1666, 20.58245
749.6487, 21.32065
750.1309, 22.34258
750.6130, 23.30300
751.0951, 24.20003
751.5772, 24.94469
752.0593, 25.10567
752.5414, 25.68020
753.0236, 27.11216
753.5057, 28.88825
753.9878, 30.43259
754.4699, 31.83093
754.9520, 33.70952
755.4341, 36.54234
755.9163, 39.76826
756.3984, 42.47954
756.8805, 44.87092
757.3626, 47.84933
757.8447, 51.60298
758.3268, 55.40775
758.8090, 58.80314
759.2911, 61.82306
759.7732, 64.60410
760.2553, 67.27786
760.7374, 69.47414
761.2195, 71.47466
761.7017, 72.74020
762.1838, 73.07343
762.6659, 72.48833
763.1480, 70.95081
763.6301, 68.43782
764.1122, 65.33396
764.5944, 61.62482
765.0765, 57.65868
765.5586, 54.10979
766.0407, 50.85982
766.5228, 47.17995
767.0049, 42.74313
767.4871, 38.14391
767.9692, 34.15898
768.4513, 30.76590
768.9334, 27.83841
769.4155, 25.55505
769.8976, 23.43130
770.3798, 21.31722
770.8619, 19.34309
771.3440, 17.69018
771.8261, 16.31065
772.3082, 14.93456
772.7903, 13.33887
773.2725, 11.88137
773.7546, 10.91011
774.2367, 10.16049
774.7188, 9.261925
775.2009, 8.234192
775.6830, 7.279976
776.1652, 6.510002
776.6473, 5.893669
777.1294, 5.393318
777.6115, 5.034225
778.0936, 4.615295
778.5757, 4.055923
779.0579, 3.590462
779.5400, 3.431198
780.0221, 3.399681
780.5042, 3.319588
780.9863, 3.235329
781.4684, 2.956787
781.9506, 2.154861
782.4327, 1.436722
782.9148, 1.205696
783.3969, 1.321297
783.8790, 1.594513
784.3611, 1.936913
784.8433, 2.199745
785.3254, 2.216087
785.8075, 2.067078
786.2896, 2.008644
786.7717, 2.043365
787.2538, 1.983109
787.7360, 1.720695
788.2181, 1.545883
788.7002, 1.795486
789.1823, 2.395309
789.6644, 2.704124
790.1465, 2.499481
790.6286, 2.339676
791.1107, 2.374725
791.5928, 2.365753
792.0750, 2.021126
792.5571, 1.538055
793.0392, 1.390526
793.5213, 1.788567
794.0034, 2.196938
794.4855, 2.157516
794.9677, 1.804588
795.4498, 1.266418
795.9319, 0.6101990
796.4140, 0.2142640
796.8961, 0.2448430
797.3782, 0.4704280
797.8604, 0.5759200
798.3425, 0.5540470
798.8246, 0.5825810
799.3067, 0.6961750
799.7888, 0.7957760
800.2709, 0.8958280
800.7531, 0.9408720
801.2352, 0.8887710
801.7173, 0.7419360
802.1994, 0.5210420
802.6815, 0.2092970
803.1636, 0.1417080
803.6458, 0.6725690
804.1279, 1.118919
804.6100, 1.078079
805.0921, 0.6315460
805.5742, 0.1780090
806.0563, 6.8320997E-02
806.5385, 0.1890110
807.0206, 0.3072810
807.5027, 0.4203110
807.9848, 0.4603650
808.4669, 0.3997570
808.9490, 0.4129260
809.4312, 0.6423030
809.9133, 0.8956990
810.3954, 0.8602910
810.8775, 0.4755170
811.3596, 0.1914830
811.8417, 1.4633000E-02
812.3239, 9.1949001E-02
812.8060, 3.5399999E-02
813.2881, 0.2542800
813.7702, 0.4905550
814.2523, 0.7192150
814.7344, 0.9112780
815.2166, 1.054970
815.6987, 1.150955
816.1808, 1.209282
816.6629, 1.216576
817.1450, 1.084023
817.6271, 0.8317030
818.1093, 0.7045590
818.5914, 0.8509600
819.0735, 1.149986
819.5556, 1.388000
820.0377, 1.574730
820.5198, 1.623177
821.0020, 1.467850
821.4841, 1.295006
821.9662, 1.179153
822.4483, 1.075378
822.9304, 0.8637540
823.4125, 0.5526200
823.8947, 0.5274430
824.3768, 1.268562
824.8589, 1.830513
825.3410, 1.569496
825.8231, 1.068390
826.3052, 1.076736
826.7874, 1.522141
827.2695, 1.752357
827.7516, 1.375641
828.2337, 0.7918320
828.7158, 0.4699780
829.1979, 0.3490520
829.6801, 0.4167330
830.1622, 0.6857380
830.6443, 0.9477920
831.1264, 1.115334
831.6085, 1.187706
832.0906, 1.107681
832.5728, 0.7965700
833.0549, 0.6818240
833.5370, 0.8934560
834.0191, 1.139183
834.5012, 1.405602
834.9833, 1.638916
835.4655, 1.851631
835.9476, 2.004898
836.4297, 1.928650
836.9118, 1.368675
837.3939, 0.9289860
837.8760, 1.026878
838.3582, 1.305122
838.8403, 1.307625
839.3224, 1.127808
839.8045, 1.231873
840.2866, 1.834518
840.7687, 2.488358
841.2509, 2.458206
841.7330, 1.892448
842.2151, 1.742996
842.6972, 2.064735
843.1793, 2.431656
843.6614, 2.708076
844.1436, 2.866135
844.6257, 2.851120
845.1078, 2.659882
845.5899, 2.559708
846.0720, 2.584633
846.5541, 2.687309
847.0363, 3.011108
847.5184, 3.247498
848.0005, 3.091866
848.4826, 2.733521
848.9647, 2.631500
849.4468, 2.975899
849.9290, 3.268234
850.4111, 3.124619
850.8932, 2.864204
851.3753, 2.872307
851.8574, 3.043564
852.3395, 3.013107
852.8217, 2.698929
853.3038, 2.446785
853.7859, 2.649963
854.2680, 3.131927
854.7501, 3.322060
855.2322, 3.221458
855.7144, 3.108025
856.1965, 3.025322
856.6786, 2.995392
857.1607, 3.061554
857.6428, 3.171333
858.1249, 3.110703
858.6071, 2.390717
859.0892, 2.576050
859.5713, 5.039360
860.0534, 6.779701
860.5355, 6.090279
861.0176, 4.468979
861.4998, 3.792770
861.9819, 4.236366
862.4640, 4.491974
862.9461, 3.820572
863.4282, 3.053215
863.9103, 2.638901
864.3925, 2.508171
864.8746, 2.635696
865.3567, 2.964264
865.8388, 3.390930
866.3209, 3.884628
866.8030, 4.225067
867.2852, 3.891876
867.7673, 3.063263
868.2494, 2.777527
868.7315, 3.114021
869.2136, 3.314331
869.6957, 3.038414
870.1779, 2.572968
870.6600, 2.295280
871.1421, 2.201660
871.6242, 2.215416
872.1063, 2.508194
872.5884, 2.605293
873.0705, 2.180222
873.5526, 1.768509
874.0347, 1.701027
874.5168, 1.893463
874.9990, 2.142563
875.4811, 2.466713
875.9632, 2.687462
876.4453, 2.792511
876.9274, 2.723106
877.4095, 2.252853
877.8917, 1.646568
878.3738, 1.413513
878.8559, 1.619041
879.3380, 1.755936
879.8201, 1.297195
880.3022, 0.7009740
880.7844, 0.8304750
881.2665, 1.479630
881.7486, 1.919853
882.2307, 2.032394
882.7128, 1.930786
883.1949, 1.668571
883.6771, 1.310028
884.1592, 0.9913480
884.6413, 0.7202840
885.1234, 0.3870700
885.6055, 0.1499710
886.0876, 0.3796160
886.5698, 8.6349003E-02
887.0519, 0.7166140
887.5340, 0.9271010
888.0161, 0.7372130
888.4982, 0.4801710
888.9803, 3.3431999E-02
889.4625, 0.3336260
889.9446, 0.2108460
890.4267, 2.7427999E-02
890.9088, 0.2201460
891.3909, 0.3541950
891.8730, 0.4420390
892.3552, 0.4876790
892.8373, 0.4966580
893.3194, 0.5122380
893.8015, 0.4605710
894.2836, 0.1514510
894.7657, 0.2554020
895.2479, 0.3726270
895.7300, 0.1604610
896.2121, 4.6790998E-02
896.6942, 3.3040000E-03
897.1763, 0.1962430
897.6584, 0.3288570
898.1406, 0.3997190
898.6227, 0.3604510
899.1048, 0.1915820
899.5869, 0.1218260
900.0690, 0.2874220
900.5511, 0.5298770
901.0333, 0.6179120
901.5154, 0.5469130
901.9975, 0.4200970
902.4796, 0.1616900
902.9617, 1.1932000E-02
903.4438, 2.3155000E-02
903.9260, 7.2189003E-02
904.4081, 4.3465000E-02
904.8902, 0.2424090
905.3723, 0.3053280
905.8544, 0.1657640
906.3365, 1.5259000E-02
906.8187, 0.1824570
907.3008, 0.2906570
907.7829, 0.2022090
908.2650, 1.4732000E-02
908.7471, 0.3092880
909.2292, 0.6421740
909.7114, 0.8975140
910.1935, 0.9735720
910.6756, 0.9937440
911.1577, 1.108665
911.6398, 1.247528
912.1219, 1.211365
912.6041, 1.047112
913.0862, 1.091736
913.5683, 1.505646
914.0504, 1.957100
914.5325, 1.947556
915.0146, 1.578598
915.4968, 1.434662
915.9789, 1.521324
916.4610, 1.725975
916.9431, 2.064552
917.4252, 2.304893
917.9073, 2.211906
918.3895, 1.908195
918.8716, 1.833008
919.3537, 1.994064
919.8358, 2.380959
920.3179, 3.260551
920.8000, 3.978470
921.2822, 4.121216
921.7643, 4.071770
922.2464, 4.295494
922.7285, 4.777443
923.2106, 5.020119
923.6927, 4.632889
924.1749, 4.433640
924.6570, 4.814804
925.1391, 5.322983
925.6212, 5.498398
926.1033, 5.543541
926.5854, 5.993263
927.0676, 7.016205
927.5497, 8.005821
928.0318, 8.542458
928.5139, 8.868011
928.9960, 9.151398
929.4781, 9.440788
929.9603, 9.813339
930.4424, 10.27963
930.9245, 10.78958
931.4066, 11.30370
931.8887, 11.88640
932.3708, 12.74204
932.8530, 13.75538
933.3351, 14.37820
933.8172, 14.60654
934.2993, 14.90125
934.7814, 15.42585
935.2635, 16.09112
935.7457, 16.76424
936.2278, 17.51392
936.7099, 18.85815
937.1920, 21.04166
937.6741, 22.70831
938.1563, 23.48096
938.6384, 24.21435
939.1205, 25.31131
939.6026, 26.71815
940.0847, 28.37526
940.5668, 30.31423
941.0490, 32.29809
941.5311, 34.21724
942.0132, 36.33655
942.4953, 38.81851
942.9774, 41.41087
943.4595, 43.84787
943.9417, 46.25165
944.4238, 48.91477
944.9059, 51.82617
945.3880, 55.17233
945.8701, 59.28945
946.3522, 63.60869
946.8344, 67.47735
947.3165, 71.39524
947.7986, 76.08441
948.2807, 81.59367
948.7628, 87.56437
949.2449, 93.91479
949.7271, 100.3644
950.2092, 106.3815
950.6913, 112.5285
951.1734, 119.7507
951.6555, 127.9406
952.1376, 136.5715
952.6198, 145.4512
953.1019, 154.7617
953.5840, 164.7914
954.0661, 175.3241
954.5482, 185.8747
955.0303, 196.4597
955.5124, 207.2706
955.9945, 218.3949
956.4766, 229.5507
956.9587, 240.6706
957.4409, 251.6881
957.9230, 262.5344
958.4051, 273.2578
958.8872, 282.7492
959.3693, 291.1819
959.8514, 297.8217
960.3336, 302.4360
960.8157, 305.4540
961.2978, 307.3846
961.7799, 307.7670
962.2620, 305.2554
962.7441, 299.3974
963.2263, 292.0564
963.7084, 282.7744
964.1905, 272.6248
964.6726, 261.6849
965.1547, 250.2227
965.6368, 238.5246
966.1190, 226.4880
966.6011, 213.5667
967.0832, 198.8481
967.5653, 184.8592
968.0474, 172.1918
968.5295, 160.3141
969.0117, 149.0665
969.4938, 138.3832
969.9759, 128.3029
970.4580, 118.8025
970.9401, 109.8380
971.4222, 101.3340
971.9044, 93.51189
972.3865, 86.47065
972.8686, 80.21017
973.3507, 75.15370
973.8328, 70.82350
974.3149, 66.05770
974.7971, 60.59891
975.2792, 55.57720
975.7613, 52.21849
976.2434, 49.45628
976.7255, 45.70327
977.2076, 41.51286
977.6898, 37.97424
978.1719, 35.19476
978.6540, 33.04065
979.1361, 31.43006
979.6182, 29.92957
980.1003, 27.94617
980.5825, 25.64890
981.0646, 23.61034
981.5467, 21.83239
982.0288, 20.34135
982.5109, 19.14843
982.9930, 18.03882
983.4752, 16.87344
983.9573, 15.73732
984.4394, 14.82683
984.9215, 14.14609
985.4036, 13.32666
985.8857, 12.35488
986.3679, 11.30256
986.8500, 10.14290
987.3321, 9.026718
987.8142, 8.035484
988.2963, 7.220116
988.7784, 6.786972
989.2606, 6.932381
989.7427, 6.754318
990.2248, 6.080353
990.7069, 5.407829
991.1890, 4.837662
991.6711, 4.387047
992.1533, 4.142738
992.6354, 4.049690
993.1175, 3.772285
993.5996, 3.043098
994.0817, 2.613899
994.5638, 2.828217
995.0460, 2.943016
995.5281, 2.557808
996.0102, 2.011749
996.4923, 1.660652
996.9744, 1.503647
997.4565, 1.382584
997.9387, 1.349632
998.4208, 1.215805
998.9029, 0.8310390
999.3850, 0.4392930
999.8671, 0.1627880
1000.349, 4.4630002E-03
1000.831, 5.3078000E-02
1001.313, 1.8300000E-04
1001.796, 4.0939000E-02
1002.278, 5.4145999E-02
1002.760, 5.2490002E-03
1003.242, 0.2587970
1003.724, 0.5113530
1004.206, 0.6321030
1004.688, 0.5915220
1005.170, 0.2691350
1005.653, 0.3098530
1006.135, 0.6835250
1006.617, 0.4727480
1007.099, 5.4527000E-02
1007.581, 0.3822780
1008.063, 0.7004390
1008.545, 0.5826190
1009.027, 0.1738050
1009.509, 6.0936000E-02
1009.992, 3.2944001E-02
1010.474, 0.1967700
1010.956, 0.2101520
1011.438, 0.1546860
1011.920, 0.1513210
1012.402, 0.1756440
1012.884, 0.2145770
1013.366, 0.2320180
1013.849, 5.3169001E-02
1014.331, 0.3922730
1014.813, 0.8359300
1015.295, 0.9419100
1015.777, 0.8514940
1016.259, 0.9697110
1016.741, 1.222084
1017.223, 1.154976
1017.705, 0.7509610
1018.188, 0.6448440
1018.670, 1.180473
1019.152, 1.851021
1019.634, 1.939392
1020.116, 1.563927
1020.598, 1.275414
1021.080, 1.074013
1021.562, 0.9248960
1022.044, 0.8191530
1022.527, 0.8289720
1023.009, 1.003014
1023.491, 1.288704
1023.973, 1.661331
1024.455, 2.092766
1024.937, 2.007759
1025.419, 1.309113
1025.901, 0.9498600
1026.384, 1.154411
1026.866, 1.502625
1027.348, 1.762199
1027.830, 1.940704
1028.312, 2.028732
1028.794, 2.017189
1029.276, 2.190338
1029.758, 2.655975
1030.240, 2.905563
1030.723, 2.745964
1031.205, 2.580109
1031.687, 2.643730
1032.169, 2.905518
1032.651, 3.333336
1033.133, 3.965393
1033.615, 4.438354
1034.097, 4.753250
1034.579, 4.891808
1035.062, 4.735931
1035.544, 4.572754
1036.026, 4.580627
1036.508, 4.716461
1036.990, 4.900200
1037.472, 5.140724
1037.954, 5.375000
1038.436, 5.582062
1038.919, 5.816055
1039.401, 6.161453
1039.883, 6.452965
1040.365, 6.453728
1040.847, 6.367271
1041.329, 6.653336
1041.811, 7.399208
1042.293, 8.059181
1042.776, 8.625481
1043.258, 9.106758
1043.740, 9.398132
1044.222, 9.712372
1044.704, 10.14681
1045.186, 10.71322
1045.668, 11.46334
1046.150, 12.43694
1046.632, 13.31242
1047.115, 13.87842
1047.597, 14.58648
1048.079, 15.65079
1048.561, 16.78722
1049.043, 17.77682
1049.525, 18.70698
1050.007, 19.80838
1050.489, 21.12454
1050.971, 22.30911
1051.454, 22.88823
1051.936, 23.87453
1052.418, 25.87267
1052.900, 28.08938
1053.382, 29.95805
1053.864, 31.62670
1054.346, 33.34245
1054.828, 35.13931
1055.311, 37.34940
1055.793, 40.33544
1056.275, 43.42321
1056.757, 46.37891
1057.239, 49.31642
1057.721, 52.21377
1058.203, 55.20134
1058.685, 58.43037
1059.167, 61.94670
1059.650, 65.82243
1060.132, 70.33776
1060.614, 74.82956
1061.096, 78.78395
1061.578, 82.89702
1062.060, 87.89722
1062.542, 93.38218
1063.024, 98.73150
1063.506, 103.8085
1063.989, 108.4785
1064.471, 112.6258
1064.953, 116.4941
1065.435, 120.5674
1065.917, 124.0224
1066.399, 126.2048
1066.881, 127.3773
1067.363, 128.0732
1067.846, 128.3009
1068.328, 127.2760
1068.810, 124.3737
1069.292, 120.7317
1069.774, 116.5847
1070.256, 112.1924
1070.738, 107.8429
1071.220, 103.3161
1071.703, 98.15160
1072.185, 92.38607
1072.667, 86.39474
1073.149, 79.98373
1073.631, 74.16650
1074.113, 69.68636
1074.595, 65.68019
1075.077, 61.62334
1075.559, 57.59145
1076.042, 53.63006
1076.524, 49.81493
1077.006, 46.39462
1077.488, 43.49857
1077.970, 40.71940
1078.452, 37.81771
1078.934, 35.07552
1079.416, 32.69149
1079.898, 30.55258
1080.380, 28.46366
1080.863, 26.46564
1081.345, 24.78105
1081.827, 23.52715
1082.309, 22.37576
1082.791, 21.14076
1083.273, 19.97017
1083.755, 19.06239
1084.237, 18.21970
1084.720, 17.09296
1085.202, 15.86311
1085.684, 15.14745
1086.166, 15.17772
1086.648, 14.86379
1087.130, 13.31311
1087.612, 11.86726
1088.094, 11.41068
1088.577, 11.21070
1089.059, 10.56056
1089.541, 9.589966
1090.023, 8.693741
1090.505, 7.951622
1090.987, 7.399200
1091.469, 7.249413
1091.951, 7.006332
1092.433, 6.331352
1092.916, 5.619263
1093.398, 5.251755
1093.880, 5.035561
1094.362, 4.572311
1094.844, 3.841309
1095.326, 3.321327
1095.808, 3.276016
1096.290, 3.303024
1096.772, 3.416275
1097.255, 3.397957
1097.737, 2.970543
1098.219, 2.418343
1098.701, 2.137268
1099.183, 2.128143
1099.665, 2.095139
1100.147, 1.984039
1100.629, 1.810326
1101.112, 1.415489
1101.594, 1.156464
1102.076, 1.434525
1102.558, 1.759598
1103.040, 1.491760
1103.522, 0.7994540
1104.004, 0.4611660
1104.486, 0.7469250
1104.969, 0.8808360
1105.451, 0.5333940
1105.933, 0.2650380
1106.415, 0.3128970
1106.897, 0.4767230
1107.379, 0.6519390
1107.861, 0.7990800
1108.343, 0.8276290
1108.825, 0.7003400
1109.307, 0.6322170
1109.790, 0.7314990
1110.272, 0.7649230
1110.754, 0.6430970
1111.236, 0.4921650
1111.718, 0.4179080
1112.200, 0.3392330
1112.682, 7.6880999E-02
1113.164, 0.3877410
1113.647, 0.6075440
1114.129, 0.5188220
1114.611, 0.2833180
1115.093, 0.3851850
1115.575, 0.7925950
1116.057, 0.4358370
1116.539, 0.1387560
1117.021, 0.2909090
1117.504, 8.1223004E-02
1117.986, 4.2273998E-02
1118.468, 5.2094001E-02
1118.950, 4.2755000E-02
1119.432, 2.5162000E-02
1119.914, 4.3526001E-02
1120.396, 3.1509001E-02
1120.878, 0.1643830
1121.360, 0.3773040
1121.843, 0.5829160
1122.325, 0.4783940
1122.807, 4.9072001E-02
1123.289, 0.1335830
1123.771, 0.4497830
1124.253, 0.6635890
1124.735, 0.1513600
1125.217, 0.3566820
1125.699, 0.4026790
1126.182, 0.1499560
1126.664, 0.1730730
1127.146, 0.5473400
1127.628, 0.5496600
1128.110, 0.1089710
1128.592, 7.2019999E-03
1129.074, 0.3536830
1129.556, 0.6252140
1130.039, 0.5467830
1130.521, 0.2898030
1131.003, 2.0556999E-02
1131.485, 0.2249110
1131.967, 0.2849810
1132.449, 0.1747020
1132.931, 0.1590840
1133.413, 0.2497100
1133.896, 0.3574710
1134.378, 0.4548150
1134.860, 0.2300070
1135.342, 0.6282730
1135.824, 1.592709
1136.306, 1.592743
1136.788, 0.8917620
1137.270, 0.4763830
1137.752, 0.3157840
1138.234, 0.1870080
1138.717, 4.8163999E-02
1139.199, 7.3296003E-02
1139.681, 0.1647420
1140.163, 0.1490060
1140.645, 0.1477850
1141.127, 0.5238230
1141.609, 0.6004450
1142.091, 0.4740410
1142.574, 0.2558330
1143.056, 4.5180999E-02
1143.538, 0.1581650
1144.020, 0.6427690
1144.502, 0.9545290
1144.984, 0.6313130
1145.466, 0.1647870
1145.948, 1.6574999E-02
1146.431, 2.3449000E-02
1146.913, 0.3674930
1147.395, 0.7967220
1147.877, 0.8423120
1148.359, 0.5542790
1148.841, 0.5293960
1149.323, 1.091614
1149.805, 1.486488
1150.287, 0.9527550
1150.770, 0.4063150
1151.252, 0.6065750
1151.734, 1.064812
1152.216, 1.314228
1152.698, 1.338726
1153.180, 1.175476
1153.662, 0.8366660
1154.144, 0.7121510
1154.626, 1.132851
1155.109, 1.503025
1155.591, 1.658836
1156.073, 1.669910
1156.555, 1.452759
1157.037, 1.200130
1157.519, 1.216797
1158.001, 1.455994
1158.483, 1.479279
1158.966, 1.057041
1159.448, 0.8229140
1159.930, 0.9031490
1160.412, 1.057659
1160.894, 1.298302
1161.376, 1.506435
1161.858, 1.577713
1162.340, 1.564034
1162.822, 1.582142
1163.305, 1.640079
1163.787, 1.634327
1164.269, 1.519913
1164.751, 1.474472
1165.233, 1.528301
1165.715, 1.635723
1166.197, 1.785851
1166.679, 1.970276
1167.161, 2.230423
1167.644, 2.464146
1168.126, 2.119747
1168.608, 1.160389
1169.090, 0.8577690
1169.572, 1.286076
1170.054, 1.577576
1170.536, 1.490944
1171.018, 1.370018
1171.500, 1.495689
1171.983, 1.679955
1172.465, 1.539539
1172.947, 1.228294
1173.429, 1.218243
1173.911, 1.437862
1174.393, 1.699051
1174.875, 1.922550
1175.357, 1.800373
1175.840, 1.237762
1176.322, 0.7549170
1176.804, 0.8261070
1177.286, 1.089931
1177.768, 1.098797
1178.250, 1.029774
1178.732, 1.154625
1179.214, 1.389278
1179.697, 1.558941
1180.179, 1.629311
1180.661, 1.607254
1181.143, 1.503254
1181.625, 1.406109
1182.107, 1.331295
1182.589, 1.253403
1183.071, 1.117836
1183.553, 0.9953350
1184.036, 0.9700930
1184.518, 1.000233
1185.000, 0.9669990
1185.482, 0.8583910
1185.964, 0.8388820
1186.446, 1.045948
1186.928, 1.211960
1187.410, 1.300865
1187.892, 1.301220
1188.375, 1.067181
1188.857, 0.8579250
1189.339, 0.9707450
1189.821, 1.288284
1190.303, 1.439888
1190.785, 1.383041
1191.267, 1.375961
1191.749, 1.487610
1192.232, 1.435314
1192.714, 1.137733
1193.196, 0.8683470
1193.678, 0.7129750
1194.160, 0.6641810
1194.642, 0.7347680
1195.124, 0.8827590
1195.606, 0.9145160
1196.089, 0.8393060
1196.571, 0.9966620
1197.053, 1.379280
1197.535, 1.575966
1198.017, 1.492905
1198.499, 1.292248
1198.981, 1.052151
1199.463, 0.8007850
1199.945, 0.3850560
1200.427, 0.1391640
1200.910, 1.217751
1201.392, 2.806160
1201.874, 2.918652
1202.356, 1.824718
1202.838, 0.8934780
1203.320, 0.5196190
1203.802, 0.4239880
1204.284, 0.5082240
1204.767, 0.6735570
1205.249, 0.8554310
1205.731, 1.048828
1206.213, 1.259808
1206.695, 1.473778
1207.177, 1.759941
1207.659, 2.016617
1208.141, 1.958488
1208.624, 1.504108
1209.106, 1.138180
1209.588, 0.8631130
1210.070, 0.8536380
1210.552, 1.468430
1211.034, 1.971214
1211.516, 1.808918
1211.998, 1.521572
1212.480, 1.720501
1212.963, 2.238483
1213.445, 2.396725
1213.927, 2.056881
1214.409, 1.972759
1214.891, 2.150375
1215.373, 2.668514
1215.855, 3.701580
1216.337, 4.272331
1216.819, 3.765160
1217.302, 2.886848
1217.784, 2.462582
1218.266, 2.393864
1218.748, 2.451637
1219.230, 2.591419
1219.712, 2.566193
1220.194, 2.394131
1220.676, 2.248096
1221.159, 2.158710
1221.641, 1.996002
1222.123, 1.680275
1222.605, 1.450333
1223.087, 1.672741
1223.569, 1.978699
1224.051, 1.903069
1224.533, 1.700222
1225.016, 1.754593
1225.498, 1.924709
1225.980, 1.859177
1226.462, 1.530010
1226.944, 1.193043
1227.426, 0.8737680
1227.908, 0.7671360
1228.390, 1.115288
1228.872, 1.447899
1229.354, 1.555386
1229.837, 1.576038
1230.319, 1.614330
1230.801, 1.629135
1231.283, 1.567284
1231.765, 1.432804
1232.247, 1.276020
1232.729, 1.000622
1233.211, 1.054142
1233.694, 1.617065
1234.176, 1.897766
1234.658, 1.603035
1235.140, 1.230820
1235.622, 1.143318
1236.104, 1.166611
1236.586, 0.9392050
1237.068, 0.5823750
1237.551, 0.7461510
1238.033, 1.271599
1238.515, 1.393513
1238.997, 1.128620
1239.479, 0.9769520
1239.961, 1.074154
1240.443, 1.175934
1240.925, 1.123795
1241.407, 1.029213
1241.890, 0.9617610
1242.372, 0.9237520
1242.854, 0.9150160
1243.336, 0.9557270
1243.818, 1.019604
1244.300, 1.111984
1244.782, 1.292946
1245.264, 1.562630
1245.746, 1.728580
1246.229, 1.716759
1246.711, 1.632244
1247.193, 1.403717
1247.675, 1.222706
1248.157, 1.133495
1248.639, 1.155548
1249.121, 1.420731
1249.603, 1.684227
1250.085, 1.423923
1250.568, 0.6967810
1251.050, 0.5480420
1251.532, 1.042309
1252.014, 1.447884
1252.496, 1.714573
1252.978, 1.717709
1253.460, 1.421658
1253.942, 1.146751
1254.425, 1.117508
1254.907, 1.183170
1255.389, 1.138428
1255.871, 1.043243
1256.353, 0.9675100
1256.835, 0.9488600
1257.317, 1.183487
1257.799, 1.504173
1258.281, 1.388325
1258.764, 0.8482320
1259.246, 0.6408460
1259.728, 1.230877
1260.210, 1.634880
1260.692, 1.199413
1261.174, 0.7287290
1261.656, 0.5308720
1262.138, 0.5206570
1262.620, 0.7458460
1263.103, 1.041737
1263.585, 1.168972
1264.067, 1.134716
1264.549, 0.9790990
1265.031, 0.5854150
1265.513, 0.4975360
1265.995, 0.8079490
1266.477, 1.022160
1266.960, 1.029301
1267.442, 0.9166220
1267.924, 0.7220730
1268.406, 0.5316510
1268.888, 0.4636420
1269.370, 0.4404600
1269.852, 0.2249950
1270.334, 6.5315001E-02
1270.817, 0.1291660
1271.299, 6.7210002E-03
1271.781, 0.2273900
1272.263, 0.4828720
1272.745, 0.4704670
1273.227, 7.8781001E-02
1273.709, 0.1542020
1274.191, 0.2477260
1274.673, 0.6718600
1275.156, 0.8164520
1275.638, 0.8771400
1276.120, 0.9825060
1276.602, 1.078251
1277.084, 1.106915
1277.566, 1.053268
1278.048, 0.7703020
1278.530, 0.4499700
1279.012, 0.3263240
1279.495, 0.2503320
1279.977, 0.2133750
1280.459, 1.8375000E-02
1280.941, 7.0522003E-02
1281.423, 0.7198450
1281.905, 1.259541
1282.387, 1.102890
1282.869, 0.5391270
1283.352, 0.3387720
1283.834, 0.3252260
1284.316, 0.1999820
1284.798, 0.0000000E+00
##END=



