##NAMES=Jerrygibbsite
##RRUFFID=R070726
##IDEAL CHEMISTRY=Mn^2+^_9_(SiO_4_)_4_(OH)_2_
##LOCALITY=Parker Shaft, Franklin Mine, Franklin, Franklin Mining District, Sussex Co., New Jersey, USA
##OWNER=RRUFF
##SOURCE=Michael Scott
##DESCRIPTION=Pale pink interlocking anhedral grains associated with zincite and franklinite
##STATUS=The identification of this mineral is not yet confirmed.
##URL=rruff.info/R070726
120.0056, 0.0000000E+00
120.4877, 16.78027
120.9698, 32.00391
121.4519, 19.13184
121.9340, 1.540039
122.4161, 2.234863
122.8982, 29.82520
123.3804, 65.19873
123.8625, 77.83594
124.3446, 72.43799
124.8267, 72.52490
125.3088, 106.1577
125.7909, 177.7310
126.2731, 222.1450
126.7552, 191.5684
127.2373, 157.7837
127.7194, 159.0552
128.2015, 200.8828
128.6837, 257.7744
129.1658, 291.0098
129.6479, 284.9048
130.1300, 284.7759
130.6121, 293.6299
131.0942, 309.3057
131.5764, 332.7744
132.0585, 364.6855
132.5406, 399.6841
133.0227, 420.1348
133.5048, 405.4243
133.9869, 398.1553
134.4691, 405.4214
134.9512, 423.6025
135.4333, 446.2588
135.9154, 470.1211
136.3975, 494.9087
136.8796, 516.4248
137.3618, 530.3281
137.8439, 545.5210
138.3260, 565.0049
138.8081, 589.4395
139.2902, 622.0215
139.7723, 674.2329
140.2545, 741.7476
140.7366, 775.6538
141.2187, 752.7515
141.7008, 705.4604
142.1829, 662.5356
142.6650, 632.1011
143.1472, 614.9858
143.6293, 610.3384
144.1114, 605.6753
144.5935, 598.9121
145.0756, 582.5664
145.5577, 560.5088
146.0399, 548.7529
146.5220, 561.4595
147.0041, 572.8496
147.4862, 564.7930
147.9683, 543.0308
148.4504, 519.8789
148.9326, 511.3384
149.4147, 527.2090
149.8968, 521.9189
150.3789, 470.3853
150.8610, 413.1040
151.3431, 370.8257
151.8252, 345.3877
152.3074, 330.2739
152.7895, 316.8418
153.2716, 307.0947
153.7537, 291.7539
154.2358, 264.9971
154.7179, 238.2095
155.2001, 221.3164
155.6822, 219.3594
156.1643, 228.7905
156.6464, 234.7241
157.1285, 209.9722
157.6106, 177.6284
158.0928, 131.4888
158.5749, 82.37402
159.0570, 53.58740
159.5391, 54.77002
160.0212, 82.12451
160.5033, 92.40088
160.9855, 74.10107
161.4676, 52.24658
161.9497, 28.73291
162.4318, 8.123047
162.9139, 0.5581050
163.3960, 17.10156
163.8782, 58.39307
164.3603, 77.84912
164.8424, 63.63672
165.3245, 39.61328
165.8066, 14.45459
166.2887, 9.639648
166.7709, 20.31982
167.2530, 0.6020510
167.7351, 48.86621
168.2172, 83.65723
168.6993, 89.09277
169.1814, 81.74268
169.6636, 84.54443
170.1457, 103.2114
170.6278, 118.5669
171.1099, 103.7915
171.5920, 64.67480
172.0741, 29.16797
172.5563, 0.7221680
173.0384, 20.89648
173.5205, 16.74707
174.0026, 30.34717
174.4847, 78.81836
174.9668, 89.63330
175.4490, 65.47021
175.9311, 38.39551
176.4132, 35.94141
176.8953, 23.54275
177.3774, 19.99131
177.8595, 24.52734
178.3417, 14.56641
178.8238, 26.81104
179.3059, 9.861816
179.7880, 17.11230
180.2701, 35.99854
180.7522, 47.06152
181.2344, 48.75000
181.7165, 27.43799
182.1986, 5.475586
182.6807, 0.9975590
183.1628, 12.02881
183.6449, 32.96631
184.1271, 41.96240
184.6092, 32.19629
185.0913, 23.33203
185.5734, 9.621094
186.0555, 1.336914
186.5376, 12.98779
187.0198, 50.22852
187.5019, 97.91162
187.9840, 115.8071
188.4661, 65.99512
188.9482, 32.41895
189.4303, 32.30762
189.9125, 48.20312
190.3946, 61.30518
190.8767, 62.31592
191.3588, 51.79883
191.8409, 31.66016
192.3230, 23.34619
192.8052, 59.93945
193.2873, 56.61816
193.7694, 28.91992
194.2515, 4.050781
194.7336, 1.449707
195.2157, 10.07422
195.6979, 15.74805
196.1800, 10.66699
196.6621, 6.241699
197.1442, 8.923828
197.6263, 16.31104
198.1084, 20.33398
198.5906, 14.58057
199.0727, 16.21227
199.5548, 9.241699
200.0369, 9.582520
200.5190, 8.149414
201.0011, 5.409180
201.4833, 2.544434
201.9654, 8.185059
202.4475, 33.77686
202.9296, 75.99756
203.4117, 102.6362
203.8938, 106.3457
204.3760, 98.14209
204.8581, 85.23389
205.3402, 67.76807
205.8223, 50.17920
206.3044, 34.76807
206.7865, 21.92871
207.2687, 13.65430
207.7508, 13.99707
208.2329, 17.81543
208.7150, 17.22314
209.1971, 10.36621
209.6792, 4.568359
210.1614, 7.563965
210.6435, 16.24951
211.1256, 23.94629
211.6077, 29.57568
212.0898, 32.40186
212.5719, 28.21582
213.0541, 10.40527
213.5362, 0.8876950
214.0183, 13.90137
214.5004, 45.90283
214.9825, 73.57324
215.4646, 84.70459
215.9468, 81.95361
216.4289, 75.86377
216.9110, 65.94922
217.3931, 53.42480
217.8752, 35.43018
218.3573, 14.91113
218.8395, 0.4306640
219.3216, 1.281250
219.8037, 15.91943
220.2858, 24.77197
220.7679, 19.27295
221.2500, 18.24658
221.7322, 37.58740
222.2143, 69.87305
222.6964, 92.66309
223.1785, 76.33154
223.6606, 17.39160
224.1427, 5.559570
224.6249, 57.31445
225.1070, 117.1587
225.5891, 134.1206
226.0712, 113.2051
226.5533, 84.39941
227.0354, 73.63867
227.5176, 82.34521
227.9997, 100.0044
228.4818, 149.6133
228.9639, 188.6270
229.4460, 190.2700
229.9281, 160.5771
230.4103, 127.8921
230.8924, 122.6782
231.3745, 154.3125
231.8566, 181.0762
232.3387, 196.8252
232.8208, 210.8247
233.3030, 230.8916
233.7851, 255.0859
234.2672, 272.7988
234.7493, 269.2671
235.2314, 232.5298
235.7135, 218.4116
236.1957, 244.5483
236.6778, 273.3921
237.1599, 286.6846
237.6420, 282.9946
238.1241, 271.9058
238.6062, 264.3096
239.0884, 258.8794
239.5705, 262.2183
240.0526, 282.9102
240.5347, 303.7520
241.0168, 315.4648
241.4989, 316.7993
241.9811, 311.8711
242.4632, 304.7690
242.9453, 293.1777
243.4274, 286.9849
243.9095, 289.2114
244.3916, 293.9907
244.8738, 296.5757
245.3559, 296.7427
245.8380, 298.6006
246.3201, 307.4058
246.8022, 327.0156
247.2843, 341.5483
247.7665, 353.8306
248.2486, 359.9102
248.7307, 351.5601
249.2128, 329.9653
249.6949, 310.3311
250.1770, 310.2881
250.6592, 340.9688
251.1413, 351.7769
251.6234, 322.9346
252.1055, 291.1772
252.5876, 287.2061
253.0697, 312.3945
253.5519, 341.6157
254.0340, 346.7183
254.5161, 319.1567
254.9982, 297.8921
255.4803, 286.9795
255.9624, 279.3262
256.4445, 268.0571
256.9267, 253.3174
257.4088, 242.1753
257.8909, 242.8076
258.3730, 258.0107
258.8551, 275.4639
259.3372, 312.1924
259.8194, 340.3071
260.3015, 327.4458
260.7836, 272.3726
261.2657, 214.5547
261.7478, 193.7275
262.2299, 217.1733
262.7121, 232.2231
263.1942, 238.4067
263.6763, 235.9297
264.1584, 219.7056
264.6405, 190.3662
265.1227, 162.9858
265.6048, 150.7720
266.0869, 155.5322
266.5690, 167.4512
267.0511, 202.9663
267.5332, 234.4980
268.0154, 231.8828
268.4975, 194.8027
268.9796, 158.2139
269.4617, 152.7134
269.9438, 178.7134
270.4259, 196.4399
270.9081, 197.4717
271.3902, 194.9282
271.8723, 202.0815
272.3544, 218.8330
272.8365, 230.6724
273.3186, 223.0713
273.8008, 198.4448
274.2829, 187.5488
274.7650, 200.1597
275.2471, 219.6577
275.7292, 235.7563
276.2113, 247.9185
276.6935, 256.5820
277.1756, 261.4722
277.6577, 262.9258
278.1398, 264.3457
278.6219, 269.0483
279.1040, 270.9917
279.5862, 263.2056
280.0683, 247.0869
280.5504, 233.7676
281.0325, 230.6582
281.5146, 235.7227
281.9967, 238.6743
282.4789, 237.5815
282.9610, 237.1748
283.4431, 242.8062
283.9252, 252.8442
284.4073, 257.8848
284.8894, 251.1763
285.3716, 236.8213
285.8537, 228.8120
286.3358, 237.7148
286.8179, 240.5708
287.3000, 214.2275
287.7821, 167.0464
288.2643, 136.0981
288.7464, 142.7583
289.2285, 172.8911
289.7106, 189.5352
290.1927, 187.8291
290.6748, 182.7207
291.1570, 178.1074
291.6391, 174.5884
292.1212, 176.4048
292.6033, 188.7329
293.0854, 203.6646
293.5675, 203.6631
294.0497, 185.2749
294.5318, 164.9121
295.0139, 143.2139
295.4960, 124.8486
295.9781, 122.6343
296.4602, 143.7017
296.9424, 174.0708
297.4245, 190.4639
297.9066, 193.2817
298.3887, 186.4297
298.8708, 160.5576
299.3529, 128.7427
299.8351, 117.1763
300.3172, 136.2065
300.7993, 164.2939
301.2814, 167.4443
301.7635, 142.8867
302.2456, 128.2256
302.7278, 144.4873
303.2099, 171.1035
303.6920, 175.4722
304.1741, 149.2090
304.6562, 120.2529
305.1383, 125.3745
305.6205, 167.2153
306.1026, 192.9160
306.5847, 185.2637
307.0668, 163.7744
307.5489, 145.5391
308.0310, 132.7729
308.5132, 126.5508
308.9953, 130.1997
309.4774, 144.1616
309.9595, 152.5269
310.4416, 145.2847
310.9237, 138.9019
311.4059, 150.6323
311.8880, 179.4390
312.3701, 205.5894
312.8522, 212.8716
313.3343, 153.0149
313.8164, 214.8192
314.2986, 249.7382
314.7807, 259.2108
315.2628, 167.3353
315.7449, 206.0909
316.2270, 192.3494
316.7091, 176.3552
317.1913, 233.1984
317.6734, 155.5271
318.1555, 211.0049
318.6376, 213.1861
319.1197, 239.6078
319.6018, 213.2089
320.0840, 202.9879
320.5661, 245.3960
321.0482, 258.5010
321.5303, 225.6163
322.0124, 252.9598
322.4945, 172.4040
322.9767, 186.3352
323.4588, 240.9744
323.9409, 210.2188
324.4230, 238.0046
324.9051, 209.8350
325.3872, 213.2656
325.8694, 186.8413
326.3515, 168.9561
326.8336, 173.8379
327.3157, 183.1245
327.7978, 173.7544
328.2799, 140.7197
328.7621, 103.0806
329.2442, 86.95850
329.7263, 102.1040
330.2084, 117.7915
330.6905, 145.8789
331.1726, 166.2129
331.6548, 157.2734
332.1369, 120.5498
332.6190, 81.03027
333.1011, 65.03711
333.5832, 77.96826
334.0653, 84.93896
334.5475, 85.40283
335.0296, 81.73926
335.5117, 72.55420
335.9938, 59.81982
336.4759, 48.30127
336.9580, 41.89404
337.4402, 40.50391
337.9223, 37.80371
338.4044, 33.90283
338.8865, 28.67334
339.3686, 17.13916
339.8507, 4.828613
340.3329, 3.049316
340.8150, 19.42725
341.2971, 47.35938
341.7792, 58.28857
342.2613, 36.82324
342.7434, 16.41309
343.2256, 1.826172
343.7077, 16.09570
344.1898, 23.86914
344.6719, 24.23291
345.1540, 20.11182
345.6361, 16.98291
346.1183, 13.79590
346.6004, 13.97949
347.0825, 22.35400
347.5646, 30.47754
348.0467, 32.35986
348.5288, 26.76074
349.0110, 16.50342
349.4931, 4.184570
349.9752, 11.35400
350.4573, 24.45312
350.9394, 41.09668
351.4215, 50.08496
351.9037, 42.03320
352.3858, 19.87939
352.8679, 4.458984
353.3500, 22.92578
353.8321, 35.41748
354.3142, 38.14160
354.7964, 27.60742
355.2785, 10.38770
355.7606, 19.40186
356.2427, 52.99268
356.7248, 72.61719
357.2069, 62.30371
357.6891, 34.79443
358.1712, 29.91797
358.6533, 61.92920
359.1354, 84.11377
359.6175, 64.64404
360.0996, 30.62402
360.5818, 14.85498
361.0639, 32.40283
361.5460, 59.86230
362.0281, 62.46777
362.5102, 36.61670
362.9923, 18.61816
363.4745, 25.32520
363.9566, 42.17627
364.4387, 54.78857
364.9208, 61.15088
365.4029, 68.19238
365.8850, 84.20166
366.3672, 106.6548
366.8493, 121.0625
367.3314, 120.8511
367.8135, 116.7534
368.2956, 117.6851
368.7777, 123.4248
369.2599, 136.7583
369.7420, 172.4541
370.2241, 212.6694
370.7062, 220.2363
371.1883, 185.7080
371.6704, 150.1216
372.1526, 153.1094
372.6347, 187.4082
373.1168, 210.3979
373.5989, 206.7495
374.0810, 197.3770
374.5631, 199.9053
375.0453, 213.5474
375.5274, 227.2471
376.0095, 233.5254
376.4916, 235.1943
376.9737, 244.3164
377.4558, 262.3403
377.9380, 285.0625
378.4201, 314.0688
378.9022, 346.4536
379.3843, 377.8066
379.8664, 407.0000
380.3485, 431.1465
380.8307, 442.5518
381.3128, 427.6030
381.7949, 425.4209
382.2770, 450.2690
382.7591, 482.4941
383.2412, 500.9541
383.7234, 502.4570
384.2055, 502.0835
384.6876, 517.2544
385.1697, 551.3555
385.6518, 587.8037
386.1339, 640.7397
386.6161, 682.8633
387.0982, 696.2402
387.5803, 686.5479
388.0624, 670.7041
388.5445, 660.0625
389.0266, 654.6240
389.5088, 654.6221
389.9909, 672.0190
390.4730, 680.9536
390.9551, 669.5708
391.4372, 650.0396
391.9193, 638.5322
392.4015, 637.0796
392.8836, 644.3145
393.3657, 659.7017
393.8478, 693.5469
394.3299, 709.1016
394.8120, 685.2593
395.2942, 653.9497
395.7763, 638.3931
396.2584, 641.1738
396.7405, 645.4077
397.2226, 631.6113
397.7047, 599.6733
398.1869, 575.5225
398.6690, 567.2041
399.1511, 559.6172
399.6332, 543.6284
400.1153, 521.2407
400.5974, 498.2725
401.0796, 468.9507
401.5617, 442.8560
402.0438, 453.2646
402.5259, 514.5869
403.0080, 558.0835
403.4901, 529.1431
403.9723, 462.7012
404.4544, 409.0459
404.9365, 376.5015
405.4186, 357.0381
405.9007, 348.3442
406.3828, 349.3618
406.8650, 352.5703
407.3471, 356.1699
407.8292, 359.4004
408.3113, 362.1113
408.7934, 365.6636
409.2755, 363.3491
409.7577, 345.3545
410.2398, 323.0815
410.7219, 313.6987
411.2040, 320.4722
411.6861, 330.9844
412.1682, 332.0151
412.6504, 324.5459
413.1325, 316.3657
413.6146, 309.9976
414.0967, 300.8267
414.5788, 280.5933
415.0609, 255.1777
415.5431, 239.5293
416.0252, 244.4644
416.5073, 263.9072
416.9894, 268.4448
417.4715, 249.2510
417.9536, 225.0640
418.4358, 182.7788
418.9179, 143.4731
419.4000, 134.4858
419.8821, 162.3252
420.3642, 203.1924
420.8463, 218.9570
421.3285, 195.5991
421.8106, 186.0806
422.2927, 209.4565
422.7748, 229.1870
423.2569, 223.5845
423.7390, 196.7896
424.2212, 167.8477
424.7033, 150.2861
425.1854, 142.9766
425.6675, 140.2188
426.1496, 148.6440
426.6317, 149.8794
427.1139, 127.3218
427.5960, 97.67432
428.0781, 83.79688
428.5602, 96.84424
429.0423, 119.4541
429.5244, 130.9575
430.0066, 130.9653
430.4887, 126.3662
430.9708, 117.4180
431.4529, 106.2134
431.9350, 93.08545
432.4171, 77.56689
432.8993, 68.43555
433.3814, 77.68896
433.8635, 94.20361
434.3456, 93.58203
434.8277, 70.35449
435.3098, 49.86328
435.7920, 58.55811
436.2741, 93.25049
436.7562, 108.6328
437.2383, 81.86230
437.7204, 55.03955
438.2025, 61.30664
438.6847, 88.87842
439.1668, 97.90967
439.6489, 65.16895
440.1310, 12.08301
440.6131, 2.465332
441.0952, 72.86768
441.5774, 114.4722
442.0595, 86.64209
442.5416, 40.38867
443.0237, 23.99951
443.5058, 44.46973
443.9879, 75.65918
444.4701, 89.20850
444.9522, 83.12207
445.4343, 73.16553
445.9164, 40.65430
446.3985, 23.36719
446.8806, 55.60303
447.3628, 109.3530
447.8449, 129.6284
448.3270, 81.31543
448.8091, 4.099121
449.2912, 41.83887
449.7733, 13.66895
450.2555, 11.79199
450.7376, 13.04639
451.2197, 7.203125
451.7018, 7.232422
452.1839, 15.17188
452.6660, 22.54248
453.1482, 20.23193
453.6303, 10.92285
454.1124, 7.399902
454.5945, 12.28369
455.0766, 20.50195
455.5587, 31.58105
456.0409, 43.38770
456.5230, 47.90820
457.0051, 34.44287
457.4872, 19.78711
457.9693, 22.29297
458.4514, 38.76855
458.9336, 49.73535
459.4156, 44.30078
459.8978, 29.51465
460.3799, 24.97998
460.8620, 38.05322
461.3441, 45.64209
461.8262, 36.23584
462.3083, 23.33594
462.7905, 24.95605
463.2726, 42.64795
463.7547, 58.91455
464.2368, 53.93311
464.7189, 23.92529
465.2010, 5.701660
465.6832, 3.918945
466.1653, 8.225098
466.6474, 24.54492
467.1295, 42.92725
467.6116, 45.31445
468.0938, 21.19092
468.5759, 14.26025
469.0580, 23.58350
469.5401, 6.832520
470.0222, 24.52539
470.5043, 3.142090
470.9865, 21.19385
471.4686, 22.79297
471.9507, 1.283691
472.4328, 21.10303
472.9149, 26.25879
473.3970, 18.74072
473.8792, 15.73047
474.3613, 19.17676
474.8434, 22.06641
475.3255, 16.98486
475.8076, 8.320313
476.2897, 5.184570
476.7719, 9.403320
477.2540, 18.87012
477.7361, 40.81494
478.2182, 68.28076
478.7003, 74.90576
479.1824, 47.33643
479.6646, 9.187012
480.1467, 0.6406250
480.6288, 31.53857
481.1109, 48.28125
481.5930, 33.34473
482.0751, 12.59814
482.5573, 4.358398
483.0394, 8.122070
483.5215, 14.10547
484.0036, 15.50391
484.4857, 12.80615
484.9678, 9.229980
485.4500, 3.593750
485.9321, 1.418945
486.4142, 6.973633
486.8963, 10.98682
487.3784, 10.76855
487.8605, 5.884766
488.3427, 0.5063480
488.8248, 4.806152
489.3069, 6.906738
489.7890, 9.443848
490.2711, 12.99072
490.7532, 16.42822
491.2354, 20.33789
491.7175, 23.72168
492.1996, 23.81689
492.6817, 15.59521
493.1638, 7.713867
493.6459, 13.63037
494.1281, 32.11133
494.6102, 45.55273
495.0923, 46.78711
495.5744, 40.15625
496.0565, 31.86133
496.5386, 20.63721
497.0208, 12.92041
497.5029, 9.132324
497.9850, 10.13770
498.4671, 19.21484
498.9492, 35.56689
499.4313, 51.86621
499.9135, 63.17432
500.3956, 69.20947
500.8777, 66.35986
501.3598, 41.48633
501.8419, 23.57080
502.3240, 12.39404
502.8062, -3.570256
503.2883, 16.19424
503.7704, 27.03175
504.2525, 29.42191
504.7346, -1.935827
505.2167, 10.28488
505.6989, 5.041210
506.1810, -0.9184186
506.6631, 38.06592
507.1452, 49.31055
507.6273, 49.24072
508.1094, 44.67920
508.5916, 35.72852
509.0737, 26.06592
509.5558, 19.51758
510.0379, 16.18066
510.5200, 19.70508
511.0021, 35.74414
511.4843, 53.98682
511.9664, 55.51904
512.4485, 37.09180
512.9306, 28.13721
513.4127, 43.18555
513.8948, 66.56738
514.3770, 83.44189
514.8591, 93.06201
515.3412, 102.0273
515.8233, 115.6699
516.3054, 132.2285
516.7875, 140.0083
517.2697, 130.9253
517.7518, 122.7866
518.2339, 114.9995
518.7160, 110.1714
519.1981, 113.3359
519.6802, 124.1768
520.1624, 134.0879
520.6445, 133.6816
521.1266, 122.7944
521.6087, 107.3052
522.0908, 80.50635
522.5729, 59.45557
523.0551, 54.65674
523.5372, 58.97217
524.0193, 61.47656
524.5014, 58.71729
524.9835, 53.59570
525.4656, 47.62598
525.9478, 41.37012
526.4299, 37.23193
526.9120, 36.84131
527.3941, 39.25684
527.8762, 39.31592
528.3583, 36.78369
528.8405, 36.50879
529.3226, 49.74072
529.8047, 59.20850
530.2868, 43.42627
530.7689, 12.11572
531.2510, 5.997559
531.7332, 4.493652
532.2153, 31.45166
532.6974, 45.17725
533.1795, 39.41992
533.6616, 31.11914
534.1437, 17.85938
534.6259, 4.908203
535.1080, 6.468750
535.5901, 1.326448
536.0722, 16.71191
536.5543, 7.249023
537.0364, 9.422363
537.5186, 19.48926
538.0007, 20.63477
538.4828, 24.23193
538.9649, 39.88281
539.4470, 56.47705
539.9291, 58.05469
540.4113, 40.61133
540.8934, 29.49854
541.3755, 46.86572
541.8576, 74.69385
542.3397, 81.20801
542.8218, 63.55176
543.3040, 48.10254
543.7861, 55.62695
544.2682, 81.28418
544.7503, 89.58545
545.2324, 60.95117
545.7145, 42.92432
546.1967, 54.05518
546.6788, 75.29785
547.1609, 88.63428
547.6430, 89.08154
548.1251, 78.67871
548.6072, 54.22949
549.0894, 12.97852
549.5715, 2.599609
550.0536, 48.35498
550.5357, 89.54541
551.0178, 99.93262
551.4999, 94.35156
551.9821, 94.01416
552.4642, 106.6016
552.9463, 118.4741
553.4284, 110.4062
553.9105, 89.62939
554.3926, 90.76074
554.8748, 126.7188
555.3569, 160.1963
555.8390, 148.5884
556.3211, 93.23145
556.8032, 69.81299
557.2853, 112.3325
557.7675, 152.3960
558.2496, 152.4819
558.7317, 129.6992
559.2138, 113.0332
559.6959, 113.5010
560.1780, 124.8940
560.6602, 141.2144
561.1423, 166.0825
561.6244, 181.6338
562.1065, 174.6562
562.5886, 171.0029
563.0707, 184.2041
563.5529, 205.8223
564.0350, 221.8530
564.5171, 224.0513
564.9992, 221.7778
565.4813, 224.3320
565.9634, 230.8052
566.4456, 247.2988
566.9277, 280.5601
567.4098, 315.6172
567.8919, 333.4434
568.3740, 336.1147
568.8561, 343.7725
569.3383, 364.5034
569.8204, 386.4316
570.3025, 401.7261
570.7846, 412.0498
571.2667, 423.6143
571.7488, 439.1777
572.2310, 452.5684
572.7131, 450.5591
573.1952, 421.0811
573.6773, 409.0259
574.1594, 429.0210
574.6415, 450.8945
575.1237, 466.0503
575.6058, 472.6641
576.0879, 468.6421
576.5700, 450.9092
577.0521, 427.3096
577.5342, 410.2222
578.0164, 399.7715
578.4985, 389.1025
578.9806, 379.9688
579.4627, 365.2471
579.9448, 331.2227
580.4269, 280.7925
580.9091, 241.2773
581.3912, 224.1885
581.8733, 213.3213
582.3554, 197.7681
582.8375, 179.1997
583.3196, 161.3726
583.8018, 145.7744
584.2839, 135.2046
584.7660, 136.0933
585.2481, 155.5796
585.7302, 166.4429
586.2123, 170.0835
586.6945, 164.5845
587.1766, 140.0947
587.6587, 107.1748
588.1408, 84.72510
588.6229, 82.78564
589.1050, 91.79932
589.5872, 102.2656
590.0693, 113.7222
590.5514, 116.9150
591.0335, 106.4150
591.5156, 93.79004
591.9977, 91.86963
592.4799, 99.14746
592.9620, 103.5576
593.4441, 109.5308
593.9262, 106.2197
594.4083, 77.88477
594.8904, 37.32373
595.3726, 10.91553
595.8547, 7.564941
596.3368, 17.31494
596.8189, 26.20654
597.3010, 33.32861
597.7831, 42.79541
598.2653, 68.04980
598.7474, 80.78418
599.2295, 62.52539
599.7116, 28.70068
600.1937, 2.196289
600.6758, 8.935059
601.1580, 10.03662
601.6401, 2.467773
602.1222, 11.44922
602.6043, 20.04980
603.0864, 20.52734
603.5685, 19.05713
604.0507, 22.20215
604.5328, 28.56543
605.0149, 27.33838
605.4970, 4.244141
605.9791, 10.52002
606.4612, 1.783691
606.9434, 24.87402
607.4255, 35.63281
607.9076, 29.61035
608.3897, 20.35645
608.8718, 23.43018
609.3539, 38.49268
609.8361, 41.46484
610.3182, 22.48779
610.8003, 7.798340
611.2824, 7.948730
611.7645, 15.50146
612.2466, 24.85840
612.7288, 35.10400
613.2109, 39.82715
613.6930, 24.28369
614.1751, 3.416992
614.6572, 12.54541
615.1393, 53.56641
615.6215, 82.26807
616.1036, 67.21436
616.5857, 21.94727
617.0678, 4.002441
617.5499, 6.542969
618.0320, 13.28418
618.5142, 8.807129
618.9963, 4.695313
619.4784, 12.45557
619.9605, 29.22217
620.4426, 42.76074
620.9247, 45.15527
621.4069, 37.74463
621.8890, 20.66846
622.3711, 9.313232
622.8532, 29.43604
623.3353, 30.42676
623.8174, 22.50293
624.2996, 16.58740
624.7817, 12.38159
625.2638, 4.503418
625.7459, 15.74780
626.2280, 33.92627
626.7101, 34.69629
627.1923, 24.22876
627.6744, 19.85474
628.1565, 28.59888
628.6386, 42.99341
629.1207, 50.29614
629.6028, 47.75342
630.0850, 49.57690
630.5671, 63.28369
631.0492, 73.34644
631.5313, 75.59448
632.0134, 70.92822
632.4955, 58.86133
632.9777, 37.61035
633.4598, 18.96582
633.9419, 17.64502
634.4240, 28.53003
634.9061, 33.28564
635.3882, 28.59155
635.8704, 25.54590
636.3525, 35.13818
636.8346, 53.63574
637.3167, 56.73975
637.7988, 21.85059
638.2809, 3.592529
638.7631, 29.75879
639.2452, 64.14771
639.7273, 69.62769
640.2094, 46.36304
640.6915, 63.01489
641.1736, 27.64771
641.6558, 43.50610
642.1379, 47.82471
642.6200, 6.101318
643.1021, 23.79541
643.5842, 17.66431
644.0663, 10.54077
644.5485, 36.56909
645.0306, 1.492920
645.5127, 26.98706
645.9948, 28.30029
646.4769, 40.67505
646.9590, 29.08154
647.4412, 24.88208
647.9233, 44.64868
648.4054, 51.13672
648.8875, 36.76050
649.3696, 49.80347
649.8517, 13.84106
650.3339, 20.86938
650.8160, 46.44507
651.2981, 33.24854
651.7802, 46.71411
652.2623, 50.02368
652.7444, 7.187256
653.2266, 44.56396
653.7087, 47.22119
654.1908, 14.28125
654.6729, 48.92334
655.1550, 20.88574
655.6371, 15.21240
656.1193, 26.36670
656.6014, 19.96484
657.0835, 41.22583
657.5656, 35.82397
658.0477, 27.96484
658.5298, 29.94043
659.0120, 22.25293
659.4941, 29.96631
659.9762, 20.43140
660.4583, 29.43262
660.9404, 42.61816
661.4225, 23.59326
661.9047, 38.67627
662.3868, 1.166992
662.8689, 7.718994
663.3510, 9.306396
663.8331, 38.46729
664.3152, 0.8618160
664.7974, 6.301758
665.2795, 30.29932
665.7616, 29.04150
666.2437, 38.00903
666.7258, 15.07251
667.2079, 21.67236
667.6901, 20.09253
668.1722, 46.72778
668.6543, 51.10938
669.1364, 29.12231
669.6185, 7.715820
670.1006, 36.57007
670.5828, 16.89795
671.0649, 35.86499
671.5470, 40.78027
672.0291, 31.36499
672.5112, 17.97021
672.9933, 10.37549
673.4755, 7.564941
673.9576, 12.16284
674.4397, 40.06543
674.9218, 64.24072
675.4039, 57.77881
675.8860, 31.44019
676.3682, 12.78931
676.8503, 12.68311
677.3324, 22.87793
677.8145, 31.17896
678.2966, 36.64868
678.7787, 48.36230
679.2609, 76.51465
679.7430, 95.51270
680.2251, 87.98926
680.7072, 68.30249
681.1893, 55.96045
681.6714, 54.86670
682.1536, 58.75610
682.6357, 67.79736
683.1178, 77.99780
683.5999, 86.00977
684.0820, 90.00024
684.5641, 82.67749
685.0463, 58.55176
685.5284, 27.02808
686.0105, 10.74048
686.4926, 16.69702
686.9747, 21.10132
687.4568, 15.98779
687.9390, 17.37866
688.4211, 40.42212
688.9032, 72.93970
689.3853, 91.77271
689.8674, 88.18018
690.3495, 75.52539
690.8317, 62.16650
691.3138, 48.59863
691.7959, 35.20166
692.2780, 22.29150
692.7601, 12.90796
693.2422, 9.450439
693.7244, 11.45410
694.2065, 16.08350
694.6886, 22.28223
695.1707, 30.24194
695.6528, 44.06006
696.1349, 55.30249
696.6171, 57.92554
697.0992, 53.36963
697.5813, 46.21045
698.0634, 37.60913
698.5455, 31.74219
699.0276, 31.21973
699.5098, 34.74463
699.9919, 37.71680
700.4740, 39.34204
700.9561, 43.05762
701.4382, 49.99902
701.9203, 58.99072
702.4025, 66.07300
702.8846, 72.97095
703.3667, 76.64771
703.8488, 73.05981
704.3309, 67.98926
704.8130, 63.05273
705.2952, 59.55054
705.7773, 60.47778
706.2594, 69.46387
706.7415, 80.40332
707.2236, 83.91968
707.7057, 81.06958
708.1879, 78.85449
708.6700, 79.19360
709.1521, 81.88330
709.6342, 87.42847
710.1163, 95.22681
710.5984, 95.44580
711.0806, 79.81641
711.5627, 69.17358
712.0448, 70.40259
712.5269, 74.31348
713.0090, 71.74854
713.4911, 63.59546
713.9733, 59.00610
714.4554, 66.62378
714.9375, 77.52271
715.4196, 75.70972
715.9017, 62.67065
716.3839, 48.98218
716.8660, 36.00269
717.3481, 29.57373
717.8302, 39.00488
718.3123, 64.22559
718.7944, 70.60156
719.2766, 35.81055
719.7587, 12.59888
720.2408, 20.45117
720.7229, 36.30786
721.2050, 38.38330
721.6871, 26.11450
722.1693, 11.99390
722.6514, 2.484863
723.1335, 1.214600
723.6156, 6.108643
724.0977, 22.50562
724.5798, 33.36914
725.0620, 35.03223
725.5441, 30.08862
726.0262, 19.25635
726.5083, 2.445313
726.9904, 4.824463
727.4725, 11.44458
727.9547, 18.78784
728.4368, 23.34938
728.9189, 28.50745
729.4010, 31.22998
729.8831, 35.89648
730.3652, 30.98071
730.8474, 32.20769
731.3295, 14.18188
731.8116, 20.74756
732.2937, 13.25439
732.7758, 7.791504
733.2579, 8.176270
733.7401, 13.77295
734.2222, 25.46582
734.7043, 42.91846
735.1864, 53.18652
735.6685, 50.88184
736.1506, 47.94507
736.6328, 41.83447
737.1149, 38.59521
737.5970, 13.80669
738.0791, 40.14790
738.5612, 55.33034
739.0433, 59.95352
739.5255, 22.39209
740.0076, 39.30352
740.4897, 34.38451
740.9718, 28.57043
741.4539, 53.14869
741.9360, 21.72261
742.4182, 45.81911
742.9003, 68.92212
743.3824, 73.77002
743.8645, 38.63843
744.3466, 14.55176
744.8287, 12.26416
745.3109, 18.12769
745.7930, 27.08276
746.2751, 37.05371
746.7572, 42.67163
747.2393, 38.69092
747.7214, 34.64893
748.2036, 41.43945
748.6857, 52.94873
749.1678, 58.25854
749.6499, 55.24731
750.1320, 43.96240
750.6141, 22.79932
751.0963, 3.927002
751.5784, 19.04492
752.0605, 20.83008
752.5426, 15.51953
753.0247, 4.001221
753.5068, 22.16016
753.9890, 31.47144
754.4711, 32.00586
754.9532, 22.83984
755.4353, 6.185059
755.9174, 26.55444
756.3995, 12.59326
756.8817, 11.46680
757.3638, 12.46777
757.8459, 7.812500
758.3280, 23.01514
758.8101, 16.09082
759.2922, 1.504150
759.7744, 1.475342
760.2565, 19.74487
760.7386, 20.01416
761.2207, 17.27979
761.7028, 50.65503
762.1849, 47.37622
762.6671, 22.61621
763.1492, 16.99243
763.6313, 44.24634
764.1134, 60.43896
764.5955, 49.23804
765.0776, 28.92261
765.5598, 7.357910
766.0419, 11.17773
766.5240, 19.39722
767.0061, 13.92163
767.4882, 17.94066
767.9703, 6.028320
768.4525, 15.32666
768.9346, 17.48584
769.4167, 11.26099
769.8988, 0.1525880
770.3809, 17.37427
770.8630, 34.50781
771.3452, 36.21313
771.8273, 12.24219
772.3094, 3.008057
772.7915, 17.07764
773.2736, 35.67651
773.7557, 60.55762
774.2379, 81.13965
774.7200, 80.22949
775.2021, 54.89062
775.6842, 29.16162
776.1663, 18.83081
776.6484, 20.27783
777.1306, 32.59033
777.6127, 52.48218
778.0948, 64.86304
778.5769, 63.58276
779.0590, 59.67896
779.5411, 69.25000
780.0233, 92.90356
780.5054, 93.78003
780.9875, 46.73560
781.4696, 19.64673
781.9517, 47.00635
782.4338, 85.93408
782.9160, 99.10742
783.3981, 88.52368
783.8802, 86.84961
784.3623, 115.2095
784.8444, 144.5110
785.3265, 151.2136
785.8087, 149.6765
786.2908, 165.9351
786.7729, 201.2075
787.2550, 234.9517
787.7371, 250.5168
788.2192, 255.1147
788.7014, 268.4229
789.1835, 291.0662
789.6656, 311.2300
790.1477, 320.3250
790.6298, 340.5159
791.1119, 394.5730
791.5941, 474.7039
792.0762, 544.1609
792.5583, 598.0691
793.0404, 648.7073
793.5225, 681.5645
794.0046, 725.5537
794.4868, 804.2427
794.9689, 910.5491
795.4510, 1026.320
795.9331, 1144.022
796.4152, 1266.625
796.8973, 1396.615
797.3795, 1534.030
797.8616, 1677.092
798.3437, 1826.676
798.8258, 1989.173
799.3079, 2167.972
799.7900, 2361.612
800.2722, 2566.874
800.7543, 2787.453
801.2364, 3008.377
801.7185, 3221.457
802.2006, 3445.272
802.6827, 3696.549
803.1649, 3953.578
803.6470, 4193.034
804.1291, 4413.404
804.6112, 4611.983
805.0933, 4788.855
805.5754, 4942.912
806.0576, 5068.396
806.5397, 5170.257
807.0218, 5256.459
807.5039, 5329.310
807.9860, 5387.381
808.4681, 5432.834
808.9503, 5458.998
809.4324, 5442.988
809.9145, 5384.585
810.3966, 5301.281
810.8787, 5188.333
811.3608, 5076.886
811.8430, 4999.850
812.3251, 4950.727
812.8072, 4877.513
813.2893, 4772.330
813.7714, 4653.525
814.2535, 4514.419
814.7357, 4373.898
815.2178, 4250.295
815.6999, 4132.880
816.1820, 3991.572
816.6641, 3809.282
817.1462, 3639.561
817.6284, 3533.875
818.1105, 3461.281
818.5926, 3373.622
819.0747, 3271.945
819.5568, 3177.388
820.0389, 3100.565
820.5211, 3034.161
821.0032, 2967.751
821.4853, 2901.089
821.9674, 2834.376
822.4495, 2759.668
822.9316, 2705.844
823.4138, 2699.971
823.8959, 2706.931
824.3780, 2674.357
824.8601, 2601.593
825.3422, 2559.078
825.8243, 2585.414
826.3065, 2605.656
826.7886, 2576.609
827.2707, 2537.935
827.7528, 2534.057
828.2349, 2565.411
828.7170, 2600.483
829.1992, 2617.103
829.6813, 2633.201
830.1633, 2676.834
830.6454, 2740.216
831.1276, 2798.642
831.6097, 2848.164
832.0918, 2888.908
832.5739, 2918.901
833.0560, 2945.268
833.5381, 2990.146
834.0203, 3060.222
834.5024, 3124.860
834.9845, 3185.461
835.4666, 3237.006
835.9487, 3279.607
836.4308, 3311.363
836.9130, 3326.458
837.3951, 3321.516
837.8772, 3319.104
838.3593, 3337.641
838.8414, 3346.787
839.3235, 3328.330
839.8057, 3287.994
840.2878, 3230.964
840.7699, 3161.146
841.2520, 3091.656
841.7341, 3042.633
842.2162, 2992.347
842.6984, 2892.001
843.1805, 2751.405
843.6626, 2623.804
844.1447, 2522.435
844.6268, 2430.559
845.1089, 2334.730
845.5911, 2234.760
846.0732, 2124.957
846.5553, 1995.783
847.0374, 1882.207
847.5195, 1794.236
848.0016, 1713.572
848.4838, 1630.073
848.9659, 1545.991
849.4480, 1467.323
849.9301, 1398.068
850.4122, 1320.884
850.8943, 1211.550
851.3765, 1111.427
851.8586, 1059.454
852.3407, 1033.395
852.8228, 994.8540
853.3049, 933.1667
853.7870, 864.3413
854.2692, 795.0439
854.7513, 731.8540
855.2334, 682.0698
855.7155, 648.4829
856.1976, 650.7192
856.6797, 694.4668
857.1619, 750.0386
857.6440, 792.7744
858.1261, 822.4565
858.6082, 839.3711
859.0903, 844.4902
859.5724, 833.5332
860.0546, 802.5293
860.5367, 760.0208
861.0188, 715.7290
861.5009, 663.1992
861.9830, 582.6392
862.4651, 451.4688
862.9473, 346.4714
863.4294, 288.4729
863.9115, 254.1943
864.3936, 239.0950
864.8757, 234.6541
865.3578, 232.0427
865.8400, 228.4521
866.3221, 220.8906
866.8042, 195.9917
867.2863, 173.4500
867.7684, 182.8330
868.2505, 217.5378
868.7327, 267.7639
869.2148, 327.7791
869.6969, 357.0015
870.1790, 310.4436
870.6611, 221.6479
871.1432, 222.1621
871.6254, 329.0652
872.1075, 387.8452
872.5896, 372.7644
873.0717, 318.0320
873.5538, 226.3252
874.0359, 119.4832
874.5181, 59.13501
875.0002, 68.09619
875.4823, 73.11597
875.9644, 72.12427
876.4465, 69.25854
876.9286, 65.42505
877.4108, 61.09131
877.8929, 56.60352
878.3750, 52.03613
878.8571, 47.81592
879.3392, 47.91309
879.8214, 44.63574
880.3035, 24.50537
880.7856, 7.6903999E-02
881.2677, 4.021729
881.7498, 12.03540
882.2319, 19.90796
882.7141, 2.937988
883.1962, 33.65698
883.6783, 24.27002
884.1604, 17.37354
884.6425, 38.05420
885.1246, 30.94507
885.6068, 20.98413
886.0889, 20.44873
886.5710, 28.04028
887.0531, 43.66797
887.5352, 71.83691
888.0173, 81.45532
888.4995, 61.86304
888.9816, 42.01831
889.4637, 33.56274
889.9458, 26.63086
890.4279, 7.550537
890.9100, 21.83789
891.3922, 37.51050
891.8743, 28.23389
892.3564, 15.14160
892.8385, 2.428711
893.3206, 15.26587
893.8027, 11.86279
894.2849, 3.051758
894.7670, 15.40845
895.2491, 19.44238
895.7312, 20.39038
896.2133, 23.89429
896.6954, 26.50928
897.1776, 22.03174
897.6597, 11.64453
898.1418, 0.2597660
898.6239, 10.24976
899.1060, 20.59155
899.5881, 33.88770
900.0703, 46.83105
900.5524, 41.22754
901.0345, 16.01782
901.5166, 3.781738
901.9987, 12.45850
902.4808, 15.37378
902.9630, 17.60083
903.4451, 17.24805
903.9272, 29.55749
904.4093, 27.81348
904.8914, 51.08594
905.3735, 57.37427
905.8557, 60.61060
906.3378, 71.19507
906.8199, 80.28687
907.3020, 69.75732
907.7841, 34.60425
908.2662, 18.31396
908.7484, 48.78149
909.2305, 80.02148
909.7126, 89.78955
910.1947, 87.72754
910.6768, 84.19971
911.1589, 82.13672
911.6411, 80.53223
912.1232, 77.78296
912.6053, 74.15454
913.0874, 67.60767
913.5695, 61.67480
914.0516, 68.01538
914.5338, 82.64087
915.0159, 80.37012
915.4980, 49.19116
915.9801, 17.47266
916.4622, 33.31787
916.9443, 86.04565
917.4265, 99.08496
917.9086, 70.59790
918.3907, 47.62988
918.8728, 43.57300
919.3549, 50.96729
919.8370, 64.93652
920.3192, 83.49463
920.8013, 92.49854
921.2834, 89.84448
921.7655, 82.34985
922.2476, 64.10693
922.7297, 49.68164
923.2119, 49.27271
923.6940, 57.67993
924.1761, 68.66724
924.6582, 85.70142
925.1403, 97.64136
925.6224, 101.6035
926.1046, 101.7500
926.5867, 92.64282
927.0688, 85.47583
927.5509, 94.40112
928.0330, 118.5576
928.5151, 143.5842
928.9973, 165.8904
929.4794, 182.0728
929.9615, 183.9238
930.4436, 182.2092
930.9257, 190.3953
931.4078, 208.8018
931.8900, 233.9048
932.3721, 264.4473
932.8542, 294.9453
933.3363, 314.5842
933.8184, 330.7988
934.3005, 369.9929
934.7827, 427.4673
935.2648, 466.8677
935.7469, 477.4177
936.2290, 478.2021
936.7111, 487.5947
937.1932, 500.3564
937.6754, 492.6299
938.1575, 460.0610
938.6396, 449.1909
939.1217, 474.9536
939.6038, 489.0168
940.0859, 459.7126
940.5681, 409.8645
941.0502, 381.2739
941.5323, 382.4177
942.0144, 371.3413
942.4965, 336.9995
942.9786, 304.2588
943.4608, 276.3257
943.9429, 253.4778
944.4250, 238.1284
944.9071, 228.3918
945.3892, 215.9458
945.8713, 193.4473
946.3535, 178.7432
946.8356, 187.8003
947.3177, 194.9150
947.7998, 181.0857
948.2819, 153.4292
948.7640, 121.2415
949.2462, 87.65625
949.7283, 65.22754
950.2104, 68.77637
950.6925, 78.34326
951.1746, 73.75146
951.6567, 63.23950
952.1389, 61.18262
952.6210, 67.74951
953.1031, 75.50220
953.5852, 81.28784
954.0673, 79.67944
954.5494, 53.55640
955.0316, 17.35669
955.5137, 14.42090
955.9958, 41.57471
956.4779, 60.24048
956.9600, 56.20410
957.4421, 45.02759
957.9243, 44.02832
958.4064, 50.94360
958.8885, 55.19922
959.3706, 56.45337
959.8527, 59.49341
960.3348, 66.68188
960.8170, 66.65283
961.2991, 49.59009
961.7812, 25.23047
962.2633, 15.35815
962.7454, 22.95142
963.2275, 29.84253
963.7097, 36.39111
964.1918, 41.66431
964.6739, 46.95630
965.1560, 49.24707
965.6381, 41.72705
966.1202, 25.93066
966.6024, 22.73413
967.0845, 54.91455
967.5666, 66.15649
968.0487, 31.35547
968.5308, 5.017578
969.0129, 19.79785
969.4951, 19.22681
969.9772, 12.99072
970.4593, 1.796143
970.9414, 4.341797
971.4235, 5.250244
971.9056, 12.68286
972.3878, 7.649658
972.8699, 3.742676
973.3520, 17.83569
973.8341, 31.42773
974.3162, 38.41553
974.7983, 34.75659
975.2805, 29.78003
975.7626, 32.39551
976.2447, 36.18921
976.7268, 31.56665
977.2089, 22.13818
977.6910, 17.32373
978.1732, 19.47461
978.6553, 24.44238
979.1374, 32.42725
979.6195, 36.27026
980.1016, 14.05054
980.5837, 20.50659
981.0659, 22.51294
981.5480, 8.696777
982.0301, 36.93726
982.5122, 43.91211
982.9943, 37.63989
983.4764, 25.41260
983.9586, 9.738525
984.4407, 7.850098
984.9228, 19.38867
985.4049, 25.41675
985.8870, 20.46436
986.3691, 16.67285
986.8513, 25.39185
987.3334, 17.27637
987.8155, 38.24536
988.2976, 15.48096
988.7797, 6.939697
989.2618, 17.23511
989.7440, 32.06982
990.2261, 50.36060
990.7082, 62.06104
991.1903, 52.30762
991.6724, 21.74658
992.1545, 1.352051
992.6367, 18.18384
993.1188, 24.68042
993.6009, 15.23926
994.0830, 1.878418
994.5651, 9.749268
995.0472, 20.04224
995.5294, 30.82495
996.0115, 44.24585
996.4936, 49.03809
996.9757, 37.06323
997.4578, 26.43042
997.9399, 20.30981
998.4221, 18.87378
998.9042, 25.55420
999.3863, 37.13013
999.8684, 42.28687
1000.351, 35.72485
1000.833, 30.59766
1001.315, 29.73022
1001.797, 32.11523
1002.279, 40.21558
1002.761, 49.41870
1003.243, 53.92456
1003.725, 53.07202
1004.207, 49.42969
1004.690, 40.53149
1005.172, 34.35767
1005.654, 39.36157
1006.136, 46.26147
1006.618, 41.85547
1007.100, 32.23706
1007.582, 34.96899
1008.064, 54.94531
1008.547, 72.75464
1009.029, 73.81177
1009.511, 66.16064
1009.993, 53.12744
1010.475, 39.56104
1010.957, 33.04370
1011.439, 34.05908
1011.921, 41.19336
1012.403, 54.70972
1012.886, 63.13306
1013.368, 46.58521
1013.850, 20.27954
1014.332, 12.11133
1014.814, 18.59424
1015.296, 28.35474
1015.778, 37.29883
1016.260, 38.48657
1016.742, 24.27783
1017.225, 7.998291
1017.707, 16.22046
1018.189, 42.13403
1018.671, 64.23145
1019.153, 79.86206
1019.635, 81.04321
1020.117, 64.78882
1020.599, 47.94751
1021.082, 49.91064
1021.564, 36.67944
1022.046, 27.78955
1022.528, 28.37354
1023.010, 14.73193
1023.492, 17.91382
1023.974, 25.68750
1024.456, 32.58252
1024.938, 36.76074
1025.421, 33.61816
1025.903, 24.57568
1026.385, 30.38159
1026.867, 54.44067
1027.349, 58.07129
1027.831, 27.74854
1028.313, 7.541016
1028.795, 31.86035
1029.278, 74.34277
1029.760, 74.34790
1030.242, 24.72046
1030.724, 2.442871
1031.206, 15.40845
1031.688, 26.38721
1032.170, 22.32153
1032.652, 20.33667
1033.135, 38.48535
1033.617, 69.05176
1034.099, 82.32129
1034.581, 73.03394
1035.063, 61.05396
1035.545, 43.89307
1036.027, 28.67529
1036.509, 13.26318
1036.991, 7.127441
1037.474, 27.32104
1037.956, 69.07666
1038.438, 82.71411
1038.920, 48.42627
1039.402, 31.74146
1039.884, 49.02515
1040.366, 61.89673
1040.848, 46.49414
1041.330, 21.80200
1041.813, 14.26147
1042.295, 25.02686
1042.777, 32.72998
1043.259, 32.76196
1043.741, 35.97583
1044.223, 54.04199
1044.705, 64.64282
1045.187, 44.16943
1045.670, 12.61548
1046.152, 7.081543
1046.634, 33.84351
1047.116, 49.14868
1047.598, 37.62329
1048.080, 29.90332
1048.562, 36.23169
1049.044, 45.54688
1049.526, 52.40869
1050.009, 54.94922
1050.491, 50.15015
1050.973, 36.70630
1051.455, 25.10742
1051.937, 13.26562
1052.419, 8.553223
1052.901, 17.59058
1053.383, 31.04663
1053.865, 41.25854
1054.348, 47.68970
1054.830, 52.32129
1055.312, 55.96118
1055.794, 55.79517
1056.276, 51.42773
1056.758, 43.53735
1057.240, 24.84814
1057.722, 7.877441
1058.205, 8.267822
1058.687, 23.57959
1059.169, 38.48877
1059.651, 48.95166
1060.133, 59.32764
1060.615, 82.85132
1061.097, 93.53418
1061.579, 55.79346
1062.062, 9.510742
1062.544, 11.02393
1063.026, 56.14600
1063.508, 88.60278
1063.990, 84.80298
1064.472, 77.63696
1064.954, 73.71948
1065.436, 73.78955
1065.918, 83.79297
1066.401, 94.68481
1066.883, 91.30908
1067.365, 73.55298
1067.847, 59.61206
1068.329, 58.45923
1068.811, 58.64771
1069.293, 58.46606
1069.775, 54.69385
1070.257, 37.05200
1070.740, 17.54346
1071.222, 17.61230
1071.704, 39.58667
1072.186, 62.14819
1072.668, 89.94238
1073.150, 99.36816
1073.632, 57.23486
1074.114, 12.76001
1074.597, 11.28662
1075.079, 35.23145
1075.561, 50.98779
1076.043, 51.23730
1076.525, 46.77832
1077.007, 36.32397
1077.489, 29.99048
1077.971, 36.90381
1078.453, 46.62378
1078.936, 47.44336
1079.418, 44.28931
1079.900, 50.41235
1080.382, 68.83545
1080.864, 82.67944
1081.346, 82.37695
1081.828, 78.51367
1082.310, 75.92114
1082.792, 72.89233
1083.275, 65.47070
1083.757, 56.90991
1084.239, 55.78027
1084.721, 64.44946
1085.203, 70.57275
1085.685, 63.88989
1086.167, 59.11719
1086.649, 69.91406
1087.131, 81.99292
1087.614, 78.72632
1088.096, 66.11450
1088.578, 62.93115
1089.060, 75.30933
1089.542, 79.34692
1090.024, 53.47192
1090.506, 31.29541
1090.988, 31.74219
1091.471, 42.66528
1091.953, 59.31201
1092.435, 74.89771
1092.917, 75.43188
1093.399, 56.28369
1093.881, 36.00952
1094.363, 15.22046
1094.845, 2.451172
1095.328, 9.209229
1095.810, 19.75659
1096.292, 18.02710
1096.774, 8.373779
1097.256, 3.663330
1097.738, 6.561279
1098.220, 15.09888
1098.702, 42.12061
1099.184, 57.54126
1099.667, 36.74634
1100.149, 8.691895
1100.631, 3.151855
1101.113, 0.5722660
1101.595, 9.559082
1102.077, 29.02710
1102.559, 38.15723
1103.041, 23.49512
1103.523, 8.792969
1104.006, 0.1005860
1104.488, 2.469482
1104.970, 3.322021
1105.452, 14.40698
1105.934, 23.27539
1106.416, 27.81665
1106.898, 36.32544
1107.380, 64.65405
1107.863, 77.86743
1108.345, 53.06274
1108.827, 20.75220
1109.309, 1.913574
1109.791, 5.753906
1110.273, 11.21948
1110.755, 17.11987
1111.237, 10.96289
1111.719, 30.14844
1112.202, 53.39990
1112.684, 32.13989
1113.166, 3.391357
1113.648, 9.954346
1114.130, 11.33081
1114.612, 8.724854
1115.094, 1.941650
1115.576, 7.504150
1116.058, 27.78564
1116.541, 38.37964
1117.023, 28.38306
1117.505, 16.65820
1117.987, 17.27563
1118.469, 10.03325
1118.951, 16.50830
1119.433, 5.179443
1119.915, 11.38232
1120.398, 10.80591
1120.880, 20.58496
1121.362, 0.3625490
1121.844, 14.41699
1122.326, 1.539307
1122.808, 31.91626
1123.290, 48.63867
1123.772, 51.28784
1124.255, 46.04224
1124.737, 26.19702
1125.219, 22.10156
1125.701, 46.61548
1126.183, 63.45728
1126.665, 49.25024
1127.147, 23.03052
1127.629, 14.03271
1128.111, 21.36255
1128.594, 27.23804
1129.076, 30.82251
1129.558, 42.19019
1130.040, 37.68764
1130.522, 71.20361
1131.004, 32.16821
1131.486, 12.50903
1131.968, 11.16138
1132.450, 27.40967
1132.933, 58.27173
1133.415, 81.29712
1133.897, 83.51050
1134.379, 63.03540
1134.861, 46.84912
1135.343, 46.73804
1135.825, 51.09033
1136.307, 44.79639
1136.790, 36.66479
1137.272, 64.10986
1137.754, 115.3872
1138.236, 114.5764
1138.718, 62.71680
1139.200, 20.51416
1139.682, 9.639404
1140.164, 20.69897
1140.646, 51.87939
1141.129, 83.45728
1141.611, 64.96802
1142.093, 97.65527
1142.575, 43.94019
1143.057, 108.7209
1143.539, 134.5706
1144.021, 102.8972
1144.503, 60.46289
1144.985, 36.93433
1145.468, 28.18701
1145.950, 39.50708
1146.432, 55.36279
1146.914, 49.69141
1147.396, 30.29370
1147.878, 15.10693
1148.360, 7.763916
1148.842, 3.767822
1149.325, 0.7380370
1149.807, 0.8659670
1150.289, 8.512695
1150.771, 17.54102
1151.253, 23.59937
1151.735, 26.46948
1152.217, 25.33252
1152.699, 21.10303
1153.182, 16.04053
1153.664, 9.821289
1154.146, 8.608154
1154.628, 20.97656
1155.110, 32.35791
1155.592, 34.62402
1156.074, 31.84888
1156.556, 25.00952
1157.038, 17.29492
1157.521, 15.84277
1158.003, 22.75439
1158.485, 29.10986
1158.967, 33.91260
1159.449, 37.12451
1159.931, 38.80273
1160.413, 38.70850
1160.895, 34.90210
1161.377, 29.95435
1161.860, 28.83667
1162.342, 32.04224
1162.824, 35.08960
1163.306, 39.28491
1163.788, 40.61719
1164.270, 34.37036
1164.752, 32.96045
1165.234, 46.76050
1165.717, 62.44629
1166.199, 61.06226
1166.681, 45.25635
1167.163, 40.05273
1167.645, 49.23853
1168.127, 50.22388
1168.609, 39.36572
1169.091, 31.00220
1169.573, 8.114746
1170.056, 36.01245
1170.538, 51.72729
1171.020, 55.86523
1171.502, 13.45459
1171.984, 30.38623
1172.466, 23.66284
1172.948, 16.32935
1173.430, 42.24805
1173.912, 7.104980
1174.395, 32.53369
1174.877, 33.78345
1175.359, 46.09912
1175.841, 34.47241
1176.323, 30.22559
1176.805, 49.94971
1177.287, 56.11670
1177.769, 41.04224
1178.252, 54.03711
1178.734, 18.05518
1179.216, 25.00488
1179.698, 49.71582
1180.180, 36.45215
1180.662, 49.90967
1181.144, 53.24414
1181.626, 10.45654
1182.109, 47.91797
1182.591, 50.66089
1183.073, 17.73315
1183.555, 52.39136
1184.037, 24.37524
1184.519, 18.72900
1185.001, 29.92310
1185.483, 24.27197
1185.965, 46.20605
1186.448, 40.86890
1186.930, 33.14087
1187.412, 35.80518
1187.894, 28.91528
1188.376, 36.95190
1188.858, 27.53491
1189.340, 35.92480
1189.822, 48.59985
1190.304, 29.76050
1190.787, 45.21924
1191.269, 8.178711
1191.751, 15.44775
1192.233, 17.81714
1192.715, 48.00122
1193.197, 10.67285
1193.679, 16.52417
1194.161, 40.82983
1194.644, 39.05884
1195.126, 47.81128
1195.608, 25.02783
1196.090, 31.84521
1196.572, 30.46997
1197.054, 57.29883
1197.536, 61.83594
1198.018, 39.54370
1198.500, 17.36499
1198.983, 46.22363
1199.465, 26.70801
1199.947, 33.29028
1200.429, 12.95044
1200.911, 16.01172
1201.393, 18.67114
1201.875, 33.13354
1202.357, 30.77490
1202.839, 36.63257
1203.322, 34.72241
1203.804, 40.81470
1204.286, 46.04199
1204.768, 49.38867
1205.250, 44.06909
1205.732, 54.97705
1206.214, 31.17773
1206.696, 20.48560
1207.179, 19.12036
1207.661, 61.84058
1208.143, 63.61743
1208.625, 16.43970
1209.107, 57.26733
1209.589, 43.94800
1210.071, 46.71753
1210.553, 43.61670
1211.036, 42.27002
1211.518, 44.66650
1212.000, 24.70264
1212.482, 54.01636
1212.964, 42.93164
1213.446, 59.28149
1213.928, 25.62451
1214.410, 21.64697
1214.892, 25.57056
1215.375, 32.33862
1215.857, 16.17578
1216.339, 22.04297
1216.821, 20.33911
1217.303, 17.72583
1217.785, 19.20557
1218.267, 15.99683
1218.749, 9.670654
1219.231, 40.25391
1219.714, 13.41113
1220.196, 40.92041
1220.678, 50.89722
1221.160, 37.34790
1221.642, 36.25513
1222.124, 11.50269
1222.606, 23.01733
1223.088, 22.05249
1223.571, 41.63574
1224.053, 16.95898
1224.535, 43.22314
1225.017, 19.71313
1225.499, 48.02075
1225.981, 23.44019
1226.463, 45.95337
1226.945, 12.24097
1227.427, 19.18604
1227.910, 29.37427
1228.392, 49.97559
1228.874, 30.53442
1229.356, 53.66113
1229.838, 39.39478
1230.320, 49.40454
1230.802, 45.90918
1231.284, 25.51709
1231.766, 53.02588
1232.249, 37.19531
1232.731, 50.64673
1233.213, 16.67041
1233.695, 40.35889
1234.177, 51.63599
1234.659, 60.36475
1235.141, 58.34033
1235.623, 57.09180
1236.106, 55.58301
1236.588, 48.33838
1237.070, 44.35693
1237.552, 32.93848
1238.034, 22.98242
1238.516, 15.72559
1238.998, 11.45166
1239.480, 10.26904
1239.963, 14.27808
1240.445, 25.86450
1240.927, 38.73315
1241.409, 47.11157
1241.891, 47.76025
1242.373, 23.47607
1242.855, 8.492432
1243.337, 6.894043
1243.819, 21.82861
1244.302, 38.38721
1244.784, 29.40527
1245.266, 17.37817
1245.748, 13.24463
1246.230, 12.13037
1246.712, 15.09497
1247.194, 16.36523
1247.676, 9.240479
1248.158, 11.02940
1248.641, 6.479004
1249.123, 7.627197
1249.605, 5.378418
1250.087, 4.136230
1250.569, 6.590576
1251.051, 4.296875
1251.533, 8.272949
1252.015, 2.023682
1252.498, 13.67017
1252.980, 17.39819
1253.462, 19.99731
1253.944, 35.67944
1254.426, 59.93335
1254.908, 55.71924
1255.390, 28.53760
1255.872, 40.65942
1256.354, 90.02026
1256.837, 105.4219
1257.319, 66.36890
1257.801, 21.61621
1258.283, 5.019531
1258.765, 7.358398
1259.247, 30.61694
1259.729, 54.98804
1260.211, 53.55786
1260.693, 38.63745
1261.176, 27.55811
1261.658, 22.24048
1262.140, 18.52173
1262.622, 15.09351
1263.104, 16.92065
1263.586, 27.97559
1264.068, 40.80884
1264.550, 59.04565
1265.033, 72.44897
1265.515, 73.94336
1265.997, 66.91553
1266.479, 57.73730
1266.961, 48.57397
1267.443, 41.27295
1267.925, 36.85522
1268.407, 26.48438
1268.890, 5.709961
1269.372, 3.060547
1269.854, 29.79126
1270.336, 45.71680
1270.818, 38.01636
1271.300, 22.58447
1271.782, 22.56104
1272.264, 16.60547
1272.746, 24.97681
1273.229, 15.94238
1273.711, 16.18164
1274.193, 22.34497
1274.675, 18.70752
1275.157, 4.612793
1275.639, 0.3083500
1276.121, 19.77612
1276.603, 33.03857
1277.085, 14.52954
1277.568, 1.013916
1278.050, 6.766602
1278.532, 22.02661
1279.014, 33.58447
1279.496, 41.70264
1279.978, 46.81519
1280.460, 47.74243
1280.942, 46.80518
1281.425, 43.78125
1281.907, 39.55029
1282.389, 30.76172
1282.871, 26.62134
1283.353, 23.97852
1283.835, 23.29785
1284.317, 20.47241
1284.799, 16.03516
1285.281, 11.72778
1285.764, 7.768066
1286.246, 3.042236
1286.728, 0.2385250
1287.210, 6.671631
1287.692, 18.09863
1288.174, 16.05566
1288.656, 0.0000000E+00
##END=



