##NAMES=Jinshajiangite
##RRUFFID=R061018
##IDEAL CHEMISTRY=NaBaFe^2+^_4_Ti_2_(Si_2_O_7_)_2_O_2_(OH)_2_F
##LOCALITY=Jinshajiang River, western Sichuan Province, China
##OWNER=RRUFF
##SOURCE=Pingqiu Fu
##DESCRIPTION=Brownish red cleavage fragments, portion of the type sample
##STATUS=The identification of this mineral is confirmed by single-crystal X-ray diffraction and chemical analysis.
##URL=rruff.info/R061018
##MEASURED CHEMISTRY=Na_0.71_(Ba_0.58_K_0.39_Ce_0.14_)_Σ=1.11_(Fe_1.93_Mn_1.91_Mg_0.03_)_Σ=3.87_(Ti_1.77_Si_0.15_Zr_0.09_Al_0.004_)_Σ=2.01_(Si_2_O_7_)_2_O_2_(OH)_2_F_0.52_
147.0803, 0.0000000E+00
147.5624, 50.60791
148.0446, 132.3445
148.5267, 222.4736
149.0088, 319.5964
149.4909, 408.5935
149.9730, 486.5815
150.4551, 550.5610
150.9372, 595.2878
151.4194, 616.3298
151.9015, 612.7134
152.3836, 598.5017
152.8657, 576.6211
153.3478, 543.3220
153.8299, 489.0176
154.3121, 418.0449
154.7942, 347.8381
155.2763, 293.3298
155.7584, 255.8652
156.2405, 218.6160
156.7226, 173.3613
157.2048, 135.4783
157.6869, 115.0894
158.1690, 111.1746
158.6511, 112.5623
159.1332, 107.7622
159.6153, 95.70532
160.0975, 92.27539
160.5796, 99.41211
161.0617, 113.6628
161.5438, 137.5181
162.0259, 170.4084
162.5080, 202.5742
162.9902, 220.6943
163.4723, 222.2305
163.9544, 234.8315
164.4365, 260.4341
164.9186, 296.6804
165.4007, 339.1833
165.8829, 381.0684
166.3650, 439.4219
166.8471, 488.9927
167.3292, 521.0044
167.8113, 553.9460
168.2934, 574.7346
168.7756, 587.6404
169.2577, 588.1067
169.7398, 563.3542
170.2219, 528.3835
170.7040, 501.5151
171.1861, 485.0076
171.6683, 467.9585
172.1504, 452.3555
172.6325, 433.9473
173.1146, 401.5989
173.5967, 352.3455
174.0788, 302.1760
174.5610, 265.9314
175.0431, 241.7981
175.5252, 220.8821
176.0073, 205.6763
176.4894, 191.0657
176.9715, 167.8706
177.4537, 133.2595
177.9358, 99.62671
178.4179, 81.23511
178.9000, 74.77222
179.3821, 66.93262
179.8642, 51.91943
180.3464, 34.42017
180.8285, 21.86694
181.3106, 15.79468
181.7927, 10.98633
182.2748, 1.111572
182.7569, 12.04297
183.2391, 21.50977
183.7212, 19.17554
184.2033, 13.86572
184.6854, 23.62524
185.1675, 55.20483
185.6496, 82.55396
186.1318, 72.54297
186.6139, 37.31055
187.0960, 12.43457
187.5781, 18.57227
188.0602, 38.80859
188.5423, 43.25806
189.0245, 25.14209
189.5066, 7.228760
189.9887, 13.06299
190.4708, 34.78442
190.9529, 52.69434
191.4350, 60.68115
191.9172, 60.93237
192.3993, 56.02002
192.8814, 45.21362
193.3635, 32.20361
193.8456, 17.37305
194.3277, 2.117432
194.8099, 9.574219
195.2920, 12.30322
195.7741, 11.95679
196.2562, 19.61255
196.7383, 38.19580
197.2204, 56.05029
197.7026, 60.52954
198.1847, 57.46631
198.6668, 59.58960
199.1489, 72.25732
199.6310, 91.93799
200.1131, 115.5220
200.5953, 144.6160
201.0774, 170.5925
201.5595, 186.2351
202.0416, 194.3215
202.5237, 197.7827
203.0058, 192.1238
203.4880, 184.5466
203.9701, 186.7363
204.4522, 200.6191
204.9343, 218.0281
205.4164, 228.1038
205.8985, 233.9153
206.3807, 240.8677
206.8628, 250.2695
207.3449, 261.4202
207.8270, 275.3140
208.3091, 293.0088
208.7912, 306.3445
209.2734, 308.4675
209.7555, 302.9695
210.2376, 295.2500
210.7197, 284.2178
211.2018, 273.1907
211.6839, 268.6780
212.1661, 271.7600
212.6482, 268.6655
213.1303, 245.8257
213.6124, 213.2544
214.0945, 188.2524
214.5766, 175.4866
215.0588, 168.8613
215.5409, 163.0952
216.0230, 158.1907
216.5051, 155.5078
216.9872, 157.3770
217.4693, 161.3760
217.9515, 163.0305
218.4336, 160.3235
218.9157, 157.6150
219.3978, 159.0767
219.8799, 164.4670
220.3620, 169.6504
220.8442, 172.8625
221.3263, 174.7952
221.8084, 176.5073
222.2905, 177.0935
222.7726, 179.1873
223.2547, 185.0542
223.7369, 194.3452
224.2190, 205.1438
224.7011, 219.3979
225.1832, 232.3792
225.6653, 235.8115
226.1474, 225.9060
226.6296, 217.2859
227.1117, 222.6165
227.5938, 237.1277
228.0759, 241.1982
228.5580, 222.2615
229.0401, 198.5115
229.5223, 200.7917
230.0044, 234.5691
230.4865, 265.4338
230.9686, 277.1870
231.4507, 274.8074
231.9328, 267.9070
232.4150, 255.8667
232.8971, 246.8711
233.3792, 257.2227
233.8613, 288.8076
234.3434, 313.3811
234.8255, 314.4119
235.3077, 304.0261
235.7898, 304.3604
236.2719, 322.0505
236.7540, 343.9543
237.2361, 352.3906
237.7182, 346.6462
238.2004, 343.9614
238.6825, 348.8806
239.1646, 358.3770
239.6467, 370.4187
240.1288, 384.7253
240.6109, 395.6812
241.0931, 395.8486
241.5752, 385.0713
242.0573, 382.8840
242.5394, 397.7051
243.0215, 414.4817
243.5036, 422.8403
243.9858, 424.0337
244.4679, 420.8789
244.9500, 411.3486
245.4321, 393.3037
245.9142, 383.4578
246.3963, 391.7751
246.8785, 402.9775
247.3606, 405.8228
247.8427, 399.8333
248.3248, 392.3289
248.8069, 389.7922
249.2890, 392.1267
249.7712, 389.5493
250.2533, 374.1924
250.7354, 363.0691
251.2175, 365.5054
251.6996, 378.1482
252.1817, 392.6904
252.6639, 404.3855
253.1460, 412.8721
253.6281, 418.7451
254.1102, 421.1704
254.5923, 422.9651
255.0744, 426.5681
255.5566, 429.1033
256.0387, 423.4390
256.5208, 405.6726
257.0029, 383.7432
257.4850, 378.4297
257.9671, 416.4297
258.4492, 439.7673
258.9314, 434.4192
259.4135, 417.8958
259.8956, 408.3542
260.3777, 412.7932
260.8598, 424.8032
261.3419, 433.6321
261.8241, 438.1912
262.3062, 440.9146
262.7883, 445.2776
263.2704, 445.6750
263.7525, 436.1003
264.2346, 416.5935
264.7168, 393.8726
265.1989, 375.8730
265.6810, 363.5405
266.1631, 352.7393
266.6452, 343.5095
267.1273, 335.5186
267.6095, 329.3835
268.0916, 324.5603
268.5737, 319.5208
269.0558, 312.9160
269.5379, 304.6770
270.0201, 296.0481
270.5022, 288.4758
270.9843, 278.9517
271.4664, 260.7212
271.9485, 240.0913
272.4306, 229.3586
272.9128, 237.8862
273.3949, 261.9912
273.8770, 282.7126
274.3591, 299.2756
274.8412, 313.2007
275.3233, 317.2825
275.8055, 321.6311
276.2876, 341.2537
276.7697, 385.2839
277.2518, 439.8523
277.7339, 473.7854
278.2160, 475.0608
278.6982, 488.3196
279.1803, 533.6838
279.6624, 590.9585
280.1445, 646.0706
280.6266, 695.4675
281.1087, 740.3755
281.5909, 780.0735
282.0730, 813.9453
282.5551, 852.1140
283.0372, 902.8345
283.5193, 954.0857
284.0014, 997.2017
284.4836, 1031.775
284.9657, 1060.491
285.4478, 1084.216
285.9299, 1103.485
286.4120, 1119.183
286.8941, 1130.013
287.3763, 1139.689
287.8584, 1156.434
288.3405, 1177.206
288.8226, 1184.818
289.3047, 1164.434
289.7868, 1129.045
290.2690, 1103.172
290.7511, 1091.206
291.2332, 1072.134
291.7153, 1025.859
292.1974, 958.8706
292.6795, 893.9780
293.1617, 839.9277
293.6438, 784.7036
294.1259, 711.9561
294.6080, 624.9644
295.0901, 550.7104
295.5722, 509.2114
296.0544, 489.2842
296.5365, 449.4780
297.0186, 369.9399
297.5007, 297.7651
297.9828, 256.6782
298.4649, 235.7271
298.9471, 212.9121
299.4292, 179.7275
299.9113, 139.9155
300.3934, 99.61670
300.8755, 49.70557
301.3576, 17.10596
301.8398, 18.26807
302.3219, 31.27588
302.8040, 31.75928
303.2861, 15.28467
303.7682, 2.368652
304.2503, 0.2504880
304.7325, 32.32227
305.2146, 46.19141
305.6967, 27.85742
306.1788, 5.342285
306.6609, 8.792480
307.1430, 13.67676
307.6252, 9.854980
308.1073, 4.451660
308.5894, 28.91699
309.0715, 39.74365
309.5536, 19.04346
310.0357, 2.856445
310.5179, 1.219238
311.0000, 4.090820
311.4821, 15.69824
311.9642, 32.87549
312.4463, 50.73438
312.9284, 54.73779
313.4106, 36.54395
313.8927, 20.18555
314.3748, 13.16895
314.8569, 8.116699
315.3390, 4.854980
315.8211, 27.82617
316.3033, 46.86475
316.7854, 41.14404
317.2675, 7.255859
317.7496, 19.50635
318.2317, 29.97510
318.7138, 35.68066
319.1960, 40.89551
319.6781, 46.77100
320.1602, 57.21240
320.6423, 82.48438
321.1244, 115.3677
321.6065, 124.6689
322.0887, 96.50439
322.5708, 73.78320
323.0529, 91.83887
323.5350, 136.6738
324.0171, 181.2100
324.4992, 217.5503
324.9814, 250.1401
325.4635, 286.8618
325.9456, 327.5923
326.4277, 356.2129
326.9098, 356.7891
327.3919, 344.0312
327.8741, 355.5034
328.3562, 404.1265
328.8383, 453.0566
329.3204, 487.9429
329.8025, 511.2856
330.2846, 525.8887
330.7668, 531.3530
331.2489, 534.7593
331.7310, 547.9756
332.2131, 576.0132
332.6952, 598.9458
333.1773, 614.8901
333.6595, 625.6670
334.1416, 634.2319
334.6237, 640.0894
335.1058, 636.9385
335.5879, 616.4463
336.0700, 576.0342
336.5522, 555.9370
337.0343, 565.5303
337.5164, 582.5762
337.9985, 609.7856
338.4806, 637.7441
338.9627, 650.1875
339.4449, 637.0269
339.9270, 606.2373
340.4091, 582.4946
340.8912, 559.4458
341.3733, 555.8047
341.8554, 583.2588
342.3376, 622.6211
342.8197, 660.1426
343.3018, 691.5635
343.7839, 717.0024
344.2660, 736.2080
344.7481, 748.9517
345.2303, 756.2310
345.7124, 744.5859
346.1945, 741.3647
346.6766, 769.9580
347.1587, 822.0938
347.6408, 865.8452
348.1230, 879.5112
348.6051, 871.2979
349.0872, 859.3774
349.5693, 839.8730
350.0514, 830.0889
350.5335, 854.2651
351.0157, 891.9424
351.4978, 907.8169
351.9799, 887.6924
352.4620, 856.3242
352.9441, 831.8027
353.4262, 812.6572
353.9084, 793.2700
354.3905, 773.5127
354.8726, 749.4751
355.3547, 712.4580
355.8368, 661.0312
356.3189, 607.0073
356.8011, 552.6792
357.2832, 497.1001
357.7653, 435.0371
358.2474, 367.0098
358.7295, 306.6665
359.2116, 269.3296
359.6938, 259.0718
360.1759, 234.2275
360.6580, 175.6479
361.1401, 124.4028
361.6222, 105.4448
362.1043, 106.2676
362.5865, 98.61475
363.0686, 65.83936
363.5507, 18.13037
364.0328, 10.29785
364.5149, 4.689453
364.9970, 3.576172
365.4792, 13.54395
365.9613, 27.12451
366.4434, 39.04346
366.9255, 47.97998
367.4076, 54.59619
367.8897, 60.11768
368.3719, 64.76367
368.8540, 65.57129
369.3361, 62.53223
369.8182, 55.06738
370.3003, 41.18604
370.7824, 22.94141
371.2646, 5.397949
371.7467, 10.47217
372.2288, 23.20752
372.7109, 26.47217
373.1930, 18.13672
373.6751, 17.88770
374.1573, 39.44238
374.6394, 74.33252
375.1215, 106.2002
375.6036, 134.0142
376.0857, 156.6572
376.5678, 169.3306
377.0500, 176.8530
377.5321, 189.3394
378.0142, 209.4434
378.4963, 234.5542
378.9784, 263.1797
379.4605, 297.7778
379.9427, 323.2954
380.4248, 327.7158
380.9069, 332.9897
381.3890, 354.6055
381.8711, 390.4209
382.3532, 430.4902
382.8354, 469.5830
383.3175, 506.1294
383.7996, 531.4248
384.2817, 531.1533
384.7638, 537.1040
385.2459, 556.3999
385.7281, 581.2517
386.2102, 604.5356
386.6923, 624.1677
387.1744, 641.3757
387.6565, 655.1272
388.1386, 662.9836
388.6208, 683.0625
389.1029, 722.9834
389.5850, 768.9414
390.0671, 817.7966
390.5492, 867.0801
391.0313, 911.8459
391.5135, 948.6919
391.9956, 979.5303
392.4777, 1005.289
392.9598, 1024.459
393.4419, 1049.405
393.9240, 1086.523
394.4062, 1133.792
394.8883, 1186.227
395.3704, 1246.320
395.8525, 1300.039
396.3346, 1335.387
396.8167, 1361.425
397.2989, 1396.174
397.7810, 1443.344
398.2631, 1491.771
398.7452, 1529.114
399.2273, 1552.293
399.7094, 1586.336
400.1916, 1632.782
400.6737, 1688.081
401.1558, 1756.021
401.6379, 1831.612
402.1200, 1902.597
402.6021, 1962.188
403.0843, 2015.193
403.5664, 2078.256
404.0485, 2168.042
404.5306, 2240.695
405.0127, 2281.575
405.4948, 2314.203
405.9770, 2359.985
406.4591, 2420.066
406.9412, 2475.621
407.4233, 2502.694
407.9054, 2503.082
408.3875, 2520.530
408.8697, 2570.480
409.3518, 2612.323
409.8339, 2618.335
410.3160, 2603.907
410.7981, 2595.657
411.2802, 2604.017
411.7624, 2617.698
412.2445, 2624.737
412.7266, 2626.168
413.2087, 2631.625
413.6908, 2648.456
414.1729, 2664.119
414.6551, 2653.640
415.1372, 2612.712
415.6193, 2581.433
416.1014, 2579.723
416.5835, 2583.015
417.0656, 2566.991
417.5478, 2532.021
418.0299, 2494.971
418.5120, 2468.173
418.9941, 2450.187
419.4762, 2426.093
419.9583, 2396.324
420.4405, 2359.698
420.9226, 2306.808
421.4047, 2251.311
421.8868, 2208.069
422.3689, 2181.721
422.8510, 2162.634
423.3332, 2141.848
423.8153, 2120.675
424.2974, 2083.683
424.7795, 2018.632
425.2616, 1951.429
425.7437, 1899.409
426.2259, 1855.083
426.7080, 1799.813
427.1901, 1718.676
427.6722, 1630.991
428.1543, 1564.694
428.6364, 1519.644
429.1186, 1473.944
429.6007, 1420.369
430.0828, 1360.494
430.5649, 1295.130
431.0470, 1222.002
431.5291, 1154.698
432.0113, 1104.115
432.4934, 1057.066
432.9755, 995.2925
433.4576, 920.0925
433.9397, 852.3154
434.4218, 808.9148
434.9040, 787.4441
435.3861, 754.4792
435.8682, 704.3472
436.3503, 649.7429
436.8324, 579.9673
437.3145, 513.3069
437.7967, 474.0027
438.2788, 466.3569
438.7609, 467.8586
439.2430, 447.4585
439.7251, 401.6184
440.2072, 366.8333
440.6894, 354.9502
441.1715, 340.5500
441.6536, 307.6255
442.1357, 263.7266
442.6178, 224.1792
443.0999, 193.5010
443.5821, 172.3726
444.0642, 166.6584
444.5463, 174.2305
445.0284, 174.5945
445.5105, 158.4233
445.9926, 133.1780
446.4748, 109.0278
446.9569, 84.91748
447.4390, 66.01465
447.9211, 51.46362
448.4032, 42.58813
448.8853, 46.51465
449.3675, 59.78369
449.8496, 66.63623
450.3317, 55.75610
450.8138, 30.96558
451.2959, 10.46875
451.7780, 10.03589
452.2602, 19.54932
452.7423, 6.209717
453.2244, 10.86353
453.7065, 13.42114
454.1886, 0.2529300
454.6707, 13.68311
455.1529, 12.71777
455.6350, 1.346924
456.1171, 11.61035
456.5992, 16.47144
457.0813, 20.83057
457.5634, 29.52393
458.0455, 38.80664
458.5276, 41.80835
459.0098, 33.09253
459.4919, 26.57251
459.9740, 33.34351
460.4561, 49.37476
460.9382, 65.04810
461.4203, 78.09717
461.9025, 90.91187
462.3846, 107.7900
462.8667, 130.7222
463.3488, 140.2964
463.8309, 119.2688
464.3130, 103.9519
464.7952, 115.0742
465.2773, 141.8955
465.7594, 164.7144
466.2415, 174.8481
466.7236, 178.4038
467.2057, 187.4993
467.6879, 205.5759
468.1700, 215.1523
468.6521, 206.3586
469.1342, 196.5671
469.6163, 194.7036
470.0984, 199.1909
470.5806, 203.8423
471.0627, 206.0178
471.5448, 206.4329
472.0269, 206.1755
472.5090, 204.9001
472.9911, 200.6775
473.4733, 191.6277
473.9554, 181.0034
474.4375, 174.2622
474.9196, 171.5852
475.4017, 170.1499
475.8839, 168.8606
476.3660, 169.4243
476.8481, 175.8306
477.3302, 185.5479
477.8123, 189.2725
478.2944, 180.6914
478.7766, 164.3484
479.2587, 160.0383
479.7408, 184.8025
480.2229, 192.7856
480.7050, 167.3601
481.1871, 134.1077
481.6693, 112.1069
482.1514, 102.9702
482.6335, 97.33276
483.1156, 85.86646
483.5977, 71.88403
484.0798, 68.83496
484.5620, 79.22070
485.0441, 88.87988
485.5262, 92.79541
486.0083, 90.52930
486.4904, 81.52759
486.9725, 62.38379
487.4547, 45.34985
487.9368, 32.46387
488.4189, 25.41333
488.9010, 31.47607
489.3831, 49.37573
489.8652, 61.84985
490.3474, 52.51050
490.8295, 24.14771
491.3116, 10.44897
491.7937, 26.30591
492.2758, 39.43457
492.7579, 49.24561
493.2401, 52.56494
493.7222, 42.98975
494.2043, 20.83765
494.6864, 1.078125
495.1685, 8.597900
495.6506, 4.025635
496.1328, 4.073975
496.6149, 11.55396
497.0970, 16.79297
497.5791, 10.53149
498.0612, 0.5300290
498.5433, 3.056641
499.0255, 9.075928
499.5076, 19.41479
499.9897, 13.70947
500.4718, 3.500488
500.9539, 10.99463
501.4360, 38.66577
501.9182, 63.77271
502.4003, 63.68433
502.8824, 38.77979
503.3645, 23.06543
503.8466, 25.69263
504.3287, 26.94824
504.8109, 26.82275
505.2930, 22.06055
505.7751, 6.030518
506.2572, 21.56348
506.7393, 48.08081
507.2214, 59.17212
507.7036, 56.64404
508.1857, 52.51221
508.6678, 44.26562
509.1499, 42.32788
509.6320, 53.91846
510.1141, 75.49609
510.5963, 100.7944
511.0784, 130.3850
511.5605, 160.5330
512.0426, 193.2100
512.5247, 223.4075
513.0068, 245.9834
513.4890, 260.3892
513.9711, 265.7473
514.4532, 259.7703
514.9353, 242.9856
515.4174, 235.0227
515.8995, 248.0972
516.3817, 254.9199
516.8638, 248.3208
517.3459, 235.2390
517.8280, 222.4062
518.3101, 211.1931
518.7922, 199.0842
519.2744, 182.1597
519.7565, 162.1497
520.2386, 145.3958
520.7207, 131.7002
521.2028, 123.7747
521.6849, 127.4297
522.1671, 136.5215
522.6492, 136.0024
523.1313, 123.1555
523.6134, 106.5186
524.0955, 79.98950
524.5776, 56.17212
525.0598, 54.12671
525.5419, 72.54102
526.0240, 89.41113
526.5061, 87.01929
526.9882, 68.62231
527.4703, 54.78882
527.9525, 47.70508
528.4346, 41.48267
528.9167, 31.03223
529.3988, 23.89819
529.8809, 29.24487
530.3630, 46.29175
530.8452, 61.25171
531.3273, 63.90112
531.8094, 58.56055
532.2915, 53.63208
532.7736, 49.25781
533.2557, 40.76709
533.7379, 22.03516
534.2200, 2.186035
534.7021, 2.655029
535.1842, 31.72510
535.6663, 56.96851
536.1484, 75.12598
536.6306, 88.25171
537.1127, 94.70679
537.5948, 97.22290
538.0769, 103.8250
538.5590, 120.5112
539.0411, 139.0083
539.5233, 135.7839
540.0054, 102.6729
540.4875, 81.14746
540.9696, 81.72046
541.4517, 92.43311
541.9338, 109.3843
542.4160, 129.9731
542.8981, 144.5149
543.3802, 144.6384
543.8623, 141.1572
544.3444, 143.6072
544.8265, 150.4368
545.3087, 156.9998
545.7908, 161.8044
546.2729, 166.3494
546.7550, 172.7925
547.2371, 181.5242
547.7192, 191.3071
548.2014, 204.3809
548.6835, 214.9209
549.1656, 221.6736
549.6477, 225.5552
550.1298, 223.9590
550.6119, 215.8625
551.0941, 212.1716
551.5762, 232.4260
552.0583, 270.9785
552.5404, 285.9526
553.0225, 266.5906
553.5046, 250.7886
553.9868, 264.9265
554.4689, 301.5117
554.9510, 332.9497
555.4331, 363.0862
555.9152, 384.0183
556.3973, 384.5789
556.8795, 377.6946
557.3616, 376.5291
557.8437, 384.6831
558.3258, 402.0393
558.8079, 429.1709
559.2900, 461.2739
559.7722, 478.8767
560.2543, 472.9275
560.7364, 479.7070
561.2185, 524.0479
561.7006, 569.8840
562.1827, 586.7632
562.6649, 576.3674
563.1470, 572.7595
563.6291, 603.5840
564.1112, 642.5793
564.5933, 650.9812
565.0754, 636.7700
565.5576, 639.6575
566.0397, 677.0769
566.5218, 734.4263
567.0039, 788.3621
567.4860, 837.6902
567.9681, 890.4128
568.4503, 941.2209
568.9324, 997.4812
569.4145, 1068.546
569.8966, 1147.101
570.3787, 1217.800
570.8608, 1274.670
571.3430, 1337.074
571.8251, 1430.521
572.3072, 1550.455
572.7893, 1670.352
573.2714, 1785.272
573.7535, 1908.686
574.2357, 2049.994
574.7178, 2206.656
575.1999, 2363.893
575.6820, 2517.426
576.1641, 2677.284
576.6462, 2840.918
577.1284, 3013.813
577.6105, 3208.822
578.0926, 3420.896
578.5747, 3625.230
579.0568, 3802.307
579.5389, 3962.031
580.0211, 4140.696
580.5032, 4345.098
580.9853, 4541.118
581.4674, 4733.701
581.9495, 4902.062
582.4316, 5025.334
582.9138, 5106.878
583.3959, 5183.953
583.8780, 5280.106
584.3601, 5364.778
584.8422, 5424.886
585.3243, 5454.359
585.8065, 5440.404
586.2886, 5379.561
586.7707, 5285.219
587.2528, 5170.260
587.7349, 5031.402
588.2170, 4886.077
588.6992, 4742.057
589.1813, 4583.167
589.6634, 4394.250
590.1455, 4193.086
590.6276, 4000.995
591.1097, 3823.728
591.5919, 3649.133
592.0740, 3463.525
592.5561, 3275.376
593.0382, 3100.525
593.5203, 2940.938
594.0024, 2791.558
594.4846, 2649.611
594.9667, 2515.173
595.4488, 2384.096
595.9309, 2247.787
596.4130, 2130.958
596.8951, 2038.530
597.3773, 1958.743
597.8594, 1891.789
598.3415, 1832.274
598.8236, 1771.542
599.3057, 1706.020
599.7878, 1638.299
600.2700, 1566.706
600.7521, 1494.178
601.2342, 1435.973
601.7163, 1395.984
602.1984, 1358.030
602.6805, 1309.279
603.1627, 1252.696
603.6448, 1205.201
604.1269, 1168.444
604.6090, 1137.464
605.0911, 1126.508
605.5732, 1109.862
606.0554, 1059.022
606.5375, 981.0676
607.0196, 908.8196
607.5017, 864.4844
607.9838, 835.6519
608.4659, 797.5903
608.9481, 750.2461
609.4302, 705.2190
609.9123, 666.9131
610.3944, 627.2566
610.8765, 576.2969
611.3586, 514.8704
611.8408, 460.9661
612.3229, 414.4490
612.8050, 375.8711
613.2871, 351.5825
613.7692, 332.0715
614.2513, 305.9050
614.7335, 271.4529
615.2156, 235.3914
615.6977, 202.3625
616.1798, 172.6865
616.6619, 147.6184
617.1440, 126.9363
617.6262, 112.4407
618.1083, 108.3174
618.5904, 106.9636
619.0725, 98.68481
619.5546, 83.70410
620.0367, 70.67700
620.5189, 65.77759
621.0010, 58.29688
621.4831, 35.42041
621.9652, 7.999268
622.4473, 3.549561
622.9294, 5.542725
623.4116, 19.99194
623.8937, 23.49072
624.3758, 16.71313
624.8579, 4.897461
625.3400, 18.05566
625.8221, 27.49268
626.3043, 0.8469240
626.7864, 36.89941
627.2685, 38.43140
627.7506, 1.358643
628.2327, 26.31323
628.7148, 27.36133
629.1970, 18.50269
629.6791, 7.551025
630.1612, 3.171631
630.6433, 8.364258
631.1254, 6.492188
631.6075, 6.504395
632.0897, 23.16919
632.5718, 57.23047
633.0539, 80.58228
633.5360, 92.97046
634.0181, 94.85083
634.5002, 77.30225
634.9824, 53.92749
635.4645, 43.02710
635.9466, 47.12769
636.4287, 52.49097
636.9108, 55.73242
637.3929, 57.54297
637.8751, 62.87793
638.3572, 67.01685
638.8393, 54.22754
639.3214, 18.13281
639.8035, 21.40552
640.2856, 31.40894
640.7678, 8.763428
641.2499, 3.582764
641.7320, 1.119873
642.2141, 2.810547
642.6962, 2.984619
643.1783, 8.598145
643.6605, 3.491943
644.1426, 40.22144
644.6247, 65.21362
645.1068, 54.18042
645.5889, 36.48364
646.0710, 41.85596
646.5532, 62.30737
647.0353, 70.23560
647.5174, 53.52563
647.9995, 29.64380
648.4816, 30.37305
648.9637, 58.70972
649.4459, 63.66943
649.9280, 33.55103
650.4101, 2.865479
650.8922, 16.95654
651.3743, 24.45044
651.8564, 13.68994
652.3386, 22.56812
652.8207, 47.48120
653.3028, 42.71631
653.7849, 28.84619
654.2670, 20.60791
654.7491, 17.53857
655.2313, 16.42456
655.7134, 15.86182
656.1955, 11.93164
656.6776, 5.971924
657.1597, 37.87671
657.6418, 48.04150
658.1240, 25.29297
658.6061, 9.338867
659.0882, 26.18506
659.5703, 58.35181
660.0524, 72.81201
660.5345, 64.80005
661.0167, 59.39478
661.4988, 64.55225
661.9809, 71.40894
662.4630, 72.82764
662.9451, 71.59546
663.4272, 73.27930
663.9094, 80.10278
664.3915, 92.27368
664.8736, 111.5632
665.3557, 137.2908
665.8378, 163.3721
666.3199, 191.3408
666.8021, 211.4331
667.2842, 216.6445
667.7663, 213.5972
668.2484, 212.6602
668.7305, 212.1541
669.2126, 220.2378
669.6948, 242.1702
670.1769, 267.9922
670.6590, 287.8430
671.1411, 309.8418
671.6232, 355.6160
672.1053, 428.8203
672.5875, 490.5532
673.0696, 484.3159
673.5517, 436.4309
674.0338, 439.8140
674.5159, 497.4336
674.9980, 552.4871
675.4802, 582.3572
675.9623, 598.8687
676.4444, 618.8213
676.9265, 642.7341
677.4086, 667.7300
677.8907, 694.4644
678.3729, 721.5503
678.8550, 747.9153
679.3371, 774.7588
679.8192, 801.5195
680.3013, 828.7549
680.7834, 862.4563
681.2656, 916.4932
681.7477, 973.5420
682.2298, 999.6958
682.7119, 1000.584
683.1940, 1008.801
683.6761, 1036.213
684.1583, 1073.201
684.6404, 1105.157
685.1225, 1131.115
685.6046, 1163.695
686.0867, 1201.885
686.5688, 1247.368
687.0510, 1311.945
687.5331, 1375.363
688.0152, 1415.581
688.4973, 1435.241
688.9794, 1464.154
689.4615, 1521.933
689.9437, 1588.435
690.4258, 1645.974
690.9079, 1699.341
691.3900, 1758.899
691.8721, 1826.666
692.3542, 1896.639
692.8364, 1963.944
693.3185, 2029.463
693.8006, 2096.632
694.2827, 2168.823
694.7648, 2231.169
695.2469, 2268.615
695.7291, 2310.072
696.2112, 2380.574
696.6933, 2473.181
697.1754, 2563.981
697.6575, 2643.926
698.1396, 2727.138
698.6218, 2826.813
699.1039, 2929.145
699.5860, 3012.332
700.0681, 3082.542
700.5502, 3170.451
701.0323, 3294.969
701.5145, 3436.379
701.9966, 3556.296
702.4787, 3656.696
702.9608, 3775.024
703.4429, 3923.341
703.9250, 4056.893
704.4072, 4141.423
704.8893, 4194.064
705.3714, 4267.131
705.8535, 4379.395
706.3356, 4472.625
706.8177, 4536.743
707.2999, 4587.996
707.7820, 4631.933
708.2641, 4671.989
708.7462, 4713.096
709.2283, 4757.364
709.7104, 4794.930
710.1926, 4827.795
710.6747, 4842.765
711.1568, 4807.378
711.6389, 4726.409
712.1210, 4643.012
712.6031, 4575.716
713.0853, 4511.610
713.5674, 4430.655
714.0495, 4330.397
714.5316, 4234.312
715.0137, 4150.186
715.4958, 4056.855
715.9780, 3929.097
716.4601, 3802.958
716.9422, 3721.892
717.4243, 3685.673
717.9064, 3637.069
718.3885, 3534.149
718.8707, 3435.546
719.3528, 3385.599
719.8349, 3365.152
720.3170, 3347.131
720.7991, 3323.840
721.2813, 3293.199
721.7634, 3250.293
722.2455, 3203.170
722.7276, 3179.188
723.2097, 3180.320
723.6918, 3174.923
724.1740, 3154.030
724.6561, 3132.385
725.1382, 3123.231
725.6203, 3124.055
726.1024, 3119.418
726.5845, 3100.217
727.0667, 3089.312
727.5488, 3093.899
728.0309, 3102.851
728.5130, 3116.604
728.9951, 3127.513
729.4772, 3118.068
729.9594, 3078.490
730.4415, 3036.033
730.9236, 3015.543
731.4057, 3010.217
731.8878, 3009.916
732.3699, 3012.538
732.8521, 3012.991
733.3342, 3009.259
733.8163, 2998.251
734.2984, 2973.823
734.7805, 2934.382
735.2626, 2893.445
735.7448, 2853.110
736.2269, 2807.522
736.7090, 2742.036
737.1911, 2677.914
737.6732, 2642.555
738.1553, 2637.375
738.6375, 2623.962
739.1196, 2597.264
739.6017, 2555.746
740.0838, 2481.089
740.5659, 2399.968
741.0480, 2355.614
741.5302, 2348.201
742.0123, 2333.599
742.4944, 2274.894
742.9765, 2196.578
743.4586, 2147.998
743.9407, 2124.649
744.4229, 2088.722
744.9050, 2031.423
745.3871, 1974.244
745.8692, 1933.443
746.3513, 1907.129
746.8334, 1888.203
747.3156, 1895.701
747.7977, 1873.977
748.2798, 1791.504
748.7619, 1710.911
749.2440, 1665.275
749.7261, 1638.869
750.2083, 1600.079
750.6904, 1538.763
751.1725, 1486.754
751.6546, 1470.569
752.1367, 1462.614
752.6188, 1438.130
753.1010, 1398.867
753.5831, 1347.090
754.0652, 1284.828
754.5473, 1224.837
755.0294, 1182.414
755.5115, 1154.020
755.9937, 1124.802
756.4758, 1094.922
756.9579, 1063.965
757.4400, 1031.458
757.9221, 998.8862
758.4042, 968.4219
758.8864, 939.9607
759.3685, 907.5183
759.8506, 862.4539
760.3327, 825.4287
760.8148, 803.5706
761.2969, 785.4888
761.7791, 765.4021
762.2612, 743.4578
762.7433, 719.6514
763.2254, 693.0081
763.7075, 662.0891
764.1896, 622.7515
764.6718, 582.1140
765.1539, 547.2573
765.6360, 519.1597
766.1181, 499.0491
766.6002, 486.8784
767.0823, 476.9797
767.5645, 462.5889
768.0466, 445.2810
768.5287, 434.2014
769.0108, 429.8210
769.4929, 426.2351
769.9750, 421.8430
770.4572, 414.5750
770.9393, 400.6887
771.4214, 378.7578
771.9035, 362.5640
772.3856, 368.4170
772.8677, 362.7031
773.3499, 323.1838
773.8320, 281.5159
774.3141, 268.7383
774.7962, 278.6775
775.2783, 279.1687
775.7604, 251.6895
776.2426, 223.4253
776.7247, 216.4038
777.2068, 218.5801
777.6889, 215.4255
778.1710, 205.3679
778.6531, 189.7065
779.1353, 169.2197
779.6174, 150.0144
780.0995, 141.2915
780.5816, 141.1038
781.0637, 141.4392
781.5458, 143.6206
782.0280, 136.5862
782.5101, 111.7263
782.9922, 84.53369
783.4743, 77.23828
783.9564, 91.50732
784.4385, 98.28296
784.9207, 91.83960
785.4028, 86.65918
785.8849, 85.43555
786.3670, 83.89893
786.8491, 79.83252
787.3312, 74.24341
787.8134, 68.64502
788.2955, 62.32812
788.7776, 58.04395
789.2597, 60.38989
789.7418, 61.80859
790.2239, 51.59204
790.7061, 34.27979
791.1882, 25.33960
791.6703, 31.91211
792.1524, 39.63477
792.6345, 25.91235
793.1166, 1.137207
793.5988, 9.573486
794.0809, 0.7053220
794.5630, 7.956299
795.0451, 4.093262
795.5272, 4.742920
796.0093, 12.22021
796.4915, 18.20483
796.9736, 16.99829
797.4557, 2.868164
797.9378, 6.416992
798.4199, 7.162109
798.9020, 2.501709
799.3842, 7.493408
799.8663, 20.91992
800.3484, 32.02222
800.8305, 42.30786
801.3126, 45.82031
801.7947, 38.20459
802.2769, 25.72314
802.7590, 8.051025
803.2411, 9.648438
803.7232, 17.36572
804.2053, 12.27222
804.6874, 5.921387
805.1696, 8.130615
805.6517, 14.97168
806.1338, 20.57910
806.6159, 25.42310
807.0980, 34.53101
807.5801, 48.50415
808.0623, 52.94043
808.5444, 31.40430
809.0265, 5.131348
809.5086, 13.93384
809.9907, 8.454346
810.4728, 31.64746
810.9550, 54.87964
811.4371, 68.83594
811.9192, 64.72705
812.4013, 48.68994
812.8834, 36.84717
813.3655, 30.11670
813.8477, 25.38550
814.3298, 21.24097
814.8119, 20.69995
815.2940, 29.55005
815.7761, 39.84766
816.2582, 40.51172
816.7404, 31.22021
817.2225, 25.38281
817.7046, 35.57471
818.1867, 43.03247
818.6688, 34.44995
819.1509, 16.78052
819.6331, 6.891846
820.1152, 31.37427
820.5973, 41.48438
821.0794, 26.78149
821.5615, 4.986084
822.0436, 0.1374510
822.5258, 7.775391
823.0079, 16.42505
823.4900, 24.50488
823.9721, 22.46362
824.4542, 4.770508
824.9363, 13.06104
825.4185, 7.692627
825.9006, 20.27808
826.3827, 41.34082
826.8648, 55.91919
827.3469, 62.07983
827.8290, 58.12646
828.3111, 46.94019
828.7932, 25.24341
829.2753, 2.911865
829.7574, 13.44824
830.2396, 10.76538
830.7217, 25.60083
831.2038, 19.54492
831.6859, 12.28906
832.1680, 17.65674
832.6501, 27.80908
833.1323, 28.11694
833.6144, 15.20947
834.0965, 3.353027
834.5786, 0.1538090
835.0607, 0.2631840
835.5428, 1.341797
836.0250, 2.273438
836.5071, 3.857422
836.9892, 16.15552
837.4713, 24.23462
837.9534, 19.80664
838.4355, 10.99341
838.9177, 10.86084
839.3998, 16.92578
839.8819, 20.97803
840.3640, 22.12622
840.8461, 21.07495
841.3282, 17.89185
841.8104, 14.84546
842.2925, 16.76294
842.7746, 23.74316
843.2567, 21.62524
843.7388, 6.556396
844.2209, 2.916748
844.7031, 0.2019040
845.1852, 8.008057
845.6673, 15.16357
846.1494, 20.89697
846.6315, 18.72266
847.1136, 4.751953
847.5958, 11.57056
848.0779, 37.04907
848.5600, 57.32715
849.0421, 59.40088
849.5242, 53.65063
850.0063, 58.91968
850.4885, 79.42065
850.9706, 96.15356
851.4527, 99.11572
851.9348, 100.0581
852.4169, 107.2634
852.8990, 115.6729
853.3812, 115.0432
853.8633, 107.2683
854.3454, 107.8276
854.8275, 129.1926
855.3096, 153.8979
855.7917, 159.3135
856.2739, 155.1743
856.7560, 160.7859
857.2381, 175.7241
857.7202, 190.0627
858.2023, 199.6096
858.6844, 205.1436
859.1666, 206.5288
859.6487, 206.0752
860.1308, 213.3901
860.6129, 228.7502
861.0950, 242.8269
861.5771, 253.1558
862.0593, 262.9302
862.5414, 275.1785
863.0235, 288.4863
863.5056, 297.2288
863.9877, 299.5227
864.4698, 303.1167
864.9520, 307.7275
865.4341, 314.7322
865.9162, 326.2529
866.3983, 339.5322
866.8804, 350.1045
867.3625, 357.7754
867.8447, 365.3391
868.3268, 371.1702
868.8089, 376.8616
869.2910, 379.1934
869.7731, 384.6113
870.2552, 401.9622
870.7374, 426.2507
871.2195, 442.8926
871.7016, 445.1565
872.1837, 449.1006
872.6658, 466.9377
873.1479, 484.8787
873.6301, 482.5532
874.1122, 476.1028
874.5943, 499.6990
875.0764, 556.0786
875.5585, 606.4941
876.0406, 621.1521
876.5228, 621.8088
877.0049, 630.0959
877.4870, 645.3738
877.9691, 669.5066
878.4512, 702.3442
878.9333, 740.5378
879.4155, 782.2507
879.8976, 822.7085
880.3797, 852.1265
880.8618, 874.3525
881.3439, 909.8440
881.8260, 958.8691
882.3082, 1006.082
882.7903, 1045.448
883.2724, 1091.637
883.7545, 1158.392
884.2366, 1239.654
884.7188, 1309.186
885.2009, 1364.494
885.6830, 1425.900
886.1651, 1497.170
886.6472, 1570.426
887.1293, 1638.396
887.6115, 1709.392
888.0936, 1798.971
888.5757, 1910.086
889.0578, 2013.539
889.5399, 2105.210
890.0220, 2194.319
890.5042, 2277.298
890.9863, 2363.562
891.4684, 2456.542
891.9505, 2558.619
892.4326, 2677.312
892.9147, 2821.628
893.3969, 2957.797
893.8790, 3065.193
894.3611, 3176.658
894.8432, 3306.394
895.3253, 3450.998
895.8074, 3608.232
896.2896, 3775.859
896.7717, 3940.876
897.2538, 4094.985
897.7359, 4249.048
898.2180, 4408.763
898.7001, 4572.272
899.1823, 4732.572
899.6644, 4894.521
900.1465, 5077.691
900.6286, 5286.907
901.1107, 5484.324
901.5928, 5628.232
902.0750, 5750.056
902.5571, 5894.552
903.0392, 6051.615
903.5213, 6203.092
904.0034, 6344.385
904.4855, 6470.001
904.9677, 6576.244
905.4498, 6676.284
905.9319, 6795.588
906.4140, 6925.839
906.8961, 7035.153
907.3782, 7123.090
907.8604, 7194.891
908.3425, 7251.567
908.8246, 7307.099
909.3067, 7377.565
909.7888, 7454.011
910.2709, 7501.426
910.7531, 7517.523
911.2352, 7537.372
911.7173, 7567.605
912.1994, 7585.922
912.6815, 7580.173
913.1636, 7559.278
913.6458, 7538.202
914.1279, 7517.737
914.6100, 7475.501
915.0921, 7404.310
915.5742, 7330.978
916.0563, 7271.753
916.5385, 7193.885
917.0206, 7061.743
917.5027, 6898.001
917.9848, 6770.879
918.4669, 6708.184
918.9490, 6605.542
919.4312, 6435.558
919.9133, 6260.044
920.3954, 6085.471
920.8775, 5920.438
921.3596, 5776.927
921.8417, 5650.683
922.3239, 5522.479
922.8060, 5389.207
923.2881, 5253.870
923.7702, 5118.964
924.2523, 4980.931
924.7344, 4837.548
925.2166, 4690.718
925.6987, 4541.819
926.1808, 4391.636
926.6629, 4239.502
927.1450, 4082.081
927.6271, 3926.248
928.1093, 3771.230
928.5914, 3623.029
929.0735, 3483.775
929.5556, 3355.651
930.0377, 3244.302
930.5198, 3151.877
931.0020, 3057.542
931.4841, 2940.869
931.9662, 2823.145
932.4483, 2723.301
932.9304, 2633.879
933.4125, 2543.155
933.8947, 2451.109
934.3768, 2365.776
934.8589, 2290.340
935.3410, 2214.553
935.8231, 2124.411
936.3052, 2029.992
936.7874, 1945.514
937.2695, 1872.126
937.7516, 1815.149
938.2337, 1772.421
938.7158, 1723.145
939.1979, 1649.739
939.6801, 1566.960
940.1622, 1493.747
940.6443, 1431.228
941.1264, 1388.475
941.6085, 1361.930
942.0906, 1329.890
942.5728, 1283.593
943.0549, 1226.727
943.5370, 1163.821
944.0191, 1098.862
944.5012, 1043.406
944.9833, 995.9316
945.4655, 941.2974
945.9476, 877.4219
946.4297, 819.5000
946.9118, 776.5576
947.3939, 741.3596
947.8760, 704.7217
948.3582, 666.6296
948.8403, 623.1899
949.3224, 573.4338
949.8045, 543.3022
950.2866, 539.2961
950.7687, 532.9451
951.2509, 508.3833
951.7330, 475.1860
952.2151, 452.5320
952.6972, 440.9956
953.1793, 425.8760
953.6614, 405.9104
954.1436, 390.8801
954.6257, 382.7844
955.1078, 376.1238
955.5899, 367.6008
956.0720, 359.1804
956.5541, 354.4587
957.0363, 352.9160
957.5184, 356.4143
958.0005, 371.3223
958.4826, 376.0120
958.9647, 357.9883
959.4468, 335.8157
959.9290, 326.6038
960.4111, 328.8323
960.8932, 334.6897
961.3753, 348.8259
961.8574, 355.8689
962.3395, 351.5024
962.8217, 346.5903
963.3038, 347.6516
963.7859, 347.8174
964.2680, 335.1541
964.7501, 311.2822
965.2322, 304.3621
965.7144, 336.7300
966.1965, 350.3491
966.6786, 327.9600
967.1607, 303.0168
967.6428, 291.5667
968.1249, 284.8621
968.6071, 267.6921
969.0892, 239.3706
969.5713, 226.4204
970.0534, 243.2898
970.5355, 256.4324
971.0176, 264.7981
971.4998, 264.4338
971.9819, 249.7588
972.4640, 226.3669
972.9461, 201.4570
973.4282, 174.9951
973.9103, 154.8062
974.3925, 146.7383
974.8746, 138.5833
975.3567, 125.8242
975.8388, 113.4517
976.3209, 107.1428
976.8030, 103.0947
977.2852, 91.60425
977.7673, 69.46118
978.2494, 55.54736
978.7315, 57.54370
979.2136, 63.79321
979.6957, 77.60645
980.1779, 87.65234
980.6600, 82.50488
981.1421, 66.41699
981.6242, 49.40063
982.1063, 31.74390
982.5884, 22.33057
983.0706, 29.35718
983.5527, 38.29004
984.0348, 45.84888
984.5169, 49.69189
984.9990, 47.28516
985.4811, 39.43311
985.9633, 27.71729
986.4454, 10.57153
986.9275, 1.668701
987.4096, 0.9223630
987.8917, 2.284912
988.3738, 8.959961
988.8560, 23.81128
989.3381, 34.57544
989.8202, 39.62476
990.3023, 35.82129
990.7844, 16.67041
991.2665, 10.28809
991.7487, 46.09424
992.2308, 77.48657
992.7129, 72.45166
993.1950, 49.57568
993.6771, 26.37280
994.1592, 7.275146
994.6414, 3.168945
995.1235, 1.518066
995.6056, 2.744141
996.0877, 7.819824
996.5698, 11.48438
997.0519, 11.20630
997.5341, 9.170654
998.0162, 7.542969
998.4983, 7.348389
998.9804, 11.76782
999.4625, 26.62036
999.9446, 32.55420
1000.427, 7.863525
1000.909, 15.34546
1001.391, 10.90869
1001.873, 5.993896
1002.355, 17.27124
1002.837, 19.93970
1003.319, 15.05908
1003.802, 0.7275390
1004.284, 14.74243
1004.766, 24.17090
1005.248, 26.12427
1005.730, 13.58276
1006.212, 4.469482
1006.694, 20.95215
1007.176, 31.84863
1007.659, 25.55396
1008.141, 13.47192
1008.623, 42.15430
1009.105, 30.86890
1009.587, 12.36792
1010.069, 11.58887
1010.551, 16.55273
1011.033, 6.050781
1011.515, 17.75439
1011.998, 30.10669
1012.480, 17.94312
1012.962, 5.804443
1013.444, 6.438232
1013.926, 7.547363
1014.408, 2.798828
1014.890, 7.727783
1015.372, 27.01367
1015.854, 52.24463
1016.337, 69.92139
1016.819, 74.54541
1017.301, 74.21582
1017.783, 66.45068
1018.265, 60.86450
1018.747, 64.49414
1019.229, 73.22852
1019.711, 81.64575
1020.194, 89.71265
1020.676, 101.0027
1021.158, 119.7012
1021.640, 134.3772
1022.122, 142.6365
1022.604, 144.1892
1023.086, 128.4050
1023.568, 113.1699
1024.051, 122.7485
1024.533, 153.2803
1025.015, 177.5425
1025.497, 186.6677
1025.979, 196.1038
1026.461, 213.7966
1026.943, 228.2854
1027.425, 231.4446
1027.907, 230.4207
1028.390, 234.2844
1028.872, 241.5305
1029.354, 242.7661
1029.836, 233.0803
1030.318, 225.8083
1030.800, 225.8518
1031.282, 225.5979
1031.764, 220.4712
1032.246, 214.8867
1032.729, 213.6470
1033.211, 215.8525
1033.693, 217.8713
1034.175, 221.3193
1034.657, 218.3015
1035.139, 205.8162
1035.621, 190.2854
1036.103, 170.6499
1036.586, 151.4717
1037.068, 133.8977
1037.550, 119.8406
1038.032, 115.7307
1038.514, 126.0347
1038.996, 133.4319
1039.478, 137.5730
1039.960, 138.9458
1040.443, 137.2900
1040.925, 133.3928
1041.407, 125.2385
1041.889, 116.1650
1042.371, 113.9966
1042.853, 119.5002
1043.335, 128.6909
1043.817, 145.9539
1044.299, 158.9065
1044.781, 165.0354
1045.264, 166.6047
1045.746, 166.0320
1046.228, 160.1748
1046.710, 139.7080
1047.192, 101.7583
1047.674, 88.97266
1048.156, 113.1345
1048.638, 129.2085
1049.121, 126.1362
1049.603, 117.8335
1050.085, 114.5710
1050.567, 112.3433
1051.049, 100.7112
1051.531, 80.50366
1052.013, 74.20679
1052.495, 84.05298
1052.978, 88.93066
1053.460, 86.32349
1053.942, 73.11670
1054.424, 44.08472
1054.906, 19.71069
1055.388, 29.82495
1055.870, 65.66504
1056.352, 77.69604
1056.834, 65.45947
1057.317, 60.76343
1057.799, 67.77979
1058.281, 65.74951
1058.763, 43.44458
1059.245, 26.35327
1059.727, 45.23950
1060.209, 80.41211
1060.691, 74.76807
1061.173, 36.52734
1061.656, 11.85449
1062.138, 2.801025
1062.620, 4.591797
1063.102, 15.14941
1063.584, 23.20703
1064.066, 17.62329
1064.548, 7.733154
1065.030, 13.89502
1065.513, 29.21655
1065.995, 32.59302
1066.477, 25.65845
1066.959, 26.74609
1067.441, 37.91870
1067.923, 42.18115
1068.405, 28.10669
1068.887, 9.917236
1069.370, 0.5781250
1069.852, 1.023682
1070.334, 9.104980
1070.816, 24.22827
1071.298, 29.51758
1071.780, 25.60693
1072.262, 25.37524
1072.744, 35.07935
1073.226, 41.97754
1073.708, 28.60400
1074.191, 13.72925
1074.673, 14.05811
1075.155, 22.56030
1075.637, 35.36328
1076.119, 47.26880
1076.601, 45.32715
1077.083, 26.28442
1077.565, 14.75098
1078.047, 30.08765
1078.530, 43.89111
1079.012, 33.57544
1079.494, 23.51196
1079.976, 43.13696
1080.458, 73.60010
1080.940, 74.02881
1081.422, 42.42993
1081.904, 24.13525
1082.387, 39.70459
1082.869, 54.35498
1083.351, 68.44019
1083.833, 71.79761
1084.315, 45.64258
1084.797, 15.91113
1085.279, 17.82983
1085.761, 45.99756
1086.244, 56.53638
1086.726, 37.98096
1087.208, 25.68018
1087.690, 19.95996
1088.172, 20.30811
1088.654, 30.16455
1089.136, 41.10693
1089.618, 48.40308
1090.100, 49.94580
1090.583, 36.98877
1091.065, 4.326904
1091.547, 2.430908
1092.029, 40.23730
1092.511, 68.29199
1092.993, 76.13403
1093.475, 76.66260
1093.957, 76.87061
1094.439, 76.00513
1094.922, 72.87085
1095.404, 67.74634
1095.886, 61.37305
1096.368, 53.97852
1096.850, 49.39404
1097.332, 47.71753
1097.814, 39.62988
1098.296, 21.40356
1098.779, 4.505127
1099.261, 0.8391110
1099.743, 4.644775
1100.225, 28.01440
1100.707, 58.39673
1101.189, 62.88916
1101.671, 47.56445
1102.153, 36.99023
1102.635, 38.11401
1103.118, 51.77734
1103.600, 82.90356
1104.082, 104.9111
1104.564, 76.33154
1105.046, 37.90308
1105.528, 42.09253
1106.010, 66.79810
1106.492, 72.98047
1106.974, 62.66309
1107.457, 62.42969
1107.939, 82.01733
1108.421, 99.98022
1108.903, 107.3777
1109.385, 107.4146
1109.867, 91.33618
1110.349, 78.61523
1110.831, 94.21094
1111.314, 121.2041
1111.796, 124.1672
1112.278, 99.85376
1112.760, 88.22705
1113.242, 110.1145
1113.724, 123.7344
1114.206, 115.7053
1114.688, 108.7375
1115.171, 117.0005
1115.653, 125.7847
1116.135, 117.7490
1116.617, 97.99805
1117.099, 88.46802
1117.581, 93.52881
1118.063, 93.10376
1118.545, 84.72876
1119.027, 80.23242
1119.510, 85.75586
1119.992, 81.09229
1120.474, 49.59741
1120.956, 11.84253
1121.438, 4.024414
1121.920, 21.99634
1122.402, 39.84741
1122.884, 57.41528
1123.366, 72.00098
1123.849, 82.32568
1124.331, 76.68262
1124.813, 50.86743
1125.295, 26.31006
1125.777, 24.52368
1126.259, 32.11938
1126.741, 26.14526
1127.223, 13.74097
1127.706, 9.386719
1128.188, 11.60620
1128.670, 14.66992
1129.152, 16.30542
1129.634, 12.68433
1130.116, 0.1394040
1130.598, 8.904297
1131.080, 1.425293
1131.563, 8.584717
1132.045, 12.79321
1132.527, 11.95996
1133.009, 5.505615
1133.491, 4.367432
1133.973, 16.00024
1134.455, 29.62305
1134.937, 29.95532
1135.419, 2.515869
1135.901, 25.06445
1136.384, 25.79028
1136.866, 17.33179
1137.348, 7.701660
1137.830, 27.04785
1138.312, 9.404785
1138.794, 35.14453
1139.276, 53.96924
1139.758, 37.18750
1140.241, 29.73682
1140.723, 33.19165
1141.205, 42.21484
1141.687, 58.45459
1142.169, 65.21680
1142.651, 49.18506
1143.133, 26.61841
1143.615, 26.05957
1144.098, 41.80640
1144.580, 45.04883
1145.062, 37.86255
1145.544, 32.27466
1146.026, 30.60254
1146.508, 39.49438
1146.990, 59.97974
1147.472, 75.73828
1147.954, 71.97778
1148.437, 62.91016
1148.919, 69.40845
1149.401, 80.45166
1149.883, 74.43994
1150.365, 60.03442
1150.847, 55.81934
1151.329, 62.91943
1151.811, 75.52588
1152.293, 93.08740
1152.776, 103.3582
1153.258, 87.99902
1153.740, 81.78198
1154.222, 111.3745
1154.704, 143.8894
1155.186, 158.4341
1155.668, 157.8123
1156.150, 142.0454
1156.633, 112.5815
1157.115, 102.0649
1157.597, 126.5532
1158.079, 133.6738
1158.561, 112.7334
1159.043, 99.00049
1159.525, 106.4048
1160.007, 112.9116
1160.490, 99.79736
1160.972, 80.06543
1161.454, 80.86621
1161.936, 99.21484
1162.418, 108.5654
1162.900, 109.8799
1163.382, 110.9937
1163.864, 113.2886
1164.346, 118.2212
1164.828, 126.0088
1165.311, 132.0581
1165.793, 132.6382
1166.275, 129.6226
1166.757, 120.0073
1167.239, 112.4194
1167.721, 128.0522
1168.203, 149.4746
1168.685, 139.2349
1169.168, 103.8071
1169.650, 84.69629
1170.132, 96.72656
1170.614, 108.1592
1171.096, 106.2256
1171.578, 101.8755
1172.060, 98.39941
1172.542, 94.82422
1173.025, 87.18115
1173.507, 81.11328
1173.989, 82.68408
1174.471, 92.35107
1174.953, 116.8262
1175.435, 171.4116
1175.917, 187.3550
1176.399, 150.3560
1176.881, 130.0322
1177.364, 147.1025
1177.846, 164.9868
1178.328, 159.6157
1178.810, 143.8643
1179.292, 135.1772
1179.774, 133.6841
1180.256, 145.5103
1180.738, 163.3647
1181.220, 156.0977
1181.703, 129.4561
1182.185, 118.9648
1182.667, 131.0088
1183.149, 135.0718
1183.631, 109.9858
1184.113, 86.15039
1184.595, 91.34473
1185.077, 104.2461
1185.560, 116.8433
1186.042, 119.9644
1186.524, 86.61475
1187.006, 42.17529
1187.488, 54.65381
1187.970, 135.5981
1188.452, 172.0361
1188.934, 104.3691
1189.417, 69.90576
1189.899, 96.06689
1190.381, 121.2178
1190.863, 125.3452
1191.345, 119.3540
1191.827, 111.5103
1192.309, 100.5791
1192.791, 82.65039
1193.273, 61.10889
1193.755, 53.59424
1194.238, 59.10645
1194.720, 68.22900
1195.202, 78.70312
1195.684, 89.57715
1196.166, 102.5688
1196.648, 110.3320
1197.130, 105.3159
1197.612, 95.78271
1198.095, 92.56543
1198.577, 88.75537
1199.059, 72.97607
1199.541, 53.61328
1200.023, 44.41650
1200.505, 42.40234
1200.987, 31.64746
1201.469, 7.491699
1201.952, 3.212891
1202.434, 60.11914
1202.916, 86.14600
1203.398, 36.57471
1203.880, 9.733398
1204.362, 25.09131
1204.844, 22.91846
1205.326, 10.66260
1205.808, 4.577637
1206.291, 0.7792970
1206.773, 21.58105
1207.255, 17.94092
1207.737, 10.40137
1208.219, 20.45312
1208.701, 8.982910
1209.183, 5.129883
1209.665, 20.72412
1210.147, 36.11084
1210.630, 33.83789
1211.112, 27.31055
1211.594, 25.39062
1212.076, 33.96094
1212.558, 77.68359
1213.040, 124.8994
1213.522, 117.8149
1214.004, 75.88281
1214.487, 68.17627
1214.969, 111.2188
1215.451, 144.4678
1215.933, 150.7173
1216.415, 152.0083
1216.897, 151.9663
1217.379, 145.4175
1217.861, 121.4272
1218.344, 106.8740
1218.826, 129.9526
1219.308, 169.8472
1219.790, 180.3267
1220.272, 163.3843
1220.754, 131.1680
1221.236, 88.23779
1221.718, 87.73975
1222.200, 127.8101
1222.682, 156.9614
1223.165, 158.3213
1223.647, 141.8345
1224.129, 108.0156
1224.611, 85.67480
1225.093, 118.4189
1225.575, 157.1025
1226.057, 146.2061
1226.539, 125.7520
1227.022, 155.6777
1227.504, 207.2568
1227.986, 207.2368
1228.468, 148.7549
1228.950, 114.3633
1229.432, 124.6519
1229.914, 132.0801
1230.396, 134.1616
1230.879, 141.1797
1231.361, 157.9121
1231.843, 173.2310
1232.325, 179.7544
1232.807, 182.6860
1233.289, 192.4004
1233.771, 201.3604
1234.253, 178.5630
1234.735, 136.8203
1235.218, 112.6133
1235.700, 106.3589
1236.182, 112.9673
1236.664, 127.7002
1237.146, 137.5249
1237.628, 137.7544
1238.110, 136.1802
1238.592, 137.1357
1239.074, 141.0322
1239.557, 136.8975
1240.039, 133.1123
1240.521, 134.5532
1241.003, 139.7646
1241.485, 154.3560
1241.967, 171.6011
1242.449, 165.8804
1242.931, 131.8174
1243.414, 129.9072
1243.896, 164.0894
1244.378, 170.5176
1244.860, 140.4219
1245.342, 123.1909
1245.824, 138.0430
1246.306, 157.4893
1246.788, 159.0693
1247.271, 153.8809
1247.753, 160.4590
1248.235, 163.5918
1248.717, 134.5928
1249.199, 97.94385
1249.681, 86.89404
1250.163, 96.07178
1250.645, 108.8823
1251.127, 121.9229
1251.609, 126.2231
1252.092, 111.3506
1252.574, 104.7480
1253.056, 117.4780
1253.538, 114.0503
1254.020, 78.76611
1254.502, 47.49902
1254.984, 42.67871
1255.466, 51.34961
1255.949, 58.77686
1256.431, 61.11816
1256.913, 38.77393
1257.395, 5.905762
1257.877, 5.654785
1258.359, 28.35693
1258.841, 44.56543
1259.323, 50.06445
1259.806, 52.21924
1260.288, 53.30078
1260.770, 59.33789
1261.252, 81.05420
1261.734, 96.23535
1262.216, 102.0205
1262.698, 93.75537
1263.180, 50.53174
1263.662, 15.46631
1264.145, 32.31250
1264.627, 69.80469
1265.109, 58.51855
1265.591, 7.675781
1266.073, 7.469238
1266.555, 9.330566
1267.037, 21.85693
1267.519, 26.91016
1268.001, 21.01807
1268.484, 7.978027
1268.966, 13.02686
1269.448, 37.70215
1269.930, 68.71045
1270.412, 43.23535
1270.894, 12.06299
1271.376, 3.2715000E-02
1271.858, 0.0000000E+00
##END=



