##NAMES=Joaquinite-(Ce)
##RRUFFID=R120101
##IDEAL CHEMISTRY=NaBa_2_Fe^2+^Ti_2_Ce_2_(SiO_3_)_8_O_2_(OH)&#183;H_2_O
##LOCALITY=Gem mine, San Benito County, California, USA
##OWNER=RRUFF
##SOURCE=Bob Jenkins
##DESCRIPTION=Brown pseudo-orthorhombic crystals, associated with black neptunite
##STATUS=The identification of this mineral has been confirmed only by chemical analysis
##URL=rruff.info/R120101
##MEASURED CHEMISTRY=Na_0.81_Ba_2.00_(Fe_0.65_Ti_0.13_Zn_0.07_)_Σ=0.85_Ti_2.00_(Ce_0.72_Nd_0.24_La_0.23_Pr_0.07_Sm_0.02_Sr_0.59_Ca_0.06_Th_0.04_Ba_0.03_)_Σ=2.00_(SiO_3_)_7.99_O_2.00_(O_0.50_OH_0.50_)_Σ=1.00_·1.52H_2_O
183.8565, 0.0000000E+00
184.3386, 0.3981930
184.8207, 3.560547
185.3029, 9.987122
185.7850, 18.20392
186.2671, 28.97552
186.7492, 41.88202
187.2313, 55.39581
187.7134, 68.92987
188.1956, 82.27795
188.6777, 94.01959
189.1598, 103.7629
189.6419, 112.1187
190.1240, 120.6017
190.6061, 129.3145
191.0883, 137.3647
191.5704, 144.2840
192.0525, 150.1677
192.5346, 155.0272
193.0167, 158.7179
193.4988, 161.1389
193.9810, 161.0303
194.4631, 157.6577
194.9452, 153.8105
195.4273, 148.7858
195.9094, 142.6175
196.3915, 136.3546
196.8737, 130.3785
197.3558, 124.4516
197.8379, 117.3458
198.3200, 108.9180
198.8021, 100.2493
199.2842, 92.42590
199.7664, 85.63995
200.2485, 79.39227
200.7306, 73.13141
201.2127, 67.68719
201.6948, 64.02893
202.1769, 61.84344
202.6591, 60.43854
203.1412, 59.52661
203.6233, 58.70764
204.1054, 56.98688
204.5875, 53.86865
205.0696, 49.62323
205.5518, 45.63300
206.0339, 42.32581
206.5160, 39.46814
206.9981, 37.02234
207.4802, 35.24768
207.9623, 33.00952
208.4445, 29.70148
208.9266, 25.40222
209.4087, 22.57562
209.8908, 21.58887
210.3729, 21.33038
210.8550, 20.67816
211.3372, 19.60608
211.8193, 18.18805
212.3014, 16.23877
212.7835, 13.75372
213.2656, 12.15588
213.7477, 11.96442
214.2299, 11.93097
214.7120, 10.35492
215.1941, 6.492798
215.6762, 3.179932
216.1583, 1.300049
216.6404, 0.9489140
217.1226, 4.6936002E-02
217.6047, 1.641357
218.0868, 3.604675
218.5689, 5.254822
219.0510, 6.569946
219.5331, 7.612549
220.0153, 8.326050
220.4974, 8.661682
220.9795, 9.145996
221.4616, 9.924255
221.9437, 10.67285
222.4258, 10.99762
222.9080, 10.90491
223.3901, 10.36719
223.8722, 9.344604
224.3543, 7.763794
224.8364, 6.142700
225.3185, 4.375183
225.8007, 2.716614
226.2828, 1.454102
226.7649, 0.6828000
227.2470, 0.2140500
227.7291, 0.2034300
228.2112, 0.7875980
228.6934, 0.6861570
229.1755, 0.3826290
229.6576, 1.870361
230.1397, 2.998230
230.6218, 3.517334
231.1039, 4.200378
231.5861, 5.285950
232.0682, 6.903137
232.5503, 8.365601
233.0324, 9.851074
233.5145, 11.07098
233.9966, 11.53247
234.4788, 10.40936
234.9609, 10.04175
235.4430, 11.27783
235.9251, 14.44733
236.4072, 16.92560
236.8893, 18.54089
237.3715, 19.60400
237.8536, 20.42596
238.3357, 20.75848
238.8178, 21.30170
239.2999, 22.32483
239.7820, 23.90302
240.2642, 25.13892
240.7463, 25.83325
241.2284, 26.32635
241.7105, 26.85736
242.1926, 28.13470
242.6747, 28.93597
243.1569, 28.65161
243.6390, 27.01025
244.1211, 26.53973
244.6032, 27.97906
245.0853, 29.91980
245.5674, 30.60016
246.0496, 29.03088
246.5317, 28.08081
247.0138, 28.75146
247.4959, 31.31433
247.9780, 32.44977
248.4601, 31.49902
248.9423, 29.82849
249.4244, 28.96735
249.9065, 29.37384
250.3886, 29.70306
250.8707, 29.51910
251.3528, 28.76312
251.8350, 28.81317
252.3171, 29.99554
252.7992, 31.60852
253.2813, 32.94000
253.7634, 33.82202
254.2455, 34.72290
254.7277, 35.79974
255.2098, 37.06018
255.6919, 37.88336
256.1740, 38.02832
256.6561, 38.00916
257.1382, 38.20508
257.6204, 38.41931
258.1025, 39.36023
258.5846, 41.43127
259.0667, 44.55432
259.5488, 46.81146
260.0309, 47.76080
260.5131, 48.40991
260.9952, 49.71515
261.4773, 52.14160
261.9594, 53.97137
262.4415, 54.68909
262.9236, 54.46912
263.4058, 54.85486
263.8879, 56.01318
264.3700, 57.53589
264.8521, 59.21753
265.3342, 61.10883
265.8163, 62.91650
266.2985, 64.55231
266.7806, 66.03912
267.2627, 67.67401
267.7448, 69.62537
268.2269, 71.32117
268.7090, 72.16083
269.1912, 71.84070
269.6733, 72.06140
270.1554, 73.26788
270.6375, 75.10248
271.1196, 75.97534
271.6017, 75.61127
272.0839, 75.02429
272.5660, 74.86261
273.0481, 75.17841
273.5302, 75.54468
274.0123, 75.95898
274.4944, 76.44257
274.9766, 76.92822
275.4587, 77.40186
275.9408, 77.73077
276.4229, 77.89545
276.9050, 77.94574
277.3871, 77.55322
277.8693, 76.57800
278.3514, 75.34680
278.8335, 74.55219
279.3156, 74.24298
279.7977, 74.02832
280.2798, 73.75537
280.7620, 73.43494
281.2441, 73.04236
281.7262, 72.52594
282.2083, 72.10394
282.6904, 72.09882
283.1725, 72.50922
283.6547, 73.24695
284.1368, 74.29785
284.6189, 75.60858
285.1010, 77.05676
285.5831, 78.66455
286.0652, 80.24658
286.5474, 81.59265
287.0295, 82.72437
287.5116, 83.70941
287.9937, 84.30444
288.4758, 84.70209
288.9579, 86.25781
289.4401, 89.24365
289.9222, 92.11938
290.4043, 92.54822
290.8864, 90.85187
291.3685, 89.62463
291.8506, 90.24823
292.3328, 92.02777
292.8149, 92.77014
293.2970, 92.41193
293.7791, 91.86969
294.2612, 92.30145
294.7433, 93.41907
295.2255, 94.04401
295.7076, 93.57837
296.1897, 92.48999
296.6718, 91.67169
297.1539, 91.11774
297.6360, 90.58624
298.1182, 90.15863
298.6003, 89.60706
299.0824, 88.26605
299.5645, 85.50128
300.0466, 82.35779
300.5287, 80.27795
301.0109, 79.18958
301.4930, 78.54205
301.9751, 78.16779
302.4572, 77.93835
302.9393, 77.68555
303.4214, 77.49762
303.9036, 77.06055
304.3857, 75.70520
304.8678, 73.71533
305.3499, 72.09619
305.8320, 71.82080
306.3141, 72.14221
306.7963, 72.22052
307.2784, 71.96265
307.7605, 71.32654
308.2426, 69.92950
308.7247, 68.08752
309.2068, 66.56445
309.6890, 66.32324
310.1711, 66.21564
310.6532, 65.16119
311.1353, 62.90289
311.6174, 60.37561
312.0995, 58.39990
312.5817, 56.52631
313.0638, 54.01721
313.5459, 49.60144
314.0280, 45.15607
314.5101, 42.04034
314.9922, 40.44751
315.4744, 38.71436
315.9565, 35.83649
316.4386, 32.49512
316.9207, 29.50140
317.4028, 27.47717
317.8849, 25.51276
318.3671, 23.16296
318.8492, 20.43707
319.3313, 17.95416
319.8134, 16.05750
320.2955, 14.40375
320.7776, 12.73840
321.2598, 9.852417
321.7419, 8.130432
322.2240, 8.696594
322.7061, 11.12146
323.1882, 13.18579
323.6703, 14.16431
324.1525, 14.86420
324.6346, 15.71307
325.1167, 16.85571
325.5988, 18.02112
326.0809, 19.27795
326.5630, 20.55658
327.0452, 21.66400
327.5273, 22.39923
328.0094, 23.12659
328.4915, 24.00702
328.9736, 25.21375
329.4557, 26.17511
329.9379, 26.69385
330.4200, 27.03058
330.9021, 27.61273
331.3842, 28.78467
331.8663, 29.73383
332.3484, 30.22333
332.8306, 30.19391
333.3127, 29.93896
333.7948, 29.07697
334.2769, 28.32153
334.7590, 28.54480
335.2411, 30.20013
335.7233, 31.84381
336.2054, 33.30792
336.6875, 34.73663
337.1696, 36.20587
337.6517, 37.58160
338.1339, 38.99799
338.6160, 40.60907
339.0981, 42.44055
339.5802, 44.63654
340.0623, 47.16614
340.5444, 49.94928
341.0266, 52.80408
341.5087, 55.68854
341.9908, 58.86304
342.4729, 62.82513
342.9550, 67.56757
343.4371, 71.34143
343.9193, 73.55560
344.4014, 74.90747
344.8835, 77.09991
345.3656, 80.38031
345.8477, 83.94098
346.3298, 87.50507
346.8120, 91.04034
347.2941, 94.03986
347.7762, 96.39587
348.2583, 98.94965
348.7404, 102.9736
349.2225, 108.1707
349.7047, 113.2545
350.1868, 117.6880
350.6689, 121.7070
351.1510, 125.6177
351.6331, 129.4104
352.1152, 133.4960
352.5974, 138.5687
353.0795, 144.1263
353.5616, 149.1908
354.0437, 153.1649
354.5258, 156.9380
355.0079, 161.7051
355.4901, 167.2021
355.9722, 172.3219
356.4543, 176.4362
356.9364, 179.8043
357.4185, 182.6082
357.9006, 184.6351
358.3828, 186.7837
358.8649, 190.2573
359.3470, 194.2610
359.8291, 197.2115
360.3112, 196.9510
360.7933, 196.5261
361.2755, 197.7641
361.7576, 200.9684
362.2397, 204.8003
362.7218, 208.7829
363.2039, 213.1018
363.6860, 217.9658
364.1682, 223.9167
364.6503, 229.9821
365.1324, 235.4033
365.6145, 240.2790
366.0966, 246.2764
366.5787, 254.5915
367.0609, 263.5409
367.5430, 272.0478
368.0251, 279.1785
368.5072, 286.9352
368.9893, 295.6340
369.4714, 305.0429
369.9536, 314.2180
370.4357, 323.2390
370.9178, 331.9821
371.3999, 340.2841
371.8820, 348.0263
372.3641, 355.9104
372.8463, 364.6765
373.3284, 373.0155
373.8105, 378.9985
374.2926, 382.4175
374.7747, 383.9421
375.2568, 383.8699
375.7390, 382.1844
376.2211, 378.1437
376.7032, 371.6840
377.1853, 362.8539
377.6674, 351.3125
378.1495, 336.8658
378.6317, 320.7990
379.1138, 302.8777
379.5959, 283.6948
380.0780, 264.1755
380.5601, 244.3540
381.0422, 224.9232
381.5244, 206.1590
382.0065, 188.0279
382.4886, 171.3745
382.9707, 156.1710
383.4528, 142.3449
383.9349, 129.4275
384.4171, 117.4929
384.8992, 106.9926
385.3813, 98.74274
385.8634, 91.71045
386.3455, 83.85284
386.8276, 75.11383
387.3098, 66.34821
387.7919, 57.82019
388.2740, 49.71631
388.7561, 42.43127
389.2382, 36.04663
389.7203, 30.44666
390.2025, 25.95013
390.6846, 22.37970
391.1667, 18.78241
391.6488, 14.46320
392.1309, 10.02240
392.6130, 5.986755
393.0952, 2.712219
393.5773, 0.5681760
394.0594, 4.632874
394.5415, 8.843201
395.0236, 12.01727
395.5057, 12.88489
395.9879, 13.43500
396.4700, 14.62256
396.9521, 16.72150
397.4342, 18.06097
397.9163, 17.99994
398.3984, 17.24530
398.8806, 16.44244
399.3627, 15.60669
399.8448, 14.77283
400.3269, 14.60223
400.8090, 14.75336
401.2911, 12.51318
401.7733, 5.856995
402.2554, 0.8087160
402.7375, 5.013916
403.2196, 5.357788
403.7017, 6.793335
404.1838, 9.646912
404.6660, 13.41003
405.1481, 17.05762
405.6302, 20.50854
406.1123, 24.21289
406.5944, 28.40582
407.0765, 33.07721
407.5587, 37.59436
408.0408, 41.93896
408.5229, 46.26410
409.0050, 51.12628
409.4871, 56.38739
409.9692, 60.24677
410.4514, 61.77069
410.9335, 62.29547
411.4156, 64.74817
411.8977, 68.97052
412.3798, 73.35596
412.8619, 76.77496
413.3441, 79.57684
413.8262, 82.39813
414.3083, 85.28278
414.7904, 88.38263
415.2725, 92.15692
415.7546, 96.26727
416.2368, 100.0869
416.7189, 103.1161
417.2010, 105.8587
417.6831, 108.8597
418.1652, 112.0691
418.6473, 114.8838
419.1295, 117.3020
419.6116, 118.9894
420.0937, 119.5900
420.5758, 118.5887
421.0579, 117.1208
421.5400, 115.1824
422.0222, 113.0335
422.5043, 111.2385
422.9864, 111.0193
423.4685, 110.2737
423.9506, 108.0247
424.4327, 103.7249
424.9149, 99.65002
425.3970, 95.88953
425.8791, 92.40283
426.3612, 89.05975
426.8433, 85.51178
427.3254, 82.70093
427.8076, 80.83423
428.2897, 79.81934
428.7718, 79.23700
429.2539, 79.18219
429.7360, 79.36102
430.2181, 79.57672
430.7003, 79.77917
431.1824, 80.30261
431.6645, 81.16345
432.1466, 82.34064
432.6287, 83.92639
433.1108, 85.92883
433.5930, 87.84064
434.0751, 89.41266
434.5572, 90.76746
435.0393, 92.22314
435.5214, 93.77911
436.0035, 95.59912
436.4857, 98.27380
436.9678, 101.3045
437.4499, 103.5561
437.9320, 104.8142
438.4141, 105.1295
438.8962, 103.8938
439.3784, 101.6343
439.8605, 99.90979
440.3426, 100.5357
440.8247, 101.4210
441.3068, 100.6856
441.7889, 98.08551
442.2711, 95.06268
442.7532, 91.88312
443.2353, 88.84100
443.7174, 86.24579
444.1995, 84.90222
444.6816, 83.27057
445.1638, 80.44159
445.6459, 76.81390
446.1280, 74.06567
446.6101, 73.44788
447.0922, 72.91974
447.5743, 71.52649
448.0565, 68.81934
448.5386, 66.41565
449.0207, 64.37347
449.5028, 62.62366
449.9849, 61.11084
450.4670, 59.72974
450.9492, 58.80884
451.4313, 58.49780
451.9134, 58.53412
452.3955, 57.94110
452.8776, 56.72034
453.3597, 55.35559
453.8419, 54.18951
454.3240, 53.16992
454.8061, 51.56024
455.2882, 49.20544
455.7703, 46.79358
456.2524, 45.35541
456.7346, 44.78595
457.2167, 44.47369
457.6988, 44.05328
458.1809, 43.72205
458.6630, 44.13745
459.1451, 45.35028
459.6273, 46.54559
460.1094, 46.42603
460.5915, 45.72150
461.0736, 45.58173
461.5557, 46.29181
462.0378, 47.55011
462.5200, 49.96454
463.0021, 52.76385
463.4842, 54.40118
463.9663, 53.12585
464.4484, 51.54401
464.9305, 50.93604
465.4127, 51.41187
465.8948, 51.86072
466.3769, 52.50128
466.8590, 52.84460
467.3411, 52.54102
467.8232, 50.82568
468.3054, 49.43549
468.7875, 48.52795
469.2696, 47.91968
469.7517, 47.15204
470.2338, 45.80658
470.7159, 45.19330
471.1981, 45.91669
471.6802, 48.04437
472.1623, 50.42639
472.6444, 53.32880
473.1265, 55.68732
473.6086, 56.26355
474.0908, 55.06158
474.5729, 53.27472
475.0550, 50.75275
475.5371, 48.40680
476.0192, 47.99573
476.5013, 49.30414
476.9835, 51.02478
477.4656, 52.71533
477.9477, 54.25488
478.4298, 55.41241
478.9119, 56.20563
479.3940, 57.06592
479.8762, 58.28601
480.3583, 59.65381
480.8404, 60.96466
481.3225, 62.45496
481.8046, 63.60229
482.2867, 63.75885
482.7689, 63.35168
483.2510, 63.45032
483.7331, 65.23584
484.2152, 66.85699
484.6973, 67.29437
485.1794, 66.11975
485.6616, 65.50482
486.1437, 66.16351
486.6258, 67.16974
487.1079, 67.78491
487.5900, 67.62970
488.0721, 67.74103
488.5543, 68.30334
489.0364, 69.09381
489.5185, 69.56873
490.0006, 69.68323
490.4827, 69.66327
490.9648, 69.82660
491.4470, 70.06421
491.9291, 68.75702
492.4112, 65.68469
492.8933, 62.46881
493.3754, 61.01184
493.8575, 60.82251
494.3397, 59.90448
494.8218, 57.63849
495.3039, 54.96844
495.7860, 53.31311
496.2681, 52.44122
496.7502, 51.46466
497.2324, 49.75684
497.7145, 47.71790
498.1966, 45.64075
498.6787, 43.50714
499.1608, 41.50977
499.6429, 39.90466
500.1251, 38.41534
500.6072, 36.69733
501.0893, 34.15179
501.5714, 32.11194
502.0535, 31.30292
502.5356, 31.16681
503.0178, 30.42560
503.4999, 28.19495
503.9820, 26.19324
504.4641, 24.95007
504.9462, 24.50439
505.4283, 23.88647
505.9105, 23.08734
506.3926, 22.15973
506.8747, 21.08771
507.3568, 19.83356
507.8389, 18.71991
508.3210, 17.72217
508.8032, 17.00983
509.2853, 17.04803
509.7674, 17.78918
510.2495, 18.46710
510.7316, 18.56293
511.2137, 18.46790
511.6959, 19.23010
512.1780, 20.76501
512.6601, 22.13318
513.1422, 22.56006
513.6243, 22.43994
514.1064, 22.27332
514.5886, 22.16742
515.0707, 21.95282
515.5528, 21.37140
516.0349, 20.66431
516.5170, 20.16895
516.9991, 20.26398
517.4813, 20.32922
517.9634, 20.08698
518.4455, 19.59387
518.9276, 19.29840
519.4097, 19.61591
519.8918, 19.82587
520.3740, 19.56445
520.8561, 18.54395
521.3382, 17.94391
521.8203, 17.68274
522.3024, 17.91864
522.7845, 19.27643
523.2667, 22.22687
523.7488, 23.47821
524.2309, 21.97626
524.7130, 18.73669
525.1951, 15.93951
525.6772, 13.58734
526.1594, 12.08588
526.6415, 12.35596
527.1236, 13.50464
527.6057, 13.51086
528.0878, 12.31250
528.5699, 10.56067
529.0521, 8.393860
529.5342, 6.153625
530.0163, 4.297974
530.4984, 3.025818
530.9805, 2.047180
531.4626, 1.436218
531.9448, 0.9920040
532.4269, 0.3269040
532.9090, 1.223450
533.3911, 2.492493
533.8732, 3.021790
534.3553, 2.775085
534.8375, 2.489685
535.3196, 1.928467
535.8017, 1.615417
536.2838, 1.930725
536.7659, 3.279724
537.2480, 4.092529
537.7302, 4.156128
538.2123, 3.968323
538.6944, 4.269531
539.1765, 5.083435
539.6586, 6.020630
540.1407, 7.049377
540.6229, 8.052551
541.1050, 8.746216
541.5871, 9.131287
542.0692, 9.289734
542.5513, 9.088562
543.0334, 8.738708
543.5156, 8.587524
543.9977, 8.656433
544.4798, 8.747986
544.9619, 8.876038
545.4440, 8.894775
545.9261, 8.634155
546.4083, 7.892761
546.8904, 7.113037
547.3725, 6.533752
547.8546, 6.043274
548.3367, 5.366638
548.8188, 4.035645
549.3010, 2.999329
549.7831, 2.655457
550.2652, 2.992859
550.7473, 2.824463
551.2294, 1.835693
551.7115, 0.8676150
552.1937, 0.3677370
552.6758, 0.3288570
553.1579, 0.8723140
553.6400, 2.168091
554.1221, 3.551331
554.6042, 4.194336
555.0864, 4.138245
555.5685, 3.626343
556.0506, 2.629456
556.5327, 1.370972
557.0148, 7.4767999E-02
557.4969, 1.564514
557.9791, 2.577942
558.4612, 2.246948
558.9433, 1.676880
559.4254, 1.875122
559.9075, 2.934692
560.3896, 3.770935
560.8718, 3.932922
561.3539, 3.662170
561.8360, 3.109375
562.3181, 1.662964
562.8002, 0.9745480
563.2823, 1.630127
563.7645, 2.866882
564.2466, 3.520264
564.7287, 3.375000
565.2108, 3.096436
565.6929, 2.784058
566.1750, 2.466431
566.6572, 2.216492
567.1393, 2.000977
567.6214, 2.200989
568.1035, 3.372986
568.5856, 5.157104
569.0677, 6.111267
569.5499, 6.121277
570.0320, 6.290833
570.5141, 8.048157
570.9962, 10.50452
571.4783, 12.05298
571.9604, 11.63275
572.4426, 11.67047
572.9247, 14.34662
573.4068, 18.47351
573.8889, 22.01495
574.3710, 23.44104
574.8531, 25.02991
575.3353, 27.71021
575.8174, 31.39319
576.2995, 34.78229
576.7816, 37.78040
577.2637, 40.51935
577.7458, 42.95020
578.2280, 44.85754
578.7101, 47.50201
579.1922, 51.00818
579.6743, 55.00336
580.1564, 59.26434
580.6385, 63.75696
581.1207, 68.00970
581.6028, 71.81830
582.0849, 75.42523
582.5670, 79.04626
583.0491, 82.70074
583.5313, 86.72095
584.0134, 91.23334
584.4955, 96.19910
584.9776, 101.7864
585.4597, 107.8526
585.9418, 113.7228
586.4240, 119.3896
586.9061, 124.4561
587.3882, 128.7778
587.8703, 132.2231
588.3524, 135.2331
588.8345, 137.5948
589.3167, 139.7429
589.7988, 141.9834
590.2809, 144.2668
590.7630, 146.7126
591.2451, 149.5187
591.7272, 152.4266
592.2094, 154.9417
592.6915, 157.0245
593.1736, 158.8741
593.6557, 160.4891
594.1378, 161.8856
594.6199, 163.0778
595.1021, 164.0971
595.5842, 165.1516
596.0663, 166.3968
596.5484, 167.6907
597.0305, 169.2532
597.5126, 171.1389
597.9948, 171.8686
598.4769, 169.5726
598.9590, 166.3409
599.4411, 163.9879
599.9232, 163.4727
600.4053, 162.8972
600.8875, 161.8256
601.3696, 160.5937
601.8517, 159.7225
602.3338, 159.6505
602.8159, 159.0516
603.2980, 157.6158
603.7802, 155.5352
604.2623, 153.3293
604.7444, 150.9454
605.2265, 148.9125
605.7086, 147.4277
606.1907, 146.5155
606.6729, 146.6055
607.1550, 147.6414
607.6371, 148.3384
608.1192, 147.2542
608.6013, 145.3655
609.0834, 143.9284
609.5656, 143.1591
610.0477, 142.6389
610.5298, 142.0012
611.0119, 141.5269
611.4940, 141.5343
611.9761, 142.4449
612.4583, 143.4768
612.9404, 144.6958
613.4225, 146.0166
613.9046, 147.2550
614.3867, 148.2969
614.8688, 149.4028
615.3510, 150.4683
615.8331, 151.6166
616.3152, 153.8169
616.7973, 157.1103
617.2794, 160.7605
617.7615, 164.5289
618.2437, 168.1755
618.7258, 170.9096
619.2079, 172.6581
619.6900, 174.5901
620.1721, 178.0552
620.6542, 182.1385
621.1364, 185.6922
621.6185, 188.4406
622.1006, 190.7817
622.5827, 192.9650
623.0648, 194.8867
623.5469, 196.3991
624.0291, 196.1995
624.5112, 197.2493
624.9933, 200.8527
625.4754, 205.9924
625.9575, 208.8862
626.4396, 208.7610
626.9218, 208.8085
627.4039, 210.5566
627.8860, 213.5701
628.3681, 214.9485
628.8502, 214.6317
629.3323, 214.2080
629.8145, 215.4202
630.2966, 217.2089
630.7787, 217.3882
631.2608, 215.6549
631.7429, 213.5248
632.2250, 211.9165
632.7072, 210.5933
633.1893, 209.3236
633.6714, 208.3564
634.1535, 206.9153
634.6356, 204.6045
635.1177, 201.7413
635.5999, 198.8232
636.0820, 196.0777
636.5641, 192.9052
637.0462, 188.9440
637.5283, 184.5624
638.0104, 181.1260
638.4926, 178.8090
638.9747, 176.1955
639.4568, 172.2639
639.9389, 167.5912
640.4210, 164.4850
640.9031, 162.8351
641.3853, 160.9650
641.8674, 157.0430
642.3495, 152.5172
642.8316, 149.0571
643.3137, 146.8248
643.7958, 145.6091
644.2780, 145.9222
644.7601, 146.8294
645.2422, 147.5516
645.7243, 148.5670
646.2064, 148.3105
646.6885, 145.2006
647.1707, 141.7081
647.6528, 141.4424
648.1349, 145.5610
648.6170, 149.0307
649.0991, 150.5867
649.5812, 151.3517
650.0634, 154.1207
650.5455, 158.8167
651.0276, 163.9498
651.5097, 168.8267
651.9918, 173.7996
652.4739, 179.6427
652.9561, 186.1429
653.4382, 192.6152
653.9203, 198.4744
654.4024, 204.1873
654.8845, 210.2076
655.3666, 216.5920
655.8488, 222.7211
656.3309, 227.9609
656.8130, 233.2907
657.2951, 239.3245
657.7772, 246.3742
658.2593, 253.4547
658.7415, 260.9939
659.2236, 267.8755
659.7057, 272.3734
660.1878, 274.5314
660.6699, 277.3126
661.1520, 281.4019
661.6342, 285.7834
662.1163, 289.4885
662.5984, 292.3341
663.0805, 293.8057
663.5626, 293.0253
664.0447, 291.4837
664.5269, 290.3312
665.0090, 289.2738
665.4911, 287.4141
665.9732, 283.8693
666.4553, 280.0840
666.9374, 276.6201
667.4196, 273.4362
667.9017, 269.9774
668.3838, 266.1887
668.8659, 262.2107
669.3480, 258.2118
669.8301, 254.1860
670.3123, 249.0726
670.7944, 242.6910
671.2765, 236.4308
671.7586, 231.3108
672.2407, 227.1555
672.7228, 223.8711
673.2050, 221.5391
673.6871, 219.1188
674.1692, 215.5289
674.6513, 211.4611
675.1334, 207.8051
675.6155, 205.3008
676.0977, 202.3242
676.5798, 198.1326
677.0619, 193.4297
677.5440, 189.2909
678.0261, 185.8709
678.5082, 182.8156
678.9904, 180.0888
679.4725, 177.7069
679.9546, 175.9008
680.4367, 174.7330
680.9188, 172.8127
681.4009, 169.2131
681.8831, 164.7612
682.3652, 161.1683
682.8473, 158.2189
683.3294, 155.0200
683.8115, 150.9987
684.2936, 146.5277
684.7758, 141.5206
685.2579, 136.0369
685.7400, 130.9787
686.2221, 127.2220
686.7042, 123.4753
687.1863, 119.0455
687.6685, 113.8306
688.1506, 108.3328
688.6327, 102.3475
689.1148, 96.26221
689.5969, 90.38312
690.0790, 84.65533
690.5612, 79.18634
691.0433, 74.04620
691.5254, 68.81946
692.0075, 62.82898
692.4896, 56.59320
692.9717, 51.22821
693.4539, 47.51111
693.9360, 43.70575
694.4181, 38.59991
694.9002, 32.89801
695.3823, 27.65442
695.8644, 22.83270
696.3466, 18.91956
696.8287, 16.41113
697.3108, 14.74524
697.7929, 12.33710
698.2750, 8.790283
698.7571, 6.024963
699.2393, 4.937927
699.7214, 4.947205
700.2035, 4.227966
700.6856, 2.886169
701.1677, 1.784485
701.6498, 1.345215
702.1320, 1.328674
702.6141, 1.383728
703.0962, 1.547729
703.5783, 2.237427
704.0604, 3.839661
704.5425, 5.778076
705.0247, 7.667969
705.5068, 9.390015
705.9889, 11.65314
706.4710, 14.70648
706.9531, 18.01349
707.4352, 21.09247
707.9174, 23.85480
708.3995, 27.55048
708.8816, 32.22900
709.3637, 37.40881
709.8458, 42.95874
710.3279, 48.70282
710.8101, 54.22516
711.2922, 59.40802
711.7743, 64.52502
712.2564, 69.79974
712.7385, 75.12360
713.2206, 80.37579
713.7028, 84.90454
714.1849, 90.19855
714.6670, 96.99445
715.1491, 104.5287
715.6312, 111.9313
716.1133, 119.3248
716.5955, 125.8816
717.0776, 131.1185
717.5597, 135.8468
718.0418, 141.6586
718.5239, 148.5162
719.0060, 155.7487
719.4882, 163.4067
719.9703, 170.8799
720.4524, 177.1955
720.9345, 182.7075
721.4166, 188.6218
721.8987, 195.8715
722.3809, 203.2158
722.8630, 210.0190
723.3451, 216.2973
723.8272, 222.4293
724.3093, 228.7786
724.7914, 234.4609
725.2736, 239.0376
725.7557, 242.5512
726.2378, 246.0205
726.7199, 249.6393
727.2020, 251.9219
727.6841, 251.3846
728.1663, 248.9581
728.6484, 246.8541
729.1305, 245.1230
729.6126, 242.5651
730.0947, 238.2927
730.5768, 232.8578
731.0590, 226.7361
731.5411, 220.0461
732.0232, 212.3228
732.5053, 203.3243
732.9874, 193.3788
733.4695, 182.3500
733.9517, 169.7580
734.4338, 157.8536
734.9159, 146.6353
735.3980, 135.8843
735.8801, 125.7418
736.3622, 115.9284
736.8444, 104.9773
737.3265, 92.36993
737.8086, 80.19244
738.2907, 70.42902
738.7728, 62.41888
739.2549, 55.45782
739.7371, 50.05457
740.2192, 44.52161
740.7013, 37.61670
741.1834, 30.62091
741.6655, 25.20343
742.1476, 22.11548
742.6298, 18.96979
743.1119, 15.27600
743.5940, 11.61993
744.0761, 8.995117
744.5582, 7.406372
745.0403, 6.822021
745.5225, 7.874207
746.0046, 8.818237
746.4867, 6.974670
746.9688, 3.373169
747.4509, 0.2982790
747.9330, 1.039917
748.4152, 1.956177
748.8973, 2.806519
749.3794, 3.640259
749.8615, 4.566345
750.3436, 5.869507
750.8257, 6.753296
751.3079, 6.806946
751.7900, 6.339905
752.2721, 6.582092
752.7542, 7.537109
753.2363, 8.309509
753.7184, 8.311218
754.2006, 7.965454
754.6827, 7.967590
755.1648, 8.220459
755.6469, 8.300110
756.1290, 7.727600
756.6111, 7.152039
757.0933, 6.906311
757.5754, 7.005859
758.0575, 7.420532
758.5396, 8.607422
759.0217, 9.418457
759.5038, 9.358459
759.9860, 8.504211
760.4681, 7.793274
760.9502, 7.195557
761.4323, 6.447205
761.9144, 5.302795
762.3965, 3.942627
762.8787, 2.666260
763.3608, 1.605408
763.8429, 0.7756350
764.3250, 0.2098390
764.8071, 0.2258300
765.2892, 0.4429930
765.7714, 0.3165280
766.2535, 0.9098510
766.7356, 2.811157
767.2177, 4.706848
767.6998, 5.915100
768.1819, 6.421814
768.6641, 6.655823
769.1462, 6.534119
769.6283, 6.607727
770.1104, 7.445618
770.5925, 8.791931
771.0746, 10.27173
771.5568, 11.87036
772.0389, 13.18970
772.5210, 13.44373
773.0031, 13.62006
773.4852, 14.59326
773.9673, 16.94482
774.4495, 18.59607
774.9316, 19.31641
775.4137, 19.67352
775.8958, 19.87268
776.3779, 19.81165
776.8600, 20.59619
777.3422, 22.37604
777.8243, 23.94623
778.3064, 23.73157
778.7885, 22.58020
779.2706, 22.14325
779.7527, 22.80719
780.2349, 23.42535
780.7170, 23.39777
781.1991, 22.99524
781.6812, 22.35327
782.1633, 21.04175
782.6454, 20.61688
783.1276, 21.48297
783.6097, 22.75867
784.0918, 23.60950
784.5739, 24.02881
785.0560, 24.34998
785.5381, 24.62805
786.0203, 24.67511
786.5024, 23.91132
786.9845, 22.87225
787.4666, 22.52087
787.9487, 23.22443
788.4308, 24.11139
788.9130, 24.87701
789.3951, 25.54205
789.8772, 26.13745
790.3593, 26.78925
790.8414, 27.11261
791.3235, 26.99048
791.8057, 26.67993
792.2878, 26.38147
792.7699, 26.10742
793.2520, 26.35284
793.7341, 27.31116
794.2162, 28.20386
794.6984, 28.22931
795.1805, 27.61182
795.6626, 26.68433
796.1447, 25.40686
796.6268, 24.09479
797.1089, 22.41876
797.5911, 21.00275
798.0732, 20.58527
798.5553, 21.84857
799.0374, 22.45874
799.5195, 22.10864
800.0016, 21.45160
800.4838, 21.36420
800.9659, 21.74512
801.4480, 22.02325
801.9301, 22.12750
802.4122, 21.98096
802.8943, 21.20203
803.3765, 20.24817
803.8586, 19.71704
804.3407, 19.92371
804.8228, 20.25354
805.3049, 20.73071
805.7870, 21.12640
806.2692, 21.23639
806.7513, 20.99445
807.2334, 20.70050
807.7155, 20.39044
808.1976, 19.92761
808.6797, 19.06842
809.1619, 17.98431
809.6440, 17.06647
810.1261, 16.33270
810.6082, 15.78217
811.0903, 15.68884
811.5724, 15.73895
812.0546, 15.57007
812.5367, 15.12732
813.0188, 14.34021
813.5009, 13.02484
813.9830, 11.63855
814.4651, 10.62616
814.9473, 9.983948
815.4294, 9.496887
815.9115, 9.129700
816.3936, 8.860229
816.8757, 9.234375
817.3578, 9.669373
817.8400, 8.965881
818.3221, 6.501953
818.8042, 4.068481
819.2863, 2.008423
819.7684, 0.7010500
820.2505, 0.6751100
820.7327, 2.979553
821.2148, 4.012268
821.6969, 3.373657
822.1790, 2.103088
822.6611, 1.195740
823.1432, 0.5997310
823.6254, 0.1937260
824.1075, 4.5471001E-02
824.5896, 0.1525880
825.0717, 0.9350590
825.5538, 1.923462
826.0359, 2.650635
826.5181, 2.944092
827.0002, 3.304199
827.4823, 3.803406
827.9644, 4.369080
828.4465, 5.014709
828.9286, 5.836304
829.4108, 6.178101
829.8929, 6.002808
830.3750, 5.536499
830.8571, 4.556335
831.3392, 3.491455
831.8214, 3.492249
832.3035, 4.743042
832.7856, 5.893311
833.2677, 6.323669
833.7498, 6.170837
834.2319, 5.378906
834.7141, 3.643860
835.1962, 2.556519
835.6783, 2.477173
836.1604, 2.503174
836.6425, 1.916016
837.1246, 0.7924800
837.6068, 0.5946040
838.0889, 1.340332
838.5710, 1.643982
839.0531, 1.2210000E-03
839.5352, 2.376282
840.0173, 4.207581
840.4995, 5.442383
840.9816, 6.525513
841.4637, 7.459595
841.9458, 8.409729
842.4279, 9.420349
842.9100, 10.49023
843.3922, 11.75464
843.8743, 13.20496
844.3564, 14.83398
844.8385, 16.73199
845.3206, 18.79395
845.8027, 20.71161
846.2849, 22.52313
846.7670, 24.37970
847.2491, 26.25049
847.7312, 28.29669
848.2133, 30.88086
848.6954, 33.88379
849.1776, 36.09564
849.6597, 37.17432
850.1418, 38.12683
850.6239, 39.01062
851.1060, 40.15247
851.5881, 43.06171
852.0703, 47.50391
852.5524, 51.48206
853.0345, 53.67542
853.5166, 55.19189
853.9987, 57.03210
854.4808, 59.00403
854.9630, 60.63538
855.4451, 61.47705
855.9272, 62.31042
856.4093, 63.45551
856.8914, 64.62524
857.3735, 65.10138
857.8557, 64.78168
858.3378, 65.07355
858.8199, 66.68140
859.3020, 68.43988
859.7841, 68.26501
860.2662, 66.96423
860.7484, 66.17944
861.2305, 66.67499
861.7126, 67.49860
862.1947, 68.68323
862.6768, 69.85974
863.1589, 70.50659
863.6411, 70.57159
864.1232, 70.12805
864.6053, 68.87610
865.0874, 67.83307
865.5695, 68.58734
866.0516, 70.67297
866.5338, 72.67407
867.0159, 74.35889
867.4980, 75.86206
867.9801, 76.67096
868.4622, 77.74182
868.9443, 80.15039
869.4265, 84.96326
869.9086, 89.01001
870.3907, 91.95801
870.8728, 94.61047
871.3549, 97.46362
871.8370, 100.5413
872.3192, 104.0700
872.8013, 108.1370
873.2834, 112.0455
873.7655, 115.0853
874.2476, 117.7892
874.7297, 120.4668
875.2119, 123.1596
875.6940, 126.6586
876.1761, 131.7114
876.6582, 136.8782
877.1403, 141.6353
877.6224, 146.0202
878.1046, 150.1465
878.5867, 154.0631
879.0688, 158.7147
879.5509, 164.9428
880.0330, 171.8892
880.5151, 178.5758
880.9973, 184.9833
881.4794, 191.0024
881.9615, 196.5486
882.4436, 201.7708
882.9257, 206.5072
883.4078, 210.9028
883.8900, 215.8352
884.3721, 221.5204
884.8542, 226.7244
885.3363, 230.9316
885.8184, 234.6992
886.3005, 239.2054
886.7827, 244.0613
887.2648, 248.2604
887.7469, 251.2787
888.2290, 253.8579
888.7111, 256.3013
889.1932, 258.5169
889.6754, 260.2952
890.1575, 261.3013
890.6396, 262.5568
891.1217, 264.4500
891.6038, 266.0222
892.0859, 265.7724
892.5681, 264.3028
893.0502, 263.2198
893.5323, 262.7593
894.0144, 262.4064
894.4965, 262.0006
894.9786, 261.4796
895.4608, 260.7540
895.9429, 259.8176
896.4250, 258.5198
896.9071, 257.0029
897.3892, 254.9404
897.8713, 252.1490
898.3535, 248.6333
898.8356, 244.2776
899.3177, 239.1481
899.7998, 234.2318
900.2819, 230.7026
900.7640, 227.1879
901.2462, 222.6358
901.7283, 217.0822
902.2104, 211.0133
902.6925, 204.5298
903.1746, 197.6705
903.6567, 190.1779
904.1389, 182.4434
904.6210, 175.5884
905.1031, 169.5544
905.5852, 163.5661
906.0673, 157.1722
906.5494, 150.8751
907.0316, 144.8892
907.5137, 139.3861
907.9958, 134.6002
908.4779, 131.2634
908.9600, 127.7935
909.4421, 123.9139
909.9243, 119.9989
910.4064, 116.3688
910.8885, 113.0524
911.3706, 110.2260
911.8527, 107.8756
912.3348, 106.3024
912.8170, 106.4244
913.2991, 107.1552
913.7812, 107.2034
914.2633, 106.1454
914.7454, 105.3141
915.2275, 104.7922
915.7097, 104.7000
916.1918, 105.3267
916.6739, 106.6514
917.1560, 107.0875
917.6381, 106.6213
918.1202, 106.1400
918.6024, 106.1038
919.0845, 106.4783
919.5666, 107.4497
920.0487, 108.8719
920.5308, 110.0317
921.0129, 110.7808
921.4951, 111.1146
921.9772, 110.8914
922.4593, 110.3137
922.9414, 110.1430
923.4235, 110.3548
923.9056, 109.9816
924.3878, 108.5016
924.8699, 106.6977
925.3520, 105.5905
925.8341, 104.7227
926.3162, 103.3529
926.7983, 101.0167
927.2805, 98.53619
927.7626, 95.84619
928.2447, 93.22589
928.7268, 91.14661
929.2089, 89.63751
929.6910, 87.44592
930.1732, 84.47455
930.6553, 81.29523
931.1374, 78.37067
931.6195, 75.57709
932.1016, 72.60657
932.5837, 69.45087
933.0659, 66.76935
933.5480, 65.30737
934.0301, 63.63049
934.5122, 61.02185
934.9943, 57.66724
935.4764, 55.10992
935.9586, 53.29260
936.4407, 51.66632
936.9228, 50.01984
937.4049, 48.29346
937.8870, 46.45789
938.3691, 44.48431
938.8513, 42.35529
939.3334, 39.22260
939.8155, 37.13605
940.2976, 36.75623
940.7797, 37.16522
941.2618, 36.96527
941.7440, 36.21484
942.2261, 35.44867
942.7082, 34.68829
943.1903, 34.33130
943.6724, 34.96014
944.1545, 36.06445
944.6367, 37.15759
945.1188, 38.17596
945.6009, 39.08185
946.0830, 39.66144
946.5651, 40.34564
947.0472, 41.25934
947.5294, 42.48505
948.0115, 45.01440
948.4936, 48.64990
948.9757, 51.36322
949.4578, 51.11700
949.9399, 50.20569
950.4221, 49.95636
950.9042, 50.45471
951.3863, 52.01965
951.8684, 55.75256
952.3505, 58.41345
952.8326, 59.35052
953.3148, 59.21021
953.7969, 59.08722
954.2790, 58.90015
954.7611, 58.10291
955.2432, 56.31030
955.7253, 54.78284
956.2075, 54.74341
956.6896, 55.20038
957.1717, 55.22028
957.6538, 54.71442
958.1359, 53.73010
958.6180, 52.02002
959.1002, 50.35876
959.5823, 49.53351
960.0644, 49.16034
960.5465, 47.94189
961.0286, 45.96490
961.5107, 44.17151
961.9929, 43.38391
962.4750, 42.61060
962.9571, 40.98810
963.4392, 38.92859
963.9213, 38.05408
964.4034, 38.83856
964.8856, 38.89197
965.3677, 37.42133
965.8498, 35.40063
966.3319, 34.12433
966.8140, 33.51099
967.2961, 33.58112
967.7783, 34.80438
968.2604, 35.42188
968.7425, 33.99213
969.2246, 32.28558
969.7067, 31.83752
970.1888, 32.98108
970.6710, 32.73785
971.1531, 30.91528
971.6352, 29.55121
972.1173, 31.00140
972.5994, 33.35608
973.0815, 33.90082
973.5637, 32.87946
974.0458, 32.27161
974.5279, 33.03925
975.0100, 33.92261
975.4921, 34.47144
975.9742, 35.01410
976.4564, 36.59222
976.9385, 39.14600
977.4206, 41.20422
977.9027, 42.29565
978.3848, 43.07251
978.8669, 44.17609
979.3491, 45.33685
979.8312, 46.23737
980.3133, 46.80072
980.7954, 47.11530
981.2775, 47.02777
981.7596, 46.97028
982.2418, 47.26575
982.7239, 47.84369
983.2060, 48.52606
983.6881, 49.24139
984.1702, 49.48315
984.6523, 48.18671
985.1345, 47.02936
985.6166, 47.24750
986.0987, 48.45020
986.5808, 49.22058
987.0629, 49.82336
987.5450, 48.88159
988.0272, 45.62689
988.5093, 41.92993
988.9914, 41.17505
989.4735, 42.02460
989.9556, 41.60040
990.4377, 38.93280
990.9199, 36.51685
991.4020, 35.63672
991.8841, 35.17798
992.3662, 34.45715
992.8483, 33.50037
993.3304, 32.20947
993.8126, 30.57715
994.2947, 28.72980
994.7768, 26.55615
995.2589, 24.34320
995.7410, 22.37891
996.2231, 20.63458
996.7053, 18.95099
997.1874, 17.56427
997.6695, 15.97198
998.1516, 13.91382
998.6337, 11.71002
999.1158, 9.869995
999.5980, 8.327026
1000.080, 6.646729
1000.562, 4.684082
1001.044, 2.881653
1001.526, 1.869019
1002.009, 0.9343260
1002.491, 0.6806030
1002.973, 3.180786
1003.455, 4.733521
1003.937, 5.051819
1004.419, 5.362488
1004.901, 6.340942
1005.383, 7.527161
1005.865, 7.853699
1006.348, 7.613037
1006.830, 7.640747
1007.312, 8.772278
1007.794, 9.609253
1008.276, 9.764282
1008.758, 9.353271
1009.240, 8.296814
1009.722, 6.472534
1010.205, 5.441406
1010.687, 5.338501
1011.169, 5.499512
1011.651, 5.606934
1012.133, 5.520996
1012.615, 5.092773
1013.097, 4.299255
1013.579, 3.253845
1014.061, 1.549561
1014.544, 0.2577510
1015.026, 0.2067260
1015.508, 0.2044680
1015.990, 0.5028080
1016.472, 1.076843
1016.954, 1.919067
1017.436, 3.112366
1017.918, 4.308838
1018.401, 5.596558
1018.883, 6.609131
1019.365, 6.838257
1019.847, 5.959045
1020.329, 6.032837
1020.811, 7.175476
1021.293, 8.585999
1021.775, 9.645996
1022.257, 10.66547
1022.740, 12.29132
1023.222, 14.33752
1023.704, 16.06964
1024.186, 17.12830
1024.668, 17.96692
1025.150, 18.57581
1025.632, 19.11865
1026.114, 19.78131
1026.596, 20.58832
1027.079, 21.90643
1027.561, 23.85590
1028.043, 25.77478
1028.525, 27.34985
1029.007, 28.49976
1029.489, 28.90741
1029.971, 28.49969
1030.453, 28.94617
1030.936, 30.52527
1031.418, 32.06763
1031.900, 33.15204
1032.382, 33.82300
1032.864, 33.88989
1033.346, 33.63062
1033.828, 33.73163
1034.310, 34.82159
1034.792, 35.70490
1035.275, 35.99121
1035.757, 36.04871
1036.239, 36.22754
1036.721, 36.53583
1037.203, 36.41455
1037.685, 35.86676
1038.167, 35.30957
1038.649, 34.97955
1039.132, 34.84052
1039.614, 35.12512
1040.096, 35.62970
1040.578, 35.26282
1041.060, 33.27625
1041.542, 32.36096
1042.024, 33.31293
1042.506, 34.80786
1042.989, 35.10181
1043.471, 34.35632
1043.953, 32.72510
1044.435, 30.00653
1044.917, 27.60425
1045.399, 26.26135
1045.881, 25.13953
1046.363, 23.84534
1046.845, 22.41980
1047.328, 21.24506
1047.810, 20.28369
1048.292, 19.17316
1048.774, 17.50299
1049.256, 15.94739
1049.738, 15.32465
1050.220, 15.07013
1050.702, 14.22638
1051.184, 12.42157
1051.667, 10.67383
1052.149, 8.868774
1052.631, 7.539734
1053.113, 7.682861
1053.595, 8.368774
1054.077, 7.443970
1054.559, 5.114014
1055.041, 3.348328
1055.523, 3.496155
1056.006, 3.665771
1056.488, 3.282166
1056.970, 2.640137
1057.452, 2.387329
1057.934, 2.473145
1058.416, 2.366760
1058.898, 1.943359
1059.380, 1.490051
1059.863, 1.141235
1060.345, 0.9513550
1060.827, 1.084412
1061.309, 1.565125
1061.791, 1.434692
1062.273, 0.5322880
1062.755, 0.2803340
1063.237, 0.6268920
1063.719, 0.6478270
1064.202, 0.3582760
1064.684, 1.6907001E-02
1065.166, 7.8739999E-03
1065.648, 0.8789060
1066.130, 1.422180
1066.612, 1.270691
1067.094, 1.022583
1067.576, 1.295288
1068.059, 1.956970
1068.541, 2.081909
1069.023, 1.701172
1069.505, 1.067139
1069.987, 2.3375999E-02
1070.469, 0.9500730
1070.951, 1.745422
1071.433, 2.247742
1071.916, 2.080322
1072.398, 1.096741
1072.880, 0.5549930
1073.362, 0.6383060
1073.844, 1.082458
1074.326, 1.599792
1074.808, 2.373230
1075.290, 3.875061
1075.772, 6.095032
1076.255, 7.243774
1076.737, 6.854858
1077.219, 6.283630
1077.701, 5.809814
1078.183, 5.667053
1078.665, 6.670776
1079.147, 8.272827
1079.629, 9.114929
1080.111, 8.430664
1080.594, 8.227539
1081.076, 9.705139
1081.558, 11.40533
1082.040, 12.44080
1082.522, 12.88086
1083.004, 13.65088
1083.486, 14.70752
1083.968, 15.71252
1084.450, 16.67834
1084.933, 17.35291
1085.415, 17.41571
1085.897, 17.12280
1086.379, 16.83246
1086.861, 16.40088
1087.343, 16.78674
1087.825, 18.16901
1088.307, 19.45880
1088.790, 19.44147
1089.272, 18.99469
1089.754, 19.13971
1090.236, 19.84039
1090.718, 20.65796
1091.200, 21.80920
1091.682, 22.42535
1092.164, 22.04156
1092.646, 21.63892
1093.129, 23.00433
1093.611, 25.50690
1094.093, 27.70648
1094.575, 29.37787
1095.057, 30.52386
1095.539, 30.37146
1096.021, 30.53943
1096.503, 31.88190
1096.986, 34.01221
1097.468, 35.35889
1097.950, 36.06049
1098.432, 37.22217
1098.914, 39.28156
1099.396, 41.62842
1099.878, 44.10217
1100.360, 46.47705
1100.843, 48.47168
1101.325, 50.04584
1101.807, 51.72223
1102.289, 53.50336
1102.771, 55.43250
1103.253, 57.72931
1103.735, 59.97021
1104.217, 61.24396
1104.699, 62.16010
1105.182, 63.92810
1105.664, 67.54510
1106.146, 70.58136
1106.628, 72.94830
1107.110, 74.82861
1107.592, 76.10992
1108.074, 77.15100
1108.556, 78.96637
1109.038, 81.37787
1109.521, 83.30804
1110.003, 83.97681
1110.485, 84.64673
1110.967, 85.86627
1111.449, 86.87549
1111.931, 86.42462
1112.413, 84.69684
1112.895, 82.53583
1113.377, 80.07581
1113.860, 77.90601
1114.342, 76.97034
1114.824, 75.77594
1115.306, 73.75256
1115.788, 70.87146
1116.270, 66.44391
1116.752, 60.47034
1117.234, 55.78577
1117.717, 53.41852
1118.199, 51.23407
1118.681, 46.97247
1119.163, 42.28278
1119.645, 38.79913
1120.127, 36.60596
1120.609, 33.86725
1121.091, 30.44513
1121.573, 27.61664
1122.056, 26.29541
1122.538, 25.26056
1123.020, 22.47516
1123.502, 18.93842
1123.984, 16.34326
1124.466, 15.65686
1124.948, 14.65063
1125.430, 13.06647
1125.913, 11.62500
1126.395, 11.09064
1126.877, 11.01367
1127.359, 10.24854
1127.841, 9.052795
1128.323, 8.051514
1128.805, 7.513794
1129.287, 7.090637
1129.770, 6.733948
1130.252, 6.361511
1130.734, 6.032654
1131.216, 5.685791
1131.698, 4.617004
1132.180, 2.984436
1132.662, 2.208313
1133.144, 4.020264
1133.626, 5.751892
1134.109, 6.590271
1134.591, 6.606201
1135.073, 5.539429
1135.555, 3.543457
1136.037, 2.556946
1136.519, 2.851868
1137.001, 3.237244
1137.483, 2.982910
1137.965, 2.362183
1138.448, 1.313904
1138.930, 0.1254270
1139.412, 0.4570920
1139.894, 0.4312130
1140.376, 0.1469120
1140.858, 1.418640
1141.340, 2.454651
1141.822, 2.110107
1142.304, 1.337891
1142.787, 1.004028
1143.269, 1.172241
1143.751, 1.269287
1144.233, 1.252441
1144.715, 1.402954
1145.197, 1.908264
1145.679, 2.352173
1146.161, 2.034668
1146.644, 1.420715
1147.126, 1.115967
1147.608, 1.299927
1148.090, 1.524597
1148.572, 1.744507
1149.054, 2.148193
1149.536, 3.093811
1150.018, 3.978760
1150.500, 3.425781
1150.983, 2.086792
1151.465, 1.262634
1151.947, 1.580261
1152.429, 1.914734
1152.911, 2.176575
1153.393, 2.457336
1153.875, 2.983154
1154.357, 3.515686
1154.840, 3.066284
1155.322, 2.024902
1155.804, 1.651489
1156.286, 3.700623
1156.768, 4.570679
1157.250, 3.265686
1157.732, 1.467590
1158.214, 0.7083740
1158.697, 0.7865600
1159.179, 0.8356320
1159.661, 0.8804930
1160.143, 1.233643
1160.625, 2.521606
1161.107, 3.503723
1161.589, 3.808594
1162.071, 3.676086
1162.553, 3.226563
1163.036, 2.543640
1163.518, 2.249817
1164.000, 2.374695
1164.482, 2.654297
1164.964, 3.109070
1165.446, 3.497681
1165.928, 3.891602
1166.410, 4.050171
1166.892, 3.190063
1167.375, 1.431885
1167.857, 0.7206420
1168.339, 1.341858
1168.821, 2.155457
1169.303, 2.322937
1169.785, 2.424133
1170.267, 2.972534
1170.749, 3.728760
1171.231, 3.988098
1171.714, 3.749451
1172.196, 3.286194
1172.678, 2.587830
1173.160, 2.161865
1173.642, 2.773193
1174.124, 3.567688
1174.606, 3.721436
1175.088, 3.383301
1175.571, 3.612122
1176.053, 4.458496
1176.535, 4.931580
1177.017, 4.693481
1177.499, 4.223938
1177.981, 3.797729
1178.463, 3.501160
1178.945, 3.468750
1179.427, 3.696716
1179.910, 3.894409
1180.392, 4.079346
1180.874, 4.015442
1181.356, 3.539429
1181.838, 2.948914
1182.320, 2.513062
1182.802, 2.170837
1183.284, 1.826843
1183.767, 1.443970
1184.249, 1.329407
1184.731, 1.533752
1185.213, 1.673828
1185.695, 1.467529
1186.177, 1.272034
1186.659, 1.837952
1187.141, 2.544556
1187.624, 2.398499
1188.106, 0.9973750
1188.588, 0.2012330
1189.070, 1.260681
1189.552, 1.667419
1190.034, 0.8612060
1190.516, 0.4739990
1190.998, 1.804871
1191.480, 2.969910
1191.963, 3.704956
1192.445, 3.977417
1192.927, 3.665710
1193.409, 2.648621
1193.891, 1.507141
1194.373, 0.1914670
1194.855, 0.6826780
1195.337, 7.5378001E-02
1195.819, 1.820435
1196.302, 3.141663
1196.784, 3.827454
1197.266, 3.979492
1197.748, 3.506226
1198.230, 2.989807
1198.712, 2.982727
1199.194, 3.140198
1199.676, 3.070923
1200.158, 2.768433
1200.641, 2.215698
1201.123, 1.229248
1201.605, 0.4172970
1202.087, 0.2802730
1202.569, 0.4033200
1203.051, 0.9466550
1203.533, 2.790894
1204.015, 4.091003
1204.498, 4.745972
1204.980, 4.500427
1205.462, 2.575684
1205.944, 1.748108
1206.426, 2.459045
1206.908, 3.443176
1207.390, 3.569641
1207.872, 3.144409
1208.354, 2.295898
1208.837, 1.184692
1209.319, 0.5081790
1209.801, 0.3311160
1210.283, 0.6532590
1210.765, 1.600281
1211.247, 2.555542
1211.729, 2.910156
1212.211, 2.889160
1212.694, 2.538940
1213.176, 1.995422
1213.658, 2.063904
1214.140, 3.143005
1214.622, 3.876953
1215.104, 4.082397
1215.586, 3.845520
1216.068, 3.168091
1216.551, 2.206787
1217.033, 0.8546140
1217.515, 0.7229000
1217.997, 1.299194
1218.479, 0.4887700
1218.961, 0.1165770
1219.443, 0.2117310
1219.925, 0.1798100
1220.407, 0.4938350
1220.890, 0.8814090
1221.372, 0.9038090
1221.854, 0.6187740
1222.336, 0.9268190
1222.818, 2.147217
1223.300, 2.659058
1223.782, 2.038879
1224.264, 1.126160
1224.746, 0.5913700
1225.229, 0.4268190
1225.711, 0.7080690
1226.193, 1.433350
1226.675, 2.389526
1227.157, 3.834778
1227.639, 3.864319
1228.121, 1.794434
1228.603, 0.4031980
1229.085, 0.5744630
1229.568, 0.1002810
1230.050, 0.5013430
1230.532, 0.6314700
1231.014, 1.426636
1231.496, 3.073242
1231.978, 3.601563
1232.460, 2.322876
1232.942, 1.013062
1233.425, 1.840881
1233.907, 3.043274
1234.389, 2.876160
1234.871, 1.557434
1235.353, 0.7788090
1235.835, 0.5589600
1236.317, 0.6461790
1236.799, 1.026184
1237.281, 1.481750
1237.764, 1.923096
1238.246, 2.292542
1238.728, 2.555237
1239.210, 2.740723
1239.692, 2.675537
1240.174, 2.408508
1240.656, 2.423340
1241.138, 2.883606
1241.621, 3.329712
1242.103, 3.523315
1242.585, 3.463318
1243.067, 3.019287
1243.549, 2.343811
1244.031, 1.948364
1244.513, 1.821289
1244.995, 1.822021
1245.478, 1.828308
1245.960, 2.319336
1246.442, 4.734558
1246.924, 6.671326
1247.406, 6.675720
1247.888, 5.374207
1248.370, 4.549438
1248.852, 4.121887
1249.334, 3.827209
1249.817, 3.607788
1250.299, 3.270996
1250.781, 2.518372
1251.263, 1.876282
1251.745, 1.493225
1252.227, 1.410461
1252.709, 2.147339
1253.191, 3.289612
1253.673, 3.352844
1254.156, 1.821899
1254.638, 1.047302
1255.120, 2.760315
1255.602, 3.756775
1256.084, 2.599731
1256.566, 0.6545410
1257.048, 0.6905520
1257.530, 1.986328
1258.012, 3.139709
1258.495, 3.906677
1258.977, 4.504517
1259.459, 4.912598
1259.941, 5.280823
1260.423, 5.631042
1260.905, 6.048462
1261.387, 6.867126
1261.869, 7.573792
1262.352, 7.173218
1262.834, 5.434326
1263.316, 4.611694
1263.798, 5.147705
1264.280, 5.329529
1264.762, 4.528381
1265.244, 3.593994
1265.726, 3.578674
1266.208, 3.991943
1266.691, 4.302612
1267.173, 4.450439
1267.655, 4.461182
1268.137, 4.331116
1268.619, 4.031189
1269.101, 3.471558
1269.583, 3.105957
1270.065, 3.685303
1270.548, 4.386353
1271.030, 4.229675
1271.512, 3.510376
1271.994, 3.805054
1272.476, 5.079041
1272.958, 5.615601
1273.440, 4.958191
1273.922, 4.154175
1274.405, 4.063477
1274.887, 3.947510
1275.369, 3.208374
1275.851, 2.204224
1276.333, 2.024963
1276.815, 2.514587
1277.297, 2.864319
1277.779, 2.910400
1278.261, 2.983765
1278.744, 3.403503
1279.226, 3.655884
1279.708, 3.470398
1280.190, 3.107422
1280.672, 3.116272
1281.154, 3.340576
1281.636, 3.396484
1282.118, 3.225403
1282.600, 2.953796
1283.083, 2.496521
1283.565, 2.154663
1284.047, 2.011780
1284.529, 1.988098
1285.011, 1.915222
1285.493, 1.919739
1285.975, 2.348450
1286.457, 3.174622
1286.939, 3.481018
1287.422, 3.025696
1287.904, 2.760010
1288.386, 2.906250
1288.868, 3.112427
1289.350, 3.048401
1289.832, 2.810974
1290.314, 2.408630
1290.796, 1.906616
1291.279, 1.543701
1291.761, 1.303223
1292.243, 1.214844
1292.725, 1.262817
1293.207, 1.664429
1293.689, 3.301270
1294.171, 4.624329
1294.653, 4.366882
1295.135, 3.158752
1295.618, 1.663025
1296.100, 3.2350000E-03
1296.582, 0.5057370
1297.064, 0.2747800
1297.546, 1.550293
1298.028, 3.770569
1298.510, 4.870239
1298.992, 3.830994
1299.475, 0.9132690
1299.957, 0.2194820
1300.439, 0.6375730
1300.921, 0.8882450
1301.403, 0.4442140
1301.885, 0.0000000E+00
##END=



