##NAMES=Joesmithite
##RRUFFID=R120157
##IDEAL CHEMISTRY=PbCa_2_Mg_3_Fe^3+^_2_(Si_6_Be_2_)O_22_(OH)_2_
##LOCALITY=Ramsorten drift, Langban, Sweden
##OWNER=RRUFF
##SOURCE=Rock Currier
##DESCRIPTION=Reddish brown to black short prismatic crystals and fragments associated with hematite, from type sample
##STATUS=The identification of this mineral has been confirmed only by single crystal X-ray diffraction.
##URL=rruff.info/R120157
93.97052, 0.0000000E+00
94.45264, 1.142731
94.93475, 1.213135
95.41687, 1.226257
95.89898, 0.9475400
96.38110, 0.8652650
96.86321, 1.273346
97.34533, 2.050781
97.82745, 2.480621
98.30956, 2.560669
98.79168, 2.216217
99.27380, 2.068848
99.75591, 2.107605
100.2380, 2.216125
100.7201, 2.505402
101.2023, 3.747772
101.6844, 4.353424
102.1665, 4.311096
102.6486, 4.459106
103.1307, 4.349701
103.6128, 3.760162
104.0950, 2.704987
104.5771, 1.739471
105.0592, 1.185822
105.5413, 0.8794860
106.0234, 0.6401060
106.5055, 0.4161680
106.9877, 0.2355650
107.4698, 1.6170000E-03
107.9519, 0.7115780
108.4340, 1.121185
108.9161, 0.7516480
109.3982, 0.1959840
109.8804, 1.159607
110.3625, 1.578003
110.8446, 1.272400
111.3267, 1.698639
111.8088, 3.404327
112.2909, 5.320129
112.7731, 7.095612
113.2552, 8.605255
113.7373, 9.827484
114.2194, 10.72379
114.7015, 11.26031
115.1836, 11.43079
115.6658, 11.16617
116.1479, 10.59219
116.6300, 9.732819
117.1121, 8.573669
117.5942, 7.316132
118.0763, 6.507324
118.5584, 6.378937
119.0406, 6.106903
119.5227, 5.259979
120.0048, 4.054718
120.4869, 3.080627
120.9690, 2.619476
121.4511, 2.573700
121.9333, 2.643066
122.4154, 2.908966
122.8975, 3.148315
123.3796, 3.045227
123.8617, 2.525085
124.3438, 2.264160
124.8260, 2.623901
125.3081, 3.403625
125.7902, 4.537323
126.2723, 6.076447
126.7544, 7.857056
127.2365, 9.476563
127.7187, 10.75787
128.2008, 12.19318
128.6829, 13.96637
129.1650, 15.95218
129.6471, 17.99905
130.1292, 20.03696
130.6114, 22.05624
131.0935, 23.89166
131.5756, 25.68393
132.0577, 27.15225
132.5398, 28.12317
133.0219, 28.68671
133.5041, 29.06165
133.9862, 29.44916
134.4683, 29.88947
134.9504, 30.00995
135.4325, 29.98410
135.9146, 29.58472
136.3968, 28.58914
136.8789, 27.01599
137.3610, 25.13046
137.8431, 23.16843
138.3252, 21.04953
138.8073, 19.34247
139.2895, 18.36467
139.7716, 17.69624
140.2537, 16.78760
140.7358, 15.46545
141.2179, 14.13547
141.7000, 13.43607
142.1821, 13.30743
142.6643, 13.13455
143.1464, 12.54393
143.6285, 11.67914
144.1106, 11.06924
144.5927, 10.93439
145.0748, 10.99150
145.5570, 10.92593
146.0391, 10.73738
146.5212, 10.64111
147.0033, 10.88039
147.4854, 11.50298
147.9675, 12.05553
148.4497, 12.20879
148.9318, 12.43515
149.4139, 12.97798
149.8960, 13.88831
150.3781, 15.06470
150.8602, 16.36766
151.3424, 17.88486
151.8245, 19.51137
152.3066, 20.96747
152.7887, 22.52316
153.2708, 24.43259
153.7529, 26.78175
154.2351, 29.44449
154.7172, 32.05345
155.1993, 34.89275
155.6814, 37.26761
156.1635, 39.02441
156.6456, 40.35136
157.1278, 41.52003
157.6099, 42.68771
158.0920, 43.70334
158.5741, 43.88521
159.0562, 43.23003
159.5383, 41.92596
160.0205, 39.70218
160.5026, 36.83441
160.9847, 33.89059
161.4668, 31.14311
161.9489, 28.60207
162.4310, 26.35101
162.9131, 24.42896
163.3953, 22.73907
163.8774, 21.24525
164.3595, 19.94583
164.8416, 18.87398
165.3237, 18.18359
165.8058, 17.67528
166.2880, 16.94736
166.7701, 15.67834
167.2522, 14.50641
167.7343, 14.25467
168.2164, 15.12570
168.6985, 15.88695
169.1807, 15.72403
169.6628, 15.06302
170.1449, 14.33072
170.6270, 13.59869
171.1091, 12.93761
171.5912, 12.54379
172.0734, 12.52125
172.5555, 12.60092
173.0376, 12.63672
173.5197, 12.69073
174.0018, 12.86037
174.4839, 13.22977
174.9661, 13.76131
175.4482, 14.22566
175.9303, 14.68594
176.4124, 14.98714
176.8945, 15.02208
177.3766, 14.87563
177.8588, 14.69017
178.3409, 14.56094
178.8230, 14.48940
179.3051, 14.48874
179.7872, 14.72375
180.2693, 14.86884
180.7515, 14.70137
181.2336, 14.33571
181.7157, 14.09966
182.1978, 14.32176
182.6799, 15.10078
183.1620, 15.33809
183.6441, 14.71986
184.1263, 13.97469
184.6084, 13.45267
185.0905, 13.15324
185.5726, 12.86546
186.0547, 12.39174
186.5368, 11.69753
187.0190, 11.08170
187.5011, 10.59439
187.9832, 10.15457
188.4653, 9.652283
188.9474, 9.088821
189.4296, 8.653687
189.9117, 8.644058
190.3938, 9.039856
190.8759, 9.124268
191.3580, 8.424789
191.8401, 7.561432
192.3223, 7.341263
192.8044, 7.957932
193.2865, 8.674072
193.7686, 8.745621
194.2507, 8.334473
194.7328, 7.827423
195.2150, 7.247971
195.6971, 6.662643
196.1792, 6.190170
196.6613, 5.829102
197.1434, 5.614227
197.6255, 5.641922
198.1077, 5.829819
198.5898, 5.978165
199.0719, 6.056915
199.5540, 6.028824
200.0361, 5.674591
200.5182, 4.624359
201.0004, 3.768066
201.4825, 3.769516
201.9646, 4.340790
202.4467, 4.767715
202.9288, 4.448898
203.4109, 3.440796
203.8930, 2.727753
204.3752, 2.579391
204.8573, 2.477417
205.3394, 2.263016
205.8215, 1.941071
206.3036, 1.551392
206.7857, 1.111710
207.2679, 0.6168060
207.7500, 0.1772310
208.2321, 0.4427030
208.7142, 0.7823490
209.1963, 0.4088900
209.6784, 0.4332580
210.1606, 1.104477
210.6427, 0.9754490
211.1248, 8.8486001E-02
211.6069, 0.7391970
212.0890, 0.7181240
212.5711, 0.5658870
213.0533, 0.4416660
213.5354, 0.3706820
214.0175, 0.3432460
214.4996, 0.3701480
214.9817, 0.4877930
215.4638, 0.3660890
215.9460, 0.3246610
216.4281, 0.9053650
216.9102, 0.9523930
217.3923, 0.5331730
217.8744, 3.7505999E-02
218.3565, 0.2132260
218.8387, 0.3207090
219.3208, 5.1529001E-02
219.8029, 1.454956
220.2850, 2.874634
220.7671, 3.708725
221.2492, 3.928436
221.7314, 3.835007
222.2135, 3.633667
222.6956, 3.353043
223.1777, 3.313904
223.6598, 3.655243
224.1419, 4.044754
224.6240, 4.288696
225.1062, 4.391006
225.5883, 4.451859
226.0704, 4.503128
226.5525, 4.557724
227.0346, 4.712692
227.5167, 5.019424
227.9989, 5.368561
228.4810, 5.726364
228.9631, 6.109024
229.4452, 6.388214
229.9273, 6.348694
230.4094, 6.100647
230.8916, 5.981674
231.3737, 6.170914
231.8558, 6.460068
232.3379, 6.546188
232.8200, 6.371033
233.3021, 6.309525
233.7843, 6.737564
234.2664, 7.421219
234.7485, 8.000656
235.2306, 8.274155
235.7127, 8.498169
236.1948, 9.064331
236.6770, 10.05489
237.1591, 11.05269
237.6412, 11.91229
238.1233, 12.64708
238.6054, 13.22517
239.0875, 13.57474
239.5697, 13.84325
240.0518, 14.22607
240.5339, 14.68810
241.0160, 15.40208
241.4981, 16.73723
241.9802, 18.21870
242.4624, 19.38712
242.9445, 20.06291
243.4266, 20.42856
243.9087, 20.75032
244.3908, 20.97063
244.8729, 21.30843
245.3550, 21.98903
245.8372, 22.71802
246.3193, 23.26894
246.8014, 23.56862
247.2835, 23.62927
247.7656, 23.40465
248.2477, 22.69414
248.7299, 22.18616
249.2120, 22.35544
249.6941, 22.54691
250.1762, 22.18451
250.6583, 21.10385
251.1404, 19.69646
251.6226, 18.62852
252.1047, 18.14088
252.5868, 17.46356
253.0689, 16.42484
253.5510, 15.27347
254.0331, 14.12474
254.5153, 13.03085
254.9974, 12.04109
255.4795, 11.19400
255.9616, 10.37473
256.4437, 10.00520
256.9258, 10.57594
257.4080, 11.16469
257.8901, 11.11049
258.3722, 10.32445
258.8543, 9.226913
259.3364, 8.373779
259.8185, 7.828842
260.3007, 7.401062
260.7828, 6.972641
261.2649, 6.705292
261.7470, 6.810211
262.2291, 7.247925
262.7112, 7.717773
263.1934, 7.853302
263.6755, 7.505188
264.1576, 7.361298
264.6397, 7.728317
265.1218, 8.004456
265.6039, 7.750443
266.0861, 7.016510
266.5682, 6.225769
267.0503, 5.822708
267.5324, 5.866302
268.0145, 5.941132
268.4966, 6.247086
268.9788, 6.390228
269.4609, 6.086884
269.9430, 5.429596
270.4251, 4.701035
270.9072, 4.118729
271.3893, 3.690735
271.8715, 3.258286
272.3536, 2.624878
272.8357, 2.169312
273.3178, 2.347946
273.7999, 2.900269
274.2820, 3.022690
274.7642, 2.069168
275.2463, 0.1856540
275.7284, 0.7302860
276.2105, 1.6113000E-02
276.6926, 0.7172850
277.1747, 0.7454070
277.6568, 0.3017270
278.1389, 0.1100010
278.6211, 0.2098690
279.1032, 8.8134997E-02
279.5853, 0.1283420
280.0674, 0.6371610
280.5495, 0.9228060
281.0316, 0.5875090
281.5138, 6.4285003E-02
281.9959, 0.4725650
282.4780, 0.3789980
282.9601, 3.6621001E-02
283.4422, 0.3258210
283.9243, 0.5136720
284.4065, 0.5654910
284.8886, 0.3538820
285.3707, 3.0594001E-02
285.8528, 0.1414640
286.3349, 5.5847000E-02
286.8170, 7.8552000E-02
287.2992, 0.1584630
287.7813, 0.9675750
288.2634, 1.448853
288.7455, 1.172882
289.2276, 0.6106410
289.7097, 0.3389280
290.1919, 0.4921420
290.6740, 0.8291020
291.1561, 1.057068
291.6382, 1.148865
292.1203, 1.352448
292.6024, 1.731598
293.0846, 2.208420
293.5667, 2.812225
294.0488, 3.540054
294.5309, 4.066635
295.0130, 3.989944
295.4951, 3.302200
295.9773, 3.142242
296.4594, 3.937256
296.9415, 4.997894
297.4236, 5.934143
297.9057, 6.704224
298.3878, 7.170776
298.8700, 7.092728
299.3521, 6.606033
299.8342, 6.585205
300.3163, 7.414612
300.7984, 8.349548
301.2805, 9.059738
301.7627, 9.530060
302.2448, 9.705124
302.7269, 9.426849
303.2090, 8.929718
303.6911, 8.927750
304.1732, 9.765915
304.6554, 10.52597
305.1375, 10.68054
305.6196, 10.42255
306.1017, 10.30585
306.5838, 10.59819
307.0659, 11.05304
307.5481, 11.16330
308.0302, 10.87848
308.5123, 10.44586
308.9944, 9.894989
309.4765, 9.325516
309.9586, 8.860962
310.4408, 8.497330
310.9229, 8.326569
311.4050, 8.645584
311.8871, 9.487778
312.3692, 10.00664
312.8513, 9.863815
313.3335, 9.391495
313.8156, 8.925293
314.2977, 8.505402
314.7798, 8.165222
315.2619, 7.934967
315.7440, 7.819687
316.2262, 7.814606
316.7083, 8.056305
317.1904, 8.311310
317.6725, 8.307831
318.1546, 8.065842
318.6367, 7.954010
319.1188, 8.286896
319.6010, 8.950333
320.0831, 9.356873
320.5652, 9.500336
321.0473, 9.408218
321.5294, 8.915543
322.0115, 8.155289
322.4937, 7.605057
322.9758, 7.528610
323.4579, 7.757309
323.9400, 7.854645
324.4221, 7.740433
324.9042, 7.685287
325.3864, 7.821182
325.8685, 8.078033
326.3506, 8.337631
326.8327, 8.570633
327.3148, 8.763657
327.7969, 8.884811
328.2791, 8.926666
328.7612, 8.961258
329.2433, 9.079285
329.7254, 9.162186
330.2075, 9.019714
330.6896, 8.619888
331.1718, 8.192429
331.6539, 7.933075
332.1360, 7.859146
332.6181, 7.966156
333.1002, 8.510620
333.5823, 8.976730
334.0645, 9.046295
334.5466, 8.726471
335.0287, 8.386017
335.5108, 8.293198
335.9929, 8.393356
336.4750, 8.363998
336.9572, 8.125961
337.4393, 7.873581
337.9214, 7.724884
338.4035, 7.613480
338.8856, 7.368713
339.3677, 6.893555
339.8499, 6.266159
340.3320, 5.754654
340.8141, 5.395950
341.2962, 5.020844
341.7783, 4.586594
342.2604, 4.138962
342.7426, 3.716019
343.2247, 3.332123
343.7068, 3.055405
344.1889, 3.022934
344.6710, 3.418320
345.1531, 3.493622
345.6353, 2.925461
346.1174, 2.253708
346.5995, 1.933105
347.0816, 1.971207
347.5637, 2.047165
348.0458, 1.880905
348.5280, 1.457596
349.0101, 1.140884
349.4922, 0.8757480
349.9743, 0.7476810
350.4564, 1.019470
350.9385, 1.466476
351.4207, 1.518219
351.9028, 0.7853850
352.3849, 0.4676670
352.8670, 1.101318
353.3491, 0.6426240
353.8312, 0.1585850
354.3134, 0.3332670
354.7955, 0.7495570
355.2776, 0.9695740
355.7597, 0.9536440
356.2418, 0.8103030
356.7239, 0.7268220
357.2061, 0.7545320
357.6882, 0.7376860
358.1703, 0.5613250
358.6524, 0.4283290
359.1345, 0.5872650
359.6166, 0.9867710
360.0987, 1.278091
360.5808, 1.087158
361.0630, 0.3411870
361.5451, 0.1885220
362.0272, 0.4387820
362.5093, 0.5566250
362.9914, 0.4887080
363.4735, 0.3312530
363.9557, 0.2761380
364.4378, 0.4590450
364.9199, 0.7749180
365.4020, 0.7558900
365.8841, 3.8437001E-02
366.3662, 0.5649870
366.8484, 0.4201970
367.3305, 0.1064760
367.8126, 0.1993100
368.2947, 0.8571780
368.7768, 1.663544
369.2589, 1.939606
369.7411, 1.458908
370.2232, 1.053131
370.7053, 0.5910800
371.1874, 0.3337710
371.6695, 0.5565340
372.1516, 1.166733
372.6338, 1.766800
373.1159, 1.979401
373.5980, 1.818756
374.0801, 1.775101
374.5622, 1.963196
375.0443, 2.130966
375.5265, 2.190308
376.0086, 2.177353
376.4907, 2.126587
376.9728, 2.026108
377.4549, 1.964005
377.9370, 2.184921
378.4192, 2.827652
378.9013, 3.358688
379.3834, 3.565521
379.8655, 3.646271
380.3476, 3.756760
380.8297, 3.927353
381.3119, 4.052185
381.7940, 4.010635
382.2761, 3.805740
382.7582, 3.561432
383.2403, 3.166046
383.7224, 2.898926
384.2046, 3.026581
384.6867, 3.445892
385.1688, 3.783081
385.6509, 3.774750
386.1330, 3.554626
386.6151, 3.396210
387.0973, 3.280045
387.5794, 3.298676
388.0615, 3.687302
388.5436, 4.196091
389.0257, 4.423737
389.5078, 4.125320
389.9900, 3.839584
390.4721, 4.225342
390.9542, 5.164856
391.4363, 5.704803
391.9184, 5.442886
392.4005, 4.744812
392.8827, 4.030807
393.3648, 3.268173
393.8469, 2.789734
394.3290, 2.821808
394.8111, 3.190262
395.2932, 3.715515
395.7754, 4.404129
396.2575, 4.954712
396.7396, 5.060318
397.2217, 4.745728
397.7038, 4.495132
398.1859, 4.341827
398.6681, 4.236496
399.1501, 4.165558
399.6323, 4.125748
400.1144, 4.105377
400.5965, 4.111084
401.0786, 4.109924
401.5607, 4.019791
402.0428, 3.703735
402.5250, 3.578400
403.0071, 3.916458
403.4892, 4.384827
403.9713, 4.611038
404.4534, 4.510178
404.9355, 4.199890
405.4177, 3.772736
405.8998, 3.153763
406.3819, 2.838928
406.8640, 3.092361
407.3461, 3.361130
407.8282, 3.369217
408.3104, 3.165665
408.7925, 2.921509
409.2746, 2.741776
409.7567, 2.632538
410.2388, 2.578247
410.7209, 2.792099
411.2031, 2.880768
411.6852, 2.687210
412.1673, 2.416687
412.6494, 2.277176
413.1315, 2.309784
413.6136, 2.362381
414.0958, 2.165176
414.5779, 1.532471
415.0600, 1.346298
415.5421, 2.165405
416.0242, 2.922821
416.5063, 3.142700
416.9885, 2.965302
417.4706, 2.761673
417.9527, 2.739227
418.4348, 2.896484
418.9169, 3.305405
419.3990, 4.175293
419.8812, 4.782898
420.3633, 4.490265
420.8454, 4.087341
421.3275, 4.439331
421.8096, 5.766449
422.2917, 7.172089
422.7739, 7.765350
423.2560, 7.590164
423.7381, 7.175797
424.2202, 6.292542
424.7023, 5.507156
425.1844, 5.300812
425.6666, 5.564072
426.1487, 5.863617
426.6308, 6.066940
427.1129, 6.168213
427.5950, 6.063004
428.0771, 5.725647
428.5593, 5.623383
429.0414, 6.167831
429.5235, 7.035400
430.0056, 7.481735
430.4877, 7.361038
430.9698, 7.142181
431.4520, 7.025620
431.9341, 6.980118
432.4162, 6.961655
432.8983, 6.969208
433.3804, 6.940201
433.8625, 6.796783
434.3447, 6.523834
434.8268, 6.221893
435.3089, 5.789719
435.7910, 5.417236
436.2731, 5.299438
436.7552, 5.366943
437.2374, 5.373032
437.7195, 5.169907
438.2016, 4.807587
438.6837, 4.480682
439.1658, 4.202255
439.6479, 3.942734
440.1301, 3.694839
440.6122, 3.470139
441.0943, 3.281357
441.5764, 3.132355
442.0585, 3.020004
442.5406, 2.947968
443.0227, 2.924515
443.5049, 2.882309
443.9870, 2.805801
444.4691, 2.727936
444.9512, 2.704193
445.4333, 2.677948
445.9154, 2.540070
446.3976, 2.225296
446.8797, 1.822540
447.3618, 1.539612
447.8439, 1.429443
448.3260, 1.281189
448.8081, 0.9401700
449.2903, 0.6322020
449.7724, 0.5390320
450.2545, 0.6504210
450.7366, 0.7720340
451.2187, 0.7523800
451.7008, 0.6186680
452.1830, 0.5000150
452.6651, 0.4286500
453.1472, 0.2974400
453.6293, 8.6425997E-02
454.1114, 0.5397800
454.5935, 0.7834170
455.0757, 0.7101140
455.5578, 0.5096440
456.0399, 0.2431640
456.5220, 4.2709000E-02
457.0041, 9.7411998E-02
457.4862, 0.2398220
457.9684, 0.6401980
458.4505, 0.6069950
458.9326, 0.1446690
459.4147, 0.1978450
459.8968, 0.2069240
460.3789, 0.1416170
460.8611, 0.2645570
461.3432, 0.5483400
461.8253, 0.7638550
462.3074, 0.7639620
462.7895, 0.5959010
463.2716, 0.4505920
463.7538, 0.3902440
464.2359, 0.2704620
464.7180, 8.5845999E-02
465.2001, 0.4251100
465.6822, 0.4379730
466.1643, 9.1980003E-02
466.6465, 0.3623810
467.1286, 0.6602020
467.6107, 0.7925870
468.0928, 0.8571620
468.5749, 0.8283230
469.0570, 0.7549290
469.5392, 0.6386410
470.0213, 0.4871670
470.5034, 0.2533720
470.9855, 9.5458999E-02
471.4676, 0.3607180
471.9497, 7.2540000E-02
472.4319, 0.9823000
472.9140, 1.653214
473.3961, 1.575653
473.8782, 1.218842
474.3603, 0.6857300
474.8424, 7.1121000E-02
475.3246, 0.3634030
475.8067, 0.4320220
476.2888, 0.2218630
476.7709, 0.1499940
477.2530, 0.7300420
477.7351, 1.164612
478.2173, 1.181076
478.6994, 1.007462
479.1815, 1.018585
479.6636, 1.277084
480.1457, 1.544037
480.6278, 1.694122
481.1100, 1.773041
481.5920, 1.838852
482.0742, 1.897751
482.5563, 2.037712
483.0384, 2.415642
483.5205, 3.008987
484.0026, 3.191132
484.4847, 2.514389
484.9669, 1.937752
485.4490, 1.883553
485.9311, 2.185898
486.4132, 2.619484
486.8953, 3.095917
487.3774, 3.446701
487.8596, 3.328789
488.3417, 2.324272
488.8238, 2.015991
489.3059, 3.097610
489.7880, 4.094452
490.2701, 4.053360
490.7523, 3.351990
491.2344, 3.001068
491.7165, 3.671165
492.1986, 4.913300
492.6807, 5.420670
493.1628, 4.842056
493.6450, 4.498993
494.1271, 4.888321
494.6092, 5.449280
495.0913, 5.843521
495.5734, 6.044769
496.0555, 6.186501
496.5377, 6.354210
497.0198, 6.531914
497.5019, 6.658188
497.9840, 6.711044
498.4661, 6.812180
498.9482, 7.058975
499.4304, 7.387856
499.9125, 7.667992
500.3946, 7.866798
500.8767, 8.082680
501.3588, 8.356514
501.8409, 8.682999
502.3231, 9.056351
502.8052, 9.475250
503.2873, 9.950111
503.7694, 10.54363
504.2515, 11.26539
504.7336, 11.61038
505.2158, 11.33674
505.6979, 11.00352
506.1800, 10.63314
506.6621, 10.38311
507.1442, 10.55811
507.6263, 11.24863
508.1085, 12.11939
508.5906, 12.64307
509.0727, 12.71439
509.5548, 12.81892
510.0369, 12.90636
510.5190, 13.07693
511.0012, 13.48689
511.4833, 13.99114
511.9654, 14.32410
512.4475, 14.36485
512.9296, 14.17971
513.4117, 13.78349
513.8939, 13.11623
514.3760, 12.69704
514.8581, 12.71897
515.3402, 12.94296
515.8223, 13.27484
516.3044, 13.67717
516.7866, 13.85771
517.2687, 13.52689
517.7508, 12.98005
518.2329, 12.54211
518.7150, 12.22302
519.1971, 12.06633
519.6793, 12.12691
520.1614, 12.32196
520.6435, 12.50068
521.1256, 12.74146
521.6077, 12.75780
522.0898, 12.18192
522.5720, 11.58343
523.0541, 11.58450
523.5362, 12.11961
524.0183, 12.58700
524.5004, 12.52408
524.9825, 12.04559
525.4647, 11.73864
525.9468, 11.59674
526.4289, 11.66637
526.9110, 12.17843
527.3931, 12.73351
527.8752, 13.04202
528.3574, 13.05508
528.8395, 12.84435
529.3216, 12.36635
529.8037, 11.71043
530.2858, 11.40511
530.7679, 11.66809
531.2501, 11.78736
531.7322, 11.20383
532.2143, 10.43424
532.6964, 10.01848
533.1785, 10.08527
533.6606, 10.37002
534.1428, 10.81704
534.6249, 11.23007
535.1070, 11.26295
535.5891, 10.88120
536.0712, 10.40759
536.5533, 10.03255
537.0355, 9.773438
537.5176, 9.677887
537.9997, 9.659210
538.4818, 9.847458
538.9639, 10.62653
539.4460, 11.49051
539.9282, 11.71695
540.4103, 11.21506
540.8924, 10.54019
541.3745, 10.24043
541.8566, 10.31769
542.3387, 10.61447
542.8209, 11.61753
543.3029, 12.18214
543.7850, 11.81781
544.2672, 11.05865
544.7493, 10.41618
545.2314, 10.04211
545.7135, 9.940933
546.1956, 10.30839
546.6777, 11.07072
547.1599, 11.32509
547.6420, 10.81986
548.1241, 10.25983
548.6062, 10.06268
549.0883, 10.10428
549.5704, 10.21663
550.0526, 10.39759
550.5347, 10.59798
551.0168, 10.89812
551.4989, 11.16853
551.9810, 11.05666
552.4631, 10.47992
552.9453, 9.892349
553.4274, 9.717949
553.9095, 9.959229
554.3916, 10.24413
554.8737, 10.63585
555.3558, 10.99010
555.8380, 11.41265
556.3201, 11.71114
556.8022, 11.53984
557.2843, 10.86295
557.7664, 10.12217
558.2485, 9.835014
558.7307, 10.01945
559.2128, 10.19830
559.6949, 10.37573
560.1770, 10.54047
560.6591, 10.82280
561.1412, 11.03452
561.6234, 10.87052
562.1055, 10.22102
562.5876, 9.570694
563.0697, 9.321655
563.5518, 9.411385
564.0339, 9.737999
564.5161, 10.38000
564.9982, 10.78336
565.4803, 10.43438
565.9624, 9.506378
566.4445, 8.843620
566.9266, 8.536926
567.4088, 8.362213
567.8909, 8.316246
568.3730, 8.326050
568.8551, 8.278717
569.3372, 8.166336
569.8193, 8.089455
570.3015, 8.149117
570.7836, 8.337700
571.2657, 8.520790
571.7478, 8.848427
572.2299, 8.954498
572.7120, 8.629417
573.1942, 8.163971
573.6763, 7.858643
574.1584, 7.740501
574.6405, 7.573647
575.1226, 7.057983
575.6047, 6.309799
576.0869, 5.845451
576.5690, 5.727104
577.0511, 5.629868
577.5332, 5.376442
578.0153, 5.074028
578.4974, 4.901711
578.9796, 4.888489
579.4617, 4.887070
579.9438, 4.783653
580.4259, 4.698029
580.9080, 4.905144
581.3901, 5.335114
581.8723, 5.464867
582.3544, 4.921204
582.8365, 3.916229
583.3186, 3.166542
583.8007, 2.811928
584.2828, 2.513870
584.7650, 2.331245
585.2471, 2.144173
585.7292, 1.830788
586.2113, 1.436295
586.6934, 1.124252
587.1755, 1.020554
587.6577, 1.018791
588.1398, 0.8581390
588.6219, 0.5066760
589.1040, 0.2229310
589.5861, 0.1743090
590.0682, 9.0515003E-02
590.5504, 0.4428250
591.0325, 1.313385
591.5146, 1.755951
591.9967, 1.178772
592.4788, 0.3844150
592.9609, 1.0574000E-02
593.4431, 1.6814999E-02
593.9252, 9.5604002E-02
594.4073, 0.2871480
594.8894, 0.4491880
595.3715, 0.4160390
595.8536, 0.1256330
596.3358, 8.0688000E-02
596.8179, 0.2592770
597.3000, 0.3062820
597.7821, 0.1094210
598.2642, 0.2149430
598.7463, 0.5503460
599.2285, 0.8500060
599.7106, 1.017685
600.1927, 0.8633420
600.6748, 0.4032060
601.1569, 0.1059720
601.6390, 4.9995001E-02
602.1212, 3.4157000E-02
602.6033, 8.0110002E-03
603.0854, 7.0762999E-02
603.5675, 0.3068310
604.0496, 0.7896190
604.5317, 1.200600
605.0139, 1.324692
605.4960, 1.303520
605.9781, 1.357010
606.4602, 1.502144
606.9423, 1.583008
607.4244, 1.455582
607.9066, 1.209137
608.3887, 1.252136
608.8708, 1.901649
609.3529, 2.396011
609.8350, 2.637611
610.3171, 2.777481
610.7993, 2.850296
611.2814, 2.912338
611.7635, 3.112747
612.2456, 3.626831
612.7277, 4.201904
613.2098, 4.197380
613.6920, 3.542099
614.1741, 3.146133
614.6562, 3.293175
615.1383, 3.688034
615.6204, 4.102608
616.1025, 4.526009
616.5847, 4.871536
617.0668, 5.218475
617.5489, 5.387238
618.0310, 5.061058
618.5131, 4.509064
618.9952, 4.310417
619.4774, 4.629379
619.9595, 5.130997
620.4416, 5.434608
620.9237, 5.533150
621.4058, 5.552017
621.8879, 5.342484
622.3701, 5.237114
622.8522, 5.449951
623.3343, 5.719131
623.8164, 5.714561
624.2985, 5.398338
624.7806, 5.122421
625.2628, 5.293587
625.7448, 5.705444
626.2269, 5.716202
626.7090, 5.267151
627.1912, 5.002785
627.6733, 5.329834
628.1554, 5.903412
628.6375, 6.006195
629.1196, 5.513748
629.6017, 5.241989
630.0839, 5.588760
630.5660, 5.940903
631.0481, 5.782692
631.5302, 5.289978
632.0123, 4.976250
632.4944, 5.077888
632.9766, 5.310020
633.4587, 5.140915
633.9408, 4.417656
634.4229, 4.144981
634.9050, 4.744751
635.3871, 5.267555
635.8693, 5.191673
636.3514, 4.818596
636.8335, 4.609245
637.3156, 4.691719
637.7977, 4.859200
638.2798, 5.102539
638.7620, 5.285110
639.2441, 5.017609
639.7262, 4.283775
640.2083, 3.735336
640.6904, 3.837555
641.1725, 4.390259
641.6547, 4.731171
642.1368, 4.701614
642.6189, 4.665344
643.1010, 4.630959
643.5831, 4.580727
644.0652, 4.450432
644.5474, 4.298050
645.0295, 4.284294
645.5116, 4.517395
645.9937, 4.812447
646.4758, 4.804779
646.9579, 4.496002
647.4401, 4.409454
647.9222, 4.727242
648.4043, 5.017250
648.8864, 4.873886
649.3685, 4.461487
649.8506, 4.280373
650.3328, 4.488663
650.8149, 4.746765
651.2970, 4.950066
651.7791, 5.085541
652.2612, 5.127724
652.7433, 5.086052
653.2255, 4.995949
653.7076, 4.869789
654.1897, 4.763741
654.6718, 4.943703
655.1539, 5.590462
655.6360, 6.048912
656.1182, 6.038841
656.6003, 5.957497
657.0824, 6.042816
657.5645, 6.250000
658.0466, 6.396759
658.5287, 6.361382
659.0109, 6.350151
659.4930, 6.692352
659.9751, 7.200371
660.4572, 7.231377
660.9393, 6.632523
661.4214, 6.149513
661.9036, 6.498413
662.3857, 7.570671
662.8678, 8.252029
663.3499, 8.348740
663.8320, 8.297295
664.3141, 7.976692
664.7963, 7.642876
665.2784, 7.544807
665.7605, 7.634865
666.2426, 7.660309
666.7247, 7.449043
667.2068, 7.113808
667.6890, 6.885857
668.1711, 6.758347
668.6532, 6.475258
669.1353, 5.924278
669.6174, 5.343666
670.0995, 4.978371
670.5817, 4.803520
671.0638, 4.556000
671.5459, 4.045372
672.0280, 3.690323
672.5101, 3.829346
672.9922, 4.071762
673.4744, 3.955109
673.9565, 3.462135
674.4386, 2.912239
674.9207, 2.547363
675.4028, 2.303246
675.8849, 1.933441
676.3671, 1.370354
676.8492, 0.9928510
677.3313, 1.002281
677.8134, 1.074554
678.2955, 0.8646550
678.7776, 0.4862060
679.2598, 0.3644410
679.7419, 0.8410420
680.2240, 1.282654
680.7061, 1.300842
681.1882, 1.049850
681.6703, 0.6967160
682.1525, 0.3076320
682.6346, 2.6854999E-02
683.1167, 2.1828000E-02
683.5988, 0.1303630
684.0809, 0.3540800
684.5630, 0.7734910
685.0452, 0.9921340
685.5273, 0.8078770
686.0094, 0.5372390
686.4915, 0.2826160
686.9736, 8.8859998E-02
687.4557, 7.4974000E-02
687.9379, 0.4341890
688.4200, 0.7221370
688.9021, 0.3676680
689.3842, 0.3316570
689.8663, 0.6561810
690.3484, 0.4816210
690.8306, 0.1351320
691.3127, 0.1564870
691.7948, 0.3845290
692.2769, 0.5052260
692.7590, 0.4352260
693.2411, 0.3894730
693.7233, 0.4444430
694.2054, 0.4670640
694.6875, 0.2896580
695.1696, 1.7761000E-02
695.6517, 6.0577001E-02
696.1339, 0.2276760
696.6160, 0.6042630
697.0981, 0.8225560
697.5802, 0.8753430
698.0623, 0.6633680
698.5444, 0.1501160
699.0266, 0.3006900
699.5087, 0.4387590
699.9908, 0.3152850
700.4729, 0.1171570
700.9550, 0.2669750
701.4371, 0.5516430
701.9193, 0.6386870
702.4014, 0.7125170
702.8835, 0.9316940
703.3656, 1.219330
703.8477, 1.390678
704.3298, 1.360054
704.8120, 1.249069
705.2941, 1.188126
705.7762, 1.174149
706.2583, 1.199081
706.7404, 1.269043
707.2225, 1.334099
707.7046, 1.356255
708.1867, 1.360504
708.6688, 1.422211
709.1509, 1.606895
709.6331, 1.678513
710.1152, 1.425148
710.5973, 1.245033
711.0794, 1.453323
711.5615, 1.881454
712.0436, 2.192909
712.5258, 2.269226
713.0079, 2.307373
713.4900, 2.551414
713.9721, 2.963135
714.4542, 3.359962
714.9363, 3.751419
715.4185, 4.033318
715.9006, 4.179253
716.3827, 4.164566
716.8648, 3.865944
717.3469, 3.198364
717.8290, 2.789673
718.3112, 2.799133
718.7933, 2.966492
719.2754, 3.248245
719.7575, 3.570770
720.2396, 3.874573
720.7217, 4.129272
721.2039, 4.267921
721.6860, 4.173454
722.1681, 3.921066
722.6502, 3.837669
723.1323, 3.952187
723.6144, 3.970665
724.0966, 3.709137
724.5787, 3.449142
725.0608, 3.590271
725.5429, 4.123306
726.0250, 4.468880
726.5071, 4.503647
726.9893, 4.461052
727.4714, 4.389633
727.9535, 4.305992
728.4356, 4.185646
728.9177, 4.057129
729.3998, 4.061905
729.8820, 4.366417
730.3641, 4.760780
730.8462, 4.650658
731.3283, 3.983246
731.8104, 3.701591
732.2925, 4.149284
732.7747, 4.673813
733.2568, 4.756493
733.7389, 4.455963
734.2210, 4.134880
734.7031, 3.610603
735.1852, 3.350510
735.6674, 3.698074
736.1495, 4.142197
736.6316, 4.260178
737.1137, 4.094933
737.5958, 3.880547
738.0779, 3.721664
738.5601, 3.637337
739.0422, 3.686935
739.5243, 3.864700
740.0064, 4.010956
740.4885, 4.051567
740.9706, 4.093132
741.4528, 4.281036
741.9349, 4.503372
742.4170, 4.482071
742.8991, 4.077568
743.3812, 3.795349
743.8633, 3.822990
744.3455, 3.852287
744.8276, 3.659271
745.3097, 3.388451
745.7918, 3.311218
746.2739, 3.483025
746.7560, 3.645447
747.2382, 3.476395
747.7203, 3.103828
748.2024, 2.998642
748.6845, 3.172333
749.1666, 3.218071
749.6487, 2.967865
750.1309, 2.616409
750.6130, 2.357162
751.0951, 2.194122
751.5772, 2.252373
752.0593, 2.787872
752.5414, 3.113213
753.0236, 2.819283
753.5057, 2.428345
753.9878, 2.522171
754.4699, 3.045708
754.9520, 3.450897
755.4341, 3.388878
755.9163, 3.094917
756.3984, 2.837708
756.8805, 2.636940
757.3626, 2.659355
757.8447, 2.961708
758.3268, 3.116730
758.8090, 2.765862
759.2911, 2.129517
759.7732, 1.843071
760.2553, 2.091972
760.7374, 2.309639
761.2195, 2.583092
761.7017, 2.749458
762.1838, 2.633698
762.6659, 2.389725
763.1480, 2.308861
763.6301, 2.483727
764.1122, 2.591560
764.5944, 2.239830
765.0765, 1.723175
765.5586, 1.500916
766.0407, 1.574745
766.5228, 1.884132
767.0049, 2.410980
767.4871, 2.844337
767.9692, 2.730408
768.4513, 2.043541
768.9334, 1.684448
769.4155, 1.886208
769.8976, 1.978065
770.3798, 1.648911
770.8619, 1.293800
771.3440, 1.264626
771.8261, 1.517082
772.3082, 1.709831
772.7903, 1.675636
773.2725, 1.614502
773.7546, 1.629250
774.2367, 1.722496
774.7188, 2.009247
775.2009, 2.428978
775.6830, 2.576691
776.1652, 2.152000
776.6473, 1.434044
777.1294, 1.089638
777.6115, 1.179176
778.0936, 1.251602
778.5757, 1.284813
779.0579, 1.284584
779.5400, 1.269936
780.0221, 1.218025
780.5042, 1.044556
780.9863, 0.6881790
781.4684, 0.5091320
781.9506, 0.7678450
782.4327, 1.058090
782.9148, 1.134567
783.3969, 1.053291
783.8790, 0.8990100
784.3611, 0.7126920
784.8433, 0.5652690
785.3254, 0.5364150
785.8075, 0.5907520
786.2896, 0.6604080
786.7717, 0.7476270
787.2538, 0.6392670
787.7360, 0.1905980
788.2181, 0.1876070
788.7002, 7.4455000E-02
789.1823, 0.4682390
789.6644, 0.8936610
790.1465, 1.143250
790.6286, 1.367836
791.1107, 1.730812
791.5928, 1.930962
792.0750, 1.614594
792.5571, 1.014793
793.0392, 0.6131440
793.5213, 0.5844960
794.0034, 0.7704160
794.4855, 1.247551
794.9677, 1.756409
795.4498, 1.749123
795.9319, 1.256233
796.4140, 0.6164700
796.8961, 6.1347999E-02
797.3782, 0.5056920
797.8604, 0.2453540
798.3425, 0.7743230
798.8246, 1.135551
799.3067, 0.3512880
799.7888, 0.2092590
800.2709, 7.6591000E-02
800.7531, 0.2995150
801.2352, 0.7172010
801.7173, 1.116951
802.1994, 1.280396
802.6815, 0.9955600
803.1636, 0.6906050
803.6458, 0.5588460
804.1279, 0.5481490
804.6100, 0.6152570
805.0921, 0.7442320
805.5742, 0.9419170
806.0563, 1.218445
806.5385, 1.468140
807.0206, 1.560806
807.5027, 1.490448
807.9848, 1.072380
808.4669, 0.1937940
808.9490, 0.4936450
809.4312, 0.6748350
809.9133, 0.5498010
810.3954, 0.3670810
810.8775, 9.6259996E-02
811.3596, 1.5457000E-02
811.8417, 0.2291490
812.3239, 0.3795620
812.8060, 0.2686160
813.2881, 4.0970001E-02
813.7702, 0.2265550
814.2523, 0.4839550
814.7344, 0.6310270
815.2166, 0.6212920
815.6987, 0.4759520
816.1808, 1.7220000E-02
816.6629, 0.5095710
817.1450, 0.4144860
817.6271, 0.2972370
818.1093, 0.8441050
818.5914, 0.7621920
819.0735, 0.3659670
819.5556, 0.2953110
820.0377, 0.6422160
820.5198, 0.7073360
821.0020, 0.3166920
821.4841, 2.8457999E-02
821.9662, 0.1036640
822.4483, 6.7336999E-02
822.9304, 0.1096530
823.4125, 0.2269170
823.8947, 0.2454760
824.3768, 7.5686999E-02
824.8589, 0.2556150
825.3410, 0.1777880
825.8231, 0.6897660
826.3052, 0.5660670
826.7874, 9.9803999E-02
827.2695, 0.6477320
827.7516, 0.7057950
828.2337, 0.5063900
828.7158, 0.2803610
829.1979, 7.1681999E-02
829.6801, 0.1334000
830.1622, 0.4889140
830.6443, 0.7406270
831.1264, 0.6765590
831.6085, 0.4418600
832.0906, 0.2528570
832.5728, 9.4570003E-02
833.0549, 0.1014860
833.5370, 0.5027160
834.0191, 0.7352100
834.5012, 0.4954570
834.9833, 0.1885800
835.4655, 0.1952630
835.9476, 0.4580500
836.4297, 0.5936130
836.9118, 0.3426930
837.3939, 0.1724970
837.8760, 0.5165520
838.3582, 0.9588200
838.8403, 0.9220620
839.3224, 0.5160980
839.8045, 0.2810710
840.2866, 0.4722370
840.7687, 0.8019290
841.2509, 0.8108330
841.7330, 0.5913810
842.2151, 0.7942090
842.6972, 1.472332
843.1793, 1.814621
843.6614, 1.458939
844.1436, 0.8418730
844.6257, 0.4052050
845.1078, 0.1500700
845.5899, 0.2388950
846.0720, 1.115383
846.5541, 1.670570
847.0363, 1.665878
847.5184, 1.453335
848.0005, 1.126888
848.4826, 0.7911000
848.9647, 0.6411670
849.4468, 0.7496410
849.9290, 0.9416010
850.4111, 1.232613
850.8932, 1.470810
851.3753, 1.447567
851.8574, 1.257904
852.3395, 1.130692
852.8217, 1.135288
853.3038, 1.191029
853.7859, 1.216740
854.2680, 1.234150
854.7501, 1.318253
855.2322, 1.454830
855.7144, 1.593758
856.1965, 1.731144
856.6786, 1.825672
857.1607, 1.842648
857.6428, 1.795025
858.1249, 1.819263
858.6071, 1.984520
859.0892, 2.075001
859.5713, 2.013855
860.0534, 1.965984
860.5355, 1.946251
861.0176, 1.992596
861.4998, 2.227570
861.9819, 2.639984
862.4640, 2.853615
862.9461, 2.533081
863.4282, 2.165314
863.9103, 2.109646
864.3925, 2.200195
864.8746, 2.175835
865.3567, 2.041481
865.8388, 2.006062
866.3209, 2.197372
866.8030, 2.427608
867.2852, 2.450840
867.7673, 2.338776
868.2494, 2.440716
868.7315, 2.792824
869.2136, 2.917942
869.6957, 2.535824
870.1779, 2.056847
870.6600, 2.068783
871.1421, 2.584679
871.6242, 2.893055
872.1063, 2.861347
872.5884, 2.830421
873.0705, 2.930389
873.5526, 2.972843
874.0347, 2.707291
874.5168, 2.280762
874.9990, 2.167622
875.4811, 2.573830
875.9632, 2.967934
876.4453, 3.242336
876.9274, 3.367657
877.4095, 3.181023
877.8917, 2.890820
878.3738, 2.854698
878.8559, 3.130791
879.3380, 3.456642
879.8201, 3.717659
880.3022, 3.841461
880.7844, 3.492817
881.2665, 2.875290
881.7486, 2.893009
882.2307, 3.667355
882.7128, 4.337971
883.1949, 4.327766
883.6771, 3.914318
884.1592, 3.724590
884.6413, 3.811905
885.1234, 3.987717
885.6055, 4.327881
886.0876, 4.539452
886.5698, 4.497345
887.0519, 4.300606
887.5340, 3.979847
888.0161, 3.562786
888.4982, 3.413391
888.9803, 3.862740
889.4625, 4.123165
889.9446, 3.820198
890.4267, 3.508774
890.9088, 3.606514
891.3909, 3.990589
891.8730, 4.402683
892.3552, 4.783142
892.8373, 4.967415
893.3194, 4.672760
893.8015, 4.290863
894.2836, 4.274853
894.7657, 4.481087
895.2479, 4.545818
895.7300, 4.433010
896.2121, 4.465340
896.6942, 4.927959
897.1763, 5.515179
897.6584, 5.533039
898.1406, 5.052639
898.6227, 4.792484
899.1048, 4.830776
899.5869, 4.900185
900.0690, 4.879852
900.5511, 4.812672
901.0333, 4.736931
901.5154, 4.634769
901.9975, 4.826385
902.4796, 5.563805
902.9617, 6.141125
903.4438, 6.389648
903.9260, 6.482372
904.4081, 6.481216
904.8902, 6.420498
905.3723, 6.374493
905.8544, 6.322639
906.3365, 6.372883
906.8187, 6.704815
907.3008, 7.004379
907.7829, 7.014954
908.2650, 6.894131
908.7471, 6.822784
909.2292, 6.854214
909.7114, 7.045311
910.1935, 7.561420
910.6756, 8.093262
911.1577, 8.273739
911.6398, 8.267742
912.1219, 8.394676
912.6041, 8.653687
913.0862, 8.838890
913.5683, 8.852673
914.0504, 8.835972
914.5325, 9.038208
915.0146, 9.382908
915.4968, 9.349129
915.9789, 8.917797
916.4610, 8.753727
916.9431, 9.070820
917.4252, 9.475113
917.9073, 9.651493
918.3895, 9.640606
918.8716, 9.607410
919.3537, 9.499725
919.8358, 9.510658
920.3179, 9.796383
920.8000, 10.00396
921.2822, 9.851929
921.7643, 9.593811
922.2464, 9.552578
922.7285, 9.728096
923.2106, 9.924610
923.6927, 10.16363
924.1749, 10.35431
924.6570, 10.45757
925.1391, 10.51489
925.6212, 10.54642
926.1033, 10.56144
926.5854, 10.56022
927.0676, 10.54188
927.5497, 10.55677
928.0318, 10.67168
928.5139, 10.80672
928.9960, 10.95501
929.4781, 11.03693
929.9603, 10.83060
930.4424, 10.36545
930.9245, 9.996559
931.4066, 9.967445
931.8887, 10.04644
932.3708, 9.811291
932.8530, 9.366592
933.3351, 9.223774
933.8172, 9.382305
934.2993, 9.313560
934.7814, 8.803005
935.2635, 8.208080
935.7457, 7.923698
936.2278, 7.893387
936.7099, 7.806580
937.1920, 7.685219
937.6741, 7.381031
938.1563, 6.764004
938.6384, 6.217106
939.1205, 5.995762
939.6026, 5.930470
940.0847, 5.701508
940.5668, 5.260025
941.0490, 4.947678
941.5311, 4.904514
942.0132, 4.793888
942.4953, 4.488930
942.9774, 4.153313
943.4595, 3.924767
943.9417, 3.760567
944.4238, 3.508820
944.9059, 3.070103
945.3880, 2.813969
945.8701, 3.101662
946.3522, 3.368614
946.8344, 3.151691
947.3165, 2.732735
947.7986, 2.505806
948.2807, 2.511589
948.7628, 2.558151
949.2449, 2.556503
949.7271, 2.525887
950.2092, 2.512749
950.6913, 2.466248
951.1734, 2.300079
951.6555, 2.025894
952.1376, 1.667255
952.6198, 1.245785
953.1019, 0.8783150
953.5840, 0.6602670
954.0661, 0.5938110
954.5482, 0.7602650
955.0303, 1.108032
955.5124, 1.301746
955.9945, 1.294098
956.4766, 1.138504
956.9587, 0.8496280
957.4409, 0.4979520
957.9230, 0.1660880
958.4051, 0.1439820
958.8872, 0.1549870
959.3693, 0.2069020
959.8514, 0.5660480
960.3336, 0.8825800
960.8157, 1.084274
961.2978, 1.099258
961.7799, 0.9671710
962.2620, 0.7991830
962.7441, 0.6083980
963.2263, 0.3405910
963.7084, 0.1157650
964.1905, 0.4955520
964.6726, 0.7636760
965.1547, 0.9006160
965.6368, 0.8773800
966.1190, 0.7058030
966.6011, 0.4292870
967.0832, 6.7759998E-02
967.5653, 0.4244540
968.0474, 0.5059810
968.5295, 0.4899020
969.0117, 0.4398770
969.4938, 0.3748280
969.9759, 0.3112790
970.4580, 0.2497100
970.9401, 0.1743700
971.4222, 5.6678999E-02
971.9044, 4.0520001E-02
972.3865, 5.9948001E-02
972.8686, 5.2723002E-02
973.3507, 7.2903000E-02
973.8328, 0.1123350
974.3149, 0.1547890
974.7971, 0.1894150
975.2792, 0.1680110
975.7613, 9.8040001E-03
976.2434, 0.1958010
976.7255, 0.1848980
977.2076, 3.2577999E-02
977.6898, 0.2446330
978.1719, 0.5665170
978.6540, 0.5659100
979.1361, 7.0660003E-02
979.6182, 0.5150720
980.1003, 0.6104010
980.5825, 0.4198840
981.0646, 0.7249830
981.5467, 1.441036
982.0288, 1.894028
982.5109, 1.949421
982.9930, 1.703606
983.4752, 1.170502
983.9573, 0.6020890
984.4394, 0.5070190
984.9215, 0.8884700
985.4036, 1.277737
985.8857, 1.697193
986.3679, 1.993771
986.8500, 2.138279
987.3321, 2.105759
987.8142, 1.826958
988.2963, 1.399418
988.7784, 1.123676
989.2606, 1.005695
989.7427, 1.034466
990.2248, 1.307873
990.7069, 1.539505
991.1890, 1.639633
991.6711, 1.662712
992.1533, 1.622856
992.6354, 1.542782
993.1175, 1.562927
993.5996, 1.796143
994.0817, 1.926468
994.5638, 1.836391
995.0460, 1.779091
995.5281, 1.883244
996.0102, 2.046970
996.4923, 2.156750
996.9744, 2.216526
997.4565, 2.301048
997.9387, 2.425552
998.4208, 2.573135
998.9029, 2.820545
999.3850, 3.004536
999.8671, 3.019333
1000.349, 2.905571
1000.831, 2.662590
1001.313, 2.326954
1001.796, 2.139347
1002.278, 2.248337
1002.760, 2.454105
1003.242, 2.839378
1003.724, 3.105808
1004.206, 2.817707
1004.688, 2.244293
1005.170, 1.969997
1005.653, 2.110378
1006.135, 2.227100
1006.617, 1.951214
1007.099, 1.661018
1007.581, 1.711910
1008.063, 1.970760
1008.545, 2.354748
1009.027, 2.761848
1009.509, 2.942852
1009.992, 2.828938
1010.474, 2.710587
1010.956, 2.893135
1011.438, 3.163494
1011.920, 3.196869
1012.402, 3.067196
1012.884, 2.905666
1013.366, 2.752735
1013.849, 2.676651
1014.331, 2.706974
1014.813, 2.823364
1015.295, 3.019104
1015.777, 3.270908
1016.259, 3.542454
1016.741, 3.820824
1017.223, 3.999859
1017.705, 4.068756
1018.188, 4.181591
1018.670, 4.421005
1019.152, 4.674118
1019.634, 4.772728
1020.116, 4.754196
1020.598, 4.746857
1021.080, 4.759850
1021.562, 5.118652
1022.044, 5.893040
1022.527, 6.528919
1023.009, 6.702736
1023.491, 6.620075
1023.973, 6.575817
1024.455, 6.580193
1024.937, 6.723160
1025.419, 6.988232
1025.901, 7.387630
1026.384, 7.974762
1026.866, 8.469830
1027.348, 8.687210
1027.830, 8.733921
1028.312, 8.810730
1028.794, 8.923813
1029.276, 8.895840
1029.758, 8.645885
1030.240, 8.555553
1030.723, 8.788914
1031.205, 8.970402
1031.687, 8.816921
1032.169, 8.493248
1032.651, 8.347546
1033.133, 8.418461
1033.615, 8.356560
1034.097, 8.036957
1034.579, 7.845776
1035.062, 7.966946
1035.544, 8.052380
1036.026, 7.871658
1036.508, 7.515747
1036.990, 7.155987
1037.472, 6.767551
1037.954, 6.383018
1038.436, 5.938992
1038.919, 5.608269
1039.401, 5.566395
1039.883, 5.488762
1040.365, 5.060360
1040.847, 4.483253
1041.329, 4.222927
1041.811, 4.370052
1042.293, 4.348495
1042.776, 3.998085
1043.258, 3.688370
1043.740, 3.560818
1044.222, 3.421291
1044.704, 3.056450
1045.186, 2.620800
1045.668, 2.476944
1046.150, 2.722210
1046.632, 2.723797
1047.115, 2.154388
1047.597, 1.693687
1048.079, 1.505493
1048.561, 1.482330
1049.043, 1.672585
1049.525, 1.925663
1050.007, 1.957695
1050.489, 1.718380
1050.971, 1.488590
1051.454, 1.354496
1051.936, 1.194019
1052.418, 0.8355260
1052.900, 0.5697900
1053.382, 0.7490010
1053.864, 1.115318
1054.346, 1.147541
1054.828, 0.7629200
1055.311, 0.4773370
1055.793, 0.5207520
1056.275, 0.5863530
1056.757, 0.5033950
1057.239, 0.3987080
1057.721, 0.3581960
1058.203, 0.3782920
1058.685, 0.4613490
1059.167, 0.6215710
1059.650, 0.6881290
1060.132, 0.5100400
1060.614, 0.3219220
1061.096, 0.1902500
1061.578, 0.1086350
1062.060, 4.2427000E-02
1062.542, 3.0273000E-02
1063.024, 0.1720960
1063.506, 0.4663510
1063.989, 0.6059150
1064.471, 0.2765880
1064.953, 8.6719997E-02
1065.435, 0.4219250
1065.917, 0.8353770
1066.399, 1.028004
1066.881, 1.024342
1067.363, 0.8409080
1067.846, 0.5188940
1068.328, 0.2885400
1068.810, 0.2697680
1069.292, 0.3050080
1069.774, 0.3012350
1070.256, 0.3517720
1070.738, 0.6006550
1071.220, 0.9084170
1071.703, 1.085541
1072.185, 1.101116
1072.667, 0.9709430
1073.149, 0.5614240
1073.631, 0.3181420
1074.113, 0.6790280
1074.595, 1.048279
1075.077, 0.8933980
1075.559, 0.5518840
1076.042, 0.5219990
1076.524, 0.7873920
1077.006, 0.9109190
1077.488, 0.6746600
1077.970, 0.5070340
1078.452, 0.6514550
1078.934, 0.8830720
1079.416, 1.092827
1079.898, 1.273598
1080.380, 1.430611
1080.863, 1.561859
1081.345, 1.656952
1081.827, 1.706314
1082.309, 1.738701
1082.791, 1.749889
1083.273, 1.771954
1083.755, 1.857723
1084.237, 1.936394
1084.720, 1.882435
1085.202, 1.767113
1085.684, 1.824001
1086.166, 2.142101
1086.648, 2.353081
1087.130, 2.200596
1087.612, 2.024956
1088.094, 2.003273
1088.577, 2.040573
1089.059, 2.078457
1089.541, 2.088970
1090.023, 1.976334
1090.505, 1.716938
1090.987, 1.686203
1091.469, 2.350845
1091.951, 2.843502
1092.433, 2.587532
1092.916, 2.215839
1093.398, 2.286980
1093.880, 2.570518
1094.362, 2.620983
1094.844, 2.386536
1095.326, 2.142052
1095.808, 1.902931
1096.290, 1.770905
1096.772, 1.937359
1097.255, 2.050114
1097.737, 1.828453
1098.219, 1.453197
1098.701, 1.154251
1099.183, 0.9613610
1099.665, 0.8857730
1100.147, 0.9290700
1100.629, 1.085415
1101.112, 1.532707
1101.594, 1.890884
1102.076, 1.949600
1102.558, 1.839794
1103.040, 1.691528
1103.522, 1.508118
1104.004, 1.231140
1104.486, 0.7564470
1104.969, 0.4855880
1105.451, 0.6733090
1105.933, 0.8379140
1106.415, 0.8141860
1106.897, 0.7087360
1107.379, 0.5290570
1107.861, 0.3333700
1108.343, 0.3010980
1108.825, 0.4929080
1109.307, 0.5661810
1109.790, 0.2820430
1110.272, 0.1751400
1110.754, 0.5367890
1111.236, 0.9101910
1111.718, 1.104668
1112.200, 1.096966
1112.682, 0.7565120
1113.164, 5.3883001E-02
1113.647, 0.3323060
1114.129, 0.2311480
1114.611, 9.0111002E-02
1115.093, 0.2088240
1115.575, 0.3357240
1116.057, 3.5440000E-03
1116.539, 0.4327890
1117.021, 0.5753780
1117.504, 0.4510840
1117.986, 0.2418400
1118.468, 0.1901280
1118.950, 0.3626630
1119.432, 9.7075999E-02
1119.914, 6.7432001E-02
1120.396, 0.1414910
1120.878, 0.3261220
1121.360, 5.5828001E-02
1121.843, 0.4403150
1122.325, 0.4466670
1122.807, 0.1542820
1123.289, 0.5298190
1123.771, 0.6384660
1124.253, 0.6648640
1124.735, 0.6325530
1125.217, 0.5530590
1125.699, 0.4295460
1126.182, 0.2688710
1126.664, 5.9909999E-02
1127.146, 0.1833800
1127.628, 0.1802600
1128.110, 0.1075330
1128.592, 0.2575300
1129.074, 0.1976700
1129.556, 0.1164400
1130.039, 8.5879996E-02
1130.521, 0.1599080
1131.003, 0.4472080
1131.485, 0.8167650
1131.967, 0.7044600
1132.449, 0.1560940
1132.931, 1.3523000E-02
1133.413, 0.3135300
1133.896, 0.6248740
1134.378, 0.8160780
1134.860, 0.9400410
1135.342, 1.038811
1135.824, 1.088310
1136.306, 1.016014
1136.788, 0.8576390
1137.270, 0.7595480
1137.752, 0.7094920
1138.234, 0.5973970
1138.717, 0.4292830
1139.199, 0.4327700
1139.681, 0.7254600
1140.163, 1.006107
1140.645, 0.8350640
1141.127, 0.5255390
1141.609, 0.7939640
1142.091, 1.315376
1142.574, 1.300354
1143.056, 0.8343240
1143.538, 0.4849780
1144.020, 0.4300310
1144.502, 0.4799190
1144.984, 0.5424920
1145.466, 0.5574150
1145.948, 0.3904380
1146.431, 0.1906360
1146.913, 0.1106070
1147.395, 0.1626360
1147.877, 0.4287300
1148.359, 0.8341030
1148.841, 1.053291
1149.323, 0.9232100
1149.805, 0.7600560
1150.287, 0.7277300
1150.770, 0.7736400
1151.252, 0.9526440
1151.734, 1.114262
1152.216, 1.044243
1152.698, 0.8387070
1153.180, 0.7189450
1153.662, 0.7323760
1154.144, 0.8894160
1154.626, 1.621162
1155.109, 1.889240
1155.591, 0.8463330
1156.073, 0.2071340
1156.555, 0.4998210
1157.037, 0.3050040
1157.519, 0.1097340
1158.001, 0.6603930
1158.483, 0.9740830
1158.966, 0.8496280
1159.448, 0.8467600
1159.930, 1.192101
1160.412, 1.397224
1160.894, 1.168926
1161.376, 0.9485090
1161.858, 1.162346
1162.340, 1.553497
1162.822, 1.536545
1163.305, 1.063789
1163.787, 0.6505240
1164.269, 0.1465110
1164.751, 0.2076840
1165.233, 1.124577
1165.715, 2.036774
1166.197, 2.608685
1166.679, 2.809719
1167.161, 2.539295
1167.644, 1.934654
1168.126, 1.561539
1168.608, 1.428768
1169.090, 1.296223
1169.572, 1.153835
1170.054, 1.032806
1170.536, 0.9422230
1171.018, 0.8573040
1171.500, 0.7364160
1171.983, 0.6846540
1172.465, 0.8325460
1172.947, 1.149147
1173.429, 1.656895
1173.911, 2.209576
1174.393, 2.170773
1174.875, 1.594746
1175.357, 1.050022
1175.840, 0.7585530
1176.322, 0.6774020
1176.804, 0.8098830
1177.286, 0.9525110
1177.768, 0.7481770
1178.250, 0.4897420
1178.732, 0.6055030
1179.214, 0.9562640
1179.697, 1.320721
1180.179, 1.608643
1180.661, 1.541325
1181.143, 0.8930360
1181.625, 0.4050450
1182.107, 0.7288440
1182.589, 1.123417
1183.071, 1.144146
1183.553, 0.9698680
1184.036, 0.6503790
1184.518, 0.3277470
1185.000, 0.2297330
1185.482, 0.3947790
1185.964, 0.6221810
1186.446, 0.9635470
1186.928, 1.164349
1187.410, 1.076061
1187.892, 0.9704170
1188.375, 1.022266
1188.857, 1.065849
1189.339, 0.8972850
1189.821, 0.5728380
1190.303, 0.4390490
1190.785, 0.5093270
1191.267, 0.7478370
1191.749, 1.327343
1192.232, 1.525677
1192.714, 1.084568
1193.196, 0.6656840
1193.678, 0.5989190
1194.160, 0.7173040
1194.642, 0.8341940
1195.124, 0.9463580
1195.606, 1.036373
1196.089, 1.105129
1196.571, 1.218052
1197.053, 1.372688
1197.535, 1.454945
1198.017, 1.432281
1198.499, 1.273022
1198.981, 0.9474910
1199.463, 0.6183890
1199.945, 0.4852070
1200.427, 0.5058400
1200.910, 0.7148860
1201.392, 0.9603310
1201.874, 0.8464740
1202.356, 0.4641380
1202.838, 0.1471020
1203.320, 6.8359999E-03
1203.802, 7.2746001E-02
1204.284, 0.4292870
1204.767, 0.7882540
1205.249, 0.8911930
1205.731, 0.9568330
1206.213, 1.184933
1206.695, 1.458347
1207.177, 1.698929
1207.659, 1.839546
1208.141, 1.700565
1208.624, 1.221996
1209.106, 0.9177740
1209.588, 1.070713
1210.070, 1.169407
1210.552, 1.045311
1211.034, 0.9170880
1211.516, 0.8441540
1211.998, 0.8631740
1212.480, 1.084278
1212.963, 1.411808
1213.445, 1.472656
1213.927, 1.187988
1214.409, 0.8589290
1214.891, 0.4716450
1215.373, 0.2536580
1215.855, 0.2252620
1216.337, 0.4189830
1216.819, 0.9101720
1217.302, 1.317749
1217.784, 1.122246
1218.266, 0.5624160
1218.748, 0.4153820
1219.230, 0.5830270
1219.712, 0.5501900
1220.194, 0.3392490
1220.676, 0.2453580
1221.159, 0.3150710
1221.641, 0.3400120
1222.123, 0.1990700
1222.605, 0.1159170
1223.087, 0.3504710
1223.569, 0.6826780
1224.051, 0.8913190
1224.533, 1.019764
1225.016, 1.112865
1225.498, 1.171352
1225.980, 1.170918
1226.462, 1.119610
1226.944, 1.096287
1227.426, 1.176224
1227.908, 1.142914
1228.390, 0.7689630
1228.872, 0.4601970
1229.354, 0.4008480
1229.837, 0.4614520
1230.319, 0.6279340
1230.801, 0.7978820
1231.283, 0.7845990
1231.765, 0.5920830
1232.247, 0.4870070
1232.729, 0.4615940
1233.211, 0.5810050
1233.694, 0.9361380
1234.176, 1.094551
1234.658, 0.8820420
1235.140, 0.5958370
1235.622, 0.4605140
1236.104, 0.4109080
1236.586, 0.3290820
1237.068, 0.2364850
1237.551, 0.2307210
1238.033, 0.2931860
1238.515, 0.3634260
1238.997, 0.4239770
1239.479, 0.4557190
1239.961, 0.4543110
1240.443, 0.3909760
1240.925, 0.2319950
1241.407, 8.4766001E-02
1241.890, 2.0480000E-03
1242.372, 2.8290000E-02
1242.854, 0.4085960
1243.336, 0.8040200
1243.818, 0.6711920
1244.300, 0.2440990
1244.782, 0.2158200
1245.264, 0.6516910
1245.746, 0.7616080
1246.229, 7.2342001E-02
1246.711, 0.4737010
1247.193, 0.2189940
1247.675, 0.7956580
1248.157, 0.8074110
1248.639, 0.6098630
1249.121, 0.3430710
1249.603, 0.1362460
1250.085, 0.2606240
1250.568, 0.6842420
1251.050, 0.9444850
1251.532, 1.038368
1252.014, 0.9098320
1252.496, 0.5452270
1252.978, 0.3182910
1253.460, 0.3465390
1253.942, 0.3981440
1254.425, 0.3239020
1254.907, 0.2155460
1255.389, 0.1898000
1255.871, 0.2316930
1256.353, 0.3333170
1256.835, 0.4706990
1257.317, 0.6325380
1257.799, 0.7790830
1258.281, 0.8083720
1258.764, 0.7188300
1259.246, 0.6323850
1259.728, 0.6065710
1260.210, 0.5700530
1260.692, 0.4468990
1261.174, 0.3584210
1261.656, 0.3684840
1262.138, 0.4385950
1262.620, 0.5569420
1263.103, 0.6958160
1263.585, 0.8392940
1264.067, 0.9869770
1264.549, 1.000187
1265.031, 0.7905160
1265.513, 0.7324180
1265.995, 0.7752150
1266.477, 0.8112870
1266.960, 0.6663130
1267.442, 0.4301950
1267.924, 0.1410030
1268.406, 1.3332000E-02
1268.888, 0.2540210
1269.370, 0.6938250
1269.852, 0.6378480
1270.334, 0.3309820
1270.817, 0.5123060
1271.299, 0.9806020
1271.781, 1.055553
1272.263, 0.7290570
1272.745, 0.4620550
1273.227, 0.4307590
1273.709, 0.5277020
1274.191, 0.8223270
1274.673, 1.042988
1275.156, 0.9430500
1275.638, 0.8519670
1276.120, 1.143124
1276.602, 1.435257
1277.084, 1.155918
1277.566, 0.5411490
1278.048, 0.3803440
1278.530, 0.7618900
1279.012, 0.7460590
1279.495, 0.1203460
1279.977, 8.0588996E-02
1280.459, 0.3601230
1280.941, 0.6286810
1281.423, 0.4082570
1281.905, 0.1710470
1282.387, 0.2852130
1282.869, 0.3532180
1283.352, 0.4391060
1283.834, 0.3196260
1284.316, 0.1703410
1284.798, 0.0000000E+00
##END=



