##NAMES=Johannsenite
##RRUFFID=R150013
##IDEAL CHEMISTRY=CaMn^2+^Si_2_O_6_
##LOCALITY=Wessels mine, Kalahari Manganese field, South Africa
##OWNER=RRUFF
##SOURCE=Paul Botha
##DESCRIPTION=Pale blue, massive, epimorphic
##STATUS=The identification of this mineral is confirmed by single-crystal X-ray diffraction and chemical analysis.
##URL=rruff.info/R150013
##MEASURED CHEMISTRY=Ca_1.00_Mn^2+^_1.02_Si_1.99_O_6_
90.59570, 0.0000000E+00
91.07782, 0.1347660
91.55994, 2.616333
92.04205, 30.17444
92.52417, 63.14307
93.00629, 95.55859
93.48840, 116.5786
93.97052, 117.8119
94.45264, 100.3550
94.93475, 83.24170
95.41687, 68.97522
95.89898, 59.20129
96.38110, 51.42578
96.86321, 42.61365
97.34533, 30.95032
97.82745, 15.93042
98.30956, 6.159302
98.79168, 0.3299560
99.27380, 2.288330
99.75591, 1.432129
100.2380, 3.075073
100.7201, 9.782959
101.2023, 17.93750
101.6844, 26.28125
102.1665, 33.21570
102.6486, 40.59875
103.1307, 46.28943
103.6128, 47.48694
104.0950, 43.77136
104.5771, 37.73462
105.0592, 28.50781
105.5413, 18.28064
106.0234, 10.53149
106.5055, 6.235840
106.9877, 5.146973
107.4698, 7.347778
107.9519, 15.97876
108.4340, 23.94653
108.9161, 28.69568
109.3982, 30.42761
109.8804, 29.94788
110.3625, 27.51709
110.8446, 22.33887
111.3267, 20.89050
111.8088, 23.06384
112.2909, 28.27979
112.7731, 37.09119
113.2552, 48.88074
113.7373, 62.07300
114.2194, 74.85657
114.7015, 86.68835
115.1836, 100.0746
115.6658, 115.4281
116.1479, 132.5389
116.6300, 150.7324
117.1121, 169.4716
117.5942, 189.6162
118.0763, 213.6967
118.5584, 240.7633
119.0406, 274.4769
119.5227, 315.8149
120.0048, 363.4025
120.4869, 417.7087
120.9690, 481.2529
121.4511, 549.9350
121.9333, 616.7421
122.4154, 687.3551
122.8975, 745.8295
123.3796, 780.9426
123.8617, 793.3873
124.3438, 780.0150
124.8260, 722.1707
125.3081, 642.5243
125.7902, 556.2286
126.2723, 465.4822
126.7544, 375.8198
127.2365, 300.5366
127.7187, 242.2004
128.2008, 195.8391
128.6829, 160.4110
129.1650, 133.4356
129.6471, 112.4542
130.1292, 96.08813
130.6114, 84.03076
131.0935, 73.65930
131.5756, 65.13885
132.0577, 58.15436
132.5398, 53.29352
133.0219, 50.17828
133.5041, 47.94012
133.9862, 45.69073
134.4683, 43.12164
134.9504, 43.04236
135.4325, 45.21692
135.9146, 49.44543
136.3968, 56.37445
136.8789, 65.75671
137.3610, 75.99030
137.8431, 85.63843
138.3252, 94.98755
138.8073, 101.1405
139.2895, 103.4700
139.7716, 102.7162
140.2537, 99.25244
140.7358, 92.85522
141.2179, 84.97418
141.7000, 76.45331
142.1821, 67.26819
142.6643, 60.39453
143.1464, 58.86896
143.6285, 61.08502
144.1106, 61.31439
144.5927, 58.55884
145.0748, 52.94440
145.5570, 44.09442
146.0391, 32.06104
146.5212, 20.04022
147.0033, 10.62109
147.4854, 3.928345
147.9675, 1.400146
148.4497, 2.968811
148.9318, 4.015686
149.4139, 5.096375
149.8960, 6.373108
150.3781, 7.777466
150.8602, 9.334656
151.3424, 11.78137
151.8245, 12.70209
152.3066, 11.59290
152.7887, 9.431335
153.2708, 6.793945
153.7529, 3.910400
154.2351, 0.8945920
154.7172, 1.960327
155.1993, 4.542358
155.6814, 7.041992
156.1635, 9.746338
156.6456, 12.25269
157.1278, 13.88367
157.6099, 14.40558
158.0920, 14.28699
158.5741, 15.40582
159.0562, 17.75079
159.5383, 21.06207
160.0205, 25.19812
160.5026, 30.25220
160.9847, 36.59375
161.4668, 44.67621
161.9489, 54.10736
162.4310, 62.78027
162.9131, 69.76996
163.3953, 76.86133
163.8774, 85.21613
164.3595, 94.73413
164.8416, 104.4988
165.3237, 115.6826
165.8058, 126.1650
166.2880, 131.4407
166.7701, 129.4507
167.2522, 123.2357
167.7343, 115.0267
168.2164, 104.1083
168.6985, 94.68976
169.1807, 89.56482
169.6628, 87.41882
170.1449, 87.15479
170.6270, 88.71027
171.1091, 91.71729
171.5912, 95.32727
172.0734, 99.46552
172.5555, 104.3864
173.0376, 110.5107
173.5197, 117.2944
174.0018, 123.9259
174.4839, 129.7326
174.9661, 135.0054
175.4482, 141.3897
175.9303, 148.0677
176.4124, 157.1566
176.8945, 169.0682
177.3766, 183.6733
177.8588, 200.3624
178.3409, 218.4692
178.8230, 238.0080
179.3051, 263.1921
179.7872, 299.4860
180.2693, 336.0458
180.7515, 376.0557
181.2336, 414.5887
181.7157, 441.3427
182.1978, 447.4843
182.6799, 431.8035
183.1620, 403.4911
183.6441, 351.3496
184.1263, 299.4806
184.6084, 258.1310
185.0905, 228.1641
185.5726, 206.4569
186.0547, 190.5651
186.5368, 181.2592
187.0190, 177.5711
187.5011, 180.8054
187.9832, 188.3083
188.4653, 198.3933
188.9474, 210.8205
189.4296, 226.1852
189.9117, 246.0378
190.3938, 270.2541
190.8759, 294.0328
191.3580, 319.6738
191.8401, 343.2646
192.3223, 362.4589
192.8044, 378.0505
193.2865, 383.7646
193.7686, 368.1894
194.2507, 336.6173
194.7328, 301.4623
195.2150, 262.9467
195.6971, 223.8274
196.1792, 189.1127
196.6613, 159.0628
197.1434, 134.0661
197.6255, 114.7513
198.1077, 100.0400
198.5898, 88.28699
199.0719, 79.34375
199.5540, 72.87421
200.0361, 67.18591
200.5182, 62.00360
201.0004, 57.83044
201.4825, 55.01410
201.9646, 53.33258
202.4467, 52.26709
202.9288, 51.68964
203.4109, 51.50916
203.8930, 50.50366
204.3752, 47.22443
204.8573, 44.36401
205.3394, 43.36633
205.8215, 43.60992
206.3036, 43.86279
206.7857, 43.01074
207.2679, 41.00439
207.7500, 38.80353
208.2321, 36.09534
208.7142, 33.45093
209.1963, 31.12329
209.6784, 29.08899
210.1606, 27.11334
210.6427, 24.88696
211.1248, 22.34406
211.6069, 20.50421
212.0890, 19.29767
212.5711, 18.77820
213.0533, 19.26678
213.5354, 20.48822
214.0175, 21.76569
214.4996, 22.40070
214.9817, 22.15466
215.4638, 22.42834
215.9460, 23.81830
216.4281, 25.16077
216.9102, 25.69824
217.3923, 25.52454
217.8744, 25.37622
218.3565, 25.93433
218.8387, 27.27704
219.3208, 28.37976
219.8029, 29.24945
220.2850, 29.97156
220.7671, 30.43872
221.2492, 30.72449
221.7314, 31.22040
222.2135, 32.23364
222.6956, 33.83350
223.1777, 35.86389
223.6598, 38.35309
224.1419, 41.16052
224.6240, 44.03888
225.1062, 47.01001
225.5883, 50.55835
226.0704, 55.30750
226.5525, 61.08826
227.0346, 66.38287
227.5167, 70.46179
227.9989, 74.43652
228.4810, 79.11188
228.9631, 84.51447
229.4452, 90.77692
229.9273, 98.06134
230.4094, 106.3149
230.8916, 115.4203
231.3737, 126.0508
231.8558, 137.0886
232.3379, 147.7603
232.8200, 158.2518
233.3021, 167.0827
233.7843, 173.8760
234.2664, 178.2064
234.7485, 178.9446
235.2306, 175.6371
235.7127, 168.7338
236.1948, 157.8481
236.6770, 141.8867
237.1591, 126.2088
237.6412, 114.0308
238.1233, 103.4809
238.6054, 92.40149
239.0875, 79.71423
239.5697, 66.81665
240.0518, 55.91681
240.5339, 47.10645
241.0160, 39.94934
241.4981, 34.98724
241.9802, 31.20026
242.4624, 27.78381
242.9445, 24.50671
243.4266, 21.40204
243.9087, 18.52032
244.3908, 15.85992
244.8729, 13.45050
245.3550, 11.07532
245.8372, 9.037537
246.3193, 7.715576
246.8014, 7.258301
247.2835, 7.269958
247.7656, 7.153503
248.2477, 7.058777
248.7299, 6.422241
249.2120, 4.570251
249.6941, 2.550537
250.1762, 1.025146
250.6583, 0.2178340
251.1404, 0.1820680
251.6226, 1.326904
252.1047, 4.910583
252.5868, 6.721375
253.0689, 5.399292
253.5510, 3.134216
254.0331, 1.356995
254.5153, 0.4656370
254.9974, 4.4495001E-02
255.4795, 0.4589230
255.9616, 0.7995610
256.4437, 1.830994
256.9258, 4.627502
257.4080, 7.252625
257.8901, 8.211121
258.3722, 7.352966
258.8543, 5.834045
259.3364, 5.222595
259.8185, 5.962097
260.3007, 6.507202
260.7828, 7.325195
261.2649, 7.652344
261.7470, 6.866455
262.2291, 5.002991
262.7112, 2.651733
263.1934, 0.4185180
263.6755, 1.765076
264.1576, 3.563416
264.6397, 5.104187
265.1218, 6.228638
265.6039, 6.497559
266.0861, 6.116394
266.5682, 5.928772
267.0503, 6.844177
267.5324, 9.137512
268.0145, 10.74896
268.4966, 12.35010
268.9788, 12.84491
269.4609, 11.16547
269.9430, 7.728821
270.4251, 3.937195
270.9072, 0.8451540
271.3893, 1.524109
271.8715, 3.106995
272.3536, 3.304749
272.8357, 3.492004
273.3178, 4.501343
273.7999, 6.017090
274.2820, 7.173035
274.7642, 7.433472
275.2463, 6.809692
275.7284, 5.291138
276.2105, 2.015442
276.6926, 1.013428
277.1747, 2.375244
277.6568, 2.967468
278.1389, 4.916931
278.6211, 9.534119
279.1032, 16.14630
279.5853, 21.94397
280.0674, 25.47968
280.5495, 30.07227
281.0316, 37.46143
281.5138, 46.36713
281.9959, 54.40485
282.4780, 60.43982
282.9601, 65.38330
283.4422, 71.40228
283.9243, 78.58038
284.4065, 86.46454
284.8886, 95.27393
285.3707, 104.6625
285.8528, 113.9984
286.3349, 123.0370
286.8170, 132.3044
287.2992, 142.8251
287.7813, 154.5789
288.2634, 167.2928
288.7455, 180.5191
289.2276, 194.8002
289.7097, 210.8949
290.1919, 229.0120
290.6740, 248.1701
291.1561, 266.9783
291.6382, 284.9446
292.1203, 306.4994
292.6024, 332.6133
293.0846, 362.2257
293.5667, 394.5602
294.0488, 429.6225
294.5309, 466.8009
295.0130, 505.5906
295.4951, 546.2448
295.9773, 589.1121
296.4594, 636.5170
296.9415, 684.4667
297.4236, 732.3152
297.9057, 779.1163
298.3878, 819.8974
298.8700, 852.3223
299.3521, 874.5038
299.8342, 884.6196
300.3163, 881.9653
300.7984, 868.2891
301.2805, 842.7333
301.7627, 806.2792
302.2448, 762.4800
302.7269, 711.3422
303.2090, 654.9279
303.6911, 599.4222
304.1732, 543.4631
304.6554, 489.9830
305.1375, 439.6336
305.6196, 392.6795
306.1017, 349.6822
306.5838, 310.7629
307.0659, 276.2316
307.5481, 247.6343
308.0302, 225.1561
308.5123, 205.2584
308.9944, 187.7400
309.4765, 171.9672
309.9586, 156.7000
310.4408, 141.4440
310.9229, 127.6320
311.4050, 117.9054
311.8871, 112.1911
312.3692, 107.2291
312.8513, 102.5510
313.3335, 98.21710
313.8156, 94.23364
314.2977, 90.57654
314.7798, 87.25604
315.2619, 84.23706
315.7440, 81.67249
316.2262, 80.21259
316.7083, 80.17194
317.1904, 81.07117
317.6725, 82.52496
318.1546, 84.53491
318.6367, 87.13519
319.1188, 90.31488
319.6010, 94.28265
320.0831, 99.35315
320.5652, 106.1193
321.0473, 113.3911
321.5294, 120.4550
322.0115, 127.3912
322.4937, 134.7181
322.9758, 142.6844
323.4579, 151.1298
323.9400, 159.3375
324.4221, 166.7730
324.9042, 175.1431
325.3864, 184.8687
325.8685, 195.9702
326.3506, 208.7209
326.8327, 223.3467
327.3148, 239.2221
327.7969, 255.6341
328.2791, 272.6198
328.7612, 289.7017
329.2433, 307.3286
329.7254, 324.6448
330.2075, 340.7159
330.6896, 355.3762
331.1718, 369.0013
331.6539, 382.2264
332.1360, 394.9943
332.6181, 405.6561
333.1002, 411.5748
333.5823, 417.3489
334.0645, 426.2428
334.5466, 438.1893
335.0287, 451.8551
335.5108, 466.4211
335.9929, 481.9804
336.4750, 498.3651
336.9572, 521.1032
337.4393, 539.0698
337.9214, 547.4502
338.4035, 547.5312
338.8856, 542.1835
339.3677, 532.5952
339.8499, 518.8081
340.3320, 500.3189
340.8141, 476.3318
341.2962, 450.1258
341.7783, 420.7280
342.2604, 389.9755
342.7426, 359.6080
343.2247, 330.2292
343.7068, 303.2717
344.1889, 281.0067
344.6710, 265.1205
345.1531, 250.0166
345.6353, 235.4182
346.1174, 221.9088
346.5995, 209.7740
347.0816, 199.1830
347.5637, 190.3483
348.0458, 183.8574
348.5280, 179.8563
349.0101, 175.4913
349.4922, 169.9985
349.9743, 164.7847
350.4564, 159.9843
350.9385, 156.0991
351.4207, 153.9999
351.9028, 154.2155
352.3849, 156.4643
352.8670, 159.7205
353.3491, 163.6324
353.8312, 168.8082
354.3134, 176.2058
354.7955, 184.5948
355.2776, 192.4944
355.7597, 199.4388
356.2418, 206.2397
356.7239, 214.2499
357.2061, 223.8255
357.6882, 233.9031
358.1703, 244.3503
358.6524, 255.3075
359.1345, 266.5729
359.6166, 278.3261
360.0987, 291.0085
360.5808, 305.0229
361.0630, 320.2840
361.5451, 337.8160
362.0272, 357.1487
362.5093, 378.9192
362.9914, 403.7675
363.4735, 431.3837
363.9557, 460.4664
364.4378, 490.1176
364.9199, 521.0303
365.4020, 556.2321
365.8841, 596.6544
366.3662, 640.7998
366.8484, 687.8258
367.3305, 738.3237
367.8126, 793.5093
368.2947, 853.3812
368.7768, 916.3054
369.2589, 980.7067
369.7411, 1048.316
370.2232, 1112.379
370.7053, 1178.303
371.1874, 1236.643
371.6695, 1285.138
372.1516, 1321.745
372.6338, 1344.113
373.1159, 1350.812
373.5980, 1341.801
374.0801, 1312.981
374.5622, 1256.631
375.0443, 1187.503
375.5265, 1105.865
376.0086, 1016.611
376.4907, 926.6635
376.9728, 838.0933
377.4549, 752.3495
377.9370, 671.8279
378.4192, 595.9109
378.9013, 527.2900
379.3834, 467.4865
379.8655, 414.5782
380.3476, 368.0123
380.8297, 327.6450
381.3119, 292.3158
381.7940, 261.7504
382.2761, 235.8352
382.7582, 212.2336
383.2403, 190.6472
383.7224, 171.6566
384.2046, 155.6786
384.6867, 142.3548
385.1688, 129.9490
385.6509, 117.6059
386.1330, 105.6684
386.6151, 94.76300
387.0973, 84.89093
387.5794, 76.16986
388.0615, 68.98340
388.5436, 62.93048
389.0257, 57.54346
389.5078, 52.71539
389.9900, 48.52313
390.4721, 45.28162
390.9542, 42.89020
391.4363, 40.47906
391.9184, 37.81964
392.4005, 34.94977
392.8827, 31.90247
393.3648, 28.69214
393.8469, 25.46985
394.3290, 21.88153
394.8111, 18.45044
395.2932, 16.20905
395.7754, 15.33936
396.2575, 14.89178
396.7396, 14.24152
397.2217, 13.35651
397.7038, 11.99756
398.1859, 9.279785
398.6681, 6.861694
399.1501, 6.103027
399.6323, 6.619080
400.1144, 7.018860
400.5965, 6.639709
401.0786, 5.705078
401.5607, 4.768799
402.0428, 3.564331
402.5250, 2.761475
403.0071, 3.007385
403.4892, 3.483215
403.9713, 3.153259
404.4534, 1.812805
404.9355, 8.0932997E-02
405.4177, 1.407654
405.8998, 2.725586
406.3819, 3.169922
406.8640, 1.699524
407.3461, 0.4740600
407.8282, 0.7443850
408.3104, 2.134949
408.7925, 3.615173
409.2746, 4.602539
409.7567, 5.079041
410.2388, 4.971863
410.7209, 3.596130
411.2031, 2.495667
411.6852, 1.582153
412.1673, 1.106995
412.6494, 1.500488
413.1315, 2.788025
413.6136, 4.331116
414.0958, 5.295410
414.5779, 5.590332
415.0600, 5.687744
415.5421, 5.446960
416.0242, 5.128601
416.5063, 4.797974
416.9885, 4.467346
417.4706, 4.152222
417.9527, 3.898193
418.4348, 3.634094
418.9169, 3.034912
419.3990, 1.776245
419.8812, 0.9120480
420.3633, 1.197327
420.8454, 1.769104
421.3275, 1.738708
421.8096, 0.8770140
422.2917, 6.2134001E-02
422.7739, 0.2041630
423.2560, 0.4053960
423.7381, 0.7821660
424.2202, 0.7412110
424.7023, 0.4848630
425.1844, 0.1838380
425.6666, 0.1734010
426.1487, 0.6423340
426.6308, 1.779785
427.1129, 2.799561
427.5950, 2.072510
428.0771, 0.5495610
428.5593, 2.497620
429.0414, 2.155334
429.5235, 0.3294070
430.0056, 1.029541
430.4877, 1.865784
430.9698, 2.363586
431.4520, 2.375366
431.9341, 2.150452
432.4162, 2.179321
432.8983, 2.589600
433.3804, 3.233887
433.8625, 3.927917
434.3447, 4.657654
434.8268, 5.699280
435.3089, 7.321350
435.7910, 9.035156
436.2731, 10.64563
436.7552, 12.08148
437.2374, 13.20184
437.7195, 13.91565
438.2016, 14.27069
438.6837, 14.43750
439.1658, 13.95032
439.6479, 13.87653
440.1301, 14.71234
440.6122, 15.75494
441.0943, 16.51831
441.5764, 16.81958
442.0585, 16.46307
442.5406, 15.09589
443.0227, 12.49731
443.5049, 10.48853
443.9870, 9.548096
444.4691, 8.721313
444.9512, 7.731567
445.4333, 6.668915
445.9154, 5.570984
446.3976, 4.400696
446.8797, 3.556122
447.3618, 4.127350
447.8439, 6.729279
448.3260, 8.907806
448.8081, 10.61795
449.2903, 11.45776
449.7724, 10.73669
450.2545, 8.608917
450.7366, 6.371155
451.2187, 5.019653
451.7008, 4.378754
452.1830, 3.682068
452.6651, 2.736572
453.1472, 2.192352
453.6293, 2.893677
454.1114, 4.130524
454.5935, 4.909821
455.0757, 4.970947
455.5578, 4.630341
456.0399, 3.780182
456.5220, 2.646790
457.0041, 2.319519
457.4862, 3.323425
457.9684, 4.774078
458.4505, 5.422089
458.9326, 5.269409
459.4147, 5.475250
459.8968, 6.615295
460.3789, 7.934052
460.8611, 8.691803
461.3432, 8.957550
461.8253, 9.430176
462.3074, 10.69199
462.7895, 12.33636
463.2716, 12.60919
463.7538, 9.581268
464.2359, 7.783447
464.7180, 8.833435
465.2001, 10.88290
465.6822, 11.95511
466.1643, 11.64493
466.6465, 10.84061
467.1286, 10.51202
467.6107, 10.70575
468.0928, 11.24203
468.5749, 12.96744
469.0570, 14.26355
469.5392, 14.20795
470.0213, 13.53711
470.5034, 13.40390
470.9855, 14.30273
471.4676, 15.56934
471.9497, 15.97769
472.4319, 15.25677
472.9140, 15.12143
473.3961, 16.57071
473.8782, 18.07944
474.3603, 18.84540
474.8424, 18.89636
475.3246, 18.58859
475.8067, 17.74573
476.2888, 16.81705
476.7709, 16.90686
477.2530, 18.20145
477.7351, 19.75049
478.2173, 21.21613
478.6994, 22.45432
479.1815, 23.21536
479.6636, 23.30804
480.1457, 23.85599
480.6278, 25.73679
481.1100, 28.26099
481.5920, 30.11865
482.0742, 31.06778
482.5563, 32.17105
483.0384, 34.35117
483.5205, 37.64182
484.0026, 41.31241
484.4847, 45.55280
484.9669, 49.94913
485.4490, 54.41251
485.9311, 58.76019
486.4132, 62.80969
486.8953, 66.65164
487.3774, 70.62842
487.8596, 75.18579
488.3417, 80.97757
488.8238, 85.40204
489.3059, 88.80096
489.7880, 90.73068
490.2701, 90.73917
490.7523, 89.12646
491.2344, 86.50064
491.7165, 83.21344
492.1986, 79.19598
492.6807, 74.12988
493.1628, 67.65982
493.6450, 61.14951
494.1271, 54.34622
494.6092, 48.02789
495.0913, 42.91953
495.5734, 38.97717
496.0555, 35.31012
496.5377, 31.39810
497.0198, 27.31909
497.5019, 23.15024
497.9840, 18.73700
498.4661, 14.97153
498.9482, 12.53293
499.4304, 10.98975
499.9125, 9.488495
500.3946, 7.982483
500.8767, 6.515137
501.3588, 4.782837
501.8409, 3.174225
502.3231, 2.503418
502.8052, 2.948059
503.2873, 3.723602
503.7694, 4.091248
504.2515, 4.030365
504.7336, 4.137848
505.2158, 4.833344
505.6979, 5.321014
506.1800, 4.837585
506.6621, 4.044464
507.1442, 4.121704
507.6263, 5.433563
508.1085, 7.111633
508.5906, 7.713776
509.0727, 6.633240
509.5548, 6.683746
510.0369, 8.914093
510.5190, 11.20859
511.0012, 12.70941
511.4833, 13.75684
511.9654, 15.02493
512.4475, 16.83847
512.9296, 18.96948
513.4117, 21.07684
513.8939, 23.16455
514.3760, 25.10803
514.8581, 26.68427
515.3402, 28.42944
515.8223, 30.72232
516.3044, 33.50693
516.7866, 36.51822
517.2687, 39.53513
517.7508, 42.83499
518.2329, 46.92145
518.7150, 51.73022
519.1971, 56.47488
519.6793, 60.73004
520.1614, 64.78064
520.6435, 69.42239
521.1256, 75.44196
521.6077, 79.74939
522.0898, 81.27301
522.5720, 81.27478
523.0541, 80.86935
523.5362, 80.03317
524.0183, 77.94763
524.5004, 73.94437
524.9825, 68.35309
525.4647, 62.71957
525.9468, 57.16086
526.4289, 51.44232
526.9110, 45.30234
527.3931, 39.14630
527.8752, 33.16705
528.3574, 27.48160
528.8395, 22.33719
529.3216, 17.96213
529.8037, 14.32578
530.2858, 11.22009
530.7679, 8.739410
531.2501, 6.597900
531.7322, 4.621460
532.2143, 2.966034
532.6964, 1.948456
533.1785, 1.720703
533.6606, 1.461670
534.1428, 0.3221440
534.6249, 1.116913
535.1070, 1.722626
535.5891, 1.396667
536.0712, 0.5802310
536.5533, 0.5596010
537.0355, 1.967102
537.5176, 3.185913
537.9997, 4.493622
538.4818, 5.397003
538.9639, 4.988190
539.4460, 4.269379
539.9282, 4.921448
540.4103, 7.187836
540.8924, 9.763458
541.3745, 11.16763
541.8566, 11.30463
542.3387, 12.09549
542.8209, 13.91321
543.3029, 16.02722
543.7850, 18.27344
544.2672, 20.72800
544.7493, 23.42020
545.2314, 26.36804
545.7135, 29.73837
546.1956, 34.09052
546.6777, 39.27554
547.1599, 43.05109
547.6420, 44.33047
548.1241, 46.25983
548.6062, 51.68103
549.0883, 58.81244
549.5704, 65.01901
550.0526, 69.95734
550.5347, 73.75726
551.0168, 76.46613
551.4989, 78.10181
551.9810, 78.86127
552.4631, 78.80035
552.9453, 77.27133
553.4274, 73.47269
553.9095, 67.37103
554.3916, 61.29309
554.8737, 55.58023
555.3558, 49.48318
555.8380, 42.05023
556.3201, 34.41376
556.8022, 28.00980
557.2843, 23.17792
557.7664, 19.41101
558.2485, 16.18420
558.7307, 13.52609
559.2128, 11.09210
559.6949, 9.097870
560.1770, 7.050598
560.6591, 4.093414
561.1412, 1.295197
