##NAMES=Jonesite
##RRUFFID=R080005
##IDEAL CHEMISTRY=KBa_2_Ti_2_(Si_5_Al)O_18_&#183;nH_2_O
##LOCALITY=Langban, Filipstad, Varmland, Sweden
##OWNER=RRUFF
##SOURCE=Michael Scott
##DESCRIPTION=Colorless blades associated with metallic haussmanite and calcite.
##STATUS=The identification of this mineral has been confirmed by single-crystal X-ray diffraction.
##URL=rruff.info/R080005
160.5600, 0.0000000E+00
161.0422, 0.5205230
161.5243, 1.784348
162.0064, 4.406921
162.4885, 6.027847
162.9706, 6.427765
163.4527, 3.960297
163.9349, 1.736771
164.4170, 0.1160580
164.8991, 0.6136320
165.3812, 4.9439999E-03
165.8633, 2.558624
166.3454, 4.746841
166.8276, 4.983063
167.3097, 3.493484
167.7918, 1.949097
168.2739, 0.5104980
168.7560, 0.2713780
169.2381, 0.2508700
169.7203, 2.349136
170.2024, 5.102417
170.6845, 7.810059
171.1666, 10.54192
171.6487, 12.75194
172.1308, 14.57092
172.6130, 15.59758
173.0951, 14.87791
173.5772, 11.84799
174.0593, 8.429779
174.5414, 8.323654
175.0235, 13.44316
175.5057, 17.98248
175.9878, 20.73660
176.4699, 22.43048
176.9520, 23.72260
177.4341, 24.89790
177.9162, 25.86024
178.3984, 26.26460
178.8805, 24.90427
179.3626, 24.58563
179.8447, 26.02948
180.3268, 28.55669
180.8089, 31.52858
181.2911, 34.57712
181.7732, 37.57259
182.2553, 39.74448
182.7374, 40.12956
183.2195, 40.75670
183.7016, 42.32115
184.1838, 44.38583
184.6659, 46.08572
185.1480, 46.84122
185.6301, 46.78351
186.1122, 47.25333
186.5943, 48.35118
187.0765, 49.72141
187.5586, 51.47314
188.0407, 53.44614
188.5228, 55.18909
189.0049, 56.42355
189.4870, 57.11598
189.9692, 57.46230
190.4513, 57.31975
190.9334, 56.97314
191.4155, 56.21330
191.8976, 55.12170
192.3797, 54.85100
192.8619, 56.61839
193.3440, 59.78400
193.8261, 62.42400
194.3082, 64.86374
194.7903, 66.34322
195.2724, 65.50403
195.7546, 61.82292
196.2367, 58.65778
196.7188, 59.21356
197.2009, 61.65289
197.6830, 63.71782
198.1651, 64.96545
198.6473, 65.76237
199.1294, 66.13399
199.6115, 66.47981
200.0936, 67.21593
200.5757, 68.16444
201.0578, 68.25426
201.5400, 67.72679
202.0221, 66.93530
202.5042, 66.13454
202.9863, 65.44852
203.4684, 65.24361
203.9505, 64.62227
204.4327, 62.93398
204.9148, 60.77863
205.3969, 58.98755
205.8790, 58.05858
206.3611, 57.83060
206.8432, 57.47871
207.3254, 57.06734
207.8075, 56.41736
208.2896, 55.22693
208.7717, 53.83122
209.2538, 52.77916
209.7359, 52.49174
210.2181, 52.81670
210.7002, 52.34021
211.1823, 50.96205
211.6644, 48.80432
212.1465, 45.27681
212.6286, 41.01431
213.1108, 36.98257
213.5929, 33.79646
214.0750, 31.43489
214.5571, 29.71941
215.0392, 28.70941
215.5213, 28.18590
216.0035, 28.54028
216.4856, 29.37018
216.9677, 29.92329
217.4498, 29.75041
217.9319, 28.84802
218.4140, 27.15295
218.8962, 23.60414
219.3783, 20.39223
219.8604, 18.49493
220.3425, 17.66373
220.8246, 17.00902
221.3067, 15.92220
221.7889, 14.55757
222.2710, 13.88133
222.7531, 14.91052
223.2352, 15.61954
223.7173, 14.46783
224.1994, 11.81717
224.6816, 9.487610
225.1637, 8.569656
225.6458, 8.894547
226.1279, 9.356293
226.6100, 10.54001
227.0921, 11.29259
227.5743, 10.69966
228.0564, 8.849503
228.5385, 6.551331
229.0206, 3.815079
229.5027, 1.121979
229.9848, 0.5204930
230.4670, 0.6479340
230.9491, 0.2692870
231.4312, 0.1742550
231.9133, 0.3638310
232.3954, 0.5973660
232.8775, 0.7702640
233.3597, 0.9223020
233.8418, 1.063980
234.3239, 1.120056
234.8060, 1.331879
235.2881, 2.221939
235.7702, 3.928513
236.2524, 5.001541
236.7345, 4.181931
237.2166, 2.799393
237.6987, 1.920883
238.1808, 1.745636
238.6629, 2.168411
239.1451, 3.477417
239.6272, 6.047379
240.1093, 7.513443
240.5914, 6.108337
241.0735, 3.892166
241.5556, 2.090637
242.0378, 0.9814000
242.5199, 0.4729460
243.0020, 0.6373600
243.4841, 1.772842
243.9662, 2.466034
244.4483, 2.310944
244.9305, 1.740204
245.4126, 1.037918
245.8947, 0.2581480
246.3768, 0.8069150
246.8589, 2.698334
247.3410, 6.035889
247.8232, 8.211578
248.3053, 7.973831
248.7874, 7.323227
249.2695, 7.436035
249.7516, 8.524750
250.2337, 10.05875
250.7159, 11.24249
251.1980, 11.64433
251.6801, 12.92210
252.1622, 15.86226
252.6443, 18.99162
253.1264, 21.20685
253.6086, 22.52977
254.0907, 24.02994
254.5728, 27.23840
255.0549, 33.24820
255.5370, 37.62949
256.0191, 39.21324
256.5013, 40.42458
256.9834, 42.26518
257.4655, 44.97218
257.9476, 48.52344
258.4297, 53.10060
258.9118, 59.39114
259.3940, 63.85043
259.8761, 65.14653
260.3582, 66.15991
260.8403, 68.27107
261.3224, 71.53151
261.8045, 75.31641
262.2867, 79.08633
262.7688, 82.83128
263.2509, 86.55968
263.7330, 90.61253
264.2151, 94.32367
264.6972, 97.11365
265.1794, 99.19577
265.6615, 101.4148
266.1436, 104.4832
266.6257, 108.4648
267.1078, 112.1032
267.5899, 115.3158
268.0721, 118.3925
268.5542, 121.5986
269.0363, 124.7999
269.5184, 127.5473
270.0005, 129.3913
270.4826, 130.4568
270.9648, 132.4999
271.4469, 136.1563
271.9290, 139.8869
272.4111, 143.2695
272.8932, 146.2856
273.3753, 149.0103
273.8575, 151.4936
274.3396, 153.6875
274.8217, 155.3040
275.3038, 155.8934
275.7859, 156.5510
276.2680, 158.1917
276.7502, 160.1291
277.2323, 160.8858
277.7144, 159.6832
278.1965, 157.0428
278.6786, 154.3131
279.1607, 150.9792
279.6429, 148.4312
280.1250, 148.1005
280.6071, 148.6709
281.0892, 147.5691
281.5713, 143.6549
282.0534, 138.2867
282.5356, 134.0906
283.0177, 131.2479
283.4998, 128.5575
283.9819, 125.5742
284.4640, 122.6143
284.9461, 120.3817
285.4283, 119.1997
285.9104, 118.1011
286.3925, 115.4030
286.8746, 110.9311
287.3567, 107.0558
287.8388, 104.2128
288.3210, 102.2088
288.8031, 101.0019
289.2852, 100.6376
289.7673, 100.2740
290.2494, 98.88617
290.7315, 96.53693
291.2137, 94.42926
291.6958, 92.83963
292.1779, 91.52213
292.6600, 90.26678
293.1421, 89.01749
293.6242, 87.58090
294.1064, 85.64574
294.5885, 83.53676
295.0706, 82.34509
295.5527, 82.88364
296.0348, 83.78905
296.5169, 84.07695
296.9991, 83.66095
297.4812, 82.33577
297.9633, 79.67741
298.4454, 76.35857
298.9275, 74.00793
299.4096, 73.15138
299.8918, 72.62912
300.3739, 71.58621
300.8560, 70.06470
301.3381, 68.62698
301.8202, 67.67891
302.3023, 66.97644
302.7845, 65.89626
303.2666, 64.26935
303.7487, 62.72542
304.2308, 61.64575
304.7129, 60.91147
305.1950, 60.10312
305.6772, 58.92174
306.1593, 57.86884
306.6414, 57.72339
307.1235, 58.53627
307.6056, 59.45143
308.0877, 60.14148
308.5699, 60.66631
309.0520, 61.23952
309.5341, 62.01494
310.0162, 62.56546
310.4983, 62.04951
310.9804, 60.65486
311.4626, 59.82382
311.9447, 60.68980
312.4268, 62.16566
312.9089, 62.41008
313.3910, 61.03194
313.8731, 59.49800
314.3553, 59.17288
314.8374, 59.70815
315.3195, 60.01694
315.8016, 60.04240
316.2837, 59.65233
316.7658, 58.62155
317.2480, 56.93596
317.7301, 54.97020
318.2122, 52.77464
318.6943, 50.48582
319.1764, 48.41676
319.6585, 46.48398
320.1407, 44.91466
320.6228, 44.30991
321.1049, 44.47235
321.5870, 43.78871
322.0691, 41.04298
322.5512, 37.52888
323.0334, 35.68790
323.5155, 36.04915
323.9976, 36.37241
324.4797, 35.08168
324.9618, 32.76566
325.4439, 31.30016
325.9261, 31.37315
326.4082, 32.12880
326.8903, 32.36632
327.3724, 32.07018
327.8545, 32.15042
328.3366, 33.56589
328.8188, 35.41319
329.3009, 36.07350
329.7830, 35.11264
330.2651, 33.72426
330.7472, 33.10046
331.2293, 33.13173
331.7115, 33.07414
332.1936, 31.89061
332.6757, 30.93843
333.1578, 32.18948
333.6399, 35.75549
334.1220, 39.17538
334.6042, 40.76453
335.0863, 40.86328
335.5684, 41.13957
336.0505, 41.82433
336.5326, 42.41924
337.0147, 42.42694
337.4969, 42.07480
337.9790, 42.25438
338.4611, 43.50714
338.9432, 45.35239
339.4253, 46.63083
339.9074, 46.89777
340.3896, 47.62834
340.8717, 49.52557
341.3538, 52.29160
341.8359, 55.47350
342.3180, 59.06717
342.8001, 62.63860
343.2823, 65.44386
343.7644, 67.39053
344.2465, 69.66241
344.7286, 72.31906
345.2107, 75.49060
345.6928, 79.68283
346.1750, 84.96011
346.6571, 89.96031
347.1392, 93.14267
347.6213, 94.48035
348.1034, 97.27148
348.5855, 102.4483
349.0677, 108.3099
349.5498, 114.3492
350.0319, 120.3026
350.5140, 125.0345
350.9961, 127.4930
351.4782, 128.4329
351.9604, 131.4246
352.4425, 138.3996
352.9246, 144.7260
353.4067, 148.8151
353.8888, 151.3496
354.3709, 153.2050
354.8531, 154.5903
355.3352, 156.2217
355.8173, 159.6904
356.2994, 166.4846
356.7815, 171.6716
357.2636, 173.9414
357.7458, 174.9138
358.2279, 175.9855
358.7100, 177.4486
359.1921, 179.1124
359.6742, 180.8667
360.1563, 182.8541
360.6385, 183.8059
361.1206, 183.0617
361.6027, 181.9986
362.0848, 181.5461
362.5669, 181.4714
363.0490, 180.9046
363.5312, 179.2669
364.0133, 176.6183
364.4954, 173.4143
364.9775, 169.5765
365.4596, 165.3128
365.9417, 160.4012
366.4239, 155.1709
366.9060, 150.2447
367.3881, 145.8452
367.8702, 141.3785
368.3523, 135.5284
368.8344, 126.7014
369.3166, 119.0894
369.7987, 113.6342
370.2808, 108.6032
370.7629, 102.8046
371.2450, 96.03404
371.7271, 88.61171
372.2093, 80.74002
372.6914, 72.04823
373.1735, 65.02574
373.6556, 61.06970
374.1377, 57.29413
374.6198, 52.71941
375.1020, 47.52618
375.5841, 42.25818
376.0662, 37.18062
376.5483, 32.43697
377.0304, 28.88693
377.5125, 27.61482
377.9947, 26.03046
378.4768, 23.74515
378.9589, 20.98804
379.4410, 17.69594
379.9231, 13.90604
380.4052, 10.40030
380.8874, 8.680298
381.3695, 9.631912
381.8516, 9.460724
382.3337, 6.309692
382.8158, 3.263596
383.2979, 2.279144
383.7801, 3.087219
384.2622, 3.843933
384.7443, 2.772354
385.2264, 8.2184002E-02
385.7085, 1.642929
386.1906, 2.050354
386.6728, 1.912613
387.1549, 0.9931030
387.6370, 7.1563996E-02
388.1191, 0.2001950
388.6012, 1.300522
389.0833, 3.481628
389.5655, 4.521744
390.0476, 4.177658
390.5297, 3.938644
391.0118, 4.227356
391.4939, 4.642654
391.9760, 4.961395
392.4582, 4.983688
392.9403, 4.653061
393.4224, 3.800507
393.9045, 2.537720
394.3866, 1.847504
394.8687, 2.078583
395.3509, 2.464249
395.8330, 2.595978
396.3151, 2.458267
396.7972, 1.876114
397.2793, 0.2920530
397.7614, 1.534790
398.2436, 2.501022
398.7257, 2.569534
399.2078, 2.323578
399.6899, 1.934891
400.1720, 1.498947
400.6541, 1.151443
401.1363, 0.6930540
401.6184, 0.7161410
402.1005, 2.173279
402.5826, 4.437988
403.0647, 5.631210
403.5468, 4.989395
404.0290, 3.525665
404.5111, 2.657944
404.9932, 2.367050
405.4753, 2.506393
405.9574, 3.499466
406.4395, 4.635757
406.9217, 5.073868
407.4038, 4.811966
407.8859, 4.674149
408.3680, 5.348816
408.8501, 6.760437
409.3322, 7.833221
409.8144, 8.750916
410.2965, 9.200653
410.7786, 8.638016
411.2607, 7.613159
411.7428, 7.103195
412.2249, 7.523331
412.7071, 8.484238
413.1892, 9.248383
413.6713, 9.882248
414.1534, 10.13776
414.6355, 9.521255
415.1176, 8.905853
415.5998, 9.009750
416.0819, 9.813599
416.5640, 10.83234
417.0461, 11.73743
417.5282, 12.54294
418.0103, 12.27149
418.4925, 9.365479
418.9746, 7.056984
419.4567, 6.617599
419.9388, 7.030800
420.4209, 6.669594
420.9030, 4.788277
421.3852, 2.411530
421.8673, 1.815453
422.3494, 3.924858
422.8315, 5.445816
423.3136, 5.940613
423.7957, 5.890862
424.2779, 5.332733
424.7600, 4.410843
425.2421, 3.581467
425.7242, 3.308289
426.2063, 3.518715
426.6884, 3.485634
427.1706, 2.952843
427.6527, 2.615540
428.1348, 2.812057
428.6169, 3.354668
429.0990, 4.065819
429.5811, 5.017342
430.0633, 5.784729
430.5454, 5.647453
431.0275, 4.582573
431.5096, 3.703842
431.9917, 3.014275
432.4738, 3.005386
432.9560, 4.523582
433.4381, 7.540726
433.9202, 9.762680
434.4023, 9.513039
434.8844, 7.926445
435.3665, 7.022102
435.8487, 7.033363
436.3308, 7.165207
436.8129, 6.652443
437.2950, 5.804352
437.7771, 5.857628
438.2592, 8.150375
438.7414, 9.941696
439.2235, 9.098793
439.7056, 6.623955
440.1877, 5.020081
440.6698, 5.268318
441.1519, 6.408318
441.6341, 6.898987
442.1162, 6.498901
442.5983, 6.120377
443.0804, 5.884933
443.5625, 5.580864
444.0446, 5.007027
444.5268, 4.252441
445.0089, 3.717545
445.4910, 3.744057
445.9731, 4.195160
446.4552, 3.919640
446.9373, 1.167824
447.4195, 0.3012620
447.9016, 1.762558
448.3837, 4.698898
448.8658, 5.110420
449.3479, 2.140717
449.8300, 1.835968
450.3122, 3.245964
450.7943, 1.185516
451.2764, 0.1651610
451.7585, 0.5531080
452.2406, 0.4527890
452.7227, 0.5190580
453.2049, 1.888893
453.6870, 2.642662
454.1691, 2.067451
454.6512, 0.6081850
455.1333, 0.6203230
455.6154, 1.520386
456.0976, 2.253212
456.5797, 2.950615
457.0618, 3.451767
457.5439, 3.573380
458.0260, 3.291641
458.5081, 2.848145
458.9903, 2.362160
459.4724, 1.857315
459.9545, 1.284271
460.4366, 0.4215700
460.9187, 9.6504003E-02
461.4008, 1.451126
461.8830, 3.840500
462.3651, 5.702202
462.8472, 6.689934
463.3293, 7.168922
463.8114, 6.974693
464.2935, 6.408981
464.7756, 6.779236
465.2578, 8.827034
465.7399, 11.33205
466.2220, 11.99700
466.7041, 10.19730
467.1862, 9.286926
467.6683, 10.30798
468.1505, 11.87104
468.6326, 13.04499
469.1147, 13.69774
469.5968, 13.80894
470.0789, 13.28268
470.5610, 12.26142
471.0432, 11.71784
471.5253, 11.70338
472.0074, 12.12569
472.4895, 13.38837
472.9716, 14.86586
473.4537, 15.90083
473.9359, 16.36301
474.4180, 16.63541
474.9001, 17.21797
475.3822, 18.18791
475.8643, 18.81123
476.3464, 18.70933
476.8286, 18.65131
477.3107, 18.79033
477.7928, 19.15799
478.2749, 19.87431
478.7570, 21.08249
479.2391, 22.32475
479.7213, 22.80520
480.2034, 22.47032
480.6855, 21.93615
481.1676, 21.13734
481.6497, 20.37029
482.1318, 19.54906
482.6140, 18.79848
483.0961, 19.02670
483.5782, 22.01954
484.0603, 25.68618
484.5424, 26.20834
485.0245, 23.36446
485.5067, 20.77180
485.9888, 20.44707
486.4709, 21.74376
486.9530, 22.78739
487.4351, 23.70470
487.9172, 24.28102
488.3994, 24.30377
488.8815, 24.02893
489.3636, 23.68776
489.8457, 23.36502
490.3278, 23.16926
490.8099, 23.27226
491.2921, 23.79761
491.7742, 23.86284
492.2563, 22.87441
492.7384, 21.99665
493.2205, 21.69070
493.7026, 21.67848
494.1848, 21.55429
494.6669, 21.16707
495.1490, 20.64994
495.6311, 20.18944
496.1132, 19.77113
496.5953, 19.47617
497.0775, 19.13918
497.5596, 19.14425
498.0417, 19.81679
498.5238, 20.89737
499.0059, 21.89796
499.4880, 22.63594
499.9702, 23.04964
500.4523, 22.73801
500.9344, 21.54426
501.4165, 20.64731
501.8986, 20.72633
502.3807, 20.93068
502.8629, 20.20910
503.3450, 18.62241
503.8271, 17.69730
504.3092, 18.99241
504.7913, 20.96876
505.2734, 21.04833
505.7556, 19.37053
506.2377, 18.11195
506.7198, 18.75584
507.2019, 20.56512
507.6840, 21.07923
508.1661, 20.01356
508.6483, 18.89918
509.1304, 17.64424
509.6125, 16.60031
510.0946, 16.23970
510.5767, 16.58501
511.0588, 17.45520
511.5410, 18.90701
512.0231, 21.00909
512.5052, 22.04753
512.9873, 20.48887
513.4694, 19.56350
513.9515, 20.86813
514.4337, 22.65462
514.9158, 22.57129
515.3979, 20.07170
515.8800, 17.12005
516.3621, 16.33955
516.8442, 17.98363
517.3264, 19.17108
517.8085, 19.76292
518.2906, 19.98818
518.7727, 19.54440
519.2548, 19.00100
519.7369, 19.37711
520.2191, 21.42565
520.7012, 23.45168
521.1833, 23.11688
521.6654, 20.76575
522.1475, 19.33274
522.6296, 19.78947
523.1118, 20.80956
523.5939, 20.86729
524.0760, 20.12340
524.5581, 19.73127
525.0402, 20.07130
525.5223, 20.65590
526.0045, 21.58022
526.4866, 22.57077
526.9687, 22.61567
527.4508, 21.18669
527.9329, 19.18973
528.4150, 18.42467
528.8972, 20.07227
529.3793, 20.16902
529.8614, 17.50484
530.3435, 14.52133
530.8256, 12.38906
531.3077, 11.08884
531.7899, 10.21368
532.2720, 9.547775
532.7541, 9.051620
533.2362, 8.632805
533.7183, 8.282570
534.2004, 8.004089
534.6826, 7.783035
535.1647, 7.663857
535.6468, 7.947578
536.1289, 8.454170
536.6110, 8.374954
537.0931, 6.258575
537.5753, 3.727356
538.0574, 4.616486
538.5395, 9.145531
539.0216, 12.21291
539.5037, 11.09875
539.9858, 7.879288
540.4680, 6.116272
540.9501, 6.023804
541.4322, 5.760674
541.9143, 4.709900
542.3964, 3.313438
542.8785, 1.588478
543.3607, 0.1997220
543.8428, 0.8375550
544.3249, 0.6577000
544.8070, 3.471130
545.2891, 4.591423
545.7712, 1.563744
546.2534, 0.2252270
546.7355, 2.791672
547.2176, 5.520462
547.6997, 5.051651
548.1818, 1.768150
548.6639, 1.296120
549.1461, 1.695541
549.6282, 1.8616000E-02
550.1103, 1.322960
550.5924, 2.255707
551.0745, 2.829041
551.5566, 2.841866
552.0388, 2.632645
552.5209, 2.494026
553.0030, 2.436813
553.4851, 2.161659
553.9672, 1.323929
554.4493, 0.2175600
554.9315, 0.7727810
555.4136, 1.616753
555.8957, 1.869019
556.3778, 1.193764
556.8599, 6.7855999E-02
557.3420, 0.9001540
557.8242, 1.179169
558.3063, 1.533936
558.7884, 2.214035
559.2705, 2.734268
559.7526, 2.710670
560.2347, 2.182144
560.7169, 1.334427
561.1990, 0.1903230
561.6811, 0.9978330
562.1632, 0.9508060
562.6453, 1.615845
563.1274, 3.185684
563.6096, 2.787613
564.0917, 1.857239
564.5738, 1.278793
565.0559, 1.150703
565.5380, 1.231522
566.0201, 1.419418
566.5023, 1.659279
566.9844, 1.840248
567.4665, 1.984093
567.9486, 1.909485
568.4307, 1.374008
568.9128, 0.7594830
569.3950, 0.5609130
569.8771, 0.7845310
570.3592, 1.130707
570.8413, 1.636299
571.3234, 2.121078
571.8055, 2.361069
572.2877, 2.393944
572.7698, 2.477455
573.2519, 2.776665
573.7340, 3.143677
574.2161, 3.188400
574.6982, 2.618370
575.1804, 2.235428
575.6625, 2.193085
576.1446, 2.191864
576.6267, 2.063812
577.1088, 1.819099
577.5909, 1.433548
578.0731, 0.7936630
578.5552, 0.3270570
579.0373, 1.316360
579.5194, 4.202126
580.0015, 6.084808
580.4836, 6.202751
580.9658, 5.283310
581.4479, 3.353943
581.9300, 0.7871480
582.4121, 0.8289180
582.8942, 0.3726580
583.3763, 0.8309560
583.8585, 1.498344
584.3406, 1.806946
584.8227, 2.547630
585.3048, 4.093384
585.7869, 5.661942
586.2690, 6.124130
586.7512, 5.197151
587.2333, 4.479340
587.7154, 4.295151
588.1975, 3.956177
588.6796, 2.889168
589.1617, 1.554451
589.6439, 0.6043930
590.1260, 0.2979890
590.6081, 0.5966640
591.0902, 1.742966
591.5723, 3.921104
592.0544, 5.108047
592.5366, 4.819870
593.0187, 4.175362
593.5008, 3.440353
593.9829, 2.797180
594.4650, 2.583771
594.9471, 2.986542
595.4293, 3.414742
595.9114, 3.151817
596.3935, 2.623943
596.8756, 3.013313
597.3577, 4.528374
597.8398, 6.116684
598.3220, 7.112114
598.8041, 7.487755
599.2862, 7.016056
599.7683, 5.010353
600.2504, 3.205624
600.7325, 1.446987
601.2147, 0.2410160
601.6968, 0.4149550
602.1789, 1.886730
602.6610, 3.491421
603.1431, 4.396996
603.6252, 4.594955
604.1074, 3.916584
604.5895, 1.848427
605.0716, 0.3889660
605.5537, 0.6234250
606.0358, 1.191338
606.5179, 0.8772130
607.0001, 0.1493680
607.4822, 0.6402630
607.9643, 0.3991780
608.4464, 1.806210
608.9285, 2.017223
609.4106, 1.219498
609.8928, 0.6073420
610.3749, 0.6617890
610.8570, 1.020439
611.3391, 1.166229
611.8212, 1.059830
612.3033, 0.8184780
612.7855, 0.1336170
613.2676, 0.6902160
613.7497, 0.4017520
614.2318, 2.104656
614.7139, 2.448288
615.1960, 0.7009700
615.6782, 1.609909
616.1603, 2.367554
616.6424, 1.499931
617.1245, 0.6270790
617.6066, 0.4212880
618.0887, 1.118217
618.5709, 0.9279290
619.0530, 0.3258740
619.5351, 6.8855003E-02
620.0172, 1.8646000E-02
620.4993, 0.1460490
620.9814, 1.2138000E-02
621.4636, 0.2074700
621.9457, 9.9013999E-02
622.4278, 0.3489000
622.9099, 0.7618260
623.3920, 0.9026030
623.8741, 0.8185730
624.3563, 0.6703190
624.8384, 0.4534680
625.3205, 0.1700820
625.8026, 0.3282090
626.2847, 0.7697940
626.7668, 1.001179
627.2490, 1.018856
627.7311, 0.8488200
628.2132, 0.4739530
628.6953, 2.3682000E-02
629.1774, 0.2605510
629.6595, 0.3669200
630.1417, 0.4656300
630.6238, 0.4555210
631.1059, 0.6591420
631.5880, 1.660789
632.0701, 3.154259
632.5522, 4.130264
633.0344, 4.199135
633.5165, 4.010971
633.9986, 3.798347
634.4807, 3.569389
634.9628, 3.300735
635.4449, 3.002434
635.9271, 2.815308
636.4092, 2.918861
636.8913, 3.253380
637.3734, 3.101517
637.8555, 1.854431
638.3376, 1.075035
638.8198, 1.268051
639.3019, 1.752609
639.7840, 2.127701
640.2661, 2.253677
640.7482, 2.146141
641.2303, 1.433098
641.7125, 0.6855470
642.1946, 1.113037
642.6767, 2.593643
643.1588, 3.701111
643.6409, 3.930145
644.1230, 3.734322
644.6052, 3.592735
645.0873, 3.496300
645.5694, 3.635513
646.0515, 4.239975
646.5336, 4.815056
647.0157, 4.792915
647.4979, 4.784424
647.9800, 5.914764
648.4621, 8.312218
648.9442, 10.62943
649.4263, 11.35854
649.9084, 10.68423
650.3906, 10.34038
650.8727, 10.30302
651.3548, 10.65984
651.8369, 11.78258
652.3190, 13.09864
652.8011, 13.91620
653.2833, 14.20681
653.7654, 14.76192
654.2475, 16.04520
654.7296, 17.60071
655.2117, 19.22376
655.6938, 20.75935
656.1760, 21.73296
656.6581, 21.94768
657.1402, 21.80229
657.6223, 21.85426
658.1044, 22.11452
658.5865, 22.46652
659.0687, 22.58048
659.5508, 23.19583
660.0329, 24.82233
660.5150, 26.88111
660.9971, 28.83022
661.4792, 30.51405
661.9614, 31.82050
662.4435, 32.36138
662.9256, 32.50861
663.4077, 33.31498
663.8898, 34.80943
664.3719, 35.74783
664.8541, 35.38138
665.3362, 34.42630
665.8183, 34.30808
666.3004, 35.41312
666.7825, 35.79378
667.2646, 34.37416
667.7468, 33.29341
668.2289, 34.17396
668.7110, 35.94016
669.1931, 36.77355
669.6752, 36.09021
670.1573, 34.76694
670.6395, 33.72817
671.1216, 32.94872
671.6037, 32.47884
672.0858, 32.45601
672.5679, 32.16869
673.0500, 30.99233
673.5322, 29.46062
674.0143, 28.66498
674.4964, 28.87109
674.9785, 28.73086
675.4606, 27.62525
675.9427, 26.14533
676.4249, 24.74039
676.9070, 23.38004
677.3891, 21.90828
677.8712, 20.26263
678.3533, 18.47947
678.8354, 16.44801
679.3176, 14.02309
679.7997, 12.82608
680.2818, 14.01569
680.7639, 14.66791
681.2460, 13.47203
681.7281, 11.43076
682.2103, 9.429497
682.6924, 7.578369
683.1745, 6.275818
683.6566, 5.983093
684.1387, 6.165962
684.6208, 6.315544
685.1030, 6.376091
685.5851, 6.161819
686.0672, 5.571991
686.5493, 4.869812
687.0314, 4.420746
687.5135, 4.216972
687.9957, 4.308182
688.4778, 5.511490
688.9599, 6.048683
689.4420, 4.971809
689.9241, 3.267365
690.4063, 1.946411
690.8884, 1.228905
691.3705, 0.9254000
691.8526, 1.233727
692.3347, 1.725761
692.8168, 1.219986
693.2990, 0.1711650
693.7811, 0.3398670
694.2632, 1.880676
694.7453, 4.523201
695.2274, 4.644051
695.7095, 1.594788
696.1917, 4.4937000E-02
696.6738, 9.1453999E-02
697.1559, 1.066833
697.6380, 3.707245
698.1201, 6.421761
698.6022, 7.144417
699.0844, 5.713806
699.5665, 4.003151
700.0486, 3.529343
700.5307, 3.932983
701.0128, 4.381325
701.4949, 4.881645
701.9771, 5.141769
702.4592, 4.899529
702.9413, 4.723717
703.4234, 5.492599
703.9055, 7.280807
704.3876, 8.158165
704.8698, 7.387245
705.3519, 6.563248
705.8340, 6.277061
706.3161, 6.205994
706.7982, 5.887024
707.2803, 5.318123
707.7625, 4.941696
708.2446, 5.161484
708.7267, 5.765549
709.2088, 6.253052
709.6909, 6.653046
710.1730, 6.508911
710.6552, 5.273933
711.1373, 4.206673
711.6194, 4.995865
712.1015, 7.176788
712.5836, 7.979805
713.0657, 5.835800
713.5479, 4.024918
714.0300, 3.635048
714.5121, 4.131668
714.9942, 5.492424
715.4763, 7.283577
715.9584, 8.129318
716.4406, 6.998230
716.9227, 4.723389
717.4048, 3.112305
717.8869, 2.144585
718.3690, 2.082901
718.8511, 3.383102
719.3333, 4.882790
719.8154, 5.836136
720.2975, 6.356003
720.7796, 6.679543
721.2617, 6.737350
721.7438, 6.773399
722.2260, 6.793198
722.7081, 6.924675
723.1902, 7.530968
723.6723, 8.352875
724.1544, 8.570374
724.6365, 7.827408
725.1187, 6.624840
725.6008, 5.492516
726.0829, 4.337875
726.5650, 4.698463
727.0471, 7.542076
727.5292, 10.13619
728.0114, 10.58054
728.4935, 9.984512
728.9756, 10.28565
729.4577, 11.82890
729.9398, 13.24901
730.4219, 14.19461
730.9041, 14.78011
731.3862, 14.71809
731.8683, 14.54391
732.3504, 15.52917
732.8325, 17.93938
733.3146, 20.27853
733.7968, 20.42752
734.2789, 18.57160
734.7610, 18.43167
735.2431, 20.80218
735.7252, 22.76995
736.2073, 22.52623
736.6895, 22.02251
737.1716, 23.92068
737.6537, 28.11920
738.1358, 31.36979
738.6179, 32.38390
739.1000, 32.85397
739.5822, 33.60500
740.0643, 34.46045
740.5464, 35.22257
741.0285, 35.84926
741.5106, 36.19905
741.9927, 35.95416
742.4749, 35.34697
742.9570, 35.60763
743.4391, 37.05836
743.9212, 37.69947
744.4033, 36.50144
744.8854, 35.20280
745.3676, 35.72979
745.8497, 37.45831
746.3318, 38.36071
746.8139, 37.91188
747.2960, 37.07591
747.7781, 36.06858
748.2603, 34.91489
748.7424, 33.29211
749.2245, 31.53164
749.7066, 30.70750
750.1887, 31.42730
750.6708, 32.62684
751.1530, 32.48429
751.6351, 31.04570
752.1172, 30.07226
752.5993, 29.81098
753.0814, 29.48014
753.5635, 28.59290
754.0457, 27.42858
754.5278, 26.53951
755.0099, 25.94857
755.4920, 25.47572
755.9741, 25.35236
756.4562, 25.07360
756.9384, 24.15687
757.4205, 22.98618
757.9026, 22.22764
758.3847, 21.99921
758.8668, 21.77826
759.3489, 21.10222
759.8311, 20.05345
760.3132, 18.74622
760.7953, 17.17467
761.2774, 15.86612
761.7595, 14.87733
762.2416, 14.50027
762.7238, 15.27268
763.2059, 17.14765
763.6880, 18.26711
764.1701, 18.24739
764.6522, 18.06431
765.1343, 17.94652
765.6165, 17.67438
766.0986, 17.07922
766.5807, 16.16470
767.0628, 14.94814
767.5449, 13.36961
768.0270, 11.78894
768.5092, 10.30791
768.9913, 9.189674
769.4734, 9.816666
769.9555, 12.36552
770.4376, 14.32660
770.9197, 14.20947
771.4019, 12.62544
771.8840, 10.81733
772.3661, 8.224861
772.8482, 7.023567
773.3303, 8.764557
773.8124, 10.03184
774.2946, 9.414619
774.7767, 7.825089
775.2588, 6.181099
775.7409, 4.693275
776.2230, 3.770447
776.7051, 3.866257
777.1873, 4.503494
777.6694, 5.498871
778.1515, 6.550415
778.6336, 6.700783
779.1157, 5.700638
779.5978, 4.080879
780.0800, 2.199333
780.5621, 0.2351460
781.0442, 0.5546040
781.5263, 0.4698260
782.0084, 1.154823
782.4905, 0.9744260
782.9727, 0.5926590
783.4548, 0.4798050
783.9369, 0.4758830
784.4190, 9.4466999E-02
784.9011, 1.078812
785.3832, 1.837868
785.8654, 1.152275
786.3475, 9.9541001E-02
786.8296, 0.1230320
787.3117, 0.3386150
787.7938, 0.6379170
788.2759, 0.4064710
788.7581, 0.2452930
789.2402, 1.287483
789.7223, 3.436378
790.2044, 4.413132
790.6865, 4.033455
791.1686, 3.185310
791.6508, 1.802246
792.1329, 0.5442200
792.6150, 0.3978120
793.0971, 1.369438
793.5792, 2.101044
794.0613, 2.321686
794.5435, 2.539642
795.0256, 3.126579
795.5077, 3.637962
795.9898, 3.534164
796.4719, 2.901764
796.9540, 2.232903
797.4362, 1.733315
797.9183, 1.547638
798.4004, 2.232689
798.8825, 3.443611
799.3646, 3.622292
799.8467, 2.558815
800.3289, 1.611069
800.8110, 1.645172
801.2931, 2.074997
801.7752, 1.523529
802.2573, 0.6427000
802.7394, 1.651443
803.2216, 0.2324300
803.7037, 0.8711170
804.1858, 0.6477890
804.6679, 0.1091310
805.1500, 0.3188630
805.6321, 3.4469999E-02
806.1143, 0.3131180
806.5964, 2.699730
807.0785, 5.316124
807.5606, 6.543678
808.0427, 6.930992
808.5248, 7.347183
809.0070, 8.040405
809.4891, 9.257668
809.9712, 11.26650
810.4533, 13.66263
810.9354, 15.29244
811.4175, 16.03660
811.8997, 16.99193
812.3818, 18.39191
812.8639, 19.71470
813.3460, 20.46854
813.8281, 21.05055
814.3102, 22.33296
814.7924, 24.49569
815.2745, 26.59544
815.7566, 28.64926
816.2387, 30.46143
816.7208, 31.43079
817.2029, 32.33546
817.6851, 34.51445
818.1672, 38.00261
818.6493, 41.13033
819.1314, 42.21584
819.6135, 42.73793
820.0956, 45.59146
820.5778, 50.15063
821.0599, 53.58826
821.5420, 55.32097
822.0241, 56.15997
822.5062, 56.52700
822.9883, 56.74785
823.4705, 57.98076
823.9526, 60.81375
824.4347, 63.18848
824.9168, 64.79351
825.3989, 66.25338
825.8810, 67.60004
826.3632, 69.05769
826.8453, 71.12524
827.3274, 73.90327
827.8095, 76.06133
828.2916, 77.01547
828.7737, 77.26682
829.2559, 76.55377
829.7380, 75.64860
830.2201, 75.89417
830.7022, 77.40803
831.1843, 79.20170
831.6664, 80.64449
832.1486, 81.60133
832.6307, 81.35303
833.1128, 80.00423
833.5949, 80.16473
834.0770, 82.55931
834.5591, 84.44391
835.0413, 83.81895
835.5233, 81.84573
836.0054, 81.31388
836.4875, 82.75864
836.9697, 84.12539
837.4518, 84.58660
837.9339, 85.91559
838.4160, 89.36746
838.8981, 93.52324
839.3802, 96.57236
839.8624, 98.53207
840.3445, 101.4954
840.8266, 107.1479
841.3087, 113.4247
841.7908, 117.8123
842.2729, 121.9475
842.7551, 129.1930
843.2372, 139.4604
843.7193, 149.3804
844.2014, 156.7541
844.6835, 163.3475
845.1656, 172.5593
845.6478, 184.4699
846.1299, 197.4107
846.6120, 211.6740
847.0941, 225.6261
847.5762, 238.5573
848.0583, 250.9145
848.5405, 263.1199
849.0226, 275.1003
849.5047, 287.7795
849.9868, 300.3910
850.4689, 314.5219
850.9510, 332.9972
851.4332, 350.9725
851.9153, 364.0457
852.3974, 373.0387
852.8795, 381.3369
853.3616, 389.7426
853.8438, 399.4027
854.3259, 412.7264
854.8080, 426.9232
855.2901, 438.0596
855.7722, 446.1836
856.2543, 453.0065
856.7365, 459.2194
857.2186, 464.7129
857.7007, 469.6863
858.1828, 473.8690
858.6649, 475.0289
859.1470, 472.8723
859.6292, 469.4999
860.1113, 465.6903
860.5934, 460.2738
861.0755, 452.3464
861.5576, 442.0211
862.0397, 429.9173
862.5219, 415.5612
863.0040, 400.3228
863.4861, 385.5733
863.9682, 368.5542
864.4503, 345.8484
864.9324, 320.8865
865.4146, 298.5483
865.8967, 279.9627
866.3788, 262.3170
866.8609, 244.2496
867.3430, 226.3121
867.8251, 208.8334
868.3073, 191.9436
868.7894, 175.7329
869.2715, 160.3171
869.7536, 146.7490
870.2357, 135.9032
870.7178, 126.3558
871.2000, 114.4542
871.6821, 100.3543
872.1642, 89.01225
872.6463, 80.98639
873.1284, 74.56022
873.6105, 69.31786
874.0927, 64.56215
874.5748, 59.12270
875.0569, 52.74698
875.5390, 47.65759
876.0211, 44.86855
876.5032, 42.03873
876.9854, 38.63929
877.4675, 35.21887
877.9496, 32.07350
878.4317, 29.27959
878.9138, 26.95056
879.3959, 25.01963
879.8781, 23.84431
880.3602, 24.51736
880.8423, 25.30642
881.3244, 23.99300
881.8065, 21.54732
882.2886, 20.28547
882.7708, 20.89430
883.2529, 22.35288
883.7350, 24.11023
884.2171, 25.69112
884.6992, 25.72453
885.1813, 24.41286
885.6635, 23.12590
886.1456, 22.06505
886.6277, 22.17593
887.1098, 24.31921
887.5919, 27.64816
888.0740, 29.99454
888.5562, 31.20217
889.0383, 31.97613
889.5204, 32.24582
890.0025, 32.18747
890.4846, 31.59444
890.9667, 30.89189
891.4489, 30.40079
891.9310, 30.14813
892.4131, 30.43301
892.8952, 32.65813
893.3773, 33.61935
893.8594, 31.36075
894.3416, 28.31333
894.8237, 26.26060
895.3058, 25.13350
895.7879, 24.36208
896.2700, 23.76094
896.7521, 23.07622
897.2343, 22.26440
897.7164, 21.13429
898.1985, 18.93762
898.6806, 16.22063
899.1627, 14.84277
899.6448, 15.09949
900.1270, 15.09667
900.6091, 13.23984
901.0912, 10.16682
901.5733, 7.336555
902.0554, 4.741760
902.5375, 3.057083
903.0197, 2.429298
903.5018, 2.413330
903.9839, 3.017586
904.4660, 3.728363
904.9481, 3.606895
905.4302, 2.481842
905.9124, 2.204620
906.3945, 3.289032
906.8766, 4.487610
907.3587, 5.644897
907.8408, 6.809822
908.3229, 8.105530
908.8051, 9.428528
909.2872, 10.50842
909.7693, 11.20232
910.2514, 11.92856
910.7335, 12.24198
911.2156, 13.22829
911.6978, 16.73158
912.1799, 20.98212
912.6620, 22.63671
913.1441, 21.52145
913.6262, 21.14022
914.1083, 24.17143
914.5905, 28.56429
915.0726, 31.93608
915.5547, 34.49312
916.0368, 36.47196
916.5189, 38.04738
917.0010, 40.06455
917.4832, 42.94838
917.9653, 46.25630
918.4474, 49.51868
918.9295, 52.65367
919.4116, 54.49153
919.8937, 54.76236
920.3759, 55.58960
920.8580, 57.51895
921.3401, 60.10191
921.8222, 63.27954
922.3043, 66.70672
922.7864, 69.09107
923.2686, 69.99072
923.7507, 70.81343
924.2328, 71.35651
924.7149, 72.06450
925.1970, 73.28380
925.6791, 74.60715
926.1613, 75.62972
926.6434, 76.34647
927.1255, 76.83322
927.6076, 76.57068
928.0897, 76.89697
928.5718, 79.23618
929.0540, 81.45272
929.5361, 81.15533
930.0182, 79.14543
930.5003, 77.69429
930.9824, 77.60432
931.4645, 77.63488
931.9467, 76.16644
932.4288, 74.58531
932.9109, 75.68925
933.3930, 77.88496
933.8751, 76.88287
934.3572, 72.43628
934.8394, 68.25428
935.3215, 66.72207
935.8036, 66.94939
936.2857, 67.95673
936.7678, 69.43892
937.2499, 69.04110
937.7321, 66.66375
938.2142, 64.43295
938.6963, 63.04919
939.1784, 62.04305
939.6605, 61.06471
940.1426, 60.13484
940.6248, 58.81894
941.1069, 56.38240
941.5890, 55.36333
942.0711, 57.15398
942.5532, 58.75631
943.0353, 58.17834
943.5175, 56.57468
943.9996, 56.04489
944.4817, 56.78139
944.9638, 57.13350
945.4459, 57.42783
945.9280, 56.87282
946.4102, 53.97440
946.8923, 51.05568
947.3744, 50.07598
947.8565, 50.56071
948.3386, 51.20782
948.8207, 51.75826
949.3029, 52.07358
949.7850, 51.85709
950.2671, 51.61566
950.7492, 52.19517
951.2313, 52.73548
951.7134, 51.56339
952.1956, 48.94220
952.6777, 46.94519
953.1598, 46.75778
953.6419, 47.45872
954.1240, 48.38666
954.6061, 49.23664
955.0883, 49.39360
955.5704, 48.97980
956.0525, 48.42371
956.5346, 47.92372
957.0167, 47.90337
957.4988, 48.94629
957.9810, 50.23325
958.4631, 49.32803
958.9452, 46.46253
959.4273, 44.57819
959.9094, 44.02924
960.3915, 43.91362
960.8737, 43.88751
961.3558, 43.74581
961.8379, 43.21924
962.3200, 42.30640
962.8021, 40.91538
963.2842, 38.78191
963.7664, 36.97240
964.2485, 35.69483
964.7306, 34.72636
965.2127, 34.09320
965.6948, 33.57658
966.1769, 32.67667
966.6591, 31.26054
967.1412, 29.97987
967.6233, 28.95585
968.1054, 27.91105
968.5875, 26.69365
969.0696, 25.52921
969.5518, 24.67556
970.0339, 24.00705
970.5160, 23.14393
970.9981, 22.08699
971.4802, 20.65022
971.9623, 17.82711
972.4445, 15.67523
972.9266, 16.16257
973.4087, 17.51377
973.8908, 17.48042
974.3729, 15.99062
974.8550, 14.35081
975.3372, 13.04927
975.8193, 11.95426
976.3014, 11.42175
976.7835, 10.69110
977.2656, 8.502823
977.7477, 5.510880
978.2299, 2.995461
978.7120, 1.405029
979.1941, 0.9374310
979.6762, 2.065681
980.1583, 3.744816
980.6404, 4.818607
981.1226, 5.163330
981.6047, 3.947723
982.0868, 1.535431
982.5689, 0.2016830
983.0510, 0.8274230
983.5331, 1.483231
984.0153, 0.2714160
984.4974, 0.1443940
984.9795, 0.5082470
985.4616, 1.931458
985.9437, 1.246517
986.4258, 2.320259
986.9080, 3.071999
987.3901, 2.295536
987.8722, 1.072273
988.3543, 1.189011
988.8364, 2.563984
989.3185, 3.078934
989.8007, 2.565609
990.2828, 1.967815
990.7649, 1.432800
991.2470, 0.8857880
991.7291, 0.1755220
992.2112, 0.4720920
992.6934, 0.5221140
993.1755, 0.1562810
993.6576, 0.6849860
994.1397, 0.8821030
994.6218, 1.258968
995.1039, 2.185978
995.5861, 3.046497
996.0682, 3.220387
996.5503, 2.986336
997.0324, 3.215878
997.5145, 4.384598
997.9966, 4.580612
998.4788, 2.407906
998.9609, 0.8731920
999.4430, 1.738834
999.9251, 2.996704
1000.407, 2.615971
1000.889, 1.042828
1001.371, 0.1554870
1001.854, 0.4623720
1002.336, 1.005901
1002.818, 2.323521
1003.300, 2.867813
1003.782, 0.9208910
1004.264, 1.753242
1004.746, 2.994850
1005.228, 2.814121
1005.711, 2.539684
1006.193, 2.581928
1006.675, 2.885395
1007.157, 3.728996
1007.639, 4.531940
1008.121, 4.707653
1008.603, 4.489258
1009.085, 4.347107
1009.567, 4.317005
1010.050, 3.967548
1010.532, 2.817955
1011.014, 1.984039
1011.496, 3.019173
1011.978, 4.701859
1012.460, 5.441250
1012.942, 5.291359
1013.424, 4.418518
1013.906, 3.057510
1014.389, 2.184277
1014.871, 2.649113
1015.353, 3.610355
1015.835, 3.806995
1016.317, 3.586281
1016.799, 3.781300
1017.281, 4.374043
1017.763, 4.975739
1018.246, 5.461796
1018.728, 6.002911
1019.210, 6.793358
1019.692, 7.628860
1020.174, 8.050526
1020.656, 8.120144
1021.138, 8.037418
1021.620, 7.855831
1022.102, 8.063847
1022.585, 8.857883
1023.067, 9.601284
1023.549, 9.578705
1024.031, 9.079327
1024.513, 9.206562
1024.995, 9.929977
1025.477, 9.639053
1025.959, 8.081657
1026.442, 7.292011
1026.924, 8.216686
1027.406, 9.750057
1027.888, 10.66625
1028.370, 11.05767
1028.852, 11.33427
1029.334, 11.44081
1029.816, 11.90294
1030.298, 12.86996
1030.781, 13.74234
1031.263, 14.23275
1031.745, 14.54449
1032.227, 14.89137
1032.709, 15.28668
1033.191, 15.95579
1033.673, 17.20194
1034.155, 17.59249
1034.638, 16.62218
1035.120, 15.70256
1035.602, 15.41822
1036.084, 15.56741
1036.566, 15.98516
1037.048, 16.64002
1037.530, 17.01732
1038.012, 17.00901
1038.495, 16.96418
1038.977, 16.88888
1039.459, 16.81333
1039.941, 16.86720
1040.423, 16.81811
1040.905, 16.16187
1041.387, 16.30851
1041.869, 16.50485
1042.351, 16.13715
1042.833, 17.04402
1043.316, 17.01728
1043.798, 16.66722
1044.280, 15.68435
1044.762, 14.67929
1045.244, 14.41546
1045.726, 14.91201
1046.208, 15.90826
1046.690, 18.57807
1047.173, 19.77830
1047.655, 18.03997
1048.137, 16.34583
1048.619, 16.25938
1049.101, 16.78754
1049.583, 16.62184
1050.065, 15.81346
1050.547, 15.53817
1051.030, 16.71045
1051.512, 17.07418
1051.994, 15.34811
1052.476, 13.87907
1052.958, 14.19573
1053.440, 15.11680
1053.922, 15.27134
1054.404, 14.67581
1054.886, 14.04112
1055.369, 13.54975
1055.851, 12.83791
1056.333, 11.28711
1056.815, 10.36086
1057.297, 11.32544
1057.779, 12.77092
1058.261, 13.11653
1058.743, 12.48314
1059.225, 11.92054
1059.708, 11.56794
1060.190, 11.33480
1060.672, 11.24490
1061.154, 11.15628
1061.636, 11.26648
1062.118, 11.39884
1062.600, 11.12287
1063.082, 10.49618
1063.565, 10.00692
1064.047, 9.815228
1064.529, 9.708252
1065.011, 9.702377
1065.493, 9.661415
1065.975, 9.067585
1066.457, 8.692398
1066.939, 9.530090
1067.422, 11.38949
1067.904, 13.49887
1068.386, 15.94579
1068.868, 17.20992
1069.350, 15.72392
1069.832, 14.12158
1070.314, 14.11437
1070.796, 14.65259
1071.278, 14.52107
1071.760, 13.88829
1072.243, 13.62194
1072.725, 14.33092
1073.207, 14.82547
1073.689, 14.47583
1074.171, 13.82626
1074.653, 12.81892
1075.135, 11.99376
1075.617, 12.01138
1076.100, 12.61958
1076.582, 13.09226
1077.064, 13.24207
1077.546, 13.55733
1078.028, 14.77407
1078.510, 15.56728
1078.992, 14.64796
1079.474, 13.45189
1079.957, 13.57859
1080.439, 14.45072
1080.921, 14.57826
1081.403, 13.65011
1081.885, 12.81878
1082.367, 12.44918
1082.849, 12.47237
1083.331, 13.45213
1083.813, 14.25555
1084.296, 13.39576
1084.778, 11.89352
1085.260, 11.86081
1085.742, 13.47437
1086.224, 14.28967
1086.706, 12.73841
1087.188, 11.11053
1087.670, 10.39540
1088.152, 10.04412
1088.635, 9.585785
1089.117, 9.238155
1089.599, 9.688934
1090.081, 10.75542
1090.563, 10.84846
1091.045, 8.653999
1091.527, 7.119205
1092.009, 8.157356
1092.491, 9.504753
1092.974, 9.883617
1093.456, 9.562042
1093.938, 8.831577
1094.420, 7.825314
1094.902, 6.689152
1095.384, 5.181561
1095.866, 4.515556
1096.348, 6.391052
1096.831, 7.738033
1097.313, 6.147396
1097.795, 3.825077
1098.277, 3.103512
1098.759, 3.666374
1099.241, 3.933449
1099.723, 3.440754
1100.205, 3.521416
1100.688, 5.383305
1101.170, 6.851578
1101.652, 6.481514
1102.134, 5.871250
1102.616, 6.777271
1103.098, 8.295162
1103.580, 8.328331
1104.062, 6.508255
1104.544, 4.958786
1105.026, 4.107735
1105.509, 3.686707
1105.991, 3.904812
1106.473, 4.287106
1106.955, 4.670937
1107.437, 4.813484
1107.919, 4.413212
1108.401, 3.491383
1108.883, 2.736279
1109.366, 2.065662
1109.848, 1.850086
1110.330, 2.641956
1110.812, 3.289944
1111.294, 3.192192
1111.776, 2.743996
1112.258, 2.186054
1112.740, 1.636719
1113.223, 1.675789
1113.705, 2.920734
1114.187, 3.468960
1114.669, 2.479782
1115.151, 1.842987
1115.633, 2.393890
1116.115, 2.993980
1116.597, 2.681805
1117.079, 1.861374
1117.562, 1.645889
1118.044, 2.215290
1118.526, 2.609638
1119.008, 2.615917
1119.490, 2.837627
1119.972, 3.780457
1120.454, 4.387794
1120.936, 3.911152
1121.418, 2.798725
1121.901, 1.672207
1122.383, 0.5145650
1122.865, 9.6909001E-02
1123.347, 0.8164980
1123.829, 1.269478
1124.311, 1.188549
1124.793, 1.001438
1125.275, 0.9069480
1125.758, 0.7245480
1126.240, 0.1099510
1126.722, 0.7317090
1127.204, 0.4648700
1127.686, 1.470886
1128.168, 1.416599
1128.650, 1.619545
1129.132, 2.751377
1129.615, 5.0788999E-02
1130.097, 3.152546
1130.579, 3.559494
1131.061, 2.246887
1131.543, 1.543304
1132.025, 1.456409
1132.507, 0.9306950
1132.989, 0.1171650
1133.471, 0.2183340
1133.953, 0.9890980
1134.436, 2.222740
1134.918, 2.743927
1135.400, 2.962406
1135.882, 3.435223
1136.364, 4.115128
1136.846, 4.974117
1137.328, 5.920425
1137.810, 6.055702
1138.293, 5.337143
1138.775, 4.424953
1139.257, 3.578667
1139.739, 2.994045
1140.221, 2.919189
1140.703, 3.036842
1141.185, 2.561298
1141.667, 1.743622
1142.150, 1.013199
1142.632, 0.5734330
1143.114, 1.402901
1143.596, 3.461330
1144.078, 5.010471
1144.560, 5.010727
1145.042, 4.382599
1145.524, 4.199322
1146.006, 4.094769
1146.489, 3.307838
1146.971, 2.239567
1147.453, 1.769878
1147.935, 1.833706
1148.417, 1.759911
1148.899, 1.327118
1149.381, 1.013031
1149.863, 1.022614
1150.345, 1.498707
1150.828, 3.483089
1151.310, 5.241703
1151.792, 4.071262
1152.274, 1.467247
1152.756, 0.4693490
1153.238, 1.428810
1153.720, 2.243343
1154.202, 2.124016
1154.685, 1.905090
1155.167, 1.977116
1155.649, 2.132137
1156.131, 2.425159
1156.613, 2.575031
1157.095, 2.115925
1157.577, 1.287460
1158.059, 0.7753370
1158.542, 0.7192920
1159.024, 0.8348540
1159.506, 1.113575
1159.988, 1.472294
1160.470, 1.904503
1160.952, 2.390160
1161.434, 3.385101
1161.916, 4.154232
1162.398, 3.368237
1162.880, 1.113922
1163.363, 0.3951260
1163.845, 1.097309
1164.327, 1.061916
1164.809, 0.3040850
1165.291, 1.472248
1165.773, 2.046307
1166.255, 2.113445
1166.737, 1.515217
1167.220, 0.6493420
1167.702, 0.5493510
1168.184, 1.282658
1168.666, 2.218235
1169.148, 3.544930
1169.630, 4.107513
1170.112, 3.581306
1170.594, 2.976936
1171.077, 2.878155
1171.559, 2.577686
1172.041, 0.9605330
1172.523, 1.281872
1173.005, 1.235813
1173.487, 0.8887830
1173.969, 2.464859
1174.451, 3.322697
1174.933, 3.529266
1175.416, 3.142292
1175.898, 2.756332
1176.380, 2.794388
1176.862, 2.937748
1177.344, 2.727173
1177.826, 2.272675
1178.308, 1.645634
1178.790, 1.040047
1179.272, 1.200317
1179.755, 1.900406
1180.237, 1.732426
1180.719, 0.3085780
1181.201, 0.4906160
1181.683, 1.208675
1182.165, 3.209656
1182.647, 3.111191
1183.129, 4.152088
1183.612, 2.998478
1184.094, 4.114655
1184.576, 3.972034
1185.058, 2.806808
1185.540, 2.612488
1186.022, 4.310436
1186.504, 5.427727
1186.986, 4.589409
1187.469, 3.652630
1187.951, 3.214104
1188.433, 2.878880
1188.915, 2.198540
1189.397, 1.430103
1189.879, 1.113865
1190.361, 1.285755
1190.843, 1.351776
1191.325, 1.283836
1191.807, 1.091312
1192.290, 0.5719450
1192.772, 0.2071080
1193.254, 0.1874120
1193.736, 0.3181380
1194.218, 0.2980460
1194.700, 0.4231800
1195.182, 1.685226
1195.664, 4.317684
1196.147, 5.038303
1196.629, 3.490952
1197.111, 1.743557
1197.593, 8.5430004E-02
1198.075, 0.5932310
1198.557, 1.085266
1199.039, 3.025833
1199.521, 3.047413
1200.004, 1.847305
1200.486, 1.116505
1200.968, 0.8869130
1201.450, 1.674194
1201.932, 3.193645
1202.414, 3.765114
1202.896, 3.150871
1203.378, 2.438648
1203.860, 2.217518
1204.343, 2.232666
1204.825, 2.409637
1205.307, 2.479633
1205.789, 1.872261
1206.271, 1.873989
1206.753, 0.8729020
1207.235, 1.055271
1207.717, 0.6738660
1208.199, 0.2282710
1208.682, 1.9566000E-02
1209.164, 2.933216
1209.646, 4.656704
1210.128, 1.600769
1210.610, 1.193802
1211.092, 5.5579999E-03
1211.574, 2.181488
1212.056, 2.377663
1212.539, 1.269600
1213.021, 0.7330780
1213.503, 1.017311
1213.985, 1.219841
1214.467, 0.6681100
1214.949, 1.039078
1215.431, 3.374977
1215.913, 5.013756
1216.396, 4.783905
1216.878, 3.856174
1217.360, 3.210876
1217.842, 2.708775
1218.324, 1.813168
1218.806, 0.4851880
1219.288, 1.255493
1219.770, 4.358635
1220.252, 4.749138
1220.734, 1.616993
1221.217, 0.6291120
1221.699, 8.2080998E-02
1222.181, 1.680008
1222.663, 3.324802
1223.145, 4.565224
1223.627, 4.777058
1224.109, 4.262424
1224.591, 3.307625
1225.074, 2.316051
1225.556, 2.532150
1226.038, 3.769779
1226.520, 4.536926
1227.002, 4.239204
1227.484, 3.459984
1227.966, 1.847042
1228.448, 0.8925900
1228.931, 2.370846
1229.413, 4.255344
1229.895, 4.877979
1230.377, 4.586681
1230.859, 3.941345
1231.341, 3.258251
1231.823, 3.047684
1232.305, 3.595299
1232.787, 3.911377
1233.270, 3.692944
1233.752, 3.484600
1234.234, 3.142838
1234.716, 3.226898
1235.198, 4.447178
1235.680, 5.678566
1236.162, 5.225349
1236.644, 3.545753
1237.126, 2.913792
1237.609, 3.468327
1238.091, 3.708412
1238.573, 3.608212
1239.055, 2.876663
1239.537, 1.448307
1240.019, 0.5090520
1240.501, 0.7034570
1240.983, 1.652763
1241.466, 3.274155
1241.948, 4.791813
1242.430, 4.216515
1242.912, 2.670059
1243.394, 2.619389
1243.876, 3.619862
1244.358, 3.778114
1244.840, 3.024906
1245.323, 2.924953
1245.805, 4.219330
1246.287, 5.013947
1246.769, 3.640339
1247.251, 2.173504
1247.733, 1.388954
1248.215, 1.370975
1248.697, 2.922699
1249.179, 4.801258
1249.661, 5.025581
1250.144, 3.899124
1250.626, 2.755585
1251.108, 1.458611
1251.590, 0.7444110
1252.072, 0.6633450
1252.554, 1.179501
1253.036, 2.711697
1253.518, 3.622955
1254.001, 2.877419
1254.483, 1.695190
1254.965, 1.467197
1255.447, 1.944073
1255.929, 1.832947
1256.411, 1.253265
1256.893, 1.210644
1257.375, 1.659100
1257.858, 2.138844
1258.340, 2.580036
1258.822, 3.290882
1259.304, 4.387817
1259.786, 5.054913
1260.268, 4.310215
1260.750, 3.357761
1261.232, 3.576210
1261.714, 4.039326
1262.197, 3.656361
1262.679, 2.954922
1263.161, 2.767460
1263.643, 3.035500
1264.125, 3.192673
1264.607, 3.074139
1265.089, 3.241070
1265.571, 4.408478
1266.053, 4.863987
1266.536, 3.847996
1267.018, 2.814011
1267.500, 2.137806
1267.982, 1.986427
1268.464, 2.794037
1268.946, 3.870892
1269.428, 3.394238
1269.910, 1.451408
1270.393, 2.6485000E-02
1270.875, 0.8418350
1271.357, 0.7015610
1271.839, 0.4366420
1272.321, 2.080273
1272.803, 3.968681
1273.285, 5.134483
1273.767, 4.822487
1274.250, 3.835640
1274.732, 2.835419
1275.214, 1.935215
1275.696, 1.195969
1276.178, 0.6902620
1276.660, 0.4554600
1277.142, 0.5515020
1277.624, 1.248920
1278.106, 2.472168
1278.589, 3.388016
1279.071, 3.895634
1279.553, 3.690063
1280.035, 0.9103700
1280.517, 3.5542000E-02
1280.999, 1.530804
1281.481, 3.208035
1281.963, 3.663982
1282.445, 3.376072
1282.928, 3.038754
1283.410, 2.838802
1283.892, 2.142292
1284.374, 2.091648
1284.856, 1.703724
1285.338, 1.285542
1285.820, 1.375149
1286.302, 0.6676600
1286.785, 0.1219140
1287.267, 0.1755030
1287.749, 0.2504770
1288.231, 0.0000000E+00
##END=



