##NAMES=Jouravskite
##RRUFFID=R110012
##IDEAL CHEMISTRY=Ca_3_Mn^4+^(SO_4_)(CO_3_)(OH)_6_&#183;12H_2_O
##LOCALITY=Wessels mine, Kurumen, Kalahari Mn Area, Cape Province, South Africa
##OWNER=RRUFF
##SOURCE=William Pinch
##DESCRIPTION=Yellow hexagonal prism associated with calcite
##STATUS=The identification of this mineral has been confirmed only by single crystal X-ray diffraction.
##URL=rruff.info/R110012
159.5481, 0.0000000E+00
160.0302, 0.5864560
160.5123, 0.6422880
160.9945, 6.2316999E-02
161.4766, 8.6716004E-02
161.9587, 0.7948460
162.4408, 1.192719
162.9229, 0.7508850
163.4050, 9.5000997E-02
163.8871, 0.1736600
164.3693, 0.1630550
164.8514, 0.8677830
165.3335, 1.371033
165.8156, 1.336609
166.2977, 1.568985
166.7798, 2.227402
167.2620, 3.187531
167.7441, 4.348770
168.2262, 5.734741
168.7083, 7.140228
169.1904, 7.898148
169.6725, 7.570648
170.1547, 7.515442
170.6368, 8.483398
171.1189, 10.21548
171.6010, 11.83090
172.0831, 12.93904
172.5652, 13.66780
173.0474, 14.34898
173.5295, 14.90747
174.0116, 15.55409
174.4937, 16.55093
174.9758, 17.89790
175.4579, 19.10750
175.9401, 19.97795
176.4222, 20.57816
176.9043, 20.94493
177.3864, 21.03143
177.8685, 21.00572
178.3506, 21.12288
178.8328, 21.47702
179.3149, 21.62376
179.7970, 21.21579
180.2791, 20.63080
180.7612, 20.09193
181.2433, 19.61594
181.7255, 19.43488
182.2076, 20.26744
182.6897, 23.29491
183.1718, 25.09302
183.6539, 24.52396
184.1360, 22.78146
184.6181, 20.93536
185.1003, 19.46115
185.5824, 18.40805
186.0645, 18.02151
186.5466, 19.09457
187.0287, 19.87624
187.5108, 20.12599
187.9930, 19.96642
188.4751, 19.46906
188.9572, 18.65437
189.4393, 17.65263
189.9214, 17.24748
190.4035, 18.31244
190.8857, 18.98466
191.3678, 18.73526
191.8499, 17.90950
192.3320, 17.10747
192.8141, 16.69164
193.2962, 16.63235
193.7784, 16.53452
194.2605, 16.28853
194.7426, 16.09950
195.2247, 16.00992
195.7068, 16.02336
196.1889, 16.26672
196.6711, 16.98030
197.1532, 17.92789
197.6353, 18.07332
198.1174, 16.65219
198.5995, 15.15930
199.0816, 14.42822
199.5638, 14.39108
200.0459, 14.70744
200.5280, 15.31473
201.0101, 16.19873
201.4922, 17.12424
201.9743, 18.32616
202.4565, 19.34755
202.9386, 19.48550
203.4207, 18.66110
203.9028, 18.25108
204.3849, 19.65303
204.8670, 22.06329
205.3492, 23.44710
205.8313, 23.34740
206.3134, 22.88266
206.7955, 22.82057
207.2776, 23.25836
207.7597, 23.43234
208.2419, 22.71974
208.7240, 21.71867
209.2061, 21.08620
209.6882, 20.91348
210.1703, 20.63799
210.6524, 19.70879
211.1346, 17.78645
211.6167, 16.79895
212.0988, 17.96046
212.5809, 19.39326
213.0630, 20.19248
213.5451, 19.91021
214.0273, 18.78535
214.5094, 17.20334
214.9915, 14.50462
215.4736, 12.72906
215.9557, 12.76147
216.4378, 13.50244
216.9200, 13.86245
217.4021, 13.48032
217.8842, 12.56371
218.3663, 12.07232
218.8484, 12.60976
219.3305, 12.67922
219.8127, 11.64841
220.2948, 10.29792
220.7769, 9.520737
221.2590, 9.719719
221.7411, 10.50791
222.2232, 10.76798
222.7054, 9.858025
223.1875, 9.153526
223.6696, 8.804749
224.1517, 8.672577
224.6338, 8.656822
225.1159, 8.713837
225.5980, 8.759125
226.0802, 8.535019
226.5623, 7.623840
227.0444, 6.935799
227.5265, 6.603882
228.0086, 6.517159
228.4907, 6.616814
228.9729, 6.891068
229.4550, 7.188896
229.9371, 7.099281
230.4192, 6.156349
230.9013, 5.580193
231.3834, 5.855324
231.8656, 6.543335
232.3477, 6.994202
232.8298, 6.950516
233.3119, 6.619698
233.7940, 6.453896
234.2761, 6.594467
234.7583, 6.502327
235.2404, 5.668602
235.7225, 4.582191
236.2046, 4.247475
236.6867, 5.183632
237.1688, 6.482277
237.6510, 6.348595
238.1331, 4.579704
238.6152, 3.089478
239.0973, 2.689232
239.5794, 3.007462
240.0615, 3.310303
240.5437, 3.461205
241.0258, 3.405701
241.5079, 2.926994
241.9900, 2.020088
242.4721, 1.391495
242.9542, 1.591461
243.4364, 2.296967
243.9185, 2.664169
244.4006, 2.454979
244.8827, 2.007484
245.3648, 1.576775
245.8469, 1.169792
246.3290, 0.9450760
246.8112, 1.180832
247.2933, 1.682961
247.7754, 1.840630
248.2575, 1.521912
248.7396, 0.9140010
249.2217, 0.1429290
249.7039, 1.434494
250.1860, 2.158974
250.6681, 1.348503
251.1502, 0.4692460
251.6323, 1.237312
252.1144, 0.3344270
252.5966, 0.7807850
253.0787, 1.271790
253.5608, 1.298615
254.0429, 1.226013
254.5250, 1.283997
255.0071, 1.399742
255.4893, 1.253021
255.9714, 0.6262440
256.4535, 8.7081999E-02
256.9356, 0.1954120
257.4177, 0.2266690
257.8998, 3.5567999E-02
258.3820, 0.7672200
258.8641, 1.736115
259.3462, 2.094528
259.8283, 1.562500
260.3104, 0.8303680
260.7925, 0.1156160
261.2747, 1.019005
261.7568, 1.549911
262.2389, 1.539604
262.7210, 1.069153
263.2031, 0.2218630
263.6852, 1.816811
264.1674, 2.739601
264.6495, 1.256584
265.1316, 1.122169
265.6137, 2.802139
266.0958, 3.087051
266.5779, 2.434174
267.0601, 1.823982
267.5422, 0.9475860
268.0243, 0.7524030
268.5064, 1.778122
268.9885, 3.207970
269.4706, 4.357635
269.9528, 4.981361
270.4349, 5.241913
270.9170, 5.400490
271.3991, 5.286530
271.8812, 5.424385
272.3633, 6.066803
272.8455, 6.791550
273.3276, 7.282860
273.8097, 7.463928
274.2918, 7.461525
274.7739, 7.403473
275.2560, 7.011757
275.7382, 7.203835
276.2202, 8.640915
276.7024, 10.04511
277.1845, 10.41456
277.6666, 9.729759
278.1487, 8.864983
278.6308, 8.945518
279.1129, 10.39689
279.5951, 11.34303
280.0772, 11.51869
280.5593, 11.51118
281.0414, 11.63395
281.5235, 11.88577
282.0056, 12.06792
282.4878, 11.96628
282.9699, 11.51493
283.4520, 11.25224
283.9341, 11.48069
284.4162, 11.57339
284.8983, 11.05334
285.3805, 10.15180
285.8626, 9.530968
286.3447, 9.758148
286.8268, 10.81232
287.3089, 11.34522
287.7910, 10.85333
288.2732, 10.41975
288.7553, 10.52758
289.2374, 10.91515
289.7195, 10.95210
290.2016, 10.19337
290.6837, 8.904034
291.1659, 8.598240
291.6480, 10.75732
292.1301, 12.16695
292.6122, 11.76985
293.0943, 10.43741
293.5764, 9.383614
294.0586, 9.163746
294.5407, 9.540836
295.0228, 9.850266
295.5049, 10.05376
295.9870, 10.20926
296.4691, 10.18674
296.9513, 10.17752
297.4334, 10.53922
297.9155, 11.35859
298.3976, 12.15326
298.8797, 12.07951
299.3618, 10.40952
299.8440, 9.173100
300.3261, 8.617855
300.8082, 8.348637
301.2903, 8.002174
301.7724, 7.523460
302.2545, 7.171349
302.7367, 7.306187
303.2188, 8.166859
303.7009, 8.550362
304.1830, 8.080078
304.6651, 7.497898
305.1472, 7.241505
305.6294, 7.321911
306.1115, 7.539970
306.5936, 7.749435
307.0757, 7.925865
307.5578, 7.879101
308.0399, 7.613773
308.5221, 7.317921
309.0042, 7.044792
309.4863, 6.733467
309.9684, 6.422966
310.4505, 6.121307
310.9326, 5.680691
311.4148, 5.467434
311.8969, 4.857529
312.3790, 4.331894
312.8611, 3.896019
313.3432, 3.621262
313.8253, 3.663067
314.3075, 4.088539
314.7896, 4.739941
315.2717, 5.253887
315.7538, 5.783150
316.2359, 5.878185
316.7180, 5.048172
317.2001, 3.984135
317.6823, 3.485722
318.1644, 3.774570
318.6465, 4.514393
319.1286, 5.164093
319.6107, 5.658920
320.0928, 6.128250
320.5750, 6.806801
321.0571, 7.281189
321.5392, 7.006500
322.0213, 6.070091
322.5034, 5.093933
322.9855, 4.532013
323.4677, 4.302116
323.9498, 4.442963
324.4319, 5.311981
324.9140, 6.143082
325.3961, 6.512390
325.8782, 6.505142
326.3604, 6.447983
326.8425, 6.538773
327.3246, 6.773102
327.8067, 7.151855
328.2888, 7.769096
328.7709, 8.394447
329.2531, 8.962212
329.7352, 9.502075
330.2173, 10.07017
330.6994, 10.69308
331.1815, 11.34023
331.6636, 11.93794
332.1458, 12.54248
332.6279, 13.01786
333.1100, 12.98328
333.5921, 13.00046
334.0742, 13.79956
334.5563, 15.52597
335.0385, 17.52525
335.5206, 18.83983
336.0027, 19.19878
336.4848, 19.59929
336.9669, 19.85694
337.4490, 20.24456
337.9312, 21.05229
338.4133, 22.23544
338.8954, 23.41618
339.3775, 24.17774
339.8596, 24.42136
340.3417, 25.23624
340.8239, 27.48505
341.3060, 29.36464
341.7881, 30.05007
342.2702, 29.88372
342.7523, 29.57883
343.2344, 29.55663
343.7166, 29.79564
344.1987, 30.19248
344.6808, 30.93869
345.1629, 31.64120
345.6450, 32.41945
346.1271, 33.06358
346.6093, 33.45834
347.0914, 33.53918
347.5735, 33.10748
348.0556, 31.65397
348.5377, 27.93041
349.0198, 25.47158
349.5020, 25.04789
349.9841, 25.14085
350.4662, 24.80805
350.9483, 23.90618
351.4304, 22.79107
351.9125, 21.85967
352.3947, 21.17113
352.8768, 20.29792
353.3589, 19.12109
353.8410, 17.88149
354.3231, 16.63542
354.8052, 15.39283
355.2874, 14.09003
355.7695, 12.63058
356.2516, 11.14154
356.7337, 10.36356
357.2158, 11.09479
357.6979, 11.45335
358.1800, 10.87601
358.6621, 9.877716
359.1443, 9.044678
359.6264, 8.597641
360.1085, 8.300293
360.5906, 7.719620
361.0727, 6.769646
361.5548, 5.759972
362.0370, 4.279579
362.5191, 3.077606
363.0012, 2.810265
363.4833, 3.430481
363.9654, 4.223763
364.4475, 4.477547
364.9297, 4.160728
365.4118, 3.804588
365.8939, 3.095749
366.3760, 2.717079
366.8581, 3.116638
367.3402, 4.028320
367.8224, 4.931923
368.3045, 5.578354
368.7866, 5.958275
369.2687, 5.974663
369.7508, 5.404266
370.2329, 4.961029
370.7151, 4.883354
371.1972, 5.040939
371.6793, 5.414185
372.1614, 6.036980
372.6435, 6.566727
373.1256, 6.482399
373.6078, 5.734055
374.0899, 5.111603
374.5720, 4.918091
375.0541, 4.769035
375.5362, 4.258797
376.0183, 3.442688
376.5005, 2.872704
376.9826, 3.104187
377.4647, 3.897476
377.9468, 4.398788
378.4289, 4.573494
378.9110, 4.411079
379.3932, 3.639679
379.8753, 2.552315
380.3574, 1.703461
380.8395, 1.218491
381.3216, 1.093552
381.8037, 1.472542
382.2859, 2.371658
382.7680, 3.184303
383.2501, 3.738426
383.7322, 3.959610
384.2143, 3.756203
384.6964, 3.015182
385.1786, 2.248161
385.6607, 1.764992
386.1428, 1.484184
386.6249, 1.154068
387.1070, 0.6734770
387.5891, 0.2599640
388.0713, 0.2021100
388.5534, 0.4654390
389.0355, 0.8315960
389.5176, 1.466576
389.9997, 2.054558
390.4818, 2.284065
390.9640, 2.142883
391.4461, 1.753471
391.9282, 1.137077
392.4103, 0.3398670
392.8924, 0.3664250
393.3745, 1.102409
393.8567, 1.629906
394.3388, 1.752151
394.8209, 1.611031
395.3030, 1.495682
395.7851, 1.521889
396.2672, 1.560043
396.7494, 1.369270
397.2315, 0.8445360
397.7136, 0.3313140
398.1957, 7.5866997E-02
398.6778, 0.5246580
399.1599, 1.291000
399.6420, 2.312820
400.1241, 3.056511
400.6063, 2.921692
401.0884, 1.850388
401.5705, 1.948158
402.0526, 4.404037
402.5347, 6.540634
403.0168, 7.242386
403.4990, 7.146156
403.9811, 7.361565
404.4632, 8.423592
404.9453, 9.960899
405.4274, 11.04539
405.9095, 11.17131
406.3917, 11.69226
406.8738, 12.86212
407.3559, 14.23796
407.8380, 15.60024
408.3201, 16.86812
408.8022, 17.97287
409.2844, 18.80345
409.7665, 19.32507
410.2486, 20.07230
410.7307, 21.15953
411.2128, 22.36645
411.6949, 23.64303
412.1771, 24.99017
412.6592, 26.55090
413.1413, 28.50365
413.6234, 30.33851
414.1055, 30.76892
414.5876, 29.24059
415.0698, 28.00067
415.5519, 27.86514
416.0340, 28.01514
416.5161, 27.89105
416.9982, 27.44061
417.4803, 27.02520
417.9625, 27.06715
418.4446, 27.46472
418.9267, 27.49324
419.4088, 26.96082
419.8909, 26.33376
420.3730, 26.01176
420.8552, 25.83568
421.3373, 25.42191
421.8194, 24.36416
422.3015, 23.18762
422.7836, 22.70768
423.2657, 22.97150
423.7479, 23.16753
424.2300, 22.73791
424.7121, 22.22059
425.1942, 22.48416
425.6763, 23.61840
426.1584, 24.77634
426.6406, 25.78640
427.1227, 26.70131
427.6048, 27.39567
428.0869, 27.81680
428.5690, 28.29194
429.0511, 29.15088
429.5333, 30.36160
430.0154, 31.31175
430.4975, 31.74294
430.9796, 32.25877
431.4617, 33.13463
431.9438, 34.25399
432.4260, 35.50320
432.9081, 36.83241
433.3902, 38.28035
433.8723, 39.96522
434.3544, 41.92102
434.8365, 44.01052
435.3187, 46.29182
435.8008, 48.66965
436.2829, 51.11184
436.7650, 53.57455
437.2471, 55.91299
437.7292, 57.94727
438.2114, 59.66940
438.6935, 61.72014
439.1756, 64.51847
439.6577, 67.19279
440.1398, 69.22733
440.6219, 71.11732
441.1040, 73.54705
441.5862, 76.79329
442.0683, 80.53987
442.5504, 84.28879
443.0325, 88.24434
443.5146, 91.60512
443.9967, 94.11113
444.4789, 96.15441
444.9610, 97.66810
445.4431, 98.81367
445.9252, 100.0761
446.4073, 101.8770
446.8894, 104.0456
447.3716, 106.0615
447.8537, 108.2199
448.3358, 109.4623
448.8179, 108.6857
449.3000, 107.0259
449.7821, 105.6595
450.2643, 104.8776
450.7464, 104.1184
451.2285, 102.9316
451.7106, 101.3556
452.1927, 99.61967
452.6748, 97.88451
453.1570, 95.81171
453.6391, 92.74797
454.1212, 88.92625
454.6033, 85.41523
455.0854, 82.85929
455.5675, 80.47237
456.0497, 77.42423
456.5318, 73.80442
457.0139, 70.28299
457.4960, 67.20029
457.9781, 64.43245
458.4602, 61.66005
458.9424, 58.96695
459.4245, 56.10574
459.9066, 52.86317
460.3887, 49.53662
460.8708, 46.37940
461.3529, 43.45051
461.8351, 40.78224
462.3172, 38.43494
462.7993, 36.44016
463.2814, 34.17966
463.7635, 31.27560
464.2456, 28.55812
464.7278, 26.14369
465.2099, 24.05039
465.6920, 22.35592
466.1741, 21.07039
466.6562, 19.98717
467.1383, 18.75969
467.6205, 17.32355
468.1026, 15.91196
468.5847, 14.51149
469.0668, 13.15530
469.5489, 11.91046
470.0310, 10.72955
470.5132, 9.480568
470.9953, 8.001938
471.4774, 6.476425
471.9595, 5.441742
472.4416, 5.045746
472.9237, 4.594398
473.4059, 3.750168
473.8880, 2.799057
474.3701, 1.976753
474.8522, 1.312477
475.3343, 0.7605970
475.8164, 0.3648220
476.2986, 5.6708999E-02
476.7807, 0.3319930
477.2628, 0.8199230
477.7449, 1.395378
478.2270, 2.191818
478.7091, 3.075127
479.1913, 3.512451
479.6734, 2.945747
480.1555, 2.519188
480.6376, 3.048279
481.1197, 4.121368
481.6018, 4.934654
482.0839, 5.238571
482.5660, 5.065300
483.0482, 4.339264
483.5303, 2.704407
484.0124, 1.908012
484.4945, 2.545357
484.9766, 3.406738
485.4587, 4.072784
485.9409, 4.428528
486.4230, 4.305099
486.9051, 3.577599
487.3872, 2.497749
487.8693, 1.844635
488.3514, 2.073212
488.8336, 1.848396
489.3157, 0.4439540
489.7978, 0.8788680
490.2799, 1.110649
490.7620, 0.3559720
491.2441, 0.4886550
491.7263, 0.7701640
492.2084, 0.5433960
492.6905, 4.4250000E-02
493.1726, 0.7852480
493.6547, 1.746292
494.1368, 3.050369
494.6190, 4.295151
495.1011, 4.996315
495.5832, 5.022430
496.0653, 4.882187
496.5474, 4.947174
497.0295, 5.146919
497.5117, 5.266708
497.9938, 5.269203
498.4759, 5.216118
498.9580, 5.161629
499.4401, 5.093735
499.9222, 4.960243
500.4044, 4.219940
500.8865, 3.964867
501.3686, 5.226349
501.8507, 7.320930
502.3328, 8.900848
502.8149, 9.504768
503.2971, 9.425423
503.7792, 8.994431
504.2613, 7.980080
504.7434, 7.478691
505.2255, 7.787773
505.7076, 8.256409
506.1898, 8.786850
506.6719, 9.215660
507.1540, 9.198135
507.6361, 8.529129
508.1182, 7.583961
508.6003, 7.255852
509.0825, 7.752747
509.5646, 8.312355
510.0467, 8.667320
510.5288, 9.231232
511.0109, 10.37110
511.4930, 11.96229
511.9752, 13.53617
512.4573, 14.86320
512.9394, 15.93957
513.4215, 16.68864
513.9036, 17.05295
514.3857, 17.45747
514.8679, 17.92529
515.3500, 18.64053
515.8321, 19.97781
516.3142, 22.05753
516.7963, 23.70502
517.2784, 23.92908
517.7606, 23.65593
518.2427, 24.21726
518.7248, 25.70901
519.2069, 27.46448
519.6890, 29.08048
520.1711, 30.59283
520.6533, 32.11994
521.1354, 33.75182
521.6175, 35.29009
522.0996, 36.67155
522.5817, 37.95644
523.0638, 39.22743
523.5460, 40.47339
524.0281, 41.55688
524.5102, 42.27232
524.9923, 42.63876
525.4744, 43.52667
525.9565, 45.68159
526.4387, 47.36511
526.9208, 47.86925
527.4029, 47.94733
527.8850, 48.38635
528.3671, 49.38255
528.8492, 50.57249
529.3314, 51.68213
529.8135, 52.69174
530.2956, 53.36464
530.7777, 53.50311
531.2598, 53.68394
531.7419, 54.16664
532.2241, 54.94324
532.7062, 56.14719
533.1883, 58.13071
533.6704, 59.86838
534.1525, 60.35771
534.6346, 60.10571
535.1168, 60.28635
535.5989, 61.15851
536.0810, 62.49205
536.5631, 64.10831
537.0452, 66.05887
537.5273, 68.14339
538.0095, 70.49422
538.4916, 72.75671
538.9737, 74.80906
539.4558, 76.69064
539.9379, 78.45374
540.4200, 80.14054
540.9022, 81.86337
541.3843, 83.80241
541.8664, 85.96832
542.3485, 87.88375
542.8306, 89.32529
543.3127, 90.72127
543.7948, 92.46722
544.2769, 94.21939
544.7590, 95.42943
545.2411, 95.89174
545.7233, 95.89182
546.2054, 95.72358
546.6875, 95.40640
547.1696, 94.96468
547.6517, 94.44444
548.1339, 93.53999
548.6160, 91.95909
549.0981, 89.78634
549.5802, 87.18840
550.0623, 83.93860
550.5444, 80.61029
551.0266, 77.53057
551.5087, 74.62080
551.9908, 71.67774
552.4729, 68.63657
552.9550, 65.64811
553.4371, 63.00259
553.9193, 60.89270
554.4014, 57.82552
554.8835, 52.40623
555.3656, 47.71429
555.8477, 45.37489
556.3298, 44.27952
556.8120, 42.79024
557.2941, 40.29660
557.7762, 37.37996
558.2583, 34.67532
558.7404, 32.12596
559.2225, 30.41028
559.7047, 30.04614
560.1868, 29.91525
560.6689, 29.49051
561.1510, 28.91698
561.6331, 28.42345
562.1152, 28.06001
562.5974, 27.84898
563.0795, 27.57399
563.5616, 27.43418
564.0437, 28.35583
564.5258, 30.71889
565.0079, 33.27226
565.4901, 34.91244
565.9722, 35.63951
566.4543, 36.28819
566.9364, 36.01115
567.4185, 36.61674
567.9006, 39.33585
568.3828, 43.14842
568.8649, 46.66185
569.3470, 49.48756
569.8291, 52.11356
570.3112, 55.01321
570.7933, 58.19188
571.2755, 61.75725
571.7576, 65.94987
572.2397, 70.26826
572.7218, 74.73402
573.2039, 79.20092
573.6860, 83.38100
574.1682, 87.23869
574.6503, 91.34058
575.1324, 96.70368
575.6145, 102.8653
576.0966, 107.5093
576.5787, 110.0842
577.0609, 112.7862
577.5430, 117.4356
578.0251, 122.9374
578.5072, 126.6458
578.9893, 127.8935
579.4714, 128.7364
579.9536, 130.5591
580.4357, 132.0920
580.9178, 131.6322
581.3999, 129.0921
581.8820, 125.6017
582.3641, 121.9676
582.8463, 118.1531
583.3284, 113.9224
583.8105, 109.4224
584.2926, 104.2085
584.7747, 97.55087
585.2568, 90.71468
585.7390, 84.45711
586.2211, 78.93019
586.7032, 74.12528
587.1853, 70.19973
587.6674, 66.87049
588.1495, 63.53589
588.6317, 60.25633
589.1138, 56.47258
589.5959, 51.34274
590.0780, 46.24751
590.5601, 42.76268
591.0422, 40.85222
591.5244, 39.69893
592.0065, 39.99529
592.4886, 40.21544
592.9707, 38.50056
593.4528, 35.43215
593.9349, 33.09100
594.4171, 32.41193
594.8992, 32.82305
595.3813, 33.40437
595.8634, 34.38672
596.3455, 34.83094
596.8276, 34.22568
597.3098, 33.69788
597.7919, 33.80242
598.2740, 34.28653
598.7561, 34.65001
599.2382, 34.68181
599.7203, 34.67574
600.2025, 34.96800
600.6846, 35.56074
601.1667, 36.67105
601.6488, 38.86604
602.1309, 40.47723
602.6130, 39.68967
603.0952, 37.58008
603.5773, 36.31546
604.0594, 36.42036
604.5415, 36.92508
605.0236, 37.60956
605.5057, 38.28052
605.9879, 38.62935
606.4700, 38.64214
606.9521, 38.31446
607.4342, 37.55588
607.9163, 36.51134
608.3984, 36.14769
608.8806, 37.50616
609.3627, 38.00506
609.8448, 36.75035
610.3269, 35.11180
610.8090, 34.12058
611.2911, 33.80324
611.7733, 33.65550
612.2554, 33.40972
612.7375, 33.04226
613.2196, 32.53424
613.7017, 31.88371
614.1838, 30.65476
614.6660, 28.09272
615.1481, 25.75100
615.6302, 25.99280
616.1123, 28.60648
616.5944, 30.03229
617.0765, 28.57738
617.5587, 26.59626
618.0408, 25.71453
618.5229, 25.51813
619.0050, 24.89435
619.4871, 23.47370
619.9692, 21.91846
620.4514, 21.11164
620.9335, 21.12060
621.4156, 20.79355
621.8977, 19.97675
622.3798, 19.14925
622.8619, 18.21220
623.3441, 17.41624
623.8262, 17.25805
624.3083, 17.83292
624.7904, 18.22734
625.2725, 17.39920
625.7546, 15.80480
626.2367, 14.74733
626.7188, 14.33531
627.2009, 14.28449
627.6830, 14.62074
628.1652, 15.00481
628.6473, 14.63872
629.1294, 13.21816
629.6115, 12.22942
630.0936, 11.87656
630.5757, 11.96912
631.0579, 12.55743
631.5400, 13.50896
632.0221, 14.57186
632.5042, 15.62313
632.9863, 16.56890
633.4684, 17.20090
633.9506, 17.47708
634.4327, 17.81485
634.9148, 18.10534
635.3969, 18.42688
635.8790, 18.93774
636.3611, 19.60929
636.8433, 20.37092
637.3254, 21.24393
637.8075, 22.02196
638.2896, 22.35185
638.7717, 22.59450
639.2538, 23.58260
639.7360, 25.28228
640.2181, 26.60570
640.7002, 26.74538
641.1823, 26.07896
641.6644, 26.08637
642.1465, 27.34261
642.6287, 28.52875
643.1108, 29.65878
643.5929, 30.62685
644.0750, 31.47831
644.5571, 32.15646
645.0392, 32.51366
645.5214, 32.44843
646.0035, 32.07675
646.4856, 31.51685
646.9677, 30.77128
647.4498, 30.20884
647.9319, 30.05375
648.4141, 29.76036
648.8962, 28.86152
649.3783, 27.44444
649.8604, 25.87471
650.3425, 24.19391
650.8246, 22.33924
651.3068, 20.12155
651.7889, 17.80600
652.2710, 15.64807
652.7531, 13.73381
653.2352, 12.21528
653.7173, 11.27203
654.1995, 10.71934
654.6816, 9.770523
655.1637, 8.349930
655.6458, 6.724873
656.1279, 4.338009
656.6100, 2.267723
657.0922, 1.272800
657.5743, 1.156658
658.0564, 1.190880
658.5385, 1.184669
659.0206, 1.089615
659.5027, 0.7833370
659.9849, 0.3593330
660.4670, 0.1057660
660.9491, 8.5987002E-02
661.4312, 1.9470001E-02
661.9133, 0.5938000
662.3954, 1.563168
662.8776, 1.869160
663.3597, 0.6026310
663.8418, 0.1348570
664.3239, 8.9054003E-02
664.8060, 0.7445140
665.2881, 1.635239
665.7703, 2.572128
666.2524, 3.114185
666.7345, 2.827484
667.2166, 2.233955
667.6987, 2.434086
668.1808, 3.396542
668.6630, 4.021931
669.1451, 4.002224
669.6272, 3.712917
670.1093, 3.523624
670.5914, 3.398205
671.0735, 2.983391
671.5557, 1.821209
672.0378, 0.9232220
672.5199, 0.7213550
673.0020, 0.8912050
673.4841, 1.188725
673.9662, 1.505901
674.4484, 1.677784
674.9305, 1.569397
675.4126, 1.261135
675.8947, 1.009018
676.3768, 0.7911070
676.8589, 0.7527810
677.3411, 1.212147
677.8232, 1.529446
678.3053, 0.9310110
678.7874, 0.2694890
679.2695, 0.8975110
679.7516, 0.2536130
680.2338, 0.4785120
680.7159, 0.6090390
681.1980, 0.3752290
681.6801, 0.1449090
682.1622, 1.8673001E-02
682.6443, 0.2931860
683.1265, 0.8872530
683.6086, 1.632858
684.0907, 1.640343
684.5728, 0.3908460
685.0549, 0.4604910
685.5370, 0.4199330
686.0192, 0.1581310
686.5013, 0.1001240
686.9834, 0.1372110
687.4655, 0.1210940
687.9476, 0.9469680
688.4297, 1.883476
688.9119, 2.621975
689.3940, 3.146240
689.8761, 3.461151
690.3582, 3.561077
690.8403, 3.185894
691.3224, 1.970661
691.8046, 0.2484400
692.2867, 0.3863140
692.7688, 1.070522
693.2509, 2.017262
693.7330, 2.027298
694.2151, 1.828732
694.6973, 1.926537
695.1794, 2.166969
695.6615, 1.965588
696.1436, 0.8546180
696.6257, 2.1206001E-02
697.1078, 1.089607
697.5900, 3.515961
698.0721, 4.847546
698.5542, 4.698574
699.0363, 4.041969
699.5184, 3.324821
700.0005, 2.743752
700.4827, 3.033081
700.9648, 5.302837
701.4469, 6.619831
701.9290, 6.221985
702.4111, 5.544914
702.8932, 5.384113
703.3754, 5.620270
703.8575, 5.813450
704.3396, 5.770958
704.8217, 5.799522
705.3038, 6.538704
705.7859, 7.729137
706.2681, 7.974957
706.7502, 7.035957
707.2323, 6.059456
707.7144, 5.626762
708.1965, 5.603783
708.6786, 5.714375
709.1607, 6.016838
709.6428, 6.273479
710.1249, 6.391029
710.6071, 6.537144
711.0892, 6.750721
711.5713, 7.075813
712.0534, 7.663113
712.5355, 8.543411
713.0176, 9.336208
713.4998, 9.598064
713.9819, 9.397297
714.4640, 9.062893
714.9461, 8.575844
715.4282, 8.125046
715.9103, 7.827503
716.3925, 7.570492
716.8746, 7.033672
717.3567, 6.098480
717.8388, 5.905853
718.3209, 7.394398
718.8030, 8.725796
719.2852, 8.924805
719.7673, 8.478073
720.2494, 7.976658
720.7315, 7.634117
721.2136, 7.545998
721.6957, 7.800842
722.1779, 8.253719
722.6600, 8.337528
723.1421, 7.960743
723.6242, 7.837315
724.1063, 8.416557
724.5884, 9.032322
725.0706, 8.763550
725.5527, 7.656433
726.0348, 6.999622
726.5169, 7.273701
726.9990, 7.588196
727.4811, 7.607334
727.9633, 7.547752
728.4454, 7.630985
728.9275, 7.900444
729.4096, 8.401951
729.8917, 9.238728
730.3738, 9.931110
730.8560, 9.138515
731.3381, 6.783066
731.8202, 5.632172
732.3023, 6.519573
732.7844, 7.779583
733.2665, 8.309395
733.7487, 8.216946
734.2308, 7.982712
734.7129, 7.372658
735.1950, 7.001484
735.6771, 7.102238
736.1592, 7.476357
736.6414, 8.066666
737.1235, 8.738537
737.6056, 9.278900
738.0877, 9.600285
738.5698, 9.884556
739.0519, 10.42318
739.5341, 11.16779
740.0162, 11.66752
740.4983, 11.87189
740.9804, 12.03445
741.4625, 12.37187
741.9446, 12.60757
742.4268, 12.04105
742.9089, 10.37922
743.3910, 9.498028
743.8731, 10.03640
744.3552, 10.87027
744.8373, 11.77983
745.3195, 12.52041
745.8016, 12.54036
746.2837, 11.84942
746.7658, 11.52825
747.2479, 12.82904
747.7300, 15.06217
748.2122, 16.25948
748.6943, 16.40159
749.1764, 16.62065
749.6585, 17.27137
750.1406, 17.85777
750.6227, 17.87669
751.1049, 17.31033
751.5870, 17.14722
752.0691, 17.70581
752.5512, 18.17813
753.0333, 18.10345
753.5154, 18.12860
753.9976, 19.01594
754.4797, 20.47859
754.9618, 21.57977
755.4439, 21.74073
755.9260, 21.48195
756.4081, 21.53679
756.8903, 21.80632
757.3724, 21.90262
757.8545, 21.69351
758.3366, 21.44448
758.8187, 21.30473
759.3008, 21.21669
759.7830, 21.07672
760.2651, 20.75020
760.7472, 20.69681
761.2293, 21.16512
761.7114, 21.61604
762.1935, 21.99793
762.6757, 22.15376
763.1578, 21.78865
763.6399, 20.86109
764.1220, 19.94522
764.6041, 19.59275
765.0862, 19.41689
765.5684, 18.67575
766.0505, 17.52949
766.5326, 16.85319
767.0147, 16.94133
767.4968, 17.31028
767.9789, 17.48958
768.4611, 17.47655
768.9432, 17.02836
769.4253, 15.73857
769.9074, 14.74335
770.3895, 14.41564
770.8716, 14.24111
771.3538, 13.81175
771.8359, 13.25350
772.3180, 13.04674
772.8001, 13.62601
773.2822, 14.01469
773.7643, 13.34924
774.2465, 12.17560
774.7286, 11.20935
775.2107, 10.53477
775.6928, 10.10840
776.1749, 9.936806
776.6570, 9.791435
777.1392, 9.184391
777.6213, 8.026855
778.1034, 7.011543
778.5855, 6.058094
779.0676, 5.423771
779.5497, 5.441406
780.0319, 5.720123
780.5140, 5.734055
780.9961, 5.461418
781.4782, 5.263668
781.9603, 5.386028
782.4424, 5.477825
782.9246, 5.236835
783.4067, 4.877956
783.8888, 4.792423
784.3709, 5.007088
784.8530, 5.150932
785.3351, 4.913582
785.8173, 4.421066
786.2994, 3.947227
786.7815, 3.493385
787.2636, 3.304016
787.7457, 3.538956
788.2278, 3.632744
788.7100, 2.957890
789.1921, 1.845097
789.6742, 1.659798
790.1563, 3.281994
790.6384, 4.189564
791.1205, 3.493111
791.6026, 2.812473
792.0847, 3.385563
792.5668, 4.486626
793.0490, 4.757908
793.5311, 3.811893
794.0132, 2.634129
794.4953, 1.863361
794.9774, 1.473820
795.4595, 1.638802
795.9417, 2.223866
796.4238, 2.435612
796.9059, 2.000866
797.3880, 1.304752
797.8701, 0.6846470
798.3522, 0.1742250
798.8344, 0.4300990
799.3165, 2.168762
799.7986, 3.293808
800.2807, 3.048016
800.7628, 2.468090
801.2449, 2.069702
801.7271, 1.821461
802.2092, 1.578564
802.6913, 1.297958
803.1734, 1.044418
803.6555, 0.8519060
804.1376, 0.7056810
804.6198, 0.5108870
805.1019, 0.3495370
805.5840, 0.5280300
806.0661, 1.169926
806.5482, 1.858074
807.0303, 2.057789
807.5125, 1.797302
807.9946, 1.234482
808.4767, 0.2725450
808.9588, 0.4592170
809.4409, 0.7240980
809.9230, 0.7211910
810.4052, 0.6979450
810.8873, 0.6470870
811.3694, 0.2463870
811.8515, 0.9129410
812.3336, 1.859646
812.8157, 2.690128
813.2979, 2.996227
813.7800, 1.871960
814.2621, 3.1169999E-02
814.7442, 0.8974340
815.2263, 0.1949920
815.7084, 1.666145
816.1906, 1.995335
816.6727, 1.584351
817.1548, 1.082767
817.6369, 0.6052210
818.1190, 0.5704880
818.6011, 1.202942
819.0833, 1.964645
819.5654, 2.041721
820.0475, 1.401978
820.5296, 0.9864850
821.0117, 0.8557280
821.4938, 0.8225940
821.9760, 0.9672510
822.4581, 1.079708
822.9402, 0.9499860
823.4223, 0.6278950
823.9044, 0.3547330
824.3865, 0.2368430
824.8687, 8.3221003E-02
825.3508, 0.4351620
825.8329, 0.8307910
826.3150, 0.3774600
826.7971, 0.6139340
827.2792, 1.188469
827.7614, 0.9223250
828.2435, 0.3245700
828.7256, 0.1123010
829.2077, 0.3597680
829.6898, 0.2524030
830.1719, 0.2113840
830.6541, 0.7501340
831.1362, 1.287975
831.6183, 1.764221
832.1004, 2.135815
832.5825, 2.399418
833.0646, 2.360550
833.5468, 1.766312
834.0289, 1.261299
834.5110, 0.8406260
834.9931, 0.6045150
835.4752, 0.7462690
835.9573, 1.107098
836.4395, 1.311436
836.9216, 1.273857
837.4037, 1.041775
837.8858, 0.2132070
838.3679, 0.4699480
838.8500, 0.1333960
839.3322, 1.503189
839.8143, 2.198769
840.2964, 1.746685
840.7785, 0.8942720
841.2606, 0.3991620
841.7427, 0.1989480
842.2249, 1.6960001E-02
842.7070, 0.1577450
843.1891, 1.6581999E-02
843.6712, 0.7281720
844.1533, 1.464912
844.6354, 1.795464
845.1176, 1.782074
845.5997, 1.725197
846.0818, 1.610561
846.5639, 1.473766
847.0460, 1.273048
847.5281, 1.095474
848.0103, 0.8434300
848.4924, 0.7004430
848.9745, 1.089794
849.4566, 2.093033
849.9387, 2.749947
850.4208, 2.185169
850.9030, 1.404545
851.3851, 1.371449
851.8672, 1.788769
852.3493, 2.076145
852.8314, 2.130047
853.3135, 2.138126
853.7957, 2.211868
854.2778, 2.291561
854.7599, 2.355396
855.2420, 2.410320
855.7241, 2.068771
856.2062, 1.169167
856.6884, 0.4854470
857.1705, 0.4816510
857.6526, 0.8760800
858.1347, 1.182915
858.6168, 1.397652
859.0989, 1.539196
859.5811, 1.702156
860.0632, 1.674809
860.5453, 1.103569
861.0274, 0.5553050
861.5095, 0.5783200
861.9916, 1.103928
862.4738, 1.685303
862.9559, 2.282166
863.4380, 2.740559
863.9201, 2.753941
864.4022, 2.569431
864.8843, 2.421585
865.3665, 2.368385
865.8486, 2.552135
866.3307, 3.018135
866.8128, 3.387373
867.2949, 3.052456
867.7770, 2.303864
868.2592, 2.183901
868.7413, 2.709682
869.2234, 3.138138
869.7055, 3.241611
870.1876, 3.234245
870.6697, 3.206429
871.1519, 3.192646
871.6340, 3.416609
872.1161, 4.319935
872.5981, 4.609194
873.0803, 3.369858
873.5624, 2.582615
874.0445, 3.500572
874.5266, 5.093321
875.0087, 6.052547
875.4908, 6.242456
875.9730, 5.914795
876.4551, 4.549828
876.9372, 3.253357
877.4193, 2.689909
877.9014, 2.707151
878.3835, 3.346745
878.8657, 4.370483
879.3478, 4.985794
879.8299, 4.649481
880.3120, 3.982647
880.7941, 3.901939
881.2762, 4.197006
881.7584, 4.077583
882.2405, 3.532558
882.7226, 3.278189
883.2047, 3.644537
883.6868, 4.211121
884.1689, 4.411703
884.6511, 4.260607
885.1332, 4.580145
885.6153, 5.740240
886.0974, 6.325220
886.5795, 5.776480
887.0616, 4.930395
887.5438, 4.283188
888.0259, 3.858070
888.5080, 3.735996
888.9901, 4.130774
889.4722, 4.317949
889.9543, 4.058332
890.4365, 3.715532
890.9186, 3.295620
891.4007, 3.007151
891.8828, 3.310078
892.3649, 4.144135
892.8470, 4.579220
893.3292, 3.730797
893.8113, 2.716644
894.2934, 2.630999
894.7755, 3.117836
895.2576, 3.734642
895.7397, 4.319752
896.2219, 4.564386
896.7040, 4.335199
897.1861, 3.823584
897.6682, 3.280310
898.1503, 2.714924
898.6324, 2.068235
899.1146, 1.300043
899.5967, 1.251417
900.0788, 2.403690
900.5609, 3.519272
901.0430, 3.301773
901.5251, 2.011686
902.0073, 1.295015
902.4894, 1.345963
902.9715, 1.576859
903.4536, 2.393759
903.9357, 2.874838
904.4178, 2.303164
904.9000, 1.317934
905.3821, 0.7948990
905.8642, 0.8218860
906.3463, 0.9379430
906.8284, 0.9473740
907.3105, 1.126663
907.7927, 2.021309
908.2748, 2.847054
908.7569, 2.634794
909.2390, 1.578833
909.7211, 0.5361650
910.2032, 0.1505090
910.6854, 0.4897440
911.1675, 0.4335650
911.6496, 6.8552002E-02
912.1317, 0.7357850
912.6138, 1.728188
913.0959, 1.990297
913.5781, 1.293287
914.0602, 0.4634360
914.5423, 0.2620660
915.0244, 0.5232730
915.5065, 0.7409060
915.9886, 0.9140680
916.4708, 1.349634
916.9529, 2.210962
917.4350, 2.598892
917.9171, 1.846691
918.3992, 0.6641790
918.8813, 0.3696250
919.3635, 1.155659
919.8456, 1.299595
920.3277, 0.1446740
920.8098, 0.5720920
921.2919, 0.1199320
921.7740, 0.5642600
922.2562, 0.8285500
922.7383, 0.7998220
923.2204, 0.9349040
923.7025, 1.523960
924.1846, 1.660797
924.6667, 0.4654940
925.1489, 0.5521050
925.6310, 0.1227680
926.1131, 0.8603590
926.5952, 1.032749
927.0773, 0.2935750
927.5594, 0.2894330
928.0416, 3.8449999E-03
928.5237, 0.4619880
929.0058, 0.6322670
929.4879, 0.4910930
929.9700, 0.2940430
930.4521, 1.441284
930.9343, 1.815426
931.4164, 0.9676530
931.8985, 1.4177000E-02
932.3806, 0.3553890
932.8627, 1.520464
933.3448, 1.599905
933.8270, 0.6806160
934.3091, 0.3928720
934.7912, 1.464296
935.2733, 2.146969
935.7554, 2.100548
936.2375, 1.644958
936.7197, 1.609531
937.2018, 2.151575
937.6839, 2.152214
938.1660, 1.321871
938.6481, 0.6878220
939.1302, 0.6680280
939.6124, 0.8696880
940.0945, 0.8477000
940.5766, 1.103395
941.0587, 1.444500
941.5408, 1.578608
942.0229, 2.139751
942.5051, 2.334620
942.9872, 2.373838
943.4693, 2.051371
943.9514, 1.796618
944.4335, 2.473833
944.9156, 4.111626
945.3978, 4.956469
945.8799, 3.635841
946.3620, 2.327763
946.8441, 2.282806
947.3262, 2.697781
947.8083, 2.792257
948.2905, 2.597424
948.7726, 2.401901
949.2547, 2.309065
949.7368, 2.469872
950.2189, 3.204546
950.7010, 4.121563
951.1832, 4.687466
951.6653, 5.009418
952.1474, 5.335453
952.6295, 5.730373
953.1116, 6.262913
953.5938, 7.013975
954.0759, 7.684134
954.5580, 7.578423
955.0400, 6.912960
955.5222, 7.035423
956.0043, 7.960979
956.4864, 8.160931
956.9685, 7.021921
957.4506, 6.177572
957.9327, 7.359390
958.4149, 9.979862
958.8970, 11.51262
959.3791, 11.81002
959.8612, 11.67506
960.3433, 10.81720
960.8254, 10.46959
961.3076, 11.38171
961.7897, 12.87078
962.2718, 14.02747
962.7539, 14.84113
963.2360, 15.79986
963.7181, 17.18045
964.2003, 18.27451
964.6824, 18.35108
965.1645, 18.83283
965.6466, 21.01962
966.1287, 23.90226
966.6108, 25.46793
967.0930, 25.31768
967.5751, 26.29379
968.0572, 29.61831
968.5393, 33.35441
969.0214, 37.08345
969.5035, 40.66384
969.9857, 43.79936
970.4678, 46.66369
970.9499, 49.58770
971.4320, 52.59337
971.9141, 56.41319
972.3962, 61.95983
972.8784, 67.97227
973.3605, 72.72429
973.8426, 77.41866
974.3247, 83.88499
974.8068, 92.37446
975.2889, 102.2334
975.7711, 113.0287
976.2532, 125.0348
976.7353, 138.7039
977.2174, 153.7186
977.6995, 169.4321
978.1816, 186.1034
978.6638, 203.8684
979.1459, 223.1471
979.6280, 244.9986
980.1101, 269.7686
980.5922, 299.1569
981.0743, 334.5678
981.5565, 376.8186
982.0386, 429.6736
982.5207, 493.4763
983.0028, 575.1791
983.4849, 676.8400
983.9670, 803.4100
984.4492, 961.7780
984.9313, 1147.809
985.4134, 1351.457
985.8955, 1579.306
986.3776, 1778.831
986.8597, 1952.698
987.3419, 2070.765
987.8240, 2118.180
988.3061, 2101.753
988.7882, 2025.934
989.2703, 1891.301
989.7524, 1737.583
990.2346, 1553.669
990.7167, 1373.894
991.1988, 1196.265
991.6809, 1031.334
992.1630, 883.8724
992.6451, 753.2975
993.1273, 639.6247
993.6094, 543.4016
994.0915, 460.6046
994.5736, 393.6600
995.0557, 336.1693
995.5378, 289.4717
996.0200, 249.7095
996.5021, 215.4682
996.9842, 185.9906
997.4663, 160.5695
997.9484, 139.3415
998.4305, 121.0564
998.9127, 106.0919
999.3948, 93.41328
999.8769, 83.57342
1000.359, 75.17496
1000.841, 66.92593
1001.323, 59.07383
1001.805, 52.73272
1002.287, 48.36599
1002.770, 44.53224
1003.252, 40.63818
1003.734, 36.87023
1004.216, 32.98036
1004.698, 29.50093
1005.180, 27.41029
1005.662, 26.38580
1006.144, 24.95626
1006.627, 22.40116
1007.109, 19.92890
1007.591, 18.60148
1008.073, 17.84886
1008.555, 17.17803
1009.037, 16.50541
1009.519, 15.75510
1010.001, 14.90106
1010.483, 13.86493
1010.966, 12.57533
1011.448, 11.31701
1011.930, 10.36017
1012.412, 9.710554
1012.894, 9.542831
1013.376, 9.682512
1013.858, 9.583920
1014.340, 9.123863
1014.823, 8.465965
1015.305, 7.703100
1015.787, 6.924385
1016.269, 6.190969
1016.751, 5.570621
1017.233, 5.356821
1017.715, 5.535355
1018.197, 6.115992
1018.679, 7.073256
1019.162, 7.374084
1019.644, 6.057858
1020.126, 3.945761
1020.608, 2.872665
1021.090, 2.778891
1021.572, 2.845926
1022.054, 3.044422
1022.536, 3.294884
1023.018, 3.584385
1023.501, 3.809139
1023.983, 3.867466
1024.465, 3.808193
1024.947, 3.808029
1025.429, 3.887089
1025.911, 3.766806
1026.393, 3.408304
1026.875, 3.022257
1027.358, 2.718660
1027.840, 2.243813
1028.322, 1.224430
1028.804, 6.1666001E-02
1029.286, 0.3631270
1029.768, 0.6182420
1030.250, 1.397278
1030.732, 2.079399
1031.214, 2.112278
1031.697, 0.9837720
1032.179, 0.3190960
1032.661, 0.8063240
1033.143, 0.6137700
1033.625, 0.4221880
1034.107, 0.2323590
1034.589, 2.2064000E-02
1035.071, 0.3679920
1035.553, 0.4675100
1036.036, 0.1804070
1036.518, 0.8523250
1037.000, 0.7092950
1037.482, 7.5083002E-02
1037.964, 0.4774860
1038.446, 0.1659070
1038.928, 0.1279790
1039.410, 0.7993390
1039.893, 1.152540
1040.375, 0.6456640
1040.857, 0.1729930
1041.339, 0.9470290
1041.821, 1.608597
1042.303, 1.753738
1042.785, 1.128056
1043.267, 0.4708040
1043.750, 0.5132290
1044.232, 1.120752
1044.714, 0.8446940
1045.196, 0.2778000
1045.678, 9.6070003E-03
1046.160, 6.9468997E-02
1046.642, 0.2867160
1047.124, 1.014788
1047.606, 1.181377
1048.089, 8.5247003E-02
1048.571, 1.042177
1049.053, 0.8039970
1049.535, 7.7085003E-02
1050.017, 0.7035350
1050.499, 1.350328
1050.981, 1.307924
1051.463, 0.1168040
1051.945, 0.7562850
1052.428, 0.6512340
1052.910, 0.5925520
1053.392, 1.509481
1053.874, 2.331226
1054.356, 1.440916
1054.838, 0.5124320
1055.320, 0.9652710
1055.802, 1.163349
1056.285, 2.821419
1056.767, 2.635754
1057.249, 2.394827
1057.731, 2.882675
1058.213, 3.800747
1058.695, 5.115402
1059.177, 6.536871
1059.659, 7.278955
1060.141, 6.977419
1060.624, 6.879852
1061.106, 7.557604
1061.588, 8.379303
1062.070, 9.022163
1062.552, 9.656712
1063.034, 10.34268
1063.516, 11.19511
1063.998, 12.59767
1064.480, 14.78277
1064.963, 16.41776
1065.445, 16.53486
1065.927, 16.50880
1066.409, 16.80663
1066.891, 17.51239
1067.373, 19.03242
1067.855, 20.92165
1068.337, 22.21720
1068.820, 22.67655
1069.302, 22.78625
1069.784, 22.96445
1070.266, 22.58113
1070.748, 20.79564
1071.230, 18.74399
1071.712, 17.60791
1072.194, 16.98967
1072.677, 15.73475
1073.159, 13.61514
1073.641, 11.90046
1074.123, 11.03041
1074.605, 10.84556
1075.087, 11.81744
1075.569, 12.93076
1076.051, 13.24788
1076.533, 13.06620
1077.016, 13.12317
1077.498, 13.51704
1077.980, 13.57681
1078.462, 12.48355
1078.944, 11.77576
1079.426, 12.55843
1079.908, 13.67023
1080.390, 14.13016
1080.872, 14.28944
1081.354, 14.79313
1081.837, 15.72049
1082.319, 16.71675
1082.801, 17.37987
1083.283, 18.62306
1083.765, 21.19468
1084.247, 24.16159
1084.729, 27.31308
1085.211, 30.14144
1085.694, 32.34552
1086.176, 33.68116
1086.658, 33.33564
1087.140, 30.44579
1087.622, 27.60994
1088.104, 25.19672
1088.586, 23.86061
1089.068, 24.96114
1089.551, 26.69811
1090.033, 26.79173
1090.515, 25.54564
1090.997, 24.77236
1091.479, 24.93316
1091.961, 25.62172
1092.443, 27.22678
1092.925, 28.65988
1093.407, 29.37101
1093.890, 29.57466
1094.372, 28.93791
1094.854, 28.15252
1095.336, 28.93967
1095.818, 31.81976
1096.300, 33.97233
1096.782, 33.59002
1097.264, 33.52920
1097.746, 35.53305
1098.229, 37.71539
1098.711, 38.41150
1099.193, 38.18594
1099.675, 38.29137
1100.157, 38.93789
1100.639, 39.67143
1101.121, 40.11397
1101.603, 40.98055
1102.086, 42.86735
1102.568, 44.74847
1103.050, 46.00537
1103.532, 46.84285
1104.014, 47.57200
1104.496, 48.20701
1104.978, 48.60737
1105.460, 48.16946
1105.943, 48.65121
1106.425, 50.90218
1106.907, 53.25821
1107.389, 55.41538
1107.871, 56.95259
1108.353, 57.38535
1108.835, 56.88655
1109.317, 56.00855
1109.799, 53.79788
1110.281, 53.44020
1110.764, 57.52386
1111.246, 60.35020
1111.728, 58.83537
1112.210, 56.81163
1112.692, 57.53352
1113.174, 59.97920
1113.656, 61.59182
1114.138, 62.18401
1114.621, 62.49279
1115.103, 62.28693
1115.585, 62.17989
1116.067, 62.42381
1116.549, 62.58305
1117.031, 62.40548
1117.513, 61.99160
1117.995, 61.50161
1118.478, 60.93975
1118.960, 60.18470
1119.442, 58.99246
1119.924, 58.23005
1120.406, 58.25359
1120.888, 58.12992
1121.370, 57.45938
1121.852, 56.47618
1122.334, 55.42085
1122.817, 54.29171
1123.299, 52.89479
1123.781, 50.97848
1124.263, 49.91912
1124.745, 50.06684
1125.227, 50.07512
1125.709, 49.41226
1126.191, 48.30802
1126.673, 46.78300
1127.156, 45.15045
1127.638, 44.19621
1128.120, 42.79905
1128.602, 41.39530
1129.084, 40.56458
1129.566, 38.89739
1130.048, 38.08201
1130.530, 37.47882
1131.013, 36.72101
1131.495, 36.14766
1131.977, 36.28379
1132.459, 36.91315
1132.941, 37.18372
1133.423, 37.08632
1133.905, 36.25918
1134.387, 34.77098
1134.870, 33.10654
1135.352, 31.35891
1135.834, 29.91039
1136.316, 29.06548
1136.798, 28.71608
1137.280, 28.89986
1137.762, 29.34832
1138.244, 28.99433
1138.726, 28.00065
1139.208, 27.20121
1139.691, 26.65186
1140.173, 25.95735
1140.655, 24.80669
1141.137, 23.55699
1141.619, 22.57433
1142.101, 21.85255
1142.583, 21.72722
1143.065, 21.73310
1143.548, 20.54284
1144.030, 18.40720
1144.512, 16.84068
1144.994, 16.42082
1145.476, 16.54156
1145.958, 17.06555
1146.440, 17.44459
1146.922, 17.24189
1147.405, 16.48252
1147.887, 14.62333
1148.369, 12.44403
1148.851, 11.68301
1149.333, 12.43091
1149.815, 12.93097
1150.297, 12.31738
1150.779, 11.41336
1151.261, 10.54981
1151.744, 9.741446
1152.226, 8.780727
1152.708, 8.041676
1153.190, 8.388571
1153.672, 9.309093
1154.154, 8.984051
1154.636, 6.720036
1155.118, 5.267685
1155.600, 6.296604
1156.083, 7.085367
1156.565, 6.398680
1157.047, 5.452200
1157.529, 4.988604
1158.011, 4.899553
1158.493, 5.151604
1158.975, 5.714542
1159.457, 5.558212
1159.940, 3.455872
1160.422, 2.558916
1160.904, 4.026104
1161.386, 5.153534
1161.868, 4.846487
1162.350, 4.034369
1162.832, 3.426765
1163.314, 3.037548
1163.796, 2.978271
1164.279, 2.513079
1164.761, 2.152493
1165.243, 2.147097
1165.725, 1.522732
1166.207, 1.748596
1166.689, 2.076105
1167.171, 2.064415
1167.653, 1.733973
1168.135, 1.120718
1168.618, 0.3594760
1169.100, 0.1853200
1169.582, 0.5906010
1170.064, 0.9924090
1170.546, 1.339586
1171.028, 1.587749
1171.510, 1.721815
1171.992, 1.792192
1172.474, 1.849867
1172.957, 1.816507
1173.439, 1.424194
1173.921, 1.453331
1174.403, 1.350239
1174.885, 1.182539
1175.367, 1.295118
1175.849, 1.063328
1176.331, 0.8260350
1176.814, 0.7304400
1177.296, 0.6211570
1177.778, 0.3197800
1178.260, 1.2222000E-02
1178.742, 0.4042780
1179.224, 0.5495590
1179.706, 0.3233570
1180.188, 1.638863
1180.671, 2.264772
1181.153, 2.006111
1181.635, 1.135841
1182.117, 0.5927720
1182.599, 1.597258
1183.081, 0.1030850
1183.563, 1.288332
1184.045, 0.5323090
1184.527, 0.7552780
1185.010, 1.121010
1185.492, 0.6284120
1185.974, 0.5192410
1186.456, 2.376492
1186.938, 3.163509
1187.420, 1.815718
1187.902, 0.5613060
1188.384, 0.5151140
1188.866, 1.095535
1189.349, 0.8089260
1189.831, 0.1864240
1190.313, 0.4232940
1190.795, 0.8699460
1191.277, 0.4312950
1191.759, 1.363590
1192.241, 1.764469
1192.723, 0.2331010
1193.206, 0.7039600
1193.688, 0.3114950
1194.170, 0.2254200
1194.652, 1.607338
1195.134, 2.950857
1195.616, 1.876465
1196.098, 0.7933710
1196.580, 1.369537
1197.063, 8.1487998E-02
1197.545, 0.6841370
1198.027, 0.8054430
1198.509, 1.091105
1198.991, 1.740917
1199.473, 2.140131
1199.955, 1.844206
1200.437, 1.276043
1200.919, 0.9283660
1201.401, 0.7018970
1201.884, 0.4397750
1202.366, 0.1951790
1202.848, 6.9251999E-02
1203.330, 5.4148000E-02
1203.812, 8.7402001E-02
1204.294, 0.1516970
1204.776, 0.2897000
1205.258, 0.5878870
1205.741, 0.8431450
1206.223, 0.8947260
1206.705, 0.8848210
1207.187, 0.7803710
1207.669, 0.7842270
1208.151, 1.409622
1208.633, 2.321375
1209.115, 2.335863
1209.598, 0.9891200
1210.080, 0.3068430
1210.562, 1.065239
1211.044, 1.811121
1211.526, 2.449497
1212.008, 2.771677
1212.490, 2.507576
1212.972, 2.057493
1213.454, 1.885603
1213.937, 1.952997
1214.419, 2.020775
1214.901, 2.158453
1215.383, 2.047853
1215.865, 1.649096
1216.347, 1.145103
1216.829, 0.5112320
1217.311, 0.4817600
1217.793, 1.577097
1218.276, 2.758253
1218.758, 2.510668
1219.240, 1.477425
1219.722, 1.373211
1220.204, 1.951586
1220.686, 2.297674
1221.168, 2.377842
1221.650, 2.483908
1222.133, 2.619373
1222.615, 2.284449
1223.097, 1.139603
1223.579, 3.5590001E-03
1224.061, 0.5424400
1224.543, 0.5495450
1225.025, 0.1412300
1225.507, 1.179718
1225.990, 2.524305
1226.472, 3.734102
1226.954, 3.937908
1227.436, 3.106052
1227.918, 2.416733
1228.400, 2.222559
1228.882, 2.088591
1229.364, 1.846811
1229.846, 1.736702
1230.328, 2.179438
1230.811, 2.447094
1231.293, 1.803532
1231.775, 0.7337440
1232.257, 4.2900001E-03
1232.739, 0.3164480
1233.221, 0.3796270
1233.703, 2.489704
1234.185, 3.654501
1234.668, 3.777655
1235.150, 3.308443
1235.632, 2.550285
1236.114, 2.067902
1236.596, 2.342781
1237.078, 2.823412
1237.560, 2.905622
1238.042, 2.674049
1238.525, 1.957741
1239.007, 1.047186
1239.489, 1.039564
1239.971, 1.666782
1240.453, 2.099293
1240.935, 1.931629
1241.417, 1.886253
1241.899, 2.111782
1242.381, 2.162285
1242.864, 1.315702
1243.346, 0.5590650
1243.828, 0.8492360
1244.310, 1.568092
1244.792, 2.266077
1245.274, 2.726109
1245.756, 2.367920
1246.238, 1.131250
1246.720, 0.9396150
1247.203, 3.847931
1247.685, 4.910112
1248.167, 2.269939
1248.649, 6.1197001E-02
1249.131, 0.4935110
1249.613, 0.1338670
1250.095, 0.8792080
1250.577, 2.006168
1251.059, 2.104733
1251.542, 1.291395
1252.024, 0.9235630
1252.506, 0.9993310
1252.988, 1.594467
1253.470, 2.674232
1253.952, 3.604460
1254.434, 4.123003
1254.916, 3.966904
1255.399, 3.362244
1255.881, 2.623199
1256.363, 2.429951
1256.845, 2.335419
1257.327, 1.459293
1257.809, 0.4088570
1258.291, 0.1008930
1258.773, 0.3518410
1259.255, 0.8431950
1259.738, 1.619993
1260.220, 2.060131
1260.702, 1.872969
1261.184, 1.670273
1261.666, 1.597994
1262.148, 1.618460
1262.630, 1.695162
1263.112, 1.886471
1263.594, 2.554901
1264.077, 3.096725
1264.559, 2.393612
1265.041, 0.6979600
1265.523, 0.2042560
1266.005, 1.145346
1266.487, 2.042923
1266.969, 2.870255
1267.451, 2.580378
1267.934, 1.385622
1268.416, 0.7049500
1268.898, 1.507389
1269.380, 2.484896
1269.862, 2.001348
1270.344, 0.8334390
1270.826, 4.4459999E-02
1271.308, 0.2139740
1271.791, 0.6712570
1272.273, 2.200487
1272.755, 3.176992
1273.237, 3.371134
1273.719, 2.819899
1274.201, 1.460508
1274.683, 0.6510350
1275.165, 1.772783
1275.647, 2.394369
1276.130, 0.9027190
1276.612, 0.3692610
1277.094, 0.2063960
1277.576, 1.471302
1278.058, 2.308254
1278.540, 2.593210
1279.022, 2.405878
1279.504, 1.471399
1279.986, 1.444506
1280.469, 2.517769
1280.951, 2.767271
1281.433, 2.758774
1281.915, 2.417286
1282.397, 1.766472
1282.879, 1.135376
1283.361, 0.9320390
1283.843, 0.8153530
1284.326, 0.4887350
1284.808, 0.0000000E+00
##END=



