##NAMES=Kaliborite
##RRUFFID=R060352
##IDEAL CHEMISTRY=HKMg_2_B_12_O_16_(OH)_10_&#183;4H_2_O
##LOCALITY=Inder Boron deposit, Atyrau (Gur'yev), Atyrau Oblast', Kazakhstan
##OWNER=RRUFF
##SOURCE=Herb Obodda
##DESCRIPTION=Colorless fragment
##STATUS=The identification of this mineral has been confirmed by X-ray diffraction and chemical analysis
##URL=rruff.info/R060352
##MEASURED CHEMISTRY=K_1.00_H_1.00_Mg_2.00_B_12.00_O_16_(OH)_10_Â·4H_2_O ; H and B not measured but estimated by stoichiometry
132.9952, 0.0000000E+00
133.4774, 4.6509001E-02
133.9595, 8.0017000E-02
134.4416, 0.9789730
134.9237, 2.556702
135.4058, 4.394592
135.8879, 7.369812
136.3701, 11.52603
136.8522, 16.82999
137.3343, 23.45212
137.8164, 31.45712
138.2985, 40.45105
138.7806, 49.85608
139.2628, 59.50256
139.7449, 69.98114
140.2270, 82.06906
140.7091, 94.55304
141.1912, 106.8672
141.6733, 118.6856
142.1555, 129.4339
142.6376, 136.9840
143.1197, 141.2441
143.6018, 141.6525
144.0839, 137.3979
144.5660, 129.2996
145.0482, 118.2231
145.5303, 104.3684
146.0124, 88.20679
146.4945, 73.02026
146.9766, 58.19235
147.4587, 44.70197
147.9409, 32.66211
148.4230, 22.19409
148.9051, 13.85657
149.3872, 8.341858
149.8693, 5.608673
150.3514, 3.325409
150.8336, 1.385895
151.3157, 6.6071004E-02
151.7978, 0.9261780
152.2799, 1.195984
152.7620, 0.8749390
153.2441, 0.2831120
153.7263, 2.028809
154.2084, 4.078644
154.6905, 6.257019
155.1726, 8.676514
155.6547, 11.60046
156.1368, 15.03592
156.6190, 19.01935
157.1011, 23.62714
157.5832, 28.69888
158.0653, 34.02130
158.5474, 39.70996
159.0295, 45.68982
159.5117, 50.82172
159.9938, 54.55682
160.4759, 57.87808
160.9580, 61.44324
161.4401, 64.95135
161.9222, 67.61316
162.4044, 68.72940
162.8865, 68.21542
163.3686, 66.52213
163.8507, 63.61505
164.3328, 59.67502
164.8149, 54.57407
165.2971, 48.38391
165.7792, 41.44705
166.2613, 33.91898
166.7434, 25.05859
167.2255, 18.09961
167.7076, 13.43762
168.1898, 10.04681
168.6719, 7.354340
169.1540, 5.193329
169.6361, 3.631042
170.1182, 2.811920
170.6003, 3.033691
171.0825, 3.356781
171.5646, 3.430084
172.0467, 3.709656
172.5288, 4.881561
173.0109, 7.219482
173.4930, 10.00198
173.9752, 11.97684
174.4573, 13.04535
174.9394, 14.29440
175.4215, 16.18689
175.9036, 18.49164
176.3857, 20.63501
176.8679, 22.35474
177.3500, 24.05322
177.8321, 26.19974
178.3142, 28.78528
178.7963, 31.70233
179.2784, 35.11514
179.7606, 38.95486
180.2427, 42.40793
180.7248, 44.82773
181.2069, 47.16644
181.6890, 50.38086
182.1711, 54.58701
182.6533, 58.82809
183.1354, 62.64169
183.6175, 66.02057
184.0996, 68.47000
184.5817, 68.67029
185.0638, 68.35773
185.5460, 69.09033
186.0281, 71.09836
186.5102, 73.09412
186.9923, 73.37177
187.4744, 71.38144
187.9565, 68.97769
188.4387, 66.41757
188.9208, 63.73645
189.4029, 60.76175
189.8850, 57.45605
190.3671, 54.18481
190.8492, 51.52377
191.3314, 50.10931
191.8135, 48.65320
192.2956, 46.96811
192.7777, 45.25522
193.2598, 43.64185
193.7419, 42.19019
194.2241, 40.95197
194.7062, 40.05829
195.1883, 40.10754
195.6704, 39.80930
196.1525, 39.22766
196.6346, 38.25671
197.1168, 36.64294
197.5989, 34.25067
198.0810, 31.41125
198.5631, 29.10681
199.0452, 28.43750
199.5273, 26.83524
200.0095, 22.91882
200.4916, 17.93753
200.9737, 13.99777
201.4558, 12.12976
201.9379, 11.64871
202.4200, 10.51166
202.9022, 8.267456
203.3843, 6.300507
203.8664, 4.931091
204.3485, 4.187561
204.8306, 4.327667
205.3127, 5.843597
205.7949, 7.896210
206.2770, 8.498108
206.7591, 6.814728
207.2412, 5.586456
207.7233, 6.844910
208.2054, 10.19696
208.6876, 13.18262
209.1697, 14.68295
209.6518, 15.35474
210.1339, 16.45084
210.6160, 18.35547
211.0981, 19.72003
211.5803, 19.01804
212.0624, 16.24622
212.5445, 13.83649
213.0266, 13.14905
213.5087, 12.92746
213.9908, 11.87866
214.4730, 9.698578
214.9551, 7.397308
215.4372, 6.332062
215.9193, 6.777008
216.4014, 6.718933
216.8836, 4.428162
217.3657, 2.072266
217.8478, 1.238983
218.3299, 2.330658
218.8120, 4.310089
219.2941, 5.898468
219.7763, 7.109955
220.2584, 7.844238
220.7405, 7.212769
221.2226, 6.656647
221.7047, 7.308807
222.1868, 9.448273
222.6690, 12.31976
223.1511, 14.81888
223.6332, 17.02667
224.1153, 18.62567
224.5974, 19.34695
225.0795, 19.71649
225.5617, 20.03528
226.0438, 20.41083
226.5259, 20.85419
227.0080, 21.42926
227.4901, 22.43030
227.9722, 22.99152
228.4544, 23.46036
228.9365, 23.34570
229.4186, 22.14343
229.9007, 19.76276
230.3828, 16.61880
230.8649, 13.42331
231.3471, 9.944824
231.8292, 6.788330
232.3113, 3.609589
232.7934, 0.9126890
233.2755, 0.7078250
233.7576, 1.137726
234.2398, 1.012054
234.7219, 1.383301
235.2040, 2.875153
235.6861, 3.731934
236.1682, 3.498962
236.6503, 2.896271
237.1325, 2.591309
237.6146, 2.754456
238.0967, 3.068756
238.5788, 3.060974
239.0609, 2.575348
239.5430, 2.085083
240.0252, 1.634338
240.5073, 1.151917
240.9894, 0.6150820
241.4715, 5.8777001E-02
241.9536, 0.5960080
242.4357, 1.449951
242.9179, 2.460205
243.4000, 3.948761
243.8821, 6.100433
244.3642, 8.681549
244.8463, 11.51889
245.3284, 14.60040
245.8106, 17.71808
246.2927, 20.63333
246.7748, 23.34796
247.2569, 26.00900
247.7390, 28.21811
248.2211, 30.57437
248.7033, 34.00360
249.1854, 38.75449
249.6675, 43.75302
250.1496, 47.96210
250.6317, 51.50433
251.1138, 54.85577
251.5960, 57.84277
252.0781, 60.79926
252.5602, 64.43762
253.0423, 68.97775
253.5244, 73.19165
254.0065, 75.50055
254.4887, 76.53012
254.9708, 77.96680
255.4529, 80.52216
255.9350, 83.62631
256.4171, 86.39206
256.8992, 88.68079
257.3813, 91.04376
257.8635, 93.95639
258.3456, 97.23212
258.8277, 100.6646
259.3098, 104.4999
259.7919, 108.2927
260.2740, 111.6036
260.7562, 114.5634
261.2383, 116.3757
261.7204, 116.2835
262.2025, 114.7553
262.6846, 112.0673
263.1667, 107.9529
263.6489, 103.1411
264.1310, 98.85626
264.6131, 95.48782
265.0952, 91.12494
265.5773, 83.97162
266.0594, 75.81705
266.5416, 68.09692
267.0237, 61.09125
267.5058, 54.76920
267.9879, 48.91379
268.4700, 43.42200
268.9521, 39.01193
269.4343, 37.06189
269.9164, 35.70514
270.3985, 33.28656
270.8806, 29.29752
271.3627, 25.37433
271.8448, 23.92679
272.3270, 25.56244
272.8091, 26.44888
273.2912, 24.64233
273.7733, 22.44225
274.2554, 21.26942
274.7375, 21.35211
275.2197, 21.92853
275.7018, 22.20122
276.1839, 22.13033
276.6660, 21.99084
277.1481, 21.90479
277.6302, 21.68866
278.1124, 21.34947
278.5945, 20.83617
279.0766, 19.94505
279.5587, 18.16154
280.0408, 15.27786
280.5229, 13.35388
281.0051, 13.40845
281.4872, 13.71303
281.9693, 13.57011
282.4514, 13.03113
282.9335, 12.50391
283.4156, 12.40529
283.8978, 12.75058
284.3799, 12.79305
284.8620, 12.12900
285.3441, 11.55424
285.8262, 11.31549
286.3083, 11.37717
286.7905, 11.60580
287.2726, 11.87682
287.7547, 12.22104
288.2368, 12.99020
288.7189, 14.89378
289.2010, 16.36546
289.6832, 16.78525
290.1653, 16.55515
290.6474, 16.23749
291.1295, 16.14059
291.6116, 16.23651
292.0938, 16.18375
292.5759, 15.96552
293.0580, 15.44768
293.5401, 14.66989
294.0222, 13.71719
294.5043, 12.54927
294.9865, 11.10460
295.4686, 9.575668
295.9507, 8.591858
296.4328, 8.938736
296.9149, 8.471985
297.3970, 5.957108
297.8792, 3.182556
298.3613, 1.786194
298.8434, 2.235092
299.3255, 3.695923
299.8076, 4.910355
300.2897, 6.077759
300.7719, 6.470367
301.2540, 5.333954
301.7361, 4.041336
302.2182, 3.412537
302.7003, 3.605515
303.1824, 4.300690
303.6646, 5.205994
304.1467, 6.459366
304.6288, 7.401428
305.1109, 8.005051
305.5930, 8.350037
306.0751, 8.543457
306.5573, 8.525299
307.0394, 8.050674
307.5215, 6.729553
308.0036, 4.430771
308.4857, 3.119720
308.9678, 3.853485
309.4500, 4.575348
309.9321, 4.823288
310.4142, 4.602264
310.8963, 4.023529
311.3784, 3.117920
311.8605, 1.938873
312.3427, 0.9236600
312.8248, 5.6503002E-02
313.3069, 0.6910250
313.7890, 0.7374270
314.2711, 0.4716030
314.7532, 0.1981960
315.2354, 5.7953000E-02
315.7175, 8.1848003E-02
316.1996, 0.3752290
316.6817, 1.117249
317.1638, 1.866333
317.6459, 2.834137
318.1281, 3.651154
318.6102, 3.926163
319.0923, 3.553726
319.5744, 2.810364
320.0565, 2.137299
320.5386, 1.571121
321.0208, 0.9945220
321.5029, 0.1080780
321.9850, 0.5703890
322.4671, 0.5396730
322.9492, 0.1522060
323.4313, 0.9061580
323.9135, 1.002243
324.3956, 0.2404020
324.8777, 0.1568150
325.3598, 0.1575930
325.8419, 0.5169220
326.3240, 0.7310330
326.8062, 0.7781370
327.2883, 0.6822660
327.7704, 0.4304960
328.2525, 3.7140001E-02
328.7346, 0.2272950
329.2167, 0.1123350
329.6989, 0.1612240
330.1810, 0.7068020
330.6631, 1.454987
331.1452, 1.970367
331.6273, 2.013718
332.1094, 1.695770
332.5916, 1.285492
333.0737, 0.3598630
333.5558, 0.1270290
334.0379, 1.443588
334.5200, 3.099289
335.0021, 3.819168
335.4843, 3.215912
335.9664, 2.130539
336.4485, 1.894531
336.9306, 2.689758
337.4127, 3.811264
337.8948, 5.971909
338.3770, 7.835358
338.8591, 8.235352
339.3412, 7.283401
339.8233, 6.325516
340.3055, 6.932983
340.7876, 9.323715
341.2697, 11.04335
341.7518, 11.64418
342.2339, 11.93915
342.7160, 11.89156
343.1982, 11.77522
343.6803, 12.19035
344.1624, 13.75409
344.6445, 16.14221
345.1266, 17.63525
345.6087, 17.51379
346.0909, 17.66081
346.5730, 18.76833
347.0551, 20.43182
347.5372, 22.20428
348.0193, 23.96999
348.5014, 25.59726
348.9836, 26.80348
349.4657, 27.43884
349.9478, 28.14047
350.4299, 29.33923
350.9120, 30.50604
351.3941, 31.15410
351.8763, 31.20404
352.3584, 31.15202
352.8405, 31.41350
353.3226, 31.98657
353.8047, 32.95833
354.2868, 34.42462
354.7690, 36.25304
355.2511, 38.66986
355.7332, 41.44873
356.2153, 43.72289
356.6974, 44.74796
357.1795, 44.83121
357.6617, 45.07240
358.1438, 45.38567
358.6259, 46.05966
359.1080, 47.73354
359.5901, 49.76286
360.0722, 51.09517
360.5544, 51.20093
361.0365, 50.63396
361.5186, 49.92920
362.0007, 48.99345
362.4828, 48.72217
362.9649, 50.41240
363.4471, 52.41849
363.9292, 52.71051
364.4113, 50.78314
364.8934, 48.49008
365.3755, 47.30798
365.8576, 47.03076
366.3398, 46.57045
366.8219, 45.78790
367.3040, 44.57971
367.7861, 42.61652
368.2682, 39.98866
368.7503, 37.69679
369.2325, 36.38953
369.7146, 35.58275
370.1967, 34.30588
370.6788, 32.32861
371.1609, 30.61163
371.6430, 30.32007
372.1252, 30.97635
372.6073, 30.91255
373.0894, 29.21362
373.5715, 27.25667
374.0536, 26.29626
374.5357, 26.11993
375.0179, 25.58524
375.5000, 24.10538
375.9821, 21.93843
376.4642, 19.67618
376.9463, 17.23946
377.4284, 15.06607
377.9106, 13.30931
378.3927, 11.91107
378.8748, 10.79161
379.3569, 9.951813
379.8390, 9.353073
380.3211, 8.898621
380.8033, 8.502335
381.2854, 8.712006
381.7675, 10.22185
382.2496, 12.00865
382.7317, 12.96501
383.2138, 13.14227
383.6960, 13.67889
384.1781, 15.55461
384.6602, 18.65033
385.1423, 21.13245
385.6244, 22.53676
386.1065, 23.99138
386.5887, 25.74463
387.0708, 27.78755
387.5529, 30.09343
388.0350, 32.65572
388.5171, 35.47810
388.9992, 38.58977
389.4814, 42.39098
389.9635, 45.85393
390.4456, 48.68520
390.9277, 51.37878
391.4098, 54.51512
391.8919, 58.06529
392.3741, 61.42085
392.8562, 63.94890
393.3383, 65.61014
393.8204, 66.77847
394.3025, 67.39011
394.7846, 67.62186
395.2668, 67.49347
395.7489, 67.03058
396.2310, 66.18393
396.7131, 64.87915
397.1952, 63.32954
397.6773, 62.25717
398.1595, 61.71100
398.6416, 61.61722
399.1237, 62.02377
399.6058, 62.77203
400.0879, 63.57878
400.5700, 64.43567
401.0522, 65.80768
401.5343, 68.29559
402.0164, 71.96899
402.4985, 76.31856
402.9806, 81.59079
403.4627, 87.35779
403.9449, 93.53876
404.4270, 100.0669
404.9091, 106.7624
405.3912, 113.2684
405.8733, 119.9969
406.3554, 128.2459
406.8376, 138.4442
407.3197, 149.2792
407.8018, 160.4940
408.2839, 171.9313
408.7660, 183.4421
409.2481, 195.1591
409.7303, 206.6077
410.2124, 217.9794
410.6945, 229.1220
411.1766, 237.9693
411.6587, 243.7980
412.1408, 247.4523
412.6230, 250.3799
413.1051, 252.4087
413.5872, 251.7855
414.0693, 247.1694
414.5514, 239.6771
415.0335, 230.6612
415.5157, 220.0787
415.9978, 209.2759
416.4799, 199.2816
416.9620, 189.6680
417.4441, 179.1662
417.9262, 167.0976
418.4084, 154.9540
418.8905, 143.0253
419.3726, 131.6796
419.8547, 122.1531
420.3368, 115.0696
420.8189, 109.2699
421.3011, 102.8822
421.7832, 95.53934
422.2653, 89.22818
422.7474, 84.42981
423.2295, 80.57535
423.7116, 77.45946
424.1938, 74.91397
424.6759, 72.22394
425.1580, 68.63184
425.6401, 64.27814
426.1222, 61.73289
426.6043, 62.59386
427.0865, 63.10641
427.5686, 61.96432
428.0507, 60.02910
428.5328, 58.48148
429.0149, 57.77711
429.4970, 57.68309
429.9792, 57.79253
430.4613, 58.07135
430.9434, 58.66043
431.4255, 60.15759
431.9076, 61.41422
432.3897, 61.85896
432.8719, 61.46495
433.3540, 60.42331
433.8361, 58.83009
434.3182, 56.76994
434.8003, 54.69279
435.2824, 52.71510
435.7646, 50.45694
436.2467, 47.78021
436.7288, 44.87250
437.2109, 41.76799
437.6930, 38.46767
438.1751, 35.52267
438.6573, 33.82155
439.1394, 33.43484
439.6215, 32.60092
440.1036, 31.01932
440.5857, 29.10764
441.0678, 27.03468
441.5500, 24.81651
442.0321, 22.57393
442.5142, 20.06422
442.9963, 17.70343
443.4784, 16.43625
443.9605, 16.44438
444.4427, 16.35437
444.9248, 15.36827
445.4069, 13.81747
445.8890, 12.33975
446.3711, 10.93733
446.8532, 9.921051
447.3354, 9.736237
447.8175, 9.875641
448.2996, 9.332840
448.7817, 7.883713
449.2638, 6.259918
449.7459, 5.159439
450.2281, 4.583069
450.7102, 4.198090
451.1923, 4.033615
451.6744, 4.064148
452.1565, 4.579651
452.6386, 5.316299
453.1208, 5.400833
453.6029, 4.313675
454.0850, 2.679184
454.5671, 2.025009
455.0492, 3.303772
455.5313, 4.135971
456.0135, 4.398056
456.4956, 4.297546
456.9777, 3.808243
457.4598, 2.983917
457.9419, 2.306229
458.4240, 2.262070
458.9062, 2.871216
459.3883, 3.205795
459.8704, 2.986465
460.3525, 2.774094
460.8346, 2.704407
461.3167, 2.676193
461.7989, 2.483826
462.2810, 2.043335
462.7631, 1.699219
463.2452, 2.249817
463.7273, 4.011948
464.2094, 4.740372
464.6916, 3.023636
465.1737, 1.253922
465.6558, 0.9943700
466.1379, 1.931793
466.6200, 2.729843
467.1021, 2.446548
467.5843, 1.648773
468.0664, 1.499557
468.5485, 2.069214
469.0306, 2.814194
469.5127, 3.735687
469.9948, 4.532730
470.4770, 4.713699
470.9591, 4.128723
471.4412, 3.438187
471.9233, 2.635468
472.4054, 2.031754
472.8875, 2.343185
473.3697, 3.733902
473.8518, 5.479813
474.3339, 7.085510
474.8160, 8.505035
475.2981, 9.284103
475.7802, 9.271912
476.2624, 8.827423
476.7445, 7.703705
477.2266, 6.281525
477.7087, 5.276413
478.1908, 4.965271
478.6729, 5.000946
479.1551, 4.739563
479.6372, 3.883347
480.1193, 3.443451
480.6014, 3.862015
481.0835, 4.234589
481.5656, 3.915024
482.0478, 3.112793
482.5299, 2.483429
483.0120, 2.517212
483.4941, 2.983551
483.9762, 2.961670
484.4583, 2.144257
484.9405, 1.466904
485.4226, 1.188934
485.9047, 1.056595
486.3868, 0.9118960
486.8689, 0.7259670
487.3510, 0.5099490
487.8332, 0.2591400
488.3153, 1.2589000E-02
488.7974, 0.2668760
489.2795, 0.5024720
489.7616, 0.6847840
490.2437, 0.7207180
490.7259, 0.7087250
491.2080, 0.8327480
491.6901, 1.227859
492.1722, 1.558640
492.6543, 1.495941
493.1364, 1.170761
493.6186, 0.9625240
494.1007, 0.9755710
494.5828, 1.103180
495.0649, 1.290710
495.5470, 1.557159
496.0291, 1.518188
496.5113, 0.7133480
496.9934, 1.5121000E-02
497.4755, 7.2586000E-02
497.9576, 0.6448820
498.4397, 1.104294
498.9218, 1.143814
499.4040, 0.9327390
499.8861, 0.8359830
500.3682, 0.8535460
500.8503, 0.9989930
501.3324, 1.579346
501.8145, 2.015518
502.2967, 1.732239
502.7788, 0.9501500
503.2609, 0.4640960
503.7430, 0.9258880
504.2251, 1.991608
504.7072, 2.223907
505.1894, 1.122208
505.6715, 0.3391720
506.1536, 0.6863710
506.6357, 1.252274
507.1178, 1.304321
507.5999, 0.7627260
508.0821, 0.1051790
508.5642, 0.3854980
509.0463, 0.7198790
509.5284, 0.9635770
510.0105, 1.157990
510.4926, 1.056564
510.9748, 7.1381003E-02
511.4569, 1.191772
511.9390, 1.230865
512.4211, 0.9232790
512.9032, 2.670059
513.3853, 2.168640
513.8674, 0.5584720
514.3495, 6.4041004E-02
514.8317, 0.7609860
515.3138, 1.840286
515.7959, 1.931656
516.2780, 0.9449010
516.7601, 0.2825470
517.2422, 3.9687999E-02
517.7244, 0.1180730
518.2065, 0.1343690
518.6886, 0.5705410
519.1707, 1.033554
519.6528, 1.457581
520.1349, 1.789078
520.6171, 1.913712
521.0992, 1.759430
521.5813, 1.697983
522.0634, 1.759323
522.5455, 1.895126
523.0276, 2.118591
523.5098, 2.401215
523.9919, 2.735641
524.4740, 3.178284
524.9561, 3.502701
525.4382, 3.158005
525.9203, 2.124741
526.4025, 1.744354
526.8846, 2.705643
527.3667, 3.915009
527.8488, 4.219101
528.3309, 3.764404
528.8130, 3.491318
529.2952, 3.929428
529.7773, 4.468933
530.2594, 4.520493
530.7415, 4.156128
531.2236, 3.792999
531.7057, 3.648895
532.1879, 3.497513
532.6700, 2.829300
533.1521, 1.023987
533.6342, 0.1686550
534.1163, 1.072296
534.5984, 2.282318
535.0806, 3.018082
535.5627, 3.230896
536.0448, 3.035339
536.5269, 2.461334
537.0090, 1.701385
537.4911, 1.408066
537.9733, 1.959869
538.4554, 2.130615
538.9375, 1.139130
539.4196, 0.2647550
539.9017, 0.5063930
540.3839, 1.683014
540.8660, 2.737076
541.3481, 2.911545
541.8302, 2.552094
542.3123, 2.489731
542.7944, 2.789276
543.2766, 2.807999
543.7587, 2.129837
544.2408, 1.173355
544.7229, 0.5124050
545.2050, 0.1483610
545.6871, 8.4380005E-03
546.1693, 0.2511140
546.6514, 0.5860750
547.1335, 0.6263890
547.6156, 0.4070740
548.0977, 0.3196720
548.5798, 0.6103520
549.0620, 1.177353
549.5441, 1.687378
550.0262, 2.401474
550.5083, 2.715317
550.9904, 2.398407
551.4725, 1.870850
551.9547, 1.249481
552.4368, 0.6723790
552.9189, 0.4472500
553.4010, 0.8587950
553.8831, 1.754257
554.3652, 2.567978
554.8474, 3.477905
555.3295, 3.776215
555.8116, 2.338806
556.2937, 0.8414610
556.7758, 0.7790070
557.2579, 2.137283
557.7401, 3.307175
558.2222, 3.131317
558.7043, 2.234390
559.1864, 1.599976
559.6685, 1.267944
560.1506, 1.238007
560.6328, 1.567230
561.1149, 2.151901
561.5970, 2.800446
562.0791, 3.536804
562.5612, 4.125076
563.0433, 4.641327
563.5255, 5.016006
564.0076, 4.868790
564.4897, 4.394150
564.9718, 4.491653
565.4539, 5.848999
565.9360, 7.913116
566.4182, 8.692368
566.9003, 7.186813
567.3824, 6.227493
567.8645, 6.047089
568.3466, 6.365234
568.8287, 7.213409
569.3109, 8.365173
569.7930, 9.414886
570.2751, 10.22527
570.7572, 10.71910
571.2393, 10.83437
571.7214, 10.51582
572.2036, 10.28972
572.6857, 10.31779
573.1678, 10.64366
573.6499, 11.50400
574.1320, 12.87328
574.6141, 13.87675
575.0963, 13.91095
575.5784, 13.78963
576.0605, 14.26520
576.5426, 15.22224
577.0247, 16.22453
577.5068, 17.09595
577.9890, 17.72182
578.4711, 17.82581
578.9532, 16.95903
579.4353, 16.72899
579.9174, 17.81488
580.3995, 18.78027
580.8817, 18.62520
581.3638, 17.88721
581.8459, 17.67844
582.3280, 18.54558
582.8101, 19.97459
583.2922, 21.27664
583.7744, 22.46771
584.2565, 23.14445
584.7386, 22.86098
585.2207, 22.62540
585.7029, 23.16458
586.1850, 24.29359
586.6671, 25.59825
587.1492, 27.21152
587.6313, 28.66676
588.1135, 29.46968
588.5956, 29.87289
589.0777, 30.57056
589.5598, 31.74951
590.0419, 32.80284
590.5240, 33.03813
591.0062, 32.40729
591.4883, 31.91963
591.9704, 31.86499
592.4525, 31.66431
592.9346, 30.99234
593.4167, 30.19067
593.8989, 29.66931
594.3810, 29.50838
594.8631, 29.45053
595.3452, 29.27510
595.8273, 28.98392
596.3094, 28.55678
596.7916, 28.03214
597.2737, 27.25743
597.7558, 25.96960
598.2379, 24.52058
598.7200, 23.23976
599.2021, 22.15709
599.6843, 21.26570
600.1664, 20.48380
600.6485, 19.92297
601.1306, 19.87381
601.6127, 20.29254
602.0948, 20.65717
602.5770, 20.68558
603.0591, 20.42155
603.5412, 20.00909
604.0233, 19.53189
604.5054, 18.78159
604.9875, 17.34264
605.4697, 15.98639
605.9518, 15.32471
606.4339, 15.16888
606.9160, 14.96278
607.3981, 14.40022
607.8802, 13.59631
608.3624, 12.72606
608.8445, 11.76636
609.3266, 10.92435
609.8087, 10.07542
610.2908, 9.573868
610.7729, 10.00945
611.2551, 11.00519
611.7372, 11.40083
612.2193, 10.53003
612.7014, 9.440109
613.1835, 8.728699
613.6656, 8.373260
614.1478, 8.422409
614.6299, 8.883148
615.1120, 9.427368
615.5941, 9.775131
616.0762, 9.925858
616.5583, 9.603958
617.0405, 7.828125
617.5226, 6.808762
618.0047, 7.481018
618.4868, 8.719391
618.9689, 9.454422
619.4510, 9.521576
619.9332, 9.405045
620.4153, 9.561142
620.8974, 9.849121
621.3795, 9.689377
621.8616, 8.984879
622.3438, 8.344025
622.8259, 7.888000
623.3080, 7.709061
623.7901, 8.034348
624.2722, 8.903946
624.7543, 9.504791
625.2365, 9.629974
625.7186, 9.397995
626.2007, 8.592346
626.6828, 7.504013
627.1649, 7.004852
627.6470, 7.471664
628.1292, 8.237991
628.6113, 8.205261
629.0934, 7.160934
629.5755, 6.191406
630.0576, 5.035110
630.5397, 4.250061
631.0219, 4.272369
631.5040, 4.664215
631.9861, 4.882370
632.4682, 4.775192
632.9503, 4.362549
633.4324, 3.423157
633.9146, 2.192657
634.3967, 1.461929
634.8788, 1.324661
635.3609, 1.426132
635.8430, 1.603119
636.3251, 1.852829
636.8073, 2.203796
637.2894, 2.842575
637.7715, 3.142059
638.2536, 2.642685
638.7357, 2.069626
639.2178, 2.124481
639.7000, 2.609360
640.1821, 2.771637
640.6642, 2.174332
641.1463, 1.273209
641.6284, 1.020721
642.1105, 1.538742
642.5927, 2.086487
643.0748, 2.876938
643.5569, 3.319183
644.0390, 2.589020
644.5211, 1.425308
645.0032, 1.420502
645.4854, 3.451553
645.9675, 5.436768
646.4496, 5.747116
646.9317, 4.964600
647.4138, 4.231812
647.8959, 3.732513
648.3781, 3.560593
648.8602, 3.802963
649.3423, 4.416580
649.8244, 5.224869
650.3065, 6.036209
650.7886, 7.195053
651.2708, 9.224945
651.7529, 11.16568
652.2350, 12.17712
652.7171, 12.59662
653.1992, 13.26917
653.6813, 14.52020
654.1635, 16.27475
654.6456, 18.69543
655.1277, 21.75804
655.6098, 24.51573
656.0919, 26.55510
656.5740, 28.83047
657.0562, 32.24762
657.5383, 36.66473
658.0204, 40.83577
658.5025, 43.91055
658.9846, 47.82378
659.4667, 53.49983
659.9489, 59.91971
660.4310, 66.28947
660.9131, 72.40672
661.3952, 78.27563
661.8773, 84.01389
662.3594, 89.43240
662.8416, 93.98712
663.3237, 97.72177
663.8058, 100.4163
664.2879, 102.0850
664.7700, 102.5796
665.2521, 101.7727
665.7343, 99.77954
666.2164, 96.97662
666.6985, 93.25119
667.1806, 89.03680
667.6627, 84.20811
668.1448, 79.18547
668.6270, 75.04532
669.1091, 71.92305
669.5912, 68.26450
670.0733, 62.48270
670.5554, 55.09900
671.0375, 49.79706
671.5197, 48.12314
672.0018, 46.07426
672.4839, 43.00916
672.9660, 39.68095
673.4481, 36.37868
673.9302, 33.27608
674.4124, 30.67920
674.8945, 28.88383
675.3766, 27.48576
675.8587, 26.00092
676.3408, 24.47058
676.8229, 23.13139
677.3051, 22.05873
677.7872, 20.95799
678.2693, 19.46964
678.7514, 17.67198
679.2335, 16.48686
679.7156, 16.63603
680.1978, 16.35501
680.6799, 14.99737
681.1620, 13.40791
681.6441, 12.21255
682.1262, 11.46637
682.6083, 11.07529
683.0905, 11.09544
683.5726, 11.14938
684.0547, 10.33319
684.5368, 8.651947
685.0189, 7.437775
685.5010, 7.067490
685.9832, 6.927551
686.4653, 6.384644
686.9474, 5.619492
687.4295, 5.530975
687.9116, 6.917007
688.3937, 7.915497
688.8759, 7.945801
689.3580, 7.363876
689.8401, 6.040329
690.3222, 4.357635
690.8043, 3.644989
691.2864, 4.927841
691.7686, 7.123413
692.2507, 7.369202
692.7328, 5.236008
693.2149, 3.948730
693.6970, 4.433136
694.1791, 5.123871
694.6613, 4.893295
695.1434, 4.071808
695.6255, 3.372040
696.1076, 2.955368
696.5897, 2.556381
697.0718, 1.969269
697.5540, 1.378754
698.0361, 1.045624
698.5182, 0.9520720
699.0003, 0.8804170
699.4824, 0.6950230
699.9645, 0.4602050
700.4467, 0.3906560
700.9288, 0.6316830
701.4109, 0.4817810
701.8930, 0.4489440
702.3751, 1.347748
702.8572, 2.302582
703.3394, 2.821243
703.8215, 1.740677
704.3036, 1.696747
704.7857, 4.560303
705.2678, 4.890121
705.7499, 3.770813
706.2321, 2.171722
706.7142, 0.4304660
707.1963, 0.4452360
707.6784, 0.1365200
708.1605, 1.412903
708.6426, 1.869034
709.1248, 1.317978
709.6069, 0.6008450
710.0890, 0.7875670
710.5711, 1.736145
711.0532, 1.506119
711.5353, 0.7969670
712.0175, 0.5652160
712.4996, 1.017365
712.9817, 1.458771
713.4638, 1.582825
713.9459, 1.373566
714.4280, 0.4919130
714.9102, 0.8424070
715.3923, 1.467270
715.8744, 0.8329320
716.3565, 0.2355960
716.8386, 0.5039060
717.3207, 0.1524050
717.8029, 0.6535800
718.2850, 1.093338
718.7671, 1.252960
719.2492, 0.8439330
719.7313, 0.2971800
720.2134, 2.0508001E-02
720.6956, 8.4518000E-02
721.1777, 0.1097870
721.6598, 0.8676300
722.1419, 1.708252
722.6240, 1.992355
723.1061, 1.806458
723.5883, 1.359222
724.0704, 0.6770020
724.5525, 0.3119960
725.0346, 0.9865570
725.5167, 2.633911
725.9988, 3.779495
726.4810, 4.325470
726.9631, 4.487839
727.4452, 3.961792
727.9273, 3.349426
728.4094, 3.129913
728.8915, 3.248795
729.3737, 3.322906
729.8558, 3.029327
730.3379, 2.873505
730.8200, 3.764359
731.3021, 5.190552
731.7842, 5.734985
732.2664, 5.204391
732.7485, 4.473373
733.2306, 4.145706
733.7127, 4.185013
734.1948, 4.467880
734.6769, 5.239304
735.1591, 5.807693
735.6412, 5.922241
736.1233, 6.080231
736.6054, 6.779099
737.0875, 7.642410
737.5696, 7.798279
738.0518, 6.814590
738.5339, 6.064972
739.0160, 7.032318
739.4981, 8.826630
739.9802, 9.788101
740.4623, 9.869415
740.9445, 9.731979
741.4266, 9.627441
741.9087, 9.856827
742.3908, 11.10260
742.8729, 13.84811
743.3550, 15.52545
743.8372, 14.96750
744.3193, 14.72379
744.8014, 15.62395
745.2835, 17.09265
745.7656, 18.45094
746.2477, 19.62436
746.7299, 21.09346
747.2120, 23.62622
747.6941, 26.22665
748.1762, 27.20293
748.6583, 27.23996
749.1404, 28.77846
749.6226, 32.48325
750.1047, 36.35757
750.5868, 38.25647
751.0689, 38.41104
751.5510, 39.43417
752.0331, 41.64568
752.5153, 44.11017
752.9974, 46.99051
753.4795, 49.82112
753.9616, 52.65042
754.4437, 55.20180
754.9258, 56.63972
755.4080, 56.34616
755.8901, 55.60277
756.3722, 55.57774
756.8543, 55.51033
757.3364, 54.19379
757.8185, 51.60661
758.3007, 48.34404
758.7828, 44.71114
759.2649, 40.98814
759.7470, 37.76822
760.2291, 35.10547
760.7112, 32.45087
761.1934, 29.96417
761.6755, 27.36966
762.1576, 24.02248
762.6397, 20.64076
763.1218, 18.51288
763.6039, 17.89471
764.0861, 17.00809
764.5682, 14.63711
765.0503, 12.28191
765.5324, 11.54947
766.0145, 11.72209
766.4966, 11.23567
766.9788, 9.709274
767.4609, 8.160812
767.9430, 7.684998
768.4251, 7.956451
768.9072, 7.228699
769.3893, 5.287430
769.8715, 3.616943
770.3536, 2.517319
770.8357, 1.790878
771.3178, 1.309662
771.7999, 1.097046
772.2820, 1.225540
772.7642, 2.377167
773.2463, 2.893661
773.7284, 1.533539
774.2105, 5.7158999E-02
774.6926, 7.3425002E-02
775.1747, 1.140259
775.6569, 1.955460
776.1390, 1.536392
776.6211, 0.5874630
777.1032, 0.1311340
777.5853, 0.5831600
778.0674, 0.3121030
778.5496, 0.8449250
779.0317, 1.711548
779.5138, 1.610550
779.9959, 1.052567
780.4780, 1.048279
780.9601, 1.917618
781.4423, 2.007050
781.9244, 0.4376220
782.4065, 0.8276670
782.8886, 1.066101
783.3707, 0.7079770
783.8528, 3.4805000E-02
784.3350, 0.7978820
784.8171, 1.386078
785.2992, 1.371918
785.7813, 1.114243
786.2634, 1.198822
786.7455, 1.437576
787.2277, 1.037811
787.7098, 0.1400300
788.1919, 1.116272
788.6740, 1.087296
789.1561, 0.3065490
789.6382, 0.3153990
790.1204, 0.7306670
790.6025, 1.097809
791.0846, 1.556839
791.5667, 1.812042
792.0488, 1.465347
792.5309, 0.9377290
793.0131, 0.9367680
793.4952, 1.645340
793.9773, 2.379318
794.4594, 2.989075
794.9415, 3.342682
795.4236, 3.172394
795.9058, 2.666214
796.3879, 2.239395
796.8700, 2.024109
797.3521, 1.898987
797.8342, 1.698013
798.3163, 1.494904
798.7985, 1.792725
799.2806, 2.749069
799.7627, 3.269913
800.2448, 2.994339
800.7269, 2.394272
801.2090, 1.663528
801.6912, 0.9198760
802.1733, 0.7387390
802.6554, 1.597061
803.1375, 2.258804
803.6196, 2.516678
804.1017, 2.484985
804.5839, 1.822754
805.0660, 1.025620
805.5481, 1.246826
806.0302, 2.921082
806.5123, 4.645996
806.9944, 4.789978
807.4766, 4.001144
807.9587, 3.968430
808.4408, 4.654465
808.9229, 4.812820
809.4050, 3.885010
809.8871, 2.944077
810.3693, 3.312454
810.8514, 4.980133
811.3335, 6.631393
811.8156, 8.503571
812.2977, 9.964722
812.7798, 10.58411
813.2620, 11.08835
813.7441, 11.91035
814.2262, 13.00583
814.7083, 14.17465
815.1904, 15.32794
815.6725, 16.63759
816.1547, 18.23068
816.6368, 20.01619
817.1189, 21.84117
817.6010, 23.76538
818.0831, 25.97630
818.5652, 28.55408
819.0474, 31.40961
819.5295, 34.52213
820.0116, 37.83931
820.4937, 40.80042
820.9758, 43.29822
821.4579, 46.16473
821.9401, 49.98541
822.4222, 53.71246
822.9043, 56.30397
823.3864, 57.75581
823.8685, 58.70047
824.3506, 58.52809
824.8328, 58.72345
825.3149, 60.22356
825.7970, 61.53119
826.2791, 61.60133
826.7612, 60.59000
827.2433, 59.04893
827.7255, 57.14354
828.2076, 54.95932
828.6897, 52.42404
829.1718, 49.72862
829.6539, 47.18105
830.1360, 44.78044
830.6182, 42.35583
831.1003, 39.84888
831.5824, 37.51996
832.0645, 35.78821
832.5466, 34.55586
833.0287, 32.56123
833.5109, 29.44305
833.9930, 26.61882
834.4751, 24.26750
834.9572, 22.43199
835.4393, 21.47589
835.9214, 21.11470
836.4036, 20.36679
836.8857, 18.86662
837.3678, 17.52315
837.8499, 16.68390
838.3320, 15.96411
838.8141, 15.14694
839.2963, 14.23190
839.7784, 13.24222
840.2605, 12.14699
840.7426, 11.02394
841.2247, 9.731018
841.7068, 8.587173
842.1890, 8.425156
842.6711, 9.021332
843.1532, 9.101776
843.6353, 8.325592
844.1174, 7.274231
844.5995, 6.413773
845.0817, 5.759094
845.5638, 5.467621
846.0459, 5.752869
846.5280, 5.671921
847.0101, 4.898102
847.4922, 4.105057
847.9744, 3.671600
848.4565, 3.429993
848.9386, 3.130600
849.4207, 2.748550
849.9028, 2.356506
850.3849, 1.352280
850.8671, 1.019104
851.3492, 3.176834
851.8313, 5.916595
852.3134, 6.372162
852.7955, 4.400070
853.2776, 2.276031
853.7598, 1.497467
854.2419, 1.425201
854.7240, 1.019455
855.2061, 0.4609380
855.6882, 0.6325840
856.1703, 1.592438
856.6525, 2.385818
857.1346, 2.465714
857.6167, 2.093124
858.0988, 1.699417
858.5809, 1.220612
859.0630, 1.192322
859.5452, 2.032593
860.0273, 2.577866
860.5094, 2.171967
860.9915, 1.565964
861.4736, 1.433334
861.9557, 1.715622
862.4379, 1.982574
862.9200, 2.222534
863.4021, 2.347855
863.8842, 2.203064
864.3663, 2.094818
864.8484, 2.067169
865.3306, 2.199966
865.8127, 2.690781
866.2948, 3.603363
866.7769, 4.640762
867.2590, 5.560913
867.7411, 6.366928
868.2233, 7.125427
868.7054, 7.863770
869.1875, 8.244736
869.6696, 8.111832
870.1517, 8.079483
870.6339, 8.784515
871.1160, 10.10693
871.5981, 11.52077
872.0802, 13.17703
872.5623, 14.40675
873.0444, 15.16144
873.5266, 15.52428
874.0087, 15.13127
874.4908, 14.48612
874.9729, 14.73346
875.4550, 16.12984
875.9371, 16.67123
876.4193, 15.32413
876.9014, 13.99129
877.3835, 13.49992
877.8656, 13.48500
878.3477, 13.79730
878.8298, 14.15463
879.3120, 13.75694
879.7941, 11.90645
880.2762, 9.959076
880.7583, 9.477280
881.2404, 9.694794
881.7225, 9.164185
882.2047, 7.953705
882.6868, 7.077438
883.1689, 6.963837
883.6510, 6.984589
884.1331, 6.242706
884.6152, 4.893341
885.0974, 4.399139
885.5795, 4.919922
886.0616, 5.308823
886.5437, 5.317719
887.0258, 5.068237
887.5079, 4.583694
887.9901, 3.942322
888.4722, 3.461151
888.9543, 3.376816
889.4364, 2.995605
889.9185, 1.861572
890.4006, 0.9617770
890.8828, 0.6897580
891.3649, 0.8679960
891.8470, 1.510620
892.3291, 2.520950
892.8112, 2.947998
893.2933, 1.859909
893.7755, 0.7007750
894.2576, 0.3378140
894.7397, 0.4419100
895.2218, 0.6249390
895.7039, 0.8652340
896.1860, 1.428101
896.6682, 2.470016
897.1503, 3.317001
897.6324, 2.916992
898.1145, 1.713745
898.5966, 0.9426270
899.0787, 0.6296230
899.5609, 0.7395630
900.0430, 1.295456
900.5251, 1.795197
901.0072, 1.733612
901.4893, 1.226868
901.9714, 0.8356930
902.4536, 0.5879360
902.9357, 0.3367000
903.4178, 3.8300000E-02
903.8999, 0.2289580
904.3820, 0.1324920
904.8641, 0.2846530
905.3463, 1.311005
905.8284, 3.134979
906.3105, 3.996017
906.7926, 3.061310
907.2747, 2.057236
907.7568, 1.412415
908.2390, 0.9967040
908.7211, 0.6583400
909.2032, 0.4270480
909.6853, 0.4439850
910.1674, 0.7980650
910.6495, 1.248581
911.1317, 1.963181
911.6138, 2.439835
912.0959, 1.669632
912.5780, 0.2713320
913.0601, 0.1699830
913.5422, 0.6931460
914.0244, 1.799637
914.5065, 2.292160
914.9886, 2.332703
915.4707, 2.207581
915.9528, 1.932480
916.4349, 1.563889
916.9171, 1.108231
917.3992, 0.7640380
917.8813, 0.6498410
918.3634, 0.6620940
918.8455, 0.6107030
919.3276, 0.4813840
919.8098, 0.6143040
920.2919, 1.297607
920.7740, 1.457993
921.2561, 0.3145600
921.7382, 0.7425380
922.2203, 0.3099520
922.7025, 1.164200
923.1846, 1.887329
923.6667, 1.514862
924.1488, 1.159378
924.6309, 1.179657
925.1130, 0.9465180
925.5952, 0.3337710
926.0773, 1.723282
926.5594, 1.946976
927.0415, 0.9967800
927.5236, 7.0572004E-02
928.0057, 0.3543240
928.4879, 0.5770420
928.9700, 0.8837740
929.4521, 1.030472
929.9342, 0.4726100
930.4163, 0.4797970
930.8984, 0.8519740
931.3806, 0.3067470
931.8627, 0.2777860
932.3448, 0.2108760
932.8269, 0.1250920
933.3090, 0.2091370
933.7911, 0.1336360
934.2733, 0.2693180
934.7554, 3.3417001E-02
935.2375, 0.3545680
935.7196, 0.2294310
936.2017, 0.1526790
936.6838, 0.4259800
937.1660, 0.5933070
937.6481, 0.6054380
938.1302, 0.4397280
938.6123, 0.2030330
939.0944, 0.1316380
939.5765, 0.3860020
940.0587, 0.3190310
940.5408, 2.7310001E-03
941.0229, 2.0599000E-02
941.5050, 0.6444400
941.9871, 0.8774720
942.4692, 0.2346950
942.9514, 0.3770750
943.4335, 0.4951480
943.9156, 0.4400020
944.3977, 0.6918950
944.8798, 1.266663
945.3619, 1.575790
945.8441, 1.259338
946.3262, 0.9642330
946.8083, 0.6538850
947.2904, 0.6870570
947.7725, 1.736740
948.2546, 3.288284
948.7368, 4.190704
949.2189, 4.095398
949.7010, 3.686234
950.1831, 3.018402
950.6652, 2.604523
951.1473, 3.271759
951.6295, 4.437592
952.1116, 4.948364
952.5937, 4.784088
953.0758, 4.839310
953.5579, 5.649155
954.0400, 6.701218
954.5222, 7.264206
955.0043, 7.512070
955.4864, 8.027451
955.9685, 8.766190
956.4506, 9.239929
956.9327, 9.304504
957.4149, 9.243546
957.8970, 9.243652
958.3791, 9.452393
958.8612, 10.53455
959.3433, 12.59657
959.8254, 13.75391
960.3076, 13.60823
960.7897, 13.78073
961.2718, 14.95045
961.7539, 16.77235
962.2360, 18.92107
962.7181, 21.38266
963.2003, 23.65297
963.6824, 25.94028
964.1645, 27.55690
964.6466, 27.44162
965.1287, 27.88374
965.6108, 30.80333
966.0930, 34.70596
966.5751, 37.29665
967.0572, 38.38942
967.5393, 39.70317
968.0214, 42.02368
968.5035, 43.76283
968.9857, 44.27338
969.4678, 44.24670
969.9499, 44.03244
970.4320, 43.75221
970.9141, 43.70554
971.3962, 44.10027
971.8784, 43.76399
972.3605, 41.71983
972.8426, 39.23621
973.3247, 37.21498
973.8068, 35.26430
974.2889, 32.47121
974.7711, 29.15813
975.2532, 26.83177
975.7353, 26.31781
976.2174, 26.02716
976.6995, 24.50110
977.1816, 22.34340
977.6638, 20.16016
978.1459, 18.10992
978.6280, 16.44885
979.1101, 15.22864
979.5922, 14.47057
980.0743, 14.39902
980.5565, 14.47372
981.0386, 13.48233
981.5207, 11.87669
982.0028, 11.66315
982.4849, 12.71278
982.9670, 12.66591
983.4492, 10.68541
983.9313, 8.590042
984.4134, 8.326584
984.8955, 9.283417
985.3776, 9.241043
985.8597, 8.124344
986.3419, 6.832626
986.8240, 5.324554
987.3061, 4.391312
987.7882, 4.498840
988.2703, 4.881897
988.7524, 4.609528
989.2346, 3.855927
989.7167, 3.966599
990.1988, 5.435349
990.6809, 6.059280
991.1630, 5.287292
991.6451, 4.221603
992.1273, 3.263443
992.6094, 2.496506
993.0915, 2.046234
993.5736, 1.931595
994.0557, 2.332047
994.5378, 4.057556
995.0200, 5.043167
995.5021, 4.397507
995.9842, 3.713287
996.4663, 4.072144
996.9484, 4.837341
997.4305, 4.917709
997.9127, 4.207275
998.3948, 3.865295
998.8769, 4.545639
999.3590, 4.780365
999.8411, 3.632828
1000.323, 2.492752
1000.805, 2.489548
1001.287, 3.229263
1001.770, 3.885132
1002.252, 4.269287
1002.734, 4.448318
1003.216, 4.171234
1003.698, 4.018417
1004.180, 4.577301
1004.662, 5.256104
1005.144, 5.433319
1005.627, 5.143585
1006.109, 4.624878
1006.591, 3.944824
1007.073, 3.350372
1007.555, 2.903168
1008.037, 2.727051
1008.519, 3.129868
1009.001, 3.796524
1009.483, 4.229019
1009.966, 4.409485
1010.448, 4.620300
1010.930, 5.000595
1011.412, 5.252319
1011.894, 4.831207
1012.376, 5.192535
1012.858, 4.487411
1013.340, 5.202347
1013.823, 5.417740
1014.305, 5.097473
1014.787, 5.118790
1015.269, 5.993454
1015.751, 7.256592
1016.233, 8.580612
1016.715, 9.674271
1017.197, 9.634003
1017.679, 8.698181
1018.162, 8.080536
1018.644, 8.028305
1019.126, 7.952362
1019.608, 7.432083
1020.090, 6.894928
1020.572, 7.178543
1021.054, 8.153305
1021.536, 9.044037
1022.018, 9.831100
1022.501, 10.01756
1022.983, 9.333832
1023.465, 8.595901
1023.947, 8.413727
1024.429, 8.589767
1024.911, 8.750275
1025.393, 8.899765
1025.875, 8.906723
1026.358, 8.773621
1026.840, 8.371933
1027.322, 7.589767
1027.804, 6.904083
1028.286, 6.701691
1028.768, 6.805801
1029.250, 6.790207
1029.732, 6.644135
1030.214, 6.430771
1030.697, 6.041092
1031.179, 6.017746
1031.661, 6.719681
1032.143, 7.317230
1032.625, 7.078613
1033.107, 6.298981
1033.589, 5.798981
1034.071, 5.578873
1034.553, 5.699860
1035.036, 6.482544
1035.518, 6.861771
1036.000, 6.371063
1036.482, 5.676437
1036.964, 5.217453
1037.446, 4.993515
1037.928, 5.088394
1038.410, 5.760773
1038.893, 5.831635
1039.375, 4.678329
1039.857, 3.865860
1040.339, 3.876816
1040.821, 4.220749
1041.303, 4.869431
1041.785, 5.520523
1042.267, 5.150742
1042.750, 3.177231
1043.232, 2.134003
1043.714, 3.065460
1044.196, 3.548538
1044.678, 2.422318
1045.160, 1.234100
1045.642, 1.421783
1046.124, 2.356857
1046.606, 2.331863
1047.089, 0.8343350
1047.571, 0.1494900
1048.053, 1.128296
1048.535, 2.113358
1049.017, 2.883820
1049.499, 3.295898
1049.981, 3.160248
1050.463, 2.616196
1050.945, 1.845703
1051.428, 0.7566530
1051.910, 0.1921390
1052.392, 0.9694820
1052.874, 1.416336
1053.356, 0.5430150
1053.838, 0.4284820
1054.320, 0.3325500
1054.802, 0.3107600
1055.285, 0.2286070
1055.767, 0.8556060
1056.249, 1.475677
1056.731, 0.8759920
1057.213, 0.2447360
1057.695, 3.2439999E-02
1058.177, 0.1311040
1058.659, 1.9135000E-02
1059.141, 0.1603850
1059.624, 0.1634370
1060.106, 1.028809
1060.588, 2.034775
1061.070, 3.568817
1061.552, 4.539200
1062.034, 4.295227
1062.516, 3.534454
1062.998, 2.472672
1063.480, 1.429749
1063.963, 0.8152620
1064.445, 0.7119450
1064.927, 1.015015
1065.409, 2.307739
1065.891, 3.156586
1066.373, 2.525101
1066.855, 1.667908
1067.337, 1.583893
1067.820, 1.919785
1068.302, 1.978470
1068.784, 1.700546
1069.266, 1.645813
1069.748, 2.341309
1070.230, 2.743378
1070.712, 1.971619
1071.194, 1.164566
1071.677, 1.478485
1072.159, 2.140030
1072.641, 1.671219
1073.123, 0.2083440
1073.605, 0.3099520
1074.087, 1.385605
1074.569, 2.757370
1075.051, 2.370743
1075.533, 1.510635
1076.016, 0.8840940
1076.498, 0.4639590
1076.980, 0.2716830
1077.462, 0.3023680
1077.944, 0.6301270
1078.426, 1.509460
1078.908, 1.856384
1079.390, 0.3618160
1079.873, 0.9285740
1080.355, 0.3221440
1080.837, 0.9978330
1081.319, 1.778320
1081.801, 1.927597
1082.283, 1.644775
1082.765, 0.8690640
1083.247, 0.4381410
1083.729, 1.227783
1084.212, 1.877228
1084.694, 1.225388
1085.176, 0.3349460
1085.658, 0.4489750
1086.140, 1.229782
1086.622, 1.598083
1087.104, 1.279800
1087.586, 1.008820
1088.068, 1.316330
1088.551, 1.462158
1089.033, 0.7644040
1089.515, 3.2822002E-02
1089.997, 0.1418760
1090.479, 0.6923830
1090.961, 0.7982030
1091.443, 0.3259120
1091.925, 1.4114000E-02
1092.408, 0.1999660
1092.890, 0.3837430
1093.372, 0.2650760
1093.854, 7.2692998E-02
1094.336, 2.1103000E-02
1094.818, 8.3145000E-02
1095.300, 0.4137730
1095.782, 0.9191130
1096.265, 0.7232210
1096.747, 0.9469910
1097.229, 2.336426
1097.711, 2.859283
1098.193, 2.937637
1098.675, 2.613388
1099.157, 2.126511
1099.639, 1.579239
1100.121, 1.154892
1100.604, 1.286346
1101.086, 2.245514
1101.568, 2.800659
1102.050, 2.437820
1102.532, 1.919968
1103.014, 1.452484
1103.496, 1.084824
1103.978, 0.8107150
1104.460, 0.6603850
1104.943, 0.7633670
1105.425, 1.216965
1105.907, 1.451218
1106.389, 0.8760830
1106.871, 0.7314450
1107.353, 1.847458
1107.835, 3.033936
1108.317, 3.519257
1108.800, 3.490631
1109.282, 3.264038
1109.764, 2.857391
1110.246, 2.416214
1110.728, 1.461182
1111.210, 1.204086
1111.692, 2.755585
1112.174, 3.923828
1112.656, 3.287521
1113.139, 1.927902
1113.621, 0.9921720
1114.103, 0.5146940
1114.585, 0.5505830
1115.067, 1.785934
1115.549, 2.266846
1116.031, 1.322388
1116.513, 0.5366060
1116.995, 0.4267430
1117.478, 0.6515200
1117.960, 1.063309
1118.442, 1.512085
1118.924, 1.493866
1119.406, 0.8441310
1119.888, 0.3597110
1120.370, 6.3904002E-02
1120.852, 6.5125003E-02
1121.335, 0.7183530
1121.817, 1.428528
1122.299, 1.451981
1122.781, 1.119400
1123.263, 1.019135
1123.745, 1.154083
1124.227, 1.279129
1124.709, 1.369263
1125.192, 1.578705
1125.674, 2.059631
1126.156, 2.158798
1126.638, 1.343475
1127.120, 0.6357570
1127.602, 1.432800
1128.084, 3.256638
1128.566, 3.639877
1129.048, 2.388916
1129.531, 1.371475
1130.013, 0.6456150
1130.495, 0.3898930
1130.977, 0.7202760
1131.459, 1.116348
1131.941, 1.243378
1132.423, 1.094742
1132.905, 0.4500270
1133.387, 0.5841830
1133.870, 7.6299999E-04
1134.352, 2.119690
1134.834, 3.157135
1135.316, 2.623779
1135.798, 2.092209
1136.280, 2.423752
1136.762, 3.071426
1137.244, 3.397430
1137.727, 3.363632
1138.209, 2.998230
1138.691, 2.416519
1139.173, 2.206543
1139.655, 2.351990
1140.137, 2.303970
1140.619, 1.899216
1141.101, 1.661606
1141.583, 2.084946
1142.066, 1.924881
1142.548, 2.702805
1143.030, 2.435150
1143.512, 2.823334
1143.994, 3.565155
1144.476, 3.653687
1144.958, 3.029114
1145.440, 2.420151
1145.922, 2.186325
1146.405, 2.213730
1146.887, 2.587402
1147.369, 2.977814
1147.851, 2.999603
1148.333, 2.811417
1148.815, 2.630081
1149.297, 2.458786
1149.779, 2.127121
1150.262, 1.646912
1150.744, 1.535431
1151.226, 2.484070
1151.708, 3.227753
1152.190, 2.659042
1152.672, 1.826935
1153.154, 1.592606
1153.636, 1.657272
1154.119, 1.601654
1154.601, 1.422531
1155.083, 1.231598
1155.565, 1.099487
1156.047, 0.8546910
1156.529, 0.3901370
1157.011, 0.1347050
1157.493, 1.138992
1157.975, 1.724106
1158.458, 0.6203610
1158.940, 1.288452
1159.422, 2.091110
1159.904, 1.550690
1160.386, 1.051804
1160.868, 0.3929440
1161.350, 0.2734220
1161.832, 1.416306
1162.314, 2.261856
1162.797, 1.984406
1163.279, 1.276825
1163.761, 0.6801300
1164.243, 0.3012080
1164.725, 0.7845000
1165.207, 0.6857910
1165.689, 0.5771030
1166.171, 1.633652
1166.654, 0.8283390
1167.136, 1.826569
1167.618, 3.066635
1168.100, 3.579865
1168.582, 3.590927
1169.064, 3.476822
1169.546, 3.218643
1170.028, 2.419327
1170.510, 2.396515
1170.993, 2.377579
1171.475, 1.870911
1171.957, 2.593857
1172.439, 2.322235
1172.921, 2.063690
1173.403, 2.772400
1173.885, 3.907745
1174.367, 4.456467
1174.849, 4.516129
1175.332, 4.186890
1175.814, 3.668365
1176.296, 3.811417
1176.778, 4.621994
1177.260, 5.173645
1177.742, 5.022659
1178.224, 4.793869
1178.706, 5.224319
1179.189, 5.788986
1179.671, 5.591400
1180.153, 5.208649
1180.635, 5.608810
1181.117, 6.502960
1181.599, 7.326126
1182.081, 7.883423
1182.563, 8.169724
1183.046, 8.138184
1183.528, 8.166016
1184.010, 8.826584
1184.492, 9.249344
1184.974, 8.510330
1185.456, 7.371399
1185.938, 6.301239
1186.420, 5.715973
1186.902, 6.619690
1187.385, 9.304001
1187.867, 11.14169
1188.349, 10.88725
1188.831, 10.57599
1189.313, 10.39961
1189.795, 10.59007
1190.277, 11.75456
1190.759, 12.90428
1191.241, 12.98161
1191.724, 12.22913
1192.206, 11.59970
1192.688, 11.09999
1193.170, 10.88528
1193.652, 11.15739
1194.134, 11.06909
1194.616, 10.37703
1195.098, 9.501419
1195.581, 8.559784
1196.063, 7.965424
1196.545, 8.432678
1197.027, 9.581177
1197.509, 9.614090
1197.991, 8.624252
1198.473, 8.078934
1198.955, 8.048981
1199.438, 8.207748
1199.920, 8.440384
1200.402, 8.499481
1200.884, 8.207718
1201.366, 7.791412
1201.848, 7.530975
1202.330, 7.365067
1202.812, 7.097015
1203.294, 6.872635
1203.776, 7.201004
1204.259, 7.825607
1204.741, 7.737915
1205.223, 6.802094
1205.705, 6.345352
1206.187, 7.434738
1206.669, 8.380981
1207.151, 7.725098
1207.633, 6.783173
1208.116, 6.625305
1208.598, 6.736984
1209.080, 6.356293
1209.562, 5.702835
1210.044, 5.550720
1210.526, 6.075043
1211.008, 6.527084
1211.490, 6.918915
1211.973, 6.991333
1212.455, 6.441406
1212.937, 5.874435
1213.419, 5.613281
1213.901, 5.383240
1214.383, 4.839050
1214.865, 4.129425
1215.347, 3.778595
1215.829, 3.936829
1216.312, 3.582596
1216.794, 3.894363
1217.276, 2.386612
1217.758, 4.253479
1218.240, 5.680176
1218.722, 5.506912
1219.204, 4.783920
1219.686, 4.706238
1220.168, 4.921478
1220.651, 4.315231
1221.133, 3.229507
1221.615, 3.166824
1222.097, 3.946457
1222.579, 4.663803
1223.061, 5.097900
1223.543, 5.281235
1224.025, 5.228653
1224.508, 4.886581
1224.990, 3.910889
1225.472, 2.989273
1225.954, 2.837936
1226.436, 3.102478
1226.918, 3.634979
1227.400, 4.143768
1227.882, 4.224670
1228.365, 3.861465
1228.847, 3.250351
1229.329, 2.297150
1229.811, 1.693939
1230.293, 1.901825
1230.775, 2.107544
1231.257, 2.099274
1231.739, 1.948364
1232.221, 1.426941
1232.703, 1.004562
1233.186, 1.537598
1233.668, 2.758896
1234.150, 2.729080
1234.632, 2.899841
1235.114, 3.178406
1235.596, 2.089859
1236.078, 2.756317
1236.560, 1.526642
1237.043, 0.4190220
1237.525, 0.6474460
1238.007, 0.2017360
1238.489, 0.6523280
1238.971, 0.4477540
1239.453, 0.5719910
1239.935, 7.5989999E-03
1240.417, 0.4293980
1240.900, 0.6324160
1241.382, 0.2980500
1241.864, 0.4543460
1242.346, 0.7210080
1242.828, 4.5609001E-02
1243.310, 0.7137300
1243.792, 1.114151
1244.274, 1.034668
1244.756, 0.2536620
1245.239, 1.462891
1245.721, 1.292526
1246.203, 0.2251590
1246.685, 1.386917
1247.167, 3.113144
1247.649, 3.250977
1248.131, 0.7340390
1248.613, 0.7673340
1249.095, 0.3309020
1249.578, 0.4631650
1250.060, 1.771744
1250.542, 2.676910
1251.024, 2.542480
1251.506, 2.063965
1251.988, 2.078430
1252.470, 2.435822
1252.952, 2.478775
1253.435, 2.189026
1253.917, 2.591125
1254.399, 2.498779
1254.881, 2.335068
1255.363, 2.863312
1255.845, 2.329971
1256.327, 2.907608
1256.809, 3.761856
1257.292, 4.233902
1257.774, 4.239609
1258.256, 3.168854
1258.738, 1.949112
1259.220, 1.967209
1259.702, 2.774902
1260.184, 3.752548
1260.666, 4.626495
1261.148, 4.995850
1261.630, 4.745743
1262.113, 4.415024
1262.595, 4.158768
1263.077, 3.968430
1263.559, 4.154602
1264.041, 4.216629
1264.523, 4.014359
1265.005, 3.985855
1265.487, 4.101776
1265.970, 3.732971
1266.452, 3.271149
1266.934, 2.298325
1267.416, 1.813110
1267.898, 2.189011
1268.380, 2.461731
1268.862, 2.382248
1269.344, 3.046585
1269.827, 4.828247
1270.309, 6.064529
1270.791, 5.485001
1271.273, 4.332428
1271.755, 4.488281
1272.237, 3.967331
1272.719, 4.806320
1273.201, 4.045166
1273.683, 4.296219
1274.166, 5.172119
1274.648, 5.570175
1275.130, 5.299713
1275.612, 4.788742
1276.094, 4.143738
1276.576, 3.523239
1277.058, 2.709351
1277.540, 2.303757
1278.022, 2.899582
1278.505, 3.580795
1278.987, 3.977676
1279.469, 3.930298
1279.951, 3.032486
1280.433, 1.599442
1280.915, 0.9141080
1281.397, 1.042557
1281.879, 1.790344
1282.362, 3.268127
1282.844, 4.165665
1283.326, 4.278076
1283.808, 3.562134
1284.290, 2.009079
1284.772, 0.5761720
1285.254, 2.4948001E-02
1285.736, 0.0000000E+00
##END=



