##NAMES=Kalsilite
##RRUFFID=R060801
##IDEAL CHEMISTRY=KAlSiO_4_
##LOCALITY=Marino, Latium, Italy
##OWNER=RRUFF
##SOURCE=Smithsonian Institute
##DESCRIPTION=White anhedral blebs
##STATUS=The identification of this mineral is confirmed by single-crystal X-ray diffraction and chemical analysis.
##URL=rruff.info/R060801
##MEASURED CHEMISTRY=(K_0.90_Na_0.09_[box]_0.01_)_Î£=1_Al_0.99_Si_1.01_O_4_
150.2924, 0.0000000E+00
150.7745, 9.0750000E-03
151.2566, 0.4555890
151.7388, 1.228622
152.2209, 1.679005
152.7030, 1.364819
153.1851, 1.068481
153.6672, 1.095280
154.1493, 1.922905
154.6315, 2.508633
155.1136, 2.909363
155.5957, 3.069546
156.0778, 2.850212
156.5599, 1.763626
157.0420, 0.6412350
157.5242, 6.7737997E-02
158.0063, 7.5149998E-02
158.4884, 0.2569500
158.9705, 0.3383750
159.4526, 0.3197710
159.9347, 0.3494910
160.4169, 0.4989850
160.8990, 0.6816220
161.3811, 0.9126820
161.8632, 1.291069
162.3453, 1.591728
162.8274, 1.855629
163.3096, 2.070652
163.7917, 2.089680
164.2738, 1.639797
164.7559, 1.049923
165.2380, 0.6622310
165.7201, 0.6938130
166.2023, 0.8680760
166.6844, 1.014103
167.1665, 1.144783
167.6486, 1.312649
168.1307, 1.660465
168.6128, 2.046253
169.0950, 2.279667
169.5771, 1.946270
170.0592, 1.596752
170.5413, 1.839275
171.0234, 2.907650
171.5055, 3.935059
171.9877, 3.677944
172.4698, 2.772316
172.9519, 2.029495
173.4340, 1.977310
173.9161, 2.176849
174.3982, 2.179081
174.8804, 1.924538
175.3625, 1.603546
175.8446, 1.376320
176.3267, 1.241215
176.8088, 1.152958
177.2909, 1.122181
177.7731, 1.112999
178.2552, 1.083363
178.7373, 1.039253
179.2194, 0.9598880
179.7015, 0.7888830
180.1836, 0.5520210
180.6658, 0.3474920
181.1479, 0.2136610
181.6300, 0.1505700
182.1121, 0.1770550
182.5942, 0.3154340
183.0763, 0.4828720
183.5585, 0.5713580
184.0406, 0.5908580
184.5227, 0.6016580
185.0048, 0.6637120
185.4869, 0.7467460
185.9690, 0.7683560
186.4511, 0.7076840
186.9333, 0.5932580
187.4154, 0.4460260
187.8975, 0.2691760
188.3796, 0.1259730
188.8617, 8.2451001E-02
189.3438, 0.1179080
189.8260, 0.1411170
190.3081, 0.1558950
190.7902, 0.1308710
191.2723, 8.6018004E-02
191.7544, 0.5046010
192.2365, 0.7910310
192.7187, 0.5875130
193.2008, 4.9823999E-02
193.6829, 0.5503730
194.1650, 0.8034740
194.6471, 0.8788640
195.1292, 0.9577940
195.6114, 1.041821
196.0935, 1.118900
196.5756, 1.184025
197.0577, 1.236710
197.5398, 1.246090
198.0219, 1.183342
198.5041, 1.080971
198.9862, 1.041389
199.4683, 1.058529
199.9504, 1.160843
200.4325, 1.441330
200.9146, 1.917896
201.3968, 2.229015
201.8789, 2.247444
202.3610, 2.044384
202.8431, 1.970726
203.3252, 2.043598
203.8073, 2.188210
204.2895, 2.368366
204.7716, 2.600636
205.2537, 2.752304
205.7358, 2.775471
206.2179, 2.729080
206.7000, 2.828053
207.1822, 2.936352
207.6643, 3.147194
208.1464, 3.675541
208.6285, 4.634987
209.1106, 5.482285
209.5927, 6.065044
210.0749, 6.414558
210.5570, 6.868935
211.0391, 7.415676
211.5212, 8.001595
212.0033, 8.611828
212.4854, 9.269630
212.9676, 10.01613
213.4497, 10.83906
213.9318, 11.71036
214.4139, 12.54787
214.8960, 13.33892
215.3781, 14.19335
215.8603, 15.26525
216.3424, 16.64809
216.8245, 17.89747
217.3066, 18.83174
217.7887, 19.45507
218.2708, 20.37738
218.7530, 21.69706
219.2351, 23.14550
219.7172, 24.45629
220.1993, 25.65713
220.6814, 26.82446
221.1635, 27.91500
221.6457, 28.92085
222.1278, 30.01915
222.6099, 31.25105
223.0920, 32.57010
223.5741, 33.86819
224.0562, 35.08212
224.5384, 36.48760
225.0205, 38.28402
225.5026, 40.47389
225.9847, 42.15727
226.4668, 43.01784
226.9489, 43.70331
227.4311, 44.86631
227.9132, 46.74012
228.3953, 48.64663
228.8774, 50.43955
229.3595, 52.12709
229.8416, 53.88505
230.3238, 55.77547
230.8059, 57.69446
231.2880, 59.57447
231.7701, 61.49650
232.2522, 63.21793
232.7343, 64.61842
233.2165, 65.69521
233.6986, 66.94884
234.1807, 68.55107
234.6628, 70.15527
235.1449, 71.38128
235.6270, 72.02941
236.1092, 72.67049
236.5913, 73.52031
237.0734, 74.58847
237.5555, 75.11378
238.0376, 75.01623
238.5197, 74.45522
239.0019, 73.56864
239.4840, 72.32385
239.9661, 70.80994
240.4482, 68.99802
240.9303, 66.89070
241.4124, 64.70478
241.8946, 62.47226
242.3767, 60.12770
242.8588, 57.60661
243.3409, 54.72104
243.8230, 52.02586
244.3051, 49.71425
244.7873, 47.76360
245.2694, 45.36616
245.7515, 42.27066
246.2336, 39.00592
246.7157, 35.98001
247.1978, 33.16378
247.6800, 30.65527
248.1621, 28.55273
248.6442, 26.81376
249.1263, 25.09795
249.6084, 23.39734
250.0905, 21.69523
250.5726, 19.98830
251.0548, 18.23526
251.5369, 16.62465
252.0190, 15.18035
252.5011, 13.88501
252.9832, 12.73054
253.4653, 11.72398
253.9475, 10.83552
254.4296, 10.06425
254.9117, 9.480900
255.3938, 8.839020
255.8759, 8.088848
256.3581, 7.247326
256.8402, 6.459404
257.3223, 5.741261
257.8044, 5.046509
258.2865, 4.333931
258.7686, 3.570671
259.2508, 2.887192
259.7329, 2.301819
260.2150, 1.809990
260.6971, 1.369808
261.1792, 1.019604
261.6613, 0.6608310
262.1435, 0.1954540
262.6256, 0.4823760
263.1077, 0.9160650
263.5898, 1.001377
264.0719, 0.8415490
264.5540, 0.7516940
265.0362, 0.7237930
265.5183, 0.7774580
266.0004, 0.9396670
266.4825, 1.245193
266.9646, 1.549797
267.4467, 1.902599
267.9289, 2.220730
268.4110, 2.219170
268.8931, 1.739571
269.3752, 1.355194
269.8573, 1.435417
270.3394, 2.145287
270.8216, 2.473015
271.3037, 2.264091
271.7858, 1.792435
272.2679, 1.662483
272.7500, 1.952835
273.2321, 2.287605
273.7143, 2.528419
274.1964, 2.679695
274.6785, 2.704903
275.1606, 2.616295
275.6427, 2.382164
276.1248, 1.843643
276.6070, 0.8955000
277.0891, 0.1718290
277.5712, 3.2478001E-02
278.0533, 0.4868930
278.5354, 0.6428680
279.0175, 0.4356540
279.4996, 7.1777001E-02
279.9818, 0.1203770
280.4639, 0.1055220
280.9460, 0.2222670
281.4281, 0.6697310
281.9102, 1.396790
282.3923, 1.806145
282.8745, 1.811073
283.3566, 1.781998
283.8387, 2.235580
284.3208, 3.189758
284.8029, 3.984978
285.2850, 4.332481
285.7672, 4.374550
286.2493, 4.799492
286.7314, 5.658058
287.2135, 6.601334
287.6956, 7.264137
288.1777, 7.670143
288.6599, 8.100136
289.1420, 8.582573
289.6241, 9.162773
290.1062, 9.982750
290.5883, 11.05380
291.0704, 12.27238
291.5526, 13.74009
292.0347, 15.37128
292.5168, 16.57687
292.9989, 17.09103
293.4810, 17.31541
293.9631, 18.05077
294.4453, 19.28022
294.9274, 20.67213
295.4095, 21.97350
295.8916, 23.23299
296.3737, 24.60143
296.8558, 26.11161
297.3380, 27.68651
297.8201, 29.16825
298.3022, 30.60001
298.7843, 32.19807
299.2664, 34.26685
299.7485, 36.61211
300.2307, 38.69695
300.7128, 40.44086
301.1949, 42.14843
301.6770, 44.15987
302.1591, 46.45502
302.6412, 48.90771
303.1234, 51.65351
303.6055, 54.46663
304.0876, 57.02697
304.5697, 59.23076
305.0518, 61.47279
305.5339, 64.00670
306.0161, 66.82391
306.4982, 69.84942
306.9803, 73.09201
307.4624, 76.51102
307.9445, 80.07592
308.4266, 83.78521
308.9088, 87.45152
309.3909, 90.66812
309.8730, 93.84388
310.3551, 97.56918
310.8372, 102.7811
311.3193, 108.1330
311.8015, 112.4781
312.2836, 115.9826
312.7657, 119.5746
313.2478, 123.9431
313.7299, 128.6338
314.2120, 133.2421
314.6942, 137.3531
315.1763, 141.6581
315.6584, 146.6933
316.1405, 152.3334
316.6226, 157.7851
317.1047, 162.3547
317.5869, 166.8829
318.0690, 172.0109
318.5511, 178.1922
319.0332, 184.3505
319.5153, 189.8274
319.9974, 194.9557
320.4796, 200.3995
320.9617, 206.9881
321.4438, 213.5543
321.9259, 219.3794
322.4080, 223.9283
322.8901, 229.0807
323.3723, 235.2895
323.8544, 242.3309
324.3365, 249.9189
324.8186, 258.3806
325.3007, 266.9352
325.7828, 275.2192
326.2650, 283.0930
326.7471, 291.6158
327.2292, 300.9327
327.7113, 310.8947
328.1934, 321.3943
328.6755, 332.3732
329.1577, 343.9391
329.6398, 356.3866
330.1219, 369.7357
330.6040, 382.1764
331.0861, 392.6922
331.5682, 403.0803
332.0504, 414.5709
332.5325, 427.6376
333.0146, 440.8904
333.4967, 454.3799
333.9788, 468.1218
334.4609, 481.7977
334.9431, 495.5421
335.4252, 509.1521
335.9073, 522.4175
336.3894, 535.5862
336.8715, 548.1061
337.3536, 559.9939
337.8358, 571.3024
338.3179, 582.4063
338.8000, 593.1433
339.2821, 603.8939
339.7642, 615.2289
340.2463, 627.3059
340.7285, 637.2404
341.2106, 644.4166
341.6927, 650.2696
342.1748, 656.9147
342.6569, 664.7144
343.1390, 670.5109
343.6212, 672.9557
344.1033, 672.4644
344.5854, 671.4999
345.0675, 670.1147
345.5496, 667.9476
346.0317, 665.0226
346.5139, 661.2101
346.9960, 655.4114
347.4781, 647.0818
347.9602, 636.8286
348.4423, 625.9182
348.9244, 614.3473
349.4066, 601.7803
349.8887, 587.6929
350.3708, 572.3670
350.8529, 557.0255
351.3350, 541.9775
351.8171, 526.6971
352.2993, 510.6194
352.7814, 493.9816
353.2635, 477.1554
353.7456, 460.0409
354.2277, 442.8378
354.7098, 425.4966
355.1920, 408.0062
355.6741, 391.1024
356.1562, 375.8816
356.6383, 361.8821
357.1204, 347.9962
357.6025, 333.3095
358.0847, 318.8840
358.5668, 305.8033
359.0489, 293.8803
359.5310, 282.1457
360.0131, 269.5653
360.4952, 256.9922
360.9774, 245.4643
361.4595, 235.5245
361.9416, 226.2416
362.4237, 217.2839
362.9058, 208.6433
363.3879, 200.3311
363.8701, 192.4660
364.3522, 184.8225
364.8343, 177.2655
365.3164, 169.4104
365.7985, 162.3852
366.2806, 157.1273
366.7628, 152.7203
367.2449, 147.7635
367.7270, 140.9359
368.2091, 134.4887
368.6912, 129.2083
369.1733, 125.4187
369.6555, 121.5056
370.1376, 117.0879
370.6197, 112.7136
371.1018, 108.8013
371.5839, 105.7367
372.0660, 102.5635
372.5482, 99.11851
373.0303, 95.44688
373.5124, 91.85274
373.9945, 88.21793
374.4766, 84.84343
374.9587, 81.91430
375.4409, 79.64695
375.9230, 77.15202
376.4051, 74.21323
376.8872, 71.13008
377.3693, 68.61782
377.8514, 66.82885
378.3336, 64.99595
378.8157, 62.75409
379.2978, 60.07642
379.7799, 57.66402
380.2620, 55.51555
380.7441, 53.57129
381.2263, 51.76553
381.7084, 50.10423
382.1905, 48.54331
382.6726, 47.13106
383.1547, 45.79111
383.6368, 44.31628
384.1190, 42.68831
384.6011, 41.13000
385.0832, 39.94422
385.5653, 38.97719
386.0474, 37.74484
386.5295, 36.10328
387.0117, 34.32021
387.4938, 32.55589
387.9759, 30.88191
388.4580, 29.52621
388.9401, 28.82326
389.4222, 28.41198
389.9044, 27.95519
390.3865, 27.44199
390.8686, 26.66604
391.3507, 25.19997
391.8328, 23.42805
392.3149, 21.92844
392.7971, 21.16168
393.2792, 20.54951
393.7613, 19.79823
394.2434, 18.91284
394.7255, 18.02006
395.2076, 17.17624
395.6898, 16.34206
396.1719, 15.47704
396.6540, 14.45791
397.1361, 13.58658
397.6182, 13.07136
398.1003, 12.75388
398.5825, 12.27491
399.0646, 11.43404
399.5467, 10.54980
400.0288, 9.702393
400.5109, 8.858521
400.9930, 8.176437
401.4752, 7.766998
401.9573, 7.448906
402.4394, 7.047829
402.9215, 6.596664
403.4036, 5.999657
403.8857, 5.151878
404.3678, 4.100761
404.8499, 3.333366
405.3321, 2.926727
405.8142, 2.674843
406.2963, 2.459541
406.7784, 2.279366
407.2605, 2.113991
407.7426, 1.970299
408.2248, 1.849426
408.7069, 1.773117
409.1890, 1.754440
409.6711, 1.639610
410.1532, 1.300766
410.6353, 0.7992630
411.1175, 0.5491100
411.5996, 0.5619350
412.0817, 0.5938800
412.5638, 0.3647540
413.0459, 5.1598001E-02
413.5280, 0.4419560
414.0102, 0.7885060
414.4923, 1.034195
414.9744, 1.042801
415.4565, 0.8534850
415.9386, 0.6808550
416.4207, 0.7189030
416.9029, 0.8299100
417.3850, 0.7937160
417.8671, 0.5274280
418.3492, 0.3711620
418.8313, 0.7032390
419.3134, 1.285660
419.7956, 1.741581
420.2777, 1.855186
420.7598, 1.857063
421.2419, 1.855968
421.7240, 1.855694
422.2061, 1.860832
422.6883, 1.878098
423.1704, 1.899643
423.6525, 1.929802
424.1346, 2.070518
424.6167, 2.085476
425.0988, 1.821865
425.5810, 1.403015
426.0631, 1.138424
426.5452, 1.110840
427.0273, 1.158985
427.5094, 1.261086
427.9915, 1.441654
428.4737, 1.546730
428.9558, 1.592548
429.4379, 1.544186
429.9200, 1.333649
430.4021, 0.8755570
430.8842, 0.5279350
431.3664, 0.4235650
431.8485, 0.4573520
432.3306, 0.1513600
432.8127, 0.5741540
433.2948, 1.270054
433.7769, 1.515270
434.2591, 1.365192
434.7412, 1.735180
435.2233, 2.777168
435.7054, 3.992466
436.1875, 4.582920
436.6696, 4.682598
437.1518, 5.090702
437.6339, 6.380463
438.1160, 8.013149
438.5981, 9.012417
439.0802, 9.426083
439.5623, 9.796932
440.0445, 10.64486
440.5266, 11.64932
441.0087, 12.34602
441.4908, 12.50202
441.9729, 12.68425
442.4550, 13.25622
442.9372, 14.14190
443.4193, 15.19529
443.9014, 16.53290
444.3835, 17.86867
444.8656, 18.98514
445.3477, 19.86095
445.8299, 20.87025
446.3120, 22.02218
446.7941, 23.40390
447.2762, 25.06971
447.7583, 27.14904
448.2404, 29.38636
448.7226, 31.91954
449.2047, 34.60691
449.6868, 36.95770
450.1689, 38.84562
450.6510, 40.59699
451.1331, 42.33741
451.6153, 44.12229
452.0974, 45.68350
452.5795, 47.23023
453.0616, 48.24891
453.5437, 48.20779
454.0258, 47.06363
454.5080, 45.14595
454.9901, 42.38266
455.4722, 38.98555
455.9543, 35.37823
456.4364, 31.56935
456.9185, 27.74710
457.4007, 23.86829
457.8828, 20.05209
458.3649, 16.46509
458.8470, 13.11157
459.3291, 10.25783
459.8112, 8.483620
460.2934, 7.466324
460.7755, 6.478977
461.2576, 5.135288
461.7397, 3.799179
462.2218, 2.769302
462.7039, 2.023376
463.1861, 1.512493
463.6682, 1.378696
464.1503, 1.351860
464.6324, 1.211189
465.1145, 0.8685720
465.5966, 0.5742230
466.0788, 0.4867210
466.5609, 0.4720150
467.0430, 0.3615230
467.5251, 0.1264720
468.0072, 0.4524920
468.4893, 0.4116550
468.9715, 2.8618000E-02
469.4536, 0.2407610
469.9357, 0.3276560
470.4178, 0.3737490
470.8999, 0.4560930
471.3820, 0.6044810
471.8642, 0.6873400
472.3463, 0.6772650
472.8284, 0.6369780
473.3105, 0.6698760
473.7926, 0.7941740
474.2747, 0.8778570
474.7569, 0.8368490
475.2390, 0.7334940
475.7211, 0.8633120
476.2032, 1.237988
476.6853, 1.604942
477.1674, 1.709743
477.6496, 1.643539
478.1317, 1.727024
478.6138, 2.041920
479.0959, 2.380142
479.5780, 2.472950
480.0602, 2.406418
480.5423, 2.385933
481.0244, 2.528629
481.5065, 2.738220
481.9886, 2.927692
482.4707, 3.107838
482.9529, 3.341713
483.4350, 3.650089
483.9171, 4.032734
484.3992, 4.503521
484.8813, 5.163429
485.3634, 5.688057
485.8456, 5.835545
486.3277, 5.844563
486.8098, 6.067368
487.2919, 6.871506
487.7740, 7.531277
488.2561, 7.845814
488.7383, 7.841892
489.2204, 8.014069
489.7025, 8.353928
490.1846, 8.876602
490.6667, 9.639042
491.1488, 10.69128
491.6310, 11.59281
492.1131, 12.29000
492.5952, 12.88311
493.0773, 13.52320
493.5594, 14.21540
494.0415, 14.97699
494.5237, 15.81108
495.0058, 16.72389
495.4879, 17.79218
495.9700, 19.00102
496.4521, 20.20331
496.9342, 21.19928
497.4164, 22.15844
497.8985, 23.32749
498.3806, 24.76850
498.8627, 26.31989
499.3448, 28.00465
499.8269, 29.70325
500.3091, 31.24766
500.7912, 32.51103
501.2733, 33.66621
501.7554, 34.86720
502.2375, 36.06384
502.7196, 36.99569
503.2018, 37.84711
503.6839, 38.19451
504.1660, 37.77197
504.6481, 36.30899
505.1302, 34.81300
505.6123, 33.43148
506.0945, 31.90760
506.5766, 29.91490
507.0587, 27.20142
507.5408, 24.72796
508.0229, 22.61258
508.5050, 20.80066
508.9872, 19.08710
509.4693, 17.47544
509.9514, 15.99980
510.4335, 14.72881
510.9156, 13.62094
511.3977, 12.47208
511.8799, 11.25732
512.3619, 10.13240
512.8441, 9.182045
513.3262, 8.428841
513.8083, 7.961056
514.2904, 7.940739
514.7725, 7.976021
515.2546, 7.608620
515.7368, 6.998238
516.2189, 6.548756
516.7010, 6.693340
517.1831, 6.858795
517.6652, 6.620708
518.1473, 5.932167
518.6295, 5.438328
519.1116, 5.535358
519.5937, 5.761520
520.0758, 5.784290
520.5579, 5.237152
521.0400, 4.910263
521.5222, 4.940376
522.0043, 5.149441
522.4864, 5.195675
522.9685, 4.997509
523.4506, 4.793987
523.9327, 4.676025
524.4149, 4.628426
524.8970, 4.507038
525.3791, 4.278629
525.8612, 4.016354
526.3433, 3.785198
526.8254, 3.603443
527.3076, 3.456257
527.7897, 3.340794
528.2718, 3.204746
528.7539, 2.916512
529.2360, 2.566715
529.7181, 2.364723
530.2003, 2.523731
530.6824, 2.713013
531.1645, 2.615025
531.6466, 2.301159
532.1287, 2.014862
532.6108, 1.914490
533.0930, 1.830772
533.5751, 1.641064
534.0572, 1.298725
534.5393, 1.099838
535.0214, 1.231674
535.5035, 1.445976
535.9857, 1.526855
536.4678, 1.330391
536.9499, 1.251648
537.4320, 1.410217
537.9141, 1.652103
538.3962, 1.568432
538.8784, 1.034901
539.3605, 0.5786740
539.8426, 0.4130480
540.3247, 0.4913750
540.8068, 0.5163000
541.2889, 0.4808080
541.7711, 0.4519390
542.2532, 0.5455400
542.7353, 0.6936910
543.2174, 0.6571690
543.6995, 0.3677790
544.1816, 6.8503998E-02
544.6638, 4.7279000E-02
545.1459, 0.1847760
545.6280, 0.2643890
546.1101, 0.1370960
546.5922, 1.8818000E-02
547.0743, 0.1058770
547.5565, 0.1360400
548.0386, 0.1552010
548.5207, 0.2388530
549.0028, 0.2650910
549.4849, 0.1383900
549.9670, 0.2203450
550.4492, 0.4202500
550.9313, 0.3656120
551.4134, 0.2324300
551.8955, 0.1426810
552.3776, 8.9386001E-02
552.8597, 0.1096990
553.3419, 0.2546730
553.8240, 0.4323080
554.3061, 0.4254720
554.7882, 0.2215040
555.2703, 4.3053001E-02
555.7524, 2.7237000E-02
556.2346, 7.7020000E-03
556.7167, 8.4605999E-02
557.1988, 0.2440110
557.6809, 0.3905720
558.1630, 0.5306660
558.6451, 0.5973430
559.1273, 0.4337650
559.6094, 2.7016001E-02
560.0915, 0.4047130
560.5736, 0.4109840
561.0557, 0.2195850
561.5378, 3.1189000E-02
562.0200, 0.1226730
562.5021, 0.2365420
562.9842, 0.3661270
563.4663, 0.4600140
563.9484, 0.3564610
564.4305, 0.2380910
564.9127, 0.6696740
565.3948, 0.7119870
565.8769, 0.3601420
566.3590, 6.6113003E-02
566.8411, 0.1942980
567.3232, 0.3583220
567.8054, 0.3231540
568.2875, 9.5900998E-02
568.7696, 4.0332999E-02
569.2517, 0.2093700
569.7338, 0.4528960
570.2159, 0.6280290
570.6981, 0.7244450
571.1802, 0.7051120
571.6623, 0.4786830
572.1444, 0.2326200
572.6265, 0.1764260
573.1086, 0.2675320
573.5908, 0.3693500
574.0729, 0.3834300
574.5550, 0.4143100
575.0371, 0.5848390
575.5192, 0.9108770
576.0013, 1.060894
576.4835, 0.6238980
576.9656, 0.2201310
577.4477, 0.2820700
577.9298, 1.295467
578.4119, 1.822731
578.8940, 1.664936
579.3762, 1.187431
579.8583, 0.8749810
580.3404, 0.7434230
580.8225, 0.6780130
581.3046, 0.6451260
581.7867, 0.6685100
582.2689, 0.8736760
582.7510, 1.245983
583.2331, 1.531067
583.7152, 1.500629
584.1973, 1.328079
584.6794, 1.340664
585.1616, 1.535568
585.6437, 1.671455
586.1258, 1.514278
586.6079, 1.253464
587.0900, 1.064522
587.5721, 0.9865300
588.0543, 0.9633980
588.5364, 0.9750980
589.0185, 1.030052
589.5006, 1.140362
589.9827, 1.547081
590.4648, 1.698841
590.9470, 1.403114
591.4291, 0.8245770
591.9112, 0.5026660
592.3933, 0.4892310
592.8754, 0.5933270
593.3575, 0.7934420
593.8397, 1.060452
594.3218, 1.153355
594.8039, 1.062336
595.2860, 0.9257090
595.7681, 0.8374630
596.2502, 0.7857700
596.7324, 0.7478030
597.2145, 0.7223280
597.6966, 0.6994090
598.1787, 0.6630780
598.6608, 0.6274070
599.1429, 0.6113740
599.6251, 0.6119190
600.1072, 0.6454810
600.5893, 0.7836490
601.0714, 0.9562300
601.5535, 1.000729
602.0356, 0.7394260
602.5178, 0.5114170
602.9999, 0.3910980
603.4820, 0.3735580
603.9641, 0.3955960
604.4462, 0.4714200
604.9283, 0.5520970
605.4105, 0.6344760
605.8926, 0.7188190
606.3747, 0.6865620
606.8568, 0.5306970
607.3389, 0.3208580
607.8210, 5.3482000E-02
608.3032, 0.2224730
608.7853, 0.3553280
609.2674, 0.2897220
609.7495, 0.1365170
610.2316, 9.2216000E-02
610.7137, 0.3245810
611.1959, 0.4356540
611.6780, 0.1999090
612.1601, 8.3050001E-03
612.6422, 4.9293999E-02
613.1243, 0.2794270
613.6064, 0.4676900
614.0886, 0.6340680
614.5707, 0.6987610
615.0528, 0.5925560
615.5349, 0.2978520
616.0170, 0.1362110
616.4991, 0.1144490
616.9813, 0.2021790
617.4634, 0.4494820
617.9455, 0.8328900
618.4276, 0.9879800
618.9097, 0.8713420
619.3918, 0.6561470
619.8740, 0.5098420
620.3561, 0.4197160
620.8382, 0.3548850
621.3203, 0.3028560
621.8024, 0.2759820
622.2845, 0.3345530
622.7667, 0.4003750
623.2488, 0.3567120
623.7309, 1.9161001E-02
624.2130, 0.3057100
624.6951, 0.3080860
625.1772, 4.6581000E-02
625.6594, 0.1592030
626.1415, 0.2869030
626.6236, 0.3761710
627.1057, 0.4445270
627.5878, 0.4916570
628.0699, 0.4913180
628.5521, 0.4142380
629.0342, 0.3825190
629.5163, 0.5955090
629.9984, 0.9804570
630.4805, 1.089321
630.9626, 0.8121830
631.4448, 0.5182500
631.9269, 0.7130930
632.4090, 1.165115
632.8911, 1.437931
633.3732, 1.222534
633.8553, 0.9996830
634.3375, 1.056641
634.8196, 1.303238
635.3017, 1.544125
635.7838, 1.684963
636.2659, 1.866199
636.7480, 2.183022
637.2302, 2.606880
637.7123, 2.843735
638.1944, 2.806126
638.6765, 2.762688
639.1586, 2.860092
639.6407, 3.095840
640.1229, 3.237267
640.6050, 3.266521
641.0871, 3.319901
641.5692, 3.565857
642.0513, 3.926243
642.5334, 4.204559
643.0156, 4.356506
643.4977, 4.494240
643.9798, 4.715965
644.4619, 4.978321
644.9440, 5.227623
645.4261, 5.411488
645.9083, 5.616848
646.3904, 5.919430
646.8725, 6.267120
647.3546, 6.502296
647.8367, 6.554745
648.3188, 6.585670
648.8010, 6.639359
649.2831, 6.704494
649.7652, 6.675747
650.2473, 6.519112
650.7294, 6.335571
651.2115, 6.214211
651.6937, 6.102596
652.1758, 5.752876
652.6579, 5.163860
653.1400, 4.543842
653.6221, 3.997501
654.1042, 3.530361
654.5864, 3.173534
655.0685, 2.943764
655.5506, 2.738194
656.0327, 2.439686
656.5148, 2.177223
656.9969, 2.075886
657.4791, 2.321575
657.9612, 2.493271
658.4433, 2.610371
658.9254, 2.624794
659.4075, 2.418003
659.8896, 1.884602
660.3718, 1.540138
660.8539, 1.528564
661.3360, 1.695789
661.8181, 1.661674
662.3002, 1.446228
662.7823, 1.244366
663.2645, 1.144520
663.7466, 1.108601
664.2287, 1.125774
664.7108, 1.185764
665.1929, 1.181114
665.6750, 0.9716450
666.1572, 0.7379340
666.6393, 0.5790060
667.1214, 0.5084000
667.6035, 0.5413400
668.0856, 0.7858470
668.5677, 1.055218
669.0499, 1.233913
669.5320, 1.289715
670.0141, 1.393288
670.4962, 1.585522
670.9783, 1.744591
671.4604, 1.670719
671.9426, 1.413815
672.4247, 1.347954
672.9068, 1.570038
673.3889, 1.833046
673.8710, 1.800182
674.3531, 1.588470
674.8353, 1.433777
675.3174, 1.442905
675.7995, 1.500618
676.2816, 1.565067
676.7637, 1.628296
677.2458, 1.673588
677.7280, 1.640846
678.2101, 1.653889
678.6922, 1.763805
679.1743, 1.948021
679.6564, 2.070114
680.1385, 2.110596
680.6207, 2.152004
681.1028, 2.226360
681.5849, 2.332756
682.0670, 2.490120
682.5491, 2.706116
683.0313, 2.886166
683.5134, 2.921894
683.9955, 2.885761
684.4776, 2.873890
684.9597, 2.895840
685.4418, 2.933918
685.9240, 3.024967
686.4061, 3.098267
686.8882, 3.092899
687.3703, 2.959888
687.8524, 2.825020
688.3345, 2.664906
688.8167, 2.532688
689.2988, 2.519733
689.7809, 2.673508
690.2630, 2.685978
690.7451, 2.543594
691.2272, 2.278725
691.7094, 1.836620
692.1915, 1.284576
692.6736, 0.9485510
693.1557, 1.021023
693.6378, 1.219425
694.1199, 1.283058
694.6021, 1.239052
695.0842, 1.147152
695.5663, 0.9595640
696.0484, 0.8038560
696.5305, 0.7826540
697.0126, 0.8611300
697.4948, 0.8093260
697.9769, 0.4579350
698.4590, 0.2135930
698.9411, 0.2686160
699.4232, 0.5867120
699.9053, 0.6716310
700.3875, 0.4957660
700.8696, 0.2963830
701.3517, 0.2391050
701.8338, 0.2769850
702.3159, 0.3069190
702.7980, 0.3241270
703.2802, 0.2769360
703.7623, 2.7718000E-02
704.2444, 0.3196220
704.7265, 0.2729720
705.2086, 0.2815630
705.6907, 0.6180610
706.1729, 0.2631570
706.6550, 0.2220120
707.1371, 0.3600810
707.6192, 7.3448002E-02
708.1013, 0.3535390
708.5834, 0.4383740
709.0656, 0.4037250
709.5477, 0.3084530
710.0298, 0.1659550
710.5119, 0.1740420
710.9940, 0.4092900
711.4761, 0.7086300
711.9582, 0.9138370
712.4403, 1.019302
712.9224, 1.004341
713.4045, 0.7302470
713.8867, 0.4869160
714.3688, 0.4450570
714.8509, 0.5442010
715.3330, 0.6428910
715.8151, 0.8496020
716.2972, 0.8757320
716.7794, 0.5682640
717.2615, 5.9581999E-02
717.7436, 0.1268540
718.2257, 6.6261001E-02
718.7078, 0.2438430
719.1899, 0.2348480
719.6721, 0.1004410
720.1542, 6.2687002E-02
720.6363, 0.2282980
721.1184, 0.2183040
721.6005, 0.2894170
722.0826, 0.8618200
722.5648, 1.082577
723.0469, 0.9533000
723.5290, 0.7853890
724.0111, 0.7035180
724.4932, 0.5932080
724.9753, 0.3561480
725.4575, 4.8785999E-02
725.9396, 0.2150040
726.4217, 8.6800002E-02
726.9038, 0.1444320
727.3859, 0.4352070
727.8680, 0.7658500
728.3502, 0.7255820
728.8323, 0.2607420
729.3144, 0.1946600
729.7965, 0.1998750
730.2786, 6.9168001E-02
730.7607, 0.3910520
731.2429, 0.7802580
731.7250, 0.9909400
732.2071, 0.7114980
732.6892, 0.2896500
733.1713, 7.7510998E-02
733.6534, 0.2636680
734.1356, 0.3726540
734.6177, 0.3557850
735.0998, 0.3227350
735.5819, 0.4472120
736.0640, 0.7488060
736.5461, 0.9553340
737.0283, 1.014244
737.5104, 0.9843180
737.9925, 0.9585460
738.4746, 0.9135590
738.9567, 0.7774810
739.4388, 0.4079780
739.9210, 0.1141930
740.4031, 0.1907540
740.8852, 0.4788590
741.3673, 0.6767160
741.8494, 0.6377330
742.3315, 0.5979190
742.8137, 0.5790250
743.2958, 0.5670470
743.7779, 0.5784150
744.2600, 0.6314960
744.7421, 0.6393130
745.2242, 0.5737150
745.7064, 0.4437680
746.1885, 0.1900830
746.6706, 0.1387630
747.1527, 0.2820360
747.6348, 0.1398240
748.1169, 0.6292950
748.5991, 0.7088280
749.0812, 0.4434240
749.5633, 0.2168500
750.0454, 5.7190001E-02
750.5275, 6.1756000E-02
751.0096, 0.3798290
751.4918, 0.9621580
751.9739, 1.200932
752.4560, 0.9860420
752.9381, 0.7223170
753.4202, 0.6073490
753.9023, 0.6144490
754.3845, 0.6097950
754.8666, 0.5937120
755.3487, 0.5802540
755.8308, 0.5783620
756.3129, 0.5851210
756.7950, 0.5997050
757.2772, 0.6220090
757.7593, 0.6438640
758.2414, 0.6576420
758.7235, 0.6753620
759.2056, 0.7302280
759.6877, 0.8528520
760.1699, 0.8005910
760.6520, 0.4902880
761.1341, 0.1823540
761.6162, 5.0590999E-02
762.0983, 7.9467997E-02
762.5804, 0.2856640
763.0626, 0.6952900
763.5447, 1.010670
764.0268, 0.9043080
764.5089, 0.5770760
764.9910, 0.2738950
765.4731, 3.6842000E-02
765.9553, 8.2989000E-02
766.4374, 9.3609998E-03
766.9195, 0.1583060
767.4016, 0.3602490
767.8837, 0.6721990
768.3658, 0.7889560
768.8480, 0.6385420
769.3301, 0.4132650
769.8122, 0.2953990
770.2943, 0.2782060
770.7764, 0.3124690
771.2585, 0.4045720
771.7407, 0.4687390
772.2228, 0.3599360
772.7049, 0.1899640
773.1870, 0.1409650
773.6691, 0.3334770
774.1512, 0.4365430
774.6334, 0.2002940
775.1155, 0.1242830
775.5976, 0.2698820
776.0797, 0.1372260
776.5618, 2.2361999E-02
777.0439, 0.2421680
777.5261, 0.4188920
778.0082, 0.3420490
778.4903, 5.0551999E-02
778.9724, 2.7752001E-02
779.4545, 0.2520830
779.9366, 0.5605770
780.4188, 0.4997220
780.9009, 0.2463570
781.3830, 7.9487003E-02
781.8651, 0.1556660
782.3472, 0.1995350
782.8293, 5.6263000E-02
783.3115, 0.1448480
783.7936, 0.2233310
784.2757, 0.1252440
784.7578, 2.4712000E-02
785.2399, 0.2344700
785.7220, 0.4413640
786.2042, 0.5327190
786.6863, 0.5220220
787.1684, 0.4821740
787.6505, 0.4280930
788.1326, 0.4251060
788.6147, 0.6356320
789.0969, 0.8907320
789.5790, 0.9170110
790.0611, 0.2200970
790.5432, 0.2254600
791.0253, 3.7361000E-02
791.5074, 0.5955160
791.9896, 0.7933620
792.4717, 0.4904820
792.9538, 0.2947620
793.4359, 0.3296550
793.9180, 0.4655380
794.4001, 0.4648930
794.8823, 0.3606800
795.3644, 0.3009340
795.8465, 0.3453410
796.3286, 0.4236490
796.8107, 0.5103910
797.2928, 0.5826230
797.7750, 0.6017910
798.2571, 0.5600700
798.7392, 0.4599340
799.2213, 0.2069820
799.7034, 5.6476999E-02
800.1855, 5.1647000E-02
800.6677, 0.2822570
801.1498, 0.5361250
801.6319, 0.6121180
802.1140, 0.5911670
802.5961, 0.6066510
803.0782, 0.6392400
803.5604, 0.6305620
804.0425, 0.5464780
804.5246, 0.4213030
805.0067, 0.2135960
805.4888, 4.1522998E-02
805.9709, 2.7222000E-02
806.4531, 0.3787460
806.9352, 0.6517300
807.4173, 0.7703320
807.8994, 0.8080370
808.3815, 0.9087490
808.8636, 1.078976
809.3458, 1.244690
809.8279, 1.393856
810.3100, 1.516891
810.7921, 1.600174
811.2742, 1.645508
811.7563, 1.659073
812.2385, 1.698387
812.7206, 1.629517
813.2027, 1.204281
813.6848, 0.6911430
814.1669, 0.5716090
814.6490, 1.184914
815.1312, 1.498749
815.6133, 1.320400
816.0954, 0.8962670
816.5775, 0.6120030
817.0596, 0.4574050
817.5417, 0.3498190
818.0239, 0.2554550
818.5060, 0.2335360
818.9881, 0.4094540
819.4702, 0.6751290
819.9523, 0.8769840
820.4344, 0.9837380
820.9166, 1.002113
821.3987, 0.8157350
821.8808, 0.6006200
822.3629, 0.6090430
822.8450, 0.9200820
823.3271, 1.070019
823.8093, 0.9627490
824.2914, 0.7745360
824.7735, 0.7611580
825.2556, 0.8619380
825.7377, 0.8913540
826.2198, 0.7916640
826.7020, 0.6796650
827.1841, 0.5750080
827.6662, 0.4986190
828.1483, 0.4767800
828.6304, 0.4725380
829.1125, 0.5771370
829.5947, 0.9161380
830.0768, 1.276463
830.5589, 1.360817
831.0410, 1.158054
831.5231, 1.073997
832.0052, 1.179932
832.4874, 1.310123
832.9695, 1.236404
833.4516, 1.052307
833.9337, 0.9177060
834.4158, 0.8716550
834.8979, 0.9043200
835.3801, 1.135231
835.8622, 1.363758
836.3443, 1.384838
836.8264, 1.024391
837.3085, 0.9967880
837.7906, 1.407162
838.2728, 1.866005
838.7549, 1.884094
839.2370, 1.550938
839.7191, 1.340744
840.2012, 1.304131
840.6833, 1.307941
841.1655, 1.155430
841.6476, 1.063454
842.1297, 1.311962
842.6118, 2.130344
843.0939, 2.476604
843.5760, 1.885178
844.0582, 1.355980
844.5403, 1.731331
845.0224, 3.048752
845.5045, 3.348999
845.9866, 2.593430
846.4688, 1.694386
846.9509, 1.348984
847.4330, 1.307262
847.9151, 1.261299
848.3972, 1.169151
848.8793, 1.151646
849.3615, 1.290051
849.8436, 1.442844
850.3257, 1.535439
850.8078, 1.564960
851.2899, 1.639744
851.7720, 1.776615
852.2542, 1.892292
852.7363, 1.926125
853.2184, 1.904617
853.7005, 1.900814
854.1826, 1.911476
854.6647, 1.915161
855.1469, 1.878662
855.6290, 1.850071
856.1111, 1.845146
856.5932, 1.870644
857.0753, 1.969158
857.5574, 2.242229
858.0396, 2.384815
858.5217, 2.237930
859.0038, 1.928143
859.4859, 1.993305
859.9680, 2.393147
860.4501, 2.691059
860.9323, 2.668583
861.4144, 2.476501
861.8965, 2.114189
862.3786, 1.707233
862.8607, 1.542797
863.3428, 2.054161
863.8250, 2.392681
864.3071, 2.345791
864.7892, 2.060093
865.2713, 1.807407
865.7534, 1.578476
866.2355, 1.482872
866.7177, 1.578602
867.1998, 1.736355
867.6819, 1.771496
868.1640, 1.733509
868.6461, 1.718243
869.1282, 1.728291
869.6104, 1.815212
870.0925, 2.110615
870.5746, 2.438011
871.0567, 2.596760
871.5388, 2.587311
872.0209, 2.361492
872.5031, 1.837204
872.9852, 1.314270
873.4673, 1.207108
873.9494, 1.382359
874.4315, 1.450356
874.9136, 1.349182
875.3958, 1.170010
875.8779, 0.8346440
876.3600, 0.5372620
876.8421, 0.4691120
877.3242, 0.7446860
877.8063, 0.9383510
878.2885, 1.061394
878.7706, 1.081314
879.2527, 0.8850360
879.7348, 0.5280490
880.2169, 0.5310210
880.6990, 0.8784870
881.1812, 1.117153
881.6633, 0.7627110
882.1454, 0.2702180
882.6275, 7.3996998E-02
883.1096, 0.1728630
883.5917, 0.1489980
884.0739, 0.2385940
884.5560, 0.5556720
885.0381, 0.6681980
885.5202, 0.5921290
886.0023, 0.3307570
886.4844, 0.1119650
886.9666, 0.3370930
887.4487, 2.4860000E-02
887.9308, 0.5403290
888.4129, 0.6859210
888.8950, 0.5619580
889.3771, 0.4294400
889.8593, 0.4362600
890.3414, 0.3685610
890.8235, 8.3636999E-02
891.3056, 0.2628820
891.7877, 0.3404080
892.2698, 0.1204680
892.7520, 0.1047290
893.2341, 0.2897190
893.7162, 0.4066010
894.1983, 0.3548740
894.6804, 0.2209590
895.1625, 0.2107430
895.6447, 0.6059380
896.1268, 0.6132280
896.6089, 0.6172680
897.0910, 2.005024
897.5731, 2.494396
898.0552, 1.751453
898.5374, 1.298229
899.0195, 1.183174
899.5016, 1.263725
899.9837, 1.514111
900.4658, 1.828339
900.9479, 1.936359
901.4301, 1.810791
901.9122, 1.775719
902.3943, 1.980816
902.8764, 2.356121
903.3585, 2.951664
903.8406, 3.764233
904.3228, 4.277248
904.8049, 4.397762
905.2870, 4.503876
905.7691, 4.772232
906.2512, 5.175030
906.7333, 5.689423
907.2155, 6.293346
907.6976, 6.864521
908.1797, 7.341820
908.6618, 7.766148
909.1439, 8.057873
909.6260, 8.309082
910.1082, 8.825737
910.5903, 9.748402
911.0724, 10.59248
911.5545, 11.27056
912.0366, 11.79974
912.5187, 12.08743
913.0009, 12.23978
913.4830, 12.65841
913.9651, 13.58041
914.4472, 14.47066
914.9293, 14.98397
915.4114, 15.26672
915.8936, 15.46755
916.3757, 15.49568
916.8578, 15.71227
917.3399, 16.22586
917.8220, 16.69372
918.3041, 16.75966
918.7863, 16.50091
919.2684, 16.20710
919.7505, 15.89796
920.2326, 15.62132
920.7147, 15.58147
921.1968, 15.45304
921.6790, 14.91405
922.1611, 13.92537
922.6432, 13.13530
923.1253, 12.64869
923.6074, 12.17168
924.0895, 11.57951
924.5717, 10.90471
925.0538, 10.32361
925.5359, 9.798916
926.0180, 9.163898
926.5001, 8.162281
926.9822, 7.193172
927.4644, 6.576054
927.9465, 6.163464
928.4286, 5.621487
928.9107, 4.808723
929.3928, 4.097012
929.8749, 3.532066
930.3571, 3.080303
930.8392, 2.691689
931.3213, 2.364590
931.8034, 2.104481
932.2855, 1.916759
932.7676, 1.766834
933.2498, 1.699852
933.7319, 1.612019
934.2140, 1.378242
934.6961, 0.8919940
935.1782, 0.6049120
935.6603, 0.6119770
936.1425, 0.6114810
936.6246, 0.3205220
937.1067, 0.1539040
937.5888, 0.2733500
938.0709, 8.0738001E-02
938.5530, 6.3754998E-02
939.0352, 0.1597330
939.5173, 0.4097900
939.9994, 0.4566800
940.4815, 0.3356740
940.9636, 0.2385830
941.4457, 0.2325710
941.9279, 0.1137660
942.4100, 0.2449070
942.8921, 0.6515850
943.3742, 0.6252290
943.8563, 0.3181650
944.3384, 0.2371220
944.8206, 0.6172900
945.3027, 0.9646530
945.7848, 0.8114240
946.2669, 0.5593610
946.7490, 0.6840710
947.2311, 1.401257
947.7133, 1.941067
948.1954, 2.278683
948.6775, 2.540367
949.1596, 2.792877
949.6417, 3.039707
950.1238, 3.286507
950.6060, 3.534714
951.0881, 3.898705
951.5702, 4.598957
952.0523, 5.307407
952.5344, 5.763309
953.0165, 6.027992
953.4987, 6.553349
953.9808, 7.433372
954.4629, 8.315159
954.9450, 8.995285
955.4271, 9.587742
955.9092, 10.28337
956.3914, 11.05050
956.8735, 11.80502
957.3556, 12.36075
957.8376, 13.12928
958.3198, 14.37193
958.8019, 15.83394
959.2840, 17.27055
959.7661, 18.66988
960.2482, 20.11785
960.7303, 21.63267
961.2125, 23.14786
961.6946, 24.48988
962.1767, 25.86397
962.6588, 27.62289
963.1409, 29.78159
963.6230, 32.06880
964.1052, 34.53166
964.5873, 36.95280
965.0694, 39.24732
965.5515, 41.45059
966.0336, 43.65662
966.5157, 45.85649
966.9979, 48.27534
967.4800, 51.04074
967.9621, 53.98531
968.4442, 56.92445
968.9263, 59.87586
969.4084, 62.81839
969.8906, 65.72109
970.3727, 68.65160
970.8548, 71.69378
971.3369, 74.69396
971.8190, 77.50084
972.3011, 80.11350
972.7833, 82.82784
973.2654, 85.67015
973.7475, 88.30039
974.2296, 90.40306
974.7117, 92.19812
975.1938, 93.91226
975.6760, 95.54500
976.1581, 96.86302
976.6402, 97.92453
977.1223, 98.51353
977.6044, 98.43998
978.0865, 97.91637
978.5687, 97.57686
979.0508, 97.32163
979.5329, 96.75982
980.0150, 95.68540
980.4971, 94.32482
980.9792, 92.60287
981.4614, 90.77556
981.9435, 89.18884
982.4256, 87.92265
982.9077, 86.65167
983.3898, 85.29756
983.8719, 84.18121
984.3541, 83.74585
984.8362, 83.70679
985.3183, 83.45441
985.8004, 82.95525
986.2825, 82.87056
986.7646, 83.46445
987.2468, 84.59641
987.7289, 86.20642
988.2110, 88.26666
988.6931, 90.59584
989.1752, 93.19668
989.6573, 96.17081
990.1395, 99.63475
990.6216, 103.3805
991.1037, 107.2301
991.5858, 111.1730
992.0679, 115.2234
992.5500, 119.4813
993.0322, 123.6549
993.5143, 127.9379
993.9964, 131.8761
994.4785, 135.1157
994.9606, 137.6478
995.4427, 139.3113
995.9249, 140.0894
996.4070, 139.7978
996.8891, 138.4249
997.3712, 135.8167
997.8533, 131.5035
998.3354, 125.6608
998.8176, 119.7788
999.2997, 113.9073
999.7818, 107.8832
1000.264, 101.7159
1000.746, 95.48104
1001.228, 89.39070
1001.710, 83.48373
1002.192, 77.89194
1002.674, 72.70411
1003.157, 67.82125
1003.639, 63.36275
1004.121, 59.20506
1004.603, 55.30713
1005.085, 51.63226
1005.567, 48.31265
1006.049, 45.35583
1006.531, 42.64822
1007.014, 40.09159
1007.496, 37.71733
1007.978, 35.44545
1008.460, 33.33162
1008.942, 31.42043
1009.424, 29.95272
1009.906, 28.39066
1010.388, 26.54404
1010.870, 24.66187
1011.353, 23.22194
1011.835, 22.15387
1012.317, 21.21691
1012.799, 20.39387
1013.281, 19.49924
1013.763, 18.25604
1014.245, 16.99492
1014.727, 16.04348
1015.210, 15.42432
1015.692, 14.79047
1016.174, 14.13122
1016.656, 13.48473
1017.138, 12.88886
1017.620, 12.30480
1018.102, 11.61922
1018.584, 10.89895
1019.066, 10.30674
1019.549, 10.10595
1020.031, 9.814137
1020.513, 9.231792
1020.995, 8.539059
1021.477, 7.904762
1021.959, 7.329632
1022.441, 6.952156
1022.923, 6.789024
1023.406, 6.667950
1023.888, 6.472561
1024.370, 6.224865
1024.852, 5.920151
1025.334, 5.573914
1025.816, 5.177105
1026.298, 4.705227
1026.780, 4.254917
1027.262, 3.849930
1027.745, 3.490833
1028.227, 3.164593
1028.709, 2.892063
1029.191, 2.733715
1029.673, 2.766880
1030.155, 2.773071
1030.637, 2.638058
1031.119, 2.449593
1031.602, 2.286049
1032.084, 2.140987
1032.566, 1.967384
1033.048, 1.776451
1033.530, 1.585850
1034.012, 1.373180
1034.494, 1.194340
1034.976, 1.171131
1035.458, 1.235901
1035.941, 1.174797
1036.423, 0.7384450
1036.905, 0.5231400
1037.387, 0.6865880
1037.869, 0.9433330
1038.351, 0.8089100
1038.833, 0.4211850
1039.315, 0.3031080
1039.797, 0.5294420
1040.280, 0.6282160
1040.762, 0.1165850
1041.244, 0.3672030
1041.726, 0.3851810
1042.208, 5.3790002E-03
1042.690, 0.2069050
1043.172, 0.2352410
1043.654, 0.2860720
1044.137, 0.5041120
1044.619, 0.6973110
1045.101, 0.5506060
1045.583, 0.2506830
1046.065, 0.1048510
1046.547, 0.3853000
1047.029, 0.3992960
1047.511, 4.9281999E-02
1047.994, 0.4558790
1048.476, 0.2985500
1048.958, 0.2396090
1049.440, 0.3882980
1049.922, 0.1895330
1050.404, 1.5999001E-02
1050.886, 3.7701000E-02
1051.368, 0.1743510
1051.850, 0.5094600
1052.333, 0.8931770
1052.815, 1.014042
1053.297, 0.8385350
1053.779, 0.7854270
1054.261, 0.9455640
1054.743, 1.087154
1055.225, 0.8864780
1055.707, 0.5879710
1056.189, 0.4469720
1056.672, 0.5002980
1057.154, 0.6848720
1057.636, 1.119320
1058.118, 1.393833
1058.600, 1.274426
1059.082, 0.9692190
1059.564, 1.043785
1060.046, 1.363518
1060.529, 1.538754
1061.011, 1.409851
1061.493, 1.166637
1061.975, 0.8163410
1062.457, 0.4342840
1062.939, 2.7915999E-02
1063.421, 0.4211270
1063.903, 0.4482730
1064.385, 4.9763002E-02
1064.868, 0.2724530
1065.350, 3.7537001E-02
1065.832, 0.2924460
1066.314, 0.2934300
1066.796, 6.2954001E-02
1067.278, 7.6053999E-02
1067.760, 9.3566999E-02
1068.242, 3.0842001E-02
1068.724, 0.1382710
1069.207, 0.2914810
1069.689, 0.2237240
1070.171, 5.8120999E-02
1070.653, 3.8479000E-02
1071.135, 0.1896170
1071.617, 0.3246840
1072.099, 0.4125820
1072.581, 0.4363940
1073.064, 0.3769450
1073.546, 0.2535550
1074.028, 0.1297760
1074.510, 4.1120001E-03
1074.992, 0.1773260
1075.474, 0.4935110
1075.956, 0.6732520
1076.438, 0.3561970
1076.921, 8.0527999E-02
1077.403, 0.2559360
1077.885, 0.1260990
1078.367, 2.3293000E-02
1078.849, 0.1789050
1079.331, 0.2796520
1079.813, 0.3141820
1080.295, 0.2661780
1080.777, 1.1982000E-02
1081.260, 0.3772240
1081.742, 0.5047910
1082.224, 5.6122001E-02
1082.706, 0.2504880
1083.188, 0.3600850
1083.670, 0.3692740
1084.152, 0.3257480
1084.634, 0.2657170
1085.116, 0.3397370
1085.599, 0.5377770
1086.081, 0.6648290
1086.563, 0.5422330
1087.045, 0.4198650
1087.527, 0.4279480
1088.009, 0.4830740
1088.491, 0.3413510
1088.973, 2.2601999E-02
1089.455, 3.3390000E-02
1089.938, 0.2874370
1090.420, 0.6314160
1090.902, 0.7120440
1091.384, 0.6828580
1091.866, 0.6954690
1092.348, 0.7568210
1092.830, 0.6012040
1093.312, 0.1647720
1093.795, 0.1242100
1094.277, 5.7544999E-02
1094.759, 0.1476360
1095.241, 0.2294390
1095.723, 0.2163160
1096.205, 0.1294630
1096.687, 0.1611250
1097.169, 0.1703380
1097.651, 0.2500190
1098.134, 0.7056540
1098.616, 0.9688950
1099.098, 1.042225
1099.580, 0.8357850
1100.062, 0.4612500
1100.544, 0.3034250
1101.026, 0.8312380
1101.508, 1.249107
1101.990, 1.263344
1102.473, 1.091122
1102.955, 0.8926850
1103.437, 0.6800000
1103.919, 0.8003920
1104.401, 1.272964
1104.883, 1.637180
1105.365, 1.420055
1105.847, 1.103256
1106.330, 1.050674
1106.812, 1.208313
1107.294, 1.308201
1107.776, 1.338642
1108.258, 1.361629
1108.740, 1.373264
1109.222, 1.450935
1109.704, 1.790138
1110.187, 2.178196
1110.669, 2.374191
1111.151, 2.337109
1111.633, 2.151623
1112.115, 1.650890
1112.597, 1.502144
1113.079, 2.109936
1113.561, 2.957409
1114.043, 2.916313
1114.526, 2.336529
1115.008, 1.926361
1115.490, 1.901878
1115.972, 1.925270
1116.454, 1.949760
1116.936, 1.961266
1117.418, 1.948593
1117.900, 1.916779
1118.382, 1.905224
1118.865, 1.899376
1119.347, 1.824883
1119.829, 1.525082
1120.311, 1.311237
1120.793, 1.417267
1121.275, 1.580276
1121.757, 1.559086
1122.239, 1.366768
1122.722, 1.342693
1123.204, 1.487354
1123.686, 1.571735
1124.168, 1.467587
1124.650, 1.278027
1125.132, 0.9855960
1125.614, 0.6562920
1126.096, 0.4471320
1126.578, 0.3384360
1127.061, 0.4548340
1127.543, 0.8729290
1128.025, 1.209961
1128.507, 0.9193500
1128.989, 0.4320260
1129.471, 0.2424130
1129.953, 0.3642010
1130.435, 0.4645080
1130.917, 0.4811630
1131.400, 0.6116220
1131.882, 0.9589120
1132.364, 1.287174
1132.846, 1.165909
1133.328, 0.8085170
1133.810, 0.5989760
1134.292, 0.6170460
1134.774, 0.5319400
1135.257, 0.1266170
1135.739, 0.1175610
1136.221, 1.1906000E-02
1136.703, 0.3624950
1137.185, 0.6167110
1137.667, 0.7741360
1138.149, 0.8307300
1138.631, 0.7580950
1139.114, 0.6469150
1139.596, 0.6022220
1140.078, 0.5852090
1140.560, 0.5215190
1141.042, 0.4221120
1141.524, 0.4627840
1142.006, 0.6105880
1142.488, 0.6758580
1142.970, 0.4810370
1143.453, 0.3344190
1143.935, 0.4556880
1144.417, 0.6609460
1144.899, 0.7904510
1145.381, 0.8493920
1145.863, 0.7241210
1146.345, 0.4216880
1146.827, 0.1932680
1147.309, 0.2975650
1147.792, 0.4845580
1148.274, 0.5622980
1148.756, 0.5721400
1149.238, 0.6215400
1149.720, 0.7447590
1150.202, 0.6757700
1150.684, 0.3747710
1151.166, 0.1624180
1151.649, 0.5061840
1152.131, 0.9259870
1152.613, 0.8926240
1153.095, 0.5110320
1153.577, 0.2919390
1154.059, 0.2800250
1154.541, 0.3726840
1155.023, 0.6157910
1155.505, 0.8172950
1155.988, 0.6261290
1156.470, 0.2854500
1156.952, 7.9544000E-02
1157.434, 3.2738000E-02
1157.916, 0.1342090
1158.398, 0.5152400
1158.880, 0.6731380
1159.362, 0.3992460
1159.844, 5.3692002E-02
1160.327, 0.2471730
1160.809, 0.7035900
1161.291, 0.9612200
1161.773, 0.9405750
1162.255, 0.8891410
1162.737, 0.8719940
1163.219, 0.7903100
1163.701, 0.5690800
1164.184, 0.3213160
1164.666, 0.3196870
1165.148, 0.4696850
1165.630, 0.5650520
1166.112, 0.5603870
1166.594, 0.4735300
1167.076, 0.1830670
1167.558, 1.0190000E-03
1168.041, 9.9739000E-02
1168.523, 0.3894690
1169.005, 0.7000010
1169.487, 0.9592820
1169.969, 0.8875120
1170.451, 0.1237370
1170.933, 0.3267330
1171.415, 0.2331580
1171.897, 0.8427200
1172.380, 0.8816030
1172.862, 0.4794120
1173.344, 0.4300310
1173.826, 0.6593400
1174.308, 0.8114240
1174.790, 0.5993800
1175.272, 0.4725380
1175.754, 0.7733540
1176.236, 1.096645
1176.719, 1.094933
1177.201, 0.7820970
1177.683, 0.4437260
1178.165, 0.1145940
1178.647, 6.7589000E-02
1179.129, 0.8774150
1179.611, 1.521091
1180.093, 1.343674
1180.576, 0.8509980
1181.058, 0.5880700
1181.540, 0.5580480
1182.022, 0.5740280
1182.504, 0.6270290
1182.986, 0.6766090
1183.468, 0.7149580
1183.950, 0.7186810
1184.432, 0.6174740
1184.915, 0.5069810
1185.397, 0.5713500
1185.879, 0.8186260
1186.361, 0.8564570
1186.843, 0.6305770
1187.325, 0.4482500
1187.807, 0.6175460
1188.289, 0.8402560
1188.771, 0.9323920
1189.254, 0.9156300
1189.736, 0.8233180
1190.218, 0.6449130
1190.700, 0.5634350
1191.182, 0.5944560
1191.664, 0.6471330
1192.146, 0.6669350
1192.628, 0.6577530
1193.111, 0.5882610
1193.593, 0.4817850
1194.075, 0.4985890
1194.557, 0.6634180
1195.039, 0.5483630
1195.521, 1.7208001E-02
1196.003, 0.3641970
1196.485, 0.1673240
1196.968, 0.8603290
1197.450, 1.037163
1197.932, 0.7749940
1198.414, 0.6881140
1198.896, 0.7932240
1199.378, 0.8702090
1199.860, 0.8738250
1200.342, 0.8533060
1200.824, 0.7629510
1201.307, 0.7097550
1201.789, 0.8237080
1202.271, 1.084709
1202.753, 1.236073
1203.235, 1.273148
1203.717, 1.213615
1204.199, 1.034618
1204.681, 0.8545460
1205.163, 0.7889560
1205.646, 0.7888110
1206.128, 0.8394360
1206.610, 0.9318770
1207.092, 0.8615260
1207.574, 0.6129950
1208.056, 0.4305080
1208.538, 0.3974840
1209.020, 0.4595070
1209.503, 0.6470380
1209.985, 0.8565520
1210.467, 0.9715540
1210.949, 0.9916420
1211.431, 0.9313050
1211.913, 0.7859340
1212.395, 0.6504020
1212.877, 0.5393330
1213.359, 0.4992220
1213.842, 0.6390380
1214.324, 0.8331340
1214.806, 0.9427340
1215.288, 0.9668270
1215.770, 0.9003450
1216.252, 0.7396510
1216.734, 0.6377560
1217.216, 0.7048260
1217.698, 0.7835960
1218.181, 0.7487910
1218.663, 0.6504590
1219.145, 0.5307160
1219.627, 0.3840330
1220.109, 0.3209920
1220.591, 0.3424450
1221.073, 0.4311870
1221.555, 0.6891370
1222.038, 0.8406490
1222.520, 0.4688450
1223.002, 9.9409996E-03
1223.484, 6.1976999E-02
1223.966, 0.3716930
1224.448, 0.6752430
1224.930, 0.8489760
1225.412, 0.9259760
1225.895, 0.9195630
1226.377, 0.8430940
1226.859, 0.6002660
1227.341, 0.3594170
1227.823, 0.3560830
1228.305, 0.6261480
1228.787, 0.5838390
1229.269, 0.2902950
1229.751, 0.1031650
1230.234, 0.3477630
1230.716, 0.6358490
1231.198, 0.8137320
1231.680, 0.8489690
1232.162, 0.6477550
1232.644, 0.1853520
1233.126, 0.1093600
1233.608, 0.3878710
1234.090, 0.6244010
1234.573, 0.5133930
1235.055, 0.3877600
1235.537, 0.4673540
1236.019, 0.5900690
1236.501, 0.5672040
1236.983, 0.4100610
1237.465, 0.4201130
1237.947, 0.5789340
1238.430, 0.7013440
1238.912, 0.6516190
1239.394, 0.5789490
1239.876, 0.4879530
1240.358, 0.4529460
1240.840, 0.6056560
1241.322, 0.9036030
1241.804, 1.022385
1242.286, 0.9594840
1242.769, 0.7537230
1243.251, 0.1436120
1243.733, 0.2193980
1244.215, 6.0084999E-02
1244.697, 0.2917330
1245.179, 0.5687790
1245.661, 0.7669450
1246.143, 0.9043660
1246.625, 0.9649620
1247.108, 0.8511350
1247.590, 0.2074470
1248.072, 0.1406750
1248.554, 5.3837001E-02
1249.036, 0.4040370
1249.518, 0.5139010
1250.000, 0.4747580
1250.482, 0.5697210
1250.965, 0.7398220
1251.447, 0.8584790
1251.929, 0.7738000
1252.411, 0.6979980
1252.893, 0.6398390
1253.375, 0.6284640
1253.857, 0.7331350
1254.339, 0.8863980
1254.822, 1.009022
1255.304, 1.067638
1255.786, 0.9549640
1256.268, 0.4903950
1256.750, 0.1006700
1257.232, 0.2206270
1257.714, 0.3570060
1258.196, 7.8389999E-03
1258.678, 0.4585650
1259.161, 0.4485930
1259.643, 0.1130490
1260.125, 2.3608999E-02
1260.607, 0.1771850
1261.089, 0.3487170
1261.571, 0.4710810
1262.053, 0.5401500
1262.535, 0.5023610
1263.017, 0.4513170
1263.500, 0.5485270
1263.982, 0.6937560
1264.464, 0.6066320
1264.946, 0.1873970
1265.428, 3.2543000E-02
1265.910, 0.1807790
1266.392, 0.3365860
1266.874, 0.2013510
1267.357, 5.8502000E-02
1267.839, 0.1427840
1268.321, 0.3605080
1268.803, 0.5403020
1269.285, 0.6841470
1269.767, 0.7357100
1270.249, 0.6944690
1270.731, 0.5797690
1271.214, 0.2683940
1271.696, 4.1706000E-02
1272.178, 0.1138880
1272.660, 0.3144340
1273.142, 0.5047870
1273.624, 0.6729970
1274.106, 0.6762050
1274.588, 0.5304760
1275.070, 0.3762550
1275.552, 0.3200570
1276.035, 0.3228420
1276.517, 0.3893930
1276.999, 0.4783520
1277.481, 0.6187320
1277.963, 0.7649310
1278.445, 0.7182880
1278.927, 0.5399440
1279.409, 0.5103720
1279.892, 1.005562
1280.374, 1.239300
1280.856, 1.072239
1281.338, 0.7583810
1281.820, 0.3454900
1282.302, 6.4773999E-02
1282.784, 0.1127470
1283.266, 0.3816680
1283.749, 0.5683170
1284.231, 0.5379180
1284.713, 0.5530130
1285.195, 0.6313210
1285.677, 0.7066150
1286.159, 0.7754900
1286.641, 0.7785380
1287.123, 0.5560650
1287.605, 0.2505000
1288.088, 0.1566310
1288.570, 0.3407750
1289.052, 0.5343740
1289.534, 0.7459070
1290.016, 0.8447880
1290.498, 0.6837960
1290.980, 0.4456100
1291.462, 0.1405180
1291.944, 8.1863001E-02
1292.427, 7.1140002E-03
1292.909, 0.4343950
1293.391, 0.5582500
1293.873, 0.4140700
1294.355, 0.3291930
1294.837, 0.5713420
1295.319, 0.7814520
1295.801, 0.7408640
1296.284, 0.6671220
1296.766, 0.7316470
1297.248, 0.8987770
1297.730, 0.9888110
1298.212, 1.012928
1298.694, 1.004189
1299.176, 0.9181290
1299.658, 0.8782730
1300.141, 0.8597600
1300.623, 0.8591540
1301.105, 0.8817830
1301.587, 0.9168930
1302.069, 1.015930
1302.551, 1.090843
1303.033, 0.9253620
1303.515, 0.2148860
1303.997, 1.0834000E-02
1304.479, 0.3607860
1304.962, 0.3160930
1305.444, 0.0000000E+00
##END=



