##NAMES=Kamchatkite
##RRUFFID=R070039
##IDEAL CHEMISTRY=KCu_3_O(SO_4_)_2_Cl
##LOCALITY=Great Tolbachik Eruption (1975-6), Tolbachik Volcano, Kamchatka Peninsula, Russia
##OWNER=RRUFF
##SOURCE=Michael Scott
##DESCRIPTION=Light apple green poorly formed crystals, co-type material
##STATUS=The identification of this mineral is not yet confirmed.
##URL=rruff.info/R070039
117.3980, 0.0000000E+00
117.8801, 11.51370
118.3622, 23.48405
118.8444, 47.39142
119.3265, 21.39648
119.8086, 1.053635
120.2907, 9.714661
120.7728, 3.323914
121.2549, 12.54068
121.7370, 44.15005
122.2192, 83.74786
122.7013, 110.8279
123.1834, 98.66891
123.6655, 70.55750
124.1476, 57.23932
124.6297, 69.37201
125.1119, 93.89264
125.5940, 119.5964
126.0761, 146.0711
126.5582, 168.0327
127.0403, 177.4241
127.5224, 177.7851
128.0046, 179.3618
128.4867, 185.9501
128.9688, 196.3558
129.4509, 207.2367
129.9330, 218.1416
130.4151, 231.3884
130.8973, 252.6569
131.3794, 281.5721
131.8615, 306.8744
132.3436, 319.5287
132.8257, 321.3444
133.3078, 328.5200
133.7900, 343.3740
134.2721, 363.6916
134.7542, 384.3353
135.2363, 404.9924
135.7184, 426.2868
136.2005, 447.3926
136.6827, 468.0768
137.1648, 493.1960
137.6469, 527.4904
138.1290, 569.9562
138.6111, 598.4140
139.0932, 611.6083
139.5753, 613.1545
140.0575, 605.8174
140.5396, 585.6443
141.0217, 566.7706
141.5038, 555.8972
141.9859, 558.6602
142.4680, 548.6583
142.9502, 519.2000
143.4323, 478.6275
143.9144, 451.1672
144.3965, 445.1251
144.8786, 441.6611
145.3607, 430.7311
145.8429, 406.5334
146.3250, 384.3236
146.8071, 364.7358
147.2892, 347.6791
147.7713, 334.2183
148.2534, 325.0565
148.7356, 319.1082
149.2177, 315.5294
149.6998, 321.4850
150.1819, 322.5162
150.6640, 315.1172
151.1461, 296.7286
151.6283, 279.5856
152.1104, 264.5135
152.5925, 250.8903
153.0746, 238.1130
153.5567, 224.7361
154.0388, 213.3569
154.5210, 204.5447
155.0031, 197.1337
155.4852, 179.4304
155.9673, 199.1216
156.4494, 210.7094
156.9315, 214.6315
157.4137, 187.7646
157.8958, 200.7838
158.3779, 197.8970
158.8600, 194.4111
159.3421, 213.2043
159.8242, 191.1036
160.3064, 209.6574
160.7885, 212.0675
161.2706, 221.9616
161.7527, 237.2494
162.2348, 268.7072
162.7169, 305.5271
163.1991, 341.5588
163.6812, 374.1334
164.1633, 403.2689
164.6454, 428.1470
165.1275, 444.5252
165.6096, 456.7828
166.0918, 472.6653
166.5739, 507.4158
167.0560, 540.9226
167.5381, 553.7390
168.0202, 531.9418
168.5023, 511.4155
168.9845, 521.2767
169.4666, 554.6104
169.9487, 588.0745
170.4308, 610.5461
170.9129, 624.6039
171.3950, 632.4713
171.8772, 627.0989
172.3593, 622.9906
172.8414, 636.7856
173.3235, 667.3300
173.8056, 699.3653
174.2877, 721.0090
174.7699, 735.6123
175.2520, 746.6762
175.7341, 749.3412
176.2162, 755.9337
176.6983, 787.8541
177.1804, 848.3683
177.6626, 913.1973
178.1447, 966.6013
178.6268, 1008.117
179.1089, 1033.087
179.5910, 1027.582
180.0731, 1005.536
180.5553, 999.6227
181.0374, 1019.470
181.5195, 1038.757
182.0016, 1022.206
182.4837, 972.1423
182.9658, 905.6644
183.4479, 823.5226
183.9301, 732.1176
184.4122, 655.5872
184.8943, 598.7454
185.3764, 557.5907
185.8585, 524.1013
186.3406, 498.6134
186.8228, 477.4365
187.3049, 459.4521
187.7870, 444.1288
188.2691, 427.2594
188.7512, 405.2942
189.2333, 381.3814
189.7155, 365.5131
190.1976, 357.8274
190.6797, 357.4358
191.1618, 367.4785
191.6439, 387.3984
192.1260, 403.2435
192.6082, 407.1305
193.0903, 400.5781
193.5724, 397.1650
194.0545, 396.4825
194.5366, 399.7532
195.0187, 413.8270
195.5009, 440.1694
195.9830, 457.6557
196.4651, 448.4545
196.9472, 412.2935
197.4293, 391.4435
197.9114, 391.6451
198.3936, 404.2376
198.8757, 409.5756
199.3578, 406.4653
199.8399, 401.4258
200.3220, 397.7535
200.8041, 395.2832
201.2863, 395.5001
201.7684, 397.2181
202.2505, 402.0835
202.7326, 418.7155
203.2147, 450.2051
203.6968, 485.0055
204.1790, 513.6287
204.6611, 535.3809
205.1432, 553.7994
205.6253, 567.0825
206.1074, 576.3049
206.5895, 594.6796
207.0716, 625.0161
207.5538, 659.7115
208.0359, 686.1939
208.5180, 696.6766
209.0001, 725.7026
209.4822, 789.9780
209.9643, 893.2482
210.4465, 975.2659
210.9286, 1028.869
211.4107, 1069.316
211.8928, 1121.216
212.3749, 1188.195
212.8570, 1255.644
213.3392, 1312.992
213.8213, 1349.806
214.3034, 1422.129
214.7855, 1545.621
215.2676, 1694.596
215.7497, 1808.112
216.2319, 1872.754
216.7140, 1926.932
217.1961, 1988.552
217.6782, 2057.904
218.1603, 2130.755
218.6424, 2204.867
219.1246, 2281.376
219.6067, 2371.391
220.0888, 2484.459
220.5709, 2596.769
221.0530, 2692.864
221.5351, 2761.439
222.0173, 2840.781
222.4994, 2936.750
222.9815, 3048.151
223.4636, 3159.129
223.9457, 3272.088
224.4278, 3382.027
224.9100, 3488.718
225.3921, 3597.203
225.8742, 3690.960
226.3563, 3762.423
226.8384, 3812.041
227.3205, 3874.194
227.8027, 3961.334
228.2848, 4048.951
228.7669, 4113.152
229.2490, 4158.356
229.7311, 4174.065
230.2132, 4163.013
230.6953, 4127.768
231.1775, 4031.265
231.6596, 3856.432
232.1417, 3634.187
232.6238, 3404.667
233.1059, 3161.310
233.5880, 2921.872
234.0702, 2691.140
234.5523, 2469.520
235.0344, 2254.212
235.5165, 2040.134
235.9986, 1835.728
236.4807, 1652.706
236.9629, 1496.626
237.4450, 1355.530
237.9271, 1224.327
238.4092, 1101.642
238.8913, 997.2297
239.3734, 913.8605
239.8556, 847.2028
240.3377, 786.6870
240.8198, 733.3167
241.3019, 684.6338
241.7840, 639.8449
242.2661, 601.0447
242.7483, 561.7098
243.2304, 516.3998
243.7125, 471.0206
244.1946, 447.7438
244.6767, 464.5072
245.1588, 478.7305
245.6410, 465.6517
246.1231, 409.0864
246.6052, 360.6693
247.0873, 322.7229
247.5694, 295.0485
248.0515, 279.3334
248.5337, 285.0616
249.0158, 290.0106
249.4979, 279.1832
249.9800, 242.7893
250.4621, 209.2576
250.9442, 181.1376
251.4263, 158.4850
251.9085, 139.1389
252.3906, 125.0444
252.8727, 112.1330
253.3548, 96.73920
253.8369, 75.28149
254.3190, 59.55524
254.8012, 51.60834
255.2833, 50.35071
255.7654, 50.17792
256.2475, 53.67383
256.7296, 56.26642
257.2118, 52.71924
257.6939, 39.18481
258.1760, 28.40613
258.6581, 23.92603
259.1402, 25.36798
259.6223, 21.37604
260.1045, 9.054382
260.5866, 5.510986
261.0687, 16.05804
261.5508, 21.52026
262.0329, 24.11285
262.5150, 23.60645
262.9971, 20.12274
263.4792, 17.06097
263.9614, 13.78461
264.4435, 12.57776
264.9256, 17.26123
265.4077, 30.70276
265.8898, 36.87115
266.3719, 30.46686
266.8541, 13.17566
267.3362, 1.593445
267.8183, 4.326355
268.3004, 7.243652
268.7825, 8.718079
269.2646, 7.146851
269.7468, 6.613831
270.2289, 9.203064
270.7110, 15.27185
271.1931, 20.57147
271.6752, 26.00092
272.1573, 29.25482
272.6395, 26.37750
273.1216, 16.35602
273.6037, 4.564331
274.0858, 7.227722
274.5679, 18.99475
275.0500, 32.99597
275.5322, 52.03735
276.0143, 68.56897
276.4964, 68.66144
276.9785, 49.76288
277.4606, 29.75659
277.9427, 15.68500
278.4249, 7.621704
278.9070, 0.2068480
279.3891, 7.506226
279.8712, 12.83942
280.3533, 8.038147
280.8354, 8.361206
281.3176, 18.82031
281.7997, 9.407715
282.2818, 18.45605
282.7639, 28.53748
283.2460, 16.11865
283.7281, 4.622681
284.2103, 9.783325
284.6924, 1.012085
285.1745, 11.10413
285.6566, 10.79108
286.1387, 1.568115
286.6208, 6.025330
287.1030, 12.72668
287.5851, 14.54230
288.0672, 0.3727420
288.5493, 31.10718
289.0314, 55.27081
289.5135, 57.54279
289.9957, 42.41559
290.4778, 28.04047
290.9599, 14.90662
291.4420, 4.872620
291.9241, 1.3245000E-02
292.4063, 0.4141850
292.8884, 7.308044
293.3705, 30.37695
293.8526, 60.88824
294.3347, 71.24335
294.8168, 55.33154
295.2990, 31.59296
295.7811, 22.62830
296.2632, 26.53925
296.7453, 33.47980
297.2274, 40.12830
297.7095, 45.75824
298.1917, 48.39050
298.6738, 47.41510
299.1559, 45.14575
299.6380, 44.64709
300.1201, 45.23578
300.6022, 44.56616
301.0844, 38.04120
301.5665, 30.47217
302.0486, 30.48694
302.5307, 40.83215
303.0128, 51.44293
303.4949, 50.46478
303.9771, 41.55090
304.4592, 34.59052
304.9413, 39.77301
305.4234, 47.40656
305.9055, 44.33533
306.3876, 26.19885
306.8697, 9.383179
307.3518, 8.283875
307.8340, 18.06183
308.3161, 27.90466
308.7982, 35.50360
309.2803, 39.23895
309.7624, 36.63794
310.2445, 26.11060
310.7267, 14.87982
311.2088, 4.768555
311.6909, 2.874817
312.1730, 5.373657
312.6551, 4.950928
313.1372, 16.30701
313.6194, 20.46924
314.1015, 15.09985
314.5836, 8.778503
315.0657, 3.853821
315.5478, 0.9020390
316.0299, 0.8751220
316.5121, 4.120361
316.9942, 10.35406
317.4763, 21.97131
317.9584, 41.76178
318.4405, 54.04889
318.9226, 47.82336
319.4048, 32.46454
319.8869, 20.33722
320.3690, 14.90369
320.8511, 13.15503
321.3332, 16.51178
321.8153, 27.52429
322.2975, 30.71484
322.7796, 10.66638
323.2617, 15.00940
323.7438, 25.21155
324.2259, 3.612366
324.7080, 29.44598
325.1902, 38.20532
325.6723, 24.01337
326.1544, 19.62372
326.6365, 36.22900
327.1186, 59.56366
327.6007, 74.66669
328.0829, 73.69946
328.5650, 73.21820
329.0471, 76.66418
329.5292, 84.67896
330.0113, 90.89838
330.4934, 95.04083
330.9756, 97.53003
331.4577, 98.37921
331.9398, 94.52582
332.4219, 93.59766
332.9040, 99.41107
333.3861, 111.6650
333.8683, 112.2103
334.3504, 95.24469
334.8325, 76.72571
335.3146, 71.85376
335.7967, 86.45526
336.2788, 95.61298
336.7610, 92.48407
337.2431, 79.05469
337.7252, 73.77026
338.2073, 78.57098
338.6894, 86.79388
339.1715, 92.87341
339.6537, 97.09998
340.1358, 104.8883
340.6179, 118.0666
341.1000, 134.4603
341.5821, 145.2772
342.0642, 150.4510
342.5464, 152.1701
343.0285, 151.7653
343.5106, 148.9783
343.9927, 139.5052
344.4748, 119.1912
344.9569, 95.56818
345.4391, 86.86279
345.9212, 94.45374
346.4033, 104.1034
346.8854, 105.6234
347.3675, 101.2961
347.8496, 97.42023
348.3318, 94.60828
348.8139, 93.19318
349.2960, 92.05457
349.7781, 91.77179
350.2602, 96.33881
350.7423, 113.5840
351.2245, 136.2592
351.7065, 151.6998
352.1887, 157.7906
352.6708, 158.4620
353.1529, 154.5078
353.6350, 147.7915
354.1171, 143.5330
354.5992, 146.5821
355.0814, 152.6812
355.5635, 159.0603
356.0456, 167.0385
356.5277, 170.6799
357.0098, 157.2517
357.4919, 137.9365
357.9741, 131.2934
358.4562, 160.2903
358.9383, 194.6299
359.4204, 215.4153
359.9025, 219.4887
360.3846, 217.3054
360.8668, 209.2311
361.3489, 199.5339
361.8310, 193.6970
362.3131, 191.4368
362.7952, 194.7131
363.2773, 212.9212
363.7595, 246.5320
364.2416, 263.3591
364.7237, 240.1251
365.2058, 204.1858
365.6879, 179.1711
366.1700, 175.1259
366.6522, 176.9281
367.1343, 183.9630
367.6164, 195.8329
368.0985, 207.4586
368.5806, 226.2108
369.0627, 238.7380
369.5449, 236.7609
370.0270, 206.4444
370.5091, 184.3442
370.9912, 173.7906
371.4733, 172.8882
371.9554, 175.9868
372.4376, 187.5737
372.9197, 196.3460
373.4018, 194.6022
373.8839, 176.1057
374.3660, 168.3683
374.8481, 176.1913
375.3303, 192.9783
375.8124, 203.3135
376.2945, 205.7399
376.7766, 205.5448
377.2587, 203.4844
377.7408, 199.2555
378.2230, 201.2253
378.7051, 212.0122
379.1872, 224.3000
379.6693, 225.6221
380.1514, 215.9342
380.6335, 205.4122
381.1157, 199.8649
381.5978, 197.6033
382.0799, 189.6818
382.5620, 174.5359
383.0441, 159.2426
383.5262, 151.9084
384.0084, 151.2252
384.4905, 153.2982
384.9726, 157.7612
385.4547, 162.8213
385.9368, 169.1861
386.4189, 176.4042
386.9011, 175.4786
387.3832, 147.3422
387.8653, 109.8865
388.3474, 90.49341
388.8295, 108.6062
389.3116, 132.3923
389.7938, 139.7518
390.2759, 132.6776
390.7580, 119.7759
391.2401, 91.29486
391.7222, 67.10846
392.2043, 66.23071
392.6865, 108.5801
393.1686, 142.6124
393.6507, 142.6891
394.1328, 120.3887
394.6149, 100.1730
395.0970, 86.10815
395.5792, 78.42017
396.0613, 79.26904
396.5434, 93.50531
397.0255, 101.9993
397.5076, 101.4706
397.9897, 94.23468
398.4718, 83.19952
398.9539, 56.67523
399.4361, 39.48755
399.9182, 39.90863
400.4003, 60.51550
400.8824, 74.25311
401.3645, 82.82886
401.8466, 82.92206
402.3288, 68.09741
402.8109, 25.73181
403.2930, 0.5106810
403.7751, 6.1400998E-02
404.2572, 22.43219
404.7393, 41.18030
405.2215, 57.69940
405.7036, 66.51434
406.1857, 58.45404
406.6678, 31.91016
407.1499, 19.71448
407.6320, 29.77167
408.1142, 50.20251
408.5963, 56.43445
409.0784, 48.50275
409.5605, 38.55591
410.0426, 34.92407
410.5247, 34.88239
411.0069, 27.18036
411.4890, 9.459106
411.9711, 7.408081
412.4532, 7.452026
412.9353, 4.244629
413.4174, 12.76300
413.8996, 9.018188
414.3817, 0.3251950
414.8638, 6.628357
415.3459, 9.783203
415.8280, 15.61084
416.3102, 37.30109
416.7923, 61.12469
417.2744, 70.22693
417.7565, 48.99200
418.2386, 21.13190
418.7207, 10.58942
419.2029, 42.02142
419.6850, 52.60321
420.1671, 11.36957
420.6492, 37.70642
421.1313, 67.20398
421.6134, 65.05267
422.0956, 54.58606
422.5777, 31.57904
423.0598, 3.234741
423.5419, 15.14758
424.0240, 11.80347
424.5061, 7.923706
424.9883, 10.09546
425.4704, 20.69250
425.9525, 28.74872
426.4346, 34.94293
426.9167, 38.18140
427.3988, 35.88684
427.8810, 23.73334
428.3631, 16.54889
428.8452, 17.43103
429.3273, 26.18408
429.8094, 43.61456
430.2915, 74.17096
430.7737, 101.2939
431.2558, 106.8425
431.7379, 90.83118
432.2200, 82.31531
432.7021, 87.26855
433.1842, 99.90985
433.6664, 109.8441
434.1485, 117.0404
434.6306, 122.0961
435.1127, 121.2806
435.5948, 118.9578
436.0769, 127.2532
436.5591, 148.8756
437.0412, 172.3178
437.5233, 187.2928
438.0054, 195.1702
438.4875, 199.0132
438.9696, 187.6637
439.4518, 181.3480
439.9339, 204.6678
440.4160, 256.7021
440.8981, 300.6284
441.3802, 316.2545
441.8623, 314.1623
442.3444, 304.0145
442.8265, 276.6943
443.3087, 255.0425
443.7908, 247.6539
444.2729, 251.7828
444.7550, 257.0474
445.2371, 263.4482
445.7192, 268.9470
446.2014, 273.6142
446.6835, 282.7902
447.1656, 279.6510
447.6477, 255.6728
448.1298, 223.1816
448.6119, 200.8015
449.0941, 190.8143
449.5762, 187.1895
450.0583, 190.7933
450.5404, 201.7358
451.0225, 204.8722
451.5046, 198.5576
451.9868, 188.4594
452.4689, 178.6674
452.9510, 168.9569
453.4331, 162.5860
453.9152, 160.2227
454.3973, 161.3320
454.8795, 166.2619
455.3616, 174.8336
455.8437, 181.8110
456.3258, 184.7546
456.8079, 183.6288
457.2900, 175.1403
457.7722, 156.5547
458.2543, 143.2281
458.7364, 156.4251
459.2185, 186.7402
459.7006, 214.3376
460.1827, 231.5906
460.6649, 242.3704
461.1470, 247.1619
461.6291, 246.9482
462.1112, 247.9724
462.5933, 254.1133
463.0754, 261.5786
463.5576, 267.0560
464.0397, 264.8307
464.5218, 266.9385
465.0039, 281.5085
465.4860, 303.0878
465.9681, 315.9996
466.4503, 312.6405
466.9324, 305.2147
467.4145, 297.0085
467.8966, 286.7004
468.3787, 280.3627
468.8608, 282.1194
469.3430, 284.3533
469.8251, 276.1738
470.3072, 253.9954
470.7893, 235.3458
471.2714, 225.0178
471.7535, 220.8606
472.2357, 210.2902
472.7178, 191.6638
473.1999, 173.8599
473.6820, 166.4424
474.1641, 166.1984
474.6462, 154.4437
475.1284, 126.8287
475.6105, 98.46234
476.0926, 90.69745
476.5747, 98.86572
477.0568, 105.6490
477.5389, 101.7968
478.0211, 92.68555
478.5032, 80.74597
478.9853, 66.37610
479.4674, 57.33087
479.9495, 64.10632
480.4316, 77.22388
480.9138, 84.99750
481.3959, 67.40625
481.8780, 59.54047
482.3601, 83.81573
482.8422, 130.3629
483.3243, 166.8594
483.8065, 180.3842
484.2886, 186.5831
484.7707, 187.8332
485.2528, 169.6746
485.7349, 185.8020
486.2170, 261.7316
486.6991, 356.3663
487.1812, 419.9892
487.6634, 436.1672
488.1455, 456.4634
488.6276, 491.5846
489.1097, 539.9028
489.5918, 589.6092
490.0739, 642.1004
490.5561, 692.5800
491.0382, 735.2891
491.5203, 771.4645
492.0024, 812.8129
492.4845, 861.0012
492.9666, 914.2094
493.4488, 976.2567
493.9309, 1043.642
494.4130, 1101.790
494.8951, 1133.600
495.3772, 1157.916
495.8593, 1205.131
496.3415, 1274.717
496.8236, 1336.629
497.3057, 1372.387
497.7878, 1389.745
498.2699, 1396.911
498.7520, 1392.525
499.2342, 1383.078
499.7163, 1378.308
500.1984, 1370.565
500.6805, 1341.197
501.1626, 1267.497
501.6447, 1188.260
502.1269, 1115.436
502.6090, 1051.163
503.0911, 990.2285
503.5732, 926.5917
504.0553, 871.2842
504.5374, 837.0753
505.0196, 832.6188
505.5017, 825.0349
505.9838, 803.3524
506.4659, 778.3054
506.9480, 787.5767
507.4301, 835.3793
507.9123, 890.0175
508.3944, 939.7031
508.8765, 983.2310
509.3586, 1006.759
509.8407, 1005.664
510.3228, 1009.195
510.8050, 1056.936
511.2871, 1135.109
511.7692, 1208.987
512.2513, 1266.163
512.7334, 1314.412
513.2155, 1357.059
513.6976, 1396.025
514.1797, 1438.785
514.6619, 1494.510
515.1440, 1552.353
515.6261, 1604.187
516.1082, 1646.854
516.5903, 1689.957
517.0724, 1746.895
517.5546, 1803.025
518.0367, 1839.756
518.5188, 1840.244
519.0009, 1833.379
519.4830, 1825.559
519.9651, 1814.692
520.4473, 1785.937
520.9294, 1737.223
521.4115, 1676.946
521.8936, 1606.804
522.3757, 1526.601
522.8578, 1442.419
523.3400, 1352.721
523.8221, 1263.440
524.3042, 1183.772
524.7863, 1112.613
525.2684, 1046.816
525.7505, 983.9222
526.2327, 927.0907
526.7148, 887.0580
527.1969, 861.9223
527.6790, 831.1635
528.1611, 769.6858
528.6432, 699.6987
529.1254, 646.9674
529.6075, 619.3608
530.0896, 597.8257
530.5717, 575.8359
531.0538, 551.9976
531.5359, 523.7732
532.0181, 490.1267
532.5002, 453.4109
532.9823, 409.9243
533.4644, 359.4196
533.9465, 321.5132
534.4286, 298.9331
534.9108, 285.2375
535.3929, 278.2731
535.8750, 283.0706
536.3571, 278.8160
536.8392, 261.3609
537.3214, 240.6278
537.8035, 229.8206
538.2856, 229.0263
538.7677, 240.7361
539.2498, 273.5460
539.7319, 315.8104
540.2141, 330.6940
540.6962, 319.4224
541.1783, 307.3134
541.6604, 310.4071
542.1425, 325.6154
542.6246, 352.1503
543.1068, 393.6147
543.5889, 429.5558
544.0710, 440.1594
544.5531, 436.4513
545.0352, 434.7408
545.5173, 442.2217
545.9995, 451.5177
546.4816, 464.3591
546.9637, 478.8835
547.4458, 481.3993
547.9279, 458.2638
548.4100, 432.3445
548.8922, 412.9800
549.3743, 399.7557
549.8564, 396.0150
550.3385, 410.0532
550.8206, 424.5002
551.3027, 413.4758
551.7849, 371.6221
552.2670, 336.1248
552.7491, 316.2971
553.2312, 307.8347
553.7133, 302.4656
554.1954, 299.9128
554.6776, 290.5323
555.1597, 260.2198
555.6418, 220.9160
556.1239, 198.3095
556.6060, 196.1452
557.0881, 191.6470
557.5703, 158.8069
558.0524, 114.8519
558.5345, 83.16254
559.0166, 80.65283
559.4987, 80.74249
559.9808, 74.56689
560.4630, 63.00806
560.9451, 48.98248
561.4272, 24.03156
561.9093, 5.459412
562.3914, 2.238464
562.8735, 18.31671
563.3557, 22.91351
563.8378, 9.425171
564.3199, 7.137207
564.8020, 14.10919
565.2841, 10.51550
565.7662, 1.564697
566.2484, 15.03735
566.7305, 32.32288
567.2126, 34.04675
567.6947, 21.68445
568.1768, 12.48206
568.6589, 18.39917
569.1411, 31.22241
569.6232, 36.16583
570.1053, 33.74121
570.5874, 32.84790
571.0695, 44.51666
571.5516, 58.41840
572.0338, 63.54004
572.5159, 54.60400
572.9980, 44.17542
573.4801, 41.29340
573.9622, 38.81079
574.4443, 26.38409
574.9265, 16.67035
575.4086, 48.36176
575.8907, 59.27747
576.3728, 51.47363
576.8549, 40.17603
577.3370, 21.67950
577.8192, 7.362854
578.3013, 6.091125
578.7834, 18.93512
579.2655, 24.78790
579.7476, 22.45544
580.2297, 16.79681
580.7119, 14.67499
581.1940, 14.48688
581.6761, 9.175659
582.1582, 5.680969
582.6403, 22.67120
583.1224, 34.05072
583.6046, 40.50952
584.0867, 44.14178
584.5688, 43.09973
585.0509, 41.86768
585.5330, 44.93707
586.0151, 53.04279
586.4973, 56.26904
586.9794, 47.55334
587.4615, 35.83972
587.9436, 27.71472
588.4257, 28.87646
588.9078, 24.23370
589.3900, 10.37683
589.8721, 7.124756
590.3542, 19.05853
590.8363, 24.99139
591.3184, 27.40961
591.8005, 27.48529
592.2827, 24.43488
592.7648, 14.75861
593.2469, 1.506165
593.7290, 20.96478
594.2111, 41.71515
594.6932, 65.21973
595.1754, 92.43616
595.6575, 123.6310
596.1396, 154.5473
596.6217, 178.6286
597.1038, 201.7714
597.5859, 230.5380
598.0681, 266.5941
598.5501, 308.9084
599.0322, 362.5244
599.5143, 422.7286
599.9965, 476.1321
600.4786, 512.4490
600.9607, 552.7628
601.4428, 603.9514
601.9249, 665.5344
602.4070, 727.7685
602.8892, 792.2443
603.3713, 853.6538
603.8534, 910.1085
604.3355, 961.1533
604.8176, 1000.320
605.2997, 1024.150
605.7819, 1048.800
606.2640, 1105.160
606.7461, 1178.728
607.2282, 1232.891
607.7103, 1239.415
608.1924, 1236.781
608.6746, 1260.339
609.1567, 1301.628
609.6388, 1332.539
610.1209, 1354.082
610.6030, 1352.450
611.0851, 1320.355
611.5673, 1255.402
612.0494, 1167.560
612.5315, 1033.521
613.0136, 900.3894
613.4957, 802.9745
613.9778, 751.1138
614.4600, 698.8337
614.9421, 643.2878
615.4242, 587.1815
615.9063, 534.3986
616.3884, 485.5357
616.8705, 443.3488
617.3527, 409.7331
617.8348, 381.8982
618.3169, 349.0251
618.7990, 315.0466
619.2811, 299.0612
619.7632, 328.1425
620.2454, 369.3201
620.7275, 395.1355
621.2096, 402.0694
621.6917, 407.3353
622.1738, 405.6354
622.6559, 410.9623
623.1381, 435.2084
623.6202, 506.3880
624.1023, 556.5706
624.5844, 577.1361
625.0665, 582.5767
625.5486, 594.6865
626.0308, 613.1382
626.5129, 640.4984
626.9950, 680.6186
627.4771, 728.1714
627.9592, 768.6437
628.4413, 801.9706
628.9235, 829.7104
629.4056, 844.2998
629.8877, 857.8095
630.3698, 894.1119
630.8519, 954.7609
631.3340, 1006.677
631.8162, 1023.093
632.2983, 1023.103
632.7804, 1023.428
633.2625, 1029.782
633.7446, 1031.820
634.2267, 1030.737
634.7089, 1024.455
635.1910, 1010.741
635.6731, 989.3190
636.1552, 959.2077
636.6373, 918.9227
637.1194, 869.6533
637.6016, 808.7343
638.0837, 734.1835
638.5658, 669.5566
639.0479, 633.3548
639.5300, 613.3502
640.0121, 577.4465
640.4943, 525.4609
640.9764, 472.0379
641.4585, 426.9248
641.9406, 387.8803
642.4227, 353.4072
642.9048, 323.1748
643.3870, 296.0957
643.8691, 272.4484
644.3512, 251.6466
644.8333, 232.5758
645.3154, 222.1289
645.7975, 203.2760
646.2797, 168.3806
646.7618, 125.5999
647.2439, 99.71872
647.7260, 92.97165
648.2081, 91.25397
648.6902, 92.27539
649.1724, 94.35483
649.6545, 90.28683
650.1366, 80.23410
650.6187, 64.27420
651.1008, 33.81937
651.5829, 0.7113340
652.0651, 15.58429
652.5472, 11.75058
653.0293, 2.139923
653.5114, 8.848663
653.9935, 19.42099
654.4756, 27.83237
654.9578, 32.56061
655.4399, 36.54672
655.9220, 38.54977
656.4041, 40.48474
656.8862, 44.65869
657.3683, 49.03604
657.8505, 66.51044
658.3326, 102.6029
658.8147, 147.3260
659.2968, 170.5624
659.7789, 173.3140
660.2610, 173.0493
660.7432, 177.3356
661.2253, 186.0878
661.7074, 202.3462
662.1895, 225.7773
662.6716, 244.3435
663.1537, 237.8723
663.6359, 231.5613
664.1180, 246.9371
664.6001, 293.2940
665.0822, 336.4556
665.5643, 374.0891
666.0464, 400.8887
666.5286, 410.4088
667.0107, 389.6885
667.4928, 377.5846
667.9749, 379.5720
668.4570, 391.1531
668.9391, 403.0789
669.4213, 415.1959
669.9034, 427.8153
670.3855, 443.3464
670.8676, 457.9092
671.3497, 462.4385
671.8318, 458.0009
672.3140, 449.8287
672.7961, 445.1320
673.2782, 435.4224
673.7603, 408.4677
674.2424, 361.7762
674.7245, 324.7374
675.2067, 306.5617
675.6888, 300.5414
676.1709, 305.4413
676.6530, 339.8066
677.1351, 338.4305
677.6172, 283.2901
678.0994, 214.8243
678.5815, 187.0196
679.0636, 201.8252
679.5457, 207.0960
680.0278, 190.5980
680.5099, 165.4258
680.9921, 152.9794
681.4742, 150.2040
681.9563, 146.2036
682.4384, 135.0932
682.9205, 122.3080
683.4026, 112.6934
683.8848, 105.1806
684.3669, 94.34125
684.8490, 72.24915
685.3311, 52.02710
685.8132, 40.03275
686.2953, 36.81808
686.7775, 34.07925
687.2596, 33.04913
687.7417, 30.33298
688.2238, 21.25217
688.7059, 5.455475
689.1880, 5.3252999E-02
689.6701, 6.712494
690.1522, 16.70471
690.6343, 18.94180
691.1165, 17.02942
691.5986, 18.94724
692.0807, 27.78256
692.5628, 37.79730
693.0449, 47.79578
693.5270, 55.59546
694.0092, 57.73538
694.4913, 53.21002
694.9734, 43.00049
695.4555, 19.82578
695.9376, 8.726288
696.4197, 19.64026
696.9019, 6.840637
697.3840, 8.911926
697.8661, 22.66132
698.3482, 33.49695
698.8303, 35.83881
699.3124, 29.83557
699.7946, 23.94693
700.2767, 26.27087
700.7588, 31.20911
701.2409, 26.98587
701.7230, 13.02823
702.2051, 6.548004
702.6873, 28.35330
703.1694, 55.00558
703.6515, 67.19431
704.1336, 54.71033
704.6157, 44.98511
705.0978, 39.11502
705.5800, 37.81543
706.0621, 43.41541
706.5442, 58.98322
707.0263, 67.68988
707.5084, 67.06964
707.9905, 60.30344
708.4727, 48.12048
708.9548, 32.77991
709.4369, 26.71988
709.9190, 39.71692
710.4011, 56.24969
710.8832, 58.69025
711.3654, 50.84048
711.8475, 42.81311
712.3296, 36.56369
712.8117, 33.03339
713.2938, 38.84140
713.7759, 51.73380
714.2581, 43.09250
714.7402, 7.049591
715.2223, 47.12393
715.7044, 50.25923
716.1865, 17.78772
716.6686, 0.2367250
717.1508, 2.480011
717.6329, 3.423401
718.1150, 17.42896
718.5971, 37.93369
719.0792, 54.15576
719.5613, 65.60217
720.0435, 64.25986
720.5256, 21.14218
721.0077, 25.73907
721.4898, 35.86795
721.9719, 31.37262
722.4540, 75.78394
722.9362, 63.56805
723.4183, 32.95279
723.9004, 29.70358
724.3825, 67.90421
724.8646, 83.31342
725.3467, 58.07727
725.8289, 18.45059
726.3110, 17.65207
726.7931, 49.87646
727.2752, 76.11774
727.7573, 79.29825
728.2394, 73.59979
728.7216, 76.29730
729.2037, 82.99869
729.6858, 81.00311
730.1679, 52.23654
730.6500, 26.16544
731.1321, 15.51071
731.6143, 20.39520
732.0964, 27.22699
732.5785, 38.59488
733.0606, 47.31305
733.5427, 49.52838
734.0248, 45.72391
734.5070, 43.41135
734.9891, 42.75323
735.4712, 41.59131
735.9533, 37.83951
736.4354, 32.29614
736.9175, 26.53558
737.3997, 20.66681
737.8818, 15.05658
738.3639, 3.737579
738.8460, 3.495850
739.3281, 3.893921
739.8102, 42.41693
740.2924, 62.55127
740.7745, 50.32141
741.2566, 29.11530
741.7387, 21.54868
742.2208, 29.05835
742.7029, 43.58923
743.1851, 68.14951
743.6672, 89.69431
744.1493, 83.47293
744.6314, 57.48465
745.1135, 36.10400
745.5956, 23.59979
746.0778, 23.55847
746.5599, 54.64432
747.0420, 97.88095
747.5241, 118.2957
748.0062, 74.09888
748.4883, 40.51910
748.9705, 41.99701
749.4526, 66.10550
749.9347, 75.78317
750.4168, 65.96426
750.8989, 57.46371
751.3810, 57.85187
751.8632, 64.45645
752.3453, 68.35397
752.8274, 70.00906
753.3095, 73.32956
753.7916, 85.45895
754.2737, 96.08292
754.7559, 95.90732
755.2380, 85.08167
755.7201, 69.29965
756.2022, 43.07037
756.6843, 19.08722
757.1664, 3.823059
757.6486, 2.652252
758.1307, 2.825104
758.6128, 3.786713
759.0949, 15.82858
759.5770, 33.73331
760.0591, 56.67801
760.5413, 82.67554
761.0234, 112.4828
761.5055, 128.7769
761.9876, 103.9886
762.4697, 61.57742
762.9518, 29.89029
763.4340, 12.13092
763.9161, 14.61029
764.3982, 64.68402
764.8803, 122.3004
765.3624, 149.8354
765.8445, 134.5448
766.3267, 111.4432
766.8088, 74.47595
767.2909, 39.05313
767.7730, 26.67374
768.2551, 35.88620
768.7372, 46.86151
769.2194, 56.83423
769.7015, 64.60522
770.1836, 68.81650
770.6657, 69.67029
771.1478, 67.59677
771.6299, 62.80237
772.1121, 55.01208
772.5942, 34.33810
773.0763, 9.890350
773.5584, 6.228821
774.0405, 43.32983
774.5226, 69.57480
775.0048, 73.36636
775.4869, 61.55078
775.9690, 48.44507
776.4511, 34.33014
776.9332, 22.35529
777.4153, 12.53461
777.8974, 6.451355
778.3795, 7.999420
778.8616, 13.23364
779.3438, 17.21640
779.8259, 19.28870
780.3080, 21.25864
780.7901, 25.17725
781.2722, 30.69830
781.7543, 36.17010
782.2365, 46.33630
782.7186, 46.85718
783.2007, 27.36417
783.6828, 5.507019
784.1649, 17.50858
784.6470, 8.822968
785.1292, 5.703094
785.6113, 20.75284
786.0934, 34.49698
786.5755, 45.67853
787.0576, 54.00186
787.5397, 56.49603
788.0219, 44.14911
788.5040, 32.21353
788.9861, 29.71841
789.4682, 37.52423
789.9503, 46.81992
790.4324, 61.34042
790.9146, 69.47165
791.3967, 60.98520
791.8788, 38.14255
792.3609, 17.66428
792.8430, 1.8158000E-02
793.3251, 3.090515
793.8073, 38.24573
794.2894, 89.21228
794.7715, 106.6803
795.2536, 83.10751
795.7357, 59.77219
796.2178, 50.99402
796.7000, 47.97092
797.1821, 45.85486
797.6642, 44.48975
798.1463, 43.05313
798.6284, 40.28543
799.1105, 40.48642
799.5927, 52.88992
800.0748, 72.89221
800.5569, 75.73334
801.0390, 57.79416
801.5211, 39.37381
802.0032, 38.75555
802.4854, 45.48016
802.9675, 49.45837
803.4496, 49.05325
803.9317, 46.01917
804.4138, 39.17062
804.8959, 31.36484
805.3781, 23.48779
805.8602, 15.39426
806.3423, 8.846710
806.8244, 3.159088
807.3065, 1.601624
807.7886, 12.64386
808.2708, 30.72339
808.7529, 38.22485
809.2350, 28.74207
809.7171, 22.05551
810.1992, 41.96829
810.6813, 67.59225
811.1635, 75.47845
811.6456, 36.69693
812.1277, 20.42960
812.6098, 46.13348
813.0919, 79.54999
813.5740, 77.27328
814.0562, 35.80157
814.5383, 8.666595
815.0204, 4.222595
815.5025, 9.152069
815.9846, 7.479401
816.4667, 3.473724
816.9489, 5.410522
817.4310, 18.57269
817.9131, 34.40964
818.3952, 54.78708
818.8773, 73.14160
819.3594, 78.08566
819.8416, 58.95175
820.3237, 47.76407
820.8058, 49.94962
821.2879, 56.00854
821.7700, 49.86264
822.2521, 33.61978
822.7343, 24.66266
823.2164, 27.59750
823.6985, 36.61340
824.1806, 50.58374
824.6627, 64.97629
825.1448, 73.83563
825.6270, 77.23178
826.1091, 72.64227
826.5912, 46.15070
827.0733, 17.73871
827.5554, 15.50650
828.0375, 49.35635
828.5197, 71.10632
829.0018, 73.90976
829.4839, 64.60117
829.9660, 46.07840
830.4481, 23.68375
830.9302, 16.55371
831.4124, 38.04584
831.8945, 57.22308
832.3766, 46.81113
832.8587, 21.24506
833.3408, 1.883087
833.8229, 4.634979
834.3051, 5.205078
834.7872, 2.350830
835.2693, 13.34036
835.7514, 21.01736
836.2335, 25.43634
836.7156, 29.32199
837.1978, 33.36246
837.6799, 36.47983
838.1620, 33.02350
838.6441, 28.77316
839.1262, 35.12494
839.6083, 70.61893
840.0905, 92.28210
840.5726, 71.77277
841.0547, 36.39136
841.5368, 22.35696
842.0189, 39.41208
842.5010, 46.41971
842.9832, 34.86823
843.4653, 19.98453
843.9474, 29.30786
844.4295, 55.05463
844.9116, 70.15247
845.3937, 66.31378
845.8759, 55.97131
846.3580, 40.19333
846.8401, 26.90308
847.3222, 25.72897
847.8043, 62.90057
848.2864, 76.52637
848.7686, 54.66406
849.2507, 20.10095
849.7328, 2.943542
850.2149, 14.48663
850.6970, 9.465546
851.1791, 16.52573
851.6613, 43.41388
852.1434, 45.97900
852.6255, 35.57040
853.1076, 29.61343
853.5897, 34.47137
854.0718, 38.54669
854.5540, 35.46100
855.0361, 31.46039
855.5182, 32.79758
856.0003, 41.97733
856.4824, 48.99258
856.9645, 54.50073
857.4467, 54.54462
857.9288, 39.16284
858.4109, 14.98230
858.8930, 6.3689999E-02
859.3751, 3.287781
859.8572, 2.793060
860.3394, 31.84641
860.8215, 60.12610
861.3036, 63.54184
861.7857, 18.48212
862.2678, 1.892670
862.7499, 11.69736
863.2321, 35.98999
863.7142, 53.26065
864.1963, 63.93707
864.6784, 72.76642
865.1605, 80.25629
865.6426, 81.33243
866.1248, 62.64972
866.6069, 40.09854
867.0890, 34.06577
867.5711, 50.12088
868.0532, 58.41663
868.5353, 38.63559
869.0174, 21.02570
869.4995, 23.89758
869.9816, 49.73807
870.4637, 60.14496
870.9459, 54.26697
871.4280, 41.85492
871.9101, 23.93411
872.3922, 8.023621
872.8743, 12.92242
873.3564, 37.35913
873.8386, 49.18695
874.3207, 11.71140
874.8028, 23.98538
875.2849, 23.58395
875.7670, 11.09064
876.2491, 30.52292
876.7313, 31.59003
877.2134, 26.56662
877.6955, 19.00247
878.1776, 10.86969
878.6597, 9.023193
879.1418, 12.53876
879.6240, 15.84848
880.1061, 16.21579
880.5882, 14.86923
881.0703, 9.637115
881.5524, 2.237091
882.0345, 4.077057
882.5167, 23.53290
882.9988, 36.84430
883.4809, 34.68646
883.9630, 22.96188
884.4451, 20.19684
884.9272, 25.64044
885.4094, 33.29840
885.8915, 45.66797
886.3736, 54.82208
886.8557, 49.82935
887.3378, 33.11475
887.8199, 14.90305
888.3021, 10.37933
888.7842, 26.82013
889.2663, 32.20688
889.7484, 26.37436
890.2305, 5.861908
890.7126, 27.62790
891.1948, 47.06821
891.6769, 42.03943
892.1590, 31.00061
892.6411, 34.16864
893.1232, 46.48483
893.6053, 60.45987
894.0875, 76.92581
894.5696, 89.26596
895.0517, 91.44388
895.5338, 89.24200
896.0159, 89.41791
896.4980, 92.64130
896.9802, 96.72305
897.4623, 102.0299
897.9444, 104.2422
898.4265, 94.08130
898.9086, 77.53995
899.3907, 62.86987
899.8729, 49.75415
900.3550, 47.90298
900.8371, 78.99133
901.3192, 108.7079
901.8013, 109.1765
902.2834, 70.72241
902.7656, 59.60150
903.2477, 81.87808
903.7298, 105.5277
904.2119, 100.9066
904.6940, 80.37186
905.1761, 70.44061
905.6583, 71.84778
906.1404, 76.64642
906.6225, 84.41232
907.1046, 90.87436
907.5867, 93.64252
908.0688, 92.22839
908.5510, 85.87781
909.0331, 59.11935
909.5152, 76.39288
909.9973, 85.34842
910.4794, 87.54300
910.9615, 62.74255
911.4437, 72.78967
911.9258, 68.86426
912.4079, 64.36145
912.8900, 79.29892
913.3721, 58.39966
913.8542, 73.01917
914.3364, 73.45374
914.8185, 80.37335
915.3006, 73.23492
915.7827, 70.43243
916.2648, 81.62112
916.7469, 84.81686
917.2291, 75.56796
917.7112, 82.70135
918.1933, 61.26511
918.6754, 65.04120
919.1575, 79.69287
919.6396, 108.9903
920.1218, 130.8730
920.6039, 116.7129
921.0860, 107.5416
921.5681, 106.9799
922.0502, 105.2576
922.5323, 86.49823
923.0145, 56.33182
923.4966, 43.18280
923.9787, 50.54013
924.4608, 58.92947
924.9429, 47.98813
925.4250, 36.27036
925.9072, 43.86731
926.3893, 80.36066
926.8714, 88.92517
927.3535, 55.59848
927.8356, 22.37598
928.3177, 15.51471
928.7999, 28.59628
929.2820, 27.40063
929.7641, 14.78122
930.2462, 14.91562
930.7283, 63.35318
931.2104, 111.6700
931.6926, 124.8016
932.1747, 107.3287
932.6568, 86.62790
933.1389, 57.35983
933.6210, 49.44507
934.1031, 76.17337
934.5853, 117.9539
935.0674, 127.2414
935.5495, 110.4197
936.0316, 96.61279
936.5137, 99.48602
936.9958, 101.4995
937.4780, 86.00742
937.9601, 63.19315
938.4422, 48.35007
938.9243, 46.77893
939.4064, 45.72424
939.8885, 44.83664
940.3707, 45.22708
940.8528, 50.22153
941.3349, 57.58719
941.8170, 57.89792
942.2991, 50.07626
942.7813, 37.30148
943.2634, 10.81885
943.7455, 11.66379
944.2276, 13.49667
944.7097, 10.44720
945.1918, 31.05737
945.6740, 52.54736
946.1561, 58.71716
946.6382, 32.48306
947.1203, 12.52643
947.6024, 30.24695
948.0845, 23.01569
948.5667, 8.965088
949.0488, 12.50879
949.5309, 25.47928
950.0130, 17.80750
950.4951, 5.924591
950.9772, 29.50793
951.4594, 57.48392
951.9415, 71.20001
952.4236, 63.65271
952.9057, 45.51672
953.3878, 35.80209
953.8699, 30.74542
954.3521, 19.05551
954.8342, 7.236511
955.3163, 28.18634
955.7984, 25.89929
956.2805, 17.50061
956.7626, 22.96613
957.2448, 53.09915
957.7268, 59.22852
958.2089, 36.43713
958.6910, 8.491455
959.1732, 5.989258
959.6553, 9.784576
960.1374, 6.653931
960.6195, 2.654480
961.1016, 11.76514
961.5837, 15.32391
962.0659, 20.01605
962.5480, 31.54132
963.0301, 47.66406
963.5122, 54.68005
963.9943, 51.70319
964.4764, 45.86639
964.9586, 40.67468
965.4407, 33.31464
965.9228, 10.59106
966.4049, 16.81689
966.8870, 25.80505
967.3691, 18.51929
967.8513, 48.68683
968.3334, 40.45593
968.8155, 18.16241
969.2976, 8.714539
969.7797, 12.55078
970.2618, 23.78644
970.7440, 42.66553
971.2261, 62.72711
971.7082, 71.67584
972.1903, 81.63013
972.6724, 113.6070
973.1545, 174.8528
973.6367, 214.2521
974.1188, 204.0269
974.6009, 194.9036
975.0830, 211.7939
975.5651, 250.1062
976.0472, 274.5129
976.5294, 286.3676
977.0115, 299.3649
977.4936, 323.1513
977.9757, 349.5453
978.4578, 372.9495
978.9399, 393.7942
979.4221, 412.3928
979.9042, 417.3334
980.3863, 443.4182
980.8684, 502.8029
981.3505, 572.0052
981.8326, 613.1790
982.3148, 633.2044
982.7969, 654.9675
983.2790, 680.4644
983.7611, 719.8570
984.2432, 790.7336
984.7253, 870.7242
985.2075, 939.9258
985.6896, 995.1937
986.1717, 1056.710
986.6538, 1125.246
987.1359, 1199.584
987.6180, 1276.179
988.1002, 1359.926
988.5823, 1467.424
989.0644, 1593.414
989.5465, 1713.831
990.0286, 1785.547
990.5107, 1888.857
990.9929, 2067.234
991.4750, 2288.734
991.9571, 2481.328
992.4392, 2637.167
992.9213, 2868.367
993.4034, 3207.342
993.8856, 3592.180
994.3677, 3947.455
994.8498, 4299.606
995.3319, 4688.790
995.8140, 5129.572
996.2961, 5584.213
996.7783, 6055.295
997.2604, 6520.713
997.7425, 6969.364
998.2246, 7399.847
998.7067, 7811.904
999.1888, 8209.683
999.6710, 8601.643
1000.153, 9022.459
1000.635, 9417.866
1001.117, 9752.106
1001.599, 10031.79
1002.082, 10278.39
1002.564, 10504.78
1003.046, 10698.97
1003.528, 10882.71
1004.010, 10990.09
1004.492, 10944.04
1004.974, 10736.90
1005.456, 10343.78
1005.938, 9748.556
1006.421, 9033.703
1006.903, 8149.480
1007.385, 7223.789
1007.867, 6319.128
1008.349, 5434.016
1008.831, 4662.130
1009.313, 3997.570
1009.795, 3420.544
1010.278, 2918.136
1010.760, 2486.933
1011.242, 2141.308
1011.724, 1869.156
1012.206, 1635.114
1012.688, 1429.337
1013.170, 1259.433
1013.652, 1130.782
1014.134, 1030.223
1014.617, 939.1566
1015.099, 857.0565
1015.581, 784.4129
1016.063, 720.4865
1016.545, 671.2115
1017.027, 648.0108
1017.509, 638.9612
1017.991, 633.7590
1018.474, 631.4323
1018.956, 628.3907
1019.438, 622.2479
1019.920, 623.2258
1020.402, 639.9235
1020.884, 666.8010
1021.366, 695.3657
1021.848, 724.9565
1022.330, 745.5947
1022.813, 730.2980
1023.295, 732.1614
1023.777, 781.6533
1024.259, 844.4305
1024.741, 880.6762
1025.223, 894.1868
1025.705, 893.0842
1026.187, 878.0568
1026.669, 850.8087
1027.152, 806.1361
1027.634, 754.7736
1028.116, 702.5067
1028.598, 649.2382
1029.080, 623.3941
1029.562, 642.8801
1030.044, 652.8840
1030.526, 628.4258
1031.009, 584.4996
1031.491, 550.5381
1031.973, 529.6966
1032.455, 534.0530
1032.937, 591.2823
1033.419, 636.9893
1033.901, 623.9313
1034.383, 595.5212
1034.865, 601.5561
1035.348, 650.5826
1035.830, 681.8071
1036.312, 691.7494
1036.794, 701.6795
1037.276, 728.0555
1037.758, 765.0833
1038.240, 808.7219
1038.722, 858.0125
1039.204, 903.7527
1039.687, 942.9127
1040.169, 980.9045
1040.651, 1016.288
1041.133, 1054.668
1041.615, 1113.670
1042.097, 1187.508
1042.579, 1255.084
1043.061, 1311.411
1043.544, 1359.131
1044.026, 1389.182
1044.508, 1419.170
1044.990, 1465.744
1045.472, 1531.383
1045.954, 1584.681
1046.436, 1623.122
1046.918, 1669.217
1047.401, 1757.208
1047.883, 1847.505
1048.365, 1879.126
1048.847, 1869.129
1049.329, 1866.097
1049.811, 1891.487
1050.293, 1913.748
1050.775, 1927.633
1051.257, 1939.848
1051.740, 1962.734
1052.222, 1992.241
1052.704, 2015.054
1053.186, 2029.993
1053.668, 2026.167
1054.150, 1976.035
1054.632, 1923.701
1055.114, 1908.146
1055.596, 1920.044
1056.079, 1881.938
1056.561, 1789.008
1057.043, 1696.555
1057.525, 1627.664
1058.007, 1564.224
1058.489, 1482.926
1058.971, 1391.027
1059.453, 1300.138
1059.936, 1218.895
1060.418, 1124.911
1060.900, 1009.732
1061.382, 897.6128
1061.864, 810.8297
1062.346, 743.9677
1062.828, 682.0966
1063.310, 624.1892
1063.792, 562.5319
1064.275, 473.7591
1064.757, 401.1221
1065.239, 381.1489
1065.721, 384.8235
1066.203, 354.9008
1066.685, 289.1775
1067.167, 245.4080
1067.649, 238.1223
1068.131, 226.3585
1068.614, 147.2365
1069.096, 56.60382
1069.578, 16.14679
1070.060, 38.55334
1070.542, 56.33661
1071.024, 68.23712
1071.506, 72.18048
1071.988, 65.27991
1072.471, 52.00427
1072.953, 44.23792
1073.435, 38.00079
1073.917, 23.08545
1074.399, 14.57562
1074.881, 41.73346
1075.363, 44.64050
1075.845, 39.68616
1076.328, 39.11127
1076.810, 40.65472
1077.292, 22.07245
1077.774, 11.85101
1078.256, 27.97186
1078.738, 13.94299
1079.220, 61.22791
1079.702, 76.35510
1080.184, 67.03625
1080.667, 59.31647
1081.149, 56.17218
1081.631, 31.51233
1082.113, 23.13275
1082.595, 74.68225
1083.077, 80.99597
1083.559, 63.51910
1084.041, 46.67798
1084.523, 32.99054
1085.006, 34.63843
1085.488, 65.80469
1085.970, 90.39215
1086.452, 89.71246
1086.934, 77.19977
1087.416, 95.26154
1087.898, 134.6072
1088.380, 164.9387
1088.863, 169.9173
1089.345, 175.1550
1089.827, 192.5848
1090.309, 214.7000
1090.791, 236.0062
1091.273, 256.5353
1091.755, 270.2328
1092.237, 277.3652
1092.719, 295.6556
1093.202, 345.4078
1093.684, 403.2096
1094.166, 452.2878
1094.648, 494.5704
1095.130, 535.7706
1095.612, 577.2538
1096.094, 615.8280
1096.576, 651.2911
1097.058, 684.1721
1097.541, 717.2833
1098.023, 747.3140
1098.505, 767.0894
1098.987, 776.5361
1099.469, 784.7674
1099.951, 792.4639
1100.433, 801.0923
1100.915, 809.9150
1101.397, 821.2141
1101.880, 843.3256
1102.362, 872.4295
1102.844, 895.5198
1103.326, 907.8137
1103.808, 919.8398
1104.290, 935.7241
1104.772, 953.8569
1105.254, 971.4882
1105.737, 989.3765
1106.219, 1019.903
1106.701, 1062.512
1107.183, 1101.663
1107.665, 1128.308
1108.147, 1150.593
1108.629, 1174.775
1109.111, 1198.700
1109.594, 1220.369
1110.076, 1242.231
1110.558, 1252.041
1111.040, 1248.778
1111.522, 1237.170
1112.004, 1216.605
1112.486, 1192.794
1112.968, 1179.543
1113.450, 1171.327
1113.932, 1140.839
1114.415, 1071.658
1114.897, 1001.291
1115.379, 934.8546
1115.861, 870.7586
1116.343, 807.5066
1116.825, 745.1417
1117.307, 680.0640
1117.789, 611.9549
1118.272, 548.6550
1118.754, 487.1682
1119.236, 439.9032
1119.718, 415.6172
1120.200, 405.5406
1120.682, 381.5614
1121.164, 346.4044
1121.646, 311.3494
1122.129, 276.8657
1122.611, 252.4427
1123.093, 250.2538
1123.575, 255.5668
1124.057, 257.9792
1124.539, 257.3849
1125.021, 251.7275
1125.503, 240.9346
1125.985, 216.2875
1126.468, 155.2110
1126.950, 100.6680
1127.432, 105.0271
1127.914, 134.2602
1128.396, 131.3041
1128.878, 79.46924
1129.360, 41.84601
1129.842, 19.93622
1130.324, 8.473877
1130.807, 9.437927
1131.289, 14.19727
1131.771, 9.603455
1132.253, 1.799866
1132.735, 7.875000
1133.217, 5.398560
1133.699, 1.977783
1134.181, 31.34106
1134.664, 61.50702
1135.146, 28.99994
1135.628, 31.46753
1136.110, 45.01428
1136.592, 6.295471
1137.074, 26.51489
1137.556, 17.52856
1138.038, 14.08112
1138.521, 33.33441
1139.003, 60.10730
1139.485, 57.40088
1139.967, 32.60065
1140.449, 14.68030
1140.931, 10.42902
1141.413, 6.158813
1141.895, 3.619446
1142.377, 10.22656
1142.859, 42.61249
1143.342, 91.02960
1143.824, 147.6177
1144.306, 209.9321
1144.788, 254.4290
1145.270, 263.7038
1145.752, 273.5499
1146.234, 307.5806
1146.716, 352.5416
1147.199, 398.0068
1147.681, 444.1556
1148.163, 479.1040
1148.645, 503.1090
1149.127, 529.6672
1149.609, 574.4282
1150.091, 616.1856
1150.573, 635.8998
1151.056, 642.8074
1151.538, 652.8165
1152.020, 668.0716
1152.502, 684.7570
1152.984, 705.1065
1153.466, 710.0737
1153.948, 677.0283
1154.430, 626.6194
1154.912, 573.4563
1155.395, 521.4310
1155.877, 484.1652
1156.359, 475.5652
1156.841, 442.0265
1157.323, 371.4575
1157.805, 297.7361
1158.287, 254.3991
1158.769, 231.5731
1159.251, 219.7864
1159.734, 216.8563
1160.216, 211.3828
1160.698, 202.2892
1161.180, 188.6815
1161.662, 170.1129
1162.144, 147.7943
1162.626, 117.6112
1163.108, 86.98865
1163.591, 73.22229
1164.073, 79.75256
1164.555, 83.82745
1165.037, 74.03717
1165.519, 76.56659
1166.001, 97.46979
1166.483, 111.2399
1166.965, 118.2584
1167.448, 98.30060
1167.930, 113.1924
1168.412, 114.1211
1168.894, 114.4832
1169.376, 134.2949
1169.858, 179.8290
1170.340, 206.1328
1170.822, 201.5916
1171.304, 232.9037
1171.786, 290.6677
1172.269, 333.9709
1172.751, 335.6460
1173.233, 348.7698
1173.715, 410.2039
1174.197, 476.3005
1174.679, 518.5605
1175.161, 539.3250
1175.643, 560.6391
1176.126, 582.9108
1176.608, 610.8820
1177.090, 657.8043
1177.572, 697.5921
1178.054, 718.9958
1178.536, 723.9794
1179.018, 717.9934
1179.500, 701.0637
1179.983, 649.2842
1180.465, 565.5027
1180.947, 492.6479
1181.429, 466.1641
1181.911, 446.9031
1182.393, 409.1840
1182.875, 367.9308
1183.357, 349.5855
1183.839, 355.3052
1184.322, 339.1707
1184.804, 298.5513
1185.286, 250.4349
1185.768, 184.1904
1186.250, 137.9404
1186.732, 158.4230
1187.214, 211.5814
1187.696, 219.3369
1188.178, 177.7318
1188.661, 153.8588
1189.143, 156.2857
1189.625, 169.6655
1190.107, 189.1801
1190.589, 207.4634
1191.071, 221.2748
1191.553, 229.0357
1192.035, 224.4308
1192.517, 205.8688
1193.000, 202.8475
1193.482, 222.1454
1193.964, 244.4824
1194.446, 255.2394
1194.928, 259.6057
1195.410, 259.5110
1195.892, 258.6273
1196.374, 284.6704
1196.857, 340.4167
1197.339, 387.7107
1197.821, 415.1132
1198.303, 439.5392
1198.785, 478.1920
1199.267, 520.3403
1199.749, 550.2985
1200.231, 568.7568
1200.714, 615.1806
1201.196, 692.5524
1201.678, 765.4680
1202.160, 819.4598
1202.642, 873.5414
1203.124, 959.1738
1203.606, 1049.182
1204.088, 1105.994
1204.570, 1125.534
1205.052, 1166.258
1205.535, 1228.181
1206.017, 1304.458
1206.499, 1392.146
1206.981, 1491.555
1207.463, 1608.944
1207.945, 1734.306
1208.427, 1856.254
1208.909, 1977.903
1209.392, 2067.210
1209.874, 2122.310
1210.356, 2173.881
1210.838, 2246.055
1211.320, 2314.737
1211.802, 2360.837
1212.284, 2383.462
1212.766, 2373.216
1213.249, 2320.801
1213.731, 2305.230
1214.213, 2329.435
1214.695, 2334.314
1215.177, 2280.797
1215.659, 2196.882
1216.141, 2103.564
1216.623, 1999.040
1217.105, 1877.296
1217.588, 1732.766
1218.070, 1591.576
1218.552, 1453.157
1219.034, 1326.121
1219.516, 1229.762
1219.998, 1136.096
1220.480, 1012.657
1220.962, 880.7205
1221.444, 778.5056
1221.927, 711.8177
1222.409, 649.7914
1222.891, 591.7818
1223.373, 530.4086
1223.855, 447.7345
1224.337, 371.1154
1224.819, 323.1820
1225.301, 297.2579
1225.784, 279.5020
1226.266, 273.1206
1226.748, 245.2054
1227.230, 193.5604
1227.712, 149.1676
1228.194, 141.7068
1228.676, 143.4418
1229.158, 136.4684
1229.641, 123.8065
1230.123, 114.0166
1230.605, 108.3789
1231.087, 91.43369
1231.569, 62.12109
1232.051, 38.55121
1232.533, 40.55948
1233.015, 45.81064
1233.497, 42.38620
1233.979, 31.06781
1234.462, 8.356537
1234.944, 25.36777
1235.426, 31.53989
1235.908, 7.858337
1236.390, 19.64764
1236.872, 35.22665
1237.354, 45.94083
1237.836, 53.12918
1238.319, 59.45483
1238.801, 71.21002
1239.283, 87.52222
1239.765, 96.85577
1240.247, 98.04706
1240.729, 91.29630
1241.211, 60.69934
1241.693, 41.46548
1242.176, 59.93066
1242.658, 90.27307
1243.140, 78.12592
1243.622, 33.92062
1244.104, 18.50018
1244.586, 39.05582
1245.068, 70.49377
1245.550, 122.2977
1246.032, 151.6918
1246.515, 137.1996
1246.997, 102.5266
1247.479, 87.99988
1247.961, 89.60974
1248.443, 94.89636
1248.925, 102.0976
1249.407, 103.7945
1249.889, 86.26447
1250.371, 77.16727
1250.854, 86.34601
1251.336, 103.5570
1251.818, 112.4726
1252.300, 115.5535
1252.782, 119.4318
1253.264, 124.8093
1253.746, 126.1563
1254.228, 121.3612
1254.711, 111.7540
1255.193, 95.35245
1255.675, 79.07425
1256.157, 73.56516
1256.639, 75.75235
1257.121, 86.53244
1257.603, 105.2790
1258.085, 101.5822
1258.568, 52.68851
1259.050, 30.51196
1259.532, 56.59576
1260.014, 96.60452
1260.496, 114.8930
1260.978, 113.4741
1261.460, 84.10480
1261.942, 29.80701
1262.424, 10.41351
1262.906, 40.67697
1263.389, 55.25644
1263.871, 36.99551
1264.353, 10.56781
1264.835, 5.572754
1265.317, 8.674591
1265.799, 15.88135
1266.281, 61.51282
1266.763, 69.13498
1267.246, 34.82028
1267.728, 4.580780
1268.210, 45.15486
1268.692, 65.27959
1269.174, 17.56979
1269.656, 34.94269
1270.138, 31.03879
1270.620, 10.87927
1271.103, 28.20367
1271.585, 21.74792
1272.067, 7.518127
1272.549, 13.03290
1273.031, 25.75223
1273.513, 8.411774
1273.995, 6.118195
1274.477, 2.093048
1274.959, 24.91348
1275.442, 47.48749
1275.924, 65.43024
1276.406, 71.27829
1276.888, 60.65945
1277.370, 46.11537
1277.852, 28.18230
1278.334, 15.34805
1278.816, 10.22731
1279.298, 11.94821
1279.781, 24.34073
1280.263, 41.12721
1280.745, 42.57133
1281.227, 26.26530
1281.709, 21.91379
1282.191, 49.05339
1282.673, 69.45445
1283.155, 74.44406
1283.637, 70.08279
1284.120, 59.07204
1284.602, 47.62012
1285.084, 48.87456
1285.566, 62.57504
1286.048, 66.52145
1286.530, 57.66821
1287.012, 42.06677
1287.494, 18.17104
1287.977, 0.1779170
1288.459, 8.081009
1288.941, 25.36711
1289.423, 31.21294
1289.905, 28.28362
1290.387, 43.17130
1290.869, 79.30557
1291.351, 85.86790
1291.833, 50.14151
1292.316, 7.681686
1292.798, 3.693695
1293.280, 9.925034
1293.762, 13.20792
1294.244, 17.03049
1294.726, 35.16295
1295.208, 59.08078
1295.690, 81.75165
1296.172, 100.8029
1296.655, 104.4185
1297.137, 68.24986
1297.619, 36.87566
1298.101, 27.63792
1298.583, 30.75336
1299.065, 30.84424
1299.547, 30.28188
1300.029, 38.17137
1300.512, 53.32539
1300.994, 58.82422
1301.476, 34.07732
1301.958, 19.49760
1302.440, 17.21419
1302.922, 30.45558
1303.404, 55.89499
1303.886, 80.56932
1304.369, 68.97606
1304.851, 30.42737
1305.333, 21.49901
1305.815, 55.85072
1306.297, 68.26674
1306.779, 49.74464
1307.261, 26.84969
1307.743, 21.36543
1308.225, 24.54149
1308.708, 34.12347
1309.190, 43.20367
1309.672, 43.53874
1310.154, 35.22935
1310.636, 23.76724
1311.118, 9.360382
1311.600, 4.255844
1312.082, 31.67438
1312.564, 51.02528
1313.047, 28.22374
1313.529, 1.274033
1314.011, 0.5714260
1314.493, 32.69513
1314.975, 37.94980
1315.457, 20.93106
1315.939, 0.0000000E+00
##END=



