##NAMES=Kankite
##RRUFFID=R060783
##IDEAL CHEMISTRY=Fe^3+^As^5+^O_4_&#183;3.5H_2_O
##LOCALITY=Kank by Kutna Hora, Bohemia, Czech Republic
##OWNER=RRUFF
##SOURCE=Michael Scott
##DESCRIPTION=Gray botryoidal crust
##STATUS=The identification of this mineral is not yet confirmed.
##URL=rruff.info/R060783
212.1609, 0.0000000E+00
212.6430, 0.6313480
213.1251, 0.4418950
213.6072, 12.02393
214.0893, 21.83203
214.5715, 29.76758
215.0536, 34.36084
215.5357, 32.90820
216.0178, 21.81152
216.4999, 19.90771
216.9820, 30.09131
217.4642, 46.84961
217.9463, 60.43164
218.4284, 70.54639
218.9105, 77.14502
219.3926, 79.10352
219.8747, 73.66211
220.3569, 70.92725
220.8390, 69.83057
221.3211, 71.91992
221.8032, 83.62207
222.2853, 115.2046
222.7674, 139.9697
223.2495, 140.9644
223.7317, 102.6748
224.2138, 83.08252
224.6959, 90.69629
225.1780, 114.8530
225.6601, 122.8496
226.1422, 105.5186
226.6244, 86.29346
227.1065, 76.31445
227.5886, 75.51709
228.0707, 84.72607
228.5528, 109.8618
229.0349, 145.0269
229.5171, 166.8652
229.9992, 169.6558
230.4813, 167.5068
230.9634, 167.1465
231.4455, 165.3574
231.9276, 174.0869
232.4098, 206.9844
232.8919, 256.9688
233.3740, 284.1807
233.8561, 271.8853
234.3382, 255.5396
234.8203, 265.0898
235.3024, 319.8999
235.7846, 358.2158
236.2667, 364.9775
236.7488, 357.1401
237.2309, 356.2593
237.7130, 364.3403
238.1951, 376.9771
238.6773, 392.2524
239.1594, 414.1274
239.6415, 431.1021
240.1236, 445.5820
240.6057, 455.8154
241.0878, 446.1343
241.5700, 406.7437
242.0521, 359.1816
242.5342, 318.0444
243.0163, 284.8281
243.4984, 254.8066
243.9805, 226.4204
244.4627, 200.0073
244.9448, 181.8394
245.4269, 178.7061
245.9090, 175.6821
246.3911, 160.1680
246.8732, 122.0542
247.3554, 91.18213
247.8375, 72.05762
248.3196, 64.06934
248.8017, 60.08447
249.2838, 63.28418
249.7659, 66.76562
250.2480, 65.56689
250.7302, 59.87598
251.2123, 49.27002
251.6944, 31.21094
252.1765, 6.829102
252.6586, 10.15088
253.1407, 18.64551
253.6229, 20.56006
254.1050, 16.57031
254.5871, 3.836914
255.0692, 9.218750
255.5513, 24.75781
256.0334, 41.70557
256.5156, 41.55908
256.9977, 14.72900
257.4798, 17.08789
257.9619, 37.43164
258.4440, 48.43994
258.9261, 42.20020
259.4083, 9.734375
259.8904, 46.48975
260.3725, 78.57959
260.8546, 76.52295
261.3367, 64.50830
261.8188, 63.45020
262.3010, 76.83496
262.7831, 91.57910
263.2652, 106.1333
263.7473, 120.2305
264.2294, 135.7783
264.7115, 149.2568
265.1937, 160.8604
265.6758, 173.8384
266.1579, 182.6504
266.6400, 199.0332
267.1221, 228.3638
267.6042, 269.3882
268.0864, 296.4551
268.5685, 307.0679
269.0506, 312.5000
269.5327, 322.8716
270.0148, 340.5508
270.4969, 357.1333
270.9791, 372.3804
271.4612, 385.9731
271.9433, 392.8208
272.4254, 389.5728
272.9075, 387.7773
273.3896, 398.0117
273.8717, 421.6514
274.3539, 448.8892
274.8360, 479.7651
275.3181, 512.9600
275.8002, 541.8940
276.2823, 565.5576
276.7644, 587.6724
277.2466, 610.1504
277.7287, 632.3325
278.2108, 660.8843
278.6929, 699.5928
279.1750, 744.6831
279.6571, 780.1670
280.1393, 804.3521
280.6214, 825.7817
281.1035, 851.8169
281.5856, 882.5869
282.0677, 911.2051
282.5498, 937.2769
283.0320, 959.8926
283.5141, 975.0112
283.9962, 981.8604
284.4783, 986.7637
284.9604, 995.5811
285.4425, 1008.120
285.9247, 1017.704
286.4068, 1024.151
286.8889, 1026.312
287.3710, 1021.122
287.8531, 1008.569
288.3352, 990.0273
288.8174, 960.2354
289.2995, 922.2183
289.7816, 899.6162
290.2637, 902.3418
290.7458, 913.9106
291.2279, 904.6045
291.7101, 874.6177
292.1922, 830.7524
292.6743, 766.4756
293.1564, 689.8345
293.6385, 633.2544
294.1206, 604.9419
294.6028, 592.8691
295.0849, 581.7886
295.5670, 571.5454
296.0491, 560.0088
296.5312, 546.3984
297.0133, 530.7334
297.4955, 511.5308
297.9776, 487.3345
298.4597, 464.3984
298.9418, 453.1914
299.4239, 451.5352
299.9060, 449.8403
300.3881, 442.9424
300.8702, 431.9365
301.3524, 418.2285
301.8345, 401.3149
302.3166, 383.2241
302.7987, 362.7358
303.2808, 341.8862
303.7629, 326.5449
304.2451, 327.2480
304.7272, 332.1294
305.2093, 324.4009
305.6914, 300.2319
306.1735, 274.4399
306.6556, 261.5508
307.1378, 256.2651
307.6199, 247.2056
308.1020, 225.6533
308.5841, 199.9424
309.0662, 176.0542
309.5483, 153.6479
310.0305, 137.0391
310.5126, 135.8994
310.9947, 141.7002
311.4768, 140.7451
311.9589, 119.7412
312.4410, 96.57764
312.9232, 85.37598
313.4053, 87.15332
313.8874, 84.60693
314.3695, 63.35791
314.8516, 33.68311
315.3337, 7.211914
315.8159, 13.35938
316.2980, 26.77002
316.7801, 27.56104
317.2622, 14.41113
317.7443, 3.372070
318.2264, 9.199707
318.7086, 18.50244
319.1907, 19.51953
319.6728, 4.190430
320.1549, 23.52100
320.6370, 27.75781
321.1191, 18.08643
321.6013, 8.261230
322.0834, 4.020996
322.5655, 12.03809
323.0476, 11.28711
323.5297, 3.331055
324.0118, 21.72754
324.4940, 44.97070
324.9761, 71.70117
325.4582, 94.90381
325.9403, 120.5122
326.4224, 137.4062
326.9045, 140.1870
327.3867, 111.9482
327.8688, 90.37402
328.3509, 78.97607
328.8330, 75.10059
329.3151, 70.65820
329.7972, 66.97021
330.2793, 61.51465
330.7614, 52.96631
331.2436, 38.42285
331.7257, 26.57568
332.2078, 16.46533
332.6899, 9.386230
333.1720, 9.086914
333.6541, 22.62354
334.1363, 31.91797
334.6184, 28.32764
335.1005, 6.150391
335.5826, 2.860352
336.0647, 6.836426
336.5468, 24.63623
337.0290, 34.41748
337.5111, 32.55566
337.9932, 32.65479
338.4753, 40.51025
338.9574, 56.07227
339.4395, 63.62549
339.9217, 60.72314
340.4038, 54.41602
340.8859, 54.05029
341.3680, 60.87061
341.8501, 62.59180
342.3322, 52.80908
342.8144, 35.30469
343.2965, 31.03760
343.7786, 42.12207
344.2607, 55.95557
344.7428, 61.29883
345.2249, 58.78369
345.7071, 55.51611
346.1892, 52.14697
346.6713, 49.98096
347.1534, 51.58105
347.6355, 56.92969
348.1176, 65.89990
348.5998, 82.24170
349.0819, 102.4858
349.5640, 115.5532
350.0461, 118.3843
350.5282, 115.6323
351.0103, 111.6660
351.4925, 107.0054
351.9746, 104.6895
352.4567, 106.2554
352.9388, 111.3203
353.4209, 120.9561
353.9030, 136.7769
354.3852, 150.8638
354.8673, 157.9644
355.3494, 158.0640
355.8315, 150.9902
356.3136, 128.0654
356.7957, 103.4370
357.2779, 89.26416
357.7600, 86.70166
358.2421, 92.35645
358.7242, 112.5337
359.2063, 137.5229
359.6884, 154.4106
360.1705, 154.4629
360.6526, 148.5000
361.1348, 136.2168
361.6169, 118.3994
362.0990, 112.8037
362.5811, 131.3208
363.0632, 162.0259
363.5453, 195.1118
364.0275, 242.4463
364.5096, 276.7749
364.9917, 282.1646
365.4738, 265.0078
365.9559, 259.2881
366.4380, 280.2773
366.9202, 307.9131
367.4023, 332.4043
367.8844, 353.0166
368.3665, 370.7690
368.8486, 377.8867
369.3307, 382.3706
369.8129, 404.0347
370.2950, 458.3691
370.7771, 512.8169
371.2592, 556.9478
371.7413, 589.6680
372.2234, 610.3359
372.7056, 613.6807
373.1877, 609.5977
373.6698, 612.0776
374.1519, 623.6152
374.6340, 635.7002
375.1161, 646.2109
375.5983, 655.2236
376.0804, 667.8467
376.5625, 685.0166
377.0446, 700.7183
377.5267, 711.2930
378.0089, 716.9751
378.4910, 713.1997
378.9731, 697.1494
379.4552, 671.9551
379.9373, 648.8159
380.4194, 627.8750
380.9016, 606.4688
381.3837, 580.3350
381.8658, 550.6836
382.3479, 527.6714
382.8300, 513.6929
383.3121, 505.2891
383.7943, 499.5127
384.2764, 495.6157
384.7585, 488.6055
385.2406, 472.2227
385.7227, 451.0615
386.2048, 436.2881
386.6870, 429.7632
387.1691, 421.0762
387.6512, 393.9106
388.1333, 356.9648
388.6154, 328.3066
389.0975, 323.8604
389.5796, 326.3682
390.0617, 320.4194
390.5439, 305.8379
391.0260, 290.0801
391.5081, 275.4370
391.9902, 263.1318
392.4723, 254.3296
392.9544, 249.1992
393.4366, 248.3774
393.9187, 254.9390
394.4008, 267.1567
394.8829, 278.0708
395.3650, 296.6299
395.8471, 305.4937
396.3293, 291.7988
396.8114, 232.0566
397.2935, 188.2368
397.7756, 174.5654
398.2577, 182.6733
398.7398, 195.1274
399.2220, 224.3892
399.7041, 244.3315
400.1862, 245.2109
400.6683, 221.2534
401.1504, 202.8032
401.6325, 191.2798
402.1147, 184.2886
402.5968, 178.8667
403.0789, 173.3677
403.5610, 173.4189
404.0431, 181.9238
404.5252, 197.8218
405.0074, 211.4502
405.4895, 224.4980
405.9716, 231.5396
406.4537, 226.1357
406.9358, 206.9072
407.4179, 189.9141
407.9001, 174.6636
408.3822, 165.4263
408.8643, 177.6694
409.3464, 212.0630
409.8285, 239.1011
410.3106, 235.7949
410.7928, 210.5015
411.2749, 196.5156
411.7570, 197.1021
412.2391, 199.2568
412.7212, 184.2856
413.2033, 157.7642
413.6855, 137.6450
414.1676, 137.8945
414.6497, 144.6245
415.1318, 137.0498
415.6139, 116.4004
416.0960, 100.3774
416.5781, 107.6772
417.0602, 124.1069
417.5424, 132.1284
418.0245, 123.4004
418.5066, 110.8271
418.9887, 99.22070
419.4708, 89.23438
419.9529, 82.44287
420.4351, 81.46875
420.9172, 82.61230
421.3993, 84.52637
421.8814, 88.09082
422.3635, 89.46045
422.8456, 91.55029
423.3278, 90.08447
423.8099, 79.47705
424.2920, 43.60303
424.7741, 14.85498
425.2562, 2.910645
425.7383, 8.427246
426.2205, 8.763184
426.7026, 0.9379880
427.1847, 9.119629
427.6668, 18.24805
428.1489, 29.73975
428.6310, 31.88330
429.1132, 18.99170
429.5953, 2.027832
430.0774, 9.092773
430.5595, 1.272949
431.0416, 13.27539
431.5237, 18.19043
432.0059, 15.83936
432.4880, 19.04932
432.9701, 30.07764
433.4522, 40.16357
433.9343, 35.62402
434.4164, 17.86328
434.8986, 0.3466800
435.3807, 14.65039
435.8628, 25.25781
436.3449, 24.56250
436.8270, 13.16846
437.3091, 1.975098
437.7913, 0.7568360
438.2734, 2.564941
438.7555, 8.566406
439.2376, 17.56982
439.7197, 26.67822
440.2018, 32.06006
440.6840, 35.41064
441.1661, 41.03027
441.6482, 57.82715
442.1303, 72.42334
442.6124, 73.34229
443.0945, 57.25293
443.5767, 44.53613
444.0588, 45.18408
444.5409, 51.79688
445.0230, 56.91650
445.5051, 55.58545
445.9872, 56.41797
446.4693, 64.58203
446.9514, 78.67334
447.4336, 84.48682
447.9157, 67.03174
448.3978, 54.90039
448.8799, 64.57568
449.3620, 119.3916
449.8441, 144.6787
450.3263, 128.1885
450.8084, 91.04199
451.2905, 69.96338
451.7726, 68.43896
452.2547, 71.90771
452.7368, 75.98242
453.2190, 80.79053
453.7011, 90.70117
454.1832, 107.0557
454.6653, 122.0659
455.1474, 127.8682
455.6295, 125.3691
456.1117, 120.6279
456.5938, 112.2349
457.0759, 106.5864
457.5580, 116.5684
458.0401, 140.1123
458.5222, 165.8613
459.0044, 194.8452
459.4865, 219.2417
459.9686, 225.9473
460.4507, 212.2754
460.9328, 195.7900
461.4149, 184.6494
461.8971, 180.3906
462.3792, 185.1533
462.8613, 207.2422
463.3434, 231.6104
463.8255, 253.7925
464.3076, 272.9707
464.7898, 285.5679
465.2719, 274.4858
465.7540, 267.8350
466.2361, 282.5601
466.7182, 335.3267
467.2003, 381.8862
467.6825, 421.8999
468.1646, 453.2148
468.6467, 471.6162
469.1288, 464.7920
469.6109, 463.0923
470.0930, 473.5322
470.5752, 495.7881
471.0573, 523.7344
471.5394, 559.2397
472.0215, 595.9717
472.5036, 630.8457
472.9857, 664.4053
473.4679, 686.3252
473.9500, 690.8999
474.4321, 690.1719
474.9142, 708.5776
475.3963, 745.0850
475.8784, 783.3853
476.3605, 815.9209
476.8427, 844.6475
477.3248, 871.5562
477.8069, 896.8799
478.2890, 926.9668
478.7711, 972.2056
479.2532, 1022.815
479.7354, 1063.169
480.2175, 1082.972
480.6996, 1103.977
481.1817, 1145.945
481.6638, 1200.685
482.1459, 1248.456
482.6281, 1277.984
483.1102, 1304.607
483.5923, 1340.379
484.0744, 1387.961
484.5565, 1425.280
485.0386, 1441.200
485.5208, 1447.504
486.0029, 1455.931
486.4850, 1463.410
486.9671, 1479.516
487.4492, 1513.875
487.9313, 1559.649
488.4135, 1578.365
488.8956, 1559.680
489.3777, 1533.079
489.8598, 1515.217
490.3419, 1508.681
490.8240, 1490.932
491.3062, 1459.691
491.7883, 1423.158
492.2704, 1393.230
492.7525, 1369.729
493.2346, 1346.316
493.7167, 1322.588
494.1989, 1297.141
494.6810, 1266.312
495.1631, 1230.628
495.6452, 1193.924
496.1273, 1155.703
496.6094, 1119.465
497.0916, 1095.700
497.5737, 1091.519
498.0558, 1077.717
498.5379, 1019.078
499.0200, 939.1816
499.5021, 877.4907
499.9843, 863.4668
500.4664, 856.1001
500.9485, 841.8774
501.4306, 820.1777
501.9127, 790.7246
502.3948, 739.5703
502.8770, 690.9028
503.3591, 659.7729
503.8412, 661.8477
504.3233, 652.0991
504.8054, 624.0298
505.2875, 587.5371
505.7696, 557.6230
506.2517, 534.4648
506.7339, 516.7744
507.2160, 507.5244
507.6981, 504.0181
508.1802, 484.6631
508.6623, 446.6606
509.1444, 409.9658
509.6266, 393.6460
510.1087, 393.3721
510.5908, 388.3301
511.0729, 376.2148
511.5550, 358.4141
512.0372, 332.1836
512.5193, 301.1099
513.0014, 275.4189
513.4835, 262.8940
513.9656, 255.2490
514.4478, 245.2485
514.9299, 233.1323
515.4120, 222.3350
515.8941, 214.3564
516.3762, 208.3032
516.8583, 203.9824
517.3405, 203.2061
517.8226, 199.9194
518.3046, 186.5938
518.7867, 171.2788
519.2689, 167.3833
519.7510, 190.8174
520.2331, 206.3755
520.7152, 205.1978
521.1973, 188.4121
521.6794, 171.1489
522.1616, 150.6123
522.6437, 135.2334
523.1258, 134.1538
523.6079, 149.2114
524.0900, 154.1606
524.5721, 145.5825
525.0543, 130.9585
525.5364, 120.5386
526.0185, 113.6870
526.5006, 105.9390
526.9827, 94.04248
527.4648, 81.37158
527.9470, 73.92676
528.4291, 71.22217
528.9112, 69.25342
529.3933, 65.92969
529.8754, 61.78174
530.3575, 57.27002
530.8397, 52.45312
531.3218, 47.44824
531.8039, 42.49463
532.2860, 37.39990
532.7681, 32.07910
533.2502, 25.49121
533.7324, 19.79199
534.2145, 17.77686
534.6966, 18.28955
535.1787, 11.86230
535.6608, 12.61328
536.1429, 30.16406
536.6251, 24.66504
537.1072, 13.58691
537.5893, 24.05713
538.0714, 4.022461
538.5535, 39.27490
539.0356, 36.12549
539.5178, 5.394043
539.9999, 26.45215
540.4820, 3.358398
540.9641, 37.80908
541.4462, 46.24463
541.9283, 25.89062
542.4105, 3.246094
542.8926, 3.802246
543.3747, 5.178711
543.8568, 15.27930
544.3389, 34.82178
544.8210, 48.90381
545.3032, 41.52051
545.7853, 27.00195
546.2674, 20.26172
546.7495, 36.42383
547.2316, 46.11230
547.7137, 33.69531
548.1959, 9.472656
548.6780, 1.749512
549.1601, 16.14697
549.6422, 32.11719
550.1243, 36.92578
550.6064, 29.92676
551.0886, 28.44727
551.5707, 35.74121
552.0528, 42.68457
552.5349, 41.58643
553.0170, 32.01709
553.4991, 21.82178
553.9813, 11.21631
554.4634, 1.583984
554.9455, 7.167969
555.4276, 14.01318
555.9097, 12.83105
556.3918, 1.707520
556.8740, 23.70752
557.3561, 51.46875
557.8382, 82.43994
558.3203, 101.0391
558.8024, 88.68457
559.2845, 65.49512
559.7667, 45.30078
560.2488, 27.60400
560.7309, 23.67383
561.2130, 53.75391
561.6951, 92.75098
562.1772, 113.2876
562.6594, 92.52051
563.1415, 76.02490
563.6236, 69.58643
564.1057, 70.79199
564.5878, 70.83398
565.0699, 66.85498
565.5521, 68.07861
566.0342, 80.90820
566.5163, 104.7603
566.9984, 120.5850
567.4805, 126.8301
567.9626, 132.3818
568.4448, 149.5503
568.9269, 173.7988
569.4090, 190.4756
569.8911, 198.4692
570.3732, 193.4971
570.8553, 156.5488
571.3375, 102.3477
571.8196, 66.31396
572.3017, 75.13379
572.7838, 96.61523
573.2659, 117.0273
573.7480, 134.9453
574.2302, 143.4702
574.7123, 132.1680
575.1944, 116.9668
575.6765, 106.6157
576.1586, 101.8130
576.6407, 99.32031
577.1228, 102.7080
577.6049, 106.9946
578.0870, 106.0088
578.5692, 98.39941
579.0513, 93.27295
579.5334, 92.90869
580.0155, 93.39941
580.4976, 82.21631
580.9797, 59.95557
581.4619, 45.46289
581.9440, 55.12793
582.4261, 78.10742
582.9082, 92.75635
583.3903, 98.53174
583.8724, 97.05811
584.3546, 75.05225
584.8367, 52.86572
585.3188, 57.35596
585.8009, 110.6807
586.2830, 151.1089
586.7651, 139.5283
587.2473, 102.1060
587.7294, 78.08203
588.2115, 91.16602
588.6936, 98.21240
589.1757, 84.37012
589.6578, 56.32520
590.1400, 51.81104
590.6221, 86.41455
591.1042, 113.5757
591.5863, 104.4146
592.0684, 58.13965
592.5505, 37.21387
593.0327, 45.52490
593.5148, 59.95215
593.9969, 55.06055
594.4790, 38.33643
594.9611, 35.24365
595.4432, 53.97070
595.9254, 71.95996
596.4075, 56.31592
596.8896, 23.44336
597.3717, 6.059570
597.8538, 31.31641
598.3359, 58.20898
598.8181, 62.14404
599.3002, 46.40527
599.7823, 30.09717
600.2644, 9.468262
600.7465, 5.181641
601.2286, 7.095703
601.7108, 9.144531
602.1929, 17.03564
602.6750, 11.88770
603.1571, 4.186523
603.6392, 3.462891
604.1213, 9.741211
604.6035, 24.42139
605.0856, 51.37988
605.5677, 80.43066
606.0498, 93.38330
606.5319, 91.39062
607.0140, 84.76660
607.4962, 73.38867
607.9783, 61.56836
608.4604, 55.53613
608.9425, 54.46631
609.4246, 53.57715
609.9067, 43.19922
610.3889, 36.81934
610.8710, 48.29688
611.3531, 87.18408
611.8352, 111.6304
612.3173, 106.0083
612.7994, 86.45361
613.2816, 67.02539
613.7637, 44.72803
614.2458, 31.72705
614.7279, 30.81104
615.2100, 36.98291
615.6921, 40.84424
616.1743, 42.25244
616.6564, 43.73096
617.1385, 45.88916
617.6206, 48.98975
618.1027, 52.93311
618.5848, 57.92432
619.0670, 66.56689
619.5491, 86.95068
620.0312, 108.0234
620.5133, 116.5039
620.9954, 110.2798
621.4775, 99.74561
621.9597, 81.72949
622.4418, 66.44531
622.9239, 63.24219
623.4060, 88.60449
623.8881, 105.9067
624.3702, 108.6113
624.8524, 102.1147
625.3345, 94.49463
625.8166, 85.60645
626.2987, 75.39990
626.7808, 61.50391
627.2629, 46.93115
627.7451, 45.84082
628.2272, 58.96582
628.7093, 73.11230
629.1914, 84.45459
629.6735, 90.31982
630.1556, 80.73779
630.6378, 55.72070
631.1199, 30.16309
631.6020, 13.79688
632.0841, 3.754395
632.5662, 3.747070
633.0483, 11.70557
633.5305, 11.14258
634.0126, 14.68994
634.4946, 46.14307
634.9767, 56.45068
635.4589, 19.81836
635.9410, 7.310547
636.4231, 18.47852
636.9052, 15.99707
637.3873, 4.484375
637.8694, 19.20557
638.3516, 38.77930
638.8337, 47.15869
639.3158, 46.10352
639.7979, 42.96289
640.2800, 37.72168
640.7621, 31.52979
641.2443, 23.58984
641.7264, 15.93750
642.2085, 12.07422
642.6906, 12.88379
643.1727, 14.68604
643.6548, 19.04199
644.1370, 21.70752
644.6191, 18.25977
645.1012, 4.992676
645.5833, 18.00537
646.0654, 11.72754
646.5475, 5.911133
647.0297, 21.77637
647.5118, 34.00195
647.9939, 49.06641
648.4760, 72.23242
648.9581, 99.46729
649.4402, 107.9224
649.9224, 94.41553
650.4045, 80.46924
650.8866, 83.51562
651.3687, 95.37061
651.8508, 89.83154
652.3329, 66.00000
652.8151, 51.78174
653.2972, 83.53857
653.7793, 127.2422
654.2614, 147.7686
654.7435, 130.9551
655.2256, 115.4180
655.7078, 117.6157
656.1899, 125.7080
656.6720, 126.3271
657.1541, 115.7388
657.6362, 105.1719
658.1183, 93.39648
658.6005, 81.43750
659.0826, 73.04883
659.5647, 68.78711
660.0468, 68.29639
660.5289, 70.35400
661.0110, 76.61572
661.4932, 98.48193
661.9753, 132.6167
662.4574, 154.8164
662.9395, 137.6133
663.4216, 108.7646
663.9037, 98.54053
664.3859, 108.9941
664.8680, 117.4946
665.3501, 107.5166
665.8322, 97.00488
666.3143, 99.78711
666.7964, 132.0166
667.2786, 145.2246
667.7607, 124.1440
668.2428, 97.11963
668.7249, 100.0552
669.2070, 140.8022
669.6891, 162.5420
670.1713, 152.0127
670.6534, 127.4473
671.1355, 121.7568
671.6176, 131.4434
672.0997, 139.0562
672.5818, 139.6523
673.0640, 133.3828
673.5461, 115.6479
674.0282, 90.37256
674.5103, 70.43066
674.9924, 67.33398
675.4745, 66.69141
675.9567, 59.14014
676.4388, 43.45117
676.9209, 39.04346
677.4030, 53.14502
677.8851, 71.10547
678.3672, 86.14062
678.8494, 98.99805
679.3315, 102.8354
679.8136, 94.88721
680.2957, 85.56055
680.7778, 86.59277
681.2599, 95.74414
681.7421, 105.9858
682.2242, 117.4048
682.7063, 124.3574
683.1884, 117.9976
683.6705, 103.9868
684.1526, 91.87402
684.6348, 87.86572
685.1169, 83.37109
685.5990, 67.96875
686.0811, 49.65283
686.5632, 52.76416
687.0453, 101.1108
687.5275, 137.8931
688.0096, 147.5137
688.4917, 133.4102
688.9738, 113.9111
689.4559, 87.73682
689.9380, 64.65820
690.4202, 45.59619
690.9023, 33.72119
691.3844, 47.62451
691.8665, 87.55566
692.3486, 124.6030
692.8307, 138.9355
693.3128, 137.8916
693.7949, 126.5708
694.2770, 102.6821
694.7592, 82.97119
695.2413, 76.48340
695.7234, 75.13477
696.2055, 70.99707
696.6876, 61.68555
697.1697, 53.74902
697.6519, 46.78613
698.1340, 41.75830
698.6161, 41.33105
699.0982, 45.90088
699.5803, 49.02295
700.0624, 49.10791
700.5446, 47.07031
701.0267, 43.65186
701.5088, 39.49414
701.9909, 36.01025
702.4730, 31.43701
702.9551, 29.66650
703.4373, 38.12598
703.9194, 54.66162
704.4015, 64.33057
704.8836, 59.41016
705.3657, 48.30518
705.8478, 29.19629
706.3300, 0.7397460
706.8121, 6.777832
707.2942, 17.09326
707.7763, 40.65234
708.2584, 38.23779
708.7405, 12.67090
709.2227, 4.145996
709.7048, 16.15332
710.1869, 33.40576
710.6690, 45.01172
711.1511, 51.33252
711.6332, 52.36963
712.1154, 46.87256
712.5975, 40.66504
713.0796, 39.28076
713.5617, 37.65967
714.0438, 30.15479
714.5259, 5.623535
715.0081, 11.39404
715.4902, 17.55029
715.9723, 17.06982
716.4544, 16.81787
716.9365, 16.93604
717.4186, 16.80811
717.9008, 16.53516
718.3829, 15.58350
718.8650, 14.50586
719.3471, 12.26807
719.8292, 3.968262
720.3113, 13.09424
720.7935, 37.09863
721.2756, 76.19385
721.7577, 124.2979
722.2398, 151.4165
722.7219, 127.2334
723.2040, 99.17236
723.6862, 88.78076
724.1683, 96.43359
724.6504, 96.40186
725.1325, 83.00635
725.6146, 74.04639
726.0967, 83.96338
726.5789, 110.9346
727.0610, 128.7607
727.5431, 136.9863
728.0252, 138.7886
728.5073, 128.5132
728.9894, 116.7749
729.4716, 123.1992
729.9537, 155.3940
730.4358, 182.5591
730.9179, 186.4331
731.4000, 179.4292
731.8821, 172.9736
732.3643, 163.9912
732.8464, 163.0239
733.3285, 174.1055
733.8106, 189.5020
734.2927, 198.1240
734.7748, 199.0166
735.2570, 201.7510
735.7391, 206.5078
736.2212, 216.5986
736.7033, 242.7456
737.1854, 279.4004
737.6675, 310.0854
738.1497, 323.3813
738.6318, 333.4819
739.1139, 353.2202
739.5960, 377.4697
740.0781, 392.7368
740.5602, 382.1582
741.0424, 377.7153
741.5245, 391.3745
742.0066, 418.8472
742.4887, 436.2300
742.9708, 442.3564
743.4529, 441.8071
743.9351, 430.9858
744.4172, 415.5547
744.8993, 420.4780
745.3814, 443.7725
745.8635, 463.9106
746.3456, 470.7734
746.8278, 464.4834
747.3099, 441.4458
747.7920, 401.5210
748.2741, 361.3062
748.7562, 329.4819
749.2383, 297.1870
749.7205, 257.3247
750.2026, 206.2925
750.6846, 166.8594
751.1667, 143.2705
751.6489, 122.9932
752.1310, 93.45850
752.6131, 56.33105
753.0952, 26.87549
753.5773, 5.979492
754.0594, 6.736816
754.5416, 8.528809
755.0237, 4.274902
755.5058, 0.6162110
755.9879, 0.6079100
756.4700, 0.8837890
756.9521, 2.491699
757.4343, 5.502930
757.9164, 2.739746
758.3985, 13.07812
758.8806, 20.46533
759.3627, 17.80029
759.8448, 6.666504
760.3270, 14.63184
760.8091, 45.06250
761.2912, 65.95020
761.7733, 70.03027
762.2554, 66.87695
762.7375, 71.52441
763.2197, 78.03516
763.7018, 74.08496
764.1839, 38.10986
764.6660, 8.835449
765.1481, 12.79541
765.6302, 35.71289
766.1124, 35.76562
766.5945, 7.144531
767.0766, 40.06494
767.5587, 50.63721
768.0408, 44.03271
768.5229, 31.97119
769.0051, 13.91260
769.4872, 12.49951
769.9693, 51.13574
770.4514, 103.6704
770.9335, 123.9336
771.4156, 119.3086
771.8978, 120.9712
772.3799, 153.9546
772.8620, 188.2334
773.3441, 209.5576
773.8262, 217.9683
774.3083, 223.0039
774.7905, 225.4951
775.2726, 224.4614
775.7547, 215.3667
776.2368, 200.3062
776.7189, 210.6519
777.2010, 248.2793
777.6832, 285.2686
778.1653, 299.8257
778.6474, 302.3560
779.1295, 308.8877
779.6116, 320.1045
780.0938, 331.1519
780.5759, 323.0688
781.0580, 325.6226
781.5401, 364.5601
782.0222, 456.2148
782.5043, 522.1504
782.9865, 551.3701
783.4686, 568.9531
783.9507, 589.1519
784.4328, 611.5459
784.9149, 644.3306
785.3970, 690.0239
785.8792, 727.0947
786.3613, 721.6528
786.8434, 700.2822
787.3255, 708.7646
787.8076, 758.5762
788.2897, 807.7236
788.7719, 830.5396
789.2540, 846.5166
789.7361, 871.4082
790.2182, 907.0835
790.7003, 951.4316
791.1824, 1010.184
791.6646, 1069.418
792.1467, 1116.252
792.6288, 1150.496
793.1109, 1171.722
793.5930, 1177.497
794.0751, 1180.643
794.5573, 1199.604
795.0394, 1223.319
795.5215, 1232.319
796.0036, 1212.188
796.4857, 1200.088
796.9678, 1213.820
797.4500, 1241.139
797.9321, 1268.412
798.4142, 1297.560
798.8963, 1321.981
799.3784, 1342.371
799.8605, 1356.846
800.3427, 1361.158
800.8248, 1356.773
801.3069, 1350.470
801.7890, 1340.609
802.2711, 1338.658
802.7532, 1363.324
803.2354, 1401.069
803.7175, 1432.443
804.1996, 1434.812
804.6817, 1450.812
805.1638, 1512.773
805.6459, 1583.553
806.1281, 1606.607
806.6102, 1562.913
807.0923, 1540.396
807.5744, 1555.096
808.0565, 1592.643
808.5386, 1634.990
809.0207, 1680.625
809.5028, 1724.414
809.9849, 1774.447
810.4670, 1805.492
810.9492, 1781.116
811.4313, 1728.465
811.9134, 1692.934
812.3955, 1715.127
812.8776, 1717.381
813.3597, 1682.114
813.8419, 1625.877
814.3240, 1583.307
814.8061, 1557.175
815.2882, 1517.785
815.7703, 1453.632
816.2524, 1381.555
816.7346, 1326.061
817.2167, 1284.349
817.6988, 1249.355
818.1809, 1227.412
818.6630, 1199.724
819.1451, 1159.333
819.6273, 1108.044
820.1094, 1046.939
820.5915, 957.6978
821.0736, 892.2412
821.5557, 867.9937
822.0378, 867.8755
822.5200, 848.0996
823.0021, 809.1543
823.4842, 771.4653
823.9663, 742.1743
824.4484, 721.4111
824.9305, 712.4478
825.4127, 709.4678
825.8948, 699.8906
826.3769, 661.4307
826.8590, 635.2695
827.3411, 641.6865
827.8232, 666.8291
828.3054, 681.9629
828.7875, 681.1411
829.2696, 694.3267
829.7517, 738.3276
830.2338, 786.4258
830.7159, 775.4517
831.1981, 721.2695
831.6802, 684.1729
832.1623, 695.1919
832.6444, 722.4648
833.1265, 751.6582
833.6086, 779.8740
834.0908, 800.9849
834.5729, 812.9126
835.0550, 818.0093
835.5371, 813.8862
836.0192, 804.6470
836.5013, 800.5342
836.9835, 801.7456
837.4656, 798.1211
837.9477, 787.4541
838.4298, 769.2222
838.9119, 738.3105
839.3940, 699.4307
839.8762, 662.7188
840.3583, 633.4453
840.8404, 605.5400
841.3225, 583.7158
841.8046, 560.2041
842.2867, 519.2168
842.7689, 449.9829
843.2510, 391.4141
843.7331, 350.9785
844.2152, 323.0308
844.6973, 301.4585
845.1794, 284.0649
845.6616, 261.6069
846.1437, 227.6978
846.6258, 193.6924
847.1079, 161.2256
847.5900, 136.4131
848.0721, 129.0947
848.5543, 172.1694
849.0364, 190.8081
849.5185, 167.6519
850.0006, 127.0410
850.4827, 109.4766
850.9648, 115.7842
851.4470, 115.4922
851.9291, 101.2612
852.4112, 82.48779
852.8933, 67.25537
853.3754, 56.44238
853.8575, 52.30908
854.3397, 62.80078
854.8218, 67.83691
855.3039, 48.29248
855.7860, 25.90869
856.2681, 29.49512
856.7502, 69.22217
857.2324, 101.5859
857.7145, 121.2036
858.1966, 135.3193
858.6787, 149.0029
859.1608, 164.6411
859.6429, 193.4756
860.1251, 238.2666
860.6072, 282.4126
861.0893, 315.8521
861.5714, 342.7080
862.0535, 368.1904
862.5356, 396.7778
863.0178, 414.6128
863.4999, 414.7388
863.9820, 413.4238
864.4641, 426.0000
864.9462, 452.2305
865.4283, 491.1230
865.9105, 544.3936
866.3926, 592.9141
866.8746, 608.3545
867.3568, 613.4424
867.8389, 636.1333
868.3210, 684.8345
868.8031, 734.0776
869.2852, 785.8760
869.7673, 828.7446
870.2495, 851.7686
870.7316, 849.3735
871.2137, 869.9839
871.6958, 917.6919
872.1779, 963.4360
872.6600, 979.1143
873.1422, 977.1724
873.6243, 973.1338
874.1064, 968.4775
874.5885, 981.4316
875.0706, 1052.547
875.5527, 1119.145
876.0349, 1129.955
876.5170, 1079.052
876.9991, 1071.095
877.4812, 1117.686
877.9633, 1175.533
878.4454, 1222.254
878.9276, 1256.600
879.4097, 1275.577
879.8918, 1280.725
880.3739, 1282.813
880.8560, 1288.467
881.3381, 1295.438
881.8203, 1298.137
882.3024, 1295.533
882.7845, 1300.243
883.2666, 1320.266
883.7487, 1336.643
884.2308, 1343.991
884.7130, 1342.354
885.1951, 1330.301
885.6772, 1308.542
886.1593, 1282.914
886.6414, 1253.641
887.1235, 1227.246
887.6057, 1205.733
888.0878, 1190.632
888.5699, 1184.088
889.0520, 1195.382
889.5341, 1198.807
890.0162, 1192.550
890.4984, 1178.248
890.9805, 1156.148
891.4626, 1126.635
891.9447, 1104.202
892.4268, 1093.883
892.9089, 1085.854
893.3911, 1067.459
893.8732, 1042.722
894.3553, 1019.919
894.8374, 1007.751
895.3195, 989.9966
895.8016, 945.6157
896.2838, 902.5278
896.7659, 904.4092
897.2480, 965.6172
897.7301, 969.5806
898.2122, 893.6646
898.6943, 799.7275
899.1765, 764.6919
899.6586, 762.5977
900.1407, 748.9414
900.6228, 712.8965
901.1049, 674.7935
901.5870, 642.4673
902.0692, 612.2275
902.5513, 579.5137
903.0334, 542.7104
903.5155, 513.1367
903.9976, 490.8237
904.4797, 471.8521
904.9619, 457.6528
905.4440, 442.9463
905.9261, 412.7847
906.4082, 367.1313
906.8903, 322.7827
907.3724, 277.1582
907.8546, 246.6714
908.3367, 253.5259
908.8188, 297.8838
909.3009, 304.2109
909.7830, 260.2593
910.2651, 215.4541
910.7473, 196.8325
911.2294, 192.9131
911.7115, 170.2007
912.1936, 132.2915
912.6757, 95.91211
913.1578, 62.32129
913.6400, 41.24268
914.1221, 46.69189
914.6042, 69.56348
915.0863, 77.94629
915.5684, 69.24561
916.0505, 47.85645
916.5327, 5.895996
917.0148, 35.84814
917.4969, 24.42188
917.9790, 24.84473
918.4611, 51.60498
918.9432, 23.92188
919.4254, 6.299805
919.9075, 0.9057620
920.3896, 25.04492
920.8717, 36.80469
921.3538, 25.33789
921.8359, 15.59619
922.3181, 5.574707
922.8002, 1.767090
923.2823, 16.14209
923.7644, 44.14648
924.2465, 65.37158
924.7286, 77.43994
925.2107, 82.11719
925.6928, 76.88477
926.1749, 67.29883
926.6570, 57.71631
927.1392, 48.71777
927.6213, 38.46094
928.1034, 24.08691
928.5855, 15.09717
929.0676, 21.90527
929.5497, 40.03369
930.0319, 44.11914
930.5140, 35.34326
930.9961, 23.10303
931.4782, 11.92334
931.9603, 1.056152
932.4424, 12.05859
932.9246, 26.18896
933.4067, 34.07568
933.8888, 31.25732
934.3709, 31.05176
934.8530, 41.57275
935.3351, 52.52539
935.8173, 28.58447
936.2994, 21.60107
936.7815, 55.07422
937.2636, 51.48779
937.7457, 34.04248
938.2278, 7.569824
938.7100, 18.03418
939.1921, 25.99268
939.6742, 3.401855
940.1563, 16.46240
940.6384, 33.30664
941.1205, 44.78174
941.6027, 45.74805
942.0848, 38.56104
942.5669, 35.44580
943.0490, 39.04883
943.5311, 35.66748
944.0132, 8.732910
944.4954, 24.66797
944.9775, 55.07031
945.4596, 85.88672
945.9417, 80.39258
946.4238, 19.69189
946.9059, 34.90869
947.3881, 45.42969
947.8702, 21.98535
948.3523, 5.284668
948.8344, 34.28857
949.3165, 51.65674
949.7986, 44.87598
950.2808, 28.76562
950.7629, 4.907715
951.2450, 21.55078
951.7271, 30.18652
952.2092, 11.62598
952.6913, 0.8046880
953.1735, 0.7280270
953.6556, 11.72217
954.1377, 28.44824
954.6198, 47.44336
955.1019, 58.89746
955.5840, 57.48926
956.0662, 53.01074
956.5483, 47.11816
957.0304, 43.26270
957.5125, 45.94189
957.9946, 59.05713
958.4767, 68.08594
958.9589, 73.55713
959.4410, 72.93994
959.9231, 56.46680
960.4052, 34.50830
960.8873, 31.20996
961.3694, 47.96240
961.8516, 63.95117
962.3337, 67.56689
962.8158, 68.24170
963.2979, 69.29883
963.7800, 71.20996
964.2621, 82.34277
964.7443, 106.2593
965.2264, 116.0278
965.7085, 91.61670
966.1906, 55.28320
966.6727, 40.66992
967.1548, 42.92871
967.6370, 49.79639
968.1191, 54.25684
968.6012, 66.32373
969.0833, 103.4683
969.5654, 140.0859
970.0475, 133.9243
970.5297, 80.74902
971.0118, 55.05811
971.4939, 70.50928
971.9760, 95.23096
972.4581, 96.48242
972.9402, 86.86523
973.4224, 82.00781
973.9045, 85.10010
974.3866, 89.58252
974.8687, 94.84863
975.3508, 99.54541
975.8329, 103.0649
976.3151, 104.3574
976.7972, 94.94238
977.2793, 75.88574
977.7614, 68.08887
978.2435, 98.90430
978.7256, 133.8628
979.2078, 142.1152
979.6899, 129.6714
980.1720, 118.0723
980.6541, 110.0132
981.1362, 104.4492
981.6183, 102.1807
982.1005, 100.7280
982.5826, 93.62207
983.0646, 83.06885
983.5468, 77.78271
984.0289, 79.79639
984.5110, 87.86230
984.9931, 109.3389
985.4752, 131.5469
985.9573, 142.2417
986.4395, 140.7246
986.9216, 127.5244
987.4037, 97.58154
987.8858, 72.70264
988.3679, 75.59082
988.8500, 93.09082
989.3322, 91.17725
989.8143, 73.51904
990.2964, 65.67871
990.7785, 97.60107
991.2606, 122.8643
991.7427, 113.1255
992.2249, 83.88135
992.7070, 72.29834
993.1891, 80.69434
993.6712, 85.83496
994.1533, 79.89551
994.6354, 73.10303
995.1176, 81.71240
995.5997, 99.98193
996.0818, 120.0327
996.5639, 143.9233
997.0460, 156.0684
997.5281, 148.6636
998.0103, 139.3018
998.4924, 144.3384
998.9745, 162.2070
999.4566, 152.0928
999.9387, 114.4995
1000.421, 84.91992
1000.903, 99.56934
1001.385, 122.3877
1001.867, 122.3423
1002.349, 100.5757
1002.831, 81.02246
1003.314, 62.82812
1003.796, 55.74023
1004.278, 69.48486
1004.760, 90.56836
1005.242, 87.81738
1005.724, 70.39844
1006.206, 66.42676
1006.688, 89.76514
1007.170, 112.3530
1007.653, 131.5654
1008.135, 138.4561
1008.617, 122.4116
1009.099, 74.41699
1009.581, 49.43555
1010.063, 48.41162
1010.545, 56.09229
1011.027, 70.60645
1011.510, 82.69824
1011.992, 67.76758
1012.474, 32.98193
1012.956, 20.72656
1013.438, 75.39209
1013.920, 116.1680
1014.402, 122.1548
1014.884, 103.5493
1015.366, 74.10742
1015.849, 36.97852
1016.331, 21.33789
1016.813, 38.78223
1017.295, 66.04395
1017.777, 96.80811
1018.259, 118.7617
1018.741, 115.6499
1019.223, 74.54541
1019.706, 51.06494
1020.188, 50.19482
1020.670, 53.53516
1021.152, 42.85303
1021.634, 55.82373
1022.116, 41.12793
1022.598, 76.68945
1023.080, 106.9351
1023.562, 119.0264
1024.045, 121.5693
1024.527, 113.2124
1025.009, 99.61035
1025.491, 89.80908
1025.973, 83.34619
1026.455, 86.06250
1026.937, 100.8384
1027.419, 117.0352
1027.901, 130.6816
1028.384, 135.0396
1028.866, 116.4253
1029.348, 62.99365
1029.830, 34.48926
1030.312, 43.57959
1030.794, 62.22266
1031.276, 79.22217
1031.758, 93.15137
1032.240, 96.06445
1032.723, 89.25244
1033.205, 78.30469
1033.687, 58.04248
1034.169, 43.30273
1034.651, 46.34766
1035.133, 58.10107
1035.615, 61.77490
1036.097, 55.40723
1036.580, 51.07227
1037.062, 50.45166
1037.544, 49.15430
1038.026, 29.18555
1038.508, 12.02979
1038.990, 39.24902
1039.472, 120.6846
1039.954, 164.4287
1040.437, 122.3457
1040.919, 79.39502
1041.401, 68.04492
1041.883, 79.98535
1042.365, 86.56299
1042.847, 88.26562
1043.329, 86.37793
1043.811, 76.39648
1044.293, 71.16504
1044.776, 91.94678
1045.258, 115.6387
1045.740, 108.8838
1046.222, 59.94922
1046.704, 21.75732
1047.186, 3.868164
1047.668, 20.37158
1048.150, 37.32764
1048.632, 43.63721
1049.115, 8.833008
1049.597, 61.07227
1050.079, 101.5942
1050.561, 56.32617
1051.043, 24.05371
1051.525, 33.37402
1052.007, 67.81982
1052.489, 92.80322
1052.972, 108.4229
1053.454, 113.3379
1053.936, 103.7378
1054.418, 93.72900
1054.900, 90.71582
1055.382, 93.49365
1055.864, 103.2178
1056.346, 122.1846
1056.828, 129.0684
1057.311, 120.7944
1057.793, 110.9712
1058.275, 115.0234
1058.757, 124.3252
1059.239, 127.0146
1059.721, 123.9180
1060.203, 117.3711
1060.685, 105.1436
1061.167, 93.92285
1061.650, 84.22559
1062.132, 77.28906
1062.614, 75.93408
1063.096, 79.08203
1063.578, 82.10059
1064.060, 83.55029
1064.542, 82.38525
1065.024, 77.12646
1065.507, 71.58252
1065.989, 67.13818
1066.471, 64.22217
1066.953, 70.63330
1067.435, 88.57568
1067.917, 94.59326
1068.399, 72.65381
1068.881, 47.65674
1069.364, 53.85498
1069.846, 77.34619
1070.328, 97.63184
1070.810, 114.1152
1071.292, 117.5825
1071.774, 100.5874
1072.256, 83.66211
1072.738, 85.46436
1073.220, 100.7378
1073.703, 112.3506
1074.185, 119.7852
1074.667, 122.2935
1075.149, 118.1982
1075.631, 110.3369
1076.113, 99.47998
1076.595, 86.16016
1077.077, 67.46387
1077.559, 43.19336
1078.042, 37.98828
1078.524, 58.50293
1079.006, 83.53320
1079.488, 98.96680
1079.970, 105.0039
1080.452, 96.99707
1080.934, 71.91699
1081.416, 67.75098
1081.898, 91.62598
1082.381, 114.7666
1082.863, 127.4883
1083.345, 128.7393
1083.827, 109.3184
1084.309, 77.74707
1084.791, 52.14258
1085.273, 36.17578
1085.755, 31.64062
1086.238, 45.56836
1086.720, 61.83496
1087.202, 64.32715
1087.684, 54.56445
1088.166, 63.60645
1088.648, 90.05273
1089.130, 105.4463
1089.612, 81.08008
1090.094, 51.49414
1090.577, 34.49121
1091.059, 28.31055
1091.541, 27.61523
1092.023, 33.19141
1092.505, 39.48926
1092.987, 45.51758
1093.469, 52.34961
1093.951, 64.94824
1094.433, 76.34766
1094.916, 76.95898
1095.398, 64.33008
1095.880, 53.92871
1096.362, 43.81934
1096.844, 44.02344
1097.326, 63.08398
1097.808, 87.20117
1098.290, 81.82031
1098.773, 57.44531
1099.255, 40.29395
1099.737, 35.86719
1100.219, 45.62500
1100.701, 87.82715
1101.183, 126.0732
1101.665, 128.7520
1102.147, 98.71387
1102.630, 85.85352
1103.112, 89.34961
1103.594, 99.68652
1104.076, 122.1309
1104.558, 137.8242
1105.040, 128.0283
1105.522, 104.4502
1106.004, 94.55469
1106.486, 102.2725
1106.969, 104.5723
1107.451, 96.49805
1107.933, 83.05371
1108.415, 60.96875
1108.897, 41.79199
1109.379, 43.26465
1109.861, 66.66895
1110.343, 79.90820
1110.825, 81.64746
1111.308, 70.15234
1111.790, 39.29980
1112.272, 5.197266
1112.754, 1.134766
1113.236, 13.34961
1113.718, 10.32812
1114.200, 27.31836
1114.682, 41.30273
1115.165, 6.876953
1115.647, 37.63574
1116.129, 76.47754
1116.611, 106.8203
1117.093, 110.4316
1117.575, 91.16016
1118.057, 68.27930
1118.539, 47.41797
1119.021, 29.67773
1119.504, 17.02734
1119.986, 7.142578
1120.468, 4.526367
1120.950, 18.65527
1121.432, 17.85254
1121.914, 1.001953
1122.396, 18.46289
1122.878, 34.97070
1123.360, 46.23438
1123.843, 46.36133
1124.325, 39.22754
1124.807, 43.50586
1125.289, 66.32617
1125.771, 65.67773
1126.253, 27.79395
1126.735, 10.39355
1127.217, 3.886719
1127.700, 27.00977
1128.182, 62.58984
1128.664, 100.9502
1129.146, 118.3047
1129.628, 103.5410
1130.110, 90.58203
1130.592, 93.55859
1131.074, 102.1133
1131.556, 93.95117
1132.039, 75.19336
1132.521, 59.60547
1133.003, 48.97168
1133.485, 47.40527
1133.967, 62.45410
1134.449, 78.59473
1134.931, 88.45020
1135.413, 92.17773
1135.896, 86.18359
1136.378, 72.02148
1136.860, 60.00586
1137.342, 46.19922
1137.824, 45.55762
1138.306, 85.25684
1138.788, 127.7393
1139.270, 126.4229
1139.752, 80.73340
1140.234, 58.40918
1140.717, 61.99707
1141.199, 69.84668
1141.681, 65.43457
1142.163, 60.58496
1142.645, 70.98828
1143.127, 85.97168
1143.609, 70.34277
1144.091, 17.04395
1144.574, 9.416016
1145.056, 4.301758
1145.538, 30.70605
1146.020, 50.09766
1146.502, 64.15137
1146.984, 75.56348
1147.466, 84.38477
1147.948, 79.19727
1148.431, 56.96582
1148.913, 39.06641
1149.395, 32.46191
1149.877, 31.60156
1150.359, 22.58301
1150.841, 16.06543
1151.323, 32.28320
1151.805, 86.36719
1152.287, 115.4590
1152.770, 111.9668
1153.252, 90.69727
1153.734, 44.85449
1154.216, 2.728516
1154.698, 14.24902
1155.180, 71.37793
1155.662, 110.0664
1156.144, 100.7217
1156.626, 87.74512
1157.109, 75.37695
1157.591, 64.77734
1158.073, 56.45215
1158.555, 50.90625
1159.037, 50.39258
1159.519, 54.30273
1160.001, 59.02148
1160.483, 64.08984
1160.966, 67.92188
1161.448, 68.48730
1161.930, 69.04395
1162.412, 75.79883
1162.894, 86.93848
1163.376, 91.89746
1163.858, 89.77148
1164.340, 77.38672
1164.823, 36.43164
1165.305, 2.884766
1165.787, 0.5654300
1166.269, 15.25391
1166.751, 12.96777
1167.233, 4.385742
1167.715, 3.909180
1168.197, 22.29395
1168.679, 48.79395
1169.161, 59.68457
1169.644, 60.38574
1170.126, 48.34961
1170.608, 27.32715
1171.090, 23.45410
1171.572, 37.00195
1172.054, 52.17480
1172.536, 66.28809
1173.018, 79.81445
1173.501, 92.75098
1173.983, 99.19434
1174.465, 90.24902
1174.947, 65.32227
1175.429, 42.59766
1175.911, 20.64844
1176.393, 20.32031
1176.875, 66.94727
1177.358, 115.4033
1177.840, 107.1973
1178.322, 73.56152
1178.804, 60.29297
1179.286, 81.89062
1179.768, 93.15332
1180.250, 91.64160
1180.732, 88.59668
1181.214, 91.19824
1181.697, 96.44238
1182.179, 99.97070
1182.661, 103.2910
1183.143, 110.2393
1183.625, 123.0752
1184.107, 136.9736
1184.589, 153.8291
1185.071, 161.1572
1185.553, 138.2930
1186.036, 104.0430
1186.518, 85.35156
1187.000, 80.24121
1187.482, 76.79883
1187.964, 75.51074
1188.446, 69.45117
1188.928, 56.34082
1189.410, 43.36035
1189.892, 36.34766
1190.375, 38.01074
1190.857, 64.94629
1191.339, 112.9404
1191.821, 123.6396
1192.303, 58.83691
1192.785, 8.232422
1193.267, 8.397461
1193.749, 7.197266
1194.232, 11.81934
1194.714, 16.08203
1195.196, 5.605469
1195.678, 22.39551
1196.160, 43.21875
1196.642, 49.23438
1197.124, 51.49805
1197.606, 51.81152
1198.089, 51.92480
1198.571, 54.51562
1199.053, 59.62598
1199.535, 69.35352
1200.017, 86.15723
1200.499, 94.09082
1200.981, 91.88770
1201.463, 76.47461
1201.945, 38.09277
1202.427, 6.400391
1202.910, 4.125000
1203.392, 25.73340
1203.874, 35.60449
1204.356, 4.245117
1204.838, 18.12109
1205.320, 19.81934
1205.802, 64.01465
1206.284, 93.86133
1206.767, 108.0137
1207.249, 87.39648
1207.731, 47.08887
1208.213, 30.18164
1208.695, 72.30469
1209.177, 108.6934
1209.659, 135.7852
1210.141, 144.4180
1210.624, 114.6367
1211.106, 62.48340
1211.588, 47.92969
1212.070, 61.27441
1212.552, 67.21484
1213.034, 36.39551
1213.516, 17.88379
1213.998, 20.63086
1214.480, 33.29785
1214.963, 48.70508
1215.445, 64.89746
1215.927, 60.15332
1216.409, 38.86133
1216.891, 26.25879
1217.373, 47.13379
1217.855, 58.11816
1218.337, 48.57031
1218.819, 32.46582
1219.302, 24.00781
1219.784, 22.86523
1220.266, 30.83105
1220.748, 45.82227
1221.230, 51.06836
1221.712, 23.17773
1222.194, 8.026367
1222.676, 17.63867
1223.159, 38.44434
1223.641, 56.36133
1224.123, 68.91797
1224.605, 67.97266
1225.087, 53.53711
1225.569, 39.60742
1226.051, 32.56445
1226.533, 23.99219
1227.016, 8.187500
1227.498, 4.070313
1227.980, 7.331055
1228.462, 33.64648
1228.944, 60.70410
1229.426, 84.64648
1229.908, 95.72754
1230.390, 79.28125
1230.872, 69.70215
1231.354, 79.72461
1231.837, 95.68457
1232.319, 87.94336
1232.801, 68.91016
1233.283, 60.53516
1233.765, 65.54590
1234.247, 72.25000
1234.729, 75.29785
1235.211, 72.74316
1235.694, 61.29492
1236.176, 48.05566
1236.658, 47.14062
1237.140, 54.07715
1237.622, 61.30371
1238.104, 66.78027
1238.586, 72.46875
1239.068, 77.50195
1239.551, 84.49121
1240.033, 97.25391
1240.515, 109.3799
1240.997, 110.3477
1241.479, 103.6064
1241.961, 92.60938
1242.443, 75.82129
1242.925, 63.76270
1243.407, 55.15820
1243.890, 54.64648
1244.372, 71.23535
1244.854, 83.89648
1245.336, 54.42969
1245.818, 9.571289
1246.300, 3.720703
1246.782, 37.81055
1247.264, 66.77637
1247.746, 82.37305
1248.229, 86.71484
1248.711, 72.07227
1249.193, 57.43848
1249.675, 72.90918
1250.157, 103.0957
1250.639, 125.4854
1251.121, 143.0674
1251.603, 126.2344
1252.085, 69.81543
1252.568, 19.40137
1253.050, 5.154297
1253.532, 6.416992
1254.014, 3.779297
1254.496, 0.8203130
1254.978, 6.853516
1255.460, 28.94629
1255.942, 31.53223
1256.425, 13.04785
1256.907, 1.349609
1257.389, 1.562500
1257.871, 14.62500
1258.353, 50.75684
1258.835, 89.33398
1259.317, 86.39746
1259.799, 23.95410
1260.281, 1.313477
1260.764, 10.74121
1261.246, 17.59668
1261.728, 0.0000000E+00
##END=



