##NAMES=Kinoite
##RRUFFID=R050168
##IDEAL CHEMISTRY=Ca_2_Cu_2_Si_3_O_10_&#183;2H_2_O
##LOCALITY=Christmas mine, Christmas, Gila County, Arizona, USA
##OWNER=RRUFF
##SOURCE=Marcus Origlieri
##DESCRIPTION=Blue tabular crystals associated with hydroxyapophyllite, R050169
##STATUS=The identification of this mineral is confirmed by single-crystal X-ray diffraction and chemical analysis.
##URL=rruff.info/R050168
##MEASURED CHEMISTRY=Ca_2.00_Cu_2.00_Si_3.00_O_10_Â·2.94H_2_O; trace amounts of Fe and Mn; H_2_O estimated by difference
173.2953, 0.0000000E+00
173.7774, 8.7131999E-02
174.2596, 0.1468990
174.7417, 5.5610999E-02
175.2238, 8.0080004E-03
175.7059, 3.9972000E-02
176.1880, 0.1530730
176.6701, 0.2507050
177.1523, 0.2782800
177.6344, 0.2995140
178.1165, 0.3872470
178.5986, 0.5353680
179.0807, 0.7182710
179.5628, 0.9289590
180.0450, 1.159971
180.5271, 1.392245
181.0092, 1.619951
181.4913, 1.874477
181.9734, 2.193013
182.4555, 2.563581
182.9377, 2.931217
183.4198, 3.292985
183.9019, 3.634237
184.3840, 3.897991
184.8661, 4.077990
185.3482, 4.166622
185.8304, 4.158051
186.3125, 4.056149
186.7946, 3.830293
187.2767, 3.360933
187.7588, 2.696969
188.2409, 2.172376
188.7231, 1.965117
189.2052, 1.999679
189.6873, 2.018976
190.1694, 2.053254
190.6515, 2.185688
191.1336, 2.349602
191.6158, 2.515864
192.0979, 2.621046
192.5800, 2.611389
193.0621, 2.484062
193.5442, 2.490472
194.0263, 2.652810
194.5085, 2.897673
194.9906, 3.171754
195.4727, 3.476934
195.9548, 3.660322
196.4369, 3.612407
196.9190, 3.346866
197.4012, 3.093629
197.8833, 2.860443
198.3654, 2.622585
198.8475, 2.338043
199.3296, 2.000953
199.8117, 1.669387
200.2939, 1.365373
200.7760, 1.089822
201.2581, 0.8372370
201.7402, 0.6089860
202.2223, 0.4041180
202.7044, 0.2216010
203.1866, 6.3240997E-02
203.6687, 7.6379001E-02
204.1508, 0.2013370
204.6329, 0.3126990
205.1150, 0.3902870
205.5971, 0.4193530
206.0793, 0.4322820
206.5614, 0.5129890
207.0435, 0.6919780
207.5256, 0.8186120
208.0077, 0.8092200
208.4898, 0.6406400
208.9720, 0.4764550
209.4541, 0.3043770
209.9362, 0.1506060
210.4183, 8.5442998E-02
210.9004, 0.1424790
211.3825, 0.1934980
211.8647, 0.1752630
212.3468, 6.9727004E-02
212.8289, 1.6156999E-02
213.3110, 6.1480999E-02
213.7931, 0.1010090
214.2752, 0.2242950
214.7574, 0.4712200
215.2395, 0.7087740
215.7216, 0.8726350
216.2037, 0.9349770
216.6858, 1.021246
217.1679, 1.138118
217.6500, 1.276290
218.1322, 1.403045
218.6143, 1.493175
219.0964, 1.627850
219.5785, 1.851457
220.0606, 2.206551
220.5427, 2.523369
221.0249, 2.778147
221.5070, 3.004105
221.9891, 3.270772
222.4712, 3.586499
222.9533, 3.933771
223.4354, 4.302862
223.9176, 4.714815
224.3997, 5.102394
224.8818, 5.456743
225.3639, 5.792309
225.8460, 6.165438
226.3281, 6.625124
226.8103, 7.033897
227.2924, 7.319828
227.7745, 7.454462
228.2566, 7.557770
228.7387, 7.632757
229.2208, 7.675951
229.7030, 7.672169
230.1851, 7.599560
230.6672, 7.516310
231.1493, 7.449636
231.6314, 7.389097
232.1135, 7.348223
232.5957, 7.334532
233.0778, 7.336786
233.5599, 7.338631
234.0420, 7.352915
234.5241, 7.343166
235.0062, 7.293886
235.4884, 7.198656
235.9705, 7.081123
236.4526, 6.928669
236.9347, 6.758032
237.4168, 6.599695
237.8989, 6.442673
238.3811, 6.315166
238.8632, 6.234423
239.3453, 6.220299
239.8274, 6.186518
240.3095, 6.098442
240.7916, 6.008333
241.2738, 6.018684
241.7559, 6.166954
242.2380, 6.353935
242.7201, 6.537365
243.2022, 6.693907
243.6843, 6.935995
244.1665, 7.306150
244.6486, 7.738932
245.1307, 8.113894
245.6128, 8.374472
246.0949, 8.673172
246.5770, 9.075457
247.0592, 9.625366
247.5413, 10.09810
248.0234, 10.44815
248.5055, 10.74805
248.9876, 11.09901
249.4697, 11.50719
249.9519, 11.96329
250.4340, 12.49643
250.9161, 13.15135
251.3982, 13.64498
251.8803, 13.92377
252.3624, 14.08137
252.8446, 14.24025
253.3267, 14.41942
253.8088, 14.56836
254.2909, 14.69464
254.7730, 14.81507
255.2551, 14.77124
255.7373, 14.51625
256.2194, 14.14507
256.7015, 13.76496
257.1836, 13.35234
257.6657, 12.97957
258.1478, 12.68855
258.6299, 12.49227
259.1121, 12.17856
259.5942, 11.67492
260.0763, 11.13487
260.5584, 10.70425
261.0405, 10.40034
261.5226, 10.16247
262.0048, 9.978796
262.4869, 9.851505
262.9690, 9.808071
263.4511, 9.900274
263.9332, 10.00984
264.4153, 10.01048
264.8975, 9.855913
265.3796, 9.716499
265.8617, 9.645546
266.3438, 9.643013
266.8259, 9.589748
267.3080, 9.465179
267.7902, 9.328112
268.2723, 9.228497
268.7544, 9.173040
269.2365, 9.101704
269.7186, 9.011261
270.2007, 8.902069
270.6829, 8.766312
271.1650, 8.600565
271.6471, 8.412773
272.1292, 8.201523
272.6113, 7.955534
273.0934, 7.746017
273.5756, 7.589342
274.0577, 7.473644
274.5398, 7.335733
275.0219, 7.146244
275.5040, 7.029078
275.9861, 7.096462
276.4683, 7.374680
276.9504, 7.594109
277.4325, 7.693392
277.9146, 7.752419
278.3967, 7.987906
278.8788, 8.422981
279.3610, 8.910204
279.8431, 9.337496
280.3252, 9.695118
280.8073, 10.19246
281.2894, 10.86266
281.7715, 11.64612
282.2537, 12.42460
282.7358, 13.19247
283.2179, 14.01813
283.7000, 14.98728
284.1821, 16.09273
284.6642, 17.06827
285.1464, 17.90766
285.6285, 18.63092
286.1106, 19.29483
286.5927, 19.89937
287.0748, 20.32528
287.5569, 20.50364
288.0391, 20.44889
288.5212, 20.26503
289.0033, 19.95351
289.4854, 19.50450
289.9675, 18.84725
290.4496, 17.99687
290.9318, 17.17127
291.4139, 16.46495
291.8960, 15.83516
292.3781, 15.13644
292.8602, 14.35394
293.3423, 13.59411
293.8245, 12.92174
294.3066, 12.34501
294.7887, 11.90577
295.2708, 11.65262
295.7529, 11.52828
296.2350, 11.39926
296.7172, 11.26733
297.1993, 11.22907
297.6814, 11.41072
298.1635, 11.75517
298.6456, 12.09541
299.1277, 12.38648
299.6099, 12.66539
300.0920, 12.97872
300.5741, 13.32784
301.0562, 13.69202
301.5383, 14.14269
302.0204, 14.59148
302.5026, 14.86101
302.9847, 14.90088
303.4668, 14.79580
303.9489, 14.60763
304.4310, 14.34871
304.9131, 14.04994
305.3953, 13.69798
305.8774, 13.33007
306.3595, 12.97933
306.8416, 12.63128
307.3237, 12.37650
307.8058, 12.38990
308.2880, 12.56659
308.7701, 12.67297
309.2522, 12.59020
309.7343, 12.39211
310.2164, 12.12167
310.6985, 11.76976
311.1807, 11.42599
311.6628, 11.20914
312.1449, 11.02368
312.6270, 10.73346
313.1091, 10.13815
313.5912, 9.534630
314.0734, 9.114740
314.5555, 8.885902
315.0376, 8.702057
315.5197, 8.514177
316.0018, 8.321455
316.4839, 8.131228
316.9661, 7.836695
317.4482, 7.639387
317.9303, 7.661191
318.4124, 7.875262
318.8945, 8.111465
319.3766, 8.291686
319.8588, 8.472857
320.3409, 8.693398
320.8230, 8.971716
321.3051, 9.285435
321.7872, 9.650782
322.2693, 10.05131
322.7515, 10.43753
323.2336, 10.80877
323.7157, 11.14869
324.1978, 11.44670
324.6799, 11.68463
325.1620, 11.90917
325.6442, 12.17771
326.1263, 12.43445
326.6084, 12.57686
327.0905, 12.49339
327.5726, 12.37662
328.0547, 12.29087
328.5369, 12.26350
329.0190, 12.21291
329.5011, 12.12544
329.9832, 12.02084
330.4653, 11.91976
330.9474, 11.78717
331.4296, 11.70256
331.9117, 11.69598
332.3938, 11.77259
332.8759, 11.82250
333.3580, 11.79789
333.8401, 11.79245
334.3223, 11.88511
334.8044, 12.12053
335.2865, 12.36654
335.7686, 12.61077
336.2507, 12.85342
336.7328, 13.08482
337.2150, 13.30772
337.6971, 13.51642
338.1792, 13.71221
338.6613, 13.89706
339.1434, 14.05482
339.6255, 14.19068
340.1077, 14.29327
340.5898, 14.34037
341.0719, 14.33100
341.5540, 14.26878
342.0361, 14.16627
342.5182, 14.02570
343.0003, 13.77551
343.4825, 13.39804
343.9646, 12.95914
344.4467, 12.57389
344.9288, 12.24887
345.4109, 11.85010
345.8930, 11.30899
346.3752, 10.65761
346.8573, 10.03857
347.3394, 9.444186
347.8215, 8.897869
348.3036, 8.436701
348.7857, 8.047175
349.2679, 7.665902
349.7500, 7.279955
350.2321, 6.889613
350.7142, 6.480050
351.1963, 6.059649
351.6784, 5.693193
352.1606, 5.461882
352.6427, 5.318190
353.1248, 5.162958
353.6069, 4.972739
354.0890, 4.785164
354.5711, 4.648659
355.0533, 4.549851
355.5354, 4.447546
356.0175, 4.308796
356.4996, 4.162523
356.9817, 4.053020
357.4638, 3.991390
357.9460, 3.894939
358.4281, 3.689440
358.9102, 3.414509
359.3923, 3.131118
359.8744, 2.852854
360.3565, 2.580207
360.8387, 2.321815
361.3208, 2.074960
361.8029, 1.820478
362.2850, 1.520342
362.7671, 1.223778
363.2492, 0.9715860
363.7314, 0.7856570
364.2135, 0.6304190
364.6956, 0.5230060
365.1777, 0.4434870
365.6598, 0.3313930
366.1419, 0.1437370
366.6241, 5.9002001E-02
367.1062, 0.2493390
367.5883, 0.4320380
368.0704, 0.5890670
368.5525, 0.7247240
369.0346, 0.8319850
369.5168, 0.9023050
369.9989, 0.8977230
370.4810, 0.8956530
370.9631, 0.9178070
371.4452, 0.9699120
371.9273, 1.001389
372.4095, 0.9969880
372.8916, 0.9847700
373.3737, 0.9899340
373.8558, 1.025299
374.3379, 1.052566
374.8200, 1.066251
375.3022, 1.067801
375.7843, 1.068094
376.2664, 1.073968
376.7485, 1.063447
377.2306, 1.013916
377.7127, 0.9135730
378.1949, 0.8458330
378.6770, 0.8223930
379.1591, 0.8236000
379.6412, 0.8220850
380.1233, 0.8199370
380.6054, 0.7913270
381.0876, 0.7169030
381.5697, 0.6034820
382.0518, 0.4882390
382.5339, 0.3698580
383.0160, 0.2629360
383.4981, 0.2092720
383.9803, 0.1925710
384.4624, 0.1262550
384.9445, 2.9666999E-02
385.4266, 0.2338600
385.9087, 0.4272580
386.3908, 0.6081650
386.8730, 0.7706350
387.3551, 0.8852390
387.8372, 0.9853370
388.3193, 1.137385
388.8014, 1.366272
389.2835, 1.606913
389.7657, 1.804387
390.2478, 1.968240
390.7299, 2.115160
391.2120, 2.238113
391.6941, 2.358682
392.1762, 2.511434
392.6584, 2.700848
393.1405, 2.841252
393.6226, 2.843362
394.1047, 2.789348
394.5868, 2.766433
395.0689, 2.856939
395.5511, 2.928710
396.0332, 2.924528
396.5153, 2.856215
396.9974, 2.788774
397.4795, 2.731952
397.9616, 2.685686
398.4438, 2.649740
398.9259, 2.622490
399.4080, 2.608316
399.8901, 2.622231
400.3722, 2.647580
400.8543, 2.652518
401.3365, 2.610042
401.8186, 2.579041
402.3007, 2.571114
402.7828, 2.585636
403.2649, 2.630061
403.7470, 2.711410
404.2292, 2.815607
404.7113, 2.930479
405.1934, 3.060035
405.6755, 3.188427
406.1576, 3.301844
406.6397, 3.414695
407.1219, 3.584953
407.6040, 3.825064
408.0861, 4.073368
408.5682, 4.289963
409.0503, 4.471348
409.5324, 4.672146
410.0146, 4.890018
410.4967, 5.139534
410.9788, 5.471504
411.4609, 5.871601
411.9430, 6.229378
412.4251, 6.456798
412.9073, 6.628725
413.3894, 6.910143
413.8715, 7.302744
414.3536, 7.793181
414.8357, 8.456016
415.3178, 9.203647
415.8000, 9.849711
416.2821, 10.32080
416.7642, 10.75827
417.2463, 11.28380
417.7284, 11.88647
418.2105, 12.51978
418.6927, 13.16340
419.1748, 13.83232
419.6569, 14.53998
420.1390, 15.29252
420.6211, 16.09343
421.1032, 17.04499
421.5854, 18.02305
422.0675, 18.89407
422.5496, 19.56670
423.0317, 20.19406
423.5138, 20.86874
423.9959, 21.55278
424.4781, 22.07622
424.9602, 22.41525
425.4423, 22.57156
425.9244, 22.54314
426.4065, 22.30804
426.8886, 21.93843
427.3708, 21.45595
427.8529, 20.83415
428.3350, 20.01548
428.8171, 18.94698
429.2992, 17.76672
429.7813, 16.47765
430.2635, 15.09199
430.7456, 13.76465
431.2277, 12.49334
431.7098, 11.29788
432.1919, 10.19616
432.6740, 9.189903
433.1562, 8.274008
433.6383, 7.455393
434.1204, 6.715658
434.6025, 6.007212
435.0846, 5.333900
435.5667, 4.761591
436.0489, 4.358412
436.5310, 4.073875
437.0131, 3.726870
437.4952, 3.303013
437.9773, 2.959497
438.4594, 2.921780
438.9416, 3.077642
439.4236, 3.179708
439.9058, 3.095621
440.3879, 2.998045
440.8700, 3.044306
441.3521, 3.212582
441.8342, 3.435177
442.3163, 3.712811
442.7985, 4.017502
443.2806, 4.317360
443.7627, 4.593267
444.2448, 4.887882
444.7269, 5.198938
445.2090, 5.541563
445.6912, 5.932299
446.1733, 6.401661
446.6554, 6.893360
447.1375, 7.404850
447.6196, 7.933107
448.1017, 8.427605
448.5839, 8.828259
449.0660, 9.238543
449.5481, 9.705172
450.0302, 10.27577
450.5123, 10.81566
450.9944, 11.33058
451.4766, 11.80647
451.9587, 12.21870
452.4408, 12.57243
452.9229, 12.85432
453.4050, 13.06778
453.8871, 13.21074
454.3693, 13.28771
454.8514, 13.30630
455.3335, 13.22553
455.8156, 12.98438
456.2977, 12.59651
456.7798, 12.18651
457.2620, 11.76449
457.7441, 11.33099
458.2262, 10.89815
458.7083, 10.45723
459.1904, 9.950094
459.6725, 9.302839
460.1547, 8.596661
460.6368, 7.938208
461.1189, 7.323488
461.6010, 6.744783
462.0831, 6.194635
462.5652, 5.675100
463.0474, 5.200907
463.5295, 4.785923
464.0116, 4.387037
464.4937, 3.955727
464.9758, 3.525646
465.4579, 3.179432
465.9401, 2.984848
466.4222, 2.842138
466.9043, 2.716166
467.3864, 2.603361
467.8685, 2.515862
468.3506, 2.383701
468.8328, 2.323372
469.3149, 2.425438
469.7970, 2.815722
470.2791, 3.155018
470.7612, 3.372284
471.2433, 3.535446
471.7255, 3.841343
472.2076, 4.342541
472.6897, 4.853407
473.1718, 5.295799
473.6539, 5.667774
474.1360, 6.132021
474.6182, 6.708714
475.1003, 7.304657
475.5824, 7.808578
476.0645, 8.235794
476.5466, 8.689003
477.0287, 9.170612
477.5109, 9.726244
477.9930, 10.42623
478.4751, 11.26539
478.9572, 12.21841
479.4393, 13.32532
479.9214, 14.51705
480.4036, 15.67476
480.8857, 16.79544
481.3678, 17.98072
481.8499, 19.28604
482.3320, 20.70387
482.8141, 22.21433
483.2963, 23.91147
483.7784, 25.59263
484.2605, 27.15746
484.7426, 28.63794
485.2247, 30.10275
485.7068, 31.61378
486.1890, 33.05196
486.6711, 34.41787
487.1532, 35.75721
487.6353, 36.78382
488.1174, 37.51705
488.5995, 37.90464
489.0817, 37.87109
489.5638, 37.30564
490.0459, 36.59181
490.5280, 35.74364
491.0101, 34.78257
491.4922, 33.70513
491.9744, 32.46959
492.4565, 31.28784
492.9386, 30.16727
493.4207, 29.13734
493.9028, 28.45655
494.3849, 28.13308
494.8671, 28.01447
495.3492, 28.07423
495.8313, 28.22796
496.3134, 28.21713
496.7955, 27.94231
497.2776, 27.59542
497.7598, 27.46332
498.2419, 27.43334
498.7240, 27.22721
499.2061, 26.67745
499.6882, 25.92167
500.1703, 25.04688
500.6525, 24.05739
501.1346, 22.94568
501.6167, 21.58402
502.0988, 20.16238
502.5809, 18.82212
503.0630, 17.62310
503.5452, 16.41795
504.0273, 15.18644
504.5094, 13.94204
504.9915, 12.73656
505.4736, 11.52448
505.9557, 10.42096
506.4379, 9.474197
506.9200, 8.676683
507.4021, 7.929087
507.8842, 7.232172
508.3663, 6.560753
508.8484, 5.857857
509.3306, 5.119940
509.8127, 4.537872
510.2948, 4.146950
510.7769, 3.854404
511.2590, 3.546295
511.7411, 3.227598
512.2233, 2.928801
512.7054, 2.635691
513.1875, 2.381285
513.6696, 2.213083
514.1517, 2.130110
514.6339, 2.121002
515.1160, 2.213303
515.5981, 2.357321
516.0802, 2.503593
516.5623, 2.638588
517.0444, 2.786806
517.5266, 2.961063
518.0087, 3.163933
518.4908, 3.394930
518.9729, 3.663054
519.4550, 3.949665
519.9371, 4.224546
520.4193, 4.501968
520.9014, 4.848555
521.3835, 5.319765
521.8656, 5.796400
522.3477, 6.222157
522.8298, 6.580629
523.3120, 7.046507
523.7941, 7.630875
524.2762, 8.278408
524.7583, 8.934694
525.2404, 9.600930
525.7225, 10.30055
526.2047, 11.04513
526.6868, 11.82291
527.1689, 12.61348
527.6510, 13.41462
528.1331, 14.23463
528.6152, 15.05913
529.0974, 15.91845
529.5795, 16.93501
530.0616, 18.09242
530.5437, 19.14128
531.0258, 19.90874
531.5079, 20.50379
531.9901, 21.04650
532.4722, 21.57489
532.9543, 21.99795
533.4364, 22.31435
533.9185, 22.50238
534.4006, 22.53521
534.8828, 22.39696
535.3649, 22.10761
535.8470, 21.65349
536.3291, 21.04558
536.8112, 20.36434
537.2933, 19.59821
537.7755, 18.77876
538.2576, 17.92236
538.7397, 17.01551
539.2218, 16.10514
539.7039, 15.19924
540.1860, 14.30014
540.6682, 13.40835
541.1503, 12.53328
541.6324, 11.74338
542.1145, 11.08071
542.5966, 10.47157
543.0787, 9.785907
543.5609, 9.050007
544.0430, 8.360722
544.5251, 7.786018
545.0072, 7.266771
545.4893, 6.766167
545.9714, 6.285198
546.4536, 5.840822
546.9357, 5.431454
547.4178, 5.055232
547.8999, 4.721200
548.3820, 4.475549
548.8641, 4.159538
549.3463, 3.611344
549.8284, 3.012326
550.3105, 2.598934
550.7926, 2.534870
551.2747, 2.418065
551.7568, 2.149688
552.2390, 1.782413
552.7211, 1.545418
553.2032, 1.479675
553.6853, 1.412399
554.1674, 1.230002
554.6495, 0.9442010
555.1317, 0.7656200
555.6138, 0.7072130
556.0959, 0.6762870
556.5780, 0.5854390
557.0601, 0.4514600
557.5422, 0.3336960
558.0244, 0.2457620
558.5065, 0.1722960
558.9886, 0.1069650
559.4707, 4.8023999E-02
559.9528, 4.0429998E-03
560.4349, 3.6371000E-02
560.9171, 7.4262001E-02
561.3992, 0.1379840
561.8813, 0.2234850
562.3634, 0.2961820
562.8455, 0.3561220
563.3276, 0.3953030
563.8098, 0.4073170
564.2919, 0.3834690
564.7740, 0.3619830
565.2561, 0.3434430
565.7382, 0.3268950
566.2203, 0.3109340
566.7025, 0.2941970
567.1846, 0.2848740
567.6667, 0.2836730
568.1488, 0.2921810
568.6309, 0.3197590
569.1130, 0.3657770
569.5952, 0.3991530
570.0773, 0.3975160
570.5594, 0.3793210
571.0415, 0.3826560
571.5236, 0.4060790
572.0057, 0.4337220
572.4879, 0.4782080
572.9700, 0.5097780
573.4521, 0.4838690
573.9342, 0.3799190
574.4163, 0.3021460
574.8984, 0.3150990
575.3806, 0.3702720
575.8627, 0.4194360
576.3448, 0.4914290
576.8269, 0.5088470
577.3090, 0.4323540
577.7911, 0.3009140
578.2733, 0.2002450
578.7554, 0.1335450
579.2375, 9.4290003E-02
579.7196, 8.8776000E-02
580.2017, 0.1123530
580.6838, 0.1186250
581.1660, 0.1064320
581.6481, 8.3443999E-02
582.1302, 4.5310002E-02
582.6123, 1.0550000E-03
583.0944, 2.1911001E-02
583.5765, 1.2303000E-02
584.0587, 1.2840000E-03
584.5408, 2.2016000E-02
585.0229, 6.1204001E-02
585.5050, 9.7200997E-02
585.9871, 0.1285960
586.4692, 0.1472920
586.9514, 0.1460070
587.4335, 0.1283890
587.9155, 0.1028880
588.3976, 2.5697000E-02
588.8798, 1.3334000E-02
589.3619, 4.1193001E-02
589.8440, 0.1883530
590.3261, 0.2798570
590.8082, 0.2824200
591.2903, 0.2719860
591.7725, 0.2856330
592.2546, 0.3277150
592.7367, 0.3692990
593.2188, 0.4117240
593.7009, 0.4501300
594.1830, 0.4768620
594.6652, 0.4935520
595.1473, 0.5114000
595.6294, 0.5331550
596.1115, 0.5554000
596.5936, 0.5653390
597.0757, 0.5713750
597.5579, 0.5957250
598.0400, 0.6679250
598.5221, 0.7465150
599.0042, 0.8086550
599.4863, 0.8534320
599.9684, 0.8782630
600.4506, 0.8653860
600.9327, 0.8463110
601.4148, 0.8281740
601.8969, 0.6651870
602.3790, 0.8397550
602.8611, 0.9414470
603.3433, 0.9742680
603.8254, 0.7263100
604.3075, 0.8452320
604.7896, 0.8197440
605.2717, 0.7901170
605.7538, 0.9660060
606.2360, 0.7684790
606.7181, 0.9448560
607.2002, 0.9745840
607.6823, 1.074161
608.1644, 1.028431
608.6465, 1.030042
609.1287, 1.180768
609.6108, 1.251862
610.0929, 1.196735
610.5750, 1.311956
611.0571, 1.128098
611.5392, 1.210228
612.0214, 1.408202
612.5035, 1.369931
612.9856, 1.497308
613.4677, 1.564255
613.9498, 1.349670
614.4319, 1.629865
614.9141, 1.698823
615.3962, 1.550937
615.8783, 1.820380
616.3604, 1.706790
616.8425, 1.732445
617.3246, 1.863441
617.8068, 1.888498
618.2889, 2.085205
618.7710, 2.119522
619.2531, 2.139821
619.7352, 2.223655
620.2173, 2.126062
620.6995, 2.363780
621.1816, 2.372687
621.6637, 2.497099
622.1458, 2.463355
622.6279, 2.485057
623.1100, 2.564391
623.5922, 2.709305
624.0743, 2.844653
624.5564, 2.941811
625.0385, 3.029148
625.5206, 3.122151
626.0027, 3.206779
626.4849, 3.327033
626.9670, 3.503384
627.4491, 3.693478
627.9312, 3.835434
628.4133, 3.921740
628.8954, 4.040304
629.3776, 4.214980
629.8597, 4.415005
630.3418, 4.586008
630.8239, 4.733897
631.3060, 4.886340
631.7881, 5.060491
632.2703, 5.247689
632.7524, 5.431657
633.2345, 5.611377
633.7166, 5.804442
634.1987, 6.041028
634.6808, 6.273588
635.1630, 6.466133
635.6451, 6.605364
636.1272, 6.797890
636.6093, 7.088503
637.0914, 7.400537
637.5735, 7.681431
638.0557, 7.920577
638.5378, 8.161722
639.0199, 8.407330
639.5020, 8.659945
639.9841, 8.941838
640.4662, 9.245336
640.9484, 9.489829
641.4305, 9.641671
641.9126, 9.745775
642.3947, 9.873586
642.8768, 10.00986
643.3589, 10.11337
643.8411, 10.15798
644.3232, 10.16747
644.8053, 10.19286
645.2874, 10.20770
645.7695, 10.09290
646.2516, 9.732895
646.7338, 9.303831
647.2159, 8.884822
647.6980, 8.482285
648.1801, 8.054549
648.6622, 7.560999
649.1443, 7.088294
649.6265, 6.707469
650.1086, 6.425180
650.5907, 6.085896
651.0728, 5.671436
651.5549, 5.247675
652.0370, 4.869691
652.5192, 4.538023
653.0013, 4.274152
653.4834, 4.099129
653.9655, 3.944122
654.4476, 3.746405
654.9297, 3.525578
655.4119, 3.316353
655.8940, 3.124610
656.3761, 2.959742
656.8582, 2.825691
657.3403, 2.717718
657.8224, 2.623764
658.3046, 2.556205
658.7867, 2.487926
659.2688, 2.410852
659.7509, 2.324021
660.2330, 2.238608
660.7151, 2.147688
661.1973, 2.060929
661.6794, 1.973715
662.1615, 1.898248
662.6436, 1.846763
663.1257, 1.822098
663.6078, 1.797808
664.0900, 1.745255
664.5721, 1.676124
665.0542, 1.585206
665.5363, 1.466743
666.0184, 1.350721
666.5005, 1.228983
666.9827, 1.131304
667.4648, 1.083659
667.9469, 1.168568
668.4290, 1.197518
668.9111, 1.136223
669.3932, 1.029781
669.8754, 0.9469470
670.3575, 0.8832890
670.8396, 0.8530650
671.3217, 0.8740260
671.8038, 0.9116510
672.2859, 0.8822800
672.7681, 0.7949060
673.2502, 0.7185500
673.7323, 0.7059270
674.2144, 0.7152040
674.6965, 0.6999130
675.1786, 0.6651740
675.6608, 0.6397500
676.1429, 0.6497160
676.6250, 0.6635250
677.1071, 0.6684970
677.5892, 0.6654170
678.0714, 0.6353670
678.5535, 0.5422470
679.0356, 0.4622350
679.5177, 0.4518670
679.9998, 0.5324440
680.4819, 0.5721290
680.9641, 0.5664430
681.4462, 0.5339690
681.9283, 0.4767250
682.4104, 0.4063500
682.8925, 0.3755250
683.3746, 0.4014460
683.8568, 0.4408340
684.3389, 0.4612100
684.8210, 0.4650030
685.3031, 0.4560560
685.7852, 0.4145720
686.2673, 0.3854170
686.7495, 0.3933300
687.2316, 0.4233980
687.7137, 0.4411770
688.1958, 0.4371670
688.6779, 0.4334230
689.1600, 0.4384570
689.6422, 0.4462070
690.1243, 0.4261050
690.6064, 0.3727480
691.0885, 0.3331650
691.5706, 0.3407440
692.0527, 0.3741780
692.5349, 0.3773910
693.0170, 0.3534590
693.4991, 0.3294190
693.9812, 0.3190720
694.4633, 0.3195170
694.9454, 0.3413420
695.4276, 0.3863640
695.9097, 0.3942140
696.3918, 0.3012380
696.8739, 0.1979340
697.3560, 0.1404470
697.8381, 0.1411140
698.3203, 0.1523390
698.8024, 0.1789090
699.2845, 0.2085480
699.7666, 0.2358940
700.2487, 0.2608590
700.7308, 0.2463420
701.2130, 0.1784900
701.6951, 0.1104780
702.1772, 0.1214320
702.6593, 0.1802510
703.1414, 0.2183240
703.6235, 0.2127400
704.1057, 0.1896380
704.5878, 0.1574060
705.0699, 0.1206430
705.5520, 8.6691000E-02
706.0341, 5.1399000E-02
706.5162, 2.6829001E-02
706.9984, 2.0597000E-02
707.4805, 2.4692999E-02
707.9626, 1.3788000E-02
708.4447, 2.4329999E-02
708.9268, 3.2338999E-02
709.4089, 2.4901999E-02
709.8911, 0.1139340
710.3732, 0.1239760
710.8553, 6.1974000E-02
711.3374, 1.3670000E-03
711.8195, 2.8430000E-03
712.3016, 8.5850004E-03
712.7838, 2.0266000E-02
713.2659, 8.2507998E-02
713.7480, 0.1241570
714.2301, 0.1147050
714.7122, 8.2098000E-02
715.1943, 2.8005000E-02
715.6765, 5.5578999E-02
716.1586, 8.5325003E-02
716.6407, 2.5101000E-02
717.1228, 3.8490001E-02
717.6049, 4.7688000E-02
718.0870, 4.7080000E-03
718.5692, 1.8611999E-02
719.0513, 1.3386000E-02
719.5334, 3.9845999E-02
720.0155, 1.3796000E-02
720.4976, 0.1048350
720.9797, 0.1292470
721.4619, 6.2596001E-02
721.9440, 7.2579999E-03
722.4261, 9.4630001E-03
722.9082, 1.6060000E-02
723.3903, 2.7090000E-02
723.8724, 9.0889996E-03
724.3546, 1.8689999E-02
724.8367, 3.3798002E-02
725.3188, 0.1027040
725.8009, 0.1370210
726.2830, 0.1250720
726.7651, 0.1154810
727.2473, 0.1120850
727.7294, 0.1172750
728.2115, 0.1405840
728.6936, 0.1783700
729.1757, 0.2087990
729.6578, 0.2208370
730.1400, 0.2290630
730.6221, 0.2498210
731.1042, 0.2782580
731.5863, 0.3043120
732.0684, 0.3188570
732.5505, 0.3361460
733.0327, 0.3613470
733.5148, 0.3937870
733.9969, 0.4303160
734.4790, 0.4806770
734.9611, 0.5139940
735.4432, 0.5128470
735.9254, 0.4898300
736.4075, 0.4927130
736.8896, 0.5213670
737.3717, 0.5814200
737.8538, 0.7174020
738.3359, 0.8652900
738.8181, 0.9016220
739.3002, 0.8457830
739.7823, 0.8180850
740.2644, 0.9238310
740.7465, 1.043705
741.2286, 1.096756
741.7108, 1.073958
742.1929, 1.092755
742.6750, 1.173341
743.1571, 1.270770
743.6392, 1.371833
744.1213, 1.478149
744.6035, 1.568616
745.0856, 1.644569
745.5677, 1.705598
746.0498, 1.731304
746.5319, 1.740581
747.0140, 1.778207
747.4962, 1.848445
747.9783, 1.936782
748.4604, 2.047758
748.9425, 2.161296
749.4246, 2.259284
749.9067, 2.336218
750.3889, 2.403872
750.8710, 2.429970
751.3531, 2.476126
751.8352, 2.603150
752.3173, 2.842087
752.7994, 3.018377
753.2816, 3.118568
753.7637, 3.178847
754.2458, 3.229321
754.7279, 3.275600
755.2100, 3.339785
755.6921, 3.429004
756.1743, 3.524635
756.6564, 3.604436
757.1385, 3.683495
757.6206, 3.780782
758.1027, 3.923237
758.5848, 4.052117
759.0670, 4.166428
759.5491, 4.259033
760.0312, 4.314698
760.5133, 4.313741
760.9954, 4.350567
761.4775, 4.444084
761.9597, 4.567549
762.4418, 4.693493
762.9239, 4.815727
763.4060, 4.900815
763.8881, 4.926443
764.3702, 4.933350
764.8524, 4.961933
765.3345, 4.997326
765.8166, 5.012198
766.2987, 4.990611
766.7808, 4.953649
767.2629, 4.884290
767.7451, 4.810138
768.2272, 4.799553
768.7093, 4.880745
769.1914, 4.928050
769.6735, 4.910607
770.1556, 4.848053
770.6378, 4.776867
771.1199, 4.692705
771.6020, 4.584491
772.0841, 4.439614
772.5662, 4.284181
773.0483, 4.143121
773.5305, 4.009302
774.0126, 3.865540
774.4947, 3.681863
774.9768, 3.513336
775.4589, 3.390475
775.9410, 3.300242
776.4232, 3.186506
776.9053, 3.044883
777.3874, 2.887288
777.8695, 2.716265
778.3516, 2.535230
778.8337, 2.353582
779.3159, 2.173106
779.7980, 2.003602
780.2801, 1.838809
780.7622, 1.699057
781.2443, 1.633124
781.7264, 1.616195
782.2086, 1.548558
782.6907, 1.315194
783.1728, 1.119371
783.6549, 1.045219
784.1370, 1.070042
784.6191, 1.056742
785.1012, 1.002392
785.5833, 0.9220360
786.0654, 0.8069990
786.5475, 0.6765170
787.0297, 0.5955380
787.5118, 0.5567310
787.9939, 0.5184370
788.4760, 0.4355020
788.9581, 0.3582960
789.4402, 0.3432630
789.9224, 0.3806090
790.4045, 0.3843920
790.8866, 0.3047710
791.3687, 0.2184420
791.8508, 0.1475230
792.3329, 9.1268003E-02
792.8151, 5.5380002E-02
793.2972, 4.2257000E-02
793.7793, 3.2584999E-02
794.2614, 9.9630002E-03
794.7435, 1.5721001E-02
795.2256, 1.4512000E-02
795.7078, 9.3250005E-03
796.1899, 2.9616000E-02
796.6720, 3.2187998E-02
797.1541, 2.5096999E-02
797.6362, 1.6659999E-02
798.1183, 6.5629999E-03
798.6005, 2.3735000E-02
799.0826, 0.1120990
799.5647, 0.1711140
800.0468, 0.1573370
800.5289, 7.9813004E-02
801.0110, 3.1597000E-02
801.4932, 1.3480000E-02
801.9753, 1.7565001E-02
802.4574, 6.8669997E-02
802.9395, 0.1256700
803.4216, 9.7285002E-02
803.9037, 2.5620000E-03
804.3859, 7.2113000E-02
804.8680, 2.1259999E-03
805.3501, 6.3509002E-02
805.8322, 3.1073000E-02
806.3143, 0.1058390
806.7964, 0.1944460
807.2786, 0.2115740
807.7607, 0.2211250
808.2428, 0.2522080
808.7249, 0.2997510
809.2070, 0.3336160
809.6891, 0.3539860
810.1713, 0.3647570
810.6534, 0.3392150
811.1355, 0.3243740
811.6176, 0.3977860
812.0997, 0.5453980
812.5818, 0.6554800
813.0640, 0.6584650
813.5461, 0.6398700
814.0282, 0.6198120
814.5103, 0.6031140
814.9924, 0.6563810
815.4745, 0.7998170
815.9567, 0.9475050
816.4388, 1.067729
816.9209, 1.159137
817.4030, 1.196239
817.8851, 1.188983
818.3672, 1.209249
818.8494, 1.309459
819.3315, 1.446269
819.8136, 1.603648
820.2957, 1.775052
820.7778, 1.920275
821.2599, 2.026529
821.7421, 2.109204
822.2242, 2.150818
822.7063, 2.168953
823.1884, 2.281421
823.6705, 2.494674
824.1526, 2.701291
824.6348, 2.829177
825.1169, 2.927917
825.5990, 3.088362
826.0811, 3.297634
826.5632, 3.516410
827.0453, 3.747696
827.5275, 3.961702
828.0096, 4.131954
828.4917, 4.267859
828.9738, 4.436804
829.4559, 4.650596
829.9380, 4.872295
830.4202, 5.097800
830.9023, 5.318024
831.3844, 5.498839
831.8665, 5.645192
832.3486, 5.806774
832.8307, 6.008907
833.3129, 6.233501
833.7950, 6.491104
834.2771, 6.757994
834.7592, 6.972166
835.2413, 7.056404
835.7234, 7.159830
836.2056, 7.338511
836.6877, 7.552660
837.1698, 7.682814
837.6519, 7.713249
838.1340, 7.769087
838.6161, 7.888671
839.0983, 8.048392
839.5804, 8.245095
840.0625, 8.449761
840.5446, 8.585669
841.0267, 8.586411
841.5089, 8.554183
841.9910, 8.532794
842.4731, 8.512424
842.9552, 8.471297
843.4373, 8.380703
843.9194, 8.333320
844.4016, 8.364077
844.8837, 8.412071
845.3658, 8.364622
845.8479, 8.234114
846.3300, 8.091116
846.8121, 7.946250
847.2943, 7.814832
847.7764, 7.723656
848.2585, 7.650878
848.7406, 7.568996
849.2227, 7.483133
849.7048, 7.365585
850.1870, 7.211129
850.6691, 7.025057
851.1512, 6.803660
851.6333, 6.539951
852.1154, 6.298303
852.5975, 6.085071
853.0797, 5.904286
853.5618, 5.770072
854.0439, 5.660967
854.5260, 5.541348
855.0081, 5.405563
855.4902, 5.288927
855.9724, 5.239214
856.4545, 5.181660
856.9366, 5.042626
857.4187, 4.776306
857.9008, 4.585080
858.3829, 4.486517
858.8651, 4.435473
859.3472, 4.404250
859.8293, 4.386079
860.3114, 4.361090
860.7935, 4.327083
861.2756, 4.280097
861.7578, 4.194390
862.2399, 4.110800
862.7220, 4.069033
863.2041, 4.080813
863.6862, 4.083065
864.1683, 4.052614
864.6505, 4.023490
865.1326, 4.030206
865.6147, 4.066885
866.0968, 4.011688
866.5789, 3.864147
867.0610, 3.734306
867.5432, 3.719833
868.0253, 3.744190
868.5074, 3.730309
868.9895, 3.675816
869.4716, 3.585654
869.9537, 3.402937
870.4359, 3.248713
870.9180, 3.181080
871.4001, 3.176202
871.8822, 3.111088
872.3643, 2.975589
872.8464, 2.857473
873.3286, 2.795978
873.8107, 2.763976
874.2928, 2.721756
874.7749, 2.667929
875.2570, 2.600068
875.7391, 2.500688
876.2213, 2.403200
876.7034, 2.310380
877.1855, 2.231692
877.6676, 2.190603
878.1497, 2.214475
878.6318, 2.192101
879.1140, 2.086471
879.5961, 1.961263
880.0782, 1.931997
880.5603, 1.971304
881.0424, 1.987770
881.5245, 1.950173
882.0067, 1.904819
882.4888, 1.887118
882.9709, 1.877858
883.4530, 1.854559
883.9351, 1.809737
884.4172, 1.757081
884.8994, 1.692270
885.3815, 1.626327
885.8636, 1.572644
886.3457, 1.529059
886.8278, 1.484388
887.3099, 1.438620
887.7921, 1.382486
888.2742, 1.300728
888.7563, 1.209486
889.2384, 1.119887
889.7205, 1.029945
890.2026, 0.9679940
890.6848, 0.9596260
891.1669, 0.9511880
891.6490, 0.9148010
892.1311, 0.8528560
892.6132, 0.8030340
893.0953, 0.7657730
893.5775, 0.7250880
894.0596, 0.6634540
894.5417, 0.5980830
895.0238, 0.5465190
895.5059, 0.5071910
895.9880, 0.4716600
896.4702, 0.4342890
896.9523, 0.4032970
897.4344, 0.3794470
897.9165, 0.3632270
898.3986, 0.3663840
898.8807, 0.3919940
899.3629, 0.3823250
899.8450, 0.3032840
900.3271, 0.2058780
900.8092, 0.1528610
901.2913, 0.1360090
901.7734, 0.1383780
902.2556, 0.1825370
902.7377, 0.2076100
903.2198, 0.1789040
903.7019, 0.1325760
904.1840, 0.1129520
904.6661, 0.1289800
905.1483, 0.1214030
905.6304, 7.9549000E-02
906.1125, 3.1082001E-02
906.5946, 5.2310000E-03
907.0767, 4.7080000E-03
907.5588, 7.4419999E-03
908.0410, 2.8909999E-03
908.5231, 3.0210000E-03
909.0052, 1.3942000E-02
909.4873, 3.1392999E-02
909.9694, 5.6237999E-02
910.4515, 9.1693997E-02
910.9337, 9.7203001E-02
911.4158, 6.2162001E-02
911.8979, 4.3804001E-02
912.3800, 0.1094820
912.8621, 0.2109180
913.3442, 0.2340510
913.8264, 0.1884840
914.3085, 0.1372850
914.7906, 0.1008230
915.2727, 7.8989998E-02
915.7548, 8.1225999E-02
916.2369, 9.9623002E-02
916.7191, 0.1012970
917.2012, 8.2494996E-02
917.6833, 5.9365001E-02
918.1654, 3.2811999E-02
918.6475, 1.0092000E-02
919.1296, 3.5339999E-03
919.6118, 1.2295000E-02
920.0939, 3.6869999E-02
920.5760, 0.1056710
921.0581, 0.1460490
921.5402, 0.1059690
922.0223, 2.5233001E-02
922.5045, 4.4250000E-02
922.9866, 0.1092850
923.4687, 0.1346620
923.9508, 0.1079020
924.4329, 7.0776001E-02
924.9150, 7.4248999E-02
925.3972, 0.1039150
925.8793, 0.1254540
926.3614, 0.1342010
926.8435, 0.1434890
927.3256, 0.1598440
927.8077, 0.1806810
928.2899, 0.2079660
928.7720, 0.2426640
929.2541, 0.2552200
929.7362, 0.2321010
930.2183, 0.2337100
930.7004, 0.3056790
931.1826, 0.4205810
931.6647, 0.5151500
932.1468, 0.5892170
932.6289, 0.6417500
933.1110, 0.6385840
933.5931, 0.6496970
934.0753, 0.7172080
934.5574, 0.8245240
935.0395, 0.9188610
935.5216, 0.9931610
936.0037, 1.082662
936.4858, 1.200047
936.9680, 1.324826
937.4501, 1.411887
937.9322, 1.483785
938.4143, 1.594838
938.8964, 1.768977
939.3785, 1.952837
939.8607, 2.113125
940.3428, 2.274229
940.8249, 2.454568
941.3070, 2.654000
941.7891, 2.873155
942.2712, 3.115176
942.7534, 3.358874
943.2355, 3.596767
943.7176, 3.822845
944.1997, 4.012303
944.6818, 4.172764
945.1639, 4.377301
945.6461, 4.719740
946.1282, 5.055007
946.6103, 5.277141
947.0924, 5.432287
947.5745, 5.713034
948.0566, 6.140249
948.5388, 6.573416
949.0209, 6.981123
949.5030, 7.350423
949.9851, 7.632874
950.4672, 7.866304
950.9493, 8.131889
951.4315, 8.529922
951.9136, 8.843540
952.3957, 8.985818
952.8778, 9.026661
953.3599, 9.025075
953.8420, 8.983042
954.3242, 8.881391
954.8063, 8.717886
955.2884, 8.512321
955.7705, 8.302434
956.2526, 8.051569
956.7347, 7.691266
957.2169, 7.218739
957.6990, 6.743786
958.1811, 6.283858
958.6632, 5.850144
959.1453, 5.445516
959.6274, 5.064394
960.1096, 4.667381
960.5917, 4.253212
961.0738, 3.881971
961.5559, 3.584441
962.0380, 3.327409
962.5201, 3.071950
963.0023, 2.827493
963.4844, 2.606331
963.9665, 2.406318
964.4486, 2.238763
964.9307, 2.114304
965.4128, 2.008369
965.8950, 1.898364
966.3771, 1.783768
966.8592, 1.647065
967.3413, 1.485193
967.8234, 1.337774
968.3055, 1.244979
968.7877, 1.179693
969.2698, 1.122671
969.7519, 1.070832
970.2340, 1.019681
970.7161, 0.9628890
971.1982, 0.9164310
971.6804, 0.8889390
972.1625, 0.8795600
972.6446, 0.8909090
973.1267, 0.9169400
973.6088, 0.9329510
974.0909, 0.9220480
974.5731, 0.9044870
975.0552, 0.8792840
975.5373, 0.8603460
976.0194, 0.8720410
976.5015, 0.9268550
976.9836, 0.9758130
977.4658, 1.012522
977.9479, 1.045060
978.4300, 1.084658
978.9121, 1.124967
979.3942, 1.149734
979.8763, 1.158148
980.3585, 1.178719
980.8406, 1.233617
981.3227, 1.291324
981.8048, 1.328799
982.2869, 1.350166
982.7690, 1.409587
983.2511, 1.509475
983.7332, 1.624979
984.2153, 1.751024
984.6974, 1.880165
985.1796, 2.010612
985.6617, 2.137273
986.1438, 2.247157
986.6259, 2.311169
987.1080, 2.391807
987.5901, 2.492908
988.0723, 2.618273
988.5544, 2.764342
989.0365, 2.932955
989.5186, 3.176256
990.0007, 3.504913
990.4828, 3.814367
990.9650, 3.994057
991.4471, 4.136038
991.9292, 4.310055
992.4113, 4.522246
992.8934, 4.794425
993.3755, 5.166181
993.8577, 5.512512
994.3398, 5.776816
994.8219, 5.993869
995.3040, 6.260706
995.7861, 6.557739
996.2682, 6.821917
996.7504, 7.013280
997.2325, 7.187400
997.7146, 7.357913
998.1967, 7.534684
998.6788, 7.734093
999.1609, 7.967633
999.6431, 8.197409
1000.125, 8.430101
1000.607, 8.605599
1001.089, 8.638505
1001.572, 8.589496
1002.054, 8.558406
1002.536, 8.546397
1003.018, 8.498696
1003.500, 8.457524
1003.982, 8.295407
1004.464, 7.953511
1004.946, 7.477109
1005.428, 7.011329
1005.911, 6.551044
1006.393, 6.058727
1006.875, 5.497387
1007.357, 4.953184
1007.839, 4.490620
1008.321, 4.088921
1008.803, 3.716749
1009.285, 3.380443
1009.768, 3.058527
1010.250, 2.752732
1010.732, 2.449834
1011.214, 2.124148
1011.696, 1.793864
1012.178, 1.546809
1012.660, 1.377695
1013.142, 1.242127
1013.624, 1.129035
1014.107, 1.031265
1014.589, 0.9647550
1015.071, 0.9073790
1015.553, 0.8060800
1016.035, 0.6495150
1016.517, 0.5165680
1016.999, 0.4220340
1017.481, 0.3540590
1017.964, 0.3017390
1018.446, 0.2665280
1018.928, 0.2524870
1019.410, 0.2631810
1019.892, 0.2761820
1020.374, 0.3035200
1020.856, 0.3110830
1021.338, 0.2767730
1021.820, 0.2087710
1022.303, 0.1446810
1022.785, 8.6956002E-02
1023.267, 5.6999002E-02
1023.749, 8.5331000E-02
1024.231, 0.1247720
1024.713, 0.1536010
1025.195, 0.1694390
1025.677, 0.1667630
1026.160, 0.1379520
1026.642, 0.1194780
1027.124, 0.1141800
1027.606, 0.1110080
1028.088, 9.2669003E-02
1028.570, 7.3069997E-02
1029.052, 7.6875001E-02
1029.534, 0.1053160
1030.016, 0.1419920
1030.499, 0.2009930
1030.981, 0.2435290
1031.463, 0.2470120
1031.945, 0.2251940
1032.427, 0.2351230
1032.909, 0.2746720
1033.391, 0.2962700
1033.873, 0.2769850
1034.355, 0.2569530
1034.838, 0.2642520
1035.320, 0.2957290
1035.802, 0.3558800
1036.284, 0.4776290
1036.766, 0.5265670
1037.248, 0.4798020
1037.730, 0.4209990
1038.212, 0.4189310
1038.695, 0.4477170
1039.177, 0.4332940
1039.659, 0.3869650
1040.141, 0.3586790
1040.623, 0.3898770
1041.105, 0.4115280
1041.587, 0.3868340
1042.069, 0.3538620
1042.552, 0.3752260
1043.034, 0.4517960
1043.516, 0.5222770
1043.998, 0.5809050
1044.480, 0.6173580
1044.962, 0.5973390
1045.444, 0.5667460
1045.926, 0.5747100
1046.408, 0.6287590
1046.891, 0.6629390
1047.373, 0.6626540
1047.855, 0.6726530
1048.337, 0.7178420
1048.819, 0.7785820
1049.301, 0.8117270
1049.783, 0.8251450
1050.265, 0.8422470
1050.747, 0.8727470
1051.230, 0.9201700
1051.712, 1.011972
1052.194, 1.090461
1052.676, 1.106763
1053.158, 1.058293
1053.640, 1.084804
1054.122, 1.185594
1054.604, 1.265805
1055.087, 1.251575
1055.569, 1.197529
1056.051, 1.141352
1056.533, 1.082557
1057.015, 1.012768
1057.497, 0.9227900
1057.979, 0.8456830
1058.461, 0.7899140
1058.943, 0.7379370
1059.426, 0.6592510
1059.908, 0.5705620
1060.390, 0.5036980
1060.872, 0.4639740
1061.354, 0.4296440
1061.836, 0.4028300
1062.318, 0.3669530
1062.800, 0.3052680
1063.282, 0.2324900
1063.765, 0.2163210
1064.247, 0.2501700
1064.729, 0.2754370
1065.211, 0.2674010
1065.693, 0.2513690
1066.175, 0.2538590
1066.657, 0.2552410
1067.139, 0.2272870
1067.622, 0.1563320
1068.104, 0.1144100
1068.586, 0.1063750
1069.068, 0.1036040
1069.550, 8.0503002E-02
1070.032, 5.4347999E-02
1070.514, 5.9250001E-02
1070.996, 8.4562004E-02
1071.479, 9.5691003E-02
1071.961, 6.8176001E-02
1072.443, 4.4376999E-02
1072.925, 3.1342998E-02
1073.407, 2.2371000E-02
1073.889, 6.7560002E-03
1074.371, 1.2924000E-02
1074.853, 2.8600000E-02
1075.335, 3.9138999E-02
1075.818, 4.3843001E-02
1076.300, 4.3042000E-02
1076.782, 3.5477001E-02
1077.264, 1.3415000E-02
1077.746, 1.7070999E-02
1078.228, 2.5959000E-02
1078.710, 1.1775000E-02
1079.192, 5.5330000E-03
1079.674, 2.3207000E-02
1080.157, 2.8546000E-02
1080.639, 6.0820002E-03
1081.121, 5.0625000E-02
1081.603, 6.9495998E-02
1082.085, 5.1745001E-02
1082.567, 2.4650000E-02
1083.049, 1.7724000E-02
1083.531, 5.4660000E-02
1084.013, 7.8135997E-02
1084.496, 8.5598998E-02
1084.978, 6.3087001E-02
1085.460, 1.9876000E-02
1085.942, 1.8131001E-02
1086.424, 5.3350002E-02
1086.906, 6.4181998E-02
1087.388, 3.3254001E-02
1087.870, 7.6130000E-03
1088.353, 2.8650999E-02
1088.835, 3.0293001E-02
1089.317, 9.8999999E-03
1089.799, 3.0734999E-02
1090.281, 5.8044001E-02
1090.763, 3.1656001E-02
1091.245, 2.9849999E-03
1091.727, 1.2598000E-02
1092.209, 4.3200999E-02
1092.692, 3.9735001E-02
1093.174, 4.2420002E-03
1093.656, 3.2880001E-02
1094.138, 3.5533998E-02
1094.620, 2.4621001E-02
1095.102, 2.9130001E-03
1095.584, 1.8764000E-02
1096.066, 2.8167000E-02
1096.548, 2.2931000E-02
1097.031, 6.0930001E-03
1097.513, 3.5601001E-02
1097.995, 5.1075000E-02
1098.477, 9.6260002E-03
1098.959, 5.3862002E-02
1099.441, 7.0929997E-02
1099.923, 5.3024001E-02
1100.405, 2.4662999E-02
1100.888, 1.3493000E-02
1101.370, 4.6018999E-02
1101.852, 7.3775999E-02
1102.334, 8.8522002E-02
1102.816, 8.0334999E-02
1103.298, 5.2666001E-02
1103.780, 3.4285001E-02
1104.262, 2.3531999E-02
1104.745, 9.3769999E-03
1105.227, 3.2844000E-02
1105.709, 5.9085999E-02
1106.191, 2.3231000E-02
1106.673, 3.0205000E-02
1107.155, 2.8858000E-02
1107.637, 4.0116001E-02
1108.119, 4.5214999E-02
1108.601, 2.6109001E-02
1109.083, 8.0647998E-02
1109.566, 1.3295000E-02
1110.048, 8.2438000E-02
1110.530, 0.1209580
1111.012, 0.1080770
1111.494, 9.9062003E-02
1111.976, 0.1019680
1112.458, 9.4444998E-02
1112.940, 6.9746003E-02
1113.423, 4.1753002E-02
1113.905, 2.4015000E-02
1114.387, 1.6625000E-02
1114.869, 1.9097000E-02
1115.351, 3.1075999E-02
1115.833, 5.7797000E-02
1116.315, 0.1198580
1116.797, 0.1647200
1117.280, 0.1737640
1117.762, 0.1562600
1118.244, 0.1224710
1118.726, 8.1883997E-02
1119.208, 6.2666997E-02
1119.690, 7.9687998E-02
1120.172, 9.7850002E-02
1120.654, 0.1083660
1121.136, 0.1089860
1121.619, 9.2836000E-02
1122.101, 6.3523002E-02
1122.583, 6.1565999E-02
1123.065, 8.4066004E-02
1123.547, 0.1060160
1124.029, 0.1215110
1124.511, 0.1241940
1124.993, 9.6831001E-02
1125.475, 6.1399002E-02
1125.958, 4.7343999E-02
1126.440, 5.9073001E-02
1126.922, 6.5554999E-02
1127.404, 6.5765999E-02
1127.886, 7.1239002E-02
1128.368, 9.8871998E-02
1128.850, 0.1285120
1129.332, 0.1415590
1129.815, 0.1407040
1130.297, 0.1352160
1130.779, 0.1237440
1131.261, 0.1147850
1131.743, 0.1093480
1132.225, 0.1058240
1132.707, 9.7742997E-02
1133.189, 9.3264997E-02
1133.672, 0.1158300
1134.154, 0.1610590
1134.636, 0.1696720
1135.118, 0.1007320
1135.600, 5.0441999E-02
1136.082, 4.3721002E-02
1136.564, 5.5833001E-02
1137.046, 4.2907000E-02
1137.528, 1.7480999E-02
1138.010, 1.1588000E-02
1138.493, 3.3139002E-02
1138.975, 5.1169001E-02
1139.457, 4.5853000E-02
1139.939, 4.5400999E-02
1140.421, 6.1801001E-02
1140.903, 8.8569999E-02
1141.385, 0.1068520
1141.867, 0.1189390
1142.350, 0.1364870
1142.832, 0.1683140
1143.314, 0.1961750
1143.796, 0.2054560
1144.278, 0.2074810
1144.760, 0.2133520
1145.242, 0.2210570
1145.724, 0.1981540
1146.207, 0.1483500
1146.689, 0.1143960
1147.171, 0.1295030
1147.653, 0.1481000
1148.135, 0.1208750
1148.617, 9.3525000E-02
1149.099, 0.1283860
1149.581, 0.2467390
1150.063, 0.2751680
1150.546, 0.2115240
1151.028, 0.1453430
1151.510, 0.1460290
1151.992, 0.1615660
1152.474, 0.1419560
1152.956, 0.1079680
1153.438, 0.1047490
1153.920, 0.1475940
1154.402, 0.1628550
1154.885, 0.1416300
1155.367, 0.1204760
1155.849, 0.1467980
1156.331, 0.1891490
1156.813, 0.2086730
1157.295, 0.2060010
1157.777, 0.1978790
1158.259, 0.1839830
1158.742, 0.1687390
1159.224, 0.1520150
1159.706, 0.1375260
1160.188, 0.1249810
1160.670, 0.1223390
1161.152, 0.1524290
1161.634, 0.2123350
1162.116, 0.2377090
1162.599, 0.1908740
1163.081, 0.1656980
1163.563, 0.1873160
1164.045, 0.2259880
1164.527, 0.2399880
1165.009, 0.2371040
1165.491, 0.2258780
1165.973, 0.2021850
1166.455, 0.1833910
1166.938, 0.1667350
1167.420, 0.1784630
1167.902, 0.2370910
1168.384, 0.3087640
1168.866, 0.3086600
1169.348, 0.2633140
1169.830, 0.2477540
1170.312, 0.2886190
1170.794, 0.3245010
1171.277, 0.3307930
1171.759, 0.3293040
1172.241, 0.3252690
1172.723, 0.3241980
1173.205, 0.3513190
1173.687, 0.3987190
1174.169, 0.4391320
1174.651, 0.4628110
1175.134, 0.4779730
1175.616, 0.4760650
1176.098, 0.4785070
1176.580, 0.5025500
1177.062, 0.5441370
1177.544, 0.5749360
1178.026, 0.5945050
1178.508, 0.6008060
1178.990, 0.5798100
1179.473, 0.5622720
1179.955, 0.5554570
1180.437, 0.5633430
1180.919, 0.5962970
1181.401, 0.6533500
1181.883, 0.6885620
1182.365, 0.7017120
1182.847, 0.7123720
1183.329, 0.7347660
1183.812, 0.7539130
1184.294, 0.7602860
1184.776, 0.7608590
1185.258, 0.7659540
1185.740, 0.7760060
1186.222, 0.7688620
1186.704, 0.7449640
1187.186, 0.7394060
1187.669, 0.8095880
1188.151, 0.8707100
1188.633, 0.8511130
1189.115, 0.7948980
1189.597, 0.7787160
1190.079, 0.8061130
1190.561, 0.8208790
1191.043, 0.8182690
1191.526, 0.8004860
1192.008, 0.7479710
1192.490, 0.7016720
1192.972, 0.7041710
1193.454, 0.7332140
1193.936, 0.7217200
1194.418, 0.6680740
1194.900, 0.6294230
1195.382, 0.6146970
1195.865, 0.6038970
1196.347, 0.5713230
1196.829, 0.5450470
1197.311, 0.5657910
1197.793, 0.6121050
1198.275, 0.5852930
1198.757, 0.4772580
1199.239, 0.4157640
1199.721, 0.4343030
1200.204, 0.4541030
1200.686, 0.3868580
1201.168, 0.3046490
1201.650, 0.2653050
1202.132, 0.2683640
1202.614, 0.2986350
1203.096, 0.3597040
1203.578, 0.3913220
1204.061, 0.3739250
1204.543, 0.3376520
1205.025, 0.2959750
1205.507, 0.2601310
1205.989, 0.2456200
1206.471, 0.2503960
1206.953, 0.2454250
1207.435, 0.2319230
1207.917, 0.2222320
1208.400, 0.2286600
1208.882, 0.2279350
1209.364, 0.1795440
1209.846, 0.1252010
1210.328, 0.1126770
1210.810, 0.1441150
1211.292, 0.1787870
1211.774, 0.2207000
1212.256, 0.2454580
1212.739, 0.2441180
1213.221, 0.2278120
1213.703, 0.2112510
1214.185, 0.1910760
1214.667, 0.1568680
1215.149, 0.1071230
1215.631, 8.4532000E-02
1216.113, 8.9731000E-02
1216.596, 0.1052900
1217.078, 0.1339760
1217.560, 0.1507020
1218.042, 0.1120240
1218.524, 6.3221000E-02
1219.006, 6.6597000E-02
1219.488, 0.1306110
1219.970, 0.1253130
1220.453, 4.8771001E-02
1220.935, 9.2900004E-03
1221.417, 2.7530000E-03
1221.899, 4.0886000E-02
1222.381, 9.4807997E-02
1222.863, 0.1399790
1223.345, 0.1420870
1223.827, 9.4531000E-02
1224.309, 8.0023997E-02
1224.792, 9.8346002E-02
1225.274, 0.1072830
1225.756, 6.4809002E-02
1226.238, 2.8243000E-02
1226.720, 5.9610002E-02
1227.202, 0.1066680
1227.684, 9.8600999E-02
1228.166, 2.5638999E-02
1228.648, 7.6999998E-04
1229.131, 2.1798000E-02
1229.613, 4.3138001E-02
1230.095, 2.6116000E-02
1230.577, 1.3822000E-02
1231.059, 4.6406999E-02
1231.541, 8.9512996E-02
1232.023, 9.8586999E-02
1232.505, 7.1211003E-02
1232.988, 5.6345001E-02
1233.470, 5.4003000E-02
1233.952, 5.8954000E-02
1234.434, 8.2148999E-02
1234.916, 9.5707998E-02
1235.398, 6.4862996E-02
1235.880, 2.9953999E-02
1236.362, 4.4743001E-02
1236.844, 0.1072870
1237.327, 0.1290850
1237.809, 0.1107480
1238.291, 7.8157999E-02
1238.773, 1.9089000E-02
1239.255, 1.6733000E-02
1239.737, 1.6278001E-02
1240.219, 6.5926999E-02
1240.701, 7.7881001E-02
1241.183, 5.6161001E-02
1241.666, 3.1699002E-02
1242.148, 6.8810000E-03
1242.630, 8.4269997E-03
1243.112, 1.5090000E-02
1243.594, 1.2370000E-03
1244.076, 5.4740999E-02
1244.558, 0.1117120
1245.040, 0.1132290
1245.523, 7.4942999E-02
1246.005, 7.8877002E-02
1246.487, 1.7154001E-02
1246.969, 0.1533640
1247.451, 0.2491290
1247.933, 0.2741460
1248.415, 1.6479000E-02
1248.897, 0.1238440
1249.380, 8.4918000E-02
1249.862, 3.9997999E-02
1250.344, 0.1987500
1250.826, 1.7785000E-02
1251.308, 0.1377530
1251.790, 0.1447690
1252.272, 0.2197500
1252.754, 0.1475470
1253.236, 0.1208150
1253.719, 0.2412930
1254.201, 0.2802520
1254.683, 0.1910600
1255.165, 0.2703270
1255.647, 4.8620999E-02
1256.129, 9.1032997E-02
1256.611, 0.2474050
1257.093, 0.1656430
1257.575, 0.2475250
1258.058, 0.2671520
1258.540, 1.9880000E-03
1259.022, 0.2302890
1259.504, 0.2462190
1259.986, 4.3285999E-02
1260.468, 0.2554980
1260.950, 8.2725003E-02
1261.432, 4.7061998E-02
1261.915, 0.1151430
1262.397, 7.4511997E-02
1262.879, 0.2042890
1263.361, 0.1701190
1263.843, 0.1218900
1264.325, 0.1376420
1264.807, 2.7590999E-02
1265.289, 0.1428940
1265.771, 8.4151000E-02
1266.254, 0.1390410
1266.736, 0.2201180
1267.218, 0.1034310
1267.700, 0.1934750
1268.182, 3.8903002E-02
1268.664, 7.5900002E-04
1269.146, 1.0468000E-02
1269.628, 0.1908460
1270.110, 4.0385000E-02
1270.593, 8.3379997E-03
1271.075, 0.1355160
1271.557, 0.1201130
1272.039, 0.1728890
1272.521, 3.1684000E-02
1273.003, 7.2607003E-02
1273.485, 6.0194999E-02
1273.967, 0.2242620
1274.450, 0.2515430
1274.932, 0.1056470
1275.414, 8.5518003E-02
1275.896, 8.0798000E-02
1276.378, 0.1218490
1276.860, 0.1742580
1277.342, 0.1896250
1277.824, 0.1766760
1278.307, 0.1582030
1278.789, 0.1374280
1279.271, 0.1229170
1279.753, 0.1217320
1280.235, 0.1235730
1280.717, 0.1196160
1281.199, 0.1230460
1281.681, 0.1191930
1282.163, 0.1016710
1282.646, 0.1073930
1283.128, 0.1138640
1283.610, 0.1202750
1284.092, 0.1092830
1284.574, 0.1091680
1285.056, 0.1300090
1285.538, 0.1414370
1286.020, 9.4233997E-02
1286.502, 3.2644998E-02
1286.984, 1.8701000E-02
1287.467, 4.2187002E-02
1287.949, 5.7358000E-02
1288.431, 5.8100998E-02
1288.913, 6.1515000E-02
1289.395, 7.0664003E-02
1289.877, 7.5361997E-02
1290.359, 4.7277998E-02
1290.841, 2.6962999E-02
1291.324, 7.2072998E-02
1291.806, 0.1439630
1292.288, 0.1489640
1292.770, 7.9520002E-02
1293.252, 5.1330999E-02
1293.734, 7.0715003E-02
1294.216, 8.4600002E-02
1294.698, 3.8410001E-02
1295.181, 6.4500002E-04
1295.663, 0.0000000E+00
##END=



