##NAMES=Klockmannite
##RRUFFID=R070658
##IDEAL CHEMISTRY=Cu_5.2_Se_6_
##LOCALITY=Cacheuta mine, Cerro de Cacheuta, Sierra de Cacheuta, Mendoza, Argentina
##OWNER=RRUFF
##SOURCE=Michael Scott
##DESCRIPTION=Metallic steel-gray granular aggregates with dull blue-green tarnish associated with umangite mounted in epoxy disc
##STATUS=The identification of this mineral is not yet confirmed.
##URL=rruff.info/R070658
131.2005, 0.0000000E+00
131.6827, 12.01807
132.1648, 21.57617
132.6469, 23.89258
133.1290, 16.05518
133.6111, 17.01318
134.0932, 20.08105
134.5754, 24.55469
135.0575, 21.52979
135.5396, 9.162109
136.0217, 1.105957
136.5038, 14.00537
136.9859, 59.50244
137.4681, 102.4629
137.9502, 122.3638
138.4323, 127.0854
138.9144, 144.1938
139.3965, 178.6738
139.8786, 211.0811
140.3608, 214.5669
140.8429, 180.4360
141.3250, 137.3477
141.8071, 91.21436
142.2892, 34.44629
142.7713, 4.921387
143.2535, 2.529297
143.7356, 20.31689
144.2177, 50.53760
144.6998, 107.2231
145.1819, 158.4722
145.6640, 176.3555
146.1461, 147.2397
146.6283, 133.5298
147.1104, 156.9839
147.5925, 222.1387
148.0746, 238.4082
148.5567, 208.6245
149.0388, 167.7461
149.5210, 145.7715
150.0031, 154.2290
150.4852, 156.3169
150.9673, 154.9355
151.4494, 160.7676
151.9315, 160.7734
152.4137, 158.9761
152.8958, 155.4458
153.3779, 148.4751
153.8600, 117.4971
154.3421, 99.81787
154.8242, 111.9136
155.3064, 193.3843
155.7885, 240.4824
156.2706, 222.1421
156.7527, 154.1831
157.2348, 94.43408
157.7169, 48.79102
158.1991, 19.37500
158.6812, 7.500977
159.1633, 33.07520
159.6454, 57.09424
160.1275, 71.58398
160.6096, 76.21191
161.0918, 73.87891
161.5739, 63.38184
162.0560, 47.47559
162.5381, 28.74854
163.0202, 9.139160
163.5023, 35.14990
163.9845, 27.77100
164.4666, 18.77930
164.9487, 58.17480
165.4308, 66.47998
165.9129, 54.27100
166.3951, 39.10352
166.8772, 24.14453
167.3593, 10.55859
167.8414, 1.758301
168.3235, 18.07324
168.8056, 25.71533
169.2878, 5.669922
169.7699, 29.94629
170.2520, 54.51270
170.7341, 43.06055
171.2162, 20.94336
171.6983, 13.16016
172.1805, 49.72119
172.6626, 95.09082
173.1447, 117.0669
173.6268, 123.0249
174.1089, 122.9917
174.5910, 121.0220
175.0732, 119.6270
175.5553, 124.7661
176.0374, 124.0264
176.5195, 118.5347
177.0016, 109.1685
177.4837, 95.90186
177.9659, 88.27490
178.4480, 106.4492
178.9301, 139.2212
179.4122, 156.2305
179.8943, 123.0337
180.3764, 69.47412
180.8586, 49.11084
181.3407, 67.78857
181.8228, 105.8643
182.3049, 151.6123
182.7870, 201.5854
183.2691, 235.7339
183.7513, 229.3423
184.2334, 197.4297
184.7155, 181.4731
185.1976, 190.7002
185.6797, 213.4312
186.1618, 238.1562
186.6440, 264.5317
187.1261, 276.5898
187.6082, 250.2427
188.0903, 194.8418
188.5724, 154.3345
189.0545, 148.4038
189.5366, 161.5752
190.0188, 172.2578
190.5009, 180.4678
190.9830, 185.3823
191.4651, 182.9238
191.9472, 174.0635
192.4293, 170.7788
192.9115, 183.1646
193.3936, 205.2061
193.8757, 206.9185
194.3578, 185.4429
194.8399, 154.1768
195.3220, 127.9858
195.8042, 106.6235
196.2863, 90.68213
196.7684, 80.79004
197.2505, 77.07812
197.7326, 77.78027
198.2147, 83.60498
198.6969, 92.88721
199.1790, 105.6128
199.6611, 123.1416
200.1432, 133.1348
200.6253, 123.9272
201.1074, 94.34521
201.5896, 77.03955
202.0717, 78.91992
202.5538, 90.34570
203.0359, 81.75000
203.5180, 47.09131
204.0001, 13.54883
204.4823, 3.377930
204.9644, 21.12158
205.4465, 30.74219
205.9286, 24.79688
206.4107, 7.118652
206.8928, 3.887695
207.3750, 7.648926
207.8571, 5.614746
208.3392, 5.336426
208.8213, 30.91553
209.3034, 40.56641
209.7855, 19.00781
210.2677, 30.85352
210.7498, 40.24023
211.2319, 10.56519
211.7140, 70.62280
212.1961, 75.63940
212.6782, 2.041260
213.1604, 53.77222
213.6425, 59.80225
214.1246, 10.58276
214.6067, 20.14893
215.0888, 27.92993
215.5709, 21.57764
216.0531, 13.56104
216.5352, 3.151123
217.0173, 5.019775
217.4994, 8.495117
217.9815, 4.412354
218.4636, 10.51978
218.9458, 34.83154
219.4279, 64.58496
219.9100, 71.76416
220.3921, 47.19482
220.8742, 18.53101
221.3563, 4.509521
221.8385, 27.47534
222.3206, 38.83862
222.8027, 29.88916
223.2848, 7.752441
223.7669, 2.116211
224.2490, 4.425781
224.7312, 16.47754
225.2133, 27.69141
225.6954, 36.05859
226.1775, 47.63892
226.6596, 67.73633
227.1417, 94.60962
227.6239, 109.0601
228.1060, 107.2163
228.5881, 94.77686
229.0702, 71.72974
229.5523, 23.25122
230.0344, 0.3129880
230.5165, 15.14307
230.9987, 66.94678
231.4808, 104.6265
231.9629, 124.9983
232.4450, 134.8748
232.9271, 139.0830
233.4092, 134.8035
233.8914, 130.3557
234.3735, 127.1121
234.8556, 125.1021
235.3377, 122.7900
235.8198, 113.9854
236.3019, 110.4219
236.7841, 126.5798
237.2662, 174.0137
237.7483, 220.3787
238.2304, 258.3418
238.7125, 286.3730
239.1946, 315.6155
239.6768, 343.6509
240.1589, 374.7043
240.6410, 415.4612
241.1231, 473.3477
241.6052, 529.0366
242.0873, 573.7046
242.5695, 598.5854
243.0516, 647.7832
243.5337, 733.2686
244.0158, 836.6479
244.4979, 924.2297
244.9800, 984.0879
245.4622, 1046.975
245.9443, 1124.475
246.4264, 1224.580
246.9085, 1316.781
247.3906, 1398.649
247.8727, 1473.451
248.3549, 1549.250
248.8370, 1630.809
249.3191, 1706.484
249.8012, 1768.276
250.2833, 1808.302
250.7654, 1854.875
251.2476, 1907.583
251.7297, 1967.051
252.2118, 2035.183
252.6939, 2112.971
253.1760, 2198.388
253.6581, 2291.190
254.1403, 2395.247
254.6224, 2499.639
255.1045, 2604.135
255.5866, 2708.369
256.0687, 2805.763
256.5508, 2883.277
257.0330, 2974.317
257.5151, 3104.121
257.9972, 3291.942
258.4793, 3469.822
258.9614, 3645.229
259.4435, 3809.365
259.9257, 3908.224
260.4078, 3922.827
260.8899, 3903.555
261.3720, 3890.273
261.8541, 3904.782
262.3362, 3863.177
262.8184, 3750.473
263.3005, 3573.114
263.7826, 3362.838
264.2647, 3108.769
264.7468, 2838.087
265.2289, 2563.623
265.7111, 2278.842
266.1932, 2015.318
266.6753, 1770.630
267.1574, 1547.885
267.6395, 1357.626
268.1216, 1205.895
268.6038, 1074.537
269.0859, 950.1909
269.5680, 826.2939
270.0501, 722.7080
270.5322, 645.1912
271.0143, 588.6150
271.4965, 541.9829
271.9786, 511.9512
272.4607, 486.5215
272.9428, 454.5745
273.4249, 413.2207
273.9070, 378.6169
274.3892, 355.1106
274.8713, 341.6799
275.3534, 329.7019
275.8355, 318.7866
276.3176, 310.8440
276.7997, 308.4395
277.2819, 312.1216
277.7640, 316.2356
278.2461, 324.2766
278.7282, 334.8442
279.2103, 326.5669
279.6924, 293.2253
280.1746, 255.7888
280.6567, 236.2803
281.1388, 235.3281
281.6209, 245.1401
282.1030, 269.5764
282.5851, 304.8120
283.0673, 322.6790
283.5494, 321.2585
284.0315, 309.4172
284.5136, 293.4492
284.9957, 273.1606
285.4778, 259.0391
285.9600, 257.4541
286.4421, 265.4385
286.9242, 265.7627
287.4063, 256.6794
287.8884, 246.8833
288.3705, 247.7092
288.8527, 258.6240
289.3348, 269.9600
289.8169, 277.7334
290.2990, 283.0791
290.7811, 291.2424
291.2632, 302.4465
291.7453, 314.4658
292.2274, 326.4397
292.7096, 337.8130
293.1917, 344.7146
293.6738, 345.0659
294.1559, 339.8313
294.6380, 330.1450
295.1201, 315.2493
295.6023, 301.1780
296.0844, 296.8245
296.5665, 299.7065
297.0486, 299.1821
297.5307, 287.4336
298.0128, 269.9390
298.4950, 256.6995
298.9771, 247.1614
299.4592, 246.5942
299.9413, 268.8374
300.4234, 305.9353
300.9055, 334.8486
301.3877, 343.3508
301.8698, 338.4971
302.3519, 326.8867
302.8340, 307.8713
303.3161, 293.4126
303.7982, 301.4500
304.2804, 322.0200
304.7625, 333.7007
305.2446, 318.2292
305.7267, 293.2236
306.2088, 277.0508
306.6909, 269.6492
307.1731, 272.4678
307.6552, 300.1013
308.1373, 337.2183
308.6194, 357.4175
309.1015, 331.7036
309.5836, 295.9792
310.0658, 283.4556
310.5479, 294.8823
311.0300, 309.2690
311.5121, 314.7817
311.9942, 314.4666
312.4763, 312.3643
312.9585, 307.2754
313.4406, 303.1240
313.9227, 303.7649
314.4048, 309.3647
314.8869, 313.4751
315.3690, 306.9512
315.8512, 298.9985
316.3333, 300.0588
316.8154, 333.4126
317.2975, 359.5835
317.7796, 351.1897
318.2617, 307.8904
318.7439, 277.3076
319.2260, 292.0977
319.7081, 322.8386
320.1902, 340.7854
320.6723, 324.1611
321.1544, 305.3220
321.6366, 292.7068
322.1187, 287.6299
322.6008, 288.1345
323.0829, 306.5811
323.5650, 325.1367
324.0471, 327.4189
324.5293, 288.9319
325.0114, 257.9116
325.4935, 245.0732
325.9756, 250.4282
326.4577, 259.9744
326.9398, 285.5364
327.4220, 306.1294
327.9041, 307.2456
328.3862, 258.9116
328.8683, 223.7366
329.3504, 214.1650
329.8326, 227.9307
330.3147, 232.8025
330.7968, 217.0681
331.2789, 202.3533
331.7610, 202.2393
332.2431, 234.6064
332.7253, 253.7620
333.2074, 248.5798
333.6895, 224.5725
334.1716, 220.5767
334.6537, 258.3760
335.1358, 290.0554
335.6180, 280.0347
336.1001, 199.0579
336.5822, 149.0154
337.0643, 150.0342
337.5464, 186.4082
338.0285, 193.7129
338.5107, 161.1519
338.9928, 124.2979
339.4749, 102.4353
339.9570, 96.33350
340.4391, 96.00708
340.9212, 105.8169
341.4034, 121.0073
341.8855, 126.8311
342.3676, 121.0923
342.8497, 116.6899
343.3318, 123.3926
343.8139, 141.2368
344.2961, 152.6448
344.7782, 156.2004
345.2603, 153.5918
345.7424, 144.0361
346.2245, 127.2939
346.7066, 116.7021
347.1888, 129.7251
347.6709, 157.8474
348.1530, 163.8774
348.6351, 141.4917
349.1172, 110.9258
349.5993, 97.23657
350.0815, 98.25732
350.5636, 100.6519
351.0457, 94.75732
351.5278, 85.73145
352.0099, 85.85815
352.4920, 96.65283
352.9742, 110.7004
353.4563, 128.8042
353.9384, 144.8357
354.4205, 143.2402
354.9026, 97.97046
355.3847, 41.55322
355.8669, 13.41675
356.3490, 15.81030
356.8311, 24.64526
357.3132, 22.65894
357.7953, 15.20435
358.2774, 10.69604
358.7596, 8.547363
359.2417, 13.21606
359.7238, 33.06982
360.2059, 67.50854
360.6880, 95.58179
361.1701, 106.6763
361.6523, 105.7781
362.1344, 97.87622
362.6165, 73.35254
363.0986, 52.86108
363.5807, 45.04443
364.0628, 48.96411
364.5450, 55.55640
365.0271, 66.79443
365.5092, 77.01660
365.9913, 82.29834
366.4734, 74.64429
366.9555, 69.94214
367.4377, 73.65845
367.9198, 83.57715
368.4019, 88.74072
368.8840, 91.40161
369.3661, 86.97314
369.8482, 72.65210
370.3304, 22.98511
370.8125, 0.5986330
371.2946, 19.93750
371.7767, 66.12134
372.2588, 85.04590
372.7409, 56.77271
373.2230, 27.00586
373.7051, 14.86279
374.1873, 28.76855
374.6694, 37.84131
375.1515, 43.20508
375.6336, 43.15942
376.1157, 32.32690
376.5978, 4.803467
377.0800, 18.87817
377.5621, 30.71899
378.0442, 30.42896
378.5263, 21.45142
379.0084, 0.5573730
379.4905, 22.09155
379.9727, 19.57178
380.4548, 9.223145
380.9369, 26.63281
381.4190, 12.19897
381.9011, 24.52979
382.3832, 35.72583
382.8654, 18.56689
383.3475, 4.227295
383.8296, 9.661377
384.3117, 0.7036130
384.7938, 10.22534
385.2759, 21.14087
385.7581, 30.66528
386.2402, 37.10034
386.7223, 40.41504
387.2044, 38.53345
387.6865, 23.67871
388.1686, 3.723633
388.6508, 6.733154
389.1329, 0.2590330
389.6150, 10.59595
390.0971, 16.30371
390.5792, 16.96973
391.0613, 12.66528
391.5435, 1.864258
392.0256, 18.59497
392.5077, 31.07056
392.9898, 39.29419
393.4719, 40.66772
393.9540, 25.74170
394.4362, 3.154785
394.9183, 9.982666
395.4004, 1.723633
395.8825, 17.16748
396.3646, 29.01685
396.8467, 38.81787
397.3289, 35.35645
397.8110, 1.694092
398.2931, 48.02271
398.7752, 73.07275
399.2573, 49.27344
399.7394, 26.73706
400.2216, 17.26562
400.7037, 22.12671
401.1858, 28.76050
401.6679, 41.25293
402.1500, 52.65527
402.6321, 57.74414
403.1143, 59.40308
403.5964, 48.55811
404.0785, 14.49512
404.5606, 36.35645
405.0427, 53.92627
405.5248, 24.70020
406.0070, 12.27417
406.4891, 29.99048
406.9712, 26.27051
407.4533, 18.69238
407.9354, 6.401611
408.4175, 6.614746
408.8997, 9.110596
409.3818, 0.1152340
409.8639, 9.482178
410.3460, 11.95874
410.8281, 8.987549
411.3102, 11.00537
411.7924, 18.95264
412.2745, 30.26025
412.7566, 45.55542
413.2387, 62.63330
413.7208, 72.21069
414.2029, 62.00415
414.6851, 44.11865
415.1672, 38.03296
415.6493, 44.27490
416.1314, 55.10107
416.6135, 69.72705
417.0956, 83.51953
417.5778, 89.57373
418.0599, 82.47803
418.5420, 69.34155
419.0241, 50.27979
419.5062, 27.34839
419.9883, 11.96509
420.4705, 12.34473
420.9526, 21.11841
421.4347, 34.27710
421.9168, 59.69092
422.3989, 77.34717
422.8810, 75.95459
423.3632, 61.95459
423.8453, 52.63916
424.3274, 51.40869
424.8095, 55.17188
425.2916, 64.87964
425.7737, 89.92920
426.2559, 98.62500
426.7380, 76.92627
427.2201, 44.45361
427.7022, 29.28931
428.1843, 44.21875
428.6664, 55.91284
429.1486, 54.04297
429.6307, 37.94849
430.1128, 31.25244
430.5949, 37.00195
431.0770, 47.47656
431.5591, 57.85132
432.0413, 69.64746
432.5234, 70.60498
433.0055, 52.61450
433.4876, 25.59937
433.9697, 23.60596
434.4518, 48.07446
434.9340, 76.89209
435.4161, 98.35913
435.8982, 113.1836
436.3803, 122.1125
436.8624, 124.9082
437.3445, 123.4292
437.8267, 120.6755
438.3088, 116.1206
438.7909, 108.9990
439.2730, 99.11304
439.7551, 88.94922
440.2372, 79.15479
440.7194, 69.32520
441.2015, 66.48120
441.6836, 84.40063
442.1657, 110.9009
442.6478, 128.5076
443.1299, 122.2329
443.6121, 113.2339
444.0942, 113.0688
444.5763, 120.6094
445.0584, 124.4966
445.5405, 106.1125
446.0226, 92.15405
446.5048, 100.6658
446.9869, 174.1760
447.4690, 218.9165
447.9511, 213.0615
448.4332, 171.3655
448.9153, 133.2456
449.3975, 91.34814
449.8796, 60.85718
450.3617, 50.70288
450.8438, 68.30225
451.3259, 76.66284
451.8080, 72.02124
452.2902, 65.20923
452.7723, 71.15991
453.2544, 93.58179
453.7365, 106.9761
454.2186, 103.8469
454.7007, 86.57300
455.1828, 62.37061
455.6649, 30.74707
456.1471, 9.516113
456.6292, 23.67773
457.1113, 65.78027
457.5934, 96.24414
458.0755, 107.3875
458.5576, 106.0979
459.0398, 100.2495
459.5219, 90.07446
460.0040, 76.15698
460.4861, 50.11133
460.9682, 24.41260
461.4503, 16.54956
461.9325, 29.68506
462.4146, 45.13525
462.8967, 62.11548
463.3788, 77.44336
463.8609, 82.55762
464.3430, 51.34155
464.8252, 26.37085
465.3073, 34.34033
465.7894, 72.13965
466.2715, 97.26172
466.7536, 88.78418
467.2357, 72.53955
467.7179, 64.05054
468.2000, 73.99365
468.6821, 79.56079
469.1642, 80.48560
469.6463, 77.15210
470.1284, 68.94897
470.6106, 49.10596
471.0927, 35.10107
471.5748, 36.08887
472.0569, 55.44556
472.5390, 61.48706
473.0211, 48.51196
473.5033, 32.12231
473.9854, 32.48975
474.4675, 50.34473
474.9496, 70.75098
475.4317, 96.05347
475.9138, 117.7363
476.3960, 104.3303
476.8781, 56.21143
477.3602, 9.101074
477.8423, 7.382568
478.3244, 3.111084
478.8065, 0.2009280
479.2887, 3.759766
479.7708, 4.390625
480.2529, 11.55273
480.7350, 37.72607
481.2171, 59.71973
481.6992, 67.47241
482.1814, 70.58301
482.6635, 76.40820
483.1456, 85.61768
483.6277, 90.55737
484.1098, 86.37427
484.5919, 77.14917
485.0741, 66.33301
485.5562, 48.39136
486.0383, 36.16040
486.5204, 30.81274
487.0025, 32.49048
487.4846, 41.67725
487.9668, 67.60132
488.4489, 90.48975
488.9310, 101.2354
489.4131, 95.19775
489.8952, 93.47876
490.3773, 99.35718
490.8595, 105.5134
491.3416, 99.93872
491.8237, 80.93994
492.3058, 64.41821
492.7879, 55.58423
493.2701, 51.96289
493.7522, 41.49536
494.2343, 23.47461
494.7164, 11.47046
495.1985, 23.54468
495.6806, 50.10596
496.1628, 65.11011
496.6449, 62.65112
497.1270, 55.73486
497.6091, 56.64575
498.0912, 63.92212
498.5733, 74.02222
499.0555, 97.18555
499.5376, 114.2356
500.0197, 106.4062
500.5018, 71.18555
500.9839, 40.01685
501.4660, 22.95166
501.9482, 16.80103
502.4303, 18.70483
502.9124, 31.78247
503.3945, 47.80396
503.8766, 70.15918
504.3587, 96.44409
504.8409, 117.7227
505.3230, 137.7495
505.8051, 148.1631
506.2872, 140.2520
506.7693, 102.4487
507.2514, 95.72412
507.7336, 134.8291
508.2157, 184.9155
508.6978, 197.4058
509.1799, 168.4595
509.6620, 146.5618
510.1441, 145.4915
510.6263, 158.7681
511.1084, 168.7249
511.5905, 175.4636
512.0726, 183.1067
512.5547, 194.6895
513.0368, 207.7034
513.5189, 220.3838
514.0010, 233.4688
514.4832, 244.1140
514.9653, 249.4922
515.4474, 249.4590
515.9295, 246.3972
516.4116, 245.3784
516.8937, 238.0471
517.3759, 213.6462
517.8580, 173.3594
518.3401, 145.6216
518.8222, 146.1165
519.3043, 156.6724
519.7864, 166.0967
520.2686, 178.9031
520.7507, 182.7207
521.2328, 176.8127
521.7149, 162.1333
522.1970, 137.1538
522.6791, 89.85913
523.1613, 58.67261
523.6434, 62.04980
524.1255, 98.03296
524.6076, 114.6602
525.0897, 108.1948
525.5718, 96.30493
526.0540, 96.37402
526.5361, 106.6843
527.0182, 113.5645
527.5003, 112.7415
527.9824, 109.0813
528.4645, 112.1655
528.9467, 118.7683
529.4288, 117.3882
529.9109, 91.60474
530.3930, 60.89282
530.8751, 45.29614
531.3572, 46.46094
531.8394, 49.31567
532.3215, 42.84937
532.8036, 35.59546
533.2857, 35.47827
533.7678, 55.60889
534.2499, 70.47412
534.7321, 69.56177
535.2142, 58.65625
535.6963, 57.64478
536.1784, 83.66919
536.6605, 101.6453
537.1426, 96.67065
537.6248, 64.64404
538.1069, 41.23901
538.5890, 26.23145
539.0711, 19.07861
539.5532, 22.13745
540.0353, 36.24438
540.5175, 45.40112
540.9996, 45.65015
541.4817, 40.42773
541.9638, 34.94312
542.4459, 29.47339
542.9280, 27.02539
543.4102, 32.99634
543.8923, 41.63550
544.3744, 42.26099
544.8565, 33.47070
545.3386, 28.14673
545.8207, 43.88403
546.3029, 64.89722
546.7850, 72.93628
547.2671, 40.23706
547.7492, 17.21021
548.2313, 31.65259
548.7134, 71.22363
549.1956, 93.75098
549.6777, 77.02563
550.1598, 57.03613
550.6419, 47.83765
551.1240, 54.15356
551.6061, 47.60132
552.0883, 18.22900
552.5704, 11.68506
553.0525, 16.47607
553.5346, 8.757813
554.0167, 26.60107
554.4988, 27.99048
554.9810, 21.72119
555.4631, 31.51855
555.9452, 56.65161
556.4273, 73.45508
556.9094, 63.08447
557.3915, 37.12280
557.8737, 13.56470
558.3558, 6.919189
558.8379, 20.96680
559.3200, 24.90381
559.8021, 21.27588
560.2842, 12.93237
560.7664, 5.729492
561.2485, 20.84961
561.7306, 27.11646
562.2127, 25.71069
562.6948, 19.74658
563.1769, 4.341553
563.6591, 19.16553
564.1412, 12.68604
564.6233, 18.64062
565.1054, 43.64282
565.5875, 62.04932
566.0696, 74.31763
566.5518, 81.50415
567.0339, 84.08179
567.5160, 76.97339
567.9981, 56.56250
568.4802, 30.30542
568.9623, 9.444336
569.4445, 5.845947
569.9266, 12.97900
570.4087, 3.714355
570.8908, 11.96460
571.3729, 13.18628
571.8550, 0.5893550
572.3372, 6.179443
572.8193, 18.43115
573.3014, 50.77466
573.7835, 64.28076
574.2656, 43.07617
574.7477, 22.81323
575.2299, 18.42432
575.7120, 23.42969
576.1941, 26.59155
576.6762, 19.43726
577.1583, 17.69336
577.6404, 28.41333
578.1226, 50.83496
578.6047, 60.56519
579.0868, 52.01855
579.5689, 40.81201
580.0510, 34.67603
580.5331, 33.06885
581.0153, 49.34082
581.4974, 91.74341
581.9795, 131.4475
582.4616, 119.2231
582.9437, 65.70337
583.4258, 20.13525
583.9080, 2.723389
584.3901, 6.365479
584.8722, 16.04907
585.3543, 58.09644
585.8364, 89.82349
586.3185, 89.73511
586.8007, 76.47705
587.2828, 61.48608
587.7649, 44.68970
588.2470, 33.66748
588.7291, 31.30664
589.2112, 35.26880
589.6934, 43.65674
590.1755, 63.34131
590.6576, 76.78735
591.1397, 82.12280
591.6218, 80.29834
592.1039, 72.01685
592.5861, 54.42920
593.0682, 41.20996
593.5503, 40.85693
594.0324, 51.13623
594.5145, 54.93188
594.9966, 51.72070
595.4788, 47.72241
595.9609, 49.42847
596.4430, 54.29761
596.9251, 57.71118
597.4072, 59.25000
597.8893, 57.96729
598.3715, 49.38745
598.8536, 39.02002
599.3357, 34.02832
599.8178, 33.42285
600.2999, 41.21777
600.7820, 71.43604
601.2642, 122.1912
601.7463, 140.3542
602.2284, 90.00928
602.7105, 38.10254
603.1926, 18.66284
603.6747, 43.44800
604.1569, 60.86060
604.6390, 69.14941
605.1211, 72.91113
605.6032, 78.34546
606.0853, 85.46997
606.5674, 91.01929
607.0496, 95.87964
607.5317, 96.53540
608.0138, 77.82886
608.4959, 46.09839
608.9780, 29.98047
609.4601, 72.13770
609.9423, 121.6785
610.4244, 122.6162
610.9065, 70.57544
611.3886, 24.46631
611.8707, 1.218262
612.3528, 6.722412
612.8350, 8.349854
613.3171, 76.61523
613.7992, 119.1238
614.2813, 118.2974
614.7634, 96.14429
615.2455, 92.66870
615.7277, 118.2957
616.2098, 131.7773
616.6919, 116.5420
617.1740, 81.60547
617.6561, 69.59692
618.1382, 82.11597
618.6204, 97.17358
619.1025, 96.36279
619.5846, 86.79834
620.0667, 87.52905
620.5488, 101.6833
621.0309, 109.3396
621.5131, 85.93188
621.9952, 50.73657
622.4773, 27.17456
622.9594, 21.57959
623.4415, 27.49097
623.9236, 54.59106
624.4058, 91.97046
624.8879, 111.6064
625.3700, 98.89380
625.8521, 82.33105
626.3342, 67.03857
626.8163, 53.13379
627.2985, 44.18774
627.7806, 40.49878
628.2627, 42.06787
628.7448, 51.75391
629.2269, 67.68799
629.7090, 71.48535
630.1912, 59.27246
630.6733, 45.29492
631.1554, 45.27173
631.6375, 53.95532
632.1196, 59.65918
632.6017, 53.15747
633.0839, 48.88110
633.5660, 61.16699
634.0481, 84.46802
634.5302, 102.0332
635.0123, 107.2227
635.4944, 107.3984
635.9766, 105.4019
636.4587, 101.5442
636.9408, 91.98706
637.4229, 69.05933
637.9050, 50.18091
638.3871, 50.56152
638.8693, 74.30566
639.3514, 86.17212
639.8335, 81.60205
640.3156, 71.51636
640.7977, 74.73901
641.2798, 87.10791
641.7620, 86.33716
642.2441, 54.63306
642.7262, 21.14575
643.2083, 26.46753
643.6904, 58.86719
644.1725, 80.57959
644.6547, 59.46143
645.1368, 34.20972
645.6189, 28.09961
646.1010, 44.32227
646.5831, 57.43359
647.0652, 61.77466
647.5474, 63.30005
648.0295, 65.69043
648.5116, 71.28101
648.9937, 70.21094
649.4758, 58.58325
649.9579, 46.09131
650.4401, 47.93555
650.9222, 63.49219
651.4043, 77.56665
651.8864, 86.47095
652.3685, 91.66016
652.8506, 97.48193
653.3328, 102.3013
653.8149, 99.66187
654.2970, 83.59424
654.7791, 60.91992
655.2612, 30.86987
655.7433, 5.833008
656.2255, 29.07495
656.7076, 29.29883
657.1897, 16.49316
657.6718, 5.973145
658.1539, 44.45435
658.6360, 71.79883
659.1182, 88.12891
659.6003, 93.23340
660.0824, 83.22754
660.5645, 56.51172
661.0466, 31.98926
661.5287, 10.48364
662.0108, 2.297852
662.4929, 12.99292
662.9750, 48.86475
663.4572, 73.45093
663.9393, 56.31250
664.4214, 30.69409
664.9035, 30.04346
665.3856, 51.86841
665.8677, 69.43872
666.3499, 70.72754
666.8320, 65.22339
667.3141, 56.95947
667.7962, 43.25391
668.2783, 36.23779
668.7604, 38.98608
669.2426, 45.36670
669.7247, 49.57520
670.2068, 51.12720
670.6889, 53.67505
671.1710, 57.40649
671.6531, 61.33276
672.1353, 64.01221
672.6174, 66.04956
673.0995, 67.80322
673.5816, 72.84937
674.0637, 73.38721
674.5458, 51.86548
675.0280, 15.50610
675.5101, 7.710938
675.9922, 3.833740
676.4743, 24.61719
676.9564, 43.79883
677.4385, 61.45801
677.9207, 70.10498
678.4028, 63.88916
678.8849, 55.03491
679.3670, 52.25635
679.8491, 57.78491
680.3312, 57.47729
680.8134, 48.92065
681.2955, 39.21973
681.7776, 40.78784
682.2597, 50.39990
682.7418, 50.74170
683.2239, 29.43408
683.7061, 10.38647
684.1882, 27.68237
684.6703, 68.52686
685.1524, 99.27783
685.6345, 101.5767
686.1166, 92.99097
686.5988, 74.80200
687.0809, 48.58765
687.5630, 33.21655
688.0451, 33.09644
688.5272, 39.72778
689.0093, 53.27783
689.4915, 75.92285
689.9736, 76.97632
690.4557, 50.50928
690.9378, 24.35156
691.4199, 32.59155
691.9020, 64.86401
692.3842, 76.54297
692.8663, 56.78467
693.3484, 33.61719
693.8305, 35.22314
694.3126, 50.86426
694.7947, 63.37671
695.2769, 66.92896
695.7590, 65.99829
696.2411, 59.43018
696.7232, 49.21338
697.2053, 41.18408
697.6874, 33.68530
698.1696, 31.10889
698.6517, 35.22729
699.1338, 45.44409
699.6159, 60.64087
700.0980, 83.05005
700.5801, 95.59082
701.0623, 80.88745
701.5444, 49.02490
702.0265, 26.72046
702.5086, 15.19385
702.9907, 8.407471
703.4728, 2.115967
703.9550, 2.030518
704.4371, 2.603271
704.9192, 0.1809080
705.4013, 7.736572
705.8834, 27.81323
706.3655, 49.64014
706.8477, 60.09961
707.3298, 55.43921
707.8119, 45.90381
708.2940, 29.43994
708.7761, 11.73169
709.2582, 7.688721
709.7404, 17.40698
710.2225, 24.79419
710.7046, 21.21143
711.1867, 13.33643
711.6688, 11.50586
712.1509, 15.53857
712.6331, 24.90479
713.1152, 54.81470
713.5973, 77.75488
714.0794, 65.08887
714.5615, 12.75024
715.0436, 16.69629
715.5258, 14.72974
716.0079, 49.59448
716.4900, 56.73730
716.9721, 24.47437
717.4542, 8.122314
717.9363, 11.02954
718.4185, 21.48828
718.9006, 28.25098
719.3827, 31.54810
719.8648, 32.27539
720.3469, 29.62427
720.8290, 27.90405
721.3112, 34.74927
721.7933, 45.52686
722.2754, 51.72998
722.7575, 49.20630
723.2396, 42.79907
723.7217, 28.45337
724.2039, 11.06934
724.6860, 7.263916
725.1681, 27.76562
725.6502, 45.71240
726.1323, 52.68921
726.6144, 50.70483
727.0966, 55.92065
727.5787, 69.61768
728.0608, 75.36426
728.5429, 58.72412
729.0250, 29.41040
729.5071, 5.805176
729.9893, 11.22021
730.4714, 16.89233
730.9535, 4.470947
731.4356, 32.04175
731.9177, 46.58691
732.3998, 42.13867
732.8820, 38.63525
733.3641, 42.20581
733.8462, 46.61328
734.3283, 44.72852
734.8104, 31.70630
735.2925, 30.78638
735.7747, 49.19336
736.2568, 70.46436
736.7389, 63.62695
737.2210, 34.09790
737.7031, 12.76904
738.1852, 11.76611
738.6674, 18.96875
739.1495, 25.16992
739.6316, 29.47266
740.1137, 29.75391
740.5958, 23.40820
741.0779, 14.59082
741.5601, 0.3889160
742.0422, 18.81201
742.5243, 19.95923
743.0064, 6.630615
743.4885, 32.82642
743.9706, 49.30005
744.4528, 56.78540
744.9349, 55.94653
745.4170, 46.27490
745.8991, 36.84277
746.3812, 34.73730
746.8633, 37.52930
747.3455, 42.75708
747.8276, 50.49170
748.3097, 56.29272
748.7918, 55.92847
749.2739, 53.60864
749.7560, 53.52197
750.2382, 61.98779
750.7203, 59.72217
751.2024, 34.88208
751.6845, 10.09521
752.1666, 13.99951
752.6487, 51.60327
753.1309, 76.58765
753.6130, 80.23950
754.0951, 74.41089
754.5772, 76.71265
755.0593, 83.38989
755.5414, 83.78003
756.0236, 68.52417
756.5057, 52.42847
756.9878, 46.39746
757.4699, 47.43066
757.9520, 48.75928
758.4341, 47.24878
758.9163, 47.48853
759.3984, 53.66187
759.8805, 62.95703
760.3626, 59.08643
760.8447, 37.64062
761.3268, 21.91699
761.8090, 27.93848
762.2911, 45.53223
762.7732, 43.90381
763.2553, 25.11987
763.7374, 9.755859
764.2195, 17.76172
764.7017, 31.65308
765.1838, 32.57861
765.6659, 17.84741
766.1480, 12.26611
766.6301, 34.93604
767.1122, 59.13354
767.5944, 69.04346
768.0765, 60.69287
768.5586, 51.90210
769.0407, 41.68872
769.5228, 33.33105
770.0049, 30.09326
770.4871, 31.46411
770.9692, 35.52026
771.4513, 42.37524
771.9334, 49.78564
772.4155, 56.85352
772.8976, 62.08447
773.3798, 65.37427
773.8619, 58.36768
774.3440, 59.30542
774.8261, 87.85205
775.3082, 121.7949
775.7903, 126.0901
776.2725, 85.37573
776.7546, 54.36011
777.2367, 42.99390
777.7188, 44.94897
778.2009, 50.98315
778.6830, 59.92847
779.1652, 64.66138
779.6473, 60.15259
780.1294, 52.59106
780.6115, 47.61743
781.0936, 44.91479
781.5757, 43.57690
782.0579, 47.69702
782.5400, 48.70703
783.0221, 41.83301
783.5042, 28.60083
783.9863, 15.04883
784.4684, 3.041748
784.9506, 10.13916
785.4327, 6.210205
785.9148, 38.28662
786.3969, 52.65112
786.8790, 49.59985
787.3611, 37.87695
787.8433, 11.59058
788.3254, 13.43018
788.8075, 16.04053
789.2896, 4.155273
789.7717, 21.72314
790.2538, 26.95215
790.7360, 26.69434
791.2181, 22.85645
791.7002, 13.46484
792.1823, 11.75537
792.6644, 19.27246
793.1465, 30.76733
793.6287, 44.25244
794.1108, 58.40332
794.5929, 64.91870
795.0750, 62.51245
795.5571, 57.68164
796.0392, 57.02441
796.5214, 56.85400
797.0035, 51.41113
797.4856, 32.66699
797.9677, 24.38062
798.4498, 49.95410
798.9319, 78.15674
799.4141, 73.76440
799.8962, 20.14819
800.3783, 9.345947
800.8604, 3.102783
801.3425, 20.06201
801.8246, 41.49731
802.3068, 58.83838
802.7889, 61.48389
803.2710, 39.41797
803.7531, 16.81958
804.2352, 16.46313
804.7173, 28.03174
805.1995, 34.80371
805.6816, 25.45801
806.1637, 19.10498
806.6458, 18.35449
807.1279, 23.62622
807.6100, 35.45166
808.0922, 56.04150
808.5743, 63.49365
809.0564, 46.83813
809.5385, 19.80664
810.0206, 7.578613
810.5027, 7.591309
810.9849, 11.07593
811.4670, 3.155518
811.9491, 7.194580
812.4312, 55.88257
812.9133, 132.2844
813.3954, 170.2419
813.8776, 134.5732
814.3597, 92.09009
814.8418, 53.11987
815.3239, 20.93091
815.8060, 14.58081
816.2881, 35.54858
816.7703, 54.00562
817.2524, 53.36060
817.7345, 40.84937
818.2166, 22.47363
818.6987, 1.364258
819.1808, 8.271973
819.6630, 14.11255
820.1451, 36.85083
820.6272, 39.05371
821.1093, 19.49048
821.5914, 14.13696
822.0735, 31.28711
822.5557, 47.62183
823.0378, 51.09595
823.5199, 43.42896
824.0020, 35.64404
824.4841, 27.80469
824.9662, 28.28442
825.4483, 54.68433
825.9304, 86.02002
826.4125, 96.45557
826.8947, 84.39307
827.3768, 68.84570
827.8589, 46.03687
828.3410, 31.07129
828.8231, 36.24219
829.3052, 66.94507
829.7874, 71.36182
830.2695, 41.46875
830.7516, 9.846436
831.2337, 5.762207
831.7158, 20.72632
832.1979, 25.63794
832.6801, 18.48486
833.1622, 16.84595
833.6443, 48.66235
834.1264, 81.84424
834.6085, 84.92065
835.0906, 41.01733
835.5728, 16.55933
836.0549, 28.03662
836.5370, 46.75049
837.0191, 50.25806
837.5012, 36.47217
837.9833, 42.42578
838.4655, 72.67554
838.9476, 99.75244
839.4297, 87.01074
839.9118, 56.73047
840.3939, 48.94946
840.8760, 75.82446
841.3582, 91.99902
841.8403, 52.21924
842.3224, 7.285156
842.8045, 4.113770
843.2866, 73.57788
843.7687, 109.0742
844.2509, 103.7358
844.7330, 78.45923
845.2151, 47.49121
845.6972, 13.82666
846.1793, 10.56177
846.6614, 23.77710
847.1436, 21.08496
847.6257, 16.87354
848.1078, 62.97681
848.5899, 84.83740
849.0720, 64.10278
849.5541, 46.56494
850.0363, 37.49414
850.5184, 34.49805
851.0005, 36.36792
851.4826, 43.60474
851.9647, 51.64771
852.4468, 60.71509
852.9290, 68.07520
853.4111, 71.10034
853.8932, 70.05444
854.3753, 64.05640
854.8574, 50.17627
855.3395, 40.08789
855.8217, 45.19165
856.3038, 53.66992
856.7859, 52.32422
857.2680, 34.29199
857.7501, 20.97754
858.2322, 11.14819
858.7144, 8.305176
859.1965, 21.96729
859.6786, 45.97949
860.1607, 54.28540
860.6428, 41.05835
861.1249, 23.29590
861.6071, 10.06152
862.0892, 2.680420
862.5713, 3.569824
863.0534, 24.43726
863.5355, 31.58960
864.0176, 10.39868
864.4998, 13.56909
864.9819, 11.12964
865.4640, 20.00854
865.9461, 38.55298
866.4282, 38.92065
866.9103, 31.25073
867.3925, 23.30811
867.8746, 16.03760
868.3567, 11.22607
868.8388, 9.740723
869.3209, 9.300537
869.8030, 5.471436
870.2852, 5.317627
870.7673, 18.92139
871.2494, 59.82275
871.7315, 71.32617
872.2136, 42.87964
872.6957, 8.698242
873.1779, 14.21509
873.6600, 45.62866
874.1421, 60.33716
874.6242, 49.40137
875.1063, 31.73901
875.5884, 13.55005
876.0706, 0.9165040
876.5527, 7.608643
877.0348, 1.744141
877.5169, 5.022217
877.9990, 13.17749
878.4811, 19.37354
878.9633, 18.69873
879.4454, 11.95532
879.9275, 9.705078
880.4096, 13.11548
880.8917, 18.63501
881.3738, 23.98755
881.8560, 29.22485
882.3381, 35.55225
882.8202, 45.73926
883.3023, 48.34839
883.7844, 31.42114
884.2665, 15.20972
884.7487, 16.75708
885.2308, 40.25952
885.7129, 45.03345
886.1950, 27.78076
886.6771, 6.951172
887.1592, 3.927002
887.6414, 5.732178
888.1235, 3.480469
888.6056, 25.02466
889.0877, 42.31543
889.5698, 48.62671
890.0519, 47.40894
890.5341, 38.15820
891.0162, 17.01953
891.4983, 15.17554
891.9804, 37.82642
892.4625, 60.20776
892.9446, 58.30859
893.4268, 41.74316
893.9089, 35.58228
894.3910, 41.22339
894.8731, 51.30127
895.3552, 71.29004
895.8373, 86.39551
896.3195, 82.29907
896.8016, 53.89453
897.2837, 44.18433
897.7658, 64.86206
898.2479, 79.26025
898.7300, 56.28833
899.2122, 7.929932
899.6943, 2.862549
900.1764, 21.49609
900.6585, 51.07446
901.1406, 74.98267
901.6227, 88.81519
902.1049, 83.76758
902.5870, 60.66260
903.0691, 45.68066
903.5512, 45.59863
904.0333, 45.82251
904.5154, 41.10352
904.9976, 33.65698
905.4797, 32.52197
905.9618, 35.84595
906.4439, 39.46899
906.9260, 39.05981
907.4081, 39.25293
907.8903, 46.76074
908.3724, 59.36621
908.8545, 67.81128
909.3366, 69.71338
909.8187, 66.31787
910.3008, 55.65063
910.7830, 40.67554
911.2651, 31.44067
911.7472, 28.02979
912.2293, 28.16260
912.7114, 32.36523
913.1935, 37.29736
913.6757, 39.29004
914.1578, 38.33350
914.6399, 34.22070
915.1220, 25.21826
915.6041, 14.81641
916.0862, 0.3261720
916.5684, 14.37720
917.0505, 13.82446
917.5326, 3.073730
918.0147, 16.03784
918.4968, 19.01929
918.9789, 19.60083
919.4611, 28.41455
919.9432, 42.33887
920.4253, 56.16748
920.9074, 71.37964
921.3895, 81.23535
921.8716, 81.49707
922.3538, 75.26587
922.8359, 66.46143
923.3180, 53.20117
923.8001, 53.57764
924.2822, 72.99463
924.7643, 93.12183
925.2465, 91.45898
925.7286, 74.42065
926.2107, 48.93823
926.6928, 10.48413
927.1749, 10.80811
927.6570, 12.05933
928.1392, 47.87500
928.6213, 70.45898
929.1034, 76.91772
929.5855, 84.08716
930.0676, 93.57861
930.5497, 96.54395
931.0319, 74.79858
931.5140, 44.30054
931.9961, 44.42627
932.4782, 77.75049
932.9603, 100.3059
933.4424, 76.14819
933.9246, 45.57642
934.4067, 35.68091
934.8888, 48.00366
935.3709, 44.03760
935.8530, 17.22852
936.3351, 1.031494
936.8173, 13.78882
937.2994, 47.46338
937.7815, 69.66382
938.2636, 80.70044
938.7457, 82.58765
939.2278, 64.64722
939.7100, 48.99121
940.1921, 52.03613
940.6742, 67.29321
941.1563, 66.71143
941.6384, 44.03955
942.1205, 30.18701
942.6027, 38.97266
943.0848, 55.28467
943.5669, 47.73608
944.0490, 24.85425
944.5311, 8.893066
945.0132, 16.56226
945.4954, 24.71411
945.9775, 22.24194
946.4596, 15.29199
946.9417, 15.35181
947.4238, 24.86890
947.9059, 33.22290
948.3881, 39.77197
948.8702, 42.71045
949.3523, 35.28833
949.8344, 23.24951
950.3165, 19.93872
950.7986, 31.45117
951.2808, 41.71899
951.7629, 42.82104
952.2450, 39.84326
952.7271, 36.69385
953.2092, 31.38281
953.6913, 35.16113
954.1735, 50.42480
954.6556, 64.59692
955.1377, 62.28125
955.6198, 52.23560
956.1019, 52.13721
956.5840, 63.15088
957.0662, 73.12378
957.5483, 78.69116
958.0304, 79.27124
958.5125, 72.27466
958.9946, 58.49878
959.4767, 49.15381
959.9589, 44.74927
960.4410, 43.16309
960.9231, 46.75000
961.4052, 50.33203
961.8873, 40.35059
962.3694, 21.75635
962.8516, 11.62256
963.3337, 18.25830
963.8158, 34.16846
964.2979, 68.75049
964.7800, 107.1204
965.2621, 110.3523
965.7443, 73.64844
966.2264, 43.63306
966.7085, 29.98193
967.1906, 31.35547
967.6727, 65.21265
968.1548, 107.6633
968.6370, 115.7734
969.1191, 41.22632
969.6012, 7.945557
970.0833, 7.025391
970.5654, 42.06592
971.0475, 57.31299
971.5297, 51.76465
972.0118, 44.69556
972.4939, 37.07935
972.9760, 31.06299
973.4581, 30.22437
973.9402, 31.09644
974.4224, 29.36255
974.9045, 24.92090
975.3866, 20.09912
975.8687, 9.537109
976.3508, 4.573975
976.8329, 13.29199
977.3151, 33.36865
977.7972, 41.30029
978.2793, 37.84692
978.7614, 34.61255
979.2435, 39.57202
979.7256, 47.02563
980.2078, 57.18970
980.6899, 66.95093
981.1720, 62.10522
981.6541, 21.85400
982.1362, 0.8686520
982.6183, 10.48828
983.1005, 37.86279
983.5826, 39.08008
984.0647, 21.07446
984.5468, 16.47241
985.0289, 41.64600
985.5110, 67.24585
985.9932, 72.97852
986.4753, 66.36670
986.9574, 55.97534
987.4395, 39.16113
987.9216, 26.70435
988.4037, 18.88086
988.8859, 15.06470
989.3680, 17.65381
989.8500, 23.50439
990.3322, 21.98071
990.8143, 12.13232
991.2964, 8.171631
991.7785, 28.32446
992.2606, 47.34692
992.7427, 45.87842
993.2249, 25.51099
993.7070, 25.80493
994.1891, 51.74707
994.6712, 68.90308
995.1533, 54.19653
995.6354, 25.24390
996.1176, 7.288818
996.5997, 0.1108400
997.0818, 1.678467
997.5639, 29.47314
998.0460, 44.58716
998.5281, 30.89233
999.0103, 3.998047
999.4924, 12.57178
999.9745, 18.54321
1000.457, 5.871094
1000.939, 29.99292
1001.421, 64.67627
1001.903, 75.26782
1002.385, 71.00781
1002.867, 60.98047
1003.349, 40.39746
1003.831, 34.47827
1004.314, 53.25366
1004.796, 73.68286
1005.278, 79.64258
1005.760, 70.27734
1006.242, 49.78906
1006.724, 19.45312
1007.206, 1.383301
1007.688, 8.977051
1008.170, 25.06079
1008.653, 30.44531
1009.135, 25.82251
1009.617, 22.88501
1010.099, 20.71265
1010.581, 23.45801
1011.063, 34.89526
1011.545, 48.21533
1012.027, 50.08423
1012.510, 43.67358
1012.992, 36.64648
1013.474, 31.32959
1013.956, 26.56470
1014.438, 23.36157
1014.920, 19.54395
1015.402, 11.36255
1015.884, 2.616699
1016.366, 5.910645
1016.849, 1.833008
1017.331, 11.31250
1017.813, 13.86475
1018.295, 12.65430
1018.777, 9.417725
1019.259, 4.345215
1019.741, 6.166016
1020.223, 23.12036
1020.706, 38.02637
1021.188, 45.67944
1021.670, 46.31470
1022.152, 35.27734
1022.634, 15.44580
1023.116, 5.772949
1023.598, 19.68799
1024.080, 41.38184
1024.563, 71.59302
1025.045, 99.53735
1025.527, 101.7610
1026.009, 58.95142
1026.491, 46.95581
1026.973, 82.12769
1027.455, 121.2478
1027.937, 101.7820
1028.419, 50.46704
1028.901, 26.54248
1029.384, 40.73853
1029.866, 53.25562
1030.348, 46.02319
1030.830, 32.87329
1031.312, 16.91235
1031.794, 0.2978520
1032.276, 10.45166
1032.758, 46.97559
1033.241, 81.68823
1033.723, 103.6982
1034.205, 111.4937
1034.687, 92.32593
1035.169, 58.48193
1035.651, 41.52954
1036.133, 69.21704
1036.615, 77.91943
1037.098, 54.57471
1037.580, 19.79370
1038.062, 1.227783
1038.544, 7.679199
1039.026, 6.673584
1039.508, 47.25928
1039.990, 75.56470
1040.472, 53.99951
1040.954, 22.56812
1041.437, 10.21265
1041.919, 17.86157
1042.401, 32.85327
1042.883, 56.61304
1043.365, 76.26025
1043.847, 86.90625
1044.329, 86.70703
1044.811, 63.64404
1045.293, 27.10840
1045.776, 4.857178
1046.258, 21.30859
1046.740, 31.43311
1047.222, 26.09717
1047.704, 14.34644
1048.186, 7.582764
1048.668, 6.017578
1049.150, 11.04565
1049.633, 24.19897
1050.115, 36.32886
1050.597, 38.55444
1051.079, 38.44043
1051.561, 43.74805
1052.043, 56.41357
1052.525, 61.99536
1053.007, 60.39380
1053.490, 55.02734
1053.972, 43.14478
1054.454, 31.49219
1054.936, 35.79834
1055.418, 50.67773
1055.900, 59.48877
1056.382, 57.30469
1056.864, 46.13306
1057.346, 17.03149
1057.828, 11.91797
1058.311, 7.101807
1058.793, 27.34839
1059.275, 56.57373
1059.757, 75.12573
1060.239, 84.64453
1060.721, 88.15332
1061.203, 81.80688
1061.685, 52.71387
1062.168, 4.781006
1062.650, 13.39697
1063.132, 39.01733
1063.614, 86.38770
1064.096, 88.62720
1064.578, 68.07031
1065.060, 65.88550
1065.542, 74.48193
1066.025, 72.91431
1066.507, 30.64478
1066.989, 9.906006
1067.471, 31.97998
1067.953, 66.36206
1068.435, 68.12061
1068.917, 42.14551
1069.399, 26.34717
1069.881, 26.02637
1070.364, 31.25122
1070.846, 41.42090
1071.328, 49.00854
1071.810, 47.25024
1072.292, 36.10132
1072.774, 21.71411
1073.256, 1.366211
1073.738, 7.551270
1074.220, 8.905029
1074.703, 34.46899
1075.185, 44.31226
1075.667, 42.64014
1076.149, 38.09473
1076.631, 23.72241
1077.113, 21.34473
1077.595, 38.83569
1078.077, 60.23169
1078.559, 68.37305
1079.042, 65.36572
1079.524, 61.52783
1080.006, 57.64355
1080.488, 54.92505
1080.970, 56.29810
1081.452, 57.24292
1081.934, 55.15210
1082.416, 50.29932
1082.899, 41.87793
1083.381, 28.90820
1083.863, 21.96680
1084.345, 26.41284
1084.827, 34.80371
1085.309, 40.08057
1085.791, 42.30444
1086.273, 41.05200
1086.755, 33.10034
1087.238, 28.57617
1087.720, 30.76147
1088.202, 30.37939
1088.684, 15.59839
1089.166, 7.197266
1089.648, 18.13599
1090.130, 17.60962
1090.612, 12.54224
1091.094, 1.357910
1091.577, 7.618164
1092.059, 9.657959
1092.541, 7.861816
1093.023, 8.089111
1093.505, 10.36938
1093.987, 20.00903
1094.469, 41.63916
1094.951, 55.95972
1095.434, 29.03223
1095.916, 4.380615
1096.398, 3.007568
1096.880, 47.89697
1097.362, 73.60913
1097.844, 68.67920
1098.326, 57.95264
1098.808, 56.02246
1099.291, 56.76489
1099.773, 43.28833
1100.255, 23.09253
1100.737, 16.61035
1101.219, 54.71509
1101.701, 72.59961
1102.183, 50.94580
1102.665, 19.84668
1103.147, 24.77002
1103.630, 55.72363
1104.112, 58.07715
1104.594, 25.68555
1105.076, 1.774902
1105.558, 5.838379
1106.040, 21.07373
1106.522, 28.10107
1107.004, 28.28662
1107.486, 32.07422
1107.969, 39.87793
1108.451, 37.58301
1108.933, 13.28857
1109.415, 8.605469
1109.897, 4.708008
1110.379, 33.61816
1110.861, 50.23389
1111.343, 43.36182
1111.826, 44.78564
1112.308, 59.23975
1112.790, 67.56396
1113.272, 49.57275
1113.754, 17.68311
1114.236, 9.114746
1114.718, 28.34277
1115.200, 32.96143
1115.682, 9.571289
1116.165, 14.81641
1116.647, 36.64551
1117.129, 54.32031
1117.611, 68.35791
1118.093, 77.55908
1118.575, 72.93066
1119.057, 50.75488
1119.539, 34.14209
1120.021, 39.58740
1120.504, 52.37744
1120.986, 68.62793
1121.468, 85.55518
1121.950, 78.52588
1122.432, 47.38037
1122.914, 28.92090
1123.396, 51.22168
1123.878, 76.19482
1124.361, 57.74805
1124.843, 22.35693
1125.325, 15.91943
1125.807, 63.06885
1126.289, 77.22021
1126.771, 48.90723
1127.253, 21.66211
1127.735, 41.51221
1128.218, 81.50879
1128.700, 103.1421
1129.182, 106.1860
1129.664, 102.5371
1130.146, 83.97363
1130.628, 77.09229
1131.110, 90.86963
1131.592, 111.5879
1132.074, 114.8540
1132.557, 106.3340
1133.039, 105.4160
1133.521, 117.3867
1134.003, 126.4443
1134.485, 119.1821
1134.967, 113.8091
1135.449, 122.5840
1135.931, 141.9087
1136.413, 148.2969
1136.896, 142.2900
1137.378, 128.6655
1137.860, 99.46582
1138.342, 77.57910
1138.824, 84.62402
1139.306, 103.3555
1139.788, 109.2388
1140.270, 97.62109
1140.753, 98.67090
1141.235, 113.8696
1141.717, 133.0391
1142.199, 160.6606
1142.681, 178.6958
1143.163, 158.8774
1143.645, 110.8706
1144.127, 88.48828
1144.609, 100.8730
1145.092, 119.6621
1145.574, 142.2227
1146.056, 161.3379
1146.538, 166.0820
1147.020, 160.1621
1147.502, 148.1826
1147.984, 130.0044
1148.466, 120.1626
1148.948, 119.8745
1149.431, 130.4053
1149.913, 160.1597
1150.395, 194.0181
1150.877, 180.9668
1151.359, 138.6113
1151.841, 116.9248
1152.323, 149.8481
1152.805, 176.1465
1153.288, 177.8848
1153.770, 169.1816
1154.252, 160.0264
1154.734, 151.2300
1155.216, 144.5620
1155.698, 140.3237
1156.180, 141.4697
1156.662, 162.5884
1157.145, 175.5229
1157.627, 155.4556
1158.109, 123.1411
1158.591, 112.8906
1159.073, 124.8052
1159.555, 137.9355
1160.037, 149.9287
1160.519, 158.6338
1161.001, 158.8569
1161.484, 158.1333
1161.966, 161.2119
1162.448, 168.6064
1162.930, 187.5000
1163.412, 222.3872
1163.894, 234.5918
1164.376, 205.2104
1164.858, 162.7778
1165.340, 134.5103
1165.823, 116.5015
1166.305, 104.4536
1166.787, 99.76807
1167.269, 103.2466
1167.751, 118.9961
1168.233, 132.9453
1168.715, 134.1450
1169.197, 130.1919
1169.680, 132.6421
1170.162, 139.5840
1170.644, 146.6260
1171.126, 162.0850
1171.608, 158.8086
1172.090, 126.4834
1172.572, 93.77246
1173.054, 97.59375
1173.536, 123.6113
1174.019, 138.8184
1174.501, 143.0654
1174.983, 139.6646
1175.465, 118.8291
1175.947, 105.1055
1176.429, 104.4048
1176.911, 111.6899
1177.393, 120.2842
1177.875, 129.5195
1178.358, 139.7480
1178.840, 151.8164
1179.322, 150.9595
1179.804, 112.8584
1180.286, 82.49805
1180.768, 81.69434
1181.250, 101.7505
1181.732, 115.9375
1182.215, 123.9722
1182.697, 123.9585
1183.179, 110.3662
1183.661, 100.5845
1184.143, 116.7827
1184.625, 127.5205
1185.107, 101.2363
1185.589, 40.62305
1186.072, 21.29150
1186.554, 39.92822
1187.036, 64.53516
1187.518, 82.20459
1188.000, 94.41016
1188.482, 100.3936
1188.964, 102.1396
1189.446, 104.2803
1189.928, 107.4199
1190.411, 91.32471
1190.893, 53.71338
1191.375, 23.90820
1191.857, 25.17383
1192.339, 40.61035
1192.821, 66.25879
1193.303, 95.80664
1193.785, 112.6196
1194.267, 116.5552
1194.750, 107.4287
1195.232, 83.39258
1195.714, 56.82715
1196.196, 33.58496
1196.678, 17.60693
1197.160, 15.17480
1197.642, 25.82812
1198.124, 36.87744
1198.607, 49.56641
1199.089, 51.62207
1199.571, 34.27686
1200.053, 14.82031
1200.535, 12.50293
1201.017, 19.25098
1201.499, 25.15430
1201.981, 28.16602
1202.464, 36.40137
1202.946, 51.28223
1203.428, 60.74512
1203.910, 52.60938
1204.392, 40.19531
1204.874, 43.12061
1205.356, 53.05908
1205.838, 51.85693
1206.320, 28.04053
1206.802, 20.13379
1207.285, 32.78809
1207.767, 44.80811
1208.249, 31.56494
1208.731, 11.97803
1209.213, 10.05762
1209.695, 23.49219
1210.177, 40.26514
1210.659, 63.99463
1211.142, 76.28223
1211.624, 72.72168
1212.106, 64.82324
1212.588, 68.50146
1213.070, 74.32764
1213.552, 65.84424
1214.034, 42.83496
1214.516, 32.11475
1214.999, 41.49365
1215.481, 47.84912
1215.963, 45.18750
1216.445, 37.88770
1216.927, 26.88770
1217.409, 18.32959
1217.891, 24.42920
1218.373, 50.79541
1218.855, 65.56445
1219.338, 65.16602
1219.820, 57.27148
1220.302, 42.45020
1220.784, 25.61035
1221.266, 17.75684
1221.748, 13.65479
1222.230, 1.857910
1222.712, 33.81396
1223.194, 36.77881
1223.677, 7.832031
1224.159, 50.79395
1224.641, 59.93750
1225.123, 48.01416
1225.605, 27.44678
1226.087, 6.112793
1226.569, 2.601563
1227.051, 49.85205
1227.534, 69.44092
1228.016, 51.25146
1228.498, 26.75586
1228.980, 28.96875
1229.462, 40.07275
1229.944, 16.97021
1230.426, 28.29492
1230.908, 41.63965
1231.391, 20.21582
1231.873, 64.11768
1232.355, 80.20361
1232.837, 77.46484
1233.319, 57.56641
1233.801, 30.22021
1234.283, 10.91748
1234.765, 0.3247070
1235.247, 8.498047
1235.729, 20.73730
1236.212, 22.28955
1236.694, 7.110352
1237.176, 12.28564
1237.658, 20.57227
1238.140, 20.30762
1238.622, 11.33838
1239.104, 7.371094
1239.586, 9.973145
1240.068, 12.03076
1240.551, 32.19141
1241.033, 42.60889
1241.515, 45.22998
1241.997, 25.95215
1242.479, 8.506836
1242.961, 41.89258
1243.443, 160.5459
1243.925, 197.9707
1244.408, 120.4834
1244.890, 50.18701
1245.372, 49.24072
1245.854, 77.94775
1246.336, 72.82959
1246.818, 50.60107
1247.300, 39.90723
1247.782, 54.28027
1248.265, 59.92627
1248.747, 54.06299
1249.229, 49.62305
1249.711, 60.57471
1250.193, 73.01514
1250.675, 63.64307
1251.157, 41.88232
1251.639, 27.63867
1252.121, 24.04297
1252.604, 28.28516
1253.086, 41.84717
1253.568, 55.74170
1254.050, 63.55713
1254.532, 67.64307
1255.014, 71.90820
1255.496, 74.60596
1255.978, 70.15967
1256.460, 57.10498
1256.943, 41.49951
1257.425, 23.00977
1257.907, 9.060059
1258.389, 6.386719
1258.871, 11.47656
1259.353, 29.28174
1259.835, 52.34473
1260.317, 48.50244
1260.800, 9.265625
1261.282, 3.267090
1261.764, 23.41602
1262.246, 51.81055
1262.728, 43.26025
1263.210, 23.58838
1263.692, 12.90381
1264.174, 8.577637
1264.656, 4.690430
1265.139, 3.725586
1265.621, 10.31885
1266.103, 27.54248
1266.585, 43.98535
1267.067, 48.28857
1267.549, 49.57715
1268.031, 54.55273
1268.513, 61.95166
1268.995, 64.01904
1269.478, 58.24365
1269.960, 57.36523
1270.442, 68.44336
1270.924, 69.29883
1271.406, 34.87305
1271.888, 3.333008
1272.370, 5.923340
1272.852, 35.96094
1273.335, 49.91162
1273.817, 49.58203
1274.299, 51.14941
1274.781, 62.55127
1275.263, 71.21729
1275.745, 68.55664
1276.227, 62.88281
1276.709, 58.82275
1277.192, 56.18506
1277.674, 56.19678
1278.156, 57.33594
1278.638, 52.54150
1279.120, 24.00781
1279.602, 17.30859
1280.084, 61.87158
1280.566, 107.4165
1281.048, 113.8853
1281.531, 93.22852
1282.013, 92.26221
1282.495, 105.2231
1282.977, 112.7397
1283.459, 104.6831
1283.941, 93.33789
1284.423, 76.60352
1284.905, 63.79883
1285.387, 67.79541
1285.870, 79.22754
1286.352, 77.87646
1286.834, 66.39062
1287.316, 54.51123
1287.798, 30.56738
1288.280, 37.98682
1288.762, 91.09863
1289.244, 136.6240
1289.727, 106.0176
1290.209, 50.12256
1290.691, 35.84863
1291.173, 56.75098
1291.655, 77.41064
1292.137, 97.49609
1292.619, 104.0093
1293.101, 93.52979
1293.583, 81.79053
1294.066, 80.85596
1294.548, 87.95459
1295.030, 109.3159
1295.512, 136.3594
1295.994, 136.5889
1296.476, 106.0171
1296.958, 80.20508
1297.440, 63.54932
1297.922, 55.95703
1298.405, 61.71875
1298.887, 72.61377
1299.369, 86.16992
1299.851, 99.12988
1300.333, 106.8711
1300.815, 108.8032
1301.297, 84.29736
1301.779, 25.89258
1302.262, 4.947266
1302.744, 72.83398
1303.226, 141.7827
1303.708, 140.5688
1304.190, 62.91357
1304.672, 19.04785
1305.154, 0.0000000E+00
##END=



