##NAMES=Koenenite
##RRUFFID=R060989
##IDEAL CHEMISTRY=Na_4_Mg_9_Al_4_Cl_12_(OH)_22_
##LOCALITY=Grauer Salzton, Bergmannssegen Quarry, Lehrte, near Hannover, Germany
##OWNER=RRUFF
##SOURCE=Michael Scott
##DESCRIPTION=Aggregate of orange tabular crystals showing a micaceous cleavage.
##STATUS=The identification of this mineral has been confirmed only by single crystal X-ray diffraction.
##URL=rruff.info/R060989
140.8127, 0.0000000E+00
141.2948, 15.40796
141.7769, 2.601318
142.2591, 2.265137
142.7412, 11.98730
143.2233, 36.75183
143.7054, 69.24255
144.1875, 105.6079
144.6696, 145.6361
145.1518, 188.1962
145.6339, 229.2606
146.1160, 274.0381
146.5981, 328.5851
147.0802, 394.2416
147.5623, 465.1802
148.0445, 531.4028
148.5266, 589.7472
149.0087, 645.6127
149.4908, 707.6906
149.9729, 763.6940
150.4550, 799.9556
150.9371, 812.0647
151.4193, 806.2559
151.9014, 795.3687
152.3835, 771.9067
152.8656, 753.7107
153.3477, 749.4983
153.8298, 748.5649
154.3120, 736.4871
154.7941, 707.3578
155.2762, 668.1461
155.7583, 635.7659
156.2404, 614.3009
156.7225, 592.3842
157.2047, 564.4617
157.6868, 535.7891
158.1689, 515.1311
158.6510, 506.6346
159.1331, 505.6115
159.6152, 499.7988
160.0974, 482.1462
160.5795, 472.1888
161.0616, 483.6783
161.5437, 505.3116
162.0258, 514.3818
162.5079, 499.2549
162.9901, 471.1162
163.4722, 458.0286
163.9543, 464.8065
164.4364, 473.2438
164.9185, 475.7671
165.4007, 475.4673
165.8828, 480.7969
166.3649, 497.4633
166.8470, 518.2457
167.3291, 527.0442
167.8112, 520.7850
168.2934, 511.7369
168.7755, 504.7190
169.2576, 498.9092
169.7397, 492.2527
170.2218, 484.5870
170.7039, 474.6218
171.1861, 459.0908
171.6682, 434.6206
172.1503, 413.3197
172.6324, 403.8873
173.1145, 403.2186
173.5966, 399.7762
174.0788, 389.2494
174.5609, 373.4843
175.0430, 355.6427
175.5251, 333.8879
176.0072, 314.8813
176.4893, 303.9452
176.9714, 299.4976
177.4536, 294.1248
177.9357, 284.9312
178.4178, 273.7084
178.8999, 263.0292
179.3820, 252.3124
179.8641, 243.8804
180.3463, 240.3447
180.8284, 240.9354
181.3105, 240.8606
181.7926, 237.4561
182.2747, 233.7617
182.7568, 234.0981
183.2390, 239.3069
183.7211, 244.9910
184.2032, 246.5242
184.6853, 245.6255
185.1674, 250.4492
185.6495, 267.3057
186.1317, 288.6194
186.6138, 302.4495
187.0959, 301.9042
187.5780, 299.6348
188.0601, 302.5913
188.5422, 309.9485
189.0244, 323.4015
189.5065, 347.3303
189.9886, 373.6361
190.4707, 390.2219
190.9528, 397.1688
191.4349, 412.3623
191.9171, 446.5132
192.3992, 497.7141
192.8813, 557.7953
193.3634, 629.3688
193.8455, 702.8212
194.3276, 769.8502
194.8098, 830.0999
195.2919, 887.2064
195.7740, 951.0132
196.2561, 1017.638
196.7382, 1059.107
197.2203, 1062.406
197.7025, 1045.103
198.1846, 1025.142
198.6667, 1000.993
199.1488, 970.3228
199.6309, 927.3452
200.1130, 874.7803
200.5951, 826.1400
201.0773, 781.7111
201.5594, 742.7637
202.0415, 711.3003
202.5236, 687.0466
203.0057, 663.6466
203.4878, 634.2242
203.9700, 599.9441
204.4521, 569.4987
204.9342, 541.4303
205.4163, 524.0535
205.8984, 530.2402
206.3805, 554.9240
206.8627, 571.3845
207.3448, 555.3988
207.8269, 516.3639
208.3090, 493.2466
208.7911, 498.7029
209.2732, 505.7493
209.7554, 497.0054
210.2375, 474.9624
210.7196, 446.0343
211.2017, 409.6504
211.6838, 369.3434
212.1659, 334.9392
212.6481, 309.4453
213.1302, 285.5743
213.6123, 257.3235
214.0944, 226.8016
214.5765, 199.0768
215.0586, 177.0452
215.5408, 159.3020
216.0229, 142.7616
216.5050, 128.3102
216.9871, 113.0973
217.4692, 92.98718
217.9513, 71.13733
218.4335, 53.39539
218.9156, 42.57410
219.3977, 37.72119
219.8798, 37.94495
220.3619, 44.68335
220.8440, 49.84827
221.3262, 47.43005
221.8083, 40.69031
222.2904, 33.31824
222.7725, 25.09204
223.2546, 17.79199
223.7367, 14.81146
224.2189, 16.93079
224.7010, 19.01392
225.1831, 18.08954
225.6652, 15.65955
226.1473, 13.85571
226.6294, 14.16797
227.1115, 13.61517
227.5937, 7.422058
228.0758, 4.881836
228.5579, 14.83160
229.0400, 16.56757
229.5221, 14.97388
230.0042, 16.47766
230.4864, 22.75543
230.9685, 30.00537
231.4506, 37.33734
231.9327, 44.37268
232.4148, 43.40265
232.8969, 25.20404
233.3791, 2.562500
233.8612, 6.525208
234.3433, 1.854614
234.8254, 9.849243
235.3075, 2.179932
235.7896, 17.80548
236.2718, 31.41034
236.7539, 31.50299
237.2360, 25.57477
237.7181, 23.72180
238.2002, 26.54688
238.6823, 27.24585
239.1645, 21.17834
239.6466, 10.25171
240.1287, 0.7386470
240.6108, 11.89258
241.0929, 20.74133
241.5750, 25.00525
242.0572, 25.09906
242.5393, 20.63428
243.0214, 5.438049
243.5035, 13.03461
243.9856, 19.38812
244.4677, 8.873901
244.9499, 3.364136
245.4320, 1.302185
245.9141, 12.85461
246.3962, 27.59076
246.8783, 43.19183
247.3604, 56.81366
247.8426, 64.07416
248.3247, 64.43463
248.8068, 63.04620
249.2889, 63.73206
249.7710, 66.20691
250.2531, 68.11945
250.7352, 71.30359
251.2174, 72.36676
251.6995, 68.06354
252.1816, 58.65778
252.6637, 46.55878
253.1458, 31.22290
253.6279, 14.82715
254.1101, 7.015381
254.5922, 14.94580
255.0743, 24.02405
255.5564, 28.12262
256.0385, 27.62219
256.5207, 23.04047
257.0028, 13.43750
257.4849, 1.210388
257.9670, 5.303467
258.4491, 8.5570998E-02
258.9312, 1.100403
259.4134, 13.62915
259.8955, 34.30328
260.3776, 41.36737
260.8597, 26.36237
261.3418, 0.9862060
261.8239, 11.68219
262.3060, 6.900452
262.7881, 0.6814580
263.2703, 14.72003
263.7524, 28.40839
264.2345, 33.66107
264.7166, 28.58020
265.1987, 18.20728
265.6808, 8.735718
266.1630, 0.7874150
266.6451, 6.000732
267.1272, 0.3353880
267.6093, 4.712524
268.0914, 2.156250
268.5735, 20.15649
269.0557, 36.79285
269.5378, 38.82446
270.0199, 22.55444
270.5020, 18.39117
270.9841, 37.14093
271.4662, 54.98553
271.9484, 61.29694
272.4305, 57.81903
272.9126, 51.11334
273.3947, 45.48505
273.8768, 40.96912
274.3589, 37.74347
274.8411, 40.62000
275.3232, 39.47156
275.8053, 28.61877
276.2874, 13.32379
276.7695, 0.5650630
277.2516, 6.301331
277.7338, 7.570496
278.2159, 3.618286
278.6980, 11.09106
279.1801, 22.68207
279.6622, 26.37292
280.1443, 28.37469
280.6265, 34.32684
281.1086, 45.95422
281.5907, 60.90277
282.0728, 76.72382
282.5549, 96.35980
283.0370, 108.1710
283.5192, 103.5513
284.0013, 97.27802
284.4834, 101.4331
284.9655, 114.9644
285.4476, 124.1678
285.9297, 110.7304
286.4119, 71.96057
286.8940, 46.49646
287.3761, 42.47107
287.8582, 44.80414
288.3403, 47.59662
288.8224, 50.78259
289.3046, 55.33911
289.7867, 61.17297
290.2688, 69.38391
290.7509, 83.86853
291.2330, 106.7656
291.7151, 130.8768
292.1973, 154.0297
292.6794, 175.9804
293.1615, 196.8613
293.6436, 215.6360
294.1257, 234.1979
294.6078, 256.5045
295.0900, 283.2737
295.5721, 307.7468
296.0542, 323.1207
296.5363, 337.0715
297.0184, 360.0021
297.5005, 396.0255
297.9827, 430.5673
298.4648, 451.1956
298.9469, 460.0585
299.4290, 469.2098
299.9111, 484.0225
300.3932, 497.6682
300.8754, 502.2429
301.3575, 497.6848
301.8396, 486.9462
302.3217, 466.6054
302.8038, 441.9407
303.2859, 423.5603
303.7681, 413.8625
304.2502, 403.6050
304.7323, 382.1475
305.2144, 349.6808
305.6965, 324.3114
306.1786, 311.7335
306.6608, 303.1230
307.1429, 294.8921
307.6250, 285.7279
308.1071, 269.6400
308.5892, 240.4088
309.0714, 201.3311
309.5535, 176.5820
310.0356, 177.0401
310.5177, 176.4940
310.9998, 164.4618
311.4819, 146.6633
311.9640, 132.7769
312.4461, 127.0588
312.9283, 126.8015
313.4104, 126.0847
313.8925, 120.4991
314.3746, 121.3013
314.8567, 135.0468
315.3388, 150.4367
315.8210, 156.7260
316.3031, 153.7103
316.7852, 150.1929
317.2673, 156.6722
317.7494, 176.5943
318.2315, 190.3347
318.7137, 195.5152
319.1958, 200.4932
319.6779, 204.2378
320.1600, 208.3897
320.6421, 218.1226
321.1242, 238.3962
321.6064, 266.4822
322.0885, 284.7930
322.5706, 288.9121
323.0527, 291.1296
323.5348, 296.6688
324.0169, 301.5375
324.4991, 300.8428
324.9812, 292.2578
325.4633, 276.7678
325.9454, 254.7457
326.4275, 224.6646
326.9096, 196.9078
327.3918, 171.0663
327.8739, 150.7082
328.3560, 140.0309
328.8381, 139.5795
329.3202, 142.0842
329.8023, 144.3920
330.2845, 145.7776
330.7666, 141.5172
331.2487, 127.1017
331.7308, 114.6677
332.2129, 117.3715
332.6950, 130.8817
333.1772, 140.8710
333.6593, 140.4380
334.1414, 135.3837
334.6235, 133.5789
335.1056, 135.3212
335.5877, 134.1943
336.0699, 125.1766
336.5520, 111.5047
337.0341, 102.6941
337.5162, 102.1334
337.9983, 101.2413
338.4804, 95.29889
338.9626, 86.43707
339.4447, 79.12268
339.9268, 75.00238
340.4089, 72.73444
340.8910, 69.84845
341.3731, 64.70380
341.8553, 62.89569
342.3374, 67.23401
342.8195, 73.26361
343.3016, 77.92700
343.7837, 80.65326
344.2658, 81.86182
344.7480, 82.07288
345.2301, 81.40448
345.7122, 77.63489
346.1943, 67.58807
346.6764, 57.99963
347.1585, 50.96082
347.6407, 45.79333
348.1228, 41.22168
348.6049, 36.58081
349.0870, 31.93719
349.5691, 26.91913
350.0512, 19.09436
350.5334, 16.11414
351.0155, 22.33801
351.4976, 31.03674
351.9797, 37.67078
352.4618, 41.22894
352.9439, 42.80084
353.4261, 42.94568
353.9082, 41.67877
354.3903, 40.46051
354.8724, 36.32635
355.3545, 36.63373
355.8366, 47.93475
356.3188, 66.88403
356.8009, 84.04816
357.2830, 95.40405
357.7651, 101.9908
358.2472, 104.4262
358.7293, 101.7691
359.2115, 105.6992
359.6936, 126.8502
360.1757, 156.7281
360.6578, 176.4303
361.1399, 179.1850
361.6220, 183.9257
362.1041, 200.8129
362.5862, 227.2043
363.0684, 258.3648
363.5505, 293.4794
364.0326, 328.6109
364.5147, 359.3497
364.9968, 385.5497
365.4789, 407.3703
365.9611, 426.8710
366.4432, 440.2938
366.9253, 444.2941
367.4074, 439.7880
367.8895, 429.3969
368.3716, 415.5630
368.8538, 398.0265
369.3359, 375.2920
369.8180, 336.5116
370.3001, 306.6713
370.7822, 298.0790
371.2643, 296.0203
371.7465, 281.4297
372.2286, 249.0296
372.7107, 210.0724
373.1928, 181.9564
373.6749, 166.9737
374.1570, 155.1448
374.6392, 146.1918
375.1213, 140.2397
375.6034, 139.4257
376.0855, 142.0375
376.5676, 143.4349
377.0497, 139.0960
377.5319, 131.1874
378.0140, 127.0864
378.4961, 126.1852
378.9782, 130.7180
379.4603, 144.8453
379.9424, 164.2495
380.4246, 184.4411
380.9067, 205.4708
381.3888, 225.0949
381.8709, 239.7749
382.3530, 251.0005
382.8351, 265.6213
383.3173, 285.9868
383.7994, 309.7350
384.2815, 334.1583
384.7636, 359.3671
385.2457, 384.1482
385.7278, 404.6442
386.2100, 427.0948
386.6921, 458.0120
387.1742, 497.0386
387.6563, 538.6592
388.1384, 579.0739
388.6205, 618.3673
389.1027, 659.6743
389.5848, 706.6813
390.0669, 751.0409
390.5490, 798.2137
391.0311, 839.1537
391.5132, 863.2971
391.9954, 867.1899
392.4775, 854.9647
392.9596, 832.6932
393.4417, 800.4745
393.9238, 757.3044
394.4059, 689.7902
394.8881, 622.8746
395.3702, 569.1946
395.8523, 525.6835
396.3344, 481.3970
396.8165, 428.0903
397.2986, 370.2168
397.7808, 319.5190
398.2629, 275.4474
398.7450, 240.6093
399.2271, 222.0194
399.7092, 210.6576
400.1913, 197.8282
400.6735, 182.8024
401.1556, 165.0431
401.6377, 139.7675
402.1198, 111.6691
402.6019, 93.98370
403.0840, 90.89941
403.5662, 91.76898
404.0483, 85.53131
404.5304, 71.97510
405.0125, 62.80847
405.4946, 63.07745
405.9767, 63.89563
406.4589, 59.52808
406.9410, 51.21771
407.4231, 42.44818
407.9052, 34.69934
408.3873, 28.68842
408.8694, 26.40466
409.3516, 30.99780
409.8336, 34.95178
410.3158, 38.21545
410.7979, 40.77948
411.2800, 43.45026
411.7621, 45.76385
412.2442, 45.60388
412.7263, 40.70190
413.2085, 31.21942
413.6906, 20.02612
414.1727, 3.0944999E-02
414.6548, 10.26428
415.1369, 3.485474
415.6190, 26.77124
416.1012, 39.64252
416.5833, 34.39453
417.0654, 22.73090
417.5475, 17.42078
418.0296, 17.66412
418.5117, 15.17865
418.9939, 6.734070
419.4760, 2.783813
419.9581, 8.513123
420.4402, 10.80145
420.9223, 9.783630
421.4044, 3.186340
421.8866, 5.075500
422.3687, 13.76971
422.8508, 21.62830
423.3329, 22.73462
423.8150, 12.27747
424.2971, 5.615051
424.7793, 16.35577
425.2614, 14.39960
425.7435, 12.53900
426.2256, 9.496033
426.7077, 8.151306
427.1898, 14.20673
427.6720, 26.66492
428.1541, 35.66547
428.6362, 29.34650
429.1183, 7.238403
429.6004, 6.643433
430.0826, 6.889343
430.5647, 5.532471
431.0468, 6.853210
431.5289, 8.863770
432.0110, 7.795837
432.4931, 1.445313
432.9753, 4.233032
433.4574, 1.721619
433.9395, 8.690857
434.4216, 21.66394
434.9037, 38.67059
435.3858, 54.03534
435.8680, 60.98883
436.3501, 60.59229
436.8322, 59.66833
437.3143, 58.20239
437.7964, 58.20605
438.2785, 62.99103
438.7607, 71.43243
439.2428, 77.96545
439.7249, 79.30676
440.2070, 77.52045
440.6891, 78.33887
441.1712, 81.45581
441.6534, 87.88586
442.1355, 100.7203
442.6176, 114.7518
443.0997, 125.0096
443.5818, 131.8357
444.0639, 139.9546
444.5461, 154.4253
445.0282, 173.9929
445.5103, 185.0864
445.9924, 185.1436
446.4745, 180.4069
446.9566, 168.3563
447.4388, 155.2097
447.9209, 149.6505
448.4030, 154.5255
448.8851, 158.2197
449.3672, 146.8129
449.8493, 124.1921
450.3315, 108.7007
450.8136, 103.5639
451.2957, 103.1904
451.7778, 104.9062
452.2599, 108.0941
452.7420, 107.8071
453.2242, 101.5204
453.7063, 94.74957
454.1884, 91.03607
454.6705, 88.98938
455.1526, 85.52014
455.6347, 79.53412
456.1169, 73.54633
456.5990, 70.95306
457.0811, 73.38959
457.5632, 74.21503
458.0453, 69.57654
458.5274, 67.08447
459.0095, 72.84155
459.4916, 83.64441
459.9738, 91.18439
460.4559, 89.88049
460.9380, 84.69116
461.4201, 88.06067
461.9022, 102.3944
462.3843, 114.8634
462.8665, 122.3445
463.3486, 126.9651
463.8307, 129.8253
464.3128, 131.1008
464.7949, 132.6280
465.2770, 133.3388
465.7592, 135.6764
466.2413, 145.6371
466.7234, 162.9813
467.2055, 177.1540
467.6876, 181.4716
468.1697, 178.7208
468.6519, 178.4914
469.1340, 180.8920
469.6161, 185.1935
470.0982, 194.9767
470.5803, 204.3369
471.0624, 206.7313
471.5446, 202.1282
472.0267, 195.9161
472.5088, 192.4572
472.9909, 192.3187
473.4730, 193.3385
473.9551, 195.8807
474.4373, 198.9254
474.9194, 205.4713
475.4015, 210.6293
475.8836, 207.8682
476.3657, 195.5841
476.8478, 182.5760
477.3300, 176.9949
477.8121, 176.7717
478.2942, 175.6198
478.7763, 173.4747
479.2584, 169.1114
479.7405, 159.3420
480.2227, 145.8542
480.7048, 137.2264
481.1869, 135.3454
481.6690, 136.3492
482.1511, 141.9431
482.6332, 147.7128
483.1154, 146.8955
483.5975, 137.9541
484.0796, 128.0879
484.5617, 125.8676
485.0438, 131.8339
485.5259, 136.2577
486.0081, 137.7509
486.4902, 140.5811
486.9723, 148.5107
487.4544, 157.6592
487.9365, 163.4882
488.4186, 164.4235
488.9008, 162.6505
489.3829, 159.4572
489.8650, 155.1234
490.3471, 154.6172
490.8292, 161.1370
491.3113, 166.4456
491.7935, 161.4645
492.2756, 148.8997
492.7577, 138.1471
493.2398, 130.6404
493.7219, 125.0872
494.2040, 122.5883
494.6862, 121.2380
495.1683, 117.2220
495.6504, 109.3058
496.1325, 98.39941
496.6146, 84.60510
497.0967, 65.09534
497.5789, 55.79480
498.0610, 65.13281
498.5431, 75.02026
499.0252, 83.23975
499.5073, 86.70935
499.9894, 79.35999
500.4716, 57.72119
500.9537, 33.07605
501.4358, 21.44281
501.9179, 22.77173
502.4000, 25.43768
502.8821, 28.89648
503.3643, 31.49835
503.8464, 31.58954
504.3285, 29.68793
504.8106, 27.28552
505.2927, 25.30182
505.7748, 22.30322
506.2570, 16.60883
506.7391, 9.288635
507.2212, 1.975647
507.7033, 4.872925
508.1854, 9.175354
508.6675, 7.611084
509.1496, 1.529724
509.6317, 8.550659
510.1139, 18.32312
510.5960, 20.83899
511.0781, 3.761658
511.5602, 20.26447
512.0424, 30.18390
512.5245, 16.92157
513.0066, 3.119568
513.4887, 7.725220
513.9708, 2.235901
514.4529, 9.246887
514.9351, 10.21716
515.4172, 9.386475
515.8993, 10.62921
516.3814, 12.90955
516.8635, 12.52777
517.3456, 6.782959
517.8278, 0.5767820
518.3099, 3.111877
518.7920, 5.632935
519.2741, 10.10773
519.7562, 17.27240
520.2383, 23.59149
520.7205, 24.45453
521.2026, 19.08112
521.6847, 16.04303
522.1668, 15.66211
522.6489, 17.52490
523.1310, 22.90375
523.6132, 29.90558
524.0953, 36.60248
524.5774, 42.41931
525.0595, 47.04797
525.5416, 48.03668
526.0237, 47.07568
526.5059, 53.03937
526.9880, 68.50079
527.4701, 84.18262
527.9522, 93.49091
528.4343, 97.83783
528.9164, 104.1055
529.3986, 116.4981
529.8807, 125.0262
530.3628, 124.1201
530.8449, 118.9620
531.3270, 112.9854
531.8091, 108.1737
532.2913, 110.2155
532.7734, 126.5063
533.2554, 154.5836
533.7375, 167.1616
534.2197, 149.5987
534.7018, 142.1984
535.1839, 157.7893
535.6660, 184.5868
536.1481, 214.1980
536.6302, 245.1124
537.1124, 277.0480
537.5945, 311.7281
538.0766, 346.9382
538.5587, 375.9481
539.0408, 399.0059
539.5229, 425.0419
540.0051, 456.8961
540.4872, 496.7078
540.9693, 549.5062
541.4514, 624.2896
541.9335, 694.7855
542.4156, 748.2919
542.8978, 806.3738
543.3799, 883.3630
543.8620, 978.1046
544.3441, 1082.464
544.8262, 1190.048
545.3083, 1307.792
545.7905, 1453.512
546.2726, 1630.456
546.7547, 1814.560
547.2368, 2002.285
547.7189, 2196.437
548.2010, 2403.040
548.6832, 2618.788
549.1653, 2830.661
549.6474, 3026.604
550.1295, 3226.507
550.6116, 3459.289
551.0938, 3706.821
551.5759, 3933.824
552.0580, 4127.325
552.5401, 4287.858
553.0222, 4414.353
553.5043, 4508.725
553.9865, 4559.160
554.4686, 4559.728
554.9507, 4519.067
555.4328, 4434.247
555.9149, 4310.540
556.3970, 4149.466
556.8792, 3951.210
557.3613, 3735.471
557.8434, 3513.497
558.3255, 3289.790
558.8076, 3075.226
559.2897, 2870.690
559.7719, 2675.570
560.2540, 2487.011
560.7361, 2307.790
561.2182, 2144.346
561.7003, 1996.383
562.1824, 1861.879
562.6646, 1740.461
563.1467, 1631.252
563.6288, 1537.013
564.1109, 1454.297
564.5930, 1371.144
565.0751, 1277.560
565.5573, 1180.436
566.0394, 1101.650
566.5215, 1044.783
567.0036, 992.6994
567.4857, 945.6384
567.9678, 897.5402
568.4500, 836.7625
568.9321, 766.5132
569.4142, 712.6151
569.8963, 698.2142
570.3784, 691.3716
570.8605, 669.4872
571.3427, 635.4608
571.8248, 596.3580
572.3069, 554.9578
572.7890, 515.1833
573.2711, 481.7709
573.7532, 455.1735
574.2354, 430.4446
574.7175, 409.2241
575.1996, 388.7440
575.6817, 370.4478
576.1638, 351.3839
576.6459, 326.4617
577.1281, 294.5675
577.6102, 265.0438
578.0923, 247.8499
578.5744, 237.0816
579.0565, 219.8751
579.5386, 195.4927
580.0208, 171.1074
580.5029, 149.7003
580.9850, 132.1642
581.4671, 120.8576
581.9492, 121.6315
582.4313, 118.9788
582.9135, 110.3129
583.3956, 100.5173
583.8777, 94.92883
584.3598, 90.60999
584.8419, 78.72748
585.3240, 52.89838
585.8062, 24.86121
586.2883, 15.45270
586.7704, 23.81818
587.2525, 26.76727
587.7346, 18.57874
588.2167, 9.415894
588.6989, 9.041748
589.1810, 15.58319
589.6631, 16.87695
590.1452, 8.930115
590.6273, 0.2346190
591.1094, 8.981628
591.5916, 16.13330
592.0737, 17.04193
592.5558, 12.00830
593.0379, 5.736450
593.5200, 1.130310
594.0021, 0.8302000
594.4843, 6.967651
594.9664, 30.67572
595.4485, 42.16602
595.9306, 23.00812
596.4127, 1.658569
596.8948, 5.178406
597.3770, 10.85681
597.8591, 21.26440
598.3412, 14.82025
598.8233, 3.995361
599.3054, 2.468628
599.7875, 6.208740
600.2697, 11.86267
600.7518, 20.83081
601.2339, 30.00842
601.7160, 34.91754
602.1981, 35.12866
602.6802, 39.15240
603.1624, 51.97736
603.6445, 60.98999
604.1266, 57.57904
604.6087, 51.25336
605.0908, 52.11353
605.5729, 61.75897
606.0551, 74.50793
606.5372, 90.08527
607.0193, 105.3405
607.5014, 114.3353
607.9835, 118.4688
608.4656, 126.9586
608.9478, 144.8066
609.4299, 165.8148
609.9120, 178.0491
610.3941, 177.9604
610.8762, 180.2153
611.3583, 182.1693
611.8405, 189.3943
612.3226, 209.4752
612.8047, 234.2258
613.2868, 249.4388
613.7689, 249.3563
614.2510, 251.5736
614.7332, 276.3284
615.2153, 312.2517
615.6974, 333.8595
616.1795, 339.2848
616.6616, 342.6661
617.1437, 352.3395
617.6259, 366.1756
618.1080, 378.3032
618.5901, 387.5924
619.0722, 397.1128
619.5543, 400.8286
620.0364, 410.4678
620.5186, 439.1937
621.0007, 477.7665
621.4828, 506.2283
621.9649, 515.5389
622.4470, 515.7094
622.9291, 513.2419
623.4113, 510.4106
623.8934, 516.6235
624.3755, 533.7040
624.8576, 553.1725
625.3397, 569.9124
625.8218, 583.7891
626.3040, 594.3152
626.7861, 600.2377
627.2682, 604.2931
627.7503, 603.1068
628.2324, 603.0447
628.7145, 607.7630
629.1967, 617.3777
629.6788, 632.4780
630.1609, 656.2709
630.6430, 677.5543
631.1251, 676.4925
631.6072, 657.6661
632.0893, 647.8304
632.5714, 653.1765
633.0535, 659.3600
633.5356, 653.8551
634.0178, 638.8680
634.4999, 631.0951
634.9820, 641.2643
635.4641, 643.5502
635.9462, 628.8847
636.4283, 610.4447
636.9105, 598.8117
637.3926, 593.2039
637.8747, 586.9415
638.3568, 576.2661
638.8389, 562.7934
639.3210, 548.9111
639.8032, 534.4830
640.2853, 516.1149
640.7674, 491.3353
641.2495, 472.6318
641.7316, 475.6884
642.2137, 496.6854
642.6959, 494.9188
643.1780, 446.6683
643.6601, 409.4999
644.1422, 395.8208
644.6243, 392.4150
645.1064, 393.1927
645.5886, 394.5184
646.0707, 389.4200
646.5528, 371.2637
647.0349, 349.3350
647.5170, 341.0734
647.9991, 344.1931
648.4813, 339.9594
648.9634, 323.4408
649.4455, 302.8319
649.9276, 284.4802
650.4097, 268.6736
650.8918, 256.1636
651.3740, 244.0912
651.8561, 238.6192
652.3382, 247.4522
652.8203, 256.5428
653.3024, 256.3112
653.7845, 248.1981
654.2667, 236.6002
654.7488, 221.6768
655.2309, 206.3304
655.7130, 194.1252
656.1951, 185.7221
656.6772, 181.7368
657.1594, 182.2399
657.6415, 185.6226
658.1236, 192.0311
658.6057, 200.2352
659.0878, 200.4407
659.5699, 180.9476
660.0521, 169.5915
660.5342, 176.3785
661.0163, 184.8417
661.4984, 183.3998
661.9805, 173.3682
662.4626, 162.5932
662.9448, 155.3764
663.4269, 147.7957
663.9090, 128.9713
664.3911, 106.3856
664.8732, 106.2261
665.3553, 132.9463
665.8375, 162.4164
666.3196, 176.2075
666.8017, 176.9999
667.2838, 177.6991
667.7659, 176.8508
668.2480, 178.5601
668.7302, 187.1965
669.2123, 194.4562
669.6944, 195.5381
670.1765, 191.3884
670.6586, 184.2934
671.1407, 172.4446
671.6229, 163.9969
672.1050, 169.2317
672.5871, 181.1408
673.0692, 185.9636
673.5513, 182.7324
674.0334, 180.2799
674.5156, 184.8892
674.9977, 193.2929
675.4798, 195.9363
675.9619, 191.4155
676.4440, 185.2096
676.9261, 175.5292
677.4083, 166.6660
677.8904, 159.8287
678.3725, 155.5041
678.8546, 156.0856
679.3367, 166.0762
679.8188, 169.1548
680.3010, 149.8554
680.7831, 124.0301
681.2652, 110.2280
681.7473, 107.4599
682.2294, 104.5499
682.7115, 95.59851
683.1937, 84.36469
683.6758, 79.59332
684.1579, 82.69232
684.6400, 75.38409
685.1221, 49.77405
685.6042, 29.15375
686.0864, 30.47363
686.5685, 42.34375
687.0506, 42.77423
687.5327, 26.79333
688.0148, 16.73352
688.4969, 24.08203
688.9791, 33.46796
689.4612, 32.06921
689.9433, 24.86938
690.4254, 23.92914
690.9075, 33.06799
691.3896, 43.03497
691.8718, 43.36469
692.3539, 36.18945
692.8360, 27.28265
693.3181, 15.07404
693.8002, 10.56085
694.2823, 21.80029
694.7645, 37.85779
695.2466, 42.04303
695.7287, 31.71594
696.2108, 23.03223
696.6929, 13.69885
697.1750, 7.499634
697.6572, 7.516541
698.1393, 10.70923
698.6214, 12.60931
699.1035, 11.91193
699.5856, 13.55280
700.0677, 27.70264
700.5499, 43.54309
701.0320, 41.44470
701.5141, 25.15253
701.9962, 11.77057
702.4783, 6.021545
702.9604, 2.358093
703.4426, 6.217529
703.9247, 18.56061
704.4068, 14.64301
704.8889, 24.54993
705.3710, 46.70007
705.8531, 27.35925
706.3353, 2.058716
706.8174, 5.225342
707.2995, 2.768799
707.7816, 10.70050
708.2637, 12.42517
708.7458, 11.74225
709.2280, 9.470642
709.7101, 8.247498
710.1922, 12.29993
710.6743, 20.74731
711.1564, 28.61462
711.6385, 32.79211
712.1207, 34.49310
712.6028, 36.27399
713.0849, 38.23816
713.5670, 40.21692
714.0491, 43.24048
714.5313, 43.49365
715.0134, 35.73071
715.4955, 24.22186
715.9776, 20.39471
716.4597, 26.54993
716.9418, 34.37079
717.4240, 44.85638
717.9061, 54.50031
718.3882, 61.62634
718.8703, 66.11377
719.3524, 67.68298
719.8345, 66.27014
720.3167, 63.56299
720.7988, 61.23669
721.2809, 59.12384
721.7630, 54.35480
722.2451, 46.93323
722.7272, 43.85486
723.2094, 48.14508
723.6915, 56.10883
724.1736, 63.30475
724.6557, 70.01343
725.1378, 72.45679
725.6199, 66.94617
726.1021, 62.49036
726.5842, 60.65442
727.0663, 60.89545
727.5484, 64.91888
728.0305, 71.59961
728.5126, 73.14020
728.9948, 59.31641
729.4769, 47.09631
729.9590, 52.96509
730.4411, 65.79517
730.9232, 65.96057
731.4053, 52.59814
731.8874, 43.00165
732.3695, 51.56927
732.8516, 68.07147
733.3337, 64.37604
733.8159, 39.05627
734.2980, 24.03625
734.7801, 26.17163
735.2622, 32.54132
735.7443, 35.25418
736.2264, 35.16840
736.7086, 35.42545
737.1907, 38.24670
737.6728, 37.16397
738.1549, 29.44171
738.6370, 20.31912
739.1191, 9.422607
739.6013, 2.8259000E-02
740.0834, 1.504089
740.5655, 7.169067
741.0476, 16.85773
741.5297, 20.54385
742.0118, 20.61124
742.4940, 19.15295
742.9761, 16.89221
743.4582, 16.95761
743.9403, 20.54138
744.4224, 22.97296
744.9045, 18.51138
745.3867, 7.798584
745.8688, 0.3911740
746.3509, 5.645630
746.8330, 9.259430
747.3151, 11.67383
747.7972, 12.45639
748.2794, 9.468628
748.7615, 3.712524
749.2436, 2.168121
749.7257, 11.51840
750.2078, 17.58624
750.6899, 13.53610
751.1721, 6.117310
751.6542, 0.3518370
752.1363, 2.874542
752.6184, 2.979584
753.1005, 1.240448
753.5826, 4.490814
754.0648, 4.294128
754.5469, 18.84644
755.0290, 16.69717
755.5111, 3.137482
755.9932, 17.50653
756.4753, 13.98853
756.9575, 8.6212002E-02
757.4396, 12.01944
757.9217, 22.77808
758.4038, 25.89499
758.8859, 15.15921
759.3680, 6.610657
759.8502, 7.764038
760.3323, 12.66602
760.8144, 16.23022
761.2965, 18.10547
761.7786, 17.05685
762.2607, 7.848022
762.7429, 2.602936
763.2250, 14.27542
763.7071, 29.00339
764.1892, 26.12082
764.6713, 6.284973
765.1534, 10.81937
765.6356, 11.72803
766.1177, 4.925903
766.5998, 4.476135
767.0819, 8.474792
767.5640, 7.371704
768.0461, 0.3162540
768.5283, 7.987762
769.0104, 11.51028
769.4925, 11.91461
769.9746, 11.31870
770.4567, 8.083496
770.9388, 9.082031
771.4210, 18.30487
771.9031, 26.35889
772.3852, 28.44897
772.8673, 27.78763
773.3494, 27.84116
773.8315, 28.79617
774.3137, 31.43491
774.7958, 41.02393
775.2779, 46.90021
775.7600, 36.78571
776.2421, 22.28674
776.7242, 23.65759
777.2064, 40.73102
777.6885, 50.74695
778.1706, 32.83994
778.6527, 6.059601
779.1348, 4.316925
779.6169, 21.50006
780.0991, 30.49750
780.5812, 26.77863
781.0633, 24.94913
781.5454, 36.35577
782.0275, 54.01276
782.5096, 57.57944
782.9918, 41.08548
783.4739, 31.62296
783.9560, 33.78900
784.4381, 36.89301
784.9202, 36.09335
785.4023, 33.29971
785.8845, 31.06110
786.3666, 29.51691
786.8487, 28.02231
787.3308, 26.01553
787.8129, 24.52728
788.2950, 25.13828
788.7772, 25.92331
789.2593, 23.59039
789.7414, 18.50797
790.2235, 15.27728
790.7056, 18.28094
791.1877, 22.35306
791.6699, 18.89023
792.1520, 11.72461
792.6341, 11.04276
793.1162, 17.98077
793.5983, 28.08698
794.0804, 39.35107
794.5626, 48.22025
795.0447, 45.16467
795.5268, 28.24326
796.0089, 17.37476
796.4910, 15.78448
796.9731, 12.77106
797.4553, 0.5775450
797.9374, 12.94537
798.4195, 13.94775
798.9016, 0.5414430
799.3837, 9.545044
799.8658, 10.74329
800.3480, 9.289673
800.8301, 1.875305
801.3122, 4.095825
801.7943, 0.3342900
802.2764, 11.75229
802.7585, 23.32581
803.2407, 31.63791
803.7228, 36.37668
804.2049, 33.70190
804.6870, 29.35849
805.1691, 30.83798
805.6512, 38.50528
806.1334, 50.54510
806.6155, 66.24661
807.0976, 82.35941
807.5797, 93.89825
808.0618, 101.6052
808.5439, 108.7498
809.0261, 115.5752
809.5082, 121.6188
809.9903, 126.0609
810.4724, 131.3069
810.9545, 140.9937
811.4366, 154.9015
811.9188, 162.2044
812.4009, 154.3663
812.8830, 155.1563
813.3651, 177.7950
813.8472, 199.6596
814.3293, 206.1432
814.8115, 202.5306
815.2936, 201.0643
815.7757, 202.6435
816.2578, 207.0441
816.7399, 218.7927
817.2220, 228.8691
817.7042, 228.0734
818.1863, 222.3207
818.6684, 223.0649
819.1505, 232.9892
819.6326, 242.8192
820.1147, 244.3542
820.5969, 242.3616
821.0790, 245.3369
821.5611, 250.3017
822.0432, 248.3703
822.5253, 238.2034
823.0074, 227.1975
823.4896, 223.1171
823.9717, 214.0936
824.4538, 207.2726
824.9359, 202.8069
825.4180, 193.2843
825.9001, 190.5860
826.3823, 185.2079
826.8644, 169.4850
827.3465, 151.3307
827.8286, 146.8464
828.3107, 160.4921
828.7928, 166.3383
829.2749, 158.5574
829.7570, 150.8226
830.2391, 143.4684
830.7213, 139.7592
831.2034, 145.3197
831.6855, 158.2019
832.1676, 166.5659
832.6497, 164.3669
833.1318, 161.7774
833.6140, 164.0237
834.0961, 166.3941
834.5782, 164.1021
835.0603, 158.4601
835.5424, 152.7258
836.0245, 147.9859
836.5067, 146.2658
836.9888, 152.3023
837.4709, 161.8600
837.9530, 166.6281
838.4351, 167.9593
838.9172, 172.8697
839.3994, 182.6638
839.8815, 187.5594
840.3636, 176.0314
840.8457, 185.6144
841.3278, 159.8732
841.8099, 186.0097
842.2921, 198.5546
842.7742, 189.8870
843.2563, 180.1426
843.7384, 182.1030
844.2205, 190.2217
844.7026, 191.9365
845.1848, 184.7887
845.6669, 180.7635
846.1490, 181.2331
846.6311, 182.8095
847.1132, 185.9103
847.5953, 188.4743
848.0775, 188.6743
848.5596, 186.6683
849.0417, 183.4708
849.5238, 179.1509
850.0059, 173.3814
850.4880, 164.1508
850.9702, 155.9747
851.4523, 153.0550
851.9344, 153.1158
852.4165, 151.4119
852.8986, 146.6437
853.3807, 141.3553
853.8629, 137.5348
854.3450, 133.7269
854.8271, 129.5878
855.3092, 124.1290
855.7913, 114.3925
856.2734, 101.5812
856.7556, 93.56198
857.2377, 98.07779
857.7198, 109.1266
858.2019, 117.5918
858.6840, 122.1581
859.1661, 114.7232
859.6483, 95.38965
860.1304, 81.37424
860.6125, 82.97208
861.0946, 89.60114
861.5767, 88.15897
862.0588, 78.45874
862.5410, 67.34424
863.0231, 53.23383
863.5052, 45.30188
863.9873, 49.75717
864.4694, 56.28586
864.9515, 54.19916
865.4337, 44.84583
865.9158, 38.96527
866.3979, 36.77258
866.8800, 37.73456
867.3621, 46.41888
867.8442, 53.15268
868.3264, 49.62817
868.8085, 42.91376
869.2906, 45.44342
869.7727, 59.69650
870.2548, 70.03500
870.7369, 71.49863
871.2191, 69.25528
871.7012, 63.19025
872.1833, 56.46109
872.6654, 52.12372
873.1475, 50.33905
873.6296, 49.98392
874.1118, 50.78174
874.5939, 52.25049
875.0760, 56.88757
875.5581, 60.00378
876.0402, 51.84457
876.5223, 37.23654
877.0045, 29.86700
877.4866, 34.11539
877.9687, 44.51385
878.4508, 59.23184
878.9329, 73.55569
879.4150, 75.33960
879.8972, 67.28391
880.3793, 60.89801
880.8614, 58.26996
881.3435, 58.90839
881.8256, 63.18613
882.3077, 67.26080
882.7899, 61.17389
883.2720, 61.21426
883.7541, 61.08917
884.2362, 50.45328
884.7183, 55.63068
885.2004, 46.42145
885.6826, 33.38101
886.1647, 27.56656
886.6468, 28.42340
887.1289, 30.92966
887.6110, 37.02734
888.0931, 40.29974
888.5753, 39.03995
889.0574, 36.33231
889.5395, 33.14429
890.0216, 29.87396
890.5037, 26.53436
890.9858, 22.20663
891.4680, 22.69318
891.9501, 34.03979
892.4322, 43.01007
892.9143, 42.30991
893.3964, 40.34402
893.8785, 47.29608
894.3607, 59.99335
894.8428, 64.62766
895.3249, 53.53558
895.8070, 44.20874
896.2891, 47.23264
896.7712, 51.84818
897.2534, 47.39554
897.7355, 39.55096
898.2176, 41.64346
898.6997, 54.59323
899.1818, 60.16925
899.6639, 39.26965
900.1461, 15.40131
900.6282, 13.96921
901.1103, 23.58728
901.5924, 27.55215
902.0745, 24.49954
902.5566, 18.41864
903.0388, 11.14294
903.5209, 4.598999
904.0030, 0.9562380
904.4851, 0.2624820
904.9672, 0.4006350
905.4493, 2.527954
905.9315, 4.954956
906.4136, 7.229919
906.8957, 7.006256
907.3778, 2.061920
907.8599, 5.072144
908.3420, 9.092468
908.8242, 9.987259
909.3063, 5.890289
909.7884, 3.859879
910.2705, 8.399780
910.7526, 2.065979
911.2347, 5.416199
911.7169, 0.4876400
912.1990, 14.40215
912.6811, 12.47607
913.1632, 13.60489
913.6453, 24.92662
914.1274, 10.23132
914.6096, 5.660995
915.0917, 6.420441
915.5738, 0.2915800
916.0559, 2.739380
916.5380, 20.28397
917.0201, 23.05888
917.5023, 5.644104
917.9844, 22.19373
918.4665, 3.939194
918.9486, 18.40039
919.4307, 16.55389
919.9128, 2.404297
920.3950, 11.24742
920.8771, 4.375732
921.3592, 3.307510
921.8413, 10.36343
922.3234, 18.16983
922.8055, 32.35156
923.2877, 44.50281
923.7698, 40.50436
924.2519, 21.67691
924.7340, 12.06271
925.2161, 27.12004
925.6982, 40.21703
926.1804, 40.92603
926.6625, 37.40907
927.1446, 32.28725
927.6267, 29.07280
928.1088, 35.96951
928.5909, 54.78159
929.0730, 66.41057
929.5551, 53.74594
930.0372, 37.83188
930.5193, 32.93135
931.0015, 34.51956
931.4836, 37.22672
931.9657, 40.51102
932.4478, 46.51352
932.9299, 56.64911
933.4120, 65.41246
933.8942, 66.15384
934.3763, 64.54199
934.8584, 69.62909
935.3405, 77.55948
935.8226, 77.89748
936.3047, 70.14647
936.7869, 64.69470
937.2690, 68.88553
937.7511, 76.49524
938.2332, 79.41989
938.7153, 79.43378
939.1974, 80.43100
939.6796, 82.31596
940.1617, 82.39835
940.6438, 80.13382
941.1259, 80.94547
941.6080, 91.77649
942.0901, 90.64905
942.5723, 107.2449
943.0544, 98.23410
943.5365, 95.50214
944.0186, 100.6307
944.5007, 108.2407
944.9828, 115.9612
945.4650, 121.7339
945.9471, 122.4396
946.4292, 118.8711
946.9113, 114.0900
947.3934, 108.1863
947.8755, 108.2632
948.3577, 116.2772
948.8398, 121.3013
949.3219, 115.1485
949.8040, 106.5549
950.2861, 115.0662
950.7682, 141.4895
951.2504, 150.2206
951.7325, 138.7737
952.2146, 124.3915
952.6967, 109.5028
953.1788, 100.4906
953.6609, 104.4402
954.1431, 116.1119
954.6252, 118.4715
955.1073, 107.9102
955.5894, 105.2815
956.0715, 114.4237
956.5536, 120.6718
957.0358, 118.0000
957.5179, 112.4352
958.0000, 109.7472
958.4821, 109.6062
958.9642, 109.9970
959.4464, 111.6621
959.9285, 111.9426
960.4106, 110.3507
960.8927, 107.7754
961.3748, 101.9053
961.8569, 98.05389
962.3391, 106.0491
962.8212, 125.5876
963.3033, 130.3746
963.7854, 108.1366
964.2675, 92.49161
964.7496, 87.48288
965.2318, 87.77408
965.7139, 94.41121
966.1960, 102.4979
966.6781, 104.7256
967.1602, 101.2395
967.6423, 95.89430
968.1245, 85.58760
968.6066, 75.24380
969.0887, 61.94421
969.5708, 53.59514
970.0529, 55.68227
970.5350, 65.20834
971.0172, 77.98482
971.4993, 97.03650
971.9814, 103.1690
972.4635, 78.32019
972.9456, 60.20395
973.4277, 65.82588
973.9099, 75.87283
974.3920, 77.19916
974.8741, 70.54077
975.3562, 58.39296
975.8383, 34.73792
976.3204, 23.48492
976.8026, 40.27771
977.2847, 54.30666
977.7668, 52.77682
978.2489, 43.18480
978.7310, 28.37918
979.2131, 13.09402
979.6953, 12.77798
980.1774, 35.67073
980.6595, 54.09076
981.1416, 61.26401
981.6237, 61.51595
982.1058, 50.79906
982.5880, 38.65140
983.0701, 37.17125
983.5522, 44.34535
984.0343, 46.80156
984.5164, 39.13074
984.9985, 31.47314
985.4807, 26.19673
985.9628, 22.43034
986.4449, 20.53760
986.9270, 19.19771
987.4091, 15.84659
987.8912, 10.90256
988.3734, 9.829010
988.8555, 17.64128
989.3376, 22.93437
989.8197, 19.87653
990.3018, 14.12022
990.7839, 6.737503
991.2661, 0.7423710
991.7482, 0.8015900
992.2303, 6.734543
992.7124, 12.39624
993.1945, 13.81384
993.6766, 17.45212
994.1588, 32.58669
994.6409, 44.68584
995.1230, 36.85034
995.6051, 21.21901
996.0872, 18.73901
996.5693, 31.19745
997.0515, 40.47275
997.5336, 35.77052
998.0157, 31.54234
998.4978, 35.79332
998.9799, 42.14374
999.4620, 47.15471
999.9442, 49.71558
1000.426, 47.37694
1000.908, 40.26811
1001.391, 35.46442
1001.873, 39.43668
1002.355, 42.05057
1002.837, 35.43271
1003.319, 28.05525
1003.801, 27.99683
1004.283, 32.30550
1004.765, 34.50813
1005.247, 33.44589
1005.730, 33.26140
1006.212, 38.60382
1006.694, 41.75690
1007.176, 36.42758
1007.658, 29.26616
1008.140, 24.92682
1008.622, 23.97537
1009.104, 27.80232
1009.586, 36.34512
1010.069, 42.00456
1010.551, 40.57326
1011.033, 36.27132
1011.515, 27.59802
1011.997, 20.83420
1012.479, 23.97266
1012.961, 32.20621
1013.443, 35.94234
1013.926, 33.22792
1014.408, 28.01091
1014.890, 18.42500
1015.372, 11.10139
1015.854, 6.408447
1016.336, 7.699371
1016.818, 23.84485
1017.300, 45.93449
1017.782, 56.82359
1018.265, 53.21886
1018.747, 47.22432
1019.229, 42.82463
1019.711, 37.29129
1020.193, 26.76990
1020.675, 17.29308
1021.157, 15.54903
1021.639, 17.64255
1022.122, 15.11516
1022.604, 6.483139
1023.086, 0.9572300
1023.568, 5.674149
1024.050, 7.931824
1024.532, 1.750397
1025.014, 10.55576
1025.496, 9.423508
1025.978, 0.4874880
1026.461, 15.08458
1026.943, 37.42517
1027.425, 46.95807
1027.907, 26.53035
1028.389, 10.43661
1028.871, 10.50246
1029.353, 15.78490
1029.835, 20.51137
1030.318, 24.75235
1030.800, 31.94492
1031.282, 42.71153
1031.764, 41.18314
1032.246, 9.134598
1032.728, 12.53513
1033.210, 10.83537
1033.692, 1.719620
1034.174, 8.970978
1034.656, 19.37816
1035.139, 29.19919
1035.621, 38.59442
1036.103, 37.41458
1036.585, 7.412415
1037.067, 7.002380
1037.549, 15.22279
1038.031, 35.99504
1038.513, 32.98001
1038.996, 19.47801
1039.478, 13.78580
1039.960, 15.91393
1040.442, 17.45767
1040.924, 20.54968
1041.406, 19.07021
1041.888, 5.639755
1042.370, 2.124649
1042.853, 9.301773
1043.335, 24.64824
1043.817, 22.62418
1044.299, 5.218536
1044.781, 1.255264
1045.263, 8.554779
1045.745, 16.50938
1046.227, 22.43935
1046.709, 24.72607
1047.192, 21.69063
1047.674, 16.16304
1048.156, 10.15129
1048.638, 4.603127
1049.120, 6.494377
1049.602, 19.74171
1050.084, 23.56086
1050.566, 14.01124
1051.048, 6.147804
1051.531, 5.114029
1052.013, 5.671768
1052.495, 2.919907
1052.977, 1.641052
1053.459, 2.706665
1053.941, 0.2286910
1054.423, 6.617264
1054.905, 18.87656
1055.388, 26.32371
1055.870, 25.57499
1056.352, 20.08722
1056.834, 11.81165
1057.316, 3.455612
1057.798, 2.363014
1058.280, 7.915878
1058.762, 11.91082
1059.245, 14.17799
1059.727, 14.08839
1060.209, 11.66381
1060.691, 10.24234
1061.173, 11.52713
1061.655, 15.19061
1062.137, 23.32310
1062.619, 32.66739
1063.101, 27.35512
1063.583, 10.75957
1064.066, 0.3501210
1064.548, 1.136490
1065.030, 0.2792510
1065.512, 0.6701430
1065.994, 1.792877
1066.476, 3.851364
1066.958, 5.703659
1067.440, 5.656181
1067.923, 3.375099
1068.405, 4.237640
1068.887, 15.25116
1069.369, 20.60192
1069.851, 16.57257
1070.333, 10.16719
1070.815, 6.701317
1071.297, 5.078186
1071.780, 4.392769
1072.262, 4.524025
1072.744, 4.171165
1073.226, 4.724998
1073.708, 10.99377
1074.190, 23.33899
1074.672, 34.03162
1075.154, 38.29307
1075.636, 39.39064
1076.119, 40.29614
1076.601, 38.50863
1077.083, 27.42265
1077.565, 13.68533
1078.047, 10.54230
1078.529, 18.59614
1079.011, 23.36992
1079.493, 17.35572
1079.975, 11.51968
1080.458, 9.279816
1080.940, 9.426590
1081.422, 11.21296
1081.904, 13.81960
1082.386, 18.19577
1082.868, 23.14539
1083.350, 24.78284
1083.832, 20.63268
1084.314, 18.38750
1084.797, 21.92274
1085.279, 23.48134
1085.761, 18.12421
1086.243, 11.93626
1086.725, 8.186111
1087.207, 7.920082
1087.689, 15.25143
1088.171, 33.98329
1088.654, 44.07258
1089.136, 43.22647
1089.618, 38.68690
1090.100, 30.44579
1090.582, 20.44757
1091.064, 9.865219
1091.546, 2.608170
1092.028, 5.518936
1092.510, 18.07754
1092.993, 24.44862
1093.475, 23.56087
1093.957, 26.33971
1094.439, 35.08409
1094.921, 39.34305
1095.403, 34.98575
1095.885, 27.02672
1096.367, 21.29201
1096.849, 18.07973
1097.332, 18.97647
1097.814, 23.38155
1098.296, 28.65723
1098.778, 33.91545
1099.260, 34.04499
1099.742, 27.71719
1100.224, 20.01172
1100.706, 15.16665
1101.189, 12.47559
1101.671, 9.603775
1102.153, 9.216728
1102.635, 21.41129
1103.117, 39.24667
1103.599, 42.15609
1104.081, 29.72036
1104.563, 19.24860
1105.046, 19.68143
1105.528, 21.49490
1106.010, 15.38924
1106.492, 8.951363
1106.974, 11.93354
1107.456, 16.73060
1107.938, 8.957550
1108.420, 4.769936
1108.902, 3.017487
1109.385, 20.39736
1109.867, 39.36255
1110.349, 42.44366
1110.831, 40.79761
1111.313, 37.32834
1111.795, 32.56962
1112.277, 24.18506
1112.759, 15.74515
1113.241, 14.32446
1113.724, 19.84333
1114.206, 20.25764
1114.688, 5.635307
1115.170, 1.403931
1115.652, 18.64524
1116.134, 29.50433
1116.616, 20.90168
1117.098, 6.687088
1117.581, 2.386826
1118.063, 5.458359
1118.545, 2.450478
1119.027, 24.99219
1119.509, 34.51400
1119.991, 29.16660
1120.473, 20.63853
1120.955, 10.41171
1121.438, 5.870056
1121.920, 12.23196
1122.402, 22.93246
1122.884, 28.55721
1123.366, 29.52942
1123.848, 26.03678
1124.330, 19.51666
1124.812, 18.68456
1125.294, 23.51811
1125.776, 25.34119
1126.259, 21.29830
1126.741, 18.14649
1127.223, 23.01370
1127.705, 20.16817
1128.187, 27.55258
1128.669, 22.67772
1129.151, 25.23278
1129.633, 30.22424
1130.116, 23.08749
1130.598, 5.168106
1131.080, 3.876534
1131.562, 6.178711
1132.044, 18.59978
1132.526, 29.29296
1133.008, 33.14156
1133.490, 19.01826
1133.973, 3.247543
1134.455, 3.968040
1134.937, 15.62047
1135.419, 22.23266
1135.901, 21.24406
1136.383, 20.02119
1136.865, 22.30630
1137.347, 19.55894
1137.829, 4.662880
1138.312, 6.869278
1138.794, 8.231033
1139.276, 2.240402
1139.758, 9.555893
1140.240, 25.41994
1140.722, 35.78187
1141.204, 40.55582
1141.686, 37.28045
1142.168, 23.99041
1142.651, 18.44347
1143.133, 26.48640
1143.615, 33.05893
1144.097, 26.88072
1144.579, 15.53434
1145.061, 12.38808
1145.543, 15.27405
1146.025, 15.12393
1146.508, 11.65950
1146.990, 9.688675
1147.472, 9.982559
1147.954, 13.58840
1148.436, 20.54891
1148.918, 25.70464
1149.400, 24.55099
1149.882, 20.61774
1150.365, 12.62024
1150.847, 7.817345
1151.329, 21.08610
1151.811, 39.63535
1152.293, 38.57111
1152.775, 19.77090
1153.257, 9.712341
1153.739, 19.26906
1154.221, 28.27427
1154.703, 28.02749
1155.186, 27.54691
1155.668, 31.66730
1156.150, 35.27754
1156.632, 34.74835
1157.114, 30.68581
1157.596, 22.05244
1158.078, 8.485207
1158.560, 8.727829
1159.043, 30.89755
1159.525, 36.49226
1160.007, 16.22277
1160.489, 4.596916
1160.971, 16.65659
1161.453, 32.89217
1161.935, 35.13702
1162.417, 28.13874
1162.900, 21.27074
1163.382, 15.06876
1163.864, 12.47685
1164.346, 13.18700
1164.828, 16.81454
1165.310, 21.75676
1165.792, 22.12772
1166.274, 14.84675
1166.756, 10.90465
1167.239, 26.93917
1167.721, 42.98866
1168.203, 35.45376
1168.685, 19.83382
1169.167, 11.54511
1169.649, 9.731514
1170.131, 11.03546
1170.613, 14.25710
1171.095, 16.51980
1171.578, 16.47807
1172.060, 16.74270
1172.542, 19.72092
1173.024, 20.64716
1173.506, 15.97244
1173.988, 10.48057
1174.470, 6.164467
1174.952, 4.481735
1175.434, 8.748375
1175.917, 18.97388
1176.399, 28.38743
1176.881, 37.62629
1177.363, 37.99543
1177.845, 27.41718
1178.327, 20.44853
1178.809, 22.74123
1179.291, 28.27420
1179.774, 32.71781
1180.256, 33.41344
1180.738, 20.39725
1181.220, 23.57822
1181.702, 3.236313
1182.184, 15.93891
1182.666, 18.86097
1183.148, 11.39246
1183.630, 5.400841
1184.113, 5.314125
1184.595, 8.487663
1185.077, 14.57128
1185.559, 21.68224
1186.041, 32.32881
1186.523, 39.75950
1187.005, 36.59351
1187.487, 28.34703
1187.969, 21.12144
1188.452, 15.84878
1188.934, 13.98538
1189.416, 15.70776
1189.898, 23.00500
1190.380, 43.59851
1190.862, 50.55156
1191.344, 32.17793
1191.826, 17.66306
1192.309, 25.84039
1192.791, 12.17249
1193.273, 31.53117
1193.755, 11.01579
1194.237, 6.505249
1194.719, 16.19945
1195.201, 27.45184
1195.683, 38.16439
1196.166, 44.02129
1196.648, 44.06887
1197.130, 35.97808
1197.612, 16.65382
1198.094, 1.057190
1198.576, 7.735352
1199.058, 18.83394
1199.540, 18.84678
1200.022, 13.89092
1200.505, 7.980965
1200.987, 3.845207
1201.469, 8.128906
1201.951, 20.26842
1202.433, 22.06087
1202.915, 3.895737
1203.397, 13.82370
1203.879, 4.717888
1204.361, 22.22103
1204.844, 33.22861
1205.326, 36.15884
1205.808, 27.30989
1206.290, 14.76086
1206.772, 13.55735
1207.254, 21.58488
1207.736, 24.18612
1208.218, 21.93985
1208.701, 19.27544
1209.183, 16.99139
1209.665, 18.18601
1210.147, 22.90629
1210.629, 21.22758
1211.111, 4.710411
1211.593, 8.714096
1212.075, 3.370209
1212.557, 21.93774
1213.040, 29.78826
1213.522, 32.34856
1214.004, 37.41933
1214.486, 42.83894
1214.968, 41.70566
1215.450, 32.91341
1215.932, 26.67754
1216.414, 25.99299
1216.896, 25.55783
1217.379, 25.65775
1217.861, 24.75065
1218.343, 21.78204
1218.825, 18.78499
1219.307, 16.71707
1219.789, 16.83176
1220.271, 23.63992
1220.753, 33.94554
1221.236, 25.57510
1221.718, 3.608330
1222.200, 2.259827
1222.682, 7.368896
1223.164, 13.29038
1223.646, 10.95056
1224.128, 12.36152
1224.610, 25.67424
1225.093, 39.31573
1225.575, 44.95827
1226.057, 45.99774
1226.539, 45.17265
1227.021, 40.88866
1227.503, 25.28833
1227.985, 7.856071
1228.467, 9.846291
1228.949, 32.47867
1229.432, 43.80163
1229.914, 35.29330
1230.396, 35.21815
1230.878, 50.15189
1231.360, 52.50677
1231.842, 31.48230
1232.324, 13.63570
1232.806, 16.29927
1233.288, 29.03589
1233.771, 39.86234
1234.253, 46.52245
1234.735, 40.07736
1235.217, 26.04489
1235.699, 18.17630
1236.181, 15.93772
1236.663, 14.85106
1237.145, 14.07734
1237.628, 13.04454
1238.110, 10.76487
1238.592, 12.93201
1239.074, 21.24722
1239.556, 29.61105
1240.038, 39.52763
1240.520, 44.36825
1241.002, 32.16743
1241.484, 18.67794
1241.967, 24.38690
1242.449, 17.72412
1242.931, 15.15974
1243.413, 22.74435
1243.895, 13.99843
1244.377, 19.69431
1244.859, 25.64530
1245.341, 29.16371
1245.823, 29.92849
1246.306, 27.90838
1246.788, 25.85820
1247.270, 25.94907
1247.752, 26.54241
1248.234, 19.63722
1248.716, 13.92493
1249.198, 26.26994
1249.680, 40.60693
1250.163, 25.73335
1250.645, 5.733536
1251.127, 9.111511
1251.609, 25.78948
1252.091, 47.28723
1252.573, 42.57034
1253.055, 41.16679
1253.537, 48.51762
1254.020, 47.72759
1254.502, 30.08129
1254.984, 15.15401
1255.466, 18.79340
1255.948, 30.46487
1256.430, 32.27056
1256.912, 27.35231
1257.394, 23.92484
1257.876, 21.91231
1258.359, 23.03567
1258.841, 25.26875
1259.323, 20.35095
1259.805, 9.214325
1260.287, 6.652260
1260.769, 20.74635
1261.251, 33.98383
1261.733, 30.20278
1262.215, 33.28049
1262.698, 42.02273
1263.180, 46.80945
1263.662, 40.20045
1264.144, 29.68089
1264.626, 22.89160
1265.108, 19.30102
1265.590, 18.28284
1266.072, 18.96765
1266.555, 12.85365
1267.037, 3.019875
1267.519, 1.129837
1268.001, 1.459175
1268.483, 10.17567
1268.965, 23.75224
1269.447, 32.27155
1269.929, 21.04603
1270.411, 9.937637
1270.894, 6.063728
1271.376, 3.674759
1271.858, 0.0000000E+00
##END=



