##NAMES=Kolbeckite
##RRUFFID=R061040
##IDEAL CHEMISTRY=ScPO_4_&#183;2H_2_O
##LOCALITY=Christy Pit, Magnet Cove, Arkansas, USA
##OWNER=RRUFF
##SOURCE=Mark Mauthner
##DESCRIPTION=Green platy crystal, severely twinned, associated with quartz.
##STATUS=The identification of this mineral has been confirmed only by single crystal X-ray diffraction.
##URL=rruff.info/R061040
121.0400, 0.0000000E+00
121.5221, 2.497925
122.0043, 10.17493
122.4864, 36.48743
122.9685, 59.19006
123.4506, 70.50366
123.9327, 75.94617
124.4148, 78.01355
124.8969, 76.68567
125.3791, 77.71155
125.8612, 87.42322
126.3433, 102.3536
126.8254, 115.2375
127.3075, 124.1471
127.7896, 128.8054
128.2718, 127.1086
128.7539, 118.1481
129.2360, 108.0988
129.7181, 105.0627
130.2002, 107.8468
130.6823, 110.2145
131.1645, 105.8076
131.6466, 97.23926
132.1287, 96.35083
132.6108, 104.1377
133.0929, 119.1699
133.5750, 140.0845
134.0572, 167.4739
134.5393, 196.6125
135.0214, 224.0481
135.5035, 249.7520
135.9856, 280.3340
136.4677, 316.8196
136.9499, 358.6860
137.4320, 404.4158
137.9141, 455.3337
138.3962, 505.6355
138.8783, 552.1252
139.3604, 595.7625
139.8426, 629.3364
140.3247, 648.4104
140.8068, 651.8188
141.2889, 660.2576
141.7710, 675.9937
142.2531, 694.3469
142.7353, 709.6047
143.2174, 723.6418
143.6995, 730.3645
144.1816, 725.0173
144.6637, 697.8503
145.1458, 683.6948
145.6280, 689.7161
146.1101, 708.0217
146.5922, 715.8105
147.0743, 711.1431
147.5564, 697.8162
148.0385, 677.0950
148.5207, 638.6873
149.0028, 607.7551
149.4849, 589.3286
149.9670, 582.0706
150.4491, 570.6499
150.9312, 549.6306
151.4134, 527.7812
151.8955, 511.0771
152.3776, 503.5007
152.8597, 497.4727
153.3418, 492.2588
153.8239, 487.9478
154.3061, 484.4448
154.7882, 486.4976
155.2703, 487.8892
155.7524, 481.7600
156.2345, 455.5510
156.7166, 431.2922
157.1988, 417.1672
157.6809, 417.0618
158.1630, 417.0864
158.6451, 413.8391
159.1272, 408.2986
159.6093, 402.2612
160.0915, 397.5427
160.5736, 391.3083
161.0557, 381.9043
161.5378, 368.1660
162.0199, 352.3860
162.5020, 333.5806
162.9841, 312.9885
163.4663, 294.3159
163.9484, 282.8828
164.4305, 272.3196
164.9126, 257.4329
165.3947, 233.4106
165.8768, 208.2148
166.3590, 183.7302
166.8411, 160.7410
167.3232, 143.7869
167.8053, 138.6528
168.2874, 140.2576
168.7695, 142.4714
169.2517, 147.6763
169.7338, 149.7048
170.2159, 141.6692
170.6980, 123.0823
171.1801, 103.8293
171.6622, 87.71582
172.1444, 76.01099
172.6265, 71.08545
173.1086, 79.18945
173.5907, 92.37012
174.0728, 101.4387
174.5549, 104.8171
175.0371, 110.8303
175.5192, 124.4556
176.0013, 146.1519
176.4834, 168.3779
176.9655, 179.6262
177.4476, 186.3899
177.9298, 202.4019
178.4119, 229.0454
178.8940, 251.6289
179.3761, 272.6218
179.8582, 291.9133
180.3403, 308.2710
180.8225, 318.8892
181.3046, 325.0173
181.7867, 329.7261
182.2688, 332.8083
182.7509, 336.8428
183.2330, 347.5581
183.7152, 364.5725
184.1973, 381.1848
184.6794, 389.9531
185.1615, 392.6797
185.6436, 396.4805
186.1257, 403.9160
186.6079, 413.7249
187.0900, 423.5288
187.5721, 433.5364
188.0542, 441.6477
188.5363, 441.3469
189.0184, 434.2925
189.5006, 436.2256
189.9827, 459.7422
190.4648, 498.7524
190.9469, 524.2656
191.4290, 534.2969
191.9111, 536.1643
192.3932, 536.4995
192.8754, 535.2927
193.3575, 538.8081
193.8396, 551.7954
194.3217, 573.6560
194.8038, 594.0171
195.2859, 612.7607
195.7681, 629.7405
196.2502, 643.6042
196.7323, 653.5730
197.2144, 667.1746
197.6965, 691.7202
198.1786, 727.3691
198.6608, 754.1582
199.1429, 765.8005
199.6250, 771.9307
200.1071, 799.3862
200.5892, 851.9341
201.0714, 908.5605
201.5535, 953.0645
202.0356, 983.2083
202.5177, 1022.566
202.9998, 1075.506
203.4819, 1139.647
203.9641, 1200.338
204.4462, 1255.092
204.9283, 1313.992
205.4104, 1388.107
205.8925, 1481.879
206.3746, 1569.165
206.8568, 1645.389
207.3389, 1711.950
207.8210, 1776.609
208.3031, 1839.700
208.7852, 1901.476
209.2673, 1960.302
209.7495, 2013.347
210.2316, 2075.562
210.7137, 2156.982
211.1958, 2256.824
211.6779, 2331.339
212.1600, 2375.551
212.6422, 2403.083
213.1243, 2430.374
213.6064, 2460.260
214.0885, 2481.218
214.5706, 2492.117
215.0527, 2493.904
215.5349, 2473.932
216.0170, 2430.781
216.4991, 2367.234
216.9812, 2286.530
217.4633, 2188.325
217.9454, 2075.103
218.4276, 1944.766
218.9097, 1794.910
219.3918, 1643.689
219.8739, 1488.857
220.3560, 1336.191
220.8381, 1193.060
221.3203, 1060.176
221.8024, 938.1797
222.2845, 830.0366
222.7666, 738.9424
223.2487, 649.5452
223.7308, 560.6892
224.2129, 474.6111
224.6951, 396.7039
225.1772, 326.5996
225.6593, 264.0886
226.1414, 209.1570
226.6235, 165.3171
227.1056, 120.7812
227.5878, 70.20386
228.0699, 19.66772
228.5520, 13.60352
229.0341, 20.51782
229.5162, 23.04199
229.9983, 32.66797
230.4805, 53.63989
230.9626, 72.42456
231.4447, 88.80908
231.9268, 102.5071
232.4089, 111.7949
232.8910, 115.4980
233.3732, 116.5576
233.8553, 117.0403
234.3374, 119.0886
234.8195, 115.6028
235.3016, 102.3826
235.7837, 81.99805
236.2659, 72.30566
236.7480, 83.02856
237.2301, 92.54907
237.7122, 85.06958
238.1943, 49.88916
238.6764, 19.12256
239.1586, 2.750488
239.6407, 16.64844
240.1228, 32.53711
240.6049, 48.14160
241.0870, 68.47314
241.5691, 98.62085
242.0513, 146.1492
242.5334, 188.1807
243.0155, 216.4524
243.4976, 232.0479
243.9797, 267.0598
244.4618, 328.5916
244.9440, 401.0449
245.4261, 471.7546
245.9082, 540.3093
246.3903, 607.3347
246.8724, 671.4131
247.3545, 732.4575
247.8367, 799.8735
248.3188, 877.7612
248.8009, 956.7935
249.2830, 1026.654
249.7651, 1077.480
250.2472, 1137.963
250.7294, 1215.721
251.2115, 1311.561
251.6936, 1405.804
252.1757, 1502.792
252.6578, 1594.208
253.1399, 1672.365
253.6220, 1729.048
254.1042, 1790.562
254.5863, 1865.147
255.0684, 1954.534
255.5505, 2031.216
256.0326, 2095.737
256.5147, 2146.810
256.9969, 2184.801
257.4790, 2209.937
257.9611, 2221.471
258.4432, 2222.803
258.9253, 2215.256
259.4074, 2171.848
259.8896, 2080.347
260.3717, 1965.699
260.8538, 1853.375
261.3359, 1744.169
261.8180, 1634.473
262.3001, 1521.291
262.7823, 1405.085
263.2644, 1291.094
263.7465, 1176.612
264.2286, 1068.503
264.7107, 979.4678
265.1928, 911.7837
265.6750, 853.3013
266.1571, 801.0479
266.6392, 755.6509
267.1213, 713.6396
267.6034, 674.4412
268.0855, 640.0244
268.5677, 612.7981
269.0498, 592.9778
269.5319, 580.0823
270.0140, 575.9500
270.4961, 581.0278
270.9782, 582.2078
271.4604, 578.8364
271.9425, 572.7441
272.4246, 565.3389
272.9067, 555.7188
273.3888, 548.9182
273.8709, 548.5049
274.3531, 554.4084
274.8352, 552.3662
275.3173, 540.7336
275.7994, 524.0391
276.2815, 508.5759
276.7636, 495.2737
277.2458, 477.6726
277.7279, 449.3279
278.2100, 411.3264
278.6921, 392.2380
279.1742, 396.7976
279.6563, 408.6223
280.1385, 405.0779
280.6206, 384.7883
281.1027, 367.6040
281.5848, 362.2593
282.0669, 367.1348
282.5490, 366.1389
283.0312, 358.1238
283.5133, 348.0247
283.9954, 339.4851
284.4775, 332.4070
284.9596, 333.6047
285.4417, 348.6243
285.9239, 374.7117
286.4060, 393.4392
286.8881, 404.0371
287.3702, 415.4871
287.8523, 438.6060
288.3344, 472.2048
288.8166, 505.6379
289.2987, 533.3955
289.7808, 558.6196
290.2629, 593.7358
290.7450, 639.4233
291.2271, 689.8313
291.7093, 737.3726
292.1914, 783.0544
292.6735, 834.3953
293.1556, 890.6689
293.6377, 955.3728
294.1198, 1038.637
294.6020, 1140.983
295.0841, 1245.061
295.5662, 1331.524
296.0483, 1408.193
296.5304, 1496.354
297.0125, 1603.974
297.4947, 1726.539
297.9768, 1852.463
298.4589, 1983.514
298.9410, 2127.157
299.4231, 2293.292
299.9052, 2476.121
300.3873, 2657.674
300.8694, 2828.957
301.3516, 2997.204
301.8337, 3175.838
302.3158, 3365.255
302.7979, 3554.708
303.2800, 3733.234
303.7621, 3905.800
304.2443, 4087.283
304.7264, 4286.672
305.2085, 4487.862
305.6906, 4682.719
306.1727, 4868.769
306.6548, 5038.255
307.1370, 5171.554
307.6191, 5285.954
308.1012, 5404.630
308.5833, 5550.800
309.0654, 5684.159
309.5475, 5765.758
310.0297, 5802.761
310.5118, 5830.662
310.9939, 5877.640
311.4760, 5921.733
311.9581, 5941.536
312.4402, 5926.886
312.9224, 5891.578
313.4045, 5842.744
313.8866, 5780.162
314.3687, 5703.902
314.8508, 5603.037
315.3329, 5494.666
315.8151, 5391.742
316.2972, 5294.765
316.7793, 5205.252
317.2614, 5124.298
317.7435, 5050.783
318.2256, 4981.413
318.7078, 4912.298
319.1899, 4848.907
319.6720, 4795.923
320.1541, 4762.742
320.6362, 4723.628
321.1183, 4670.231
321.6005, 4606.187
322.0826, 4540.198
322.5647, 4491.608
323.0468, 4427.524
323.5289, 4331.216
324.0110, 4187.181
324.4932, 4039.621
324.9753, 3895.525
325.4574, 3753.062
325.9395, 3611.211
326.4216, 3460.811
326.9037, 3319.119
327.3859, 3193.896
327.8680, 3095.096
328.3501, 2986.906
328.8322, 2858.809
329.3143, 2726.010
329.7964, 2607.610
330.2786, 2504.765
330.7607, 2415.344
331.2428, 2343.088
331.7249, 2294.166
332.2070, 2231.337
332.6891, 2139.018
333.1713, 2044.077
333.6534, 1979.536
334.1355, 1964.223
334.6176, 1942.343
335.0997, 1897.836
335.5818, 1830.326
336.0640, 1776.213
336.5461, 1741.483
337.0282, 1711.511
337.5103, 1668.938
337.9924, 1608.162
338.4745, 1556.635
338.9567, 1522.941
339.4388, 1503.966
339.9209, 1477.852
340.4030, 1447.050
340.8851, 1402.554
341.3672, 1332.921
341.8494, 1235.424
342.3315, 1142.431
342.8136, 1058.094
343.2957, 982.1167
343.7778, 912.9988
344.2599, 852.2063
344.7421, 790.6472
345.2242, 719.6038
345.7063, 640.5071
346.1884, 571.8699
346.6705, 517.5640
347.1526, 472.2476
347.6348, 429.7668
348.1169, 389.9136
348.5990, 348.7080
349.0811, 300.7571
349.5632, 250.3010
350.0453, 207.3335
350.5275, 172.9949
351.0096, 146.9893
351.4917, 134.3354
351.9738, 131.1301
352.4559, 123.1934
352.9380, 96.63818
353.4202, 63.66748
353.9023, 43.28638
354.3844, 38.34644
354.8665, 33.72559
355.3486, 13.10498
355.8307, 15.71729
356.3129, 39.18262
356.7950, 48.33252
357.2771, 51.15820
357.7592, 51.16187
358.2413, 48.50317
358.7234, 50.29272
359.2056, 67.77441
359.6877, 89.57642
360.1698, 102.8091
360.6519, 97.89307
361.1340, 88.28638
361.6161, 75.38428
362.0982, 60.58936
362.5804, 55.13306
363.0625, 76.80200
363.5446, 101.5393
364.0267, 111.8992
364.5088, 94.67163
364.9909, 73.35645
365.4731, 46.58838
365.9552, 17.63037
366.4373, 0.3771970
366.9194, 3.396973
367.4015, 11.72412
367.8836, 16.87891
368.3658, 18.59106
368.8479, 16.81396
369.3300, 13.10938
369.8121, 5.759766
370.2942, 8.992676
370.7763, 36.50098
371.2585, 65.10181
371.7406, 91.64893
372.2227, 116.2925
372.7048, 136.9146
373.1869, 151.4619
373.6690, 163.2351
374.1512, 176.2373
374.6333, 189.1997
375.1154, 206.6790
375.5975, 231.2751
376.0796, 263.0710
376.5617, 292.9114
377.0439, 320.9707
377.5260, 346.6772
378.0081, 366.3274
378.4902, 378.9233
378.9723, 399.8311
379.4544, 434.9075
379.9366, 479.8042
380.4187, 521.6011
380.9008, 560.1133
381.3829, 596.2742
381.8650, 626.5190
382.3471, 653.6577
382.8293, 692.3931
383.3114, 748.9973
383.7935, 811.6089
384.2756, 861.4526
384.7577, 899.9104
385.2398, 937.4045
385.7220, 979.0935
386.2041, 1024.858
386.6862, 1076.624
387.1683, 1136.605
387.6504, 1194.572
388.1325, 1239.122
388.6147, 1274.607
389.0968, 1309.209
389.5789, 1348.555
390.0610, 1388.103
390.5431, 1421.192
391.0252, 1447.317
391.5074, 1478.421
391.9895, 1532.898
392.4716, 1592.972
392.9537, 1637.426
393.4358, 1651.612
393.9179, 1657.099
394.4001, 1658.532
394.8822, 1656.977
395.3643, 1659.850
395.8464, 1675.241
396.3285, 1692.062
396.8106, 1703.161
397.2928, 1710.572
397.7749, 1708.173
398.2570, 1684.450
398.7391, 1648.814
399.2212, 1630.375
399.7033, 1656.663
400.1855, 1674.857
400.6676, 1663.674
401.1497, 1607.667
401.6318, 1565.845
402.1139, 1545.714
402.5960, 1535.196
403.0782, 1516.192
403.5603, 1485.119
404.0424, 1453.436
404.5245, 1424.557
405.0066, 1398.720
405.4887, 1369.023
405.9709, 1333.029
406.4530, 1298.296
406.9351, 1273.503
407.4172, 1259.582
407.8993, 1242.625
408.3814, 1218.207
408.8636, 1189.911
409.3457, 1167.373
409.8278, 1150.533
410.3099, 1137.991
410.7920, 1130.570
411.2741, 1127.013
411.7563, 1121.066
412.2384, 1109.232
412.7205, 1102.180
413.2026, 1117.710
413.6847, 1149.549
414.1668, 1179.071
414.6490, 1191.267
415.1311, 1199.860
415.6132, 1224.580
416.0953, 1268.163
416.5774, 1311.220
417.0595, 1337.202
417.5417, 1353.943
418.0238, 1373.696
418.5059, 1400.347
418.9880, 1433.612
419.4701, 1474.004
419.9522, 1521.633
420.4344, 1572.767
420.9165, 1630.546
421.3986, 1685.896
421.8807, 1733.417
422.3628, 1758.943
422.8449, 1798.958
423.3270, 1865.399
423.8091, 1951.105
424.2913, 2038.998
424.7734, 2125.273
425.2555, 2211.342
425.7376, 2296.258
426.2197, 2378.138
426.7018, 2466.301
427.1840, 2566.285
427.6661, 2669.734
428.1482, 2764.932
428.6303, 2844.817
429.1124, 2933.627
429.5945, 3040.402
430.0767, 3162.047
430.5588, 3276.284
431.0409, 3381.365
431.5230, 3481.641
432.0051, 3578.493
432.4872, 3673.752
432.9694, 3775.923
433.4515, 3889.246
433.9336, 4006.477
434.4157, 4113.261
434.8978, 4210.167
435.3799, 4307.510
435.8621, 4415.979
436.3442, 4529.084
436.8263, 4632.285
437.3084, 4726.150
437.7905, 4805.310
438.2726, 4858.037
438.7548, 4892.640
439.2369, 4925.467
439.7190, 4971.377
440.2011, 5011.570
440.6832, 5027.393
441.1653, 5020.841
441.6475, 5008.146
442.1296, 5006.529
442.6117, 4997.802
443.0938, 4966.625
443.5759, 4894.226
444.0580, 4823.161
444.5402, 4780.702
445.0223, 4748.708
445.5044, 4688.813
445.9865, 4557.986
446.4686, 4429.719
446.9507, 4332.933
447.4329, 4280.555
447.9150, 4219.662
448.3971, 4149.406
448.8792, 4071.357
449.3613, 3983.564
449.8434, 3877.098
450.3256, 3778.448
450.8077, 3695.757
451.2898, 3625.546
451.7719, 3548.301
452.2540, 3461.518
452.7361, 3375.956
453.2183, 3297.452
453.7004, 3226.745
454.1825, 3160.060
454.6646, 3098.891
455.1467, 3039.202
455.6288, 2977.049
456.1110, 2912.108
456.5931, 2842.532
457.0752, 2761.119
457.5573, 2676.601
458.0394, 2616.400
458.5215, 2580.305
459.0037, 2540.807
459.4858, 2464.327
459.9679, 2370.380
460.4500, 2294.256
460.9321, 2253.844
461.4142, 2220.415
461.8964, 2175.081
462.3785, 2119.573
462.8606, 2059.114
463.3427, 1985.047
463.8248, 1913.671
464.3069, 1859.214
464.7891, 1829.519
465.2712, 1790.249
465.7533, 1722.623
466.2354, 1644.344
466.7175, 1577.242
467.1996, 1535.534
467.6818, 1492.531
468.1639, 1443.944
468.6460, 1390.395
469.1281, 1332.191
469.6102, 1265.660
470.0923, 1199.355
470.5745, 1137.513
471.0566, 1080.901
471.5387, 1027.389
472.0208, 976.9734
472.5029, 929.5322
472.9850, 885.4556
473.4672, 845.4253
473.9493, 801.7966
474.4314, 748.7600
474.9135, 689.5105
475.3956, 638.0881
475.8777, 594.4578
476.3599, 554.4036
476.8420, 515.0422
477.3241, 476.3674
477.8062, 438.3171
478.2883, 400.5835
478.7704, 364.8010
479.2526, 332.8396
479.7347, 304.2424
480.2168, 278.2493
480.6989, 253.7068
481.1810, 231.5798
481.6631, 213.5210
482.1453, 200.3103
482.6274, 185.9458
483.1095, 164.2397
483.5916, 141.4978
484.0737, 124.7729
484.5558, 125.0264
485.0379, 120.6792
485.5201, 104.7361
486.0022, 78.97363
486.4843, 57.07837
486.9664, 37.36182
487.4485, 23.59863
487.9306, 19.76343
488.4128, 34.03833
488.8949, 32.64844
489.3770, 9.926758
489.8591, 21.58447
490.3412, 43.69751
490.8233, 55.87402
491.3055, 63.00977
491.7876, 65.46191
492.2697, 64.16357
492.7518, 61.62109
493.2339, 57.78613
493.7160, 55.20483
494.1982, 55.67065
494.6803, 59.02051
495.1624, 65.42456
495.6445, 75.96240
496.1266, 86.50098
496.6087, 94.58057
497.0909, 99.59424
497.5730, 100.4062
498.0551, 96.15308
498.5372, 87.63550
499.0193, 70.81372
499.5014, 46.46387
499.9836, 31.59253
500.4657, 44.39990
500.9478, 62.42676
501.4299, 69.46484
501.9120, 52.53198
502.3941, 38.60107
502.8763, 35.95337
503.3584, 38.14551
503.8405, 30.82300
504.3226, 3.305420
504.8047, 18.72583
505.2868, 26.98779
505.7690, 20.95093
506.2511, 14.17310
506.7332, 4.208252
507.2153, 1.520020
507.6974, 5.678711
508.1795, 26.29761
508.6617, 45.01489
509.1438, 58.46558
509.6259, 70.70801
510.1080, 93.06519
510.5901, 123.7427
511.0722, 147.2866
511.5544, 147.6621
512.0365, 138.3220
512.5186, 141.8411
513.0007, 158.9187
513.4828, 179.4944
513.9650, 199.6206
514.4471, 217.3679
514.9292, 229.3650
515.4113, 226.3987
515.8934, 229.7766
516.3755, 254.9268
516.8576, 294.0366
517.3397, 328.6980
517.8218, 354.9553
518.3040, 375.0059
518.7861, 386.2800
519.2682, 385.0220
519.7503, 395.6360
520.2324, 425.3704
520.7145, 461.0742
521.1967, 492.1001
521.6788, 517.4697
522.1609, 541.3083
522.6430, 563.6724
523.1251, 585.1570
523.6072, 605.6592
524.0894, 624.4827
524.5715, 647.5522
525.0536, 680.5283
525.5357, 720.3950
526.0178, 755.8884
526.4999, 787.1653
526.9821, 813.1384
527.4642, 829.4456
527.9463, 840.3096
528.4284, 852.8464
528.9105, 866.2800
529.3926, 886.9368
529.8748, 926.8525
530.3569, 978.5076
530.8390, 1022.989
531.3211, 1048.469
531.8032, 1067.617
532.2853, 1082.629
532.7675, 1092.736
533.2496, 1116.126
533.7317, 1168.174
534.2138, 1227.771
534.6959, 1280.014
535.1780, 1315.607
535.6602, 1357.908
536.1423, 1413.244
536.6244, 1473.603
537.1065, 1523.208
537.5886, 1560.197
538.0707, 1590.371
538.5529, 1609.933
539.0350, 1622.532
539.5171, 1663.942
539.9992, 1737.397
540.4813, 1812.748
540.9634, 1864.118
541.4456, 1896.504
541.9277, 1920.887
542.4098, 1934.340
542.8919, 1954.519
543.3740, 2009.923
543.8561, 2086.439
544.3383, 2152.783
544.8204, 2190.000
545.3025, 2216.355
545.7846, 2234.477
546.2667, 2247.165
546.7488, 2278.480
547.2310, 2357.030
547.7131, 2439.885
548.1952, 2504.154
548.6773, 2543.991
549.1594, 2571.248
549.6415, 2575.534
550.1237, 2573.985
550.6058, 2592.006
551.0879, 2640.891
551.5700, 2680.962
552.0521, 2699.806
552.5342, 2703.023
553.0164, 2718.709
553.4985, 2748.203
553.9806, 2778.466
554.4627, 2802.030
554.9448, 2819.868
555.4269, 2836.365
555.9091, 2853.081
556.3912, 2863.192
556.8733, 2854.022
557.3554, 2834.684
557.8375, 2820.879
558.3196, 2818.984
558.8018, 2819.162
559.2839, 2817.828
559.7660, 2815.729
560.2481, 2810.544
560.7302, 2802.168
561.2123, 2788.224
561.6945, 2764.429
562.1766, 2727.440
562.6587, 2704.156
563.1408, 2700.431
563.6229, 2706.521
564.1050, 2717.985
564.5872, 2745.066
565.0693, 2750.201
565.5514, 2724.516
566.0335, 2680.983
566.5156, 2647.167
566.9977, 2623.469
567.4799, 2605.965
567.9620, 2594.902
568.4441, 2588.615
568.9262, 2584.289
569.4083, 2581.730
569.8904, 2575.885
570.3726, 2556.532
570.8547, 2533.699
571.3368, 2523.479
571.8189, 2532.642
572.3010, 2539.443
572.7831, 2527.045
573.2653, 2504.387
573.7474, 2484.269
574.2295, 2475.116
574.7116, 2464.009
575.1937, 2446.568
575.6758, 2423.522
576.1580, 2400.591
576.6401, 2375.278
577.1222, 2353.242
577.6043, 2338.233
578.0864, 2332.198
578.5685, 2320.196
579.0507, 2302.196
579.5328, 2278.403
580.0149, 2242.886
580.4970, 2196.760
580.9791, 2169.457
581.4612, 2173.776
581.9434, 2183.587
582.4255, 2152.433
582.9076, 2089.566
583.3897, 2029.052
583.8718, 1983.519
584.3539, 1951.271
584.8361, 1938.136
585.3182, 1941.790
585.8003, 1935.863
586.2824, 1900.411
586.7645, 1855.538
587.2466, 1814.721
587.7288, 1781.217
588.2109, 1748.979
588.6930, 1716.823
589.1751, 1685.864
589.6572, 1658.089
590.1393, 1637.554
590.6215, 1610.855
591.1036, 1572.081
591.5857, 1527.011
592.0678, 1498.414
592.5499, 1488.907
593.0320, 1474.500
593.5142, 1436.648
593.9963, 1383.030
594.4784, 1344.146
594.9605, 1320.150
595.4426, 1300.712
595.9247, 1278.935
596.4069, 1255.234
596.8890, 1229.702
597.3711, 1200.798
597.8532, 1173.586
598.3353, 1151.741
598.8174, 1132.711
599.2996, 1112.444
599.7817, 1094.215
600.2638, 1070.274
600.7459, 1036.444
601.2280, 993.7512
601.7101, 951.8489
602.1923, 907.4463
602.6744, 870.0593
603.1565, 846.4521
603.6386, 837.6943
604.1207, 829.5864
604.6028, 823.9253
605.0850, 811.7927
605.5671, 773.5889
606.0492, 716.6641
606.5313, 684.2625
607.0134, 693.2625
607.4955, 710.3701
607.9777, 693.1433
608.4598, 652.2268
608.9419, 612.4871
609.4240, 585.6814
609.9061, 565.2070
610.3882, 550.1328
610.8704, 538.9163
611.3525, 523.7534
611.8346, 497.5422
612.3167, 472.7703
612.7988, 455.4746
613.2809, 445.4395
613.7631, 437.6323
614.2452, 434.6790
614.7273, 433.5823
615.2094, 429.4014
615.6915, 419.6057
616.1736, 412.3115
616.6558, 411.4001
617.1379, 408.7788
617.6200, 385.5200
618.1021, 346.3845
618.5842, 317.7397
619.0663, 318.2983
619.5485, 329.6934
620.0306, 329.3086
620.5127, 319.0098
620.9948, 310.6299
621.4769, 319.8142
621.9590, 326.1252
622.4412, 311.9810
622.9233, 268.3967
623.4054, 240.2451
623.8875, 251.8418
624.3696, 270.5732
624.8517, 269.8159
625.3339, 236.0015
625.8160, 215.7295
626.2981, 217.2935
626.7802, 228.3826
627.2623, 224.5764
627.7444, 204.4893
628.2266, 185.8342
628.7087, 174.4556
629.1908, 168.5664
629.6729, 166.9758
630.1550, 168.9734
630.6371, 168.4993
631.1193, 156.9089
631.6014, 143.5405
632.0835, 140.4182
632.5656, 149.3943
633.0477, 154.1489
633.5298, 143.5459
634.0120, 127.1340
634.4941, 113.2825
634.9762, 103.1433
635.4583, 96.10010
635.9404, 90.07397
636.4225, 87.42871
636.9047, 94.77734
637.3868, 118.2043
637.8689, 130.6272
638.3510, 123.0977
638.8331, 102.9744
639.3152, 90.82739
639.7973, 86.53711
640.2794, 82.35889
640.7615, 70.68286
641.2437, 57.46118
641.7258, 55.41089
642.2079, 64.11572
642.6900, 69.34912
643.1721, 56.33276
643.6542, 39.23560
644.1364, 30.53174
644.6185, 35.80444
645.1006, 40.12964
645.5827, 39.37134
646.0648, 36.34351
646.5469, 34.10742
647.0291, 32.68774
647.5112, 31.81714
647.9933, 32.47046
648.4754, 32.73901
648.9575, 26.12549
649.4396, 11.61963
649.9218, 3.788330
650.4039, 12.80908
650.8860, 29.42847
651.3681, 30.08105
651.8502, 16.76929
652.3323, 4.729492
652.8145, 6.803955
653.2966, 13.41235
653.7787, 14.96509
654.2608, 10.07495
654.7429, 5.597412
655.2250, 4.039063
655.7072, 4.176025
656.1893, 5.358887
656.6714, 11.84399
657.1535, 11.70508
657.6356, 0.1706540
658.1177, 14.64771
658.5999, 16.59204
659.0820, 2.477051
659.5641, 4.324463
660.0462, 3.077148
660.5283, 18.05688
661.0104, 27.75171
661.4926, 32.53223
661.9747, 34.88599
662.4568, 37.39380
662.9389, 37.28027
663.4210, 26.83691
663.9031, 8.212646
664.3853, 2.616943
664.8674, 12.63867
665.3495, 30.55762
665.8316, 35.67798
666.3137, 22.24341
666.7958, 12.74634
667.2780, 11.19360
667.7601, 11.82275
668.2422, 9.138672
668.7243, 0.4248050
669.2064, 1.227051
669.6885, 16.04932
670.1707, 33.99536
670.6528, 35.31921
671.1349, 23.30383
671.6170, 21.27588
672.0991, 43.64148
672.5812, 68.21301
673.0634, 66.30029
673.5455, 44.54907
674.0276, 21.23511
674.5097, 4.074341
674.9918, 20.39819
675.4739, 17.06628
675.9561, 4.335449
676.4382, 19.76184
676.9203, 24.13977
677.4024, 23.88684
677.8845, 21.24365
678.3666, 16.21790
678.8488, 7.829346
679.3309, 6.152100
679.8130, 17.22986
680.2951, 13.93958
680.7772, 0.3889160
681.2593, 4.057129
681.7415, 7.587891
682.2236, 20.24268
682.7057, 17.19409
683.1878, 5.010986
683.6699, 5.288208
684.1520, 11.38806
684.6342, 13.36401
685.1163, 9.754517
685.5984, 2.178833
686.0805, 6.003052
686.5626, 16.59387
687.0447, 24.90381
687.5269, 28.30432
688.0090, 28.58679
688.4911, 37.06201
688.9732, 57.64343
689.4553, 70.40234
689.9374, 58.84692
690.4196, 30.75549
690.9017, 23.65405
691.3838, 37.04871
691.8659, 49.72644
692.3480, 40.80029
692.8301, 24.56042
693.3123, 18.65442
693.7944, 26.47302
694.2765, 36.79834
694.7586, 48.90552
695.2407, 59.04089
695.7228, 63.91431
696.2050, 60.79626
696.6871, 55.78442
697.1692, 45.55188
697.6513, 36.39636
698.1334, 39.27661
698.6155, 56.41321
699.0977, 68.45850
699.5798, 70.74524
700.0619, 67.49658
700.5440, 65.38135
701.0261, 64.36108
701.5082, 64.29102
701.9904, 66.01147
702.4725, 67.92322
702.9546, 67.17297
703.4367, 64.96411
703.9188, 66.38977
704.4009, 76.16406
704.8831, 87.26978
705.3652, 99.80090
705.8473, 114.3934
706.3294, 112.9810
706.8115, 86.19714
707.2936, 60.69507
707.7758, 54.99329
708.2579, 69.15759
708.7400, 77.89062
709.2221, 80.70007
709.7042, 78.76599
710.1863, 69.12122
710.6685, 56.40198
711.1506, 49.44092
711.6327, 49.88489
712.1148, 55.94885
712.5969, 69.16284
713.0790, 86.22876
713.5612, 103.2615
714.0433, 123.2037
714.5254, 137.7195
715.0075, 144.4470
715.4896, 146.1976
715.9717, 147.4221
716.4539, 148.0934
716.9360, 150.3938
717.4181, 156.0848
717.9002, 161.6449
718.3823, 155.9913
718.8644, 140.6843
719.3466, 126.5480
719.8287, 119.4958
720.3108, 116.6237
720.7929, 115.3608
721.2750, 116.4061
721.7571, 120.7203
722.2393, 132.3298
722.7214, 141.8033
723.2035, 142.6927
723.6856, 134.2056
724.1677, 132.2300
724.6498, 140.9375
725.1320, 148.6704
725.6141, 145.8175
726.0962, 131.7839
726.5783, 129.0879
727.0604, 138.9076
727.5425, 150.5112
728.0247, 153.0820
728.5068, 151.3057
728.9889, 155.0023
729.4710, 167.3971
729.9531, 173.4849
730.4352, 159.6281
730.9174, 138.4370
731.3995, 123.1191
731.8816, 115.1168
732.3637, 115.6832
732.8458, 129.8939
733.3279, 147.4711
733.8101, 150.4191
734.2922, 135.2223
734.7743, 121.6184
735.2564, 112.9368
735.7385, 110.0032
736.2206, 119.1133
736.7028, 137.5093
737.1849, 150.3204
737.6670, 147.4091
738.1491, 137.4366
738.6312, 125.0835
739.1133, 111.7776
739.5955, 102.7839
740.0776, 98.53564
740.5597, 99.13989
741.0418, 107.4905
741.5239, 122.2476
742.0060, 130.5851
742.4882, 131.9119
742.9703, 129.0114
743.4524, 120.5947
743.9345, 108.0587
744.4166, 104.9225
744.8987, 111.0671
745.3809, 119.7228
745.8630, 129.0361
746.3451, 136.2482
746.8272, 136.1688
747.3093, 127.5054
747.7914, 118.8461
748.2736, 112.1853
748.7557, 108.4062
749.2378, 109.9633
749.7199, 123.9363
750.2020, 125.8866
750.6841, 112.8085
751.1663, 91.32886
751.6484, 61.42224
752.1305, 22.85254
752.6126, 14.14417
753.0947, 45.24243
753.5768, 86.99634
754.0590, 104.3346
754.5411, 105.6549
755.0232, 107.7356
755.5053, 119.0272
755.9874, 126.0248
756.4695, 115.0679
756.9517, 96.54626
757.4338, 87.45496
757.9159, 105.6555
758.3980, 112.1136
758.8801, 96.56702
759.3622, 70.09583
759.8444, 59.60938
760.3265, 66.78076
760.8086, 70.78796
761.2907, 58.65796
761.7728, 46.80481
762.2549, 82.02222
762.7370, 147.7281
763.2191, 183.1548
763.7012, 122.7443
764.1833, 52.71814
764.6655, 26.79346
765.1476, 39.62585
765.6297, 53.37183
766.1118, 68.19092
766.5939, 75.13635
767.0760, 68.08008
767.5582, 48.88562
768.0403, 41.24182
768.5224, 46.58081
769.0045, 53.37695
769.4866, 54.77051
769.9688, 52.62769
770.4509, 51.27051
770.9330, 50.64795
771.4151, 49.66357
771.8972, 47.95471
772.3793, 45.35999
772.8615, 41.20667
773.3436, 35.09583
773.8257, 30.90320
774.3078, 31.33594
774.7899, 31.77698
775.2720, 29.20251
775.7542, 22.81714
776.2363, 19.68408
776.7184, 20.39734
777.2005, 21.80701
777.6826, 19.88171
778.1647, 16.50940
778.6469, 16.68762
779.1290, 21.29541
779.6111, 26.54224
780.0932, 33.49622
780.5753, 37.75244
781.0574, 34.12183
781.5396, 15.23926
782.0217, 1.847290
782.5038, 5.933228
782.9859, 6.797729
783.4680, 3.749756
783.9501, 28.99353
784.4323, 41.72656
784.9144, 36.63684
785.3965, 26.50073
785.8786, 30.47693
786.3607, 42.51624
786.8428, 46.80530
787.3250, 36.29590
787.8071, 24.12695
788.2892, 15.52722
788.7713, 11.50793
789.2534, 13.35962
789.7355, 33.80408
790.2177, 42.94873
790.6998, 31.60620
791.1819, 12.56970
791.6640, 8.571045
792.1461, 21.32239
792.6282, 29.38892
793.1104, 27.58337
793.5925, 19.60291
794.0746, 7.196899
794.5567, 6.906494
795.0388, 16.46057
795.5209, 19.83252
796.0031, 16.64624
796.4852, 1.871582
796.9673, 19.21448
797.4494, 34.58020
797.9315, 40.11597
798.4136, 44.66516
798.8958, 51.35242
799.3779, 57.24060
799.8600, 51.13770
800.3421, 33.02722
800.8242, 18.70312
801.3063, 15.27795
801.7885, 17.87134
802.2706, 22.58789
802.7527, 27.64636
803.2348, 28.03613
803.7169, 12.71875
804.1990, 1.118408
804.6812, 5.051392
805.1633, 20.85181
805.6454, 29.99683
806.1275, 30.72815
806.6096, 28.22705
807.0917, 22.45142
807.5739, 15.23718
808.0560, 14.65698
808.5381, 20.06055
809.0202, 23.35327
809.5023, 13.85266
809.9844, 4.273804
810.4666, 13.13843
810.9487, 35.74023
811.4308, 51.44202
811.9129, 49.90125
812.3950, 42.32434
812.8771, 29.16138
813.3593, 12.34729
813.8414, 6.812988
814.3235, 15.67468
814.8056, 24.73059
815.2877, 28.01477
815.7698, 26.66931
816.2520, 20.49255
816.7341, 11.21326
817.2162, 10.07495
817.6983, 33.76025
818.1804, 60.58691
818.6625, 74.15283
819.1447, 74.81921
819.6268, 70.95898
820.1089, 59.00415
820.5910, 48.73376
821.0731, 44.60876
821.5552, 45.57996
822.0374, 38.23755
822.5195, 20.83691
823.0016, 10.76709
823.4837, 24.46851
823.9658, 49.75842
824.4479, 63.47742
824.9301, 66.68359
825.4122, 67.02441
825.8943, 69.36707
826.3764, 69.44836
826.8585, 62.86462
827.3406, 49.46545
827.8228, 41.64917
828.3049, 41.20459
828.7870, 43.20740
829.2691, 44.91980
829.7512, 47.16895
830.2333, 57.87012
830.7155, 76.52393
831.1976, 89.32214
831.6797, 79.68665
832.1618, 64.69165
832.6439, 64.76721
833.1260, 78.72510
833.6082, 88.78601
834.0903, 87.93591
834.5724, 82.63391
835.0545, 73.41772
835.5366, 60.85071
836.0187, 56.94690
836.5009, 63.46545
836.9830, 70.90881
837.4651, 76.53052
837.9472, 78.62964
838.4293, 67.20325
838.9114, 45.11902
839.3936, 32.19714
839.8757, 50.67798
840.3578, 73.45630
840.8399, 82.89893
841.3220, 78.80811
841.8041, 76.92566
842.2863, 80.80872
842.7684, 82.62109
843.2505, 78.60596
843.7326, 69.87622
844.2147, 62.85181
844.6968, 57.54468
845.1790, 54.28748
845.6611, 57.10242
846.1432, 59.68286
846.6253, 49.19617
847.1074, 29.53552
847.5895, 21.85217
848.0717, 48.87341
848.5538, 74.50586
849.0359, 85.39331
849.5180, 83.02332
850.0001, 73.52930
850.4822, 53.35498
850.9644, 42.83264
851.4465, 57.48169
851.9286, 84.56702
852.4107, 89.98474
852.8928, 78.06714
853.3749, 67.76514
853.8571, 72.17371
854.3392, 79.23120
854.8213, 83.74817
855.3034, 84.94897
855.7855, 78.80762
856.2676, 57.20557
856.7498, 44.14697
857.2319, 47.19653
857.7140, 61.03564
858.1961, 75.12231
858.6782, 89.69604
859.1603, 101.5350
859.6425, 109.2622
860.1246, 113.0372
860.6067, 111.1064
861.0888, 105.4548
861.5709, 101.0173
862.0530, 91.45679
862.5352, 92.26050
863.0173, 115.4764
863.4994, 149.1699
863.9815, 159.6587
864.4636, 143.7776
864.9457, 127.4755
865.4279, 117.3201
865.9100, 113.8721
866.3921, 113.4064
866.8742, 120.6157
867.3563, 146.0560
867.8384, 234.1748
868.3206, 293.8602
868.8027, 267.4858
869.2848, 196.4872
869.7669, 159.4440
870.2490, 167.4697
870.7311, 178.1553
871.2133, 187.4703
871.6954, 193.3221
872.1775, 191.9156
872.6596, 185.1652
873.1417, 174.7354
873.6238, 154.5292
874.1060, 139.6746
874.5881, 145.5168
875.0702, 165.4551
875.5523, 188.2052
876.0344, 223.2009
876.5165, 239.4957
876.9987, 230.6108
877.4808, 209.1006
877.9629, 186.5051
878.4450, 165.1101
878.9271, 166.4921
879.4092, 198.2443
879.8914, 231.5732
880.3735, 230.7959
880.8556, 215.6733
881.3377, 212.8075
881.8198, 233.0502
882.3019, 244.8550
882.7841, 237.0593
883.2662, 228.7908
883.7483, 232.6958
884.2304, 249.7659
884.7125, 257.8628
885.1946, 256.0850
885.6768, 251.9401
886.1588, 251.8702
886.6409, 253.2745
887.1230, 251.4633
887.6052, 245.7213
888.0873, 243.4020
888.5694, 246.9946
889.0515, 255.9811
889.5336, 273.7542
890.0157, 302.1643
890.4979, 311.5922
890.9800, 298.3611
891.4621, 281.2568
891.9442, 271.8883
892.4263, 268.0176
892.9084, 263.5659
893.3906, 258.7119
893.8727, 257.2301
894.3548, 269.0608
894.8369, 277.7277
895.3190, 270.0518
895.8011, 247.4768
896.2833, 234.9487
896.7654, 236.1201
897.2475, 238.0560
897.7296, 236.6115
898.2117, 232.3507
898.6938, 226.6578
899.1760, 219.3998
899.6581, 209.9446
900.1402, 193.7791
900.6223, 179.3857
901.1044, 172.0806
901.5865, 170.7740
902.0687, 173.5227
902.5508, 186.8430
903.0329, 190.9954
903.5150, 179.3733
903.9971, 160.7568
904.4792, 154.5291
904.9614, 158.3611
905.4435, 158.7336
905.9256, 151.4009
906.4077, 140.9963
906.8898, 129.2158
907.3719, 117.5999
907.8541, 108.2676
908.3362, 103.1389
908.8183, 98.26855
909.3004, 93.31152
909.7825, 89.26831
910.2646, 87.33911
910.7468, 87.32739
911.2289, 88.48608
911.7110, 91.18677
912.1931, 91.73535
912.6752, 86.85669
913.1573, 77.95068
913.6395, 63.39404
914.1216, 38.40723
914.6037, 30.08716
915.0858, 59.79517
915.5679, 86.59351
916.0500, 83.11011
916.5322, 49.96460
917.0143, 29.83423
917.4964, 22.89771
917.9785, 20.46655
918.4606, 15.35400
918.9427, 11.99365
919.4249, 18.91626
919.9070, 34.44604
920.3891, 42.71802
920.8712, 30.57959
921.3533, 20.00146
921.8354, 19.14453
922.3176, 25.07080
922.7997, 24.53101
923.2818, 17.32544
923.7639, 8.625732
924.2460, 2.657715
924.7281, 10.49902
925.2103, 0.7519530
925.6924, 17.66431
926.1745, 24.73657
926.6566, 2.870361
927.1387, 21.59766
927.6208, 19.94653
928.1030, 7.590332
928.5851, 3.160156
929.0672, 12.77881
929.5493, 10.32178
930.0314, 9.221436
930.5135, 29.23047
930.9957, 23.99756
931.4778, 8.860352
931.9599, 7.808350
932.4420, 34.22241
932.9241, 51.30054
933.4063, 46.38013
933.8884, 32.99609
934.3705, 16.49121
934.8526, 4.669678
935.3347, 9.507568
935.8168, 2.807129
936.2990, 23.14795
936.7811, 53.45630
937.2632, 81.86743
937.7453, 93.03467
938.2274, 86.28418
938.7095, 70.69458
939.1917, 27.87671
939.6738, 0.7312010
940.1559, 11.32007
940.6380, 51.53564
941.1201, 71.36230
941.6022, 70.31396
942.0844, 67.28223
942.5665, 72.67041
943.0486, 79.16162
943.5307, 77.64917
944.0128, 70.33301
944.4949, 62.41309
944.9771, 55.03271
945.4592, 47.75586
945.9413, 39.91162
946.4234, 32.66968
946.9055, 27.84692
947.3876, 25.40601
947.8698, 23.75806
948.3519, 22.78149
948.8340, 21.87915
949.3161, 22.40845
949.7982, 21.86450
950.2803, 16.16797
950.7625, 1.691406
951.2446, 8.932617
951.7267, 11.06714
952.2088, 12.66821
952.6909, 20.42334
953.1730, 34.15479
953.6552, 39.34326
954.1373, 35.84619
954.6194, 35.31201
955.1015, 51.53613
955.5836, 70.61694
956.0657, 75.84863
956.5479, 69.17139
957.0300, 74.96265
957.5121, 106.9128
957.9942, 136.1775
958.4763, 152.4890
958.9584, 161.6643
959.4406, 182.4580
959.9227, 213.0059
960.4048, 240.0322
960.8869, 255.4514
961.3690, 269.2798
961.8511, 292.2104
962.3333, 318.0439
962.8154, 336.9795
963.2975, 335.6426
963.7796, 348.5779
964.2617, 379.7102
964.7438, 421.3286
965.2260, 468.8162
965.7081, 518.9622
966.1902, 554.7971
966.6723, 573.2275
967.1544, 592.7571
967.6365, 623.5234
968.1187, 662.5166
968.6008, 707.8862
969.0829, 760.6045
969.5650, 813.6978
970.0471, 869.0786
970.5292, 920.1682
971.0114, 960.7805
971.4935, 996.4807
971.9756, 1042.940
972.4577, 1098.808
972.9398, 1160.563
973.4219, 1224.027
973.9041, 1294.022
974.3862, 1379.593
974.8683, 1471.712
975.3504, 1550.969
975.8325, 1614.347
976.3146, 1682.400
976.7968, 1758.325
977.2789, 1842.498
977.7610, 1940.670
978.2431, 2046.177
978.7252, 2145.694
979.2073, 2231.550
979.6895, 2330.658
980.1716, 2457.084
980.6537, 2594.203
981.1358, 2730.412
981.6179, 2865.042
982.1000, 3015.495
982.5822, 3184.376
983.0643, 3350.834
983.5464, 3486.921
984.0285, 3619.866
984.5106, 3777.128
984.9927, 3957.476
985.4749, 4151.472
985.9570, 4359.190
986.4391, 4579.013
986.9212, 4811.283
987.4033, 5053.684
987.8854, 5306.213
988.3676, 5568.923
988.8497, 5843.524
989.3318, 6128.535
989.8139, 6431.772
990.2960, 6776.167
990.7781, 7136.013
991.2603, 7470.793
991.7424, 7760.758
992.2245, 8077.033
992.7066, 8424.541
993.1887, 8787.291
993.6708, 9153.076
994.1530, 9523.249
994.6351, 9915.968
995.1172, 10329.12
995.5993, 10727.27
996.0814, 11062.37
996.5635, 11399.81
997.0457, 11784.56
997.5278, 12203.46
998.0099, 12593.49
998.4920, 12950.79
998.9741, 13306.39
999.4562, 13671.84
999.9384, 14034.46
1000.420, 14372.46
1000.903, 14690.41
1001.385, 15005.58
1001.867, 15324.00
1002.349, 15631.63
1002.831, 15923.06
1003.313, 16204.69
1003.795, 16476.27
1004.277, 16739.91
1004.760, 17000.79
1005.242, 17262.53
1005.724, 17504.43
1006.206, 17709.81
1006.688, 17896.71
1007.170, 18090.18
1007.652, 18286.37
1008.134, 18449.72
1008.616, 18575.45
1009.099, 18676.10
1009.581, 18749.04
1010.063, 18806.91
1010.545, 18891.82
1011.027, 18989.73
1011.509, 19047.27
1011.991, 19043.19
1012.473, 19007.51
1012.955, 18956.31
1013.438, 18880.66
1013.920, 18767.48
1014.402, 18603.75
1014.884, 18466.37
1015.366, 18361.01
1015.848, 18246.82
1016.330, 18101.63
1016.812, 17920.78
1017.294, 17684.67
1017.777, 17401.54
1018.259, 17127.11
1018.741, 16904.04
1019.223, 16659.58
1019.705, 16367.56
1020.187, 16045.95
1020.669, 15728.70
1021.151, 15419.83
1021.634, 15144.54
1022.116, 14919.99
1022.598, 14697.26
1023.080, 14403.83
1023.562, 14103.41
1024.044, 13875.17
1024.526, 13770.99
1025.008, 13609.16
1025.490, 13368.93
1025.973, 13122.75
1026.455, 12923.25
1026.937, 12756.62
1027.419, 12585.24
1027.901, 12409.56
1028.383, 12243.86
1028.865, 12083.51
1029.347, 11944.43
1029.830, 11836.23
1030.312, 11752.15
1030.794, 11685.98
1031.276, 11640.35
1031.758, 11570.71
1032.240, 11462.79
1032.722, 11360.96
1033.204, 11310.84
1033.687, 11294.74
1034.169, 11298.95
1034.651, 11332.87
1035.133, 11327.99
1035.615, 11250.44
1036.097, 11189.17
1036.579, 11197.07
1037.061, 11255.01
1037.543, 11297.56
1038.026, 11325.70
1038.508, 11343.77
1038.990, 11353.63
1039.472, 11354.19
1039.954, 11338.37
1040.436, 11316.27
1040.918, 11309.14
1041.400, 11326.14
1041.882, 11306.96
1042.365, 11242.19
1042.847, 11161.13
1043.329, 11087.08
1043.811, 11017.22
1044.293, 10956.87
1044.775, 10909.17
1045.257, 10826.62
1045.739, 10706.02
1046.222, 10541.61
1046.704, 10319.69
1047.186, 10061.10
1047.668, 9828.241
1048.150, 9611.763
1048.632, 9378.422
1049.114, 9112.828
1049.596, 8830.626
1050.078, 8530.493
1050.561, 8223.533
1051.043, 7926.387
1051.525, 7649.063
1052.007, 7331.163
1052.489, 6965.277
1052.971, 6601.614
1053.453, 6288.103
1053.935, 5996.398
1054.417, 5692.267
1054.900, 5377.802
1055.382, 5075.556
1055.864, 4793.042
1056.346, 4525.148
1056.828, 4272.151
1057.310, 4032.213
1057.792, 3797.635
1058.274, 3569.738
1058.757, 3341.105
1059.239, 3104.632
1059.721, 2892.581
1060.203, 2743.950
1060.685, 2612.691
1061.167, 2459.779
1061.649, 2281.359
1062.131, 2122.615
1062.614, 1983.018
1063.096, 1850.062
1063.578, 1711.243
1064.060, 1578.967
1064.542, 1474.830
1065.024, 1389.175
1065.506, 1302.270
1065.988, 1197.166
1066.470, 1108.273
1066.953, 1038.783
1067.435, 983.0422
1067.917, 946.0059
1068.399, 916.7368
1068.881, 854.1409
1069.363, 755.4343
1069.845, 670.4746
1070.327, 639.9917
1070.809, 617.5410
1071.292, 579.3694
1071.774, 530.1348
1072.256, 488.8652
1072.738, 455.8020
1073.220, 420.5779
1073.702, 380.1458
1074.184, 336.1975
1074.666, 283.1499
1075.148, 231.7532
1075.631, 198.0933
1076.113, 193.7629
1076.595, 177.9719
1077.077, 145.9062
1077.559, 117.3684
1078.041, 115.8516
1078.523, 124.3171
1079.005, 94.99097
1079.488, 39.94800
1079.970, 4.891357
1080.452, 33.47559
1080.934, 51.86450
1081.416, 39.00977
1081.898, 12.65186
1082.380, 0.6616210
1082.862, 2.756836
1083.344, 11.39941
1083.827, 29.07422
1084.309, 43.59253
1084.791, 39.74438
1085.273, 34.37402
1085.755, 42.46387
1086.237, 62.00781
1086.719, 72.29761
1087.201, 72.13574
1087.683, 69.77417
1088.166, 66.64868
1088.648, 64.97437
1089.130, 69.81738
1089.612, 77.18555
1090.094, 81.58496
1090.576, 83.54810
1091.058, 75.42554
1091.540, 48.96240
1092.023, 28.80713
1092.505, 39.13867
1092.987, 68.28149
1093.469, 74.17529
1093.951, 61.85205
1094.433, 53.82178
1094.915, 69.38745
1095.397, 80.59521
1095.880, 77.91162
1096.362, 66.64624
1096.844, 51.34448
1097.326, 32.32202
1097.808, 16.95020
1098.290, 5.812744
1098.772, 0.7402340
1099.254, 6.152344
1099.736, 15.44995
1100.219, 29.34326
1100.701, 44.68652
1101.183, 34.89893
1101.665, 7.359375
1102.147, 34.06445
1102.629, 26.17139
1103.111, 9.663818
1103.593, 23.83594
1104.075, 49.61035
1104.558, 56.81885
1105.040, 29.79736
1105.522, 15.49170
1106.004, 17.79810
1106.486, 32.49048
1106.968, 64.52026
1107.450, 104.3528
1107.932, 116.7507
1108.415, 109.9863
1108.897, 116.2446
1109.379, 181.3467
1109.861, 221.9294
1110.343, 195.5012
1110.825, 150.4897
1111.307, 138.0776
1111.789, 156.2791
1112.271, 166.4482
1112.754, 166.2964
1113.236, 166.6235
1113.718, 177.4719
1114.200, 188.6472
1114.682, 190.3855
1115.164, 187.3342
1115.646, 194.5469
1116.128, 212.7939
1116.610, 235.8967
1117.093, 264.4595
1117.575, 290.4919
1118.057, 309.5186
1118.539, 319.2512
1119.021, 313.0566
1119.503, 287.6167
1119.985, 274.1445
1120.467, 276.3843
1120.950, 285.9226
1121.432, 300.5894
1121.914, 315.6042
1122.396, 319.3584
1122.878, 316.7996
1123.360, 317.7778
1123.842, 327.6577
1124.324, 335.7427
1124.807, 341.2546
1125.289, 343.1240
1125.771, 335.3804
1126.253, 322.8496
1126.735, 336.3579
1127.217, 369.9014
1127.699, 391.4204
1128.181, 371.5083
1128.663, 351.4309
1129.146, 346.5593
1129.628, 349.7737
1130.110, 355.9604
1130.592, 364.6162
1131.074, 358.3142
1131.556, 335.6162
1132.038, 311.7798
1132.520, 291.1855
1133.002, 280.0632
1133.485, 290.7175
1133.967, 315.0874
1134.449, 318.6765
1134.931, 297.9653
1135.413, 288.1038
1135.895, 299.6042
1136.377, 313.1086
1136.859, 302.4238
1137.342, 285.8584
1137.824, 287.3782
1138.306, 313.4951
1138.788, 317.9785
1139.270, 292.4871
1139.752, 273.2776
1140.234, 277.6094
1140.716, 291.5100
1141.198, 292.9597
1141.681, 286.1819
1142.163, 280.4375
1142.645, 285.4167
1143.127, 273.2805
1143.609, 230.9805
1144.091, 192.1973
1144.573, 185.5730
1145.055, 199.2698
1145.537, 198.3320
1146.020, 185.8970
1146.502, 172.7444
1146.984, 159.0652
1147.466, 151.1582
1147.948, 154.5620
1148.430, 158.8730
1148.912, 152.8491
1149.394, 138.9612
1149.877, 123.6753
1150.359, 106.7124
1150.841, 92.92578
1151.323, 91.08789
1151.805, 90.38696
1152.287, 84.62622
1152.769, 75.69067
1153.251, 68.89087
1153.734, 65.00244
1154.216, 66.46509
1154.698, 74.49390
1155.180, 79.65845
1155.662, 71.89502
1156.144, 60.61060
1156.626, 51.85059
1157.108, 44.83789
1157.590, 35.58447
1158.073, 23.43335
1158.555, 20.58765
1159.037, 35.47046
1159.519, 51.50928
1160.001, 47.33276
1160.483, 34.45215
1160.965, 23.61377
1161.447, 16.32227
1161.929, 15.00122
1162.412, 20.73682
1162.894, 25.14160
1163.376, 24.37134
1163.858, 20.06592
1164.340, 10.60498
1164.822, 2.9300000E-03
1165.304, 4.631836
1165.786, 3.678955
1166.269, 1.447510
1166.751, 14.74512
1167.233, 29.06787
1167.715, 28.95996
1168.197, 21.09302
1168.679, 15.62866
1169.161, 11.47095
1169.643, 5.612549
1170.125, 3.961182
1170.608, 13.40234
1171.090, 23.59375
1171.572, 31.24268
1172.054, 30.74023
1172.536, 25.76172
1173.018, 24.00220
1173.500, 25.54736
1173.982, 28.10059
1174.464, 33.49023
1174.947, 35.96948
1175.429, 33.61377
1175.911, 29.95288
1176.393, 32.78125
1176.875, 37.58667
1177.357, 28.87378
1177.839, 5.779053
1178.321, 7.019775
1178.804, 12.84204
1179.286, 29.38843
1179.768, 31.36206
1180.250, 24.75659
1180.732, 18.96997
1181.214, 15.00903
1181.696, 16.48389
1182.178, 24.67041
1182.661, 34.10522
1183.143, 47.72437
1183.625, 54.84888
1184.107, 46.31592
1184.589, 30.20508
1185.071, 39.07788
1185.553, 66.28320
1186.035, 81.97974
1186.517, 73.58594
1187.000, 62.95044
1187.482, 57.39941
1187.964, 56.38867
1188.446, 61.42676
1188.928, 71.04419
1189.410, 73.39429
1189.892, 69.50146
1190.374, 65.63647
1190.856, 63.51318
1191.339, 63.57178
1191.821, 69.88428
1192.303, 75.30859
1192.785, 72.52124
1193.267, 61.62378
1193.749, 55.36816
1194.231, 53.48291
1194.713, 52.62134
1195.195, 56.28882
1195.678, 54.30566
1196.160, 28.10645
1196.642, 1.644287
1197.124, 7.989502
1197.606, 48.40674
1198.088, 77.35986
1198.570, 93.29614
1199.052, 96.74243
1199.535, 73.50391
1200.017, 53.25415
1200.499, 57.07617
1200.981, 74.32446
1201.463, 88.67847
1201.945, 100.4045
1202.427, 99.44067
1202.909, 84.56348
1203.391, 74.10107
1203.874, 90.70728
1204.356, 108.2312
1204.838, 104.0698
1205.320, 88.44165
1205.802, 89.70679
1206.284, 108.4500
1206.766, 113.8386
1207.248, 100.0549
1207.730, 84.48315
1208.213, 77.13940
1208.695, 76.90894
1209.177, 85.74072
1209.659, 100.8088
1210.141, 115.2114
1210.623, 128.8970
1211.105, 133.6477
1211.587, 126.1816
1212.070, 117.4817
1212.552, 118.3062
1213.034, 120.7483
1213.516, 116.7305
1213.998, 107.9944
1214.480, 107.5344
1214.962, 115.3765
1215.444, 119.3965
1215.927, 115.6689
1216.409, 108.1792
1216.891, 97.42676
1217.373, 86.95605
1217.855, 78.56567
1218.337, 72.39233
1218.819, 74.70020
1219.301, 85.42285
1219.783, 95.23486
1220.266, 101.3896
1220.748, 104.6775
1221.230, 102.8120
1221.712, 100.2493
1222.194, 103.3679
1222.676, 112.0527
1223.158, 102.9626
1223.640, 77.71216
1224.122, 61.00415
1224.605, 69.70532
1225.087, 80.92627
1225.569, 80.14966
1226.051, 74.19067
1226.533, 68.43506
1227.015, 62.49585
1227.497, 69.64624
1227.979, 88.88818
1228.462, 95.76636
1228.944, 58.52637
1229.426, 26.70361
1229.908, 35.89453
1230.390, 63.30151
1230.872, 83.04517
1231.354, 95.26343
1231.836, 100.9111
1232.318, 100.1921
1232.801, 95.36230
1233.283, 83.08496
1233.765, 72.10229
1234.247, 66.04932
1234.729, 64.47559
1235.211, 71.52075
1235.693, 89.92139
1236.175, 95.01172
1236.657, 86.82983
1237.140, 77.80542
1237.622, 74.64087
1238.104, 71.77173
1238.586, 68.70166
1239.068, 65.85669
1239.550, 61.51392
1240.032, 56.51001
1240.514, 55.09619
1240.997, 57.00928
1241.479, 61.81519
1241.961, 74.45483
1242.443, 83.99634
1242.925, 85.95630
1243.407, 83.04639
1243.889, 75.59888
1244.371, 63.62158
1244.854, 59.99023
1245.336, 63.23804
1245.818, 68.16724
1246.300, 79.48242
1246.782, 85.46704
1247.264, 79.60156
1247.746, 68.83032
1248.228, 64.74780
1248.710, 64.95923
1249.193, 63.63721
1249.675, 59.76880
1250.157, 57.95166
1250.639, 63.91797
1251.121, 69.39380
1251.603, 72.78442
1252.085, 73.21826
1252.567, 67.42432
1253.049, 58.23120
1253.532, 53.40186
1254.014, 53.48218
1254.496, 51.40039
1254.978, 40.42871
1255.460, 35.32471
1255.942, 42.07690
1256.424, 50.62939
1256.906, 42.14380
1257.389, 26.17969
1257.871, 19.26294
1258.353, 24.58789
1258.835, 30.71265
1259.317, 36.84497
1259.799, 40.22803
1260.281, 39.13696
1260.763, 35.07153
1261.245, 34.05884
1261.728, 34.28345
1262.210, 33.86963
1262.692, 32.56641
1263.174, 33.75488
1263.656, 38.94775
1264.138, 43.90112
1264.620, 47.82983
1265.102, 49.73022
1265.584, 48.42188
1266.067, 44.26196
1266.549, 34.56836
1267.031, 19.92603
1267.513, 20.71509
1267.995, 39.00171
1268.477, 59.03955
1268.959, 78.75586
1269.441, 90.08276
1269.924, 76.64697
1270.406, 56.92407
1270.888, 49.40991
1271.370, 52.82129
1271.852, 53.85156
1272.334, 52.51831
1272.816, 54.20874
1273.298, 61.25781
1273.781, 68.24365
1274.263, 74.55322
1274.745, 75.24292
1275.227, 66.97705
1275.709, 52.15112
1276.191, 41.01294
1276.673, 33.21460
1277.155, 26.75146
1277.637, 20.78394
1278.120, 17.74829
1278.602, 21.95557
1279.084, 26.38696
1279.566, 27.50977
1280.048, 26.13574
1280.530, 20.81836
1281.012, 12.73193
1281.494, 4.116211
1281.976, 7.367676
1282.459, 6.020264
1282.941, 26.10547
1283.423, 52.54004
1283.905, 57.52881
1284.387, 47.96094
1284.869, 33.96655
1285.351, 19.58838
1285.833, 13.57861
1286.316, 19.91650
1286.798, 17.05493
1287.280, 9.719238
1287.762, 7.921631
1288.244, 8.611328
1288.726, 9.045166
1289.208, 7.667969
1289.690, 6.098877
1290.172, 3.646240
1290.655, 8.6914003E-02
1291.137, 0.0000000E+00
##END=



