##NAMES=Kornerupine
##RRUFFID=R100155
##IDEAL CHEMISTRY=(Mg,Fe^2+^)_4_Al_6_(Si,Al,B)_5_O_21_(OH)
##LOCALITY=Sri Lanka
##OWNER=RRUFF
##SOURCE=William W. Pinch
##DESCRIPTION=Colorless to pale yellow cut gemstone
##STATUS=The identification of this mineral has been confirmed by single-crystal X-ray diffraction.
##URL=rruff.info/R100155
172.5130, 0.0000000E+00
172.9951, 1.7944001E-02
173.4772, 0.3526150
173.9593, 1.028946
174.4414, 1.800598
174.9236, 2.674347
175.4057, 3.704239
175.8878, 4.865280
176.3699, 5.564972
176.8520, 4.665482
177.3341, 3.354538
177.8163, 2.327286
178.2984, 4.020721
178.7805, 6.685867
179.2626, 7.700836
179.7447, 6.869217
180.2268, 5.311050
180.7090, 3.446472
181.1911, 1.511475
181.6732, 0.4347380
182.1553, 1.270050
182.6374, 3.176849
183.1195, 4.348770
183.6017, 4.714783
184.0838, 4.656342
184.5659, 4.455963
185.0480, 4.519318
185.5301, 5.226028
186.0123, 6.390030
186.4944, 7.313049
186.9765, 7.564880
187.4586, 8.280075
187.9407, 8.857208
188.4228, 9.459671
188.9050, 10.31616
189.3871, 10.87041
189.8692, 10.49908
190.3513, 9.385574
190.8334, 8.419113
191.3155, 7.635040
191.7977, 7.029037
192.2798, 6.725342
192.7619, 6.725525
193.2440, 6.558441
193.7261, 5.761505
194.2082, 4.430496
194.6904, 3.787781
195.1725, 4.109741
195.6546, 4.729263
196.1367, 4.251389
196.6188, 2.599396
197.1009, 0.9277800
197.5831, 0.1735080
198.0652, 0.7145390
198.5473, 1.046494
199.0294, 1.187378
199.5115, 1.140320
199.9937, 0.7393650
200.4758, 0.1110080
200.9579, 0.6423950
201.4400, 0.1574400
201.9221, 1.466660
202.4042, 2.375000
202.8864, 2.335709
203.3685, 1.664536
203.8506, 1.020569
204.3327, 0.3874210
204.8148, 0.1100770
205.2969, 0.3574370
205.7791, 0.3133540
206.2612, 0.2733760
206.7433, 0.1448820
207.2254, 0.1103670
207.7075, 0.7890470
208.1896, 2.472000
208.6718, 4.029297
209.1539, 4.772705
209.6360, 4.499817
210.1181, 4.422211
210.6002, 4.670441
211.0823, 5.121460
211.5645, 5.363800
212.0466, 5.238983
212.5287, 5.302948
213.0108, 5.921997
213.4929, 7.275482
213.9750, 8.514404
214.4572, 9.588562
214.9393, 10.51910
215.4214, 11.48203
215.9035, 12.68417
216.3856, 13.50470
216.8678, 13.35870
217.3499, 11.64490
217.8320, 10.97055
218.3141, 11.70847
218.7962, 13.47437
219.2783, 15.21796
219.7605, 17.22000
220.2426, 18.64020
220.7247, 18.72092
221.2068, 16.50827
221.6889, 15.77075
222.1710, 17.28918
222.6532, 20.24158
223.1353, 21.94141
223.6174, 21.88834
224.0995, 21.46683
224.5816, 21.26437
225.0637, 21.07083
225.5459, 21.72952
226.0280, 23.72302
226.5101, 26.49152
226.9922, 28.14996
227.4743, 28.03751
227.9564, 27.88547
228.4386, 28.70853
228.9207, 31.38120
229.4028, 32.75021
229.8849, 32.03970
230.3670, 30.17984
230.8492, 29.83990
231.3313, 31.79007
231.8134, 34.10373
232.2955, 36.02335
232.7776, 37.62076
233.2597, 38.56311
233.7419, 38.69305
234.2240, 38.22385
234.7061, 37.60538
235.1882, 36.45862
235.6703, 35.74561
236.1524, 35.97543
236.6346, 37.75153
237.1167, 39.10098
237.5988, 39.97137
238.0809, 40.44580
238.5630, 40.70297
239.0451, 40.61768
239.5273, 40.45023
240.0094, 40.34314
240.4915, 40.24023
240.9736, 40.25253
241.4557, 40.21640
241.9378, 40.35657
242.4200, 41.15045
242.9021, 42.74866
243.3842, 44.77777
243.8663, 47.21027
244.3484, 50.34396
244.8306, 52.98315
245.3127, 54.90793
245.7948, 56.42569
246.2769, 58.05505
246.7590, 59.69357
247.2411, 61.59045
247.7233, 63.89832
248.2054, 66.78925
248.6875, 69.46997
249.1696, 71.86124
249.6517, 74.07388
250.1338, 76.18915
250.6160, 77.88660
251.0981, 80.07990
251.5802, 83.05731
252.0623, 86.92459
252.5444, 91.16495
253.0265, 95.92831
253.5087, 100.9151
253.9908, 105.6440
254.4729, 110.2292
254.9550, 114.3650
255.4371, 117.7294
255.9192, 120.1068
256.4014, 123.4819
256.8835, 128.4813
257.3656, 133.8918
257.8477, 138.5912
258.3298, 143.0261
258.8120, 145.7895
259.2941, 146.3773
259.7762, 144.6227
260.2583, 142.0770
260.7404, 138.8739
261.2225, 134.8384
261.7047, 129.4539
262.1868, 122.0978
262.6689, 114.9551
263.1510, 108.5466
263.6331, 102.8863
264.1152, 96.42633
264.5974, 88.77292
265.0795, 80.98557
265.5616, 74.31226
266.0437, 68.90408
266.5258, 63.75134
267.0079, 58.49133
267.4901, 53.23257
267.9722, 49.60373
268.4543, 48.30795
268.9364, 47.18198
269.4185, 44.15015
269.9006, 38.55746
270.3828, 33.95068
270.8649, 30.92188
271.3470, 29.25537
271.8291, 28.02432
272.3112, 27.40707
272.7933, 26.70401
273.2755, 25.33948
273.7576, 23.20282
274.2397, 21.13992
274.7218, 19.30502
275.2039, 17.57883
275.6860, 15.52835
276.1682, 13.01895
276.6503, 10.62750
277.1324, 8.671692
277.6145, 7.175079
278.0966, 6.073303
278.5787, 5.406982
279.0609, 5.098572
279.5430, 5.124237
280.0251, 5.584961
280.5072, 5.805084
280.9893, 5.149567
281.4715, 3.633362
281.9536, 2.878387
282.4357, 3.024689
282.9178, 3.806885
283.3999, 5.030029
283.8820, 6.735657
284.3642, 8.045441
284.8463, 8.036255
285.3284, 6.916626
285.8105, 7.296417
286.2926, 9.401367
286.7747, 12.33514
287.2569, 15.03531
287.7390, 17.49704
288.2211, 19.69998
288.7032, 21.43527
289.1853, 22.85565
289.6674, 24.70880
290.1496, 27.00443
290.6317, 29.54828
291.1138, 32.48090
291.5959, 35.69601
292.0780, 38.16635
292.5602, 39.16232
293.0423, 39.34235
293.5244, 40.78952
294.0065, 43.59851
294.4886, 46.14709
294.9707, 46.72372
295.4529, 45.77005
295.9350, 44.90143
296.4171, 44.71591
296.8992, 44.67181
297.3813, 43.71573
297.8634, 41.91345
298.3456, 39.93945
298.8277, 38.44458
299.3098, 37.16370
299.7919, 35.49628
300.2740, 33.25769
300.7561, 30.71204
301.2383, 28.01974
301.7204, 25.25525
302.2025, 22.93689
302.6846, 21.73566
303.1667, 21.06992
303.6488, 20.03281
304.1310, 18.45169
304.6131, 16.62674
305.0952, 14.43976
305.5773, 12.19391
306.0594, 10.71423
306.5415, 11.07269
307.0237, 12.08987
307.5058, 12.45233
307.9879, 11.95123
308.4700, 11.37357
308.9521, 11.57028
309.4343, 12.07593
309.9164, 12.08041
310.3985, 10.26804
310.8806, 8.476318
311.3627, 8.478485
311.8448, 10.37259
312.3270, 11.97470
312.8091, 11.14438
313.2912, 9.553009
313.7733, 9.175140
314.2554, 11.94955
314.7375, 15.04312
315.2197, 17.12546
315.7018, 18.25467
316.1839, 18.87042
316.6660, 18.34222
317.1481, 17.81924
317.6302, 18.27939
318.1124, 20.84875
318.5945, 23.31491
319.0766, 24.85510
319.5587, 25.68250
320.0408, 26.56549
320.5229, 27.71854
321.0051, 29.01022
321.4872, 30.39627
321.9693, 31.96686
322.4514, 33.41782
322.9335, 34.56290
323.4156, 35.55649
323.8978, 36.69681
324.3799, 38.21695
324.8620, 39.73499
325.3441, 41.16394
325.8262, 42.54959
326.3083, 43.63589
326.7905, 44.32120
327.2726, 44.72601
327.7547, 44.99118
328.2368, 45.00735
328.7189, 45.00674
329.2010, 44.98273
329.6832, 44.91541
330.1653, 45.08051
330.6474, 46.20285
331.1295, 47.03598
331.6116, 46.46884
332.0938, 43.09958
332.5759, 40.59006
333.0580, 39.86636
333.5401, 40.57678
334.0222, 40.16110
334.5043, 38.38400
334.9865, 35.80420
335.4686, 32.52249
335.9507, 27.90442
336.4328, 24.32605
336.9149, 22.12848
337.3970, 20.90082
337.8792, 19.67325
338.3613, 18.44867
338.8434, 17.17157
339.3255, 15.85379
339.8076, 14.52454
340.2898, 12.86377
340.7719, 10.77252
341.2540, 8.505951
341.7361, 6.318634
342.2182, 4.231842
342.7003, 2.397614
343.1825, 0.9295650
343.6646, 0.2200620
344.1467, 1.265717
344.6288, 2.217651
345.1109, 3.069153
345.5930, 3.919403
346.0752, 4.727539
346.5573, 5.201050
347.0394, 5.315887
347.5215, 5.024414
348.0036, 3.903778
348.4857, 1.987396
348.9679, 0.3689880
349.4500, 0.4557800
349.9321, 1.510986
350.4142, 1.149017
350.8963, 1.444000
351.3784, 4.401581
351.8606, 4.924744
352.3427, 3.587555
352.8248, 2.513031
353.3069, 3.114166
353.7890, 4.613434
354.2711, 5.926910
354.7533, 6.926239
355.2354, 8.119904
355.7175, 9.690674
356.1996, 11.76974
356.6817, 14.58478
357.1638, 19.22754
357.6460, 23.91440
358.1281, 27.16592
358.6102, 29.05307
359.0923, 30.84717
359.5744, 33.12622
360.0565, 35.69943
360.5387, 38.38956
361.0208, 41.21655
361.5029, 44.07733
361.9850, 47.15073
362.4671, 50.25668
362.9492, 52.79349
363.4314, 54.30307
363.9135, 55.46252
364.3956, 56.51343
364.8777, 57.23346
365.3598, 58.10880
365.8419, 59.86502
366.3241, 61.73117
366.8062, 62.58578
367.2883, 60.97632
367.7704, 59.34369
368.2526, 58.29251
368.7347, 57.84915
369.2168, 57.71814
369.6989, 58.63007
370.1810, 59.51355
370.6631, 59.35602
371.1453, 56.86142
371.6274, 55.13748
372.1095, 54.90079
372.5916, 55.93869
373.0737, 56.34244
373.5558, 55.60455
374.0380, 54.77145
374.5201, 54.54041
375.0022, 55.18301
375.4843, 55.60532
375.9664, 55.67761
376.4485, 55.68015
376.9307, 56.03445
377.4128, 56.72711
377.8949, 57.46628
378.3770, 58.24942
378.8591, 59.07770
379.3412, 59.40829
379.8234, 59.13757
380.3055, 58.72632
380.7876, 58.56613
381.2697, 58.68805
381.7518, 59.44104
382.2339, 61.39355
382.7161, 63.60101
383.1982, 63.39188
383.6803, 60.86990
384.1624, 58.51349
384.6445, 58.59433
385.1266, 60.24753
385.6088, 61.25290
386.0909, 61.12814
386.5730, 60.76746
387.0551, 61.24155
387.5372, 62.33221
388.0193, 63.42087
388.5015, 64.32709
388.9836, 64.98032
389.4657, 65.26270
389.9478, 65.16150
390.4299, 64.87451
390.9120, 64.30664
391.3942, 63.70026
391.8763, 63.36810
392.3584, 63.69409
392.8405, 64.05499
393.3226, 64.20856
393.8047, 64.15216
394.2869, 63.87073
394.7690, 63.33652
395.2511, 62.59305
395.7332, 61.60471
396.2154, 60.09335
396.6975, 58.91843
397.1796, 58.63440
397.6617, 58.73172
398.1438, 58.34058
398.6259, 56.67371
399.1081, 55.15512
399.5902, 54.41479
400.0723, 54.69781
400.5544, 54.02512
401.0365, 51.75000
401.5186, 48.97604
402.0008, 46.57797
402.4829, 44.53253
402.9650, 42.88477
403.4471, 41.88477
403.9292, 41.27554
404.4113, 40.05933
404.8935, 38.26236
405.3756, 35.86972
405.8577, 32.54324
406.3398, 28.05206
406.8219, 24.90927
407.3040, 23.34610
407.7862, 22.56094
408.2683, 21.60315
408.7504, 20.50089
409.2325, 19.10614
409.7146, 17.25204
410.1967, 15.12363
410.6789, 13.05331
411.1610, 11.02795
411.6431, 9.464020
412.1252, 9.090271
412.6073, 9.500183
413.0894, 9.478302
413.5716, 8.645691
414.0537, 7.631042
414.5358, 7.397308
415.0179, 7.677582
415.5000, 7.591919
415.9821, 5.963379
416.4643, 4.098022
416.9464, 3.631073
417.4285, 4.780426
417.9106, 5.732727
418.3927, 5.069214
418.8748, 3.618591
419.3570, 2.381073
419.8391, 1.911591
420.3212, 1.495239
420.8033, 0.4728390
421.2854, 0.8842770
421.7675, 1.344269
422.2497, 1.000031
422.7318, 3.206451
423.2139, 3.505798
423.6960, 3.258357
424.1781, 1.748291
424.6602, 2.379364
425.1424, 2.012299
425.6245, 1.465454
426.1066, 0.2784730
426.5887, 0.4708560
427.0709, 0.3536680
427.5530, 0.6308900
428.0351, 0.4211893
428.5172, 0.6092830
428.9993, 8.2061999E-02
429.4814, 0.2207950
429.9636, 0.1169268
430.4457, 0.2141897
430.9278, 0.8125000
431.4099, 0.7744750
431.8920, 1.856171
432.3741, 2.448151
432.8563, 2.459106
433.3384, 1.455902
433.8205, 0.3140560
434.3026, 1.089600
434.7847, 0.8226010
435.2668, 1.2512000E-02
435.7490, 1.179688
436.2311, 2.566101
436.7132, 3.423035
437.1953, 3.483032
437.6774, 3.043213
438.1595, 2.204773
438.6417, 1.126984
439.1238, 0.4235840
439.6059, 0.5730900
440.0880, 1.235138
440.5701, 2.221069
441.0522, 3.604950
441.5344, 4.651520
442.0165, 4.715240
442.4986, 4.227356
442.9807, 3.714111
443.4628, 3.074371
443.9449, 2.753906
444.4271, 3.142120
444.9092, 4.131470
445.3913, 4.935791
445.8734, 5.115967
446.3555, 5.194336
446.8376, 5.461273
447.3198, 6.249542
447.8019, 6.485901
448.2840, 5.476379
448.7661, 4.270142
449.2482, 4.496643
449.7303, 7.414673
450.2125, 9.438782
450.6946, 9.418762
451.1767, 7.615967
451.6588, 7.336060
452.1409, 9.128693
452.6230, 11.24036
453.1052, 12.37128
453.5873, 12.38052
454.0694, 12.15244
454.5515, 11.72412
455.0337, 11.35416
455.5158, 11.50958
455.9979, 12.15469
456.4800, 12.88101
456.9621, 13.58923
457.4442, 14.24820
457.9264, 14.84372
458.4085, 15.37149
458.8906, 15.67706
459.3727, 15.25644
459.8548, 14.62341
460.3369, 14.61130
460.8191, 15.46326
461.3012, 16.82587
461.7833, 19.00171
462.2654, 21.46298
462.7475, 23.10632
463.2296, 22.89911
463.7118, 22.22473
464.1939, 21.63870
464.6760, 21.16547
465.1581, 21.24191
465.6402, 23.05118
466.1223, 24.81592
466.6045, 25.25797
467.0866, 22.19913
467.5687, 20.29913
468.0508, 20.49878
468.5329, 21.94287
469.0150, 22.76971
469.4972, 22.85739
469.9793, 22.48123
470.4614, 21.60544
470.9435, 20.19830
471.4256, 19.00244
471.9077, 17.98804
472.3899, 17.25470
472.8720, 16.81836
473.3541, 16.64801
473.8362, 17.22388
474.3183, 18.84799
474.8004, 20.87866
475.2826, 22.24759
475.7647, 22.94644
476.2468, 22.86407
476.7289, 21.35388
477.2110, 19.12738
477.6931, 17.80554
478.1753, 17.39069
478.6574, 17.33105
479.1395, 17.34280
479.6216, 17.37244
480.1037, 17.46277
480.5858, 17.63544
481.0680, 17.45569
481.5501, 16.28128
482.0322, 14.43002
482.5143, 12.86325
482.9964, 12.29788
483.4786, 11.89648
483.9607, 11.26535
484.4428, 10.32761
484.9249, 9.493164
485.4070, 8.449066
485.8892, 7.746124
486.3713, 7.862823
486.8534, 10.08594
487.3355, 11.14542
487.8176, 10.21909
488.2997, 8.300385
488.7819, 7.589600
489.2640, 8.800873
489.7461, 9.603027
490.2282, 9.015076
490.7103, 7.146362
491.1924, 6.141418
491.6746, 6.066895
492.1567, 6.248291
492.6388, 6.187286
493.1209, 5.937286
493.6030, 5.766144
494.0851, 5.764221
494.5673, 5.567596
495.0494, 4.353455
495.5315, 2.432251
496.0136, 0.9679260
496.4957, 0.8256530
496.9778, 1.190582
497.4600, 1.182709
497.9421, 0.8500370
498.4242, 0.5707700
498.9063, 0.4094540
499.3884, 0.4655460
499.8705, 0.9701540
500.3527, 2.389099
500.8348, 3.192841
501.3169, 2.325989
501.7990, 0.6476140
502.2811, 0.6377560
502.7632, 1.196411
503.2454, 1.458282
503.7275, 1.506622
504.2096, 1.339478
504.6917, 1.542873
505.1738, 0.4889530
505.6559, 1.468811
506.1381, 1.248718
506.6202, 0.7196350
507.1023, 1.516754
507.5844, 0.7739870
508.0665, 0.4811710
508.5486, 0.8339230
509.0308, 0.2641600
509.5129, 0.4158940
509.9950, 1.206726
510.4771, 1.781952
510.9592, 1.092102
511.4413, 0.7125240
511.9235, 2.255280
512.4056, 2.241058
512.8877, 1.566193
513.3698, 1.616058
513.8519, 2.524994
514.3340, 3.638794
514.8162, 4.976868
515.2983, 6.064240
515.7804, 6.292450
516.2625, 4.725189
516.7446, 3.237823
517.2267, 2.627441
517.7089, 2.665924
518.1910, 2.798676
518.6731, 2.845612
519.1552, 3.036530
519.6373, 3.604370
520.1194, 4.641449
520.6016, 5.112732
521.0837, 4.706818
521.5658, 4.073212
522.0479, 3.617920
522.5300, 3.293549
523.0121, 3.385254
523.4943, 4.084595
523.9764, 4.972260
524.4585, 5.275940
524.9406, 4.980164
525.4227, 4.530121
525.9048, 3.906128
526.3870, 3.326721
526.8691, 3.518524
527.3513, 4.428772
527.8334, 5.226807
528.3155, 5.181488
528.7976, 4.707764
529.2797, 4.277130
529.7618, 3.871887
530.2440, 3.979858
530.7261, 5.526428
531.2082, 7.608032
531.6903, 9.040375
532.1724, 8.855438
532.6545, 8.595978
533.1367, 8.944275
533.6188, 9.657043
534.1009, 9.875580
534.5830, 8.608002
535.0651, 7.668854
535.5472, 7.830933
536.0294, 9.341064
536.5115, 10.15826
536.9936, 9.987488
537.4757, 9.541229
537.9578, 9.333435
538.4399, 9.341858
538.9221, 9.734772
539.4042, 10.55731
539.8863, 11.73355
540.3684, 13.53720
540.8505, 15.84943
541.3326, 17.22922
541.8148, 16.80753
542.2969, 15.26596
542.7790, 13.32751
543.2611, 11.13104
543.7432, 9.693848
544.2253, 10.66541
544.7075, 12.23572
545.1896, 12.19232
545.6717, 9.837280
546.1538, 8.155548
546.6359, 9.411865
547.1180, 11.76630
547.6002, 13.24814
548.0823, 12.55969
548.5644, 11.93271
549.0465, 11.82797
549.5286, 12.07312
550.0107, 12.17819
550.4929, 12.19800
550.9750, 11.96960
551.4571, 11.25696
551.9392, 10.05164
552.4213, 9.727203
552.9034, 10.48425
553.3856, 11.45181
553.8677, 11.95035
554.3498, 12.02942
554.8319, 12.09302
555.3140, 12.19446
555.7961, 12.19739
556.2783, 11.83188
556.7604, 11.22324
557.2425, 10.71939
557.7246, 10.44614
558.2067, 10.36627
558.6888, 10.46527
559.1710, 10.70477
559.6531, 10.98123
560.1352, 11.26660
560.6173, 11.53409
561.0994, 11.81683
561.5815, 12.15628
562.0637, 12.31854
562.5458, 11.72809
563.0279, 11.35498
563.5100, 11.87262
563.9921, 14.16541
564.4742, 15.63409
564.9564, 15.90146
565.4385, 15.69016
565.9206, 16.15393
566.4027, 17.41953
566.8848, 18.37146
567.3669, 18.67993
567.8491, 18.40292
568.3312, 17.45474
568.8133, 15.95947
569.2954, 15.11676
569.7775, 16.09842
570.2596, 18.03851
570.7418, 19.52496
571.2239, 20.54614
571.7060, 20.97205
572.1881, 20.12070
572.6702, 18.78372
573.1523, 17.85999
573.6345, 17.82352
574.1166, 17.98700
574.5987, 18.21631
575.0808, 18.42444
575.5629, 18.52176
576.0450, 18.77448
576.5272, 18.73581
577.0093, 18.09933
577.4914, 16.98431
577.9735, 16.40341
578.4556, 16.54208
578.9377, 16.70410
579.4199, 16.66074
579.9020, 16.48090
580.3841, 15.96487
580.8662, 15.03906
581.3483, 14.21027
581.8304, 14.17725
582.3126, 14.69403
582.7947, 14.90747
583.2768, 14.54901
583.7589, 14.01794
584.2410, 13.65546
584.7231, 13.56509
585.2053, 13.89349
585.6874, 15.33643
586.1696, 16.60992
586.6517, 16.86935
587.1338, 16.30881
587.6159, 15.87308
588.0980, 15.83771
588.5801, 15.87466
589.0623, 15.97327
589.5444, 16.24234
590.0265, 16.15695
590.5086, 15.43134
590.9907, 14.63113
591.4728, 14.24597
591.9550, 14.35223
592.4371, 14.61255
592.9192, 15.06522
593.4013, 15.53009
593.8834, 15.75754
594.3655, 15.76697
594.8477, 15.70087
595.3298, 15.63141
595.8119, 15.48032
596.2940, 14.80264
596.7761, 13.85846
597.2582, 13.50079
597.7404, 14.79816
598.2225, 16.36130
598.7046, 17.16403
599.1867, 17.14581
599.6688, 17.17917
600.1509, 17.84821
600.6331, 18.41107
601.1152, 18.30701
601.5973, 16.95276
602.0794, 16.30862
602.5615, 16.71118
603.0436, 17.50565
603.5258, 18.05231
604.0079, 18.40814
604.4900, 18.09537
604.9721, 16.72931
605.4542, 15.12244
605.9363, 15.11523
606.4185, 16.54758
606.9006, 17.99109
607.3827, 18.87665
607.8648, 19.33057
608.3469, 19.33020
608.8290, 18.96048
609.3112, 18.68994
609.7933, 19.10727
610.2754, 19.50879
610.7575, 19.18533
611.2396, 17.91867
611.7217, 17.09363
612.2039, 17.74091
612.6860, 18.56601
613.1681, 18.55231
613.6502, 16.95343
614.1323, 15.76456
614.6144, 15.08063
615.0966, 14.75055
615.5787, 14.66293
616.0608, 14.90948
616.5429, 14.81912
617.0250, 14.24625
617.5071, 13.24332
617.9893, 11.69266
618.4714, 9.689819
618.9535, 8.014038
619.4356, 7.269714
619.9177, 6.947479
620.3998, 6.294678
620.8820, 5.370880
621.3641, 4.778656
621.8462, 5.286011
622.3283, 5.951050
622.8104, 5.992249
623.2925, 5.086975
623.7747, 4.471436
624.2568, 4.903961
624.7389, 5.365234
625.2210, 4.956665
625.7031, 2.939362
626.1852, 1.739014
626.6674, 1.817963
627.1495, 2.390289
627.6316, 2.074158
628.1137, 0.8277590
628.5958, 0.3002930
629.0779, 1.094055
629.5601, 1.494232
630.0422, 1.042847
630.5243, 3.8268998E-02
631.0064, 0.7120060
631.4885, 0.1313170
631.9706, 1.282684
632.4528, 1.391205
632.9349, 0.5361630
633.4170, 7.7362001E-02
633.8991, 1.162384
634.3812, 2.406738
634.8633, 3.015411
635.3455, 2.818481
635.8276, 2.186523
636.3097, 2.243820
636.7918, 2.046045
637.2739, 1.695740
637.7560, 1.950836
638.2382, 2.009674
638.7203, 1.906281
639.2024, 1.603760
639.6845, 0.7495730
640.1666, 0.5244750
640.6487, 1.054718
641.1309, 0.2585750
641.6130, 1.106903
642.0951, 2.245087
642.5772, 3.107910
643.0594, 3.507996
643.5415, 3.280640
644.0236, 2.637909
644.5057, 2.508853
644.9879, 1.785764
645.4700, 1.528687
645.9521, 0.7286680
646.4342, 0.1660770
646.9163, 0.3031920
647.3984, 0.4946900
647.8806, 0.7363280
648.3627, 0.8159280
648.8448, 0.4946900
649.3269, 0.9112240
649.8090, 1.052002
650.2911, 0.8696290
650.7733, 0.2913210
651.2554, 0.2812810
651.7375, 0.5183110
652.2196, 0.3749390
652.7017, 1.319260
653.1838, 1.770233
653.6660, 3.382446
654.1481, 4.952942
654.6302, 6.275269
655.1123, 7.007050
655.5944, 6.798553
656.0765, 6.200378
656.5587, 4.821381
657.0408, 3.042145
657.5229, 2.687897
658.0050, 4.877899
658.4871, 6.536926
658.9692, 6.192719
659.4514, 4.148926
659.9335, 4.177734
660.4156, 6.543610
660.8977, 8.789368
661.3798, 8.889038
661.8619, 7.523407
662.3441, 6.456970
662.8262, 5.795929
663.3083, 5.323303
663.7904, 4.780701
664.2725, 4.378937
664.7546, 4.423828
665.2368, 5.205414
665.7189, 5.820770
666.2010, 5.821503
666.6831, 5.577362
667.1652, 5.510071
667.6473, 5.720734
668.1295, 5.960144
668.6116, 6.104065
669.0937, 6.356293
669.5758, 7.283661
670.0579, 9.010559
670.5400, 10.25064
671.0222, 10.41171
671.5043, 10.06390
671.9864, 10.60629
672.4685, 11.80569
672.9506, 12.55399
673.4327, 11.61234
673.9149, 10.43448
674.3970, 10.43625
674.8791, 11.49252
675.3612, 12.48016
675.8433, 13.08890
676.3254, 13.41489
676.8076, 13.39661
677.2897, 12.94025
677.7718, 12.79611
678.2539, 13.05899
678.7360, 13.51611
679.2181, 14.03311
679.7003, 14.60107
680.1824, 15.37796
680.6645, 16.42059
681.1466, 17.44943
681.6287, 18.09189
682.1108, 18.47623
682.5930, 18.88849
683.0751, 19.32999
683.5572, 20.00772
684.0393, 21.35513
684.5214, 22.97607
685.0035, 24.31439
685.4857, 24.90546
685.9678, 25.51279
686.4499, 26.08051
686.9320, 26.76343
687.4141, 27.96906
687.8962, 30.10150
688.3784, 32.17242
688.8605, 33.88577
689.3426, 35.29440
689.8247, 36.74438
690.3068, 38.32938
690.7889, 39.76511
691.2711, 40.54099
691.7532, 41.08865
692.2353, 42.64551
692.7174, 45.07312
693.1995, 47.39612
693.6816, 48.93536
694.1638, 50.26770
694.6459, 51.54340
695.1280, 52.69583
695.6101, 54.46094
696.0922, 57.91269
696.5743, 61.28250
697.0565, 63.61285
697.5386, 64.69693
698.0207, 65.58224
698.5028, 66.10803
698.9849, 66.91425
699.4670, 68.65851
699.9492, 71.21622
700.4313, 73.68942
700.9135, 76.02148
701.3956, 77.88007
701.8777, 78.54453
702.3598, 78.55042
702.8419, 78.80374
703.3240, 79.69638
703.8062, 80.61316
704.2883, 81.31613
704.7704, 81.70639
705.2525, 81.65378
705.7346, 81.15515
706.2167, 80.25714
706.6989, 78.81186
707.1810, 77.00824
707.6631, 75.30997
708.1452, 73.79315
708.6273, 72.17758
709.1094, 70.49307
709.5916, 68.53357
710.0737, 65.21576
710.5558, 60.97229
711.0379, 57.77142
711.5200, 58.40054
712.0021, 59.26147
712.4843, 56.47672
712.9664, 50.73434
713.4485, 45.86365
713.9306, 44.19806
714.4127, 42.93326
714.8948, 40.81207
715.3770, 37.78232
715.8591, 34.88510
716.3412, 32.13138
716.8233, 29.50140
717.3054, 27.08786
717.7875, 24.85889
718.2697, 22.26135
718.7518, 19.21805
719.2339, 16.60999
719.7160, 15.63727
720.1981, 15.43509
720.6802, 14.58374
721.1624, 12.88083
721.6445, 10.98123
722.1266, 9.213989
722.6087, 7.466095
723.0908, 5.548981
723.5729, 2.727264
724.0551, 1.344147
724.5372, 2.393463
725.0193, 4.071014
725.5014, 4.550201
725.9835, 3.665466
726.4656, 2.517273
726.9478, 1.103241
727.4299, 0.2695010
727.9120, 1.173981
728.3941, 1.677734
728.8762, 1.970856
729.3583, 2.171417
729.8405, 2.040283
730.3226, 1.931780
730.8047, 0.5297550
731.2868, 1.382721
731.7689, 0.3891300
732.2510, 0.1704710
732.7332, 0.4314580
733.2153, 1.750122
733.6974, 2.941223
734.1795, 3.880920
734.6616, 5.052521
735.1437, 6.669434
735.6259, 8.494812
736.1080, 9.978119
736.5901, 11.11462
737.0722, 11.85849
737.5543, 11.79742
738.0364, 11.62662
738.5186, 12.05362
739.0007, 13.04596
739.4828, 14.50418
739.9649, 16.94745
740.4470, 19.30814
740.9291, 20.97812
741.4113, 21.99612
741.8934, 23.43701
742.3755, 25.67255
742.8576, 27.66202
743.3397, 28.87518
743.8218, 29.44595
744.3040, 30.51648
744.7861, 32.09027
745.2682, 33.72406
745.7503, 34.98877
746.2324, 36.18076
746.7145, 37.85483
747.1967, 39.99884
747.6788, 41.96570
748.1609, 42.87369
748.6430, 43.88098
749.1251, 46.07202
749.6072, 50.02740
750.0894, 52.48300
750.5715, 52.60526
751.0536, 52.20084
751.5357, 52.35617
752.0178, 53.12390
752.4999, 53.96652
752.9821, 54.95337
753.4642, 55.60114
753.9463, 54.99414
754.4284, 53.81863
754.9105, 53.68256
755.3926, 54.91565
755.8748, 55.83206
756.3569, 54.98773
756.8390, 53.54398
757.3211, 52.62189
757.8032, 53.08279
758.2853, 52.46933
758.7675, 50.03903
759.2496, 47.14023
759.7318, 45.07806
760.2139, 44.05737
760.6960, 42.43619
761.1781, 40.04425
761.6602, 37.44620
762.1423, 34.99081
762.6245, 32.79034
763.1066, 31.40872
763.5887, 31.25171
764.0708, 31.00626
764.5529, 29.91986
765.0350, 28.14398
765.5172, 25.85648
765.9993, 21.58572
766.4814, 18.95016
766.9635, 19.22556
767.4456, 20.45740
767.9277, 19.75592
768.4099, 16.70389
768.8920, 14.01175
769.3741, 12.10876
769.8562, 10.77979
770.3383, 9.752045
770.8204, 8.973022
771.3026, 8.288971
771.7847, 7.651520
772.2668, 7.043182
772.7489, 6.186584
773.2310, 5.422424
773.7131, 5.172485
774.1953, 6.110931
774.6774, 6.737396
775.1595, 6.802460
775.6416, 6.551239
776.1237, 6.423431
776.6058, 6.440643
777.0880, 6.403687
777.5701, 6.233246
778.0522, 6.030487
778.5343, 5.835175
779.0164, 5.743561
779.4985, 6.055267
779.9807, 7.405640
780.4628, 8.545288
780.9449, 8.214691
781.4270, 7.160156
781.9091, 6.899841
782.3912, 8.822968
782.8734, 10.25717
783.3555, 10.69351
783.8376, 10.49905
784.3197, 10.45840
784.8018, 10.55481
785.2839, 11.17050
785.7661, 12.70990
786.2482, 14.47723
786.7303, 15.31619
787.2124, 15.39084
787.6945, 15.25360
788.1766, 14.57498
788.6588, 14.36938
789.1409, 15.72031
789.6230, 17.94540
790.1051, 19.06448
790.5872, 17.64029
791.0693, 17.13766
791.5515, 18.73431
792.0336, 21.43872
792.5157, 21.92886
792.9978, 20.19180
793.4799, 19.38898
793.9620, 21.25055
794.4442, 24.01544
794.9263, 25.06464
795.4084, 24.87881
795.8905, 24.81689
796.3726, 25.83853
796.8547, 26.73599
797.3369, 26.95804
797.8190, 26.63113
798.3011, 26.27353
798.7832, 25.85104
799.2653, 25.47488
799.7474, 25.19263
800.2296, 24.95255
800.7117, 24.74084
801.1938, 24.51718
801.6759, 23.81223
802.1580, 21.97141
802.6401, 20.05249
803.1223, 19.52292
803.6044, 19.91840
804.0865, 20.03070
804.5686, 19.37854
805.0507, 18.42584
805.5328, 17.45392
806.0150, 16.28119
806.4971, 14.10834
806.9792, 10.23575
807.4613, 7.708710
807.9434, 7.726288
808.4255, 9.198547
808.9077, 9.869873
809.3898, 9.805511
809.8719, 9.300079
810.3540, 8.272308
810.8361, 7.068909
811.3182, 5.802765
811.8004, 4.576843
812.2825, 3.610138
812.7646, 2.983307
813.2467, 2.627808
813.7288, 2.765808
814.2109, 3.069000
814.6931, 2.561249
815.1752, 1.119110
815.6573, 9.1249999E-03
816.1394, 0.3632510
816.6215, 0.2901000
817.1037, 3.5216998E-02
817.5858, 0.2729490
818.0679, 0.2947690
818.5500, 0.6186520
819.0322, 1.303955
819.5143, 0.9071040
819.9964, 7.6720998E-02
820.4785, 0.5989690
820.9606, 0.2670290
821.4427, 8.6487003E-02
821.9249, 0.2341610
822.4070, 0.5759580
822.8891, 1.010590
823.3712, 1.484802
823.8533, 1.285309
824.3354, 0.1529540
824.8176, 1.560822
825.2997, 1.101501
825.7818, 0.3240660
826.2639, 1.158234
826.7460, 0.4121700
827.2281, 0.3939820
827.7103, 1.373047
828.1924, 2.015045
828.6745, 1.342712
829.1566, 1.266235
829.6387, 2.501282
830.1208, 1.530884
830.6030, 0.1789550
831.0851, 0.3144840
831.5672, 0.6457520
832.0493, 1.412262
832.5314, 1.609375
833.0135, 1.604340
833.4957, 1.522156
833.9778, 1.431091
834.4599, 1.412354
834.9420, 1.750916
835.4241, 1.757690
835.9063, 1.300293
836.3884, 0.6799930
836.8705, 0.2519530
837.3526, 1.3458000E-02
837.8347, 0.3113710
838.3168, 0.8283390
838.7990, 1.038116
839.2811, 1.570583
839.7632, 1.365051
840.2453, 2.388336
840.7274, 2.795288
841.2095, 2.833252
841.6917, 2.461823
842.1738, 1.821350
842.6559, 0.9068600
843.1380, 0.6429140
843.6201, 1.085266
844.1022, 0.2291870
844.5844, 1.076447
845.0665, 2.140045
845.5486, 3.023865
846.0307, 3.973541
846.5128, 5.028412
846.9949, 5.697998
847.4771, 5.298767
847.9592, 4.642914
848.4413, 4.182220
848.9234, 3.843201
849.4055, 4.660645
849.8876, 7.338806
850.3698, 10.03201
850.8519, 11.70551
851.3340, 12.39316
851.8161, 12.43140
852.2982, 11.82928
852.7803, 11.51187
853.2625, 12.44247
853.7446, 13.75623
854.2267, 14.56415
854.7088, 14.82999
855.1909, 15.03864
855.6730, 15.12418
856.1552, 15.46628
856.6373, 16.29868
857.1194, 17.60721
857.6015, 18.85709
858.0836, 19.98166
858.5657, 20.75421
859.0479, 21.09100
859.5300, 21.30969
860.0121, 21.34125
860.4942, 21.24191
860.9763, 21.75629
861.4584, 24.22714
861.9406, 26.77042
862.4227, 28.11179
862.9048, 28.48599
863.3869, 29.49792
863.8690, 31.63361
864.3511, 33.26553
864.8333, 33.83237
865.3154, 33.97882
865.7975, 34.98151
866.2796, 36.67474
866.7617, 38.74786
867.2438, 41.69492
867.7260, 44.11563
868.2081, 43.99780
868.6902, 42.91800
869.1723, 43.34018
869.6544, 47.57086
870.1365, 50.97314
870.6187, 52.86957
871.1008, 53.99011
871.5829, 55.39551
872.0650, 57.10333
872.5471, 58.78577
873.0292, 60.36804
873.5114, 62.05634
873.9935, 63.80194
874.4756, 65.91849
874.9577, 69.03439
875.4399, 73.95905
875.9220, 77.70670
876.4041, 78.22961
876.8862, 78.30768
877.3683, 80.10989
877.8505, 84.26074
878.3326, 85.68982
878.8147, 84.05588
879.2968, 82.01843
879.7789, 81.85562
880.2610, 82.84863
880.7432, 84.21130
881.2253, 85.82196
881.7074, 86.54169
882.1895, 84.76599
882.6716, 82.80872
883.1537, 82.46149
883.6359, 83.64801
884.1180, 83.22433
884.6001, 80.89279
885.0822, 78.05832
885.5643, 75.47412
886.0464, 72.82758
886.5286, 68.98190
887.0107, 64.39410
887.4928, 60.47693
887.9749, 58.72226
888.4570, 57.17029
888.9391, 54.92676
889.4213, 52.21805
889.9034, 49.63080
890.3855, 47.25082
890.8676, 44.82483
891.3497, 42.22485
891.8318, 39.65665
892.3140, 37.53015
892.7961, 35.72345
893.2782, 33.62454
893.7603, 30.72659
894.2424, 28.27710
894.7245, 27.79172
895.2067, 28.06723
895.6888, 27.60947
896.1709, 25.60077
896.6530, 23.74658
897.1351, 22.13272
897.6172, 20.74176
898.0994, 19.58228
898.5815, 18.61646
899.0636, 17.74460
899.5457, 16.98431
900.0278, 15.95865
900.5099, 13.88663
900.9921, 11.63605
901.4742, 10.10916
901.9563, 9.561096
902.4384, 9.379456
902.9205, 9.888947
903.4026, 10.03348
903.8848, 9.083435
904.3669, 7.245392
904.8490, 6.282867
905.3311, 6.175415
905.8132, 6.268433
906.2953, 6.609955
906.7775, 6.613129
907.2596, 5.230194
907.7417, 2.943451
908.2238, 1.425293
908.7059, 2.107849
909.1880, 2.408386
909.6702, 1.601288
910.1523, 0.2180180
910.6344, 0.5300290
911.1165, 0.6474000
911.5986, 0.3302610
912.0807, 0.5636600
912.5629, 1.388214
913.0450, 1.400848
913.5271, 0.8623660
914.0092, 0.1022030
914.4913, 1.280945
914.9734, 1.920929
915.4556, 0.8286440
915.9377, 0.3224790
916.4198, 0.3575740
916.9019, 3.064423
917.3840, 3.776978
917.8661, 2.084869
918.3483, 0.3438420
918.8304, 1.428131
919.3125, 3.269104
919.7946, 2.861084
920.2767, 0.1159060
920.7589, 2.041046
921.2410, 1.062805
921.7231, 0.4649350
922.2052, 1.895996
922.6873, 3.138489
923.1694, 3.179688
923.6516, 1.992920
924.1337, 0.6820980
924.6158, 0.2932430
925.0979, 1.005188
925.5800, 1.782715
926.0621, 2.356506
926.5443, 2.065857
927.0264, 2.420279
927.5085, 2.698273
927.9906, 2.225189
928.4727, 0.6087650
928.9548, 0.2240600
929.4370, 0.2386470
929.9191, 0.5012510
930.4012, 1.239777
930.8833, 2.062103
931.3654, 2.498627
931.8475, 2.752472
932.3297, 3.194489
932.8118, 4.075134
933.2939, 4.429108
933.7761, 3.558624
934.2582, 2.552795
934.7403, 1.987183
935.2224, 1.859161
935.7045, 2.080231
936.1866, 2.657867
936.6688, 3.420044
937.1509, 4.679749
937.6330, 5.766357
938.1151, 5.378571
938.5972, 3.936127
939.0793, 3.617065
939.5615, 6.604889
940.0436, 8.971466
940.5257, 9.707397
941.0078, 9.214966
941.4899, 8.042694
941.9720, 6.259247
942.4542, 5.835266
942.9363, 7.763763
943.4184, 10.18323
943.9005, 10.89874
944.3826, 10.88016
944.8647, 11.49869
945.3469, 13.18436
945.8290, 15.40463
946.3111, 18.65063
946.7932, 21.67084
947.2753, 23.11047
947.7574, 23.09265
948.2396, 23.75812
948.7217, 25.18655
949.2038, 27.23105
949.6859, 30.24341
950.1680, 33.47955
950.6501, 36.17615
951.1323, 38.34204
951.6144, 40.90369
952.0965, 44.16080
952.5786, 47.48260
953.0607, 50.85657
953.5428, 54.04041
954.0250, 55.94452
954.5071, 56.83414
954.9892, 58.32684
955.4713, 61.30142
955.9534, 64.59378
956.4355, 67.52386
956.9177, 70.13571
957.3998, 72.52344
957.8819, 74.53183
958.3640, 76.69269
958.8461, 79.15897
959.3282, 81.51724
959.8104, 83.18951
960.2925, 84.36020
960.7746, 85.56027
961.2567, 86.84158
961.7388, 88.16916
962.2209, 89.23505
962.7031, 90.60504
963.1852, 93.01715
963.6673, 96.36047
964.1494, 98.58914
964.6315, 99.56891
965.1136, 99.73489
965.5958, 98.91797
966.0779, 97.73392
966.5600, 97.64520
967.0421, 98.27783
967.5242, 98.62799
968.0063, 98.02365
968.4885, 97.38321
968.9706, 97.23996
969.4527, 97.23108
969.9348, 97.02078
970.4169, 96.71518
970.8990, 95.25571
971.3812, 92.36731
971.8633, 89.49475
972.3454, 88.27930
972.8275, 87.91449
973.3096, 87.43387
973.7917, 86.71783
974.2739, 85.39639
974.7560, 82.56897
975.2381, 79.83694
975.7202, 77.83823
976.2023, 76.53613
976.6844, 75.83423
977.1666, 75.66861
977.6487, 74.93448
978.1308, 73.13657
978.6129, 70.80096
979.0950, 68.48367
979.5771, 66.08810
980.0593, 63.48288
980.5414, 60.08502
981.0235, 57.46030
981.5056, 55.95218
981.9877, 54.94626
982.4698, 53.76956
982.9520, 52.42740
983.4341, 51.44797
983.9162, 50.85019
984.3983, 49.77310
984.8804, 47.02426
985.3625, 43.88339
985.8447, 41.32758
986.3268, 39.50714
986.8089, 38.37906
987.2910, 38.20755
987.7731, 37.87326
988.2552, 36.98761
988.7374, 35.77408
989.2195, 34.61182
989.7016, 33.50949
990.1837, 32.48267
990.6658, 31.46515
991.1479, 30.66846
991.6301, 30.93570
992.1122, 30.93863
992.5944, 29.05524
993.0765, 24.56952
993.5586, 22.57831
994.0407, 23.38336
994.5228, 24.62643
995.0049, 24.25989
995.4871, 23.24875
995.9692, 22.81586
996.4513, 22.95972
996.9334, 23.23236
997.4155, 23.37393
997.8976, 23.81412
998.3798, 24.83035
998.8619, 26.07806
999.3440, 26.80048
999.8261, 27.01212
1000.308, 26.72250
1000.790, 25.71216
1001.272, 24.95316
1001.755, 25.59064
1002.237, 26.72333
1002.719, 27.31320
1003.201, 26.88812
1003.683, 27.20303
1004.165, 28.70932
1004.647, 29.83664
1005.129, 29.16653
1005.612, 27.42746
1006.094, 26.81979
1006.576, 27.13336
1007.058, 27.33603
1007.540, 26.57693
1008.022, 25.96756
1008.504, 26.02847
1008.986, 26.51349
1009.468, 27.12387
1009.951, 27.91870
1010.433, 28.25653
1010.915, 27.97446
1011.397, 27.52158
1011.879, 27.41226
1012.361, 27.42239
1012.843, 27.25018
1013.325, 26.81985
1013.807, 26.45551
1014.290, 26.12598
1014.772, 25.99707
1015.254, 26.23007
1015.736, 26.69901
1016.218, 26.91287
1016.700, 26.89035
1017.182, 26.72485
1017.664, 26.29843
1018.147, 25.95859
1018.629, 26.03268
1019.111, 26.29721
1019.593, 26.39420
1020.075, 26.21725
1020.557, 26.18991
1021.039, 26.36902
1021.521, 26.54440
1022.003, 26.54044
1022.486, 26.38425
1022.968, 26.15677
1023.450, 25.85663
1023.932, 25.32730
1024.414, 23.97760
1024.896, 23.02670
1025.378, 22.83667
1025.860, 23.33871
1026.343, 24.71472
1026.825, 26.82471
1027.307, 28.05569
1027.789, 27.78217
1028.271, 27.05939
1028.753, 26.67874
1029.235, 26.49039
1029.717, 26.30045
1030.199, 26.00897
1030.682, 26.27274
1031.164, 27.33453
1031.646, 28.12265
1032.128, 27.85599
1032.610, 26.92435
1033.092, 26.27820
1033.574, 25.79419
1034.056, 25.05103
1034.539, 22.96741
1035.021, 21.77313
1035.503, 22.85703
1035.985, 24.69373
1036.467, 25.16830
1036.949, 24.25613
1037.431, 24.03394
1037.913, 24.80737
1038.396, 25.30853
1038.878, 24.01105
1039.360, 22.26666
1039.842, 21.26883
1040.324, 21.09912
1040.806, 21.32162
1041.288, 22.44547
1041.770, 22.57141
1042.252, 20.68979
1042.734, 18.07004
1043.217, 17.49103
1043.699, 18.28146
1044.181, 18.54742
1044.663, 17.12509
1045.145, 16.52896
1045.627, 19.23196
1046.109, 21.87292
1046.591, 21.52747
1047.074, 18.00339
1047.556, 16.84726
1048.038, 18.05804
1048.520, 19.31284
1049.002, 19.00931
1049.484, 18.12592
1049.966, 17.06232
1050.448, 16.11343
1050.931, 16.15665
1051.413, 18.00714
1051.895, 19.10480
1052.377, 19.04565
1052.859, 18.47589
1053.341, 18.22324
1053.823, 18.04941
1054.305, 17.15317
1054.787, 15.44009
1055.270, 14.45337
1055.752, 16.04471
1056.234, 17.20599
1056.716, 16.34055
1057.198, 14.14822
1057.680, 13.49542
1058.162, 14.28091
1058.644, 15.00488
1059.126, 15.30237
1059.609, 15.07172
1060.091, 13.71381
1060.573, 12.06348
1061.055, 11.21246
1061.537, 11.68390
1062.019, 11.04761
1062.501, 8.931610
1062.983, 7.091858
1063.466, 7.068481
1063.948, 7.912659
1064.430, 7.765320
1064.912, 6.961334
1065.394, 6.494812
1065.876, 7.338379
1066.358, 7.762878
1066.840, 7.528412
1067.323, 6.736450
1067.805, 5.160278
1068.287, 3.000458
1068.769, 1.812714
1069.251, 1.710236
1069.733, 2.221497
1070.215, 3.658234
1070.697, 5.007538
1071.179, 5.414459
1071.661, 5.106293
1072.144, 5.111908
1072.626, 5.504120
1073.108, 5.766235
1073.590, 5.863068
1074.072, 5.494904
1074.554, 3.761658
1075.036, 1.596313
1075.518, 0.2708740
1076.001, 0.1962280
1076.483, 0.1789250
1076.965, 8.5631996E-02
1077.447, 0.1227110
1077.929, 0.4442440
1078.411, 0.9482730
1078.893, 1.523468
1079.375, 2.035187
1079.858, 2.029022
1080.340, 0.7148130
1080.822, 0.3068540
1081.304, 0.1150820
1081.786, 0.3231200
1082.268, 4.8431002E-02
1082.750, 0.9617610
1083.232, 1.406342
1083.714, 1.263947
1084.197, 0.9477230
1084.679, 0.8339840
1085.161, 0.5808410
1085.643, 0.5073850
1086.125, 0.3614253
1086.607, 0.4359419
1087.089, 0.5852360
1087.571, 0.8093870
1088.054, 1.910187
1088.536, 2.437866
1089.018, 1.698578
1089.500, 2.354786
1089.982, 0.8273320
1090.464, 1.775085
1090.946, 1.762726
1091.428, 0.1754760
1091.911, 1.731750
1092.393, 2.145569
1092.875, 1.788788
1093.357, 1.253326
1093.839, 0.6948240
1094.321, 0.6745000
1094.803, 1.573975
1095.285, 2.285065
1095.767, 1.973572
1096.250, 1.567444
1096.732, 1.818970
1097.214, 2.655151
1097.696, 2.591583
1098.178, 1.658295
1098.660, 0.5511780
1099.142, 0.2536320
1099.624, 1.246765
1100.106, 3.428772
1100.589, 5.792908
1101.071, 6.610748
1101.553, 5.067535
1102.035, 4.771301
1102.517, 6.015381
1102.999, 7.237732
1103.481, 6.787292
1103.963, 5.756897
1104.446, 5.567383
1104.928, 6.107849
1105.410, 6.730560
1105.892, 7.485870
1106.374, 7.967377
1106.856, 8.116028
1107.338, 7.966339
1107.820, 7.199432
1108.302, 6.251556
1108.785, 6.323364
1109.267, 7.549194
1109.749, 8.637909
1110.231, 8.858795
1110.713, 9.045471
1111.195, 9.462891
1111.677, 10.09808
1112.159, 11.08688
1112.641, 12.32349
1113.124, 13.08435
1113.606, 13.11435
1114.088, 13.00555
1114.570, 12.77423
1115.052, 12.90259
1115.534, 14.08084
1116.016, 16.20090
1116.498, 16.86633
1116.981, 16.03232
1117.463, 15.20508
1117.945, 15.05780
1118.427, 15.28403
1118.909, 15.85233
1119.391, 16.47668
1119.873, 16.57245
1120.355, 15.75760
1120.838, 15.43826
1121.320, 15.63452
1121.802, 16.17886
1122.284, 17.33719
1122.766, 18.49478
1123.248, 18.68069
1123.730, 18.15857
1124.212, 17.59052
1124.694, 17.27716
1125.177, 16.72641
1125.659, 15.75867
1126.141, 14.84204
1126.623, 14.69995
1127.105, 14.95029
1127.587, 14.27954
1128.069, 12.81610
1128.551, 12.02402
1129.033, 13.61526
1129.516, 14.60742
1129.998, 13.94269
1130.480, 12.57312
1130.962, 11.90280
1131.444, 11.86655
1131.926, 12.25070
1132.408, 13.05487
1132.890, 13.47900
1133.373, 12.72766
1133.855, 11.75275
1134.337, 11.09924
1134.819, 10.68015
1135.301, 10.14252
1135.783, 9.511200
1136.265, 9.009064
1136.747, 8.675751
1137.229, 8.472473
1137.712, 8.767426
1138.194, 8.966125
1138.676, 8.269104
1139.158, 6.656372
1139.640, 5.745880
1140.122, 5.572327
1140.604, 6.068970
1141.086, 7.645111
1141.569, 9.165375
1142.051, 9.245178
1142.533, 8.532715
1143.015, 7.909973
1143.497, 7.529633
1143.979, 6.974640
1144.461, 6.200256
1144.943, 5.628418
1145.426, 5.711334
1145.908, 5.922302
1146.390, 5.269745
1146.872, 4.210968
1147.354, 3.625885
1147.836, 4.150269
1148.318, 4.513580
1148.800, 4.706512
1149.282, 4.706879
1149.765, 4.370209
1150.247, 3.824432
1150.729, 3.118866
1151.211, 2.490326
1151.693, 2.738342
1152.175, 5.732269
1152.657, 7.267914
1153.139, 6.298096
1153.621, 4.372101
1154.104, 3.035553
1154.586, 2.225311
1155.068, 1.883972
1155.550, 2.018280
1156.032, 2.335388
1156.514, 3.091003
1156.996, 3.417664
1157.478, 2.746368
1157.961, 1.777863
1158.443, 1.934845
1158.925, 2.981934
1159.407, 3.605530
1159.889, 3.613586
1160.371, 3.438171
1160.853, 3.095398
1161.335, 2.910370
1161.818, 3.111511
1162.300, 3.547607
1162.782, 3.886444
1163.264, 4.113617
1163.746, 3.966064
1164.228, 3.307861
1164.710, 2.682343
1165.192, 2.569183
1165.674, 2.593658
1166.156, 2.423065
1166.639, 2.575958
1167.121, 2.271515
1167.603, 2.848419
1168.085, 3.286591
1168.567, 3.404694
1169.049, 3.338745
1169.531, 3.068634
1170.013, 2.768829
1170.496, 2.639526
1170.978, 2.479523
1171.460, 2.613342
1171.942, 2.396912
1172.424, 2.300995
1172.906, 2.456421
1173.388, 2.746918
1173.870, 3.572845
1174.353, 4.213989
1174.835, 3.276184
1175.317, 4.1200002E-03
1175.799, 0.2207340
1176.281, 3.102325
1176.763, 5.694672
1177.245, 4.541107
1177.727, 2.097931
1178.209, 0.8193050
1178.692, 0.3278200
1179.174, 2.6672000E-02
1179.656, 0.5131530
1180.138, 0.2586060
1180.620, 0.9073490
1181.102, 1.978668
1181.584, 2.060791
1182.066, 1.721191
1182.548, 1.662842
1183.031, 1.796783
1183.513, 1.893860
1183.995, 1.945801
1184.477, 1.795044
1184.959, 1.344604
1185.441, 1.046234
1185.923, 1.714081
1186.405, 1.053603
1186.888, 1.935547
1187.370, 0.4208980
1187.852, 0.4647520
1188.334, 9.8968998E-02
1188.816, 0.1665040
1189.298, 0.1704710
1189.780, 0.1943660
1190.262, 0.5754700
1190.745, 1.133301
1191.227, 1.749176
1191.709, 2.330170
1192.191, 2.434784
1192.673, 1.805450
1193.155, 1.978667
1193.637, 1.479786
1194.119, 1.318878
1194.601, 0.8787540
1195.084, 0.1840520
1195.566, 0.4158940
1196.048, 0.1657410
1196.530, 0.1055600
1197.012, 1.426300
1197.494, 2.468994
1197.976, 2.608002
1198.458, 2.233368
1198.941, 1.705872
1199.423, 1.093262
1199.905, 0.8834906
1200.387, 0.2979740
1200.869, 0.4618230
1201.351, 0.4547420
1201.833, 0.4409067
1202.315, 0.8989260
1202.797, 0.4403990
1203.280, 0.1581420
1203.762, 0.1518550
1204.244, 0.7565920
1204.726, 2.061127
1205.208, 2.996948
1205.690, 3.564941
1206.172, 3.319763
1206.654, 1.727753
1207.136, 2.2583000E-02
1207.619, 0.4737550
1208.101, 2.168304
1208.583, 3.284119
1209.065, 3.478912
1209.547, 3.227722
1210.029, 2.175476
1210.511, 1.671936
1210.993, 2.349152
1211.476, 3.586273
1211.958, 4.461670
1212.440, 5.006226
1212.922, 5.184540
1213.404, 4.900818
1213.886, 4.792725
1214.368, 5.073395
1214.850, 5.179962
1215.333, 4.787384
1215.815, 4.232666
1216.297, 4.093872
1216.779, 4.255249
1217.261, 4.592346
1217.743, 5.265198
1218.225, 5.244568
1218.707, 4.130981
1219.189, 3.264008
1219.672, 3.466278
1220.154, 4.040283
1220.636, 3.374695
1221.118, 2.190857
1221.600, 1.780334
1222.082, 2.754852
1222.564, 3.596100
1223.046, 4.305756
1223.528, 4.635010
1224.011, 4.246582
1224.493, 3.652222
1224.975, 3.860870
1225.457, 3.612213
1225.939, 3.556061
1226.421, 3.950745
1226.903, 3.897278
1227.385, 4.667572
1227.868, 5.583801
1228.350, 6.518707
1228.832, 7.098602
1229.314, 6.350861
1229.796, 4.972809
1230.278, 4.202209
1230.760, 4.634369
1231.242, 4.523376
1231.724, 3.693817
1232.207, 3.140930
1232.689, 3.741119
1233.171, 4.579865
1233.653, 4.540955
1234.135, 4.126953
1234.617, 3.956696
1235.099, 4.143097
1235.581, 4.628967
1236.063, 5.471069
1236.546, 6.001404
1237.028, 5.771179
1237.510, 5.025421
1237.992, 3.435699
1238.474, 1.846680
1238.956, 1.841400
1239.438, 4.183228
1239.920, 4.639038
1240.403, 3.067383
1240.885, 1.490021
1241.367, 1.193237
1241.849, 1.441010
1242.331, 1.737152
1242.813, 2.094879
1243.295, 2.504395
1243.777, 2.937836
1244.260, 3.869934
1244.742, 5.296783
1245.224, 6.336578
1245.706, 6.331116
1246.188, 5.971893
1246.670, 5.384338
1247.152, 4.813690
1247.634, 4.568787
1248.116, 4.634308
1248.599, 3.957367
1249.081, 2.857788
1249.563, 2.249969
1250.045, 3.190704
1250.527, 4.187134
1251.009, 3.935822
1251.491, 3.472992
1251.973, 4.167450
1252.455, 6.121674
1252.938, 5.903748
1253.420, 3.763702
1253.902, 2.279999
1254.384, 3.820770
1254.866, 4.840973
1255.348, 3.292114
1255.830, 1.533234
1256.313, 1.602173
1256.795, 3.071350
1257.277, 3.399658
1257.759, 2.851807
1258.241, 2.846954
1258.723, 4.971588
1259.205, 6.379059
1259.687, 6.386841
1260.169, 5.782593
1260.651, 4.756348
1261.134, 3.732086
1261.616, 4.773834
1262.098, 7.175995
1262.580, 8.572693
1263.062, 7.587433
1263.544, 6.181488
1264.026, 4.144043
1264.508, 2.615692
1264.991, 2.929108
1265.473, 4.227539
1265.955, 4.963440
1266.437, 5.260468
1266.919, 5.497375
1267.401, 6.012604
1267.883, 6.009094
1268.365, 5.456238
1268.848, 4.609283
1269.330, 3.198242
1269.812, 2.036377
1270.294, 2.510986
1270.776, 3.897491
1271.258, 4.737366
1271.740, 4.871552
1272.222, 4.426697
1272.704, 3.409607
1273.187, 2.613983
1273.669, 2.533386
1274.151, 2.938812
1274.633, 4.176636
1275.115, 5.475067
1275.597, 5.643829
1276.079, 4.530334
1276.561, 2.844910
1277.043, 0.6822810
1277.526, 0.2979130
1278.008, 2.031952
1278.490, 4.608551
1278.972, 6.222290
1279.454, 6.691162
1279.936, 5.563385
1280.418, 2.952393
1280.900, 1.154083
1281.383, 0.1914980
1281.865, 0.1451720
1282.347, 1.673645
1282.829, 3.263855
1283.311, 4.651367
1283.793, 5.628723
1284.275, 5.980103
1284.757, 5.777710
1285.240, 5.280396
1285.722, 4.514465
1286.204, 3.562103
1286.686, 2.181305
1287.168, 1.114502
1287.650, 0.4289550
1288.132, 6.2958002E-02
1288.614, 2.0385999E-02
1289.096, 0.1928100
1289.578, 0.8221440
1290.061, 1.726929
1290.543, 2.682861
1291.025, 2.424411
1291.507, 4.422699
1291.989, 1.997528
1292.471, 0.1509700
1292.953, 0.1556090
1293.435, 0.7717590
1293.918, 1.629761
1294.400, 2.366852
1294.882, 2.912323
1295.364, 3.243622
1295.846, 3.406555
1296.328, 3.539673
1296.810, 3.388306
1297.292, 2.421631
1297.775, 1.536133
1298.257, 2.053223
1298.739, 2.976379
1299.221, 3.088959
1299.703, 2.469971
1300.185, 1.536987
1300.667, 0.4441220
1301.149, 1.6876001E-02
1301.631, 0.8341980
1302.114, 0.7645260
1302.596, 0.0000000E+00
##END=



