##NAMES=Kozoite-(Nd)
##RRUFFID=R060996
##IDEAL CHEMISTRY=NdCO_3_(OH)
##LOCALITY=Mitsukoshi, Hizen-cho, Karatsu City, Saga Prefecture, Japan
##OWNER=RRUFF
##SOURCE=Marcus Origlieri
##DESCRIPTION=Pink sphere, radially zoned with kozoite-(La). The kozoite-(Nd) is distinguished from kozoite-(La) by being pinker in color.
##STATUS=The identification of this mineral is not yet confirmed.
##URL=rruff.info/R060996
128.7542, 0.0000000E+00
129.2363, 16.01221
129.7184, 37.98633
130.2005, 31.21484
130.6827, 0.6640630
131.1648, 13.13525
131.6469, 8.483887
132.1290, 1.746094
132.6111, 10.07031
133.0932, 16.68359
133.5754, 29.56543
134.0575, 49.62646
134.5396, 75.04053
135.0217, 99.66504
135.5038, 121.5986
135.9859, 153.9785
136.4680, 207.3057
136.9502, 282.8696
137.4323, 368.6377
137.9144, 464.7046
138.3965, 570.1870
138.8786, 665.9155
139.3607, 748.1411
139.8429, 826.9238
140.3250, 913.8032
140.8071, 1010.144
141.2892, 1108.629
141.7713, 1211.838
142.2534, 1327.466
142.7356, 1403.508
143.2177, 1418.403
143.6998, 1409.002
144.1819, 1445.581
144.6640, 1562.156
145.1461, 1674.412
145.6283, 1750.343
146.1104, 1769.095
146.5925, 1788.622
147.0746, 1815.213
147.5567, 1842.895
148.0388, 1849.732
148.5210, 1816.243
149.0031, 1777.838
149.4852, 1753.402
149.9673, 1780.007
150.4494, 1777.212
150.9315, 1723.802
151.4137, 1623.684
151.8958, 1546.437
152.3779, 1521.289
152.8600, 1506.477
153.3421, 1470.745
153.8242, 1392.187
154.3064, 1312.898
154.7885, 1240.427
155.2706, 1177.002
155.7527, 1115.289
156.2348, 1058.622
156.7169, 1001.918
157.1991, 938.3604
157.6812, 843.0049
158.1633, 758.6577
158.6454, 704.9023
159.1275, 694.1572
159.6096, 684.7192
160.0918, 661.3643
160.5739, 630.6191
161.0560, 605.8945
161.5381, 606.7295
162.0202, 605.1313
162.5023, 581.9888
162.9845, 518.1807
163.4666, 455.6494
163.9487, 414.6733
164.4308, 390.6704
164.9129, 366.4517
165.3951, 330.5166
165.8772, 292.5508
166.3593, 261.5156
166.8414, 249.1675
167.3235, 236.9644
167.8056, 210.3257
168.2877, 171.1050
168.7699, 135.9946
169.2520, 120.6641
169.7341, 114.6865
170.2162, 104.0254
170.6983, 73.07080
171.1804, 41.50977
171.6626, 26.75684
172.1447, 29.75098
172.6268, 40.01172
173.1089, 49.85400
173.5910, 60.76172
174.0731, 75.62207
174.5553, 101.4712
175.0374, 129.7827
175.5195, 147.0742
176.0016, 149.5903
176.4837, 153.6494
176.9658, 176.2114
177.4480, 214.2998
177.9301, 258.0791
178.4122, 299.2065
178.8943, 342.4077
179.3764, 398.2710
179.8585, 473.0010
180.3407, 549.8335
180.8228, 602.0742
181.3049, 632.3701
181.7870, 664.5493
182.2691, 715.2559
182.7512, 780.9414
183.2334, 848.8691
183.7155, 914.0508
184.1976, 983.2422
184.6797, 1079.547
185.1618, 1201.853
185.6439, 1320.943
186.1261, 1399.413
186.6082, 1437.296
187.0903, 1492.515
187.5724, 1586.255
188.0545, 1702.850
188.5366, 1804.954
189.0188, 1890.764
189.5009, 1973.368
189.9830, 2068.518
190.4651, 2174.665
190.9472, 2278.771
191.4293, 2383.981
191.9115, 2485.022
192.3936, 2555.467
192.8757, 2589.265
193.3578, 2616.583
193.8399, 2687.221
194.3220, 2803.483
194.8042, 2903.130
195.2863, 2950.729
195.7684, 2949.432
196.2505, 2967.432
196.7326, 3013.164
197.2147, 3063.263
197.6968, 3073.571
198.1790, 3039.989
198.6611, 3001.359
199.1432, 2980.239
199.6253, 2978.277
200.1074, 2960.019
200.5895, 2922.538
201.0717, 2869.088
201.5538, 2803.966
202.0359, 2724.372
202.5180, 2643.519
203.0001, 2566.086
203.4822, 2490.513
203.9644, 2429.257
204.4465, 2387.269
204.9286, 2358.444
205.4107, 2324.089
205.8928, 2282.457
206.3749, 2239.586
206.8571, 2196.933
207.3392, 2151.767
207.8213, 2120.854
208.3034, 2108.654
208.7855, 2113.125
209.2676, 2122.625
209.7498, 2136.410
210.2319, 2158.021
210.7140, 2190.424
211.1961, 2234.930
211.6782, 2287.793
212.1603, 2348.146
212.6425, 2416.385
213.1246, 2493.319
213.6067, 2579.076
214.0888, 2671.994
214.5709, 2769.601
215.0530, 2870.777
215.5352, 2979.780
216.0173, 3099.850
216.4994, 3230.536
216.9815, 3359.128
217.4636, 3480.657
217.9457, 3606.621
218.4279, 3752.051
218.9100, 3928.574
219.3921, 4099.870
219.8742, 4256.250
220.3563, 4396.820
220.8384, 4524.441
221.3206, 4629.194
221.8027, 4729.394
222.2848, 4852.014
222.7669, 5014.379
223.2490, 5168.353
223.7311, 5302.481
224.2133, 5415.985
224.6954, 5509.791
225.1775, 5577.781
225.6596, 5630.391
226.1417, 5684.025
226.6238, 5741.155
227.1060, 5795.445
227.5881, 5849.634
228.0702, 5915.588
228.5523, 5940.011
229.0344, 5903.886
229.5165, 5834.177
229.9986, 5790.081
230.4808, 5792.427
230.9629, 5788.574
231.4450, 5754.422
231.9271, 5672.329
232.4092, 5601.486
232.8913, 5541.008
233.3735, 5492.170
233.8556, 5460.799
234.3377, 5461.305
234.8198, 5460.357
235.3019, 5438.972
235.7840, 5374.063
236.2662, 5341.062
236.7483, 5354.566
237.2304, 5399.628
237.7125, 5424.656
238.1946, 5412.234
238.6767, 5402.308
239.1589, 5416.404
239.6410, 5464.962
240.1231, 5519.669
240.6052, 5573.148
241.0873, 5629.483
241.5694, 5711.964
242.0516, 5840.719
242.5337, 5969.430
243.0158, 6070.554
243.4979, 6130.957
243.9800, 6188.416
244.4621, 6243.188
244.9443, 6295.002
245.4264, 6349.637
245.9085, 6411.324
246.3906, 6473.494
246.8727, 6530.343
247.3548, 6575.871
247.8370, 6621.420
248.3191, 6676.511
248.8012, 6738.006
249.2833, 6772.063
249.7654, 6767.982
250.2475, 6747.835
250.7297, 6728.015
251.2118, 6713.238
251.6939, 6694.870
252.1760, 6675.690
252.6581, 6652.976
253.1402, 6609.869
253.6224, 6540.859
254.1045, 6461.287
254.5866, 6386.217
255.0687, 6328.478
255.5508, 6238.426
256.0329, 6101.241
256.5150, 5921.632
256.9972, 5759.012
257.4793, 5624.785
257.9614, 5489.510
258.4435, 5325.777
258.9256, 5117.621
259.4077, 4925.505
259.8899, 4761.908
260.3720, 4624.708
260.8541, 4482.132
261.3362, 4337.343
261.8183, 4183.414
262.3004, 4010.835
262.7826, 3811.695
263.2647, 3617.237
263.7468, 3432.839
264.2289, 3257.495
264.7110, 3098.187
265.1931, 2959.240
265.6753, 2829.379
266.1574, 2700.011
266.6395, 2569.638
267.1216, 2442.046
267.6037, 2318.100
268.0858, 2198.203
268.5680, 2068.898
269.0501, 1923.675
269.5322, 1787.343
270.0143, 1687.022
270.4964, 1634.581
270.9785, 1570.876
271.4607, 1478.521
271.9428, 1363.378
272.4249, 1270.484
272.9070, 1204.193
273.3891, 1147.648
273.8712, 1083.764
274.3534, 1010.837
274.8355, 941.1699
275.3176, 874.7910
275.7997, 813.6006
276.2818, 775.9580
276.7639, 770.3647
277.2461, 762.6572
277.7282, 713.6445
278.2103, 617.3477
278.6924, 538.4941
279.1745, 492.9990
279.6566, 474.8159
280.1388, 458.6440
280.6209, 445.3867
281.1030, 429.7988
281.5851, 406.5776
282.0672, 375.3037
282.5493, 341.6782
283.0315, 306.1289
283.5136, 269.4189
283.9957, 232.3623
284.4778, 194.0430
284.9599, 161.3101
285.4420, 143.3711
285.9242, 139.4365
286.4063, 134.4712
286.8884, 125.0132
287.3705, 112.7441
287.8526, 103.2749
288.3347, 97.00146
288.8169, 88.80518
289.2990, 72.02832
289.7811, 48.06055
290.2632, 28.73291
290.7453, 18.06885
291.2274, 11.59961
291.7096, 0.5405270
292.1917, 18.50830
292.6738, 38.46094
293.1559, 59.90967
293.6380, 81.38574
294.1201, 98.43604
294.6023, 109.6289
295.0844, 115.8311
295.5665, 114.5542
296.0486, 106.4067
296.5307, 102.7056
297.0128, 117.9482
297.4950, 144.2075
297.9771, 160.7339
298.4592, 161.6782
298.9413, 154.2056
299.4234, 147.7725
299.9055, 142.0884
300.3877, 134.7095
300.8698, 124.9458
301.3519, 112.5376
301.8340, 95.07373
302.3161, 68.73096
302.7982, 44.76025
303.2804, 42.93750
303.7625, 57.66895
304.2446, 65.06738
304.7267, 38.73682
305.2088, 0.4658200
305.6909, 19.52637
306.1730, 9.358887
306.6552, 4.688965
307.1373, 5.358398
307.6194, 31.76953
308.1015, 52.07471
308.5836, 44.57861
309.0657, 29.52051
309.5479, 28.43115
310.0300, 50.00586
310.5121, 70.58594
310.9942, 67.07471
311.4763, 50.31055
311.9584, 44.53271
312.4406, 78.23438
312.9227, 116.7783
313.4048, 130.0825
313.8869, 107.6519
314.3690, 87.74463
314.8511, 94.94629
315.3333, 117.4077
315.8154, 135.0273
316.2975, 138.8750
316.7796, 136.7305
317.2617, 131.9116
317.7438, 124.2612
318.2260, 116.8633
318.7081, 104.0532
319.1902, 93.91992
319.6723, 97.19531
320.1544, 129.8857
320.6365, 165.1738
321.1187, 193.3428
321.6008, 212.6670
322.0829, 229.1484
322.5650, 240.0078
323.0471, 249.9385
323.5292, 263.9268
324.0114, 288.6792
324.4935, 311.6206
324.9756, 327.7544
325.4577, 335.7231
325.9398, 348.5938
326.4219, 377.0835
326.9041, 406.0371
327.3862, 422.5615
327.8683, 413.3931
328.3504, 405.5977
328.8325, 402.5820
329.3146, 404.3394
329.7968, 407.7324
330.2789, 414.5181
330.7610, 421.7456
331.2431, 426.6426
331.7252, 421.4160
332.2073, 426.9937
332.6895, 451.2036
333.1716, 490.6665
333.6537, 518.0938
334.1358, 532.2227
334.6179, 536.9839
335.1000, 532.5874
335.5822, 512.4189
336.0643, 500.7720
336.5464, 501.0034
337.0285, 510.4834
337.5106, 520.8018
337.9927, 531.4043
338.4749, 543.5703
338.9570, 555.9360
339.4391, 566.6865
339.9212, 591.0576
340.4033, 635.5298
340.8854, 687.4648
341.3676, 716.3687
341.8497, 718.8169
342.3318, 720.8823
342.8139, 736.1836
343.2960, 764.2861
343.7781, 793.4775
344.2603, 824.6694
344.7424, 854.1108
345.2245, 871.7139
345.7066, 878.2104
346.1887, 890.9102
346.6708, 919.4004
347.1530, 960.5859
347.6351, 1000.934
348.1172, 1039.405
348.5993, 1081.386
349.0814, 1133.982
349.5635, 1193.968
350.0457, 1254.703
350.5278, 1319.495
351.0099, 1379.557
351.4920, 1417.391
351.9741, 1433.657
352.4562, 1442.549
352.9384, 1446.978
353.4205, 1454.196
353.9026, 1478.672
354.3847, 1536.454
354.8668, 1600.621
355.3489, 1644.021
355.8311, 1669.920
356.3132, 1694.200
356.7953, 1727.644
357.2774, 1765.188
357.7595, 1802.495
358.2416, 1840.863
358.7238, 1875.518
359.2059, 1900.641
359.6880, 1919.473
360.1701, 1941.394
360.6522, 1967.068
361.1343, 1997.704
361.6165, 2035.083
362.0986, 2085.110
362.5807, 2132.863
363.0628, 2172.901
363.5449, 2206.078
364.0270, 2234.816
364.5092, 2253.064
364.9913, 2274.087
365.4734, 2305.714
365.9555, 2353.146
366.4376, 2391.447
366.9197, 2407.872
367.4018, 2416.598
367.8839, 2434.851
368.3661, 2475.606
368.8482, 2512.680
369.3303, 2541.442
369.8124, 2561.595
370.2945, 2576.696
370.7766, 2585.178
371.2588, 2588.447
371.7409, 2586.247
372.2230, 2569.348
372.7051, 2564.171
373.1872, 2580.164
373.6693, 2612.479
374.1515, 2631.080
374.6336, 2635.208
375.1157, 2626.082
375.5978, 2601.917
376.0799, 2558.781
376.5620, 2516.251
377.0442, 2474.275
377.5263, 2435.947
378.0084, 2411.764
378.4905, 2405.471
378.9726, 2392.150
379.4547, 2349.767
379.9369, 2281.176
380.4190, 2237.950
380.9011, 2228.947
381.3832, 2229.462
381.8653, 2198.339
382.3474, 2138.815
382.8296, 2085.758
383.3117, 2066.517
383.7938, 2065.262
384.2759, 2031.004
384.7580, 1958.542
385.2401, 1879.706
385.7223, 1822.042
386.2044, 1781.476
386.6865, 1747.603
387.1686, 1718.208
387.6507, 1691.605
388.1328, 1668.234
388.6150, 1647.117
389.0971, 1622.618
389.5792, 1591.056
390.0613, 1552.024
390.5434, 1505.884
391.0255, 1444.574
391.5077, 1391.071
391.9898, 1366.969
392.4719, 1363.083
392.9540, 1353.693
393.4361, 1325.575
393.9182, 1290.533
394.4004, 1255.209
394.8825, 1219.509
395.3646, 1184.108
395.8467, 1146.406
396.3288, 1109.727
396.8109, 1078.885
397.2931, 1062.310
397.7752, 1044.601
398.2573, 1021.426
398.7394, 992.1030
399.2215, 959.1582
399.7036, 919.8984
400.1858, 878.6396
400.6679, 838.7197
401.1500, 797.4502
401.6321, 761.7427
402.1142, 733.6748
402.5963, 712.4429
403.0785, 691.4810
403.5606, 672.5918
404.0427, 654.0698
404.5248, 630.6455
405.0069, 598.6187
405.4890, 567.9136
405.9712, 538.2842
406.4533, 511.7988
406.9354, 495.0693
407.4175, 487.5059
407.8996, 479.1284
408.3817, 464.4263
408.8639, 443.8950
409.3460, 423.5449
409.8281, 404.1304
410.3102, 382.5161
410.7923, 350.9761
411.2744, 312.2070
411.7566, 281.0278
412.2387, 263.8623
412.7208, 257.3730
413.2029, 259.5205
413.6850, 269.7681
414.1671, 278.0132
414.6493, 275.7817
415.1314, 266.3320
415.6135, 254.4067
416.0956, 240.8540
416.5777, 225.4727
417.0598, 208.7349
417.5420, 190.1982
418.0241, 168.2383
418.5062, 129.9082
418.9883, 95.86328
419.4704, 85.69141
419.9525, 110.4189
420.4347, 129.5488
420.9168, 121.2539
421.3989, 99.61377
421.8810, 84.47266
422.3631, 88.78174
422.8452, 93.04688
423.3274, 90.99902
423.8095, 81.94287
424.2916, 76.85889
424.7737, 79.67676
425.2558, 83.38281
425.7379, 82.27881
426.2201, 76.45703
426.7022, 65.42529
427.1843, 44.12354
427.6664, 17.18408
428.1485, 3.458496
428.6306, 6.145996
429.1127, 14.83887
429.5948, 25.94727
430.0770, 41.03174
430.5591, 49.12744
431.0412, 47.51318
431.5233, 42.89111
432.0054, 50.51709
432.4875, 72.06885
432.9697, 80.06055
433.4518, 56.09131
433.9339, 10.45215
434.4160, 13.16504
434.8981, 13.47119
435.3802, 4.138672
435.8624, 1.749023
436.3445, 6.010254
436.8266, 14.28516
437.3087, 32.34863
437.7908, 48.87695
438.2729, 45.93945
438.7551, 27.08398
439.2372, 7.967773
439.7193, 1.311523
440.2014, 6.874512
440.6835, 17.88916
441.1656, 38.89355
441.6478, 50.22119
442.1299, 30.70947
442.6120, 3.310059
443.0941, 28.20020
443.5762, 28.24170
444.0583, 24.39746
444.5405, 27.28760
445.0226, 37.24609
445.5047, 37.32910
445.9868, 8.674805
446.4689, 20.18115
446.9510, 31.32568
447.4332, 9.455078
447.9153, 12.09668
448.3974, 36.92090
448.8795, 60.95947
449.3616, 72.12891
449.8438, 67.42725
450.3259, 56.12305
450.8080, 36.43896
451.2901, 4.316406
451.7722, 6.136230
452.2543, 12.55664
452.7365, 39.98877
453.2186, 48.44238
453.7007, 36.77490
454.1828, 24.96973
454.6649, 17.38965
455.1470, 14.02246
455.6292, 16.94678
456.1113, 26.41016
456.5934, 35.09668
457.0755, 36.18457
457.5576, 32.07568
458.0397, 29.56104
458.5219, 30.31201
459.0040, 31.80420
459.4861, 35.12549
459.9682, 37.36572
460.4503, 30.92627
460.9324, 6.754395
461.4146, 41.90039
461.8967, 37.86719
462.3788, 7.374512
462.8609, 42.19678
463.3430, 26.84570
463.8251, 4.624512
464.3073, 20.19824
464.7894, 7.370605
465.2715, 31.01416
465.7536, 35.07812
466.2357, 25.48584
466.7178, 23.81689
467.2000, 45.70947
467.6821, 64.13037
468.1642, 67.39893
468.6463, 46.93994
469.1284, 36.84180
469.6105, 41.00830
470.0927, 51.95654
470.5748, 61.93506
471.0569, 73.49561
471.5390, 75.35449
472.0211, 58.79688
472.5032, 30.03955
472.9854, 30.16602
473.4675, 64.49268
473.9496, 98.11865
474.4317, 102.4380
474.9138, 81.79736
475.3959, 65.44287
475.8781, 57.60156
476.3602, 52.18457
476.8423, 39.55713
477.3244, 22.55664
477.8065, 10.36572
478.2886, 11.87939
478.7708, 18.33691
479.2529, 20.29297
479.7350, 17.56152
480.2171, 10.85010
480.6992, 10.64160
481.1813, 30.64404
481.6635, 31.60352
482.1456, 1.532227
482.6277, 37.99023
483.1098, 76.49854
483.5919, 109.4604
484.0740, 119.0854
484.5562, 71.68457
485.0383, 25.83545
485.5204, 4.511719
486.0025, 15.95703
486.4846, 22.95850
486.9667, 21.89941
487.4489, 19.38721
487.9310, 21.61963
488.4131, 30.85547
488.8952, 40.93457
489.3773, 53.09229
489.8594, 65.62354
490.3415, 72.53857
490.8236, 74.59766
491.3058, 68.89209
491.7879, 46.85791
492.2700, 10.64893
492.7521, 3.751953
493.2342, 7.759277
493.7163, 25.42090
494.1985, 25.05566
494.6806, 11.00439
495.1627, 1.032227
495.6448, 5.410156
496.1269, 5.903320
496.6090, 7.550781
497.0912, 9.794434
497.5733, 9.492676
498.0554, 1.552246
498.5375, 7.731934
499.0196, 12.11816
499.5017, 10.23242
499.9839, 9.722656
500.4660, 12.93994
500.9481, 17.92871
501.4302, 23.60693
501.9123, 37.30176
502.3944, 43.72705
502.8766, 33.80957
503.3587, 8.686035
503.8408, 5.016602
504.3229, 3.687988
504.8050, 3.432129
505.2871, 15.70215
505.7693, 38.45020
506.2514, 44.01709
506.7335, 24.16113
507.2156, 3.912109
507.6977, 11.93750
508.1798, 1.706543
508.6620, 20.83008
509.1441, 45.09277
509.6262, 69.74463
510.1083, 77.23438
510.5904, 67.53906
511.0725, 54.95654
511.5547, 52.45996
512.0368, 54.80566
512.5189, 51.51221
513.0010, 38.70557
513.4832, 26.23584
513.9653, 18.32129
514.4474, 15.36963
514.9295, 22.54150
515.4116, 51.24219
515.8937, 81.74316
516.3759, 107.2261
516.8580, 125.1558
517.3401, 131.5767
517.8222, 115.3760
518.3043, 94.65527
518.7864, 80.12451
519.2686, 77.25830
519.7507, 72.43994
520.2328, 63.33838
520.7148, 52.51465
521.1970, 48.81250
521.6791, 55.87549
522.1612, 61.49365
522.6433, 66.25684
523.1254, 68.79980
523.6075, 61.57715
524.0897, 38.25342
524.5718, 20.59180
525.0539, 26.89502
525.5360, 53.09668
526.0181, 76.91943
526.5002, 96.40625
526.9824, 110.5581
527.4645, 117.0356
527.9466, 117.2593
528.4287, 115.3945
528.9108, 110.6387
529.3929, 106.3745
529.8751, 109.1108
530.3572, 118.0884
530.8393, 120.1899
531.3214, 101.8452
531.8035, 76.90186
532.2856, 54.97852
532.7678, 35.14990
533.2499, 25.43408
533.7320, 36.43506
534.2141, 56.12402
534.6962, 66.83984
535.1783, 64.78955
535.6605, 58.48047
536.1426, 46.40088
536.6247, 30.46387
537.1068, 25.44775
537.5889, 34.47998
538.0710, 46.70947
538.5532, 56.78564
539.0353, 64.32178
539.5174, 62.88184
539.9995, 52.10352
540.4816, 39.72900
540.9637, 38.99365
541.4459, 47.16260
541.9280, 53.41113
542.4101, 52.78320
542.8922, 49.35059
543.3743, 49.13086
543.8564, 51.50293
544.3386, 52.07812
544.8207, 43.54004
545.3028, 35.22070
545.7849, 36.57471
546.2670, 51.32861
546.7491, 62.23486
547.2313, 55.80322
547.7134, 46.10498
548.1955, 47.34961
548.6776, 82.96826
549.1597, 103.4634
549.6418, 96.71924
550.1240, 71.04883
550.6061, 54.97852
551.0882, 53.35547
551.5703, 55.47168
552.0524, 58.69971
552.5345, 62.96826
553.0167, 59.20459
553.4988, 46.05273
553.9809, 31.77588
554.4630, 24.20312
554.9451, 22.47607
555.4272, 22.92725
555.9094, 26.12500
556.3915, 29.76855
556.8736, 29.35059
557.3557, 26.32227
557.8378, 25.11084
558.3199, 29.70557
558.8021, 35.94189
559.2842, 41.20605
559.7663, 45.43359
560.2484, 47.19434
560.7305, 40.68213
561.2126, 34.50830
561.6948, 34.84131
562.1769, 51.00195
562.6590, 61.25244
563.1411, 57.21240
563.6232, 49.07373
564.1053, 52.60352
564.5875, 76.30811
565.0696, 91.58545
565.5517, 90.96680
566.0338, 78.83398
566.5159, 70.56348
566.9980, 66.19238
567.4802, 62.67285
567.9623, 60.94727
568.4444, 58.94580
568.9265, 45.02197
569.4086, 17.01514
569.8907, 10.40967
570.3729, 27.19629
570.8550, 32.65137
571.3371, 23.85498
571.8192, 15.33203
572.3013, 48.23096
572.7834, 40.64062
573.2656, 7.187500
573.7477, 14.70459
574.2298, 0.6303710
574.7119, 17.22803
575.1940, 25.81494
575.6761, 23.85547
576.1583, 18.43848
576.6404, 2.688965
577.1225, 9.262207
577.6046, 4.416504
578.0867, 28.77148
578.5688, 40.62012
579.0510, 22.62988
579.5331, 9.231934
580.0152, 36.97461
580.4973, 60.26953
580.9794, 54.76611
581.4615, 2.166016
581.9437, 83.20898
582.4258, 139.6494
582.9079, 170.8359
583.3900, 176.2705
583.8721, 133.6445
584.3542, 75.86865
584.8364, 39.62012
585.3185, 30.67383
585.8006, 27.14258
586.2827, 21.39844
586.7648, 13.65332
587.2469, 4.122559
587.7291, 17.13428
588.2112, 28.26074
588.6933, 21.37695
589.1754, 2.671875
589.6575, 15.03467
590.1396, 36.00732
590.6218, 47.65527
591.1039, 42.72803
591.5860, 23.37695
592.0681, 13.40332
592.5502, 14.28516
593.0323, 16.85742
593.5145, 11.10205
593.9966, 0.2348630
594.4787, 0.6406250
594.9608, 16.07324
595.4429, 32.56250
595.9250, 30.74023
596.4072, 19.66260
596.8893, 16.39160
597.3714, 35.10889
597.8535, 55.16943
598.3356, 66.06543
598.8177, 68.83545
599.2999, 66.28369
599.7820, 46.57520
600.2641, 33.03320
600.7462, 38.72070
601.2283, 67.20410
601.7104, 86.19629
602.1926, 94.10547
602.6747, 94.31787
603.1568, 87.39111
603.6389, 71.11719
604.1210, 60.17969
604.6031, 55.61523
605.0853, 56.20605
605.5674, 59.18262
606.0495, 65.18311
606.5316, 78.76367
607.0137, 107.8345
607.4958, 138.9531
607.9780, 156.6440
608.4601, 161.1074
608.9422, 154.1431
609.4243, 119.9829
609.9064, 86.61914
610.3885, 78.54834
610.8707, 99.92432
611.3528, 117.9219
611.8349, 116.6182
612.3170, 112.9810
612.7991, 120.3667
613.2813, 157.2656
613.7634, 173.6528
614.2455, 157.9736
614.7276, 130.6890
615.2097, 128.1309
615.6918, 155.2334
616.1740, 177.2227
616.6561, 183.1519
617.1382, 178.4731
617.6203, 173.0991
618.1024, 167.7690
618.5845, 173.4902
619.0667, 217.1040
619.5488, 266.9810
620.0309, 274.1909
620.5130, 235.6387
620.9951, 193.7461
621.4772, 166.2695
621.9594, 151.8862
622.4415, 150.6592
622.9236, 173.4258
623.4057, 189.3647
623.8878, 188.3853
624.3699, 179.2217
624.8521, 175.3613
625.3342, 185.1343
625.8163, 183.1128
626.2984, 158.2500
626.7805, 120.6245
627.2626, 110.1890
627.7448, 129.2651
628.2269, 144.6328
628.7090, 133.9038
629.1911, 107.6650
629.6732, 98.91650
630.1553, 105.9155
630.6375, 116.6172
631.1196, 129.2739
631.6017, 135.8862
632.0838, 126.3281
632.5659, 90.66943
633.0480, 62.67480
633.5302, 59.05957
634.0123, 71.95166
634.4944, 91.58057
634.9765, 136.2671
635.4586, 163.0234
635.9407, 166.1118
636.4229, 147.9297
636.9050, 109.4561
637.3871, 32.91406
637.8692, 17.62061
638.3513, 9.376953
638.8334, 46.94287
639.3156, 83.90332
639.7977, 98.34131
640.2798, 101.0532
640.7619, 96.02930
641.2440, 86.27832
641.7261, 75.38232
642.2083, 63.28662
642.6904, 56.46973
643.1725, 67.86719
643.6545, 83.77002
644.1367, 88.19189
644.6188, 59.89990
645.1009, 44.06445
645.5830, 61.17236
646.0651, 94.07080
646.5472, 110.4116
647.0294, 103.6968
647.5115, 90.83643
647.9936, 71.07764
648.4757, 47.62842
648.9578, 35.97998
649.4399, 35.74756
649.9221, 48.77100
650.4042, 92.22559
650.8863, 149.2339
651.3684, 158.9873
651.8505, 120.6826
652.3326, 80.78906
652.8148, 85.16602
653.2969, 105.3037
653.7790, 108.6724
654.2611, 84.70166
654.7432, 57.75977
655.2253, 25.17871
655.7075, 7.3242001E-02
656.1896, 1.803711
656.6717, 54.21924
657.1538, 90.43652
657.6359, 91.99268
658.1180, 73.61963
658.6002, 74.05908
659.0823, 99.70508
659.5644, 114.9219
660.0465, 102.4683
660.5286, 71.95996
661.0107, 56.88574
661.4929, 56.27930
661.9750, 56.84424
662.4571, 45.44678
662.9392, 32.54688
663.4213, 34.69678
663.9034, 54.06006
664.3856, 68.70654
664.8677, 58.80859
665.3498, 44.52100
665.8319, 43.11035
666.3140, 71.59912
666.7961, 85.86768
667.2783, 72.75342
667.7604, 50.77100
668.2425, 42.87305
668.7246, 52.83203
669.2067, 62.16895
669.6888, 67.32080
670.1710, 69.97070
670.6531, 74.50293
671.1352, 80.58789
671.6173, 85.00879
672.0994, 86.75684
672.5815, 86.03516
673.0637, 86.51807
673.5458, 86.53711
674.0279, 75.77051
674.5100, 25.83643
674.9921, 18.06592
675.4742, 18.34375
675.9564, 37.29004
676.4385, 68.98877
676.9206, 41.72217
677.4027, 8.543457
677.8848, 2.463379
678.3669, 35.04297
678.8491, 54.39795
679.3312, 54.65186
679.8133, 50.65869
680.2954, 64.86719
680.7775, 93.82959
681.2596, 112.9067
681.7418, 112.1162
682.2239, 107.9834
682.7060, 124.3926
683.1881, 153.4116
683.6702, 175.9707
684.1523, 157.3311
684.6345, 156.5454
685.1166, 224.7295
685.5987, 343.3125
686.0808, 423.5874
686.5629, 408.1963
687.0450, 398.7437
687.5272, 429.2759
688.0093, 499.0366
688.4914, 551.9590
688.9735, 581.5137
689.4556, 617.4189
689.9377, 682.9312
690.4199, 773.1499
690.9020, 867.1860
691.3841, 962.8735
691.8662, 1058.705
692.3483, 1148.256
692.8304, 1238.549
693.3126, 1337.165
693.7947, 1444.053
694.2768, 1564.359
694.7589, 1712.362
695.2410, 1874.091
695.7231, 2025.685
696.2053, 2152.660
696.6874, 2286.813
697.1695, 2429.695
697.6516, 2584.147
698.1337, 2757.377
698.6158, 2950.715
699.0980, 3159.363
699.5801, 3390.948
700.0622, 3627.893
700.5443, 3848.997
701.0264, 4046.501
701.5085, 4162.256
701.9907, 4174.665
702.4728, 4079.045
702.9549, 3844.398
703.4370, 3476.996
703.9191, 3082.267
704.4012, 2644.007
704.8834, 2233.098
705.3655, 1893.576
705.8476, 1633.116
706.3297, 1413.321
706.8118, 1237.197
707.2939, 1094.558
707.7761, 976.8770
708.2582, 884.3564
708.7403, 814.2529
709.2224, 769.5361
709.7045, 737.3428
710.1866, 694.4385
710.6688, 653.8896
711.1509, 643.5957
711.6330, 687.1875
712.1151, 737.6309
712.5972, 751.6533
713.0793, 752.4951
713.5615, 780.9971
714.0436, 872.5566
714.5257, 964.1328
715.0078, 1042.575
715.4899, 1110.607
715.9720, 1176.701
716.4542, 1236.156
716.9363, 1307.404
717.4184, 1399.146
717.9005, 1507.374
718.3826, 1612.726
718.8647, 1715.689
719.3469, 1822.816
719.8290, 1930.351
720.3111, 2049.829
720.7932, 2210.613
721.2753, 2411.642
721.7574, 2593.002
722.2396, 2684.514
722.7217, 2773.826
723.2038, 2930.906
723.6859, 3201.094
724.1680, 3411.985
724.6501, 3551.901
725.1323, 3644.502
725.6144, 3711.378
726.0965, 3753.009
726.5786, 3750.464
727.0607, 3697.964
727.5428, 3617.919
728.0250, 3551.857
728.5071, 3479.352
728.9892, 3349.351
729.4713, 3136.362
729.9534, 2885.140
730.4355, 2605.301
730.9177, 2309.988
731.3998, 2021.688
731.8819, 1712.792
732.3640, 1448.146
732.8461, 1242.143
733.3282, 1084.281
733.8104, 947.1914
734.2925, 832.8887
734.7746, 735.2471
735.2567, 657.0498
735.7388, 591.2822
736.2209, 510.9199
736.7031, 420.3135
737.1852, 350.9238
737.6673, 339.4248
738.1494, 346.3242
738.6315, 331.5000
739.1136, 296.7773
739.5958, 272.0850
740.0779, 278.9131
740.5600, 290.3311
741.0421, 293.5215
741.5242, 288.0898
742.0063, 274.4756
742.4885, 245.1621
742.9706, 221.5303
743.4527, 224.8613
743.9348, 252.0889
744.4169, 259.2881
744.8990, 243.2080
745.3812, 216.1123
745.8633, 171.6016
746.3454, 129.2422
746.8275, 126.9697
747.3096, 187.7021
747.7917, 230.8330
748.2739, 205.2197
748.7560, 148.6562
749.2381, 102.2432
749.7202, 73.59473
750.2023, 50.95020
750.6844, 40.81641
751.1666, 30.78027
751.6487, 7.597656
752.1308, 76.58984
752.6129, 107.8281
753.0950, 78.49023
753.5771, 21.55762
754.0593, 23.83887
754.5414, 57.81836
755.0235, 79.66309
755.5056, 84.35156
755.9877, 81.40625
756.4698, 75.43262
756.9520, 65.49512
757.4341, 48.98926
757.9162, 11.48145
758.3983, 14.41113
758.8804, 18.87988
759.3625, 6.746094
759.8447, 4.533203
760.3268, 16.56152
760.8089, 16.95020
761.2910, 11.36426
761.7731, 49.41309
762.2552, 50.00781
762.7374, 18.43945
763.2195, 13.35742
763.7016, 29.50586
764.1837, 36.20996
764.6658, 32.33398
765.1479, 17.99219
765.6301, 15.61426
766.1122, 49.77441
766.5943, 74.28223
767.0764, 62.63770
767.5585, 10.22559
768.0406, 11.68652
768.5227, 0.8916020
769.0048, 24.51855
769.4869, 48.72168
769.9691, 69.09277
770.4512, 67.61523
770.9333, 42.13574
771.4154, 21.30762
771.8975, 37.91504
772.3796, 62.38184
772.8618, 65.40820
773.3439, 32.57910
773.8260, 9.640625
774.3081, 9.502930
774.7902, 16.58398
775.2723, 19.02246
775.7545, 15.20117
776.2366, 17.76074
776.7187, 30.38086
777.2008, 40.08594
777.6829, 24.29492
778.1650, 7.199219
778.6472, 27.26758
779.1293, 30.40723
779.6114, 20.73828
780.0935, 10.04297
780.5756, 46.91992
781.0577, 71.82129
781.5399, 68.66895
782.0220, 68.13477
782.5041, 74.66992
782.9862, 83.82031
783.4683, 89.09375
783.9504, 89.59082
784.4326, 91.35449
784.9147, 95.34180
785.3968, 101.8184
785.8789, 115.1367
786.3610, 131.7490
786.8431, 139.9941
787.3253, 128.6855
787.8074, 117.0166
788.2895, 122.4023
788.7716, 135.9404
789.2537, 139.6289
789.7358, 106.0977
790.2180, 91.82031
790.7001, 112.0117
791.1822, 154.8721
791.6643, 190.5938
792.1464, 220.1582
792.6285, 234.1436
793.1107, 220.9297
793.5928, 199.5293
794.0749, 214.1064
794.5570, 253.1289
795.0391, 275.8848
795.5212, 248.3945
796.0034, 212.0039
796.4855, 185.5566
796.9676, 169.3096
797.4497, 161.0928
797.9318, 163.8926
798.4139, 170.3281
798.8961, 181.6699
799.3782, 195.0361
799.8603, 193.6338
800.3424, 176.9600
800.8245, 159.9600
801.3066, 141.7158
801.7888, 132.2979
802.2709, 158.2705
802.7530, 211.5254
803.2351, 254.4854
803.7172, 271.1396
804.1993, 270.5303
804.6815, 250.1426
805.1636, 211.0957
805.6457, 183.7148
806.1278, 167.9170
806.6099, 164.8125
807.0920, 179.5596
807.5742, 208.1152
808.0563, 224.3730
808.5384, 228.6230
809.0205, 230.9316
809.5026, 240.0371
809.9847, 245.2646
810.4669, 236.0088
810.9490, 217.3633
811.4311, 209.4141
811.9132, 225.2266
812.3953, 243.1533
812.8774, 255.8809
813.3596, 263.1270
813.8417, 256.0654
814.3238, 228.3809
814.8059, 208.0068
815.2880, 216.3447
815.7701, 246.3604
816.2523, 268.9951
816.7344, 285.0176
817.2165, 296.4209
817.6986, 303.3643
818.1807, 305.8721
818.6628, 298.0293
819.1450, 277.4971
819.6271, 276.2432
820.1092, 340.3018
820.5913, 393.1865
821.0734, 392.2168
821.5555, 332.1953
822.0377, 303.5234
822.5198, 309.7793
823.0019, 323.0527
823.4840, 325.3662
823.9661, 319.0234
824.4482, 304.2178
824.9304, 281.4219
825.4125, 266.6348
825.8946, 275.7520
826.3767, 290.8877
826.8588, 298.3154
827.3409, 293.9561
827.8231, 293.0078
828.3052, 296.6191
828.7873, 302.6230
829.2694, 313.0654
829.7515, 327.1855
830.2336, 324.2383
830.7158, 303.8340
831.1979, 285.4600
831.6800, 292.3281
832.1621, 305.6328
832.6442, 298.5264
833.1263, 267.8027
833.6085, 248.1104
834.0906, 262.7109
834.5727, 282.4268
835.0548, 293.3418
835.5369, 295.5957
836.0190, 280.7383
836.5012, 242.3242
836.9833, 211.0195
837.4654, 219.2588
837.9475, 252.5908
838.4296, 261.8311
838.9117, 246.3174
839.3939, 233.3643
839.8760, 252.4746
840.3581, 273.2959
840.8402, 268.8506
841.3223, 233.0068
841.8044, 208.1650
842.2866, 198.6484
842.7687, 198.6035
843.2508, 207.5967
843.7329, 225.3457
844.2150, 236.0986
844.6971, 239.7559
845.1793, 247.2158
845.6614, 279.3193
846.1435, 308.7979
846.6256, 290.3613
847.1077, 226.2930
847.5898, 183.5312
848.0720, 204.0576
848.5541, 239.7852
849.0362, 272.6123
849.5183, 301.9834
850.0004, 304.9092
850.4825, 273.2070
850.9647, 247.8633
851.4468, 260.7168
851.9289, 298.6719
852.4110, 329.9668
852.8931, 351.9795
853.3752, 350.8691
853.8574, 292.1895
854.3395, 230.9072
854.8216, 209.9385
855.3037, 229.7188
855.7858, 228.5078
856.2679, 186.8398
856.7501, 150.3330
857.2322, 138.3809
857.7143, 147.0039
858.1964, 154.3828
858.6785, 160.7881
859.1606, 164.6572
859.6428, 163.1475
860.1249, 156.5957
860.6070, 141.8076
861.0891, 122.5303
861.5712, 113.7646
862.0533, 131.3525
862.5355, 148.5869
863.0176, 157.9053
863.4997, 159.9023
863.9818, 156.5312
864.4639, 147.0430
864.9460, 136.1621
865.4282, 124.4893
865.9103, 113.9922
866.3924, 112.7588
866.8745, 116.7510
867.3566, 111.9482
867.8387, 82.34375
868.3209, 52.46191
868.8030, 34.45801
869.2851, 25.49609
869.7672, 11.91895
870.2493, 14.65430
870.7314, 24.58105
871.2136, 6.500977
871.6957, 27.67383
872.1778, 55.08105
872.6599, 75.34082
873.1420, 86.57715
873.6241, 85.84180
874.1063, 78.62891
874.5884, 62.32812
875.0705, 43.50098
875.5526, 34.67773
876.0347, 51.91016
876.5168, 59.24707
876.9990, 45.03516
877.4811, 26.61133
877.9632, 44.66113
878.4453, 96.88770
878.9274, 114.0459
879.4095, 70.24805
879.8917, 16.65918
880.3738, 12.09277
880.8559, 34.96582
881.3380, 52.84961
881.8201, 55.67969
882.3022, 54.43164
882.7844, 51.18457
883.2665, 44.84766
883.7486, 29.95020
884.2307, 2.073242
884.7128, 4.8830002E-03
885.1949, 32.02734
885.6771, 70.36719
886.1592, 82.29785
886.6413, 79.07129
887.1234, 81.40234
887.6055, 96.06152
888.0876, 102.1855
888.5698, 76.81738
889.0519, 48.94043
889.5340, 43.80859
890.0161, 71.29883
890.4982, 80.10254
890.9803, 64.31348
891.4624, 50.97754
891.9445, 69.94824
892.4266, 106.5693
892.9088, 123.3184
893.3909, 118.3193
893.8730, 112.0332
894.3551, 120.3066
894.8372, 128.8672
895.3193, 124.7139
895.8015, 105.0654
896.2836, 99.79590
896.7657, 117.8018
897.2478, 130.6562
897.7299, 124.0547
898.2120, 101.2031
898.6942, 66.84375
899.1763, 24.11719
899.6584, 7.828125
900.1405, 8.561523
900.6226, 0.9638670
901.1047, 1.405273
901.5869, 1.647461
902.0690, 9.488281
902.5511, 33.17480
903.0332, 41.10352
903.5153, 21.70605
903.9974, 14.64746
904.4796, 42.67676
904.9617, 61.62012
905.4438, 64.21094
905.9259, 33.61914
906.4080, 3.348633
906.8901, 10.81934
907.3723, 39.34668
907.8544, 56.32031
908.3365, 46.87402
908.8186, 32.81934
909.3007, 11.01953
909.7828, 7.504883
910.2650, 2.826172
910.7471, 23.33594
911.2292, 37.55859
911.7113, 31.74121
912.1934, 24.19238
912.6755, 41.26953
913.1577, 66.37598
913.6398, 74.74707
914.1219, 52.87598
914.6040, 32.51465
915.0861, 19.14941
915.5682, 8.523438
916.0504, 4.811523
916.5325, 21.60449
917.0146, 22.22266
917.4967, 4.845703
917.9788, 18.83398
918.4609, 45.82227
918.9431, 68.14258
919.4252, 72.07910
919.9073, 55.82715
920.3894, 40.86426
920.8715, 22.44629
921.3536, 19.15039
921.8358, 47.37402
922.3179, 102.7119
922.8000, 117.8008
923.2821, 90.09863
923.7642, 60.69727
924.2463, 52.18066
924.7285, 57.10059
925.2106, 68.76758
925.6927, 86.19922
926.1748, 105.6621
926.6569, 144.5586
927.1390, 162.7529
927.6212, 136.8613
928.1033, 86.91406
928.5854, 64.50391
929.0675, 73.66895
929.5496, 84.29590
930.0317, 89.17871
930.5139, 89.09570
930.9960, 84.05566
931.4781, 76.21387
931.9602, 65.03711
932.4423, 47.55859
932.9244, 34.94922
933.4066, 30.00879
933.8887, 30.69824
934.3708, 37.53711
934.8529, 51.96680
935.3350, 55.33105
935.8171, 43.88770
936.2993, 36.06641
936.7814, 58.40625
937.2635, 92.30371
937.7456, 111.1123
938.2277, 110.3350
938.7098, 105.4570
939.1920, 99.43848
939.6741, 92.35938
940.1562, 84.65039
940.6383, 76.31738
941.1204, 62.98828
941.6025, 44.03711
942.0847, 28.45312
942.5668, 19.97266
943.0489, 20.15234
943.5310, 34.49023
944.0131, 59.69531
944.4952, 82.72656
944.9774, 110.0752
945.4595, 120.2129
945.9416, 99.49414
946.4237, 62.17383
946.9058, 50.29395
947.3879, 64.35254
947.8701, 64.96973
948.3522, 35.40039
948.8343, 1.684570
949.3164, 7.971680
949.7985, 0.1660160
950.2806, 16.02832
950.7628, 53.93359
951.2449, 71.43555
951.7270, 45.64844
952.2091, 16.03418
952.6912, 28.41211
953.1733, 83.17969
953.6555, 99.96973
954.1376, 71.39062
954.6197, 34.62402
955.1018, 13.33789
955.5839, 5.889648
956.0660, 15.41699
956.5482, 43.11035
957.0303, 63.38281
957.5124, 70.68848
957.9945, 70.84668
958.4766, 66.28125
958.9587, 56.20801
959.4409, 37.31934
959.9230, 10.38477
960.4051, 11.64746
960.8872, 20.63965
961.3693, 19.32031
961.8514, 6.476563
962.3336, 12.39648
962.8157, 27.64453
963.2978, 29.06641
963.7799, 43.49121
964.2620, 84.09277
964.7441, 125.2314
965.2263, 117.5752
965.7084, 70.71875
966.1905, 29.47266
966.6726, 1.401367
967.1547, 14.84473
967.6368, 10.50488
968.1190, 0.2548830
968.6011, 1.629883
969.0832, 25.75977
969.5653, 26.17676
970.0474, 6.831055
970.5295, 39.51758
971.0117, 42.80371
971.4938, 27.46875
971.9759, 32.74512
972.4580, 56.44531
972.9401, 75.47949
973.4222, 79.96484
973.9044, 72.32812
974.3865, 40.77930
974.8686, 2.748047
975.3507, 10.23535
975.8328, 29.69434
976.3149, 55.04199
976.7971, 41.66309
977.2792, 18.44238
977.7613, 40.91504
978.2434, 88.18262
978.7255, 112.7939
979.2076, 84.60156
979.6898, 63.55273
980.1719, 82.89355
980.6540, 108.9658
981.1361, 108.8506
981.6182, 76.38184
982.1003, 67.90723
982.5825, 88.38086
983.0646, 102.7783
983.5467, 60.17383
984.0288, 3.520508
984.5109, 7.458984
984.9930, 28.40723
985.4752, 57.11426
985.9573, 55.79004
986.4394, 53.65137
986.9215, 63.75391
987.4036, 78.46875
987.8857, 57.51562
988.3679, 5.493164
988.8500, 21.96289
989.3321, 8.054688
989.8142, 53.68555
990.2963, 89.91406
990.7784, 112.5244
991.2606, 114.4883
991.7427, 69.38281
992.2248, 48.81152
992.7069, 65.06641
993.1890, 87.06641
993.6711, 74.79004
994.1533, 39.55859
994.6354, 23.66406
995.1175, 31.12305
995.5996, 46.19043
996.0817, 66.78223
996.5638, 84.48047
997.0460, 92.03711
997.5281, 89.91797
998.0102, 89.80957
998.4923, 93.24707
998.9744, 90.79688
999.4565, 72.84473
999.9387, 52.97461
1000.421, 62.20801
1000.903, 89.41699
1001.385, 107.7422
1001.867, 102.3604
1002.349, 90.95703
1002.831, 71.40527
1003.313, 52.72168
1003.796, 47.49609
1004.278, 56.72168
1004.760, 55.94434
1005.242, 41.32715
1005.724, 34.64062
1006.206, 71.15234
1006.688, 115.9385
1007.170, 132.8428
1007.653, 118.7100
1008.135, 95.42773
1008.617, 53.04199
1009.099, 23.23633
1009.581, 20.78418
1010.063, 38.43262
1010.545, 59.03027
1011.027, 79.25781
1011.509, 83.41016
1011.992, 47.27246
1012.474, 15.38770
1012.956, 20.85547
1013.438, 43.59961
1013.920, 52.69141
1014.402, 44.06836
1014.884, 29.33398
1015.366, 5.296875
1015.848, 10.26172
1016.331, 7.740234
1016.813, 44.58398
1017.295, 79.84277
1017.777, 110.9180
1018.259, 123.9121
1018.741, 98.50098
1019.223, 72.30078
1019.705, 62.58984
1020.188, 64.47949
1020.670, 46.82812
1021.152, 10.79980
1021.634, 4.793945
1022.116, 23.95312
1022.598, 64.40137
1023.080, 91.41406
1023.562, 107.3633
1024.044, 115.2939
1024.527, 107.0566
1025.009, 106.6387
1025.491, 122.2109
1025.973, 132.0830
1026.455, 105.1611
1026.937, 54.13184
1027.419, 24.64746
1027.901, 20.31250
1028.384, 17.93945
1028.866, 3.962891
1029.348, 9.154297
1029.830, 19.52930
1030.312, 23.69238
1030.794, 0.1601560
1031.276, 56.72852
1031.758, 92.86426
1032.240, 86.53906
1032.723, 64.30371
1033.205, 55.97266
1033.687, 55.34570
1034.169, 50.59277
1034.651, 34.97754
1035.133, 22.85156
1035.615, 11.64062
1036.097, 8.582031
1036.579, 23.53027
1037.062, 52.03613
1037.544, 73.96191
1038.026, 88.31250
1038.508, 90.63281
1038.990, 71.07617
1039.472, 45.65137
1039.954, 11.47754
1040.436, 19.82227
1040.919, 7.090820
1041.401, 63.53613
1041.883, 109.0723
1042.365, 109.7891
1042.847, 90.80957
1043.329, 78.10840
1043.811, 69.01074
1044.293, 58.45312
1044.776, 43.62891
1045.258, 35.29980
1045.740, 26.57520
1046.222, 37.00195
1046.704, 88.70996
1047.186, 171.6426
1047.668, 200.6377
1048.150, 182.9805
1048.632, 166.1221
1049.115, 180.9629
1049.597, 199.7861
1050.079, 206.1240
1050.561, 205.3174
1051.043, 207.6250
1051.525, 211.4678
1052.007, 225.2490
1052.489, 250.3623
1052.971, 282.4971
1053.454, 319.0020
1053.936, 358.2207
1054.418, 400.8711
1054.900, 446.9873
1055.382, 481.3408
1055.864, 490.6553
1056.346, 499.8926
1056.828, 516.5850
1057.311, 539.5576
1057.793, 565.0947
1058.275, 593.6895
1058.757, 627.9297
1059.239, 672.5166
1059.721, 714.0195
1060.203, 742.1514
1060.685, 764.7744
1061.167, 790.2783
1061.650, 816.8896
1062.132, 854.3818
1062.614, 904.9619
1063.096, 961.0801
1063.578, 1024.981
1064.060, 1089.295
1064.542, 1133.360
1065.024, 1165.639
1065.506, 1229.052
1065.989, 1360.049
1066.471, 1484.830
1066.953, 1583.173
1067.435, 1678.637
1067.917, 1810.937
1068.399, 1977.229
1068.881, 2164.035
1069.363, 2369.458
1069.846, 2578.307
1070.328, 2756.175
1070.810, 2956.402
1071.292, 3213.002
1071.774, 3524.749
1072.256, 3859.588
1072.738, 4214.363
1073.220, 4597.312
1073.703, 4999.216
1074.185, 5434.521
1074.667, 5918.884
1075.149, 6441.969
1075.631, 6975.162
1076.113, 7459.067
1076.595, 8058.281
1077.077, 8787.361
1077.559, 9585.464
1078.042, 10382.99
1078.524, 11192.44
1079.006, 12054.30
1079.488, 12968.25
1079.970, 13931.91
1080.452, 14984.27
1080.934, 16058.55
1081.416, 17150.44
1081.898, 18242.18
1082.380, 19324.94
1082.863, 20389.89
1083.345, 21399.27
1083.827, 22375.32
1084.309, 23165.08
1084.791, 23825.81
1085.273, 24140.07
1085.755, 23862.48
1086.237, 22970.87
1086.720, 21680.11
1087.202, 19935.55
1087.684, 18053.46
1088.166, 16087.13
1088.648, 14161.56
1089.130, 12390.70
1089.612, 10785.45
1090.094, 9364.250
1090.577, 8176.661
1091.059, 7123.049
1091.541, 6200.862
1092.023, 5390.355
1092.505, 4664.598
1092.987, 4026.736
1093.469, 3473.006
1093.951, 3000.830
1094.433, 2581.185
1094.916, 2191.048
1095.398, 1858.521
1095.880, 1597.909
1096.362, 1397.206
1096.844, 1247.893
1097.326, 1149.236
1097.808, 1040.509
1098.290, 904.0576
1098.772, 771.7207
1099.255, 671.4072
1099.737, 593.8223
1100.219, 534.1230
1100.701, 493.5576
1101.183, 457.1436
1101.665, 425.5977
1102.147, 394.4688
1102.629, 360.4883
1103.112, 327.1973
1103.594, 299.4521
1104.076, 276.7383
1104.558, 257.6338
1105.040, 247.7744
1105.522, 230.8096
1106.004, 199.4658
1106.486, 170.9033
1106.969, 165.5615
1107.451, 176.3223
1107.933, 177.3164
1108.415, 169.1094
1108.897, 151.5322
1109.379, 103.3594
1109.861, 67.88281
1110.343, 78.88477
1110.825, 106.1631
1111.307, 85.02832
1111.790, 17.61230
1112.272, 0.7724610
1112.754, 50.00098
1113.236, 104.9971
1113.718, 113.7520
1114.200, 98.86426
1114.682, 70.96094
1115.164, 32.52441
1115.647, 7.017578
1116.129, 6.325195
1116.611, 0.2343750
1117.093, 35.08203
1117.575, 76.33398
1118.057, 103.0674
1118.539, 111.0195
1119.021, 89.11523
1119.504, 9.975586
1119.986, 28.95215
1120.468, 10.50879
1120.950, 15.97070
1121.432, 18.11719
1121.914, 4.583008
1122.396, 5.598633
1122.878, 12.64746
1123.360, 17.61816
1123.843, 22.67480
1124.325, 22.69629
1124.807, 13.34668
1125.289, 3.102539
1125.771, 5.382813
1126.253, 16.69336
1126.735, 10.80762
1127.217, 12.85352
1127.699, 31.98633
1128.182, 22.79102
1128.664, 14.92188
1129.146, 30.35742
1129.628, 56.36719
1130.110, 59.20703
1130.592, 38.47363
1131.074, 30.86035
1131.556, 45.27539
1132.039, 65.37598
1132.521, 85.47266
1133.003, 98.29102
1133.485, 93.10840
1133.967, 69.64258
1134.449, 57.80176
1134.931, 60.39746
1135.413, 59.61719
1135.896, 47.12793
1136.378, 31.07520
1136.860, 13.26953
1137.342, 2.203125
1137.824, 12.65820
1138.306, 65.79492
1138.788, 92.88184
1139.270, 83.36328
1139.752, 73.02441
1140.234, 95.24316
1140.717, 127.9072
1141.199, 116.7529
1141.681, 74.62207
1142.163, 39.17090
1142.645, 29.91699
1143.127, 20.08691
1143.609, 2.108398
1144.091, 10.27930
1144.574, 8.541016
1145.056, 45.58008
1145.538, 50.12207
1146.020, 22.54297
1146.502, 9.099609
1146.984, 52.29492
1147.466, 66.80273
1147.948, 24.25195
1148.431, 40.41016
1148.913, 55.90430
1149.395, 29.50879
1149.877, 17.85840
1150.359, 30.73047
1150.841, 48.06445
1151.323, 55.77246
1151.805, 63.84180
1152.287, 80.66602
1152.770, 103.2607
1153.252, 118.6387
1153.734, 126.8086
1154.216, 124.9600
1154.698, 107.9688
1155.180, 94.16211
1155.662, 111.7559
1156.144, 133.0020
1156.626, 124.1035
1157.109, 82.20898
1157.591, 52.12891
1158.073, 34.19141
1158.555, 28.60156
1159.037, 40.32520
1159.519, 58.06543
1160.001, 74.02344
1160.483, 85.78711
1160.966, 88.33203
1161.448, 74.06836
1161.930, 71.11230
1162.412, 83.28516
1162.894, 89.66895
1163.376, 66.89941
1163.858, 33.73340
1164.340, 20.18066
1164.823, 19.77734
1165.305, 11.36230
1165.787, 24.28418
1166.269, 37.62305
1166.751, 18.66113
1167.233, 7.725586
1167.715, 13.31543
1168.197, 8.264648
1168.679, 9.750977
1169.161, 18.64941
1169.644, 32.51758
1170.126, 57.63281
1170.608, 75.86133
1171.090, 81.35938
1171.572, 80.78027
1172.054, 83.67090
1172.536, 88.96680
1173.018, 97.19922
1173.501, 109.0078
1173.983, 108.5693
1174.465, 66.95605
1174.947, 43.81738
1175.429, 64.20410
1175.911, 109.9551
1176.393, 142.7207
1176.875, 161.2373
1177.358, 156.3721
1177.840, 115.8301
1178.322, 88.56250
1178.804, 111.2559
1179.286, 134.5117
1179.768, 130.6133
1180.250, 106.6865
1180.732, 95.16992
1181.214, 94.68750
1181.697, 97.86133
1182.179, 101.5449
1182.661, 110.0684
1183.143, 138.4375
1183.625, 159.4717
1184.107, 145.8936
1184.589, 101.8252
1185.071, 92.08984
1185.553, 111.7412
1186.036, 128.3604
1186.518, 121.4023
1187.000, 110.1484
1187.482, 97.62012
1187.964, 90.87207
1188.446, 104.2100
1188.928, 139.2949
1189.410, 135.3174
1189.893, 92.52930
1190.375, 55.46094
1190.857, 57.47168
1191.339, 70.82324
1191.821, 82.90234
1192.303, 93.82910
1192.785, 107.9033
1193.267, 126.2256
1193.750, 117.6436
1194.232, 78.34277
1194.714, 44.18652
1195.196, 48.60547
1195.678, 62.85352
1196.160, 73.35742
1196.642, 75.69141
1197.124, 53.95020
1197.606, 5.177734
1198.089, 19.82324
1198.571, 11.02441
1199.053, 9.777344
1199.535, 32.74219
1200.017, 52.30957
1200.499, 61.68945
1200.981, 63.05469
1201.463, 69.14648
1201.945, 79.94824
1202.427, 89.12109
1202.910, 93.87109
1203.392, 96.00586
1203.874, 95.49805
1204.356, 93.74023
1204.838, 91.82031
1205.320, 91.06348
1205.802, 88.93457
1206.284, 84.31152
1206.767, 80.49707
1207.249, 80.73242
1207.731, 78.32520
1208.213, 55.46680
1208.695, 33.22363
1209.177, 42.64258
1209.659, 86.88965
1210.141, 100.6289
1210.624, 80.96777
1211.106, 65.49512
1211.588, 75.06836
1212.070, 89.44434
1212.552, 87.56348
1213.034, 78.95996
1213.516, 77.72852
1213.998, 87.39453
1214.480, 83.68750
1214.963, 65.15234
1215.445, 52.39453
1215.927, 62.26660
1216.409, 77.81543
1216.891, 84.56738
1217.373, 86.20801
1217.855, 89.13281
1218.337, 96.25879
1218.819, 93.19141
1219.302, 79.00879
1219.784, 67.15234
1220.266, 73.04297
1220.748, 79.75977
1221.230, 70.72656
1221.712, 52.30469
1222.194, 36.85059
1222.676, 23.70605
1223.159, 17.56152
1223.641, 17.10742
1224.123, 23.64648
1224.605, 48.93848
1225.087, 74.25098
1225.569, 83.55957
1226.051, 78.61523
1226.533, 65.01172
1227.016, 39.35645
1227.498, 27.21973
1227.980, 31.06738
1228.462, 44.56641
1228.944, 81.25879
1229.426, 108.5420
1229.908, 84.55957
1230.390, 31.98340
1230.872, 25.64355
1231.354, 71.61816
1231.837, 94.50000
1232.319, 82.59473
1232.801, 70.06250
1233.283, 93.75684
1233.765, 120.1670
1234.247, 119.6270
1234.729, 100.8838
1235.211, 93.82910
1235.694, 98.76953
1236.176, 97.50195
1236.658, 86.64062
1237.140, 70.99219
1237.622, 35.57227
1238.104, 14.83398
1238.586, 50.33398
1239.068, 117.6641
1239.551, 137.2744
1240.033, 111.3359
1240.515, 88.37891
1240.997, 77.51172
1241.479, 78.77930
1241.961, 106.8223
1242.443, 132.5684
1242.925, 132.7129
1243.407, 116.4863
1243.890, 121.5869
1244.372, 145.4609
1244.854, 160.8740
1245.336, 159.9746
1245.818, 151.8057
1246.300, 120.3799
1246.782, 107.1230
1247.264, 149.1416
1247.746, 222.4785
1248.229, 222.9873
1248.711, 164.4141
1249.193, 122.1113
1249.675, 120.4717
1250.157, 120.4502
1250.639, 97.71680
1251.121, 76.90039
1251.603, 72.05469
1252.086, 78.84961
1252.568, 80.60352
1253.050, 78.99219
1253.532, 80.20508
1254.014, 88.84570
1254.496, 91.30176
1254.978, 79.12988
1255.460, 62.68262
1255.943, 39.51270
1256.425, 20.06055
1256.907, 52.31738
1257.389, 113.1729
1257.871, 135.8584
1258.353, 76.30176
1258.835, 40.32520
1259.317, 57.32617
1259.799, 78.52832
1260.281, 75.24023
1260.764, 59.01660
1261.246, 57.31934
1261.728, 64.29102
1262.210, 66.50977
1262.692, 59.02051
1263.174, 49.55566
1263.656, 36.00098
1264.138, 29.88770
1264.621, 46.37500
1265.103, 67.30273
1265.585, 51.85254
1266.067, 19.37988
1266.549, 6.534180
1267.031, 28.42188
1267.513, 54.24609
1267.995, 84.73633
1268.478, 114.9941
1268.960, 148.7666
1269.442, 173.5986
1269.924, 161.9297
1270.406, 133.6523
1270.888, 128.0518
1271.370, 162.1914
1271.852, 152.3252
1272.334, 92.99805
1272.817, 47.27637
1273.299, 62.95508
1273.781, 99.84180
1274.263, 136.8809
1274.745, 166.2666
1275.227, 176.9355
1275.709, 166.8027
1276.191, 159.1006
1276.673, 153.7715
1277.156, 140.1514
1277.638, 94.73047
1278.120, 58.73438
1278.602, 64.63379
1279.084, 86.99121
1279.566, 90.62500
1280.048, 76.75977
1280.530, 132.9209
1281.013, 245.9922
1281.495, 301.1729
1281.977, 158.0537
1282.459, 50.04590
1282.941, 88.23145
1283.423, 163.8447
1283.905, 173.0059
1284.387, 135.5908
1284.870, 165.0664
1285.352, 245.6523
1285.834, 301.4492
1286.316, 295.1875
1286.798, 264.3838
1287.280, 206.0684
1287.762, 146.4492
1288.244, 106.0156
1288.726, 83.12207
1289.208, 75.69336
1289.691, 81.47461
1290.173, 93.49805
1290.655, 128.9170
1291.137, 133.6943
1291.619, 96.98730
1292.101, 55.56445
1292.583, 41.53027
1293.065, 39.63281
1293.548, 32.69629
1294.030, 21.80176
1294.512, 10.39844
1294.994, 6.452148
1295.476, 8.364258
1295.958, 8.508789
1296.440, 31.81641
1296.922, 36.76074
1297.405, 24.90625
1297.887, 25.59473
1298.369, 26.41406
1298.851, 49.62695
1299.333, 87.16797
1299.815, 90.58496
1300.297, 61.40625
1300.779, 0.0000000E+00
##END=



