##NAMES=Kristiansenite
##RRUFFID=R090022
##IDEAL CHEMISTRY=Ca_2_ScSn(Si_2_O_7_)(Si_2_O_6_OH)
##LOCALITY=Heftetjern, TÃ¸rdal, Telemark, Norway
##OWNER=RRUFF
##SOURCE=William W. Pinch
##DESCRIPTION=Pale tan colored, tapering prismatic crystals, associated with albite and quartz
##STATUS=The identification of this mineral has been confirmed by single-crystal X-ray diffraction.
##URL=rruff.info/R090022
144.9231, 0.0000000E+00
145.4053, 19.35059
145.8874, 29.09058
146.3695, 3.247803
146.8516, 11.40063
147.3337, 9.587158
147.8158, 11.05957
148.2980, 36.69824
148.7801, 62.83252
149.2622, 93.18164
149.7443, 134.0657
150.2264, 185.6443
150.7085, 247.6543
151.1907, 318.5129
151.6728, 400.7073
152.1549, 489.4648
152.6370, 585.8240
153.1191, 688.8826
153.6012, 793.5540
154.0834, 914.0933
154.5655, 1024.360
155.0476, 1115.693
155.5297, 1189.514
156.0118, 1238.112
156.4939, 1260.701
156.9761, 1258.030
157.4582, 1230.183
157.9403, 1158.622
158.4224, 1074.287
158.9045, 994.5874
159.3866, 919.4421
159.8688, 854.1221
160.3509, 797.3958
160.8330, 750.6702
161.3151, 721.1858
161.7972, 715.1924
162.2793, 725.2654
162.7615, 745.7295
163.2436, 776.2847
163.7257, 815.4775
164.2078, 864.1748
164.6899, 921.7944
165.1720, 984.7224
165.6541, 1049.730
166.1363, 1119.570
166.6184, 1196.965
167.1005, 1284.594
167.5826, 1378.372
168.0647, 1474.939
168.5468, 1574.700
169.0290, 1684.080
169.5111, 1804.248
169.9932, 1936.905
170.4753, 2085.018
170.9574, 2250.257
171.4395, 2428.925
171.9217, 2620.622
172.4038, 2825.278
172.8859, 3039.473
173.3680, 3266.000
173.8501, 3498.997
174.3322, 3732.487
174.8144, 3976.799
175.2965, 4216.350
175.7786, 4434.716
176.2607, 4635.141
176.7428, 4794.822
177.2249, 4906.268
177.7071, 4962.176
178.1892, 4947.213
178.6713, 4834.053
179.1534, 4650.872
179.6355, 4432.647
180.1176, 4174.977
180.5998, 3911.658
181.0819, 3660.655
181.5640, 3428.126
182.0461, 3227.189
182.5282, 3068.634
183.0103, 2947.044
183.4925, 2853.356
183.9746, 2788.328
184.4567, 2748.530
184.9388, 2734.582
185.4209, 2744.436
185.9030, 2766.410
186.3852, 2797.412
186.8673, 2836.317
187.3494, 2881.653
187.8315, 2934.434
188.3136, 2989.664
188.7957, 3045.259
189.2779, 3100.313
189.7600, 3148.155
190.2421, 3185.121
190.7242, 3211.544
191.2063, 3228.334
191.6884, 3233.650
192.1706, 3233.533
192.6527, 3236.268
193.1348, 3241.752
193.6169, 3250.095
194.0990, 3262.458
194.5811, 3278.387
195.0633, 3294.131
195.5454, 3310.554
196.0275, 3324.590
196.5096, 3335.749
196.9917, 3345.962
197.4738, 3334.255
197.9560, 3294.546
198.4381, 3227.500
198.9202, 3117.388
199.4023, 2959.624
199.8844, 2764.775
200.3665, 2549.826
200.8487, 2310.455
201.3308, 2071.345
201.8129, 1840.745
202.2950, 1617.597
202.7771, 1410.904
203.2592, 1226.106
203.7414, 1062.589
204.2235, 916.7141
204.7056, 789.4746
205.1877, 681.0015
205.6698, 592.6323
206.1519, 525.3071
206.6341, 470.6123
207.1162, 429.5254
207.5983, 401.6550
208.0804, 389.3467
208.5625, 396.4937
209.0446, 407.3772
209.5268, 414.5486
210.0089, 417.1860
210.4910, 418.0601
210.9731, 416.3455
211.4552, 412.9629
211.9373, 410.1899
212.4195, 407.4226
212.9016, 406.7146
213.3837, 407.6963
213.8658, 408.1350
214.3479, 416.6516
214.8300, 434.8062
215.3121, 459.6892
215.7943, 484.4473
216.2764, 507.0127
216.7585, 533.4368
217.2406, 568.2336
217.7227, 613.8828
218.2048, 660.9932
218.6870, 709.4326
219.1691, 759.0913
219.6512, 810.5300
220.1333, 862.6921
220.6154, 918.8704
221.0975, 982.0898
221.5797, 1053.719
222.0618, 1126.853
222.5439, 1203.158
223.0260, 1280.116
223.5081, 1354.960
223.9902, 1429.951
224.4724, 1498.388
224.9545, 1556.844
225.4366, 1607.503
225.9187, 1645.016
226.4008, 1669.452
226.8829, 1681.142
227.3651, 1680.469
227.8472, 1664.778
228.3293, 1641.009
228.8114, 1611.426
229.2935, 1575.718
229.7757, 1535.293
230.2578, 1490.395
230.7399, 1440.971
231.2220, 1385.678
231.7041, 1322.623
232.1862, 1257.100
232.6684, 1191.370
233.1505, 1126.959
233.6326, 1056.933
234.1147, 979.4939
234.5968, 897.2510
235.0789, 816.1138
235.5611, 735.0908
236.0432, 657.1399
236.5253, 581.7358
237.0074, 509.1382
237.4895, 442.5229
237.9716, 382.0686
238.4538, 327.5166
238.9359, 278.6995
239.4180, 235.4736
239.9001, 197.3855
240.3822, 164.2595
240.8643, 136.5984
241.3465, 113.0161
241.8286, 93.42139
242.3107, 77.93799
242.7928, 67.16431
243.2749, 63.32056
243.7570, 60.27441
244.2392, 56.18481
244.7213, 50.56104
245.2034, 46.66943
245.6855, 44.50220
246.1676, 44.03906
246.6497, 45.06689
247.1319, 46.62573
247.6140, 51.59521
248.0961, 61.27368
248.5782, 76.22729
249.0603, 91.31323
249.5424, 105.9280
250.0246, 121.4304
250.5067, 139.5745
250.9888, 161.1501
251.4709, 183.8960
251.9530, 207.5891
252.4351, 232.4441
252.9173, 256.8779
253.3994, 281.2537
253.8815, 305.0107
254.3636, 327.9873
254.8457, 350.9929
255.3278, 370.7107
255.8100, 386.4956
256.2921, 398.3521
256.7742, 407.0486
257.2563, 413.7720
257.7384, 415.7390
258.2205, 410.6504
258.7026, 398.0759
259.1848, 379.6243
259.6669, 356.1533
260.1490, 327.2285
260.6311, 289.6765
261.1132, 239.5620
261.5953, 187.5498
262.0775, 142.6018
262.5596, 106.7466
263.0417, 70.63330
263.5238, 31.70801
264.0059, 8.397461
264.4880, 43.57910
264.9702, 72.82837
265.4523, 98.79956
265.9344, 123.4067
266.4165, 147.8069
266.8986, 167.6865
267.3807, 182.7666
267.8629, 193.2900
268.3450, 200.0525
268.8271, 202.7256
269.3092, 202.6108
269.7913, 201.1755
270.2734, 199.3474
270.7556, 191.0652
271.2377, 175.2700
271.7198, 153.2437
272.2019, 127.3989
272.6840, 97.08472
273.1661, 64.80688
273.6483, 32.01587
274.1304, 0.8637700
274.6125, 37.12476
275.0946, 77.03418
275.5767, 119.6572
276.0588, 163.3438
276.5410, 207.7102
277.0231, 254.0808
277.5052, 302.6541
277.9873, 353.5820
278.4694, 403.7695
278.9515, 452.9719
279.4337, 501.6418
279.9158, 550.9575
280.3979, 600.9438
280.8800, 649.2439
281.3621, 693.7141
281.8442, 734.9329
282.3264, 775.8645
282.8085, 816.0127
283.2906, 857.8767
283.7727, 906.1851
284.2548, 961.0942
284.7369, 1013.073
285.2191, 1059.555
285.7012, 1100.871
286.1833, 1139.352
286.6654, 1174.816
287.1475, 1208.840
287.6296, 1243.072
288.1118, 1277.349
288.5939, 1308.675
289.0760, 1335.824
289.5581, 1359.858
290.0402, 1384.887
290.5223, 1411.074
291.0045, 1434.189
291.4866, 1452.929
291.9687, 1466.548
292.4508, 1471.519
292.9329, 1466.995
293.4150, 1453.893
293.8972, 1433.878
294.3793, 1406.856
294.8614, 1370.831
295.3435, 1323.179
295.8256, 1265.779
296.3077, 1203.866
296.7899, 1138.757
297.2720, 1069.134
297.7541, 990.9014
298.2362, 906.5476
298.7183, 825.3218
299.2004, 752.1807
299.6826, 686.0557
300.1647, 622.7969
300.6468, 562.1462
301.1289, 506.5508
301.6110, 457.2190
302.0931, 414.5774
302.5753, 378.2207
303.0574, 349.4270
303.5395, 326.5310
304.0216, 308.8298
304.5037, 296.1589
304.9858, 286.2764
305.4680, 277.2383
305.9501, 269.6948
306.4322, 264.8044
306.9143, 263.8916
307.3964, 265.1318
307.8785, 266.7661
308.3607, 268.9260
308.8428, 272.4133
309.3249, 278.4702
309.8070, 285.9124
310.2891, 293.2859
310.7712, 299.7244
311.2534, 306.5493
311.7355, 314.2085
312.2176, 322.8394
312.6997, 333.0222
313.1818, 345.8408
313.6639, 359.7380
314.1461, 373.0566
314.6282, 383.7729
315.1103, 397.3933
315.5924, 415.8979
316.0745, 439.2012
316.5566, 467.4438
317.0388, 502.3479
317.5209, 540.8291
318.0030, 581.4722
318.4851, 624.0229
318.9672, 669.1101
319.4493, 718.1702
319.9315, 769.4248
320.4136, 821.1404
320.8957, 869.2388
321.3778, 920.5125
321.8599, 978.2576
322.3420, 1042.378
322.8242, 1104.644
323.3063, 1163.287
323.7884, 1219.512
324.2705, 1274.291
324.7526, 1324.330
325.2347, 1377.844
325.7169, 1435.911
326.1990, 1499.016
326.6811, 1564.717
327.1632, 1637.500
327.6453, 1709.983
328.1274, 1777.988
328.6096, 1834.352
329.0917, 1896.723
329.5738, 1968.569
330.0559, 2046.978
330.5380, 2123.547
331.0201, 2198.009
331.5023, 2271.733
331.9844, 2344.798
332.4665, 2413.186
332.9486, 2486.442
333.4307, 2566.646
333.9128, 2650.594
334.3950, 2731.316
334.8771, 2808.303
335.3592, 2885.305
335.8413, 2963.155
336.3234, 3042.543
336.8055, 3119.677
337.2877, 3192.670
337.7698, 3264.066
338.2519, 3337.748
338.7340, 3413.729
339.2161, 3489.629
339.6982, 3565.477
340.1803, 3640.716
340.6624, 3709.126
341.1446, 3770.905
341.6267, 3825.879
342.1088, 3875.600
342.5909, 3919.726
343.0730, 3954.246
343.5551, 3978.825
344.0373, 3992.858
344.5194, 3995.466
345.0015, 3986.457
345.4836, 3963.516
345.9657, 3920.938
346.4478, 3862.281
346.9300, 3803.693
347.4121, 3745.334
347.8942, 3688.525
348.3763, 3632.290
348.8584, 3577.721
349.3405, 3529.016
349.8227, 3486.469
350.3048, 3451.923
350.7869, 3429.261
351.2690, 3418.603
351.7511, 3418.613
352.2332, 3429.475
352.7154, 3450.245
353.1975, 3479.067
353.6796, 3516.738
354.1617, 3560.693
354.6438, 3606.799
355.1259, 3655.866
355.6081, 3712.351
356.0902, 3780.853
356.5723, 3857.994
357.0544, 3940.709
357.5365, 4027.824
358.0186, 4119.225
358.5008, 4212.574
358.9829, 4309.839
359.4650, 4415.366
359.9471, 4536.577
360.4292, 4662.689
360.9113, 4787.281
361.3935, 4908.219
361.8756, 5030.846
362.3577, 5159.117
362.8398, 5289.620
363.3219, 5418.487
363.8040, 5555.379
364.2862, 5680.322
364.7683, 5789.298
365.2504, 5882.358
365.7325, 5955.048
366.2146, 6007.775
366.6967, 6040.106
367.1789, 6051.780
367.6610, 6055.826
368.1431, 6023.677
368.6252, 5951.097
369.1073, 5839.804
369.5894, 5699.196
370.0716, 5519.200
370.5537, 5319.015
371.0358, 5101.500
371.5179, 4860.835
372.0000, 4618.713
372.4821, 4374.248
372.9643, 4131.194
373.4464, 3894.612
373.9285, 3665.018
374.4106, 3444.502
374.8927, 3230.895
375.3748, 3023.632
375.8570, 2833.215
376.3391, 2659.599
376.8212, 2499.393
377.3033, 2348.848
377.7854, 2209.546
378.2675, 2074.274
378.7497, 1940.334
379.2318, 1810.316
379.7139, 1686.342
380.1960, 1569.436
380.6781, 1459.421
381.1602, 1359.700
381.6424, 1268.852
382.1245, 1177.496
382.6066, 1083.890
383.0887, 992.1721
383.5708, 904.9526
384.0529, 823.0481
384.5351, 746.1016
385.0172, 675.6047
385.4993, 610.4875
385.9814, 546.5032
386.4635, 484.2344
386.9456, 424.0911
387.4278, 365.5786
387.9099, 310.4897
388.3920, 261.3123
388.8741, 220.4014
389.3562, 183.1904
389.8383, 145.1855
390.3205, 106.9380
390.8026, 71.19336
391.2847, 39.33838
391.7668, 10.57129
392.2489, 15.68433
392.7310, 39.04541
393.2132, 61.61377
393.6953, 85.93481
394.1774, 109.2766
394.6595, 128.4878
395.1416, 141.0398
395.6237, 150.5295
396.1059, 157.9167
396.5880, 163.2441
397.0701, 166.6357
397.5522, 168.7827
398.0343, 168.4873
398.5164, 165.0291
398.9986, 158.3083
399.4807, 148.3909
399.9628, 134.4634
400.4449, 117.4014
400.9270, 99.15796
401.4091, 80.57837
401.8913, 59.96997
402.3734, 36.68604
402.8555, 10.47095
403.3376, 16.92065
403.8197, 44.73633
404.3018, 74.63110
404.7840, 108.2944
405.2661, 145.9834
405.7482, 187.1082
406.2303, 232.5596
406.7124, 281.2351
407.1945, 330.6482
407.6767, 380.8237
408.1588, 431.4006
408.6409, 481.1206
409.1230, 530.1111
409.6051, 583.6650
410.0872, 642.6499
410.5694, 706.0671
411.0515, 773.1355
411.5336, 843.4761
412.0157, 912.8672
412.4978, 977.4055
412.9799, 1040.473
413.4621, 1110.326
413.9442, 1187.465
414.4263, 1264.731
414.9084, 1335.681
415.3905, 1403.684
415.8727, 1476.034
416.3548, 1557.469
416.8369, 1639.497
417.3190, 1713.522
417.8011, 1782.139
418.2832, 1853.728
418.7654, 1933.157
419.2475, 2015.721
419.7296, 2096.485
420.2117, 2175.000
420.6938, 2256.274
421.1759, 2342.344
421.6581, 2431.810
422.1402, 2524.370
422.6223, 2622.861
423.1044, 2720.269
423.5865, 2816.006
424.0686, 2909.032
424.5508, 2995.678
425.0329, 3080.956
425.5150, 3154.488
425.9971, 3211.855
426.4792, 3252.547
426.9613, 3278.364
427.4435, 3290.033
427.9256, 3286.277
428.4077, 3264.292
428.8898, 3220.307
429.3719, 3165.525
429.8540, 3100.981
430.3362, 3027.449
430.8183, 2949.990
431.3004, 2867.171
431.7825, 2785.729
432.2646, 2710.881
432.7467, 2642.876
433.2289, 2578.749
433.7110, 2518.638
434.1931, 2463.284
434.6752, 2415.033
435.1573, 2373.626
435.6394, 2336.527
436.1216, 2301.250
436.6036, 2269.417
437.0858, 2246.421
437.5679, 2232.382
438.0500, 2221.277
438.5321, 2207.375
439.0142, 2192.892
439.4963, 2181.416
439.9785, 2173.343
440.4606, 2169.631
440.9427, 2173.270
441.4248, 2184.225
441.9069, 2199.227
442.3890, 2217.836
442.8712, 2238.656
443.3533, 2260.518
443.8354, 2282.890
444.3175, 2307.952
444.7996, 2336.188
445.2817, 2366.330
445.7639, 2397.071
446.2460, 2430.048
446.7281, 2460.579
447.2102, 2485.953
447.6923, 2506.719
448.1744, 2528.300
448.6566, 2553.694
449.1387, 2576.123
449.6208, 2592.264
450.1029, 2600.995
450.5850, 2607.484
451.0671, 2612.088
451.5493, 2614.085
452.0314, 2611.737
452.5135, 2603.937
452.9956, 2598.437
453.4777, 2599.141
453.9598, 2603.559
454.4420, 2600.240
454.9241, 2588.675
455.4062, 2574.343
455.8883, 2560.308
456.3704, 2546.951
456.8525, 2537.052
457.3347, 2532.709
457.8168, 2525.356
458.2989, 2503.583
458.7810, 2469.780
459.2631, 2430.903
459.7452, 2389.044
460.2274, 2344.257
460.7095, 2297.399
461.1916, 2247.998
461.6737, 2194.813
462.1558, 2136.634
462.6379, 2073.849
463.1201, 2005.676
463.6022, 1927.618
464.0843, 1852.587
464.5664, 1785.385
465.0485, 1723.899
465.5306, 1665.416
466.0128, 1608.720
466.4949, 1555.437
466.9770, 1505.887
467.4591, 1460.093
467.9412, 1420.103
468.4233, 1384.784
468.9055, 1355.899
469.3876, 1334.516
469.8697, 1323.131
470.3518, 1314.003
470.8339, 1306.882
471.3160, 1302.059
471.7982, 1300.826
472.2803, 1304.442
472.7624, 1306.671
473.2445, 1304.660
473.7266, 1299.358
474.2087, 1297.393
474.6909, 1299.294
475.1730, 1299.609
475.6551, 1292.631
476.1372, 1279.762
476.6193, 1266.581
477.1014, 1253.544
477.5836, 1241.596
478.0657, 1232.194
478.5478, 1224.880
479.0299, 1218.467
479.5120, 1211.597
479.9941, 1205.864
480.4763, 1200.089
480.9584, 1195.144
481.4405, 1199.275
481.9226, 1217.886
482.4047, 1246.978
482.8868, 1283.679
483.3690, 1327.400
483.8511, 1377.887
484.3332, 1438.517
484.8153, 1504.985
485.2974, 1571.661
485.7795, 1633.625
486.2617, 1699.226
486.7438, 1773.156
487.2259, 1855.406
487.7080, 1930.136
488.1901, 2004.102
488.6722, 2062.776
489.1544, 2100.420
489.6365, 2119.809
490.1186, 2106.269
490.6007, 2058.219
491.0828, 1978.609
491.5649, 1866.756
492.0471, 1722.868
492.5292, 1561.434
493.0113, 1381.649
493.4934, 1192.396
493.9755, 1010.972
494.4576, 838.9849
494.9398, 678.9934
495.4219, 533.9492
495.9040, 402.7463
496.3861, 289.5918
496.8682, 194.0337
497.3503, 111.3140
497.8325, 37.34912
498.3146, 27.13745
498.7967, 82.50317
499.2788, 126.7551
499.7609, 163.0945
500.2430, 191.4414
500.7252, 212.5530
501.2073, 230.3682
501.6894, 249.6965
502.1715, 262.7112
502.6536, 265.1030
503.1357, 253.5378
503.6179, 239.3855
504.1000, 224.1724
504.5821, 205.8354
505.0642, 182.3220
505.5463, 153.2712
506.0284, 120.1848
506.5106, 83.90820
506.9927, 43.79028
507.4748, 2.556152
507.9569, 55.40991
508.4390, 112.9771
508.9211, 174.4019
509.4033, 239.7161
509.8854, 309.6091
510.3675, 384.1890
510.8496, 462.2969
511.3317, 542.6187
511.8138, 625.9209
512.2960, 712.3633
512.7781, 803.6960
513.2602, 898.2017
513.7423, 994.6345
514.2244, 1093.160
514.7065, 1194.154
515.1887, 1299.878
515.6708, 1406.974
516.1529, 1513.630
516.6350, 1620.045
517.1171, 1722.085
517.5992, 1814.701
518.0814, 1903.746
518.5635, 1992.870
519.0456, 2084.863
519.5277, 2173.232
520.0098, 2252.838
520.4919, 2330.128
520.9741, 2414.089
521.4562, 2503.319
521.9383, 2600.164
522.4204, 2705.234
522.9025, 2818.261
523.3846, 2938.322
523.8668, 3064.927
524.3489, 3197.357
524.8310, 3335.748
525.3131, 3480.798
525.7952, 3632.939
526.2773, 3793.159
526.7595, 3959.558
527.2416, 4128.982
527.7237, 4300.918
528.2058, 4476.881
528.6879, 4653.358
529.1700, 4836.295
529.6522, 5030.569
530.1343, 5234.675
530.6164, 5450.326
531.0985, 5681.680
531.5806, 5920.229
532.0627, 6157.330
532.5449, 6390.967
533.0270, 6634.474
533.5091, 6894.773
533.9912, 7162.494
534.4733, 7427.362
534.9554, 7693.298
535.4376, 7956.014
535.9197, 8218.923
536.4018, 8475.216
536.8839, 8705.466
537.3660, 8908.910
537.8481, 9093.647
538.3303, 9266.787
538.8124, 9423.892
539.2945, 9545.358
539.7766, 9630.446
540.2587, 9686.262
540.7408, 9719.120
541.2230, 9727.240
541.7051, 9702.979
542.1872, 9645.946
542.6693, 9557.396
543.1514, 9433.420
543.6335, 9279.214
544.1157, 9101.076
544.5978, 8901.888
545.0799, 8678.906
545.5620, 8428.041
546.0441, 8153.373
546.5262, 7864.941
547.0084, 7552.905
547.4905, 7241.425
547.9726, 6931.980
548.4547, 6625.601
548.9368, 6332.556
549.4189, 6050.003
549.9011, 5783.432
550.3832, 5536.791
550.8653, 5315.104
551.3474, 5099.587
551.8295, 4888.087
552.3116, 4687.795
552.7938, 4513.304
553.2759, 4366.555
553.7580, 4226.784
554.2401, 4088.579
554.7222, 3953.865
555.2043, 3827.660
555.6865, 3710.703
556.1686, 3597.167
556.6507, 3481.201
557.1328, 3367.620
557.6149, 3263.441
558.0970, 3169.547
558.5792, 3076.613
559.0613, 2979.261
559.5434, 2880.029
560.0255, 2781.578
560.5076, 2684.631
560.9897, 2592.452
561.4719, 2507.263
561.9540, 2427.061
562.4361, 2349.712
562.9182, 2270.743
563.4003, 2199.204
563.8824, 2136.630
564.3646, 2082.965
564.8467, 2034.061
565.3288, 1989.710
565.8109, 1948.323
566.2930, 1908.610
566.7751, 1870.651
567.2573, 1836.211
567.7394, 1804.617
568.2215, 1777.842
568.7036, 1758.100
569.1857, 1744.739
569.6678, 1733.779
570.1500, 1723.360
570.6321, 1718.709
571.1142, 1726.088
571.5963, 1744.122
572.0784, 1769.432
572.5605, 1798.717
573.0427, 1836.661
573.5248, 1885.766
574.0069, 1945.644
574.4890, 2016.735
574.9711, 2099.725
575.4532, 2192.537
575.9354, 2293.820
576.4175, 2403.391
576.8996, 2520.958
577.3817, 2645.444
577.8638, 2777.433
578.3459, 2919.209
578.8281, 3068.881
579.3102, 3230.032
579.7923, 3403.042
580.2744, 3586.249
580.7565, 3773.289
581.2386, 3964.551
581.7208, 4163.599
582.2029, 4373.789
582.6850, 4592.847
583.1671, 4822.533
583.6492, 5062.543
584.1313, 5310.038
584.6134, 5566.118
585.0955, 5830.077
585.5776, 6105.216
586.0598, 6394.243
586.5419, 6678.981
587.0240, 6968.051
587.5061, 7243.485
587.9882, 7490.359
588.4703, 7707.124
588.9525, 7892.734
589.4346, 8059.329
589.9167, 8191.417
590.3988, 8264.530
590.8809, 8277.358
591.3630, 8231.119
591.8452, 8123.014
592.3273, 7957.123
592.8094, 7743.359
593.2915, 7480.336
593.7736, 7187.111
594.2557, 6864.904
594.7379, 6523.483
595.2200, 6173.949
595.7021, 5819.493
596.1842, 5469.979
596.6663, 5130.027
597.1484, 4802.527
597.6306, 4487.299
598.1127, 4188.478
598.5948, 3909.791
599.0769, 3657.393
599.5590, 3425.900
600.0411, 3207.569
600.5233, 3001.645
601.0054, 2811.661
601.4875, 2638.599
601.9696, 2481.570
602.4517, 2336.538
602.9338, 2202.614
603.4160, 2079.911
603.8981, 1968.455
604.3802, 1867.277
604.8623, 1772.389
605.3444, 1683.049
605.8265, 1598.769
606.3087, 1517.688
606.7908, 1441.342
607.2729, 1374.527
607.7550, 1318.153
608.2371, 1264.913
608.7192, 1206.587
609.2014, 1147.102
609.6835, 1090.526
610.1656, 1040.354
610.6477, 991.8481
611.1298, 942.7810
611.6119, 893.9475
612.0941, 845.4631
612.5762, 796.6067
613.0583, 749.8518
613.5404, 705.5081
614.0225, 663.9673
614.5046, 621.8716
614.9868, 578.4905
615.4689, 537.1111
615.9510, 498.5200
616.4331, 462.9136
616.9152, 431.0559
617.3973, 403.4207
617.8795, 376.5674
618.3616, 347.9800
618.8437, 318.4741
619.3258, 290.7104
619.8079, 264.9546
620.2900, 239.7290
620.7722, 212.0930
621.2543, 184.4607
621.7364, 160.6729
622.2185, 142.6763
622.7006, 127.3821
623.1827, 116.2285
623.6649, 106.8823
624.1470, 93.47876
624.6291, 70.32178
625.1112, 49.12451
625.5933, 32.71924
626.0754, 20.56567
626.5576, 9.705078
627.0397, 5.8104999E-02
627.5218, 8.144043
628.0039, 14.12720
628.4860, 18.25098
628.9681, 23.49878
629.4503, 29.96826
629.9324, 37.08594
630.4145, 45.93408
630.8966, 54.81787
631.3787, 60.45874
631.8608, 61.56445
632.3430, 61.82837
632.8251, 63.54370
633.3072, 65.83862
633.7893, 67.77661
634.2714, 69.53027
634.7535, 70.37500
635.2357, 69.02905
635.7178, 66.85449
636.1999, 67.25732
636.6820, 72.95386
637.1641, 76.03857
637.6462, 73.50879
638.1284, 66.75732
638.6105, 63.16187
639.0926, 63.13013
639.5747, 62.83105
640.0568, 59.59863
640.5389, 54.39087
641.0211, 49.66138
641.5032, 45.44556
641.9853, 41.78955
642.4674, 38.95435
642.9495, 36.52637
643.4316, 33.89087
643.9138, 30.66382
644.3959, 28.22510
644.8780, 29.04004
645.3601, 29.93994
645.8422, 27.66821
646.3243, 16.74182
646.8065, 9.497070
647.2886, 8.454712
647.7707, 10.06470
648.2528, 7.685791
648.7349, 0.1229250
649.2170, 6.334961
649.6992, 9.508667
650.1813, 11.09875
650.6634, 16.42810
651.1455, 25.00696
651.6276, 31.94019
652.1097, 31.87842
652.5919, 30.09705
653.0740, 34.47229
653.5561, 44.30896
654.0382, 53.27417
654.5203, 56.69641
655.0024, 58.84595
655.4846, 62.65454
655.9667, 68.89661
656.4488, 74.55505
656.9309, 78.54102
657.4130, 82.29980
657.8951, 86.80969
658.3773, 92.33264
658.8594, 97.81616
659.3415, 103.2247
659.8236, 108.5771
660.3057, 114.0774
660.7878, 119.6514
661.2700, 124.6516
661.7521, 129.0250
662.2342, 132.5952
662.7163, 133.6779
663.1984, 133.7274
663.6805, 136.3367
664.1627, 146.6558
664.6448, 156.7869
665.1269, 161.3109
665.6090, 161.6066
666.0911, 163.0159
666.5732, 166.9572
667.0554, 172.1317
667.5375, 178.5181
668.0196, 186.0988
668.5017, 192.5754
668.9838, 197.7421
669.4659, 202.2982
669.9481, 206.4631
670.4302, 210.2439
670.9123, 214.2407
671.3944, 218.4425
671.8765, 222.7822
672.3586, 226.6901
672.8408, 230.7941
673.3229, 236.6890
673.8050, 245.1602
674.2871, 252.8717
674.7692, 257.0938
675.2513, 259.5740
675.7335, 262.2240
676.2156, 265.5082
676.6977, 269.0720
677.1798, 273.4108
677.6619, 277.8555
678.1440, 281.0388
678.6262, 281.6276
679.1083, 284.7565
679.5904, 292.2073
680.0725, 302.1510
680.5546, 310.1222
681.0367, 316.2261
681.5189, 322.5618
682.0010, 330.6794
682.4831, 339.2128
682.9652, 345.4866
683.4473, 350.0479
683.9294, 355.9558
684.4116, 366.2865
684.8937, 377.2142
685.3758, 386.4346
685.8579, 393.6307
686.3400, 400.0449
686.8221, 404.0898
687.3043, 408.6130
687.7864, 415.0101
688.2685, 423.4423
688.7506, 432.8278
689.2327, 444.5607
689.7148, 454.9048
690.1970, 458.3430
690.6791, 456.3174
691.1612, 458.6000
691.6433, 466.6814
692.1254, 476.7543
692.6075, 486.0105
693.0897, 494.7015
693.5718, 503.0200
694.0539, 510.2021
694.5360, 517.7041
695.0181, 526.8966
695.5002, 537.4004
695.9824, 548.6179
696.4645, 559.0337
696.9466, 571.6216
697.4287, 588.2728
697.9108, 606.9116
698.3929, 620.9148
698.8751, 629.1934
699.3572, 640.6041
699.8393, 659.2626
700.3214, 682.0961
700.8035, 702.2643
701.2856, 720.0229
701.7678, 736.8289
702.2499, 752.0271
702.7320, 767.4465
703.2141, 785.1537
703.6962, 805.2258
704.1783, 826.3529
704.6605, 848.3420
705.1426, 869.9117
705.6247, 890.3013
706.1068, 909.6682
706.5889, 929.3418
707.0710, 948.8054
707.5532, 968.6835
708.0353, 988.8616
708.5174, 1009.512
708.9995, 1034.958
709.4816, 1065.744
709.9637, 1097.875
710.4459, 1126.594
710.9280, 1154.747
711.4101, 1186.504
711.8922, 1222.702
712.3743, 1262.392
712.8564, 1307.166
713.3386, 1354.134
713.8207, 1400.884
714.3028, 1442.344
714.7849, 1489.664
715.2670, 1546.127
715.7491, 1607.297
716.2313, 1668.621
716.7134, 1729.062
717.1955, 1791.263
717.6776, 1855.920
718.1597, 1922.333
718.6418, 1988.426
719.1240, 2054.711
719.6061, 2126.277
720.0882, 2206.790
720.5703, 2290.002
721.0524, 2367.337
721.5345, 2441.627
722.0167, 2519.678
722.4988, 2604.982
722.9809, 2693.485
723.4630, 2782.762
723.9451, 2873.139
724.4272, 2968.397
724.9094, 3069.902
725.3915, 3172.489
725.8736, 3273.655
726.3557, 3373.463
726.8378, 3477.151
727.3199, 3585.692
727.8021, 3694.518
728.2842, 3806.645
728.7663, 3915.077
729.2484, 4007.406
729.7305, 4082.827
730.2126, 4145.193
730.6948, 4200.882
731.1769, 4240.561
731.6590, 4259.018
732.1411, 4256.486
732.6232, 4225.486
733.1053, 4165.190
733.5875, 4078.746
734.0696, 3967.770
734.5517, 3831.007
735.0338, 3676.629
735.5159, 3501.661
735.9980, 3314.964
736.4802, 3118.928
736.9623, 2917.807
737.4444, 2725.434
737.9265, 2542.251
738.4086, 2366.441
738.8907, 2194.391
739.3729, 2029.823
739.8550, 1878.781
740.3371, 1743.179
740.8192, 1617.111
741.3013, 1500.357
741.7834, 1393.165
742.2656, 1296.917
742.7477, 1212.603
743.2298, 1134.556
743.7119, 1063.250
744.1940, 997.5447
744.6761, 936.9548
745.1583, 881.0121
745.6404, 828.5710
746.1225, 779.7205
746.6046, 733.6733
747.0867, 689.7710
747.5688, 648.1755
748.0510, 609.6998
748.5331, 575.5192
749.0152, 542.7776
749.4973, 510.5425
749.9794, 479.4849
750.4615, 450.7910
750.9437, 424.4236
751.4258, 401.0514
751.9079, 381.5032
752.3900, 364.6914
752.8721, 347.4086
753.3542, 329.8885
753.8364, 312.3192
754.3185, 294.1504
754.8006, 276.8552
755.2827, 262.4573
755.7648, 250.5270
756.2469, 240.1396
756.7291, 231.0234
757.2112, 223.2218
757.6933, 217.5037
758.1754, 213.3679
758.6575, 207.7991
759.1396, 200.2739
759.6218, 192.3387
760.1039, 184.1921
760.5860, 176.1099
761.0681, 168.5862
761.5502, 161.6799
762.0323, 156.1213
762.5145, 153.1770
762.9966, 151.3556
763.4787, 148.9320
763.9608, 145.8717
764.4429, 142.1301
764.9250, 137.1074
765.4072, 131.9360
765.8893, 127.1675
766.3714, 122.8179
766.8535, 118.7144
767.3356, 115.0046
767.8177, 111.2134
768.2999, 107.0720
768.7820, 102.5925
769.2641, 97.89917
769.7462, 92.95264
770.2283, 88.60474
770.7104, 85.53735
771.1926, 83.39502
771.6747, 82.41895
772.1568, 82.48413
772.6389, 80.85767
773.1210, 74.52710
773.6031, 67.45801
774.0853, 62.40137
774.5674, 60.11499
775.0495, 56.01294
775.5316, 48.74707
776.0137, 42.10229
776.4958, 38.89966
776.9780, 38.97876
777.4601, 38.63940
777.9422, 37.88940
778.4243, 36.17163
778.9064, 32.18701
779.3885, 27.35718
779.8707, 23.39282
780.3528, 20.47266
780.8349, 18.61792
781.3170, 18.73999
781.7991, 19.25854
782.2812, 19.06396
782.7633, 18.03076
783.2454, 16.58960
783.7275, 14.71899
784.2097, 12.40747
784.6918, 8.902344
785.1739, 4.544678
785.6560, 3.371826
786.1381, 5.917725
786.6202, 8.436768
787.1024, 7.022217
787.5845, 3.809326
788.0666, 1.433350
788.5487, 0.4724120
789.0308, 0.3623050
789.5129, 1.686279
789.9951, 2.928711
790.4772, 3.567383
790.9593, 3.041748
791.4414, 3.829102
791.9235, 6.672852
792.4056, 9.123291
792.8878, 7.508057
793.3699, 3.024414
793.8520, 2.687988
794.3341, 7.644775
794.8162, 12.34937
795.2983, 10.95117
795.7805, 7.181641
796.2626, 4.993164
796.7447, 5.245361
797.2268, 6.850098
797.7089, 10.79199
798.1910, 14.87964
798.6732, 17.89697
799.1553, 20.11108
799.6374, 19.38428
800.1195, 15.05933
800.6016, 9.121582
801.0837, 2.944092
801.5659, 3.120117
802.0480, 8.004150
802.5301, 11.37207
803.0122, 14.47949
803.4943, 17.66016
803.9764, 21.10742
804.4586, 24.73291
804.9407, 28.28687
805.4228, 33.30078
805.9049, 41.32080
806.3870, 49.26001
806.8691, 54.08716
807.3513, 54.99829
807.8334, 59.43823
808.3155, 68.40332
808.7976, 77.09985
809.2797, 79.46875
809.7618, 78.40259
810.2440, 79.42676
810.7261, 83.50732
811.2082, 88.12476
811.6903, 92.60571
812.1724, 97.03613
812.6545, 101.1680
813.1367, 103.6592
813.6188, 109.5535
814.1009, 121.6785
814.5830, 132.9644
815.0651, 135.3608
815.5472, 129.7434
816.0294, 129.0330
816.5115, 134.2942
816.9936, 142.0793
817.4757, 150.3513
817.9578, 158.5886
818.4399, 165.5598
818.9221, 170.4021
819.4042, 177.4656
819.8863, 190.0322
820.3684, 204.0139
820.8505, 216.8560
821.3326, 228.5952
821.8148, 238.5220
822.2969, 245.4116
822.7790, 254.1438
823.2611, 270.6599
823.7432, 292.2463
824.2253, 309.9177
824.7075, 322.7983
825.1896, 334.6438
825.6717, 346.0781
826.1538, 358.9797
826.6359, 375.7537
827.1180, 397.5234
827.6002, 417.0002
828.0823, 430.8315
828.5644, 445.3948
829.0465, 465.1174
829.5286, 489.9402
830.0107, 510.6841
830.4929, 526.8208
830.9750, 543.5200
831.4571, 566.7559
831.9392, 592.1694
832.4213, 612.2249
832.9034, 626.3530
833.3856, 640.1650
833.8677, 656.9338
834.3498, 673.2798
834.8319, 688.5981
835.3140, 703.0603
835.7961, 710.3884
836.2783, 709.0437
836.7604, 704.6025
837.2425, 700.6389
837.7246, 696.0713
838.2067, 686.0681
838.6888, 670.8647
839.1710, 653.3093
839.6531, 634.3687
840.1352, 614.4084
840.6173, 594.1682
841.0994, 573.4424
841.5815, 550.7957
842.0637, 524.3269
842.5458, 497.4138
843.0279, 470.7136
843.5100, 444.3911
843.9921, 419.3091
844.4742, 395.6614
844.9564, 372.3760
845.4385, 348.0378
845.9206, 324.4941
846.4027, 305.1672
846.8848, 289.2263
847.3669, 273.6621
847.8491, 258.2434
848.3312, 241.9248
848.8133, 223.0898
849.2954, 202.9067
849.7775, 185.3330
850.2596, 170.6252
850.7418, 158.0393
851.2239, 148.3184
851.7060, 139.3552
852.1881, 125.5195
852.6702, 108.1372
853.1523, 93.32959
853.6345, 85.32324
854.1166, 78.25513
854.5987, 66.83545
855.0808, 53.47681
855.5629, 42.87476
856.0450, 39.25220
856.5272, 33.47168
857.0093, 24.21313
857.4914, 13.10986
857.9735, 2.257080
858.4556, 8.109863
858.9377, 16.20654
859.4199, 21.20801
859.9020, 25.30396
860.3841, 31.88135
860.8662, 38.62573
861.3483, 41.85278
861.8304, 38.02710
862.3126, 35.29761
862.7947, 36.93042
863.2768, 39.66919
863.7589, 40.90869
864.2410, 40.68750
864.7231, 39.04980
865.2053, 36.08765
865.6874, 31.72827
866.1695, 24.40820
866.6516, 15.89331
867.1337, 10.29297
867.6158, 8.768555
868.0980, 6.084717
868.5801, 2.905273
869.0622, 12.67163
869.5443, 18.16089
870.0264, 17.76099
870.5085, 21.92529
870.9907, 32.05737
871.4728, 42.87573
871.9549, 50.25391
872.4370, 55.00635
872.9191, 59.69019
873.4012, 64.57080
873.8834, 70.95947
874.3655, 81.61255
874.8476, 92.65112
875.3297, 100.9531
875.8118, 106.3347
876.2939, 112.6353
876.7761, 118.8770
877.2582, 127.9775
877.7403, 142.4727
878.2224, 160.5671
878.7045, 172.3721
879.1866, 178.3347
879.6688, 183.4155
880.1509, 189.2725
880.6330, 196.3083
881.1151, 205.6084
881.5972, 216.5349
882.0793, 226.9417
882.5615, 237.0676
883.0436, 245.7039
883.5257, 252.7783
884.0078, 258.2471
884.4899, 261.3938
884.9720, 262.0642
885.4542, 263.8005
885.9363, 267.6404
886.4184, 272.7603
886.9005, 279.0059
887.3826, 285.5593
887.8647, 290.7000
888.3469, 292.1267
888.8290, 295.1987
889.3111, 304.2878
889.7932, 313.9949
890.2753, 318.1958
890.7574, 314.6687
891.2396, 316.2664
891.7217, 324.7810
892.2038, 334.1228
892.6859, 336.0798
893.1680, 334.3569
893.6501, 336.3831
894.1323, 343.3638
894.6144, 352.5718
895.0965, 366.0298
895.5786, 378.7263
896.0607, 386.4668
896.5428, 388.4436
897.0250, 393.8567
897.5071, 403.8777
897.9892, 413.9092
898.4713, 421.1292
898.9534, 426.1865
899.4355, 430.7229
899.9177, 434.8640
900.3998, 440.0845
900.8819, 446.6094
901.3640, 454.6743
901.8461, 464.6948
902.3282, 476.2910
902.8104, 488.0754
903.2925, 500.8528
903.7746, 511.1306
904.2567, 517.2646
904.7388, 520.7244
905.2209, 525.4583
905.7031, 530.7295
906.1852, 533.1055
906.6673, 528.0823
907.1494, 524.9766
907.6315, 532.0010
908.1136, 544.4766
908.5958, 554.9897
909.0779, 561.4307
909.5600, 568.6426
910.0421, 577.3896
910.5242, 586.2751
911.0063, 592.9697
911.4885, 598.1584
911.9706, 606.2585
912.4527, 618.1479
912.9348, 629.3467
913.4169, 635.7620
913.8990, 640.0073
914.3812, 644.1736
914.8633, 648.4175
915.3454, 652.1045
915.8275, 655.7834
916.3096, 657.4365
916.7917, 655.1599
917.2739, 649.8379
917.7560, 648.4170
918.2381, 650.0815
918.7202, 647.1072
919.2023, 631.0598
919.6844, 611.9485
920.1666, 598.4155
920.6487, 588.7490
921.1308, 573.6667
921.6129, 548.7280
922.0950, 523.9775
922.5771, 501.5483
923.0593, 481.3389
923.5414, 463.4536
924.0235, 447.9775
924.5056, 433.7339
924.9877, 420.8752
925.4698, 407.7007
925.9520, 392.6194
926.4341, 376.9065
926.9162, 361.9392
927.3983, 346.9702
927.8804, 333.9062
928.3625, 323.7419
928.8447, 314.4888
929.3268, 303.6536
929.8089, 291.5156
930.2910, 279.8096
930.7731, 268.5574
931.2552, 258.5581
931.7374, 251.2195
932.2195, 244.6218
932.7016, 237.3359
933.1837, 229.2478
933.6658, 219.4773
934.1479, 206.4404
934.6301, 194.4304
935.1122, 185.6646
935.5943, 179.3367
936.0764, 171.7732
936.5585, 163.1931
937.0406, 155.3596
937.5228, 151.8298
938.0049, 146.9456
938.4870, 134.2649
938.9691, 117.1912
939.4512, 103.9905
939.9333, 97.67261
940.4155, 91.79028
940.8976, 86.11035
941.3797, 79.73901
941.8618, 70.66675
942.3439, 59.45068
942.8260, 49.08716
943.3082, 39.95361
943.7903, 31.82422
944.2724, 23.07056
944.7545, 16.10327
945.2366, 14.38086
945.7188, 21.87085
946.2009, 20.86865
946.6830, 8.233887
947.1651, 5.794434
947.6472, 14.61377
948.1293, 19.22119
948.6115, 24.00171
949.0936, 28.71460
949.5757, 31.86646
950.0578, 31.84619
950.5399, 30.55640
951.0220, 28.90894
951.5042, 26.86011
951.9863, 24.23706
952.4684, 21.02051
952.9505, 17.53931
953.4326, 14.64404
953.9147, 10.09253
954.3969, 2.781006
954.8790, 20.64185
955.3611, 33.72021
955.8432, 36.99683
956.3253, 40.83228
956.8074, 51.55225
957.2896, 64.74707
957.7717, 75.99316
958.2538, 83.85303
958.7359, 94.37915
959.2180, 107.6155
959.7001, 122.4797
960.1823, 140.0962
960.6644, 158.0015
961.1465, 169.3374
961.6286, 174.8186
962.1107, 181.4607
962.5928, 193.5798
963.0750, 206.5613
963.5571, 219.1934
964.0392, 231.2781
964.5213, 241.6438
965.0034, 250.2759
965.4855, 258.1196
965.9677, 265.1182
966.4498, 272.6626
966.9319, 282.2166
967.4140, 293.8406
967.8961, 307.5791
968.3782, 325.7732
968.8604, 342.1211
969.3425, 354.4963
969.8246, 365.8127
970.3067, 377.9541
970.7888, 390.6934
971.2709, 407.8911
971.7531, 429.7671
972.2352, 450.9277
972.7173, 465.5303
973.1994, 478.1755
973.6815, 493.7556
974.1636, 512.0605
974.6458, 528.6787
975.1279, 541.6890
975.6100, 554.2188
976.0921, 566.7646
976.5742, 579.6143
977.0563, 594.4048
977.5385, 610.6794
978.0206, 624.9106
978.5027, 635.8264
978.9848, 644.6106
979.4669, 651.9312
979.9490, 657.8457
980.4311, 662.4016
980.9132, 666.2996
981.3953, 667.2905
981.8774, 664.4512
982.3596, 661.1501
982.8417, 660.5474
983.3238, 661.8853
983.8059, 663.3171
984.2880, 664.6553
984.7701, 665.1738
985.2523, 664.1731
985.7344, 662.4507
986.2165, 659.8713
986.6986, 656.8135
987.1807, 654.7021
987.6628, 653.4746
988.1450, 654.0320
988.6271, 657.7129
989.1092, 661.1304
989.5913, 658.2139
990.0734, 651.6658
990.5555, 646.5854
991.0377, 646.0364
991.5198, 643.8560
992.0019, 636.7197
992.4840, 629.3821
992.9661, 625.5774
993.4482, 625.4414
993.9304, 625.6262
994.4125, 626.1128
994.8946, 624.9683
995.3767, 618.6465
995.8588, 611.5815
996.3409, 609.1250
996.8231, 610.2974
997.3052, 607.6128
997.7873, 596.6448
998.2694, 587.7578
998.7515, 583.5156
999.2336, 582.0176
999.7158, 580.4646
1000.198, 578.5706
1000.680, 575.0786
1001.162, 569.1099
1001.644, 563.4873
1002.126, 561.9546
1002.608, 560.4351
1003.091, 554.3550
1003.573, 541.8184
1004.055, 536.2188
1004.537, 538.8965
1005.019, 541.8081
1005.501, 538.5742
1005.983, 532.5146
1006.465, 529.4363
1006.948, 528.5845
1007.430, 526.5920
1007.912, 519.7642
1008.394, 514.8413
1008.876, 513.8760
1009.358, 515.5298
1009.840, 519.0935
1010.322, 524.3628
1010.804, 523.2368
1011.287, 513.6436
1011.769, 501.3811
1012.251, 489.2122
1012.733, 478.7559
1013.215, 473.2400
1013.697, 474.7222
1014.179, 469.0066
1014.661, 453.2048
1015.143, 435.9087
1015.626, 421.9819
1016.108, 409.4849
1016.590, 391.3064
1017.072, 369.1978
1017.554, 348.8748
1018.036, 334.1663
1018.518, 320.5188
1019.000, 307.8357
1019.483, 294.3999
1019.965, 276.3479
1020.447, 250.9436
1020.929, 237.2117
1021.411, 237.5190
1021.893, 241.6345
1022.375, 238.6514
1022.857, 234.2830
1023.339, 236.1140
1023.822, 244.5745
1024.304, 253.9941
1024.786, 260.5234
1025.268, 271.6077
1025.750, 290.2590
1026.232, 314.3245
1026.714, 338.6809
1027.196, 363.1938
1027.679, 387.0576
1028.161, 409.8955
1028.643, 432.0000
1029.125, 453.7891
1029.607, 474.9214
1030.089, 495.1179
1030.571, 514.7854
1031.053, 532.3250
1031.536, 547.7146
1032.018, 560.9072
1032.500, 571.3804
1032.982, 580.3252
1033.464, 589.8235
1033.946, 599.1687
1034.428, 606.3450
1034.910, 609.9517
1035.392, 612.9209
1035.875, 616.9248
1036.357, 619.8833
1036.839, 617.8008
1037.321, 611.2642
1037.803, 606.0017
1038.285, 602.7510
1038.767, 600.8855
1039.249, 601.6052
1039.731, 602.1094
1040.214, 598.8972
1040.696, 591.6130
1041.178, 589.1477
1041.660, 593.2380
1042.142, 595.5857
1042.624, 591.2048
1043.106, 584.2153
1043.588, 581.4014
1044.071, 581.6372
1044.553, 582.2263
1045.035, 582.1921
1045.517, 582.7092
1045.999, 585.8154
1046.481, 587.2388
1046.963, 582.0051
1047.445, 570.7708
1047.927, 564.0457
1048.410, 561.9385
1048.892, 560.1963
1049.374, 555.6343
1049.856, 550.4226
1050.338, 547.5742
1050.820, 545.5010
1051.302, 537.8682
1051.784, 522.4519
1052.266, 510.4990
1052.749, 504.9788
1053.231, 500.7957
1053.713, 491.0742
1054.195, 478.2578
1054.677, 465.3391
1055.159, 452.8442
1055.641, 442.6904
1056.123, 436.3225
1056.606, 430.8291
1057.088, 425.5583
1057.570, 420.3140
1058.052, 413.1265
1058.534, 404.3601
1059.016, 396.1694
1059.498, 390.2339
1059.980, 384.5081
1060.463, 377.2224
1060.945, 369.4211
1061.427, 362.6389
1061.909, 357.0999
1062.391, 353.1602
1062.873, 351.1860
1063.355, 348.8711
1063.837, 344.4033
1064.319, 338.4023
1064.802, 330.9177
1065.284, 322.3574
1065.766, 315.2068
1066.248, 311.2458
1066.730, 307.5142
1067.212, 303.1265
1067.694, 298.6680
1068.176, 296.2334
1068.658, 295.1746
1069.141, 293.3787
1069.623, 290.5698
1070.105, 285.4482
1070.587, 274.8154
1071.069, 264.0200
1071.551, 256.3538
1072.033, 251.7495
1072.515, 248.2905
1072.998, 246.2302
1073.480, 242.4302
1073.962, 234.1599
1074.444, 225.7642
1074.926, 224.3926
1075.408, 225.2073
1075.890, 220.6677
1076.372, 203.7734
1076.854, 193.2378
1077.337, 191.0911
1077.819, 189.8008
1078.301, 183.5588
1078.783, 173.6182
1079.265, 161.7058
1079.747, 148.6350
1080.229, 138.0442
1080.711, 134.3757
1081.193, 129.7610
1081.676, 121.3237
1082.158, 111.5198
1082.640, 105.6438
1083.122, 102.9771
1083.604, 95.76758
1084.086, 82.52393
1084.568, 69.92456
1085.050, 63.80664
1085.532, 59.59033
1086.015, 55.15527
1086.497, 49.93042
1086.979, 38.59375
1087.461, 19.41919
1087.943, 6.695313
1088.425, 7.181641
1088.907, 11.70093
1089.389, 9.818359
1089.872, 3.589844
1090.354, 4.691162
1090.836, 16.99902
1091.318, 23.40430
1091.800, 20.69946
1092.282, 18.45776
1092.764, 24.27515
1093.246, 34.46191
1093.729, 37.28076
1094.211, 34.52759
1094.693, 32.38110
1095.175, 34.84961
1095.657, 36.85254
1096.139, 37.11182
1096.621, 36.18018
1097.103, 34.17163
1097.585, 31.18726
1098.068, 29.59985
1098.550, 29.47705
1099.032, 29.31128
1099.514, 28.16504
1099.996, 26.38599
1100.478, 23.75903
1100.960, 20.70483
1101.442, 18.60986
1101.924, 17.55200
1102.407, 17.35596
1102.889, 18.48486
1103.371, 18.62988
1103.853, 14.17822
1104.335, 7.926025
1104.817, 3.244873
1105.299, 0.7707520
1105.781, 1.878662
1106.264, 4.951172
1106.746, 7.997070
1107.228, 10.67505
1107.710, 13.39355
1108.192, 18.35791
1108.674, 23.80615
1109.156, 25.15894
1109.638, 18.27295
1110.120, 14.42407
1110.603, 18.05762
1111.085, 23.73193
1111.567, 29.23413
1112.049, 34.10181
1112.531, 33.07520
1113.013, 27.42822
1113.495, 24.79028
1113.977, 32.26587
1114.459, 40.15161
1114.942, 43.47583
1115.424, 44.79102
1115.906, 47.58423
1116.388, 52.12817
1116.870, 54.70459
1117.352, 55.01318
1117.834, 56.47852
1118.316, 64.27954
1118.799, 72.24536
1119.281, 74.20288
1119.763, 71.58398
1120.245, 71.58521
1120.727, 75.47705
1121.209, 77.70654
1121.691, 76.75391
1122.173, 76.16431
1122.656, 82.36865
1123.138, 90.28906
1123.620, 91.63794
1124.102, 85.19458
1124.584, 83.97876
1125.066, 93.03589
1125.548, 99.43530
1126.030, 97.79639
1126.512, 93.22583
1126.995, 97.05005
1127.477, 105.8823
1127.959, 111.6370
1128.441, 111.6216
1128.923, 111.4431
1129.405, 112.9631
1129.887, 114.6011
1130.369, 115.5645
1130.851, 115.9971
1131.334, 115.5171
1131.816, 114.8071
1132.298, 117.2966
1132.780, 127.7341
1133.262, 136.3904
1133.744, 136.6646
1134.226, 134.5234
1134.708, 135.7605
1135.191, 140.6667
1135.673, 143.5039
1136.155, 144.3213
1136.637, 144.7727
1137.119, 145.8186
1137.601, 147.0144
1138.083, 148.2654
1138.565, 149.4487
1139.047, 150.3018
1139.530, 150.7737
1140.012, 151.4382
1140.494, 152.3901
1140.976, 153.3794
1141.458, 154.1943
1141.940, 154.9360
1142.422, 155.2305
1142.904, 155.4214
1143.386, 157.5503
1143.869, 162.8774
1144.351, 166.3093
1144.833, 166.6716
1145.315, 165.7158
1145.797, 164.3120
1146.279, 163.6914
1146.761, 166.6045
1147.243, 173.3718
1147.726, 176.8826
1148.208, 174.0618
1148.690, 171.7434
1149.172, 173.2761
1149.654, 175.9568
1150.136, 172.1121
1150.618, 164.5769
1151.100, 159.9065
1151.583, 160.5295
1152.065, 162.7776
1152.547, 167.8833
1153.029, 170.7073
1153.511, 168.3000
1153.993, 162.4045
1154.475, 158.1348
1154.957, 155.2422
1155.439, 152.7871
1155.922, 150.6697
1156.404, 148.1321
1156.886, 143.9585
1157.368, 140.3865
1157.850, 139.4575
1158.332, 140.7869
1158.814, 139.6475
1159.296, 136.3840
1159.778, 133.4983
1160.261, 133.4854
1160.743, 132.6101
1161.225, 127.7468
1161.707, 122.4341
1162.189, 119.9741
1162.671, 120.2588
1163.153, 123.5410
1163.635, 129.6333
1164.118, 133.5178
1164.600, 130.2432
1165.082, 125.1597
1165.564, 120.7993
1166.046, 117.3740
1166.528, 114.7566
1167.010, 112.6860
1167.492, 112.8906
1167.974, 115.8870
1168.457, 118.0864
1168.939, 114.5552
1169.421, 110.5623
1169.903, 110.9292
1170.385, 114.4624
1170.867, 115.5940
1171.349, 114.1294
1171.831, 112.3630
1172.313, 110.5413
1172.796, 108.6370
1173.278, 106.1536
1173.760, 104.0796
1174.242, 104.1616
1174.724, 106.1851
1175.206, 104.9626
1175.688, 99.18286
1176.170, 96.54736
1176.653, 99.79297
1177.135, 104.2781
1177.617, 103.3318
1178.099, 100.7100
1178.581, 101.7734
1179.063, 107.7920
1179.545, 109.6135
1180.027, 105.3787
1180.510, 103.0117
1180.992, 106.3992
1181.474, 110.9802
1181.956, 109.0828
1182.438, 104.1855
1182.920, 102.0068
1183.402, 104.5745
1183.884, 105.5212
1184.366, 103.8098
1184.849, 102.8271
1185.331, 104.7200
1185.813, 107.8774
1186.295, 109.2788
1186.777, 109.6995
1187.259, 110.7620
1187.741, 114.4661
1188.223, 114.6492
1188.705, 109.5723
1189.188, 104.5728
1189.670, 103.5469
1190.152, 104.7085
1190.634, 103.9565
1191.116, 102.2466
1191.598, 101.8750
1192.080, 104.7437
1192.562, 107.1650
1193.045, 108.7241
1193.527, 110.2729
1194.009, 112.6221
1194.491, 115.3865
1194.973, 117.6770
1195.455, 119.5757
1195.937, 121.4155
1196.419, 123.6819
1196.901, 125.3005
1197.384, 126.1802
1197.866, 126.3657
1198.348, 125.4712
1198.830, 124.0935
1199.312, 123.8657
1199.794, 124.6201
1200.276, 125.1670
1200.758, 124.8164
1201.240, 124.7283
1201.723, 125.5647
1202.205, 125.9651
1202.687, 122.7686
1203.169, 118.2939
1203.651, 119.2583
1204.133, 125.4270
1204.615, 130.4502
1205.097, 131.3503
1205.580, 131.2771
1206.062, 130.6213
1206.544, 129.8093
1207.026, 129.4153
1207.508, 129.0928
1207.990, 127.5776
1208.472, 124.8999
1208.954, 124.2217
1209.437, 128.7751
1209.919, 132.8708
1210.401, 135.2939
1210.883, 136.5068
1211.365, 137.1377
1211.847, 137.1414
1212.329, 135.7881
1212.811, 132.9380
1213.293, 132.5017
1213.776, 140.4121
1214.258, 144.2158
1214.740, 138.9109
1215.222, 130.0879
1215.704, 129.0225
1216.186, 132.8574
1216.668, 135.1741
1217.150, 134.7559
1217.632, 133.2561
1218.115, 129.5515
1218.597, 127.2893
1219.079, 127.8875
1219.561, 130.2368
1220.043, 133.1665
1220.525, 135.9089
1221.007, 136.5784
1221.489, 134.4517
1221.972, 132.2156
1222.454, 130.2571
1222.936, 128.6948
1223.418, 127.8511
1223.900, 127.0437
1224.382, 123.8748
1224.864, 119.8501
1225.346, 118.4490
1225.828, 121.3154
1226.311, 123.4199
1226.793, 124.9312
1227.275, 123.6055
1227.757, 116.9319
1228.239, 108.5977
1228.721, 107.2388
1229.203, 109.8657
1229.685, 110.3279
1230.167, 106.3101
1230.650, 103.0178
1231.132, 100.9905
1231.614, 98.50391
1232.096, 93.97876
1232.578, 89.12744
1233.060, 87.46484
1233.542, 87.72144
1234.024, 87.41235
1234.507, 85.54956
1234.989, 84.36499
1235.471, 84.03516
1235.953, 82.85938
1236.435, 79.07764
1236.917, 74.52881
1237.399, 72.35547
1237.881, 71.64185
1238.364, 70.81982
1238.846, 69.65845
1239.328, 67.92651
1239.810, 65.34717
1240.292, 63.47803
1240.774, 63.87671
1241.256, 64.96606
1241.738, 65.52368
1242.220, 64.87842
1242.703, 61.31812
1243.185, 51.84180
1243.667, 48.18823
1244.149, 51.34131
1244.631, 54.33838
1245.113, 52.23145
1245.595, 48.03003
1246.077, 43.45435
1246.559, 39.43164
1247.042, 38.44604
1247.524, 42.77319
1248.006, 40.64185
1248.488, 31.50439
1248.970, 22.97729
1249.452, 20.93408
1249.934, 20.93091
1250.416, 18.84985
1250.899, 16.62939
1251.381, 17.89136
1251.863, 24.13525
1252.345, 25.11597
1252.827, 20.81396
1253.309, 15.73975
1253.791, 12.07715
1254.273, 9.522217
1254.755, 8.713135
1255.238, 8.359619
1255.720, 6.420410
1256.202, 2.726563
1256.684, 0.4521480
1257.166, 0.3820800
1257.648, 0.1459960
1258.130, 2.431885
1258.612, 4.268066
1259.094, 2.690186
1259.577, 0.3369140
1260.059, 0.5910640
1260.541, 3.093018
1261.023, 1.830322
1261.505, 2.731689
1261.987, 6.003662
1262.469, 3.410645
1262.951, 1.844727
1263.434, 4.905518
1263.916, 8.411621
1264.398, 7.677002
1264.880, 3.826416
1265.362, 1.614502
1265.844, 1.055420
1266.326, 1.277100
1266.808, 4.117920
1267.291, 4.264404
1267.773, 0.1584470
1268.255, 5.406250
1268.737, 7.584717
1269.219, 7.805420
1269.701, 9.366943
1270.183, 11.69507
1270.665, 12.14795
1271.147, 7.442139
1271.630, 4.960449
1272.112, 6.057861
1272.594, 7.153564
1273.076, 3.625488
1273.558, 1.238281
1274.040, 2.375732
1274.522, 0.4379880
1275.004, 2.186768
1275.486, 5.787842
1275.969, 8.253418
1276.451, 9.454102
1276.933, 9.416748
1277.415, 7.128418
1277.897, 4.482178
1278.379, 3.228027
1278.861, 3.305908
1279.343, 4.690674
1279.825, 8.031494
1280.308, 8.556885
1280.790, 5.816162
1281.272, 4.104736
1281.754, 7.889648
1282.236, 12.40698
1282.718, 14.20288
1283.200, 14.10449
1283.682, 14.43286
1284.165, 14.41187
1284.647, 15.18872
1285.129, 16.06494
1285.611, 14.77100
1286.093, 8.157715
1286.575, 2.706543
1287.057, 1.526367
1287.539, 3.159424
1288.021, 4.260010
1288.504, 9.025146
1288.986, 16.36401
1289.468, 18.42456
1289.950, 1.268066
1290.432, 7.180664
1290.914, 4.363770
1291.396, 1.092285
1291.878, 13.52222
1292.360, 2.963379
1292.843, 9.229004
1293.325, 9.980957
1293.807, 16.00415
1294.289, 10.75195
1294.771, 9.040039
1295.253, 18.70288
1295.735, 22.10205
1296.217, 14.42798
1296.700, 20.91064
1297.182, 3.707764
1297.664, 7.331299
1298.146, 18.08130
1298.628, 12.00659
1299.110, 18.52246
1299.592, 20.16992
1300.074, 4.2479999E-02
1300.557, 17.73242
1301.039, 19.18188
1301.521, 3.892090
1302.003, 18.16089
1302.485, 4.372314
1302.967, 0.1154790
1303.449, 0.0000000E+00
##END=



