##NAMES=Kristiansenite
##RRUFFID=R090022
##IDEAL CHEMISTRY=Ca_2_ScSn(Si_2_O_7_)(Si_2_O_6_OH)
##LOCALITY=Heftetjern, TÃ¸rdal, Telemark, Norway
##OWNER=RRUFF
##SOURCE=William W. Pinch
##DESCRIPTION=Pale tan colored, tapering prismatic crystals, associated with albite and quartz
##STATUS=The identification of this mineral has been confirmed by single-crystal X-ray diffraction.
##URL=rruff.info/R090022
102.5014, 0.0000000E+00
102.9835, 9.9120997E-02
103.4656, 0.7991940
103.9478, 3.036346
104.4299, 6.206329
104.9120, 9.093597
105.3941, 11.67557
105.8762, 14.30811
106.3583, 14.94003
106.8405, 12.77362
107.3226, 10.07050
107.8047, 7.231750
108.2868, 4.372131
108.7689, 2.344971
109.2510, 2.365051
109.7332, 4.656250
110.2153, 8.399261
110.6974, 13.62711
111.1795, 20.04361
111.6616, 27.63617
112.1437, 36.86102
112.6259, 46.16049
113.1080, 53.89685
113.5901, 60.15323
114.0722, 65.68802
114.5543, 71.00418
115.0364, 76.38928
115.5185, 81.41187
116.0007, 85.85065
116.4828, 90.26215
116.9649, 94.83466
117.4470, 99.99966
117.9291, 106.4796
118.4112, 114.1627
118.8934, 121.7520
119.3755, 129.1104
119.8576, 137.1801
120.3397, 144.2754
120.8218, 149.7220
121.3039, 153.8942
121.7861, 156.4245
122.2682, 156.6082
122.7503, 155.5457
123.2324, 150.8716
123.7145, 141.0768
124.1966, 127.9228
124.6788, 113.7390
125.1609, 99.49861
125.6430, 85.34418
126.1251, 72.54971
126.6072, 60.50403
127.0893, 49.92648
127.5715, 41.47276
128.0536, 34.91428
128.5357, 29.23221
129.0178, 23.77132
129.4999, 18.62700
129.9821, 13.97064
130.4642, 9.736481
130.9463, 5.998016
131.4284, 2.875076
131.9105, 0.4358370
132.3926, 1.595657
132.8748, 3.512878
133.3569, 5.209747
133.8390, 6.327179
134.3211, 6.597275
134.8032, 6.156448
135.2853, 5.448349
135.7674, 4.401062
136.2496, 3.149826
136.7317, 1.735901
137.2138, 0.1964720
137.6959, 1.386505
138.1780, 3.201447
138.6601, 5.379227
139.1423, 6.385437
139.6244, 4.332138
140.1065, 2.635529
140.5886, 2.554672
141.0707, 4.151825
141.5528, 6.798309
142.0350, 9.807053
142.5171, 13.25777
142.9992, 16.95041
143.4813, 20.56726
143.9634, 24.55185
144.4455, 29.43045
144.9277, 35.24332
145.4098, 41.44501
145.8919, 47.16252
146.3740, 52.19785
146.8561, 57.03438
147.3382, 60.97238
147.8204, 64.95618
148.3025, 70.10693
148.7846, 76.82843
149.2667, 84.89200
149.7488, 93.93845
150.2309, 103.4770
150.7131, 114.7712
151.1952, 128.3490
151.6773, 144.0847
152.1594, 161.5089
152.6415, 181.0876
153.1236, 201.9084
153.6058, 223.1042
154.0879, 245.4598
154.5700, 265.5184
155.0521, 281.1421
155.5342, 292.3613
156.0163, 298.0492
156.4985, 295.3082
156.9806, 287.4820
157.4627, 276.1107
157.9448, 261.1028
158.4269, 244.4934
158.9090, 228.7629
159.3912, 213.3834
159.8733, 200.6049
160.3554, 191.6782
160.8375, 185.0947
161.3196, 180.1596
161.8017, 176.6000
162.2839, 174.5255
162.7660, 174.3723
163.2481, 177.5125
163.7302, 180.9536
164.2123, 184.1844
164.6944, 187.4578
165.1766, 191.0638
165.6587, 195.1785
166.1408, 199.7642
166.6229, 204.8098
167.1050, 210.1959
167.5871, 216.2068
168.0693, 222.7226
168.5514, 229.9302
169.0335, 237.9995
169.5156, 246.8342
169.9977, 256.6923
170.4798, 269.7470
170.9620, 285.7056
171.4441, 304.2842
171.9262, 325.9040
172.4083, 350.2088
172.8904, 376.1010
173.3725, 402.8681
173.8547, 430.5432
174.3368, 459.0354
174.8189, 490.7881
175.3010, 521.8484
175.7831, 550.9238
176.2652, 578.1911
176.7474, 598.3858
177.2295, 606.9918
177.7116, 605.0771
178.1937, 594.0919
178.6758, 570.4135
179.1579, 539.1602
179.6401, 506.2787
180.1222, 470.5871
180.6043, 437.2708
181.0864, 409.5450
181.5685, 386.1805
182.0506, 366.1133
182.5328, 348.7415
183.0149, 334.3232
183.4970, 323.6782
183.9791, 317.6195
184.4612, 314.7246
184.9433, 314.5444
185.4255, 316.4370
185.9076, 319.4353
186.3897, 323.1182
186.8718, 327.4138
187.3539, 331.6350
187.8360, 335.9490
188.3182, 339.9828
188.8003, 344.2885
189.2824, 348.2397
189.7645, 350.7794
190.2466, 350.8489
190.7287, 348.2894
191.2109, 345.3524
191.6930, 341.5461
192.1751, 337.9400
192.6572, 334.3143
193.1393, 331.1422
193.6214, 329.4705
194.1036, 330.3718
194.5857, 334.2347
195.0678, 337.5260
195.5499, 340.9787
196.0320, 343.3640
196.5141, 344.8473
196.9963, 344.9421
197.4784, 342.3375
197.9605, 335.9837
198.4426, 325.5156
198.9247, 311.6774
199.4068, 292.9066
199.8890, 272.3596
200.3711, 251.3885
200.8532, 230.2731
201.3353, 209.8152
201.8174, 190.3487
202.2995, 172.0565
202.7817, 156.2802
203.2638, 143.7437
203.7459, 133.3283
204.2280, 123.9860
204.7101, 115.5740
205.1922, 108.6662
205.6744, 104.1267
206.1565, 101.6340
206.6386, 100.0375
207.1207, 99.35062
207.6028, 99.39337
208.0849, 100.0956
208.5671, 101.6388
209.0492, 103.1154
209.5313, 103.9016
210.0134, 104.1229
210.4955, 103.8426
210.9776, 102.9821
211.4598, 101.5157
211.9419, 99.38052
212.4240, 96.17725
212.9061, 93.36917
213.3882, 91.51468
213.8703, 90.60254
214.3525, 90.73975
214.8346, 92.02695
215.3167, 94.40732
215.7988, 97.74377
216.2809, 102.5257
216.7630, 107.5954
217.2451, 112.1856
217.7273, 116.6794
218.2094, 121.7602
218.6915, 127.8688
219.1736, 134.9070
219.6557, 142.2535
220.1378, 149.9926
220.6200, 157.9478
221.1021, 165.5980
221.5842, 173.4306
222.0663, 182.4024
222.5484, 193.3176
223.0305, 205.8960
223.5127, 217.4770
223.9948, 228.7119
224.4769, 237.9149
224.9590, 244.9237
225.4411, 249.6713
225.9232, 251.9936
226.4054, 251.6964
226.8875, 248.9340
227.3696, 245.3593
227.8517, 240.6016
228.3338, 235.4066
228.8159, 229.6051
229.2981, 223.4933
229.7802, 217.7151
230.2623, 212.7496
230.7444, 208.4120
231.2265, 202.6736
231.7086, 195.4920
232.1908, 187.1207
232.6729, 176.7922
233.1550, 165.3016
233.6371, 154.1945
234.1192, 144.5203
234.6013, 135.9341
235.0835, 125.7957
235.5656, 112.3268
236.0477, 99.48700
236.5298, 88.38559
237.0119, 78.80969
237.4940, 70.10486
237.9762, 61.94037
238.4583, 54.37552
238.9404, 47.68027
239.4225, 42.02448
239.9046, 36.85782
240.3867, 32.08447
240.8689, 27.68085
241.3510, 23.55292
241.8331, 19.54810
242.3152, 15.93839
242.7973, 13.49069
243.2794, 12.77051
243.7616, 12.09659
244.2437, 10.76697
244.7258, 8.925873
245.2079, 7.037811
245.6900, 5.376648
246.1721, 3.663177
246.6543, 1.184296
247.1364, 2.532532
247.6185, 5.680664
248.1006, 7.104340
248.5827, 7.149689
249.0648, 7.057556
249.5470, 7.202057
250.0291, 7.427826
250.5112, 7.556732
250.9933, 7.620941
251.4754, 7.456635
251.9576, 6.901184
252.4397, 6.019501
252.9218, 5.088898
253.4039, 4.247742
253.8860, 3.284271
254.3681, 1.835602
254.8503, 0.1023250
255.3324, 1.736694
255.8145, 2.315338
256.2966, 2.071320
256.7787, 2.272919
257.2608, 3.560852
257.7430, 4.770294
258.2251, 4.876312
258.7072, 4.011627
259.1893, 3.047760
259.6714, 2.612549
260.1535, 2.585449
260.6357, 2.269592
261.1178, 1.498322
261.5999, 0.5484310
262.0820, 0.5225220
262.5641, 1.632843
263.0462, 2.538147
263.5284, 2.946533
264.0105, 2.960510
264.4926, 3.223785
264.9747, 3.926544
265.4568, 4.613861
265.9389, 5.072083
266.4211, 5.357513
266.9032, 5.620270
267.3853, 6.146515
267.8674, 6.712708
268.3495, 6.226715
268.8316, 3.906403
269.3138, 1.677216
269.7959, 0.4227600
270.2780, 0.3249510
270.7601, 1.224518
271.2422, 2.566437
271.7243, 4.358307
272.2065, 6.579376
272.6886, 9.059998
273.1707, 12.33859
273.6528, 17.04153
274.1349, 22.31021
274.6170, 27.00400
275.0992, 30.56448
275.5813, 33.60376
276.0634, 37.68631
276.5455, 43.53961
277.0276, 49.12393
277.5097, 53.89005
277.9919, 58.35730
278.4740, 63.16269
278.9561, 68.54785
279.4382, 73.89789
279.9203, 77.97324
280.4024, 79.90689
280.8846, 82.35605
281.3667, 85.59811
281.8488, 89.35034
282.3309, 93.61270
282.8130, 98.30560
283.2951, 102.9935
283.7773, 106.9048
284.2594, 109.4328
284.7415, 112.7149
285.2236, 117.0735
285.7057, 121.8767
286.1878, 127.1013
286.6700, 132.5338
287.1521, 137.6039
287.6342, 141.5533
288.1163, 143.9467
288.5984, 146.8173
289.0805, 150.2045
289.5627, 153.9655
290.0448, 158.3606
290.5269, 163.1672
291.0090, 167.7766
291.4911, 171.6948
291.9732, 174.9258
292.4554, 177.2971
292.9375, 179.5553
293.4196, 180.2433
293.9017, 178.6189
294.3838, 175.0086
294.8659, 170.0512
295.3481, 164.1036
295.8302, 157.2241
296.3123, 150.5321
296.7944, 145.2127
297.2765, 138.7618
297.7586, 130.0382
298.2408, 120.0023
298.7229, 110.0393
299.2050, 100.9279
299.6871, 92.59875
300.1692, 84.83630
300.6513, 77.19031
301.1335, 70.86844
301.6156, 66.52682
302.0977, 63.37119
302.5798, 60.53732
303.0619, 57.69629
303.5440, 55.09082
304.0262, 53.24219
304.5083, 53.01019
304.9904, 52.16095
305.4725, 50.31793
305.9546, 48.15103
306.4367, 46.11850
306.9189, 44.35706
307.4010, 42.84335
307.8831, 41.58234
308.3652, 40.71072
308.8473, 39.76566
309.3294, 38.69870
309.8116, 37.64194
310.2937, 36.54535
310.7758, 35.48904
311.2579, 34.75333
311.7400, 34.67041
312.2221, 35.36667
312.7043, 35.95898
313.1864, 36.62695
313.6685, 36.92996
314.1506, 36.27832
314.6327, 35.08362
315.1148, 34.30887
315.5970, 34.68597
316.0791, 36.13602
316.5612, 37.57806
317.0433, 38.25665
317.5254, 39.78189
318.0075, 43.04227
318.4897, 47.25613
318.9718, 51.14200
319.4539, 54.01303
319.9360, 56.35233
320.4181, 59.82672
320.9002, 65.83356
321.3824, 71.26767
321.8645, 75.12790
322.3466, 78.75259
322.8287, 83.76328
323.3108, 90.58749
323.7929, 98.07571
324.2751, 104.0884
324.7572, 107.2740
325.2393, 111.6044
325.7214, 117.7317
326.2035, 124.4161
326.6856, 131.0091
327.1678, 137.3355
327.6499, 143.5170
328.1320, 149.6949
328.6141, 155.7871
329.0962, 162.3120
329.5783, 169.2740
330.0605, 176.5992
330.5426, 184.7861
331.0247, 193.3868
331.5068, 201.2300
331.9889, 207.3291
332.4710, 211.8695
332.9532, 217.3232
333.4353, 224.6383
333.9174, 232.0463
334.3995, 239.3138
334.8816, 246.3795
335.3637, 253.2252
335.8459, 259.8068
336.3280, 266.1287
336.8101, 272.0756
337.2922, 277.6464
337.7743, 282.7833
338.2564, 286.7745
338.7386, 290.6890
339.2206, 295.6464
339.7028, 301.8825
340.1849, 308.5017
340.6670, 314.3138
341.1491, 319.5033
341.6312, 323.6078
342.1133, 325.7646
342.5955, 327.4876
343.0776, 329.9986
343.5597, 333.0368
344.0418, 335.2104
344.5239, 335.1421
345.0060, 332.7198
345.4882, 329.8320
345.9703, 326.4971
346.4524, 322.7419
346.9345, 317.9390
347.4166, 312.7913
347.8987, 308.4293
348.3809, 305.4968
348.8630, 303.9278
349.3451, 303.6667
349.8272, 306.0395
350.3093, 307.6588
350.7914, 307.0576
351.2736, 305.8689
351.7557, 305.4394
352.2378, 306.2516
352.7199, 308.5416
353.2020, 313.1371
353.6841, 321.1491
354.1663, 328.0574
354.6484, 332.5790
355.1305, 336.5013
355.6126, 340.4180
356.0947, 344.5849
356.5768, 349.4330
357.0590, 355.4704
357.5411, 362.6911
358.0232, 370.3912
358.5053, 379.1062
358.9874, 387.7095
359.4695, 395.0686
359.9517, 401.9629
360.4338, 409.9898
360.9159, 420.2838
361.3980, 432.2242
361.8801, 444.2102
362.3622, 456.4839
362.8444, 468.1115
363.3265, 478.4422
363.8086, 488.1720
364.2907, 498.1790
364.7728, 508.8911
365.2549, 519.2523
365.7371, 528.4413
366.2192, 536.6902
366.7013, 541.9257
367.1834, 543.2485
367.6655, 541.3907
368.1476, 537.1309
368.6298, 530.4437
369.1119, 520.6896
369.5940, 507.3150
370.0761, 490.4758
370.5582, 470.6024
371.0403, 446.5713
371.5225, 421.5375
372.0046, 396.9549
372.4867, 373.0641
372.9688, 350.2350
373.4509, 329.0398
373.9330, 308.8536
374.4152, 288.4778
374.8973, 267.7969
375.3794, 248.5830
375.8615, 232.3527
376.3436, 218.0689
376.8257, 203.9639
377.3079, 189.6264
377.7900, 176.0577
378.2721, 164.2402
378.7542, 153.8744
379.2363, 143.6907
379.7184, 133.2916
380.2006, 122.9455
380.6827, 112.6467
381.1648, 102.3780
381.6469, 93.31017
382.1290, 86.51729
382.6111, 80.81714
383.0933, 74.60654
383.5754, 67.66190
384.0575, 60.50027
384.5396, 53.03069
385.0217, 45.58844
385.5038, 39.76956
385.9860, 37.16086
386.4681, 34.83255
386.9502, 30.70042
387.4323, 25.28841
387.9144, 20.46924
388.3965, 17.26259
388.8787, 15.02634
389.3608, 12.04654
389.8429, 7.853806
390.3250, 4.003845
390.8071, 0.8399810
391.2892, 1.831299
391.7714, 4.192017
392.2535, 6.289139
392.7356, 8.190933
393.2177, 9.957550
393.6998, 11.58234
394.1819, 13.05681
394.6641, 14.64442
395.1462, 15.87648
395.6283, 16.42921
396.1104, 16.38123
396.5925, 15.92610
397.0746, 15.12706
397.5568, 14.11259
398.0389, 13.59467
398.5210, 14.66422
399.0031, 14.91025
399.4852, 13.79225
399.9673, 11.84407
400.4495, 9.562180
400.9316, 7.132248
401.4137, 4.556107
401.8958, 1.823425
402.3779, 1.126587
402.8600, 4.074219
403.3422, 6.706451
403.8243, 9.629074
404.3064, 13.11263
404.7885, 17.16505
405.2706, 21.72662
405.7527, 26.77383
406.2349, 32.27437
406.7170, 37.72357
407.1991, 42.78152
407.6812, 48.26462
408.1633, 54.58322
408.6454, 61.27800
409.1276, 67.72931
409.6097, 73.68301
410.0918, 79.74545
410.5739, 86.91139
411.0560, 95.29962
411.5381, 104.0116
412.0203, 112.9020
412.5024, 122.0999
412.9845, 131.7872
413.4666, 141.8515
413.9487, 151.9043
414.4308, 161.5689
414.9130, 170.9595
415.3951, 180.3982
415.8772, 189.6628
416.3593, 199.5286
416.8414, 211.0449
417.3235, 223.2504
417.8057, 234.7815
418.2878, 245.0093
418.7699, 255.1085
419.2520, 266.2697
419.7341, 278.4213
420.2162, 290.8568
420.6984, 303.1250
421.1805, 315.8607
421.6626, 329.6414
422.1447, 344.5071
422.6268, 360.2684
423.1089, 378.2570
423.5911, 396.4760
424.0732, 412.2578
424.5553, 425.2451
425.0374, 436.8059
425.5195, 448.2153
426.0016, 458.9206
426.4838, 466.5006
426.9659, 471.8083
427.4480, 473.2605
427.9301, 469.4520
428.4122, 461.2883
428.8943, 450.3471
429.3765, 437.0750
429.8586, 422.1709
430.3407, 406.7284
430.8228, 390.1335
431.3049, 374.3551
431.7870, 359.8550
432.2692, 345.9174
432.7513, 331.6079
433.2334, 317.2414
433.7155, 304.1273
434.1976, 293.4979
434.6797, 285.2032
435.1619, 276.8258
435.6440, 267.7076
436.1261, 259.2497
436.6082, 251.6038
437.0903, 244.7788
437.5724, 238.8503
438.0546, 233.8355
438.5367, 229.3862
439.0188, 224.9553
439.5009, 220.4505
439.9830, 216.2708
440.4651, 211.5238
440.9473, 208.1113
441.4294, 207.6028
441.9115, 209.1792
442.3936, 210.6331
442.8757, 210.4131
443.3578, 209.1882
443.8400, 208.9783
444.3221, 209.9474
444.8042, 211.1877
445.2863, 212.3200
445.7684, 213.5909
446.2505, 215.0819
446.7327, 216.7127
447.2148, 218.9108
447.6969, 222.7113
448.1790, 227.5620
448.6611, 230.5636
449.1432, 230.5234
449.6254, 230.0632
450.1075, 231.5003
450.5896, 234.4471
451.0717, 237.7247
451.5538, 241.9147
452.0359, 245.6689
452.5181, 247.0427
453.0002, 246.4435
453.4823, 246.6140
453.9644, 248.9680
454.4465, 252.6994
454.9286, 256.1019
455.4108, 259.2957
455.8929, 261.9336
456.3750, 263.5372
456.8571, 264.6602
457.3392, 266.1585
457.8214, 268.1011
458.3035, 269.7136
458.7856, 270.4078
459.2677, 270.1965
459.7498, 268.5427
460.2319, 265.2803
460.7141, 261.0384
461.1962, 255.4259
461.6783, 249.0512
462.1604, 242.8769
462.6425, 237.2359
463.1246, 231.4802
463.6068, 224.4293
464.0889, 215.3893
464.5710, 206.9997
465.0531, 199.0141
465.5352, 191.8733
466.0173, 185.9164
466.4995, 180.9776
466.9816, 176.5487
467.4637, 172.1670
467.9458, 168.2122
468.4279, 166.0123
468.9100, 166.0945
469.3922, 166.5639
469.8743, 167.0252
470.3564, 167.5503
470.8385, 168.1868
471.3206, 168.9430
471.8027, 169.8339
472.2849, 171.1151
472.7670, 172.5788
473.2491, 173.4652
473.7312, 173.7573
474.2133, 173.3140
474.6954, 171.7620
475.1776, 169.3880
475.6597, 166.8039
476.1418, 164.1457
476.6239, 161.2626
477.1060, 158.2001
477.5881, 154.8579
478.0703, 150.6902
478.5524, 145.4023
479.0345, 139.7726
479.5166, 134.8474
479.9987, 130.5863
480.4808, 127.3496
480.9630, 125.6135
481.4451, 124.5484
481.9272, 123.3161
482.4093, 122.2140
482.8914, 122.3066
483.3735, 124.2781
483.8557, 127.7957
484.3378, 131.6838
484.8199, 135.9694
485.3020, 140.6285
485.7841, 145.2497
486.2662, 150.5200
486.7484, 157.4930
487.2305, 165.9383
487.7126, 174.3166
488.1947, 181.7534
488.6768, 188.0982
489.1589, 191.1489
489.6411, 190.4774
490.1232, 186.9067
490.6053, 181.1486
491.0874, 172.9275
491.5695, 161.5578
492.0516, 146.7552
492.5338, 130.3132
493.0159, 113.6038
493.4980, 96.68945
493.9801, 80.61230
494.4622, 65.29968
494.9443, 51.30609
495.4265, 39.30331
495.9086, 28.96881
496.3907, 19.90448
496.8728, 12.15094
497.3549, 5.491394
497.8370, 0.1458130
498.3192, 4.800095
498.8013, 8.456833
499.2834, 10.93280
499.7655, 12.88312
500.2476, 15.50426
500.7297, 19.26152
501.2119, 21.98607
501.6940, 23.14818
502.1761, 23.56583
502.6582, 23.84682
503.1403, 23.91919
503.6224, 23.38696
504.1045, 21.99991
504.5866, 19.82237
505.0688, 17.04910
505.5509, 13.10663
506.0330, 9.430450
506.5151, 6.511002
506.9972, 3.541199
507.4793, 0.1059570
507.9615, 3.941406
508.4436, 8.773529
508.9257, 14.72003
509.4078, 21.60684
509.8899, 27.98862
510.3720, 33.31412
510.8542, 39.38718
511.3363, 46.88547
511.8184, 55.44751
512.3005, 64.80591
512.7827, 74.93134
513.2648, 85.84259
513.7469, 98.15210
514.2290, 111.2789
514.7111, 123.5507
515.1932, 134.6209
515.6754, 145.6379
516.1575, 157.9274
516.6396, 170.9337
517.1217, 182.1144
517.6038, 189.9698
518.0859, 197.5809
518.5681, 206.6588
519.0502, 216.3341
519.5323, 224.9557
520.0144, 232.1110
520.4965, 238.8493
520.9786, 246.4745
521.4608, 255.1741
521.9429, 263.6974
522.4250, 271.3414
522.9071, 279.6987
523.3892, 289.7122
523.8713, 300.6744
524.3535, 311.5190
524.8356, 321.7402
525.3177, 331.6961
525.7998, 341.6495
526.2819, 351.4049
526.7640, 362.0743
527.2462, 374.4491
527.7283, 386.9520
528.2104, 398.1508
528.6925, 408.9039
529.1746, 421.3451
529.6567, 436.8933
530.1389, 453.6974
530.6210, 468.6964
531.1031, 482.0854
531.5852, 497.4293
532.0673, 516.1630
532.5494, 536.5543
533.0316, 556.5112
533.5137, 575.9507
533.9958, 596.9053
534.4779, 620.7047
534.9600, 645.3474
535.4421, 670.0683
535.9243, 694.4634
536.4064, 718.1899
536.8885, 741.0195
537.3706, 762.7518
537.8527, 782.7258
538.3348, 801.3138
538.8170, 817.4141
539.2991, 830.4045
539.7812, 841.6227
540.2633, 852.1586
540.7454, 861.6609
541.2275, 869.3019
541.7097, 874.6697
542.1918, 877.5457
542.6739, 877.4865
543.1560, 874.7048
543.6381, 868.2614
544.1202, 857.5214
544.6024, 843.1867
545.0845, 825.6677
545.5666, 804.8386
546.0487, 780.5671
546.5308, 751.4044
547.0129, 719.2949
547.4951, 686.9522
547.9772, 654.3383
548.4593, 622.2409
548.9414, 590.7743
549.4235, 560.4490
549.9056, 532.4788
550.3878, 506.7591
550.8699, 483.1141
551.3520, 462.1996
551.8341, 443.0469
552.3162, 424.7275
552.7983, 407.3963
553.2805, 392.0414
553.7626, 379.2704
554.2447, 368.3817
554.7268, 357.1978
555.2089, 344.6218
555.6910, 333.7700
556.1732, 325.4156
556.6553, 317.6847
557.1374, 309.6234
557.6195, 301.1578
558.1016, 292.4939
558.5837, 283.6116
559.0659, 274.6837
559.5480, 266.2287
560.0301, 258.4832
560.5122, 250.1900
560.9943, 240.3138
561.4764, 230.5305
561.9586, 222.4124
562.4407, 215.9745
562.9228, 210.3974
563.4049, 205.8985
563.8870, 201.8085
564.3691, 197.3866
564.8513, 192.6895
565.3334, 188.1258
565.8155, 183.7605
566.2976, 179.6320
566.7797, 175.7789
567.2618, 171.9612
567.7440, 169.1544
568.2261, 168.1317
568.7082, 167.4241
569.1903, 166.2415
569.6724, 164.6709
570.1545, 162.9783
570.6367, 161.2866
571.1188, 159.8318
571.6009, 159.0205
572.0830, 158.7587
572.5651, 160.2529
573.0472, 164.4051
573.5294, 169.2383
574.0115, 173.6546
574.4936, 177.9752
574.9757, 183.0701
575.4578, 189.3666
575.9399, 196.5098
576.4221, 203.9007
576.9042, 211.6344
577.3863, 220.6281
577.8684, 231.2751
578.3505, 242.9583
578.8326, 254.9121
579.3148, 267.1285
579.7969, 279.9038
580.2790, 292.9855
580.7611, 306.8920
581.2432, 321.7130
581.7253, 337.6227
582.2075, 354.8693
582.6896, 373.4341
583.1717, 393.8478
583.6538, 416.9207
584.1359, 442.9793
584.6180, 469.5235
585.1002, 496.1622
585.5823, 524.0938
586.0643, 554.2177
586.5464, 585.6510
587.0286, 617.6672
587.5107, 650.3223
587.9928, 681.6392
588.4749, 710.6013
588.9570, 736.8223
589.4391, 759.1620
589.9213, 777.9742
590.4034, 791.2170
590.8855, 798.2050
591.3676, 798.0018
591.8497, 789.5687
592.3318, 771.1950
592.8140, 747.7696
593.2961, 719.4400
593.7782, 687.7012
594.2603, 653.6071
594.7424, 617.8931
595.2245, 581.5331
595.7067, 545.5412
596.1888, 509.9963
596.6709, 475.3911
597.1530, 440.9392
597.6351, 408.7119
598.1172, 378.5710
598.5994, 350.8230
599.0815, 325.9250
599.5636, 303.7523
600.0457, 283.4202
600.5278, 264.5938
601.0099, 247.2596
601.4921, 231.2439
601.9742, 216.5468
602.4563, 203.1465
602.9384, 191.1747
603.4205, 180.2780
603.9026, 170.2366
604.3848, 160.9726
604.8669, 152.0441
605.3490, 142.9101
605.8311, 134.4607
606.3132, 127.2579
606.7953, 121.1405
607.2775, 115.8976
607.7596, 111.4399
608.2417, 107.1098
608.7238, 101.8501
609.2059, 95.29382
609.6880, 89.67958
610.1702, 85.94835
610.6523, 82.11896
611.1344, 77.31760
611.6165, 72.13348
612.0986, 67.49016
612.5807, 63.67365
613.0629, 60.04735
613.5450, 55.90627
614.0271, 51.50807
614.5092, 47.64716
614.9913, 44.42416
615.4734, 41.55692
615.9556, 38.92978
616.4377, 36.48042
616.9198, 33.89603
617.4019, 30.87090
617.8840, 28.26768
618.3661, 26.74214
618.8483, 25.34914
619.3304, 23.03798
619.8125, 19.97978
620.2946, 17.17935
620.7767, 15.30321
621.2589, 14.12233
621.7410, 13.11064
622.2231, 12.50456
622.7052, 11.36729
623.1873, 8.861694
623.6694, 6.438263
624.1516, 5.078400
624.6337, 4.507187
625.1158, 3.839706
625.5979, 2.606628
626.0800, 1.342499
626.5621, 0.6208190
627.0443, 0.3367310
627.5264, 0.3519290
628.0085, 0.7218170
628.4906, 0.5405880
628.9727, 1.456200
629.4548, 5.267281
629.9370, 7.059456
630.4191, 5.295853
630.9012, 3.772141
631.3833, 3.284538
631.8654, 3.470963
632.3475, 4.140816
632.8297, 5.121948
633.3118, 5.964859
633.7939, 6.180679
634.2760, 5.984215
634.7581, 6.365654
635.2402, 7.585274
635.7224, 8.350616
636.2045, 8.048653
636.6866, 7.286911
637.1687, 6.606087
637.6508, 6.018997
638.1329, 5.682693
638.6151, 6.185295
639.0972, 6.495239
639.5793, 5.287651
640.0614, 3.200096
640.5435, 2.010910
641.0256, 2.353271
641.5078, 3.304314
641.9899, 3.610016
642.4720, 3.148483
642.9541, 3.048264
643.4362, 3.951866
643.9183, 4.465218
644.4005, 4.027649
644.8826, 3.173813
645.3647, 2.446892
645.8468, 1.969688
646.3289, 1.634499
646.8110, 1.443794
647.2932, 1.312149
647.7753, 1.034019
648.2574, 0.6028520
648.7395, 2.7620001E-03
649.2216, 0.9309770
649.7037, 1.859818
650.1859, 2.101952
650.6680, 1.413925
651.1501, 1.178337
651.6322, 2.212654
652.1143, 3.028130
652.5964, 2.293373
653.0786, 0.8184130
653.5607, 0.2216950
654.0428, 1.091003
654.5249, 2.560204
655.0070, 3.498749
655.4891, 3.890030
655.9713, 4.174278
656.4534, 4.226318
656.9355, 4.414345
657.4176, 5.091263
657.8997, 5.921951
658.3818, 6.531319
658.8640, 6.874901
659.3461, 7.057205
659.8282, 6.955894
660.3103, 6.828873
660.7924, 6.857239
661.2745, 7.109779
661.7567, 7.883705
662.2388, 9.382721
662.7209, 11.07040
663.2030, 11.90636
663.6851, 11.62662
664.1672, 11.36086
664.6494, 10.76764
665.1315, 10.56145
665.6136, 11.32085
666.0957, 12.48582
666.5778, 13.25190
667.0599, 13.38892
667.5421, 13.34980
668.0242, 13.33261
668.5063, 13.46795
668.9884, 14.28699
669.4705, 15.83230
669.9526, 16.98491
670.4348, 17.02205
670.9169, 16.46375
671.3990, 16.42343
671.8811, 17.03134
672.3632, 17.87801
672.8453, 19.52783
673.3275, 20.84904
673.8096, 20.89515
674.2917, 20.25997
674.7738, 20.05759
675.2559, 20.71599
675.7380, 21.62686
676.2202, 21.93047
676.7023, 21.72016
677.1844, 21.97553
677.6665, 22.81867
678.1486, 23.85326
678.6307, 25.05627
679.1129, 26.22704
679.5950, 27.03091
680.0771, 27.48083
680.5592, 27.56139
681.0413, 26.69843
681.5234, 25.95783
682.0056, 26.34544
682.4877, 27.51627
682.9698, 28.53596
683.4519, 29.00547
683.9340, 29.26884
684.4161, 29.79785
684.8983, 30.59146
685.3804, 31.63896
685.8625, 32.97390
686.3446, 34.50216
686.8267, 36.60787
687.3088, 38.39762
687.7910, 39.02177
688.2731, 38.51389
688.7552, 38.13727
689.2373, 38.36066
689.7194, 38.90312
690.2015, 39.54173
690.6837, 40.22860
691.1658, 40.89521
691.6479, 41.54599
692.1300, 42.36745
692.6121, 43.66688
693.0942, 45.53381
693.5764, 46.75242
694.0585, 46.76813
694.5406, 47.05151
695.0227, 48.43262
695.5048, 50.00385
695.9869, 50.44257
696.4691, 49.59351
696.9512, 49.47083
697.4333, 52.18962
697.9154, 55.93467
698.3975, 58.02867
698.8796, 58.63007
699.3618, 59.22589
699.8439, 60.37756
700.3260, 62.02693
700.8081, 64.05754
701.2902, 66.46204
701.7723, 68.68526
702.2545, 70.53983
702.7366, 72.58698
703.2187, 75.12134
703.7008, 77.73112
704.1829, 80.11295
704.6650, 82.17471
705.1472, 83.89222
705.6293, 84.91801
706.1114, 85.83225
706.5935, 87.77966
707.0756, 90.57809
707.5577, 92.75975
708.0399, 93.72115
708.5220, 94.69147
709.0041, 97.14107
709.4862, 101.1254
709.9683, 104.6315
710.4504, 107.5527
710.9326, 110.0447
711.4147, 111.2703
711.8968, 112.8477
712.3789, 116.3345
712.8610, 121.5191
713.3431, 126.9264
713.8253, 131.6840
714.3074, 136.1817
714.7895, 141.0914
715.2716, 146.3437
715.7537, 151.5380
716.2358, 156.4704
716.7180, 161.7495
717.2001, 168.0059
717.6822, 175.0283
718.1643, 181.5805
718.6464, 186.8962
719.1285, 192.7938
719.6107, 199.7836
720.0928, 207.1338
720.5749, 214.2573
721.0570, 221.2858
721.5391, 228.7328
722.0212, 236.8597
722.5034, 245.4913
722.9855, 254.3552
723.4676, 263.5425
723.9497, 273.2906
724.4318, 283.6953
724.9139, 294.2403
725.3961, 304.2442
725.8782, 314.4261
726.3603, 326.6665
726.8424, 342.4296
727.3245, 356.9150
727.8066, 368.8293
728.2888, 380.5643
728.7709, 393.9341
729.2530, 407.9114
729.7351, 420.6931
730.2172, 431.6807
730.6993, 441.0268
731.1815, 449.2814
731.6636, 455.9996
732.1457, 459.6244
732.6278, 460.1434
733.1099, 457.1687
733.5920, 450.3965
734.0742, 440.0901
734.5563, 426.5387
735.0384, 409.2168
735.5205, 390.7333
736.0026, 370.9827
736.4847, 350.2356
736.9669, 327.6073
737.4490, 304.7462
737.9311, 282.9782
738.4132, 262.5663
738.8953, 243.1210
739.3774, 224.1139
739.8596, 206.1766
740.3417, 190.6614
740.8238, 177.4125
741.3059, 165.0111
741.7880, 153.1923
742.2701, 142.1905
742.7523, 132.0598
743.2344, 122.7293
743.7165, 114.6119
744.1986, 108.3458
744.6807, 102.3187
745.1628, 96.33701
745.6450, 90.63411
746.1271, 85.50905
746.6092, 80.74338
747.0913, 75.73860
747.5734, 70.13934
748.0555, 64.85295
748.5377, 61.21450
749.0198, 58.79568
749.5019, 56.18206
749.9840, 53.18602
750.4661, 50.25624
750.9482, 47.66810
751.4304, 45.27879
751.9125, 42.67757
752.3946, 39.46364
752.8767, 37.09672
753.3588, 36.21955
753.8409, 35.44650
754.3231, 34.11305
754.8052, 32.44543
755.2873, 30.99039
755.7694, 29.87724
756.2515, 28.63616
756.7336, 26.43411
757.2158, 24.11375
757.6979, 23.50932
758.1800, 24.29312
758.6621, 24.26375
759.1442, 22.59129
759.6263, 20.51888
760.1085, 19.46795
760.5906, 19.44320
761.0727, 19.77205
761.5548, 21.44962
762.0369, 21.96372
762.5190, 19.90785
763.0012, 17.48708
763.4833, 16.38806
763.9654, 16.42301
764.4475, 16.38139
764.9296, 15.78027
765.4117, 14.96908
765.8939, 14.11198
766.3760, 13.28538
766.8581, 12.55784
767.3402, 11.97343
767.8223, 11.81229
768.3044, 12.31721
768.7866, 13.09112
769.2687, 13.06433
769.7508, 11.94496
770.2329, 11.10729
770.7150, 10.80552
771.1971, 10.47839
771.6793, 9.681686
772.1614, 8.797394
772.6435, 8.368896
773.1256, 8.487320
773.6077, 8.729652
774.0898, 9.427155
774.5720, 9.741348
775.0541, 8.462662
775.5362, 6.395668
776.0183, 5.262970
776.5004, 5.517883
776.9825, 6.179939
777.4647, 6.280769
777.9468, 5.927811
778.4289, 5.672691
778.9110, 5.559891
779.3931, 5.282516
779.8752, 4.641472
780.3574, 4.006142
780.8395, 3.653465
781.3216, 3.585411
781.8037, 3.815552
782.2858, 4.978378
782.7679, 5.520355
783.2501, 4.482719
783.7322, 3.158302
784.2143, 2.842888
784.6964, 3.167595
785.1785, 2.760559
785.6606, 0.9491200
786.1428, 0.9736940
786.6249, 1.258850
787.1070, 0.2700650
787.5891, 0.6270450
788.0712, 1.368362
788.5533, 1.572617
789.0355, 0.9357150
789.5176, 5.2237999E-02
789.9997, 0.6769490
790.4818, 0.9366230
790.9639, 0.8438110
791.4460, 6.6147000E-02
791.9282, 0.6262510
792.4103, 1.127121
792.8924, 1.424873
793.3745, 1.682785
793.8566, 1.786171
794.3387, 1.143173
794.8209, 1.193039
795.3030, 3.382080
795.7851, 3.231697
796.2672, 1.682892
796.7493, 0.8009410
797.2314, 0.8543550
797.7136, 0.9615550
798.1957, 0.5129930
798.6778, 0.1229860
799.1599, 7.9581998E-02
799.6420, 1.476387
800.1241, 2.225044
800.6063, 1.989967
801.0884, 1.457787
801.5705, 0.6856920
802.0526, 2.6351999E-02
802.5347, 0.1623000
803.0168, 0.3884890
803.4990, 0.6788480
803.9811, 9.0682998E-02
804.4632, 0.7804720
804.9453, 0.3790590
805.4274, 0.4863280
805.9095, 0.9083940
806.3917, 0.6761020
806.8738, 3.0022001E-02
807.3559, 0.8063280
807.8380, 1.714813
808.3201, 2.736633
808.8022, 3.905457
809.2844, 4.536697
809.7665, 4.479683
810.2486, 3.979614
810.7307, 2.936211
811.2128, 1.749466
811.6949, 1.722961
812.1771, 3.797989
812.6592, 5.116333
813.1413, 5.193436
813.6234, 5.059418
814.1055, 4.971375
814.5876, 5.024719
815.0698, 5.362862
815.5519, 5.992218
816.0340, 6.611023
816.5161, 6.967079
816.9982, 7.258904
817.4803, 7.646782
817.9625, 8.161919
818.4446, 8.954430
818.9267, 10.03522
819.4088, 11.04170
819.8909, 11.61989
820.3730, 11.95827
820.8552, 12.74236
821.3373, 14.07008
821.8194, 15.45872
822.3015, 16.94492
822.7836, 18.35315
823.2657, 19.47182
823.7479, 20.47015
824.2300, 21.63554
824.7121, 22.97049
825.1942, 24.48979
825.6763, 26.37117
826.1584, 28.25050
826.6406, 29.91484
827.1227, 31.44295
827.6048, 32.75717
828.0869, 33.97430
828.5690, 35.81250
829.0511, 39.10809
829.5333, 43.01649
830.0154, 46.09982
830.4975, 48.47891
830.9796, 50.56697
831.4617, 52.42305
831.9438, 54.75008
832.4260, 58.12936
832.9081, 62.23033
833.3902, 66.17900
833.8723, 70.18658
834.3544, 73.50876
834.8365, 75.78021
835.3187, 77.78467
835.8008, 80.20930
836.2829, 82.33868
836.7650, 83.33401
837.2471, 83.10236
837.7292, 81.98700
838.2114, 79.44202
838.6935, 76.75613
839.1756, 74.91145
839.6577, 73.35239
840.1398, 71.30447
840.6219, 68.65904
841.1041, 65.72357
841.5862, 62.67067
842.0683, 59.57466
842.5504, 56.61919
843.0325, 53.75395
843.5146, 50.51926
843.9968, 46.77866
844.4789, 43.54712
844.9610, 41.49556
845.4431, 40.16408
845.9252, 38.85313
846.4073, 37.67049
846.8895, 35.84344
847.3716, 32.80476
847.8537, 29.83554
848.3358, 27.06924
848.8179, 24.62604
849.3000, 22.59135
849.7822, 20.95811
850.2643, 19.80869
850.7464, 19.65903
851.2285, 19.19495
851.7106, 17.14062
852.1927, 14.69745
852.6749, 13.46391
853.1570, 13.06570
853.6391, 12.04501
854.1212, 9.755249
854.6033, 7.079300
855.0854, 4.938782
855.5676, 3.363434
856.0497, 2.853546
856.5318, 3.464951
857.0139, 3.496490
857.4960, 2.245880
857.9781, 0.5132750
858.4603, 0.9302520
858.9424, 2.055847
859.4245, 2.719406
859.9066, 2.894958
860.3887, 2.697235
860.8708, 1.419769
861.3530, 0.5702210
861.8351, 1.421112
862.3172, 3.037354
862.7993, 3.573090
863.2814, 2.516113
863.7635, 1.776215
864.2457, 2.882660
864.7278, 3.826172
865.2099, 2.601349
865.6920, 0.2507480
866.1741, 1.293182
866.6563, 1.689056
867.1384, 1.916214
867.6205, 2.730194
868.1026, 3.808563
868.5847, 4.456085
869.0668, 4.755905
869.5490, 5.518524
870.0311, 6.949158
870.5132, 7.963303
870.9953, 7.779999
871.4774, 7.200745
871.9595, 7.974823
872.4417, 10.55077
872.9238, 12.00150
873.4059, 11.23602
873.8880, 11.09074
874.3701, 13.13132
874.8522, 15.57574
875.3344, 16.75735
875.8165, 16.90607
876.2986, 17.59718
876.7807, 19.49240
877.2628, 21.43056
877.7449, 23.14754
878.2271, 24.60913
878.7092, 25.56386
879.1913, 26.25717
879.6734, 27.25818
880.1555, 28.75238
880.6376, 30.27455
881.1198, 31.40100
881.6019, 32.23486
882.0840, 32.47914
882.5661, 32.52367
883.0482, 34.56096
883.5303, 39.06612
884.0125, 42.95473
884.4946, 43.48470
884.9767, 41.68517
885.4588, 40.89345
885.9409, 41.24261
886.4230, 41.93457
886.9052, 43.14993
887.3873, 44.17439
887.8694, 44.65970
888.3515, 44.75565
888.8336, 44.56706
889.3157, 43.97183
889.7979, 44.02686
890.2800, 45.47290
890.7621, 46.64835
891.2442, 46.91043
891.7263, 46.92458
892.2084, 47.28049
892.6906, 47.89914
893.1727, 48.26360
893.6548, 48.08934
894.1369, 48.05327
894.6190, 48.54672
895.1011, 49.48024
895.5833, 51.18076
896.0654, 53.13544
896.5475, 53.88367
897.0296, 53.13293
897.5117, 52.49763
897.9938, 53.64233
898.4760, 55.82129
898.9581, 57.14569
899.4402, 57.68634
899.9223, 58.08395
900.4044, 58.43962
900.8865, 58.67149
901.3687, 58.71191
901.8508, 58.62000
902.3329, 58.47246
902.8150, 58.13704
903.2971, 58.44763
903.7792, 59.72862
904.2614, 61.10352
904.7435, 62.43761
905.2256, 63.66306
905.7077, 64.86107
906.1898, 65.93503
906.6719, 66.31519
907.1541, 65.37808
907.6362, 64.62512
908.1183, 64.49780
908.6004, 64.60699
909.0825, 64.58397
909.5646, 64.63016
910.0468, 65.19240
910.5289, 66.36092
911.0110, 67.66016
911.4931, 69.10086
911.9752, 70.21387
912.4573, 70.00613
912.9395, 69.24234
913.4216, 69.65775
913.9037, 71.34554
914.3858, 73.14781
914.8679, 74.39198
915.3500, 75.09586
915.8321, 75.07504
916.3142, 74.41333
916.7963, 73.89178
917.2784, 73.54976
917.7606, 73.62012
918.2427, 74.37283
918.7248, 74.91678
919.2069, 74.21646
919.6890, 72.31161
920.1711, 69.95894
920.6533, 66.65846
921.1354, 64.39265
921.6175, 64.02698
922.0996, 63.66147
922.5817, 62.57312
923.0638, 60.90863
923.5460, 58.45302
924.0281, 54.93695
924.5102, 52.50305
924.9923, 52.41351
925.4744, 52.20602
925.9565, 50.82733
926.4387, 49.08197
926.9208, 47.74239
927.4029, 46.72437
927.8850, 45.49814
928.3671, 43.78334
928.8492, 42.28606
929.3314, 41.66461
929.8135, 41.37608
930.2956, 40.98874
930.7777, 40.39348
931.2598, 39.37952
931.7419, 37.94086
932.2241, 36.36955
932.7062, 34.80138
933.1883, 33.45636
933.6704, 33.04282
934.1525, 33.24734
934.6346, 32.60077
935.1168, 30.97505
935.5989, 28.98611
936.0810, 26.88499
936.5631, 24.85518
937.0452, 23.04884
937.5273, 21.51517
938.0095, 21.29276
938.4916, 23.01730
938.9737, 23.37366
939.4558, 21.34821
939.9379, 18.61246
940.4200, 15.91119
940.9022, 13.53482
941.3843, 12.33356
941.8664, 12.94641
942.3485, 12.75851
942.8306, 10.86823
943.3127, 9.368469
943.7949, 9.609955
944.2770, 9.839630
944.7591, 8.139191
945.2412, 4.957367
945.7233, 2.423920
946.2054, 1.001678
946.6876, 0.2787480
947.1697, 0.9254460
947.6518, 1.417877
948.1339, 5.8900001E-03
948.6160, 2.058990
949.0981, 2.492432
949.5803, 1.040955
950.0624, 0.2308650
950.5445, 3.8146999E-02
951.0266, 0.8499150
951.5087, 1.301758
951.9908, 1.566803
952.4730, 2.136658
952.9551, 2.833374
953.4372, 2.655975
953.9193, 1.233612
954.4014, 8.2122996E-02
954.8835, 0.6060790
955.3657, 2.402344
955.8478, 2.446442
956.3299, 1.035004
956.8120, 0.4743650
957.2941, 1.223328
957.7762, 1.956543
958.2584, 1.834076
958.7405, 1.086731
959.2226, 9.9730998E-02
959.7047, 1.153015
960.1868, 2.286591
960.6689, 3.384949
961.1511, 4.000275
961.6332, 3.848572
962.1153, 3.500671
962.5974, 3.391998
963.0795, 3.533142
963.5616, 3.971283
964.0438, 4.792175
964.5259, 5.741791
965.0080, 7.004791
965.4901, 8.161377
965.9722, 8.977875
966.4543, 9.687439
966.9365, 10.42294
967.4186, 11.22687
967.9007, 12.38711
968.3828, 14.18494
968.8649, 15.98895
969.3470, 17.94928
969.8292, 19.56918
970.3113, 20.19266
970.7934, 20.40353
971.2755, 21.08008
971.7576, 22.37292
972.2397, 23.90948
972.7219, 25.85049
973.2040, 27.57965
973.6861, 28.39432
974.1682, 29.01138
974.6503, 30.30396
975.1324, 32.14569
975.6146, 33.96378
976.0967, 35.55890
976.5788, 37.14111
977.0609, 39.44708
977.5430, 41.43237
978.0251, 40.86795
978.5073, 39.02267
978.9894, 39.06708
979.4715, 41.19687
979.9536, 43.44904
980.4357, 44.77414
980.9178, 45.36060
981.4000, 45.33603
981.8821, 44.80261
982.3642, 44.01617
982.8463, 43.03687
983.3284, 42.36386
983.8105, 42.12622
984.2927, 42.08331
984.7748, 42.05853
985.2569, 42.10336
985.7390, 42.55316
986.2211, 43.48553
986.7032, 42.96448
987.1854, 40.62241
987.6675, 38.78406
988.1496, 38.21039
988.6317, 38.25449
989.1138, 38.43976
989.5959, 38.66278
990.0781, 38.39679
990.5602, 37.21713
991.0423, 36.82910
991.5244, 37.74680
992.0065, 38.54208
992.4886, 38.54993
992.9708, 38.33133
993.4529, 38.65036
993.9350, 39.41092
994.4171, 39.47375
994.8992, 38.03638
995.3813, 37.14822
995.8635, 37.16318
996.3456, 37.40932
996.8277, 37.92929
997.3098, 38.31494
997.7919, 38.05731
998.2740, 37.15030
998.7562, 35.99586
999.2383, 33.83133
999.7204, 32.62671
1000.203, 33.84686
1000.685, 35.24919
1001.167, 35.42368
1001.649, 34.67181
1002.131, 33.46501
1002.613, 31.93269
1003.095, 30.61746
1003.577, 29.45528
1004.059, 28.93655
1004.542, 29.99588
1005.024, 31.28314
1005.506, 31.15880
1005.988, 30.21631
1006.470, 29.97282
1006.952, 30.87758
1007.434, 32.15762
1007.916, 33.43709
1008.398, 34.60138
1008.881, 35.47351
1009.363, 36.20038
1009.845, 37.15710
1010.327, 38.16753
1010.809, 38.44392
1011.291, 37.75047
1011.773, 37.34164
1012.255, 38.88350
1012.738, 40.95287
1013.220, 41.22760
1013.702, 40.30621
1014.184, 39.42313
1014.666, 38.78207
1015.148, 38.36122
1015.630, 38.15988
1016.112, 38.07976
1016.594, 38.14148
1017.077, 38.15366
1017.559, 37.72250
1018.041, 36.77724
1018.523, 34.65773
1019.005, 31.38974
1019.487, 28.41422
1019.969, 26.51337
1020.451, 25.52641
1020.934, 25.44438
1021.416, 26.03960
1021.898, 25.78383
1022.380, 24.71638
1022.862, 24.30872
1023.344, 24.86768
1023.826, 25.76863
1024.308, 26.64275
1024.791, 27.53442
1025.273, 28.40881
1025.755, 29.29361
1026.237, 31.32080
1026.719, 34.73334
1027.201, 37.73747
1027.683, 39.67859
1028.165, 41.32033
1028.647, 43.12875
1029.130, 45.35454
1029.612, 48.65353
1030.094, 53.27777
1030.576, 56.53778
1031.058, 58.03348
1031.540, 59.01279
1032.022, 59.67995
1032.504, 60.08502
1032.986, 60.15179
1033.469, 60.18846
1033.951, 60.82106
1034.433, 62.15546
1034.915, 63.26990
1035.397, 64.19130
1035.879, 64.83618
1036.361, 65.21165
1036.843, 65.14784
1037.326, 64.44061
1037.808, 63.28583
1038.290, 62.07660
1038.772, 60.70316
1039.254, 59.79749
1039.736, 59.61298
1040.218, 59.41528
1040.700, 59.29065
1041.182, 59.04033
1041.665, 58.12332
1042.147, 56.98193
1042.629, 56.89436
1043.111, 58.29716
1043.593, 59.00748
1044.075, 58.58917
1044.557, 58.00853
1045.039, 57.45197
1045.521, 56.66599
1046.004, 55.02634
1046.486, 53.22308
1046.968, 52.85310
1047.450, 54.35788
1047.932, 55.26114
1048.414, 55.53047
1048.896, 54.87204
1049.378, 52.13487
1049.861, 49.50316
1050.343, 48.92281
1050.825, 49.44229
1051.307, 48.99353
1051.789, 47.22769
1052.271, 45.62737
1052.753, 44.60814
1053.235, 43.60732
1053.718, 42.53581
1054.200, 41.35109
1054.682, 39.74924
1055.164, 38.12852
1055.646, 37.31404
1056.128, 37.48013
1056.610, 37.40413
1057.092, 36.59959
1057.574, 35.75674
1058.057, 35.14253
1058.539, 34.48599
1059.021, 33.55025
1059.503, 32.43379
1059.985, 31.20055
1060.467, 29.86534
1060.949, 29.03725
1061.431, 29.66577
1061.913, 29.82014
1062.396, 28.18126
1062.878, 26.33095
1063.360, 25.66136
1063.842, 25.59419
1064.324, 24.99184
1064.806, 23.70335
1065.288, 22.49736
1065.770, 21.32689
1066.253, 20.75157
1066.735, 22.03264
1067.217, 22.98672
1067.699, 21.26978
1068.181, 18.40205
1068.663, 16.98126
1069.145, 17.28648
1069.627, 17.55075
1070.109, 17.08557
1070.592, 16.50255
1071.074, 15.85031
1071.556, 15.40965
1072.038, 15.66142
1072.520, 16.10506
1073.002, 15.95427
1073.484, 15.18622
1073.966, 14.42557
1074.448, 13.85841
1074.931, 13.41836
1075.413, 13.48816
1075.895, 13.24321
1076.377, 11.44817
1076.859, 9.360962
1077.341, 8.949570
1077.823, 10.02742
1078.305, 10.61719
1078.788, 9.884827
1079.270, 9.121323
1079.752, 9.163757
1080.234, 9.131592
1080.716, 8.304138
1081.198, 7.150955
1081.680, 6.209671
1082.162, 5.502319
1082.644, 4.872559
1083.127, 4.381836
1083.609, 3.431168
1084.091, 0.6985320
1084.573, 1.366592
1085.055, 0.7303310
1085.537, 0.9189760
1086.019, 2.197586
1086.501, 2.791992
1086.984, 2.253937
1087.466, 0.3194730
1087.948, 1.036636
1088.430, 0.5730290
1088.912, 0.1646730
1089.394, 0.7454830
1089.876, 0.9095150
1090.358, 0.1933290
1090.840, 1.030594
1091.323, 2.034653
1091.805, 2.670517
1092.287, 3.148102
1092.769, 3.687469
1093.251, 3.901459
1093.733, 3.418427
1094.215, 2.754562
1094.697, 2.215698
1095.179, 1.824097
1095.662, 1.641418
1096.144, 1.638062
1096.626, 1.427292
1097.108, 0.4673160
1097.590, 5.7677999E-02
1098.072, 0.7490540
1098.554, 1.555176
1099.036, 1.317307
1099.519, 0.7059940
1100.001, 0.6342010
1100.483, 1.116516
1100.965, 1.656876
1101.447, 2.393158
1101.929, 2.611389
1102.411, 1.644333
1102.893, 0.6979220
1103.375, 0.4959870
1103.858, 0.4746090
1104.340, 6.6878997E-02
1104.822, 0.6946410
1105.304, 1.582306
1105.786, 2.683289
1106.268, 3.508286
1106.750, 3.750626
1107.232, 3.996002
1107.714, 4.592911
1108.197, 5.123184
1108.679, 5.097549
1109.161, 4.794891
1109.643, 4.881165
1110.125, 5.459167
1110.607, 6.025940
1111.089, 6.813980
1111.571, 7.180786
1112.054, 6.312622
1112.536, 5.737793
1113.018, 6.975143
1113.500, 8.713303
1113.982, 8.495316
1114.464, 6.249969
1114.946, 5.750580
1115.428, 8.500351
1115.911, 10.49716
1116.393, 11.25211
1116.875, 11.62967
1117.357, 11.85623
1117.839, 11.98163
1118.321, 12.04355
1118.803, 12.05112
1119.285, 11.99481
1119.767, 11.35091
1120.250, 12.08870
1120.732, 15.40607
1121.214, 17.57953
1121.696, 16.90976
1122.178, 15.82523
1122.660, 16.33160
1123.142, 17.83521
1123.624, 18.79630
1124.106, 19.14757
1124.589, 19.39426
1125.071, 19.34698
1125.553, 19.96150
1126.035, 21.72284
1126.517, 23.18710
1126.999, 23.36983
1127.481, 23.07224
1127.963, 23.57251
1128.446, 24.79991
1128.928, 26.01978
1129.410, 27.27892
1129.892, 27.97736
1130.374, 27.93848
1130.856, 28.21967
1131.338, 29.28772
1131.820, 30.69717
1132.302, 32.03142
1132.785, 33.20244
1133.267, 33.71852
1133.749, 33.66083
1134.231, 34.45813
1134.713, 36.15169
1135.195, 37.94571
1135.677, 39.62100
1136.159, 40.87460
1136.641, 41.45868
1137.124, 41.69162
1137.606, 41.92441
1138.088, 42.30316
1138.570, 43.60159
1139.052, 45.58354
1139.534, 47.01959
1140.016, 47.80496
1140.498, 48.74097
1140.981, 50.20985
1141.463, 51.91997
1141.945, 53.73329
1142.427, 55.20415
1142.909, 55.75517
1143.391, 55.75998
1143.873, 55.38297
1144.355, 55.06566
1144.838, 56.31384
1145.320, 59.22615
1145.802, 61.78035
1146.284, 62.72670
1146.766, 63.01146
1147.248, 63.19656
1147.730, 63.51375
1148.212, 64.47975
1148.694, 65.59775
1149.177, 65.95891
1149.659, 65.69228
1150.141, 65.85765
1150.623, 66.96222
1151.105, 67.49380
1151.587, 65.57100
1152.069, 63.96208
1152.551, 65.36043
1153.033, 67.32417
1153.516, 66.95924
1153.998, 65.26559
1154.480, 64.88495
1154.962, 66.25531
1155.444, 67.09512
1155.926, 65.97499
1156.408, 65.01666
1156.890, 65.59099
1157.373, 65.83247
1157.855, 64.01186
1158.337, 61.64676
1158.819, 60.66299
1159.301, 60.83925
1159.783, 60.73813
1160.265, 60.44525
1160.747, 59.55969
1161.229, 57.39120
1161.712, 55.46893
1162.194, 54.13376
1162.676, 53.19604
1163.158, 52.73738
1163.640, 52.42516
1164.122, 51.48341
1164.604, 49.84662
1165.086, 49.34528
1165.568, 50.77280
1166.051, 50.78397
1166.533, 48.46243
1167.015, 46.57227
1167.497, 46.50583
1167.979, 46.59962
1168.461, 45.00172
1168.943, 42.43666
1169.425, 41.30145
1169.908, 41.62982
1170.390, 41.36491
1170.872, 40.49229
1171.354, 39.78529
1171.836, 39.39856
1172.318, 38.51091
1172.800, 36.61957
1173.282, 34.86285
1173.765, 34.95883
1174.247, 36.12563
1174.729, 36.20622
1175.211, 35.40723
1175.693, 34.29541
1176.175, 33.00084
1176.657, 31.71587
1177.139, 30.42883
1177.621, 29.07773
1178.104, 27.67175
1178.586, 26.44571
1179.068, 25.66537
1179.550, 25.18234
1180.032, 24.89859
1180.514, 24.74666
1180.996, 24.67314
1181.478, 24.62994
1181.960, 24.56844
1182.443, 24.48660
1182.925, 24.09480
1183.407, 22.73372
1183.889, 21.62125
1184.371, 21.89789
1184.853, 22.33690
1185.335, 21.67953
1185.817, 20.51468
1186.300, 19.95554
1186.782, 20.05276
1187.264, 19.93080
1187.746, 19.36116
1188.228, 18.64755
1188.710, 17.09540
1189.192, 16.39429
1189.674, 18.25108
1190.156, 20.11850
1190.639, 19.78799
1191.121, 18.14636
1191.603, 17.12262
1192.085, 16.80385
1192.567, 15.89342
1193.049, 13.89119
1193.531, 12.76938
1194.013, 13.02373
1194.495, 13.31116
1194.978, 13.09763
1195.460, 12.57509
1195.942, 11.77574
1196.424, 11.08546
1196.906, 12.08606
1197.388, 14.63120
1197.870, 15.06171
1198.352, 13.46095
1198.835, 12.58383
1199.317, 12.94124
1199.799, 13.29697
1200.281, 12.99872
1200.763, 12.33739
1201.245, 11.53204
1201.727, 10.73987
1202.209, 10.30835
1202.692, 10.07181
1203.174, 9.677750
1203.656, 9.166061
1204.138, 8.683655
1204.620, 8.292816
1205.102, 8.094254
1205.584, 8.144470
1206.066, 8.274490
1206.548, 8.556183
1207.031, 8.639694
1207.513, 8.046860
1207.995, 7.285889
1208.477, 6.736359
1208.959, 6.519485
1209.441, 7.028076
1209.923, 8.253006
1210.405, 8.612473
1210.887, 6.636322
1211.370, 5.491592
1211.852, 6.600388
1212.334, 7.479874
1212.816, 6.900635
1213.298, 5.839386
1213.780, 4.989304
1214.262, 4.319168
1214.744, 3.735474
1215.227, 3.224609
1215.709, 2.990646
1216.191, 3.143921
1216.673, 3.305984
1217.155, 3.116486
1217.637, 3.184128
1218.119, 3.887039
1218.601, 4.115097
1219.083, 2.523941
1219.566, 0.2494200
1220.048, 0.4101560
1220.530, 2.338577
1221.012, 2.866745
1221.494, 2.197113
1221.976, 1.630859
1222.458, 1.419449
1222.940, 1.430328
1223.422, 1.593613
1223.905, 1.657547
1224.387, 1.178360
1224.869, 0.8397980
1225.351, 1.740402
1225.833, 2.897675
1226.315, 3.003235
1226.797, 2.558640
1227.279, 2.664017
1227.762, 3.221481
1228.244, 3.022202
1228.726, 1.427963
1229.208, 0.6220250
1229.690, 2.576370
1230.172, 3.716293
1230.654, 1.799911
1231.136, 0.2689670
1231.619, 0.4332580
1232.101, 0.2702790
1232.583, 0.4668580
1233.065, 0.2112430
1233.547, 0.2147980
1234.029, 1.159393
1234.511, 0.9436950
1234.993, 0.9549410
1235.475, 1.866226
1235.958, 1.008926
1236.440, 0.1507420
1236.922, 0.3656770
1237.404, 1.272720
1237.886, 2.563995
1238.368, 3.848358
1238.850, 3.805695
1239.332, 2.680603
1239.814, 1.190887
1240.297, 0.3917080
1240.779, 1.312912
1241.261, 1.466461
1241.743, 1.274399
1242.225, 0.9409480
1242.707, 0.1923070
1243.189, 2.036880
1243.671, 4.026413
1244.154, 3.873016
1244.636, 2.979340
1245.118, 2.855255
1245.600, 3.175446
1246.082, 3.102707
1246.564, 2.607086
1247.046, 2.229019
1247.528, 2.538895
1248.010, 2.527679
1248.493, 1.799896
1248.975, 1.126068
1249.457, 0.4413150
1249.939, 0.1679080
1250.421, 0.4404300
1250.903, 1.207596
1251.385, 2.585297
1251.867, 4.309158
1252.349, 4.836380
1252.832, 3.717300
1253.314, 3.724136
1253.796, 4.827881
1254.278, 5.061462
1254.760, 4.802338
1255.242, 4.456924
1255.724, 4.583923
1256.206, 4.974579
1256.689, 5.119324
1257.171, 4.964691
1257.653, 4.440369
1258.135, 4.135345
1258.617, 4.308990
1259.099, 4.748108
1259.581, 5.497406
1260.063, 6.516296
1260.546, 7.329895
1261.028, 7.912109
1261.510, 7.577911
1261.992, 4.735138
1262.474, 2.824707
1262.956, 4.399597
1263.438, 6.054962
1263.920, 5.324432
1264.402, 3.888275
1264.885, 3.613464
1265.367, 4.280518
1265.849, 4.988678
1266.331, 5.846100
1266.813, 6.674286
1267.295, 7.647308
1267.777, 7.639099
1268.259, 6.387665
1268.741, 4.454803
1269.224, 1.831940
1269.706, 0.1144710
1270.188, 3.2350000E-03
1270.670, 1.245483
1271.152, 2.357147
1271.634, 3.121338
1272.116, 2.103455
1272.598, 0.8274840
1273.081, 9.8113999E-02
1273.563, 0.0000000E+00
##END=



