##NAMES=Krohnkite
##RRUFFID=R060111
##IDEAL CHEMISTRY=Na_2_Cu(SO_4_)_2_&#183;2H_2_O
##LOCALITY=Chuquicamata, Chile
##OWNER=RRUFF
##SOURCE=University of Arizona Mineral Museum
##DESCRIPTION=Green bladed crystals
##STATUS=The identification of this mineral has been confirmed by X-ray diffraction and chemical analysis
##URL=rruff.info/R060111
##MEASURED CHEMISTRY=Na_2.00_Cu_1.00_(S_1.00_O_4_)_2_Â·2H_2_O; H_2_O estimated by difference
145.0582, 0.0000000E+00
145.5403, 0.3614390
146.0224, 0.4582210
146.5045, 0.1376150
146.9866, 1.4456000E-02
147.4688, 0.1439950
147.9509, 0.4082780
148.4330, 0.6141170
148.9151, 0.7707460
149.3972, 0.8471450
149.8793, 0.7382870
150.3615, 0.5636600
150.8436, 0.4645730
151.3257, 0.5141580
151.8078, 0.7040600
152.2899, 0.9441810
152.7720, 1.238737
153.2542, 1.373856
153.7363, 1.176037
154.2184, 0.8096920
154.7005, 0.5143030
155.1826, 0.4645560
155.6647, 0.6317810
156.1469, 0.7793430
156.6290, 0.9546410
157.1111, 1.003180
157.5932, 0.8079410
158.0753, 0.4649520
158.5574, 0.1634200
159.0396, 6.7171000E-02
159.5217, 0.2034420
160.0038, 0.4027670
160.4859, 0.8262540
160.9680, 1.183798
161.4501, 1.267637
161.9323, 1.117035
162.4144, 0.9151040
162.8965, 0.8265060
163.3786, 0.8869920
163.8607, 0.8883860
164.3428, 0.7899780
164.8250, 0.6978570
165.3071, 0.6311150
165.7892, 0.6221990
166.2713, 0.8340490
166.7534, 1.053596
167.2355, 1.098141
167.7177, 1.093640
168.1998, 1.209699
168.6819, 1.368049
169.1640, 1.461153
169.6461, 1.390806
170.1282, 1.217834
170.6104, 1.119249
171.0925, 1.072374
171.5746, 1.015143
172.0567, 0.9450850
172.5388, 0.8673260
173.0209, 0.7761630
173.5031, 0.6143420
173.9852, 0.4916390
174.4673, 0.5643000
174.9494, 0.8127000
175.4315, 1.034723
175.9136, 1.005622
176.3958, 0.7413440
176.8779, 0.6350120
177.3600, 0.9412600
177.8421, 1.253490
178.3242, 1.318794
178.8063, 1.140144
179.2885, 0.8992050
179.7706, 0.7835290
180.2527, 0.8187430
180.7348, 0.8702610
181.2169, 0.9747530
181.6990, 1.059776
182.1812, 1.095337
182.6633, 1.073374
183.1454, 0.9925190
183.6275, 0.8229610
184.1096, 0.4306010
184.5917, 0.2492280
185.0738, 0.5086710
185.5560, 0.7886920
186.0381, 0.7510600
186.5202, 0.3288280
187.0023, 0.2500590
187.4844, 0.5991700
187.9665, 0.6023550
188.4487, 0.5234970
188.9308, 0.3042870
189.4129, 3.6398001E-02
189.8950, 0.2195450
190.3771, 0.4408230
190.8592, 0.6006310
191.3414, 0.6349330
191.8235, 0.4782040
192.3056, 0.3189470
192.7877, 9.7746000E-02
193.2698, 9.3215004E-02
193.7519, 8.3429001E-02
194.2341, 0.2194530
194.7162, 0.6281080
195.1983, 0.7129510
195.6804, 0.3887210
196.1625, 0.1349050
196.6446, 0.1332750
197.1268, 0.3072710
197.6089, 0.4958310
198.0910, 0.6661550
198.5731, 0.7941760
199.0552, 0.8501940
199.5373, 0.8360580
200.0195, 0.7707620
200.5016, 0.5724910
200.9837, 0.2938280
201.4658, 0.2259340
201.9479, 0.5717070
202.4300, 1.056972
202.9122, 1.430285
203.3943, 1.666967
203.8764, 1.733027
204.3585, 1.489790
204.8406, 0.9376840
205.3227, 0.5757270
205.8048, 0.6406060
206.2870, 0.8612660
206.7691, 1.095969
207.2512, 1.324239
207.7333, 1.481009
208.2154, 1.433432
208.6975, 1.119140
209.1797, 0.9733220
209.6618, 1.332075
210.1439, 1.703954
210.6260, 1.773277
211.1081, 1.503098
211.5902, 1.137652
212.0724, 1.000504
212.5545, 1.174581
213.0366, 1.332262
213.5187, 1.441686
214.0008, 1.535206
214.4829, 1.665575
214.9651, 1.828355
215.4472, 1.941659
215.9293, 1.856791
216.4114, 1.396167
216.8935, 1.105541
217.3756, 0.9820750
217.8578, 0.9990020
218.3399, 1.226221
218.8220, 1.638171
219.3041, 2.048154
219.7862, 2.151418
220.2683, 1.691751
220.7505, 1.412601
221.2326, 1.315248
221.7147, 1.372707
222.1968, 1.696612
222.6789, 2.268104
223.1610, 2.771917
223.6432, 2.704071
224.1253, 1.548803
224.6074, 0.8862170
225.0895, 1.065180
225.5716, 1.534994
226.0537, 1.821446
226.5358, 1.811043
227.0180, 1.659200
227.5001, 1.580274
227.9822, 1.616678
228.4643, 1.588054
228.9464, 1.352259
229.4285, 1.107313
229.9107, 1.115474
230.3928, 1.442092
230.8749, 1.841489
231.3570, 1.980150
231.8391, 1.833651
232.3212, 1.722083
232.8034, 1.711394
233.2855, 1.755466
233.7676, 1.819285
234.2497, 1.906005
234.7318, 1.949680
235.2139, 1.806611
235.6961, 1.505359
236.1782, 1.335117
236.6603, 1.450093
237.1424, 1.713900
237.6245, 1.942390
238.1066, 2.128524
238.5888, 2.230737
239.0709, 2.119035
239.5530, 1.867576
240.0351, 1.722897
240.5172, 1.837701
240.9993, 2.099340
241.4815, 2.282035
241.9636, 2.336435
242.4457, 2.401404
242.9278, 2.631401
243.4099, 2.953150
243.8920, 3.212691
244.3742, 3.325449
244.8563, 3.310032
245.3384, 3.276196
245.8205, 3.290609
246.3026, 3.205045
246.7847, 2.811663
247.2668, 2.299047
247.7490, 1.967414
248.2311, 1.996816
248.7132, 2.265287
249.1953, 2.501296
249.6774, 2.743674
250.1595, 2.856701
250.6417, 2.696507
251.1238, 2.406285
251.6059, 2.184231
252.0880, 2.129021
252.5701, 2.192131
253.0522, 2.290762
253.5344, 2.498700
254.0165, 2.578005
254.4986, 2.354558
254.9807, 2.033497
255.4628, 1.845760
255.9449, 1.903640
256.4271, 2.095881
256.9092, 2.154489
257.3913, 1.985980
257.8734, 1.865761
258.3555, 1.918455
258.8376, 1.994332
259.3198, 1.905964
259.8019, 1.580958
260.2840, 1.192030
260.7661, 1.115355
261.2482, 1.547559
261.7303, 1.926501
262.2125, 2.280627
262.6946, 2.514460
263.1767, 2.493412
263.6588, 2.192241
264.1409, 1.777809
264.6230, 1.554070
265.1052, 1.604786
265.5873, 1.632902
266.0694, 1.621783
266.5515, 1.594304
267.0336, 1.572136
267.5157, 1.560233
267.9979, 1.507014
268.4800, 1.302861
268.9621, 0.7619680
269.4442, 0.5064150
269.9263, 0.7107370
270.4084, 1.019388
270.8906, 1.244696
271.3727, 1.340261
271.8548, 1.325439
272.3369, 1.199918
272.8190, 0.8691680
273.3011, 0.7609040
273.7833, 1.062229
274.2654, 1.386080
274.7475, 1.523158
275.2296, 1.464487
275.7117, 1.309160
276.1938, 1.140560
276.6760, 0.9396590
277.1581, 0.8491250
277.6402, 0.8715450
278.1223, 0.9720430
278.6044, 1.215845
279.0865, 1.542467
279.5686, 1.772666
280.0508, 1.741257
280.5329, 1.439583
281.0150, 1.313435
281.4971, 1.433540
281.9792, 1.622173
282.4613, 1.900167
282.9435, 2.197642
283.4256, 2.348769
283.9077, 2.223933
284.3898, 1.872188
284.8719, 1.734578
285.3540, 2.017055
285.8362, 2.224922
286.3183, 2.209952
286.8004, 2.045171
287.2825, 1.844479
287.7646, 1.657145
288.2467, 1.500001
288.7289, 1.436526
289.2110, 1.526064
289.6931, 1.629416
290.1752, 1.750374
290.6573, 1.866696
291.1394, 1.953084
291.6216, 2.000764
292.1037, 2.002905
292.5858, 1.937978
293.0679, 1.786073
293.5500, 1.610370
294.0321, 1.313505
294.5143, 1.040280
294.9964, 0.9988470
295.4785, 1.243316
295.9606, 1.576187
296.4427, 1.721335
296.9248, 1.615635
297.4070, 1.488342
297.8891, 1.280249
298.3712, 1.092540
298.8533, 1.053713
299.3354, 1.171178
299.8175, 1.288670
300.2997, 1.236916
300.7818, 0.9781290
301.2639, 0.7998320
301.7460, 0.7720160
302.2281, 0.7693150
302.7102, 0.6779850
303.1924, 0.5108580
303.6745, 0.3972780
304.1566, 0.4502700
304.6387, 0.6612170
305.1208, 0.8055690
305.6029, 0.9143250
306.0851, 0.9380830
306.5672, 0.8000010
307.0493, 0.5515380
307.5314, 0.3163370
308.0135, 0.1491130
308.4956, 5.8084000E-02
308.9778, 8.6952001E-02
309.4599, 0.3155560
309.9420, 0.5419940
310.4241, 0.7667650
310.9062, 0.9399810
311.3883, 0.9196290
311.8705, 0.6157840
312.3526, 0.1873280
312.8347, 1.7642001E-02
313.3168, 0.2341670
313.7989, 0.3612550
314.2810, 0.1832330
314.7632, 9.3604997E-02
315.2453, 0.1538930
315.7274, 9.7726002E-02
316.2095, 0.4205060
316.6916, 0.4634830
317.1737, 0.1367730
317.6559, 6.8921998E-02
318.1380, 6.0325000E-02
318.6201, 4.8339002E-02
319.1022, 0.2109180
319.5843, 0.4091530
320.0664, 0.5308950
320.5485, 0.4385940
321.0306, 0.1108520
321.5128, 6.3513003E-02
321.9949, 0.2463670
322.4770, 8.9902997E-02
322.9591, 0.2979190
323.4412, 0.3674300
323.9233, 8.9918002E-02
324.4055, 0.1186960
324.8876, 5.9797000E-02
325.3697, 1.0115000E-02
325.8518, 0.2920900
326.3339, 9.1555998E-02
326.8160, 0.2046120
327.2982, 0.2293270
327.7803, 0.3782180
328.2624, 0.2580920
328.7445, 0.2215040
329.2266, 0.4612670
329.7087, 0.5466980
330.1909, 0.3955440
330.6730, 0.5520900
331.1551, 0.2013180
331.6372, 0.2182200
332.1193, 0.3547510
332.6014, 0.5204570
333.0836, 0.5831960
333.5657, 0.5006160
334.0478, 0.4304130
334.5299, 0.3953540
335.0120, 0.3639050
335.4941, 0.2982290
335.9763, 0.1985200
336.4584, 0.1080900
336.9405, 7.3793001E-02
337.4226, 0.1028400
337.9047, 9.8433003E-02
338.3868, 3.7381999E-02
338.8690, 3.1332001E-02
339.3511, 9.4232000E-02
339.8332, 0.1453660
340.3153, 0.1676550
340.7974, 0.1467680
341.2795, 9.4325997E-02
341.7617, 7.9286002E-02
342.2438, 0.1937450
342.7259, 0.2325360
343.2080, 7.3215000E-02
343.6901, 0.1722360
344.1722, 0.3161970
344.6544, 0.2780880
345.1365, 0.1617800
345.6186, 0.1867200
346.1007, 0.5439550
346.5828, 0.7594790
347.0649, 0.7552110
347.5471, 0.6377760
348.0292, 0.4436140
348.5113, 0.2033650
348.9934, 1.4279000E-02
349.4755, 1.3110000E-03
349.9576, 0.2356650
350.4398, 0.3639770
350.9219, 0.3262110
351.4040, 0.2552420
351.8861, 0.1965460
352.3682, 0.1629260
352.8503, 0.1715720
353.3325, 0.2450080
353.8146, 0.3743480
354.2967, 0.4165530
354.7788, 0.2629200
355.2609, 0.1466570
355.7430, 9.3925998E-02
356.2252, 0.1141240
356.7073, 0.2519870
357.1894, 0.5319010
357.6715, 0.8563700
358.1536, 0.9736560
358.6357, 0.6820200
359.1179, 0.4819890
359.5999, 0.4447730
360.0821, 0.4647520
360.5642, 0.4547300
361.0463, 0.3984520
361.5284, 0.3428760
362.0105, 0.3626040
362.4926, 0.5096190
362.9748, 0.5260040
363.4569, 0.2698790
363.9390, 2.4662999E-02
364.4211, 0.1032670
364.9032, 0.1162810
365.3853, 4.5899000E-02
365.8675, 0.1015330
366.3496, 0.3101880
366.8317, 0.4222000
367.3138, 0.3639200
367.7959, 0.2965990
368.2780, 0.2058360
368.7602, 0.1431420
369.2423, 0.1919630
369.7244, 0.3929010
370.2065, 0.6515560
370.6886, 0.7742200
371.1707, 0.7000270
371.6529, 0.6459240
372.1350, 0.6713860
372.6171, 0.7000980
373.0992, 0.6941540
373.5813, 0.6536260
374.0634, 0.5716570
374.5456, 0.3789560
375.0277, 5.8444999E-02
375.5098, 1.2214000E-02
375.9919, 0.4146330
376.4740, 0.8468560
376.9561, 1.107978
377.4383, 1.199346
377.9204, 1.131975
378.4025, 0.8612660
378.8846, 0.4642630
379.3667, 0.1368370
379.8488, 0.1554560
380.3310, 0.2898710
380.8131, 0.1438850
381.2952, 0.1219330
381.7773, 0.3586870
382.2594, 0.5453640
382.7415, 0.6774900
383.2237, 0.7336860
383.7058, 0.7167900
384.1879, 0.7218170
384.6700, 0.8646340
385.1521, 0.9507920
385.6342, 0.7409110
386.1164, 0.2630650
386.5985, 9.1604002E-02
387.0806, 2.3080001E-03
387.5627, 0.3580240
388.0448, 0.5731910
388.5269, 0.5842010
389.0091, 0.5373450
389.4912, 0.5354150
389.9733, 0.5580540
390.4554, 0.5586430
390.9375, 0.5305520
391.4196, 0.4737930
391.9018, 0.3509700
392.3839, 0.1754360
392.8660, 8.0580004E-02
393.3481, 0.1442690
393.8302, 0.3064940
394.3123, 0.4541570
394.7945, 0.5991150
395.2766, 0.6989780
395.7587, 0.7453730
396.2408, 0.7330520
396.7229, 0.6130960
397.2050, 0.3582190
397.6872, 0.1258450
398.1693, 0.1144050
398.6514, 0.3522470
399.1335, 0.5201040
399.6156, 0.5548620
400.0977, 0.5443940
400.5798, 0.5828860
401.0620, 0.6640320
401.5441, 0.6811990
402.0262, 0.5564970
402.5083, 0.3205500
402.9904, 0.1332590
403.4725, 5.7314001E-02
403.9547, 0.1429490
404.4368, 3.5349999E-03
404.9189, 0.2129590
405.4010, 0.2711950
405.8831, 0.1083680
406.3652, 5.9896000E-02
406.8474, 0.1206610
407.3295, 0.9020360
407.8116, 1.284205
408.2937, 0.9681290
408.7758, 0.5651870
409.2579, 0.3957300
409.7401, 0.4507920
410.2222, 0.5751270
410.7043, 0.6604100
411.1864, 0.7111140
411.6685, 0.7682910
412.1506, 0.8581400
412.6328, 0.9188240
413.1149, 0.9295530
413.5970, 0.9130390
414.0791, 0.8916600
414.5612, 0.8740100
415.0433, 0.8590380
415.5255, 0.8381400
416.0076, 0.7985540
416.4897, 0.7975110
416.9718, 0.8416240
417.4539, 0.9236620
417.9360, 1.060730
418.4182, 1.238774
418.9003, 1.418823
419.3824, 1.602295
419.8645, 1.763306
420.3466, 1.770900
420.8287, 1.556884
421.3109, 1.327421
421.7930, 1.098449
422.2751, 0.9207800
422.7572, 0.8838250
423.2393, 1.027164
423.7214, 1.261519
424.2036, 1.524555
424.6857, 1.811001
425.1678, 2.022889
425.6499, 2.115491
426.1320, 2.151930
426.6141, 2.194896
427.0963, 2.242152
427.5784, 2.271094
428.0605, 2.230215
428.5426, 2.181097
429.0247, 2.225807
429.5068, 2.372603
429.9890, 2.551986
430.4711, 2.722233
430.9532, 2.893690
431.4353, 3.101366
431.9174, 3.428061
432.3995, 3.685624
432.8817, 3.690640
433.3638, 3.543999
433.8459, 3.502405
434.3280, 3.653165
434.8101, 3.887223
435.2922, 4.053170
435.7744, 4.124466
436.2565, 4.234895
436.7386, 4.386826
437.2207, 4.579570
437.7028, 4.891531
438.1849, 5.260939
438.6671, 5.467497
439.1492, 5.282187
439.6313, 4.777730
440.1134, 4.620147
440.5955, 5.209361
441.0776, 5.661272
441.5598, 5.869674
442.0418, 5.900010
442.5240, 5.775971
443.0061, 5.523991
443.4882, 5.235651
443.9703, 5.027992
444.4524, 4.905092
444.9345, 4.825741
445.4167, 4.869087
445.8988, 4.854972
446.3809, 4.649156
446.8630, 4.352836
447.3451, 4.154191
447.8272, 4.175726
448.3094, 4.324013
448.7915, 4.347989
449.2736, 4.180915
449.7557, 4.080450
450.2378, 4.195165
450.7199, 4.341666
451.2021, 4.378820
451.6842, 4.295291
452.1663, 4.200777
452.6484, 4.134858
453.1305, 4.119497
453.6126, 4.311462
454.0948, 4.845976
454.5769, 5.282670
455.0590, 5.143261
455.5411, 4.720088
456.0232, 4.539553
456.5053, 4.845740
456.9875, 5.250072
457.4696, 5.427420
457.9517, 5.419396
458.4338, 5.428526
458.9159, 5.533934
459.3980, 5.648552
459.8802, 5.618616
460.3623, 5.431446
460.8444, 5.281451
461.3265, 5.209343
461.8086, 5.178959
462.2907, 5.200980
462.7729, 5.253860
463.2550, 5.281504
463.7371, 5.240792
464.2192, 5.119303
464.7013, 4.912579
465.1834, 4.630180
465.6656, 4.253703
466.1477, 3.641413
466.6298, 3.012473
467.1119, 2.606002
467.5940, 2.460737
468.0761, 2.431341
468.5583, 2.362579
469.0404, 2.247482
469.5225, 2.140535
470.0046, 2.071403
470.4867, 1.979174
470.9688, 1.829304
471.4510, 1.647710
471.9331, 1.476560
472.4152, 1.335769
472.8973, 1.212290
473.3794, 1.044827
473.8615, 0.7786710
474.3437, 0.7176430
474.8258, 1.220097
475.3079, 1.698428
475.7900, 1.731944
476.2721, 1.368319
476.7542, 0.9852280
477.2364, 0.8109250
477.7185, 0.7798010
478.2006, 0.7461480
478.6827, 0.7073870
479.1648, 0.6814170
479.6469, 0.7030590
480.1291, 0.7307510
480.6112, 0.6674520
481.0933, 0.4406100
481.5754, 0.3136120
482.0575, 0.5560360
482.5396, 0.9587180
483.0217, 1.105567
483.5038, 0.9068580
483.9860, 0.6086540
484.4681, 0.4318930
484.9502, 0.3842160
485.4323, 0.3448840
485.9144, 0.2762110
486.3965, 0.2547070
486.8787, 0.3924720
487.3608, 0.5856440
487.8429, 0.6299900
488.3250, 0.4442430
488.8071, 0.1440940
489.2892, 7.2267003E-02
489.7714, 0.2161260
490.2535, 0.2419080
490.7356, 8.2691997E-02
491.2177, 0.1113990
491.6998, 0.3029170
492.1819, 0.4653100
492.6641, 0.5510420
493.1462, 0.5170300
493.6283, 0.4143600
494.1104, 0.4202760
494.5925, 0.6361020
495.0746, 0.6845840
495.5568, 0.2003510
496.0389, 0.2884370
496.5210, 0.3417510
497.0031, 4.1304000E-02
497.4852, 0.4228010
497.9673, 0.4428400
498.4495, 0.2302100
498.9316, 0.1389100
499.4137, 0.1947420
499.8958, 0.3133540
500.3779, 0.5415980
500.8600, 0.7661330
501.3422, 0.7380030
501.8243, 0.3078940
502.3064, 7.5239003E-02
502.7885, 0.1891720
503.2706, 0.1067710
503.7527, 8.6804003E-02
504.2349, 0.3756970
504.7170, 0.6259620
505.1991, 0.6953790
505.6812, 0.5719240
506.1633, 0.4798920
506.6454, 0.4365920
507.1276, 0.4016500
507.6097, 0.3428170
508.0918, 0.2876390
508.5739, 0.2876540
509.0560, 0.3602930
509.5381, 0.4650620
510.0203, 0.5431640
510.5024, 0.6019510
510.9845, 0.6083940
511.4666, 0.4896860
511.9487, 0.3908470
512.4308, 0.3976790
512.9130, 0.4628310
513.3951, 0.4871860
513.8772, 0.4165730
514.3593, 0.2925930
514.8414, 0.1752470
515.3235, 5.7181001E-02
515.8057, 1.5260000E-03
516.2878, 1.6892999E-02
516.7699, 0.1002700
517.2520, 0.2700630
517.7341, 0.5076200
518.2162, 0.6860680
518.6984, 0.7773800
519.1805, 0.7668970
519.6626, 0.5675640
520.1447, 0.1994430
520.6268, 6.9379002E-02
521.1089, 8.4844001E-02
521.5911, 4.5774002E-02
522.0732, 0.1197150
522.5553, 0.1433200
523.0374, 0.1135180
523.5195, 5.0650999E-02
524.0016, 0.2135290
524.4838, 0.2402730
524.9659, 0.1330010
525.4480, 3.7035000E-02
525.9301, 0.2296860
526.4122, 0.4264820
526.8943, 0.5335040
527.3765, 0.5089510
527.8586, 0.4451800
528.3407, 0.2909880
528.8228, 0.1438860
529.3049, 0.1061430
529.7870, 0.1726400
530.2692, 0.2326990
530.7513, 0.1569560
531.2334, 1.3085000E-02
531.7155, 3.2560001E-03
532.1976, 0.2832750
532.6797, 0.5236010
533.1619, 0.5316070
533.6440, 0.4480710
534.1261, 0.4120660
534.6082, 0.4489940
535.0903, 0.4902730
535.5724, 0.5040190
536.0546, 0.4879080
536.5367, 0.4190230
537.0188, 0.2891520
537.5009, 0.1758070
537.9830, 0.1160960
538.4651, 0.1242600
538.9473, 0.2548600
539.4294, 0.6808630
539.9115, 1.001010
540.3936, 1.076542
540.8757, 0.9982260
541.3578, 0.8337810
541.8400, 0.6173420
542.3221, 0.4301480
542.8042, 0.3599830
543.2863, 0.4085060
543.7684, 0.4658560
544.2505, 0.5899720
544.7326, 0.6506180
545.2147, 0.5569760
545.6968, 0.4199980
546.1790, 0.3762830
546.6611, 0.4541090
547.1432, 0.5391540
547.6253, 0.4768120
548.1074, 0.2955480
548.5895, 0.2855830
549.0717, 0.5635700
549.5538, 0.7713110
550.0359, 0.5835830
550.5180, 0.2192160
551.0001, 1.1008000E-02
551.4822, 6.4893000E-02
551.9644, 0.1519190
552.4465, 0.1016110
552.9286, 1.2393000E-02
553.4107, 2.5650000E-02
553.8928, 7.5071000E-02
554.3749, 0.2008430
554.8571, 0.2884240
555.3392, 0.3173700
555.8213, 0.3227150
556.3034, 0.2903750
556.7855, 0.2542240
557.2676, 0.1866670
557.7498, 0.1383030
558.2319, 0.1942280
558.7140, 0.3604340
559.1961, 0.5301910
559.6782, 0.5712970
560.1603, 0.4730200
560.6425, 0.4711730
561.1246, 0.7218470
561.6067, 0.8701930
562.0888, 0.6763610
562.5709, 0.3858620
563.0530, 0.2965900
563.5352, 0.4846740
564.0173, 0.7313600
564.4994, 0.9047160
564.9815, 0.9892600
565.4636, 0.8973800
565.9457, 0.5868920
566.4279, 0.2735120
566.9100, 8.1376001E-02
567.3921, 6.9479998E-03
567.8742, 8.9029996E-03
568.3563, 0.1354280
568.8384, 0.2573910
569.3206, 0.3281450
569.8027, 0.3713330
570.2848, 0.4171260
570.7669, 0.4688030
571.2490, 0.5112650
571.7311, 0.5319130
572.2133, 0.5305410
572.6954, 0.5055510
573.1775, 0.4192970
573.6596, 0.3599900
574.1417, 0.3873960
574.6238, 0.4182390
575.1060, 0.3390440
575.5881, 0.1608830
576.0702, 4.6822999E-02
576.5523, 0.2149210
577.0344, 0.5490800
577.5165, 0.5582610
577.9987, 0.1446950
578.4808, 0.1672690
578.9629, 4.7297001E-02
579.4450, 0.2458030
579.9271, 0.2902140
580.4092, 2.8624000E-02
580.8914, 0.1193590
581.3735, 0.1255000
581.8556, 0.4745110
582.3377, 0.6265190
582.8198, 0.5859070
583.3019, 0.4819050
583.7841, 0.3658330
584.2662, 0.2554440
584.7483, 0.2019490
585.2304, 0.2450870
585.7125, 0.2824280
586.1946, 0.3288430
586.6768, 0.3563360
587.1589, 0.3287230
587.6410, 0.2682320
588.1231, 0.2315470
588.6052, 0.2522090
589.0873, 0.3078950
589.5695, 0.3912160
590.0516, 0.5261190
590.5337, 0.2673110
591.0158, 0.6310180
591.4979, 0.8580820
591.9800, 0.9558420
592.4622, 0.5370420
592.9443, 0.7852850
593.4264, 0.7662120
593.9085, 0.7361800
594.3906, 1.078329
594.8727, 0.7346650
595.3549, 1.070520
595.8370, 1.081191
596.3191, 0.8710910
596.8012, 0.7841630
597.2833, 0.8357330
597.7654, 0.9022330
598.2476, 1.085393
598.7297, 1.164774
599.2118, 0.9751310
599.6939, 0.6844670
600.1760, 0.5312860
600.6581, 0.5748360
601.1403, 0.3401720
601.6224, 0.7324820
602.1045, 0.9881660
602.5866, 1.114554
603.0687, 0.7243670
603.5508, 1.001236
604.0330, 1.267459
604.5151, 1.354079
604.9972, 1.513635
605.4793, 1.810214
605.9614, 1.975863
606.4435, 1.765769
606.9257, 1.400423
607.4078, 1.148892
607.8899, 1.044972
608.3720, 1.103565
608.8541, 1.366073
609.3362, 1.743530
609.8184, 1.950804
610.3005, 1.860737
610.7826, 1.778393
611.2647, 1.777809
611.7468, 1.722796
612.2289, 1.442064
612.7111, 1.028531
613.1932, 0.7413510
613.6753, 0.7423370
614.1574, 0.9001210
614.6395, 0.9811070
615.1216, 0.9822240
615.6038, 0.9403310
616.0859, 0.8116700
616.5680, 0.7145500
617.0501, 0.8077250
617.5322, 1.023855
618.0143, 1.133981
618.4965, 0.9976820
618.9786, 0.8353250
619.4607, 0.7769900
619.9428, 0.7941570
620.4249, 0.8570520
620.9070, 0.9496320
621.3892, 0.8191298
621.8713, 0.9487612
622.3534, 1.004957
622.8355, 0.9916691
623.3176, 0.7007848
623.7997, 0.7683609
624.2819, 0.9132230
624.7640, 0.7648047
625.2461, 0.9219977
625.7282, 1.005761
626.2103, 1.020041
626.6924, 0.7567261
627.1745, 0.8518666
627.6566, 0.8033538
628.1387, 1.185932
628.6208, 1.280069
629.1030, 0.8063662
629.5851, 0.9601532
630.0672, 1.040509
630.5493, 1.051380
631.0314, 0.7846586
631.5135, 0.8763911
631.9957, 0.8244668
632.4778, 0.9256610
632.9599, 0.8577830
633.4420, 0.8100230
633.9241, 0.8382100
634.4063, 0.8919350
634.8884, 0.8872180
635.3705, 0.8053290
635.8526, 0.8263190
636.3347, 0.9933100
636.8168, 1.198767
637.2990, 1.500280
637.7811, 1.765248
638.2632, 1.827617
638.7453, 1.618483
639.2274, 1.342050
639.7095, 1.097693
640.1917, 0.9211130
640.6738, 0.9089700
641.1559, 1.058757
641.6380, 1.196603
642.1201, 1.228780
642.6022, 1.191235
643.0844, 1.160361
643.5665, 1.107884
644.0486, 1.128266
644.5307, 1.297965
645.0128, 1.466068
645.4949, 1.538551
645.9771, 1.548068
646.4592, 1.579481
646.9413, 1.671394
647.4234, 1.768137
647.9055, 1.773867
648.3876, 1.663831
648.8698, 1.577700
649.3519, 1.526934
649.8340, 1.501098
650.3161, 1.512130
650.7982, 1.539422
651.2803, 1.536303
651.7625, 1.477291
652.2446, 1.445846
652.7267, 1.525139
653.2088, 1.616793
653.6909, 1.608759
654.1730, 1.501707
654.6552, 1.341619
655.1373, 1.146801
655.6194, 0.9640770
656.1015, 0.9380190
656.5836, 1.184362
657.0657, 1.287872
657.5479, 1.034022
658.0300, 0.8182710
658.5121, 0.8975870
658.9942, 1.124573
659.4763, 1.172328
659.9584, 0.8796400
660.4406, 0.5582440
660.9227, 0.5179880
661.4048, 0.6620560
661.8869, 0.7569920
662.3690, 0.6257829
662.8511, 0.7767741
663.3333, 0.8543294
663.8154, 0.8624050
664.2975, 0.5928876
664.7796, 0.6818243
665.2617, 0.6271079
665.7438, 0.7410050
666.2260, 0.7259010
666.7081, 0.6292240
667.1902, 0.5000960
667.6723, 0.4452990
668.1544, 0.5323340
668.6365, 0.6616570
669.1187, 0.6737690
669.6008, 0.5732370
670.0829, 0.4573850
670.5650, 0.3266230
671.0471, 0.2165720
671.5292, 0.1534570
672.0114, 0.1338070
672.4935, 0.1641260
672.9756, 0.3103490
673.4577, 0.4033390
673.9398, 0.3752560
674.4219, 0.2830640
674.9041, 0.1323080
675.3862, 3.7023000E-02
675.8683, 0.1199960
676.3504, 5.0113000E-02
676.8325, 0.1367250
677.3146, 0.4091640
677.7968, 0.8402410
678.2789, 0.9825830
678.7610, 0.5696680
679.2431, 0.1410690
679.7252, 5.1091999E-02
680.2073, 0.1701170
680.6895, 0.2337950
681.1716, 0.1586920
681.6537, 9.7943000E-02
682.1358, 0.1801950
682.6179, 0.3108890
683.1000, 0.3408820
683.5822, 0.2668970
684.0643, 0.1903700
684.5464, 0.1751690
685.0285, 0.2101670
685.5106, 0.2782720
685.9927, 0.4511700
686.4749, 0.4883120
686.9570, 0.2667030
687.4391, 2.0329000E-02
687.9212, 0.2120600
688.4033, 0.3829130
688.8854, 0.4049190
689.3676, 0.2290800
689.8497, 6.5330002E-03
690.3318, 0.2247600
690.8139, 0.4083430
691.2960, 0.5236070
691.7781, 0.5667290
692.2603, 0.5115520
692.7424, 0.3096340
693.2245, 5.7252001E-02
693.7066, 2.2181001E-02
694.1887, 0.4487360
694.6708, 0.5943900
695.1530, 0.1481440
695.6351, 0.2380130
696.1172, 0.2342350
696.5993, 4.2256001E-02
697.0814, 0.4189130
697.5635, 0.8568570
698.0457, 1.153532
698.5278, 0.9826980
699.0099, 0.5325820
699.4920, 0.4539200
699.9741, 0.8223320
700.4562, 1.010162
700.9384, 0.4688360
701.4205, 0.7741270
701.9026, 0.9427520
702.3847, 0.9820550
702.8668, 0.5047560
703.3489, 0.6944990
703.8311, 0.6168960
704.3132, 0.4508680
704.7953, 9.8970002E-03
705.2774, 0.1921460
705.7595, 8.4146999E-02
706.2416, 0.4494190
706.7238, 0.4695870
707.2059, 0.2370290
707.6880, 0.1861730
708.1701, 0.3513660
708.6522, 0.4740840
709.1343, 0.4170900
709.6164, 0.2980100
710.0985, 0.3144200
710.5806, 0.4916800
711.0627, 0.6095400
711.5449, 0.6454040
712.0270, 0.6280490
712.5091, 0.5224650
712.9912, 0.3935320
713.4733, 0.3279960
713.9554, 0.3451970
714.4376, 0.4082410
714.9197, 0.5168850
715.4018, 0.6323410
715.8839, 0.5608020
716.3660, 0.2675710
716.8481, 8.8344999E-02
717.3303, 0.2151440
717.8124, 0.1214860
718.2945, 0.4283660
718.7766, 0.5985890
719.2587, 0.6394940
719.7408, 0.1638040
720.2230, 0.3551610
720.7051, 0.2791780
721.1872, 0.1922220
721.6693, 0.4774280
722.1514, 7.5971998E-02
722.6335, 0.1468740
723.1157, 0.4712700
723.5978, 0.6590020
724.0799, 0.7174230
724.5620, 0.2592490
725.0441, 0.4681260
725.5262, 0.4096640
726.0084, 0.3066030
726.4905, 0.5015200
726.9726, 0.8899140
727.4547, 0.9755340
727.9368, 0.4893330
728.4189, 8.1644997E-02
728.9011, 5.7363000E-02
729.3832, 3.1817000E-02
729.8653, 0.1457310
730.3474, 0.4028780
730.8295, 0.5606470
731.3116, 0.5129160
731.7938, 0.3775630
732.2759, 0.3563210
732.7580, 0.4507400
733.2401, 0.5774150
733.7222, 0.7813550
734.2043, 0.8943970
734.6865, 0.7668340
735.1686, 0.4939220
735.6507, 0.2941000
736.1328, 0.1635760
736.6149, 0.1197310
737.0970, 0.2694810
737.5792, 0.4089480
738.0613, 0.3562110
738.5434, 0.1995900
739.0255, 0.1339920
739.5076, 0.2240210
739.9897, 0.3704140
740.4719, 0.4720670
740.9540, 0.5279950
741.4361, 0.5106870
741.9182, 0.3951110
742.4003, 0.3335280
742.8824, 0.3830820
743.3646, 0.5121240
743.8467, 0.7451140
744.3288, 1.089079
744.8109, 1.215390
745.2930, 0.8719740
745.7751, 0.5510290
746.2573, 0.4748010
746.7394, 0.5373210
747.2215, 0.6588550
747.7036, 0.7940540
748.1857, 0.8385040
748.6678, 0.6846790
749.1500, 0.4420730
749.6321, 0.3686850
750.1142, 0.4644210
750.5963, 0.5671040
751.0784, 0.6633700
751.5605, 0.6982140
752.0427, 0.6059100
752.5248, 0.4126790
753.0069, 0.2879500
753.4890, 0.3148070
753.9711, 0.2475290
754.4532, 0.1194600
754.9354, 0.4235980
755.4175, 0.3201010
755.8996, 5.5245001E-02
756.3817, 0.3623620
756.8638, 0.4591150
757.3459, 0.4486140
757.8281, 0.4101200
758.3102, 0.3644630
758.7923, 0.4249360
759.2744, 0.6067040
759.7565, 0.7008120
760.2386, 0.5716020
760.7208, 0.3643190
761.2029, 0.3392160
761.6850, 0.5612280
762.1671, 0.7014440
762.6492, 0.7346530
763.1313, 0.7045160
763.6135, 0.6114200
764.0956, 0.5007870
764.5777, 0.4510680
765.0598, 0.4624150
765.5419, 0.4414730
766.0240, 0.2777270
766.5062, 9.2254996E-02
766.9883, 7.8212000E-02
767.4704, 0.1983090
767.9525, 0.2883590
768.4346, 0.3073320
768.9167, 0.3578830
769.3989, 0.5596770
769.8810, 0.8579850
770.3631, 0.8926790
770.8452, 0.4002700
771.3273, 0.1245070
771.8094, 0.3588640
772.2916, 0.5761320
772.7737, 0.4132720
773.2558, 3.9839000E-02
773.7379, 0.1563590
774.2200, 3.3277001E-02
774.7021, 0.1245250
775.1843, 0.1253350
775.6664, 5.4676000E-02
776.1485, 2.0291001E-02
776.6306, 2.6133999E-02
777.1127, 4.4334002E-02
777.5948, 6.2561996E-02
778.0770, 8.8347003E-02
778.5591, 0.1323620
779.0412, 0.1948290
779.5233, 0.2780170
780.0054, 0.4105760
780.4875, 0.5031110
780.9697, 0.5105150
781.4518, 0.4750390
781.9339, 0.4130020
782.4160, 0.3322870
782.8981, 0.3160560
783.3802, 0.4821290
783.8624, 0.6050420
784.3445, 0.5057500
784.8266, 0.3320520
785.3087, 0.3034240
785.7908, 0.4149270
786.2729, 0.4742820
786.7551, 0.3372070
787.2372, 0.1201260
787.7193, 5.8216002E-02
788.2014, 0.1452800
788.6835, 0.2064830
789.1656, 0.2191460
789.6478, 0.2116540
790.1299, 0.1595060
790.6120, 0.1243840
791.0941, 0.2925310
791.5762, 0.8136800
792.0583, 1.080733
792.5404, 0.9014570
793.0225, 0.6361790
793.5046, 0.3601880
793.9868, 0.1452950
794.4689, 8.3476998E-02
794.9510, 0.1847500
795.4331, 0.3500860
795.9152, 0.5791060
796.3973, 0.7745790
796.8795, 0.6972630
797.3616, 0.4177960
797.8437, 0.3297780
798.3258, 0.5394570
798.8079, 0.7155600
799.2900, 0.5316820
799.7722, 8.5205004E-02
800.2543, 5.6017999E-02
800.7364, 0.3413380
801.2185, 0.5652740
801.7006, 0.4069310
802.1827, 0.2185210
802.6649, 0.1559190
803.1470, 0.1785270
803.6291, 0.2101810
804.1112, 0.2402800
804.5933, 0.2547080
805.0754, 0.2126410
805.5576, 0.1780430
806.0397, 0.2231100
806.5218, 0.3280350
807.0039, 0.4725700
807.4860, 0.6378460
807.9681, 0.7072580
808.4503, 0.5105950
808.9324, 0.1167470
809.4145, 9.8456003E-02
809.8966, 0.1184270
810.3787, 6.5219000E-02
810.8608, 3.7749000E-02
811.3430, 0.1972330
811.8251, 0.4757740
812.3072, 0.8286730
812.7893, 0.9735740
813.2714, 0.7810400
813.7535, 0.6370290
814.2357, 0.5872020
814.7178, 0.5829340
815.1999, 0.6222260
815.6820, 0.6745310
816.1641, 0.6956300
816.6462, 0.6708380
817.1284, 0.5935960
817.6105, 0.3869160
818.0926, 0.1537490
818.5747, 0.1409990
819.0568, 0.3142600
819.5389, 0.3918820
820.0211, 0.2677080
820.5032, 0.1443440
820.9853, 0.2701150
821.4674, 0.6233030
821.9495, 0.8694650
822.4316, 1.002256
822.9138, 1.043338
823.3959, 0.9231790
823.8780, 0.7832160
824.3601, 0.7129180
824.8422, 0.6956450
825.3243, 0.6890320
825.8065, 0.6977000
826.2886, 0.6881540
826.7707, 0.6208680
827.2528, 0.5523790
827.7349, 0.5368700
828.2170, 0.5605840
828.6992, 0.5896740
829.1813, 0.6109200
829.6634, 0.6203160
830.1455, 0.6074590
830.6276, 0.5807000
831.1097, 0.5566390
831.5919, 0.5321540
832.0740, 0.5760770
832.5561, 0.7197950
833.0382, 0.8581820
833.5203, 0.8706170
834.0024, 0.7872870
834.4846, 0.8466340
834.9667, 1.205260
835.4488, 1.448299
835.9309, 1.506173
836.4130, 1.501742
836.8951, 1.496291
837.3773, 1.473666
837.8594, 1.373309
838.3415, 1.163869
838.8236, 1.034009
839.3057, 1.178686
839.7878, 1.364631
840.2700, 1.367720
840.7521, 1.232983
841.2342, 1.047253
841.7163, 0.8503740
842.1984, 0.7114970
842.6805, 0.6976640
843.1627, 0.7870010
843.6448, 0.9692090
844.1269, 1.251668
844.6090, 1.306627
845.0911, 1.012614
845.5732, 0.7078910
846.0554, 0.6347830
846.5375, 0.7148180
847.0196, 0.7173000
847.5017, 0.5475080
847.9838, 0.5203690
848.4659, 0.7506770
848.9481, 0.9848600
849.4302, 1.193319
849.9123, 1.314979
850.3944, 1.224864
850.8765, 0.9369200
851.3586, 0.7264120
851.8408, 0.8228670
852.3229, 0.9608680
852.8050, 0.8647580
853.2871, 0.6838410
853.7692, 0.6753030
854.2513, 0.8424180
854.7335, 1.014852
855.2156, 1.093338
855.6977, 1.108575
856.1798, 1.115230
856.6619, 1.112678
857.1440, 1.065224
857.6262, 0.9539930
858.1083, 0.8924300
858.5904, 0.9510480
859.0725, 1.076238
859.5546, 1.170488
860.0367, 1.220058
860.5189, 1.196629
861.0010, 1.011479
861.4831, 0.8863000
861.9652, 0.8321290
862.4473, 0.8698430
862.9294, 1.130953
863.4116, 1.490003
863.8937, 1.593795
864.3758, 1.249465
864.8579, 0.8913450
865.3400, 0.7742670
865.8221, 0.7949670
866.3043, 0.8893570
866.7864, 1.014578
867.2685, 1.079844
867.7506, 1.060794
868.2327, 1.036520
868.7148, 1.093270
869.1970, 1.203356
869.6791, 1.287010
870.1612, 1.343955
870.6433, 1.348664
871.1254, 1.292270
871.6075, 1.194677
872.0897, 1.058746
872.5718, 0.9305940
873.0539, 0.8293650
873.5360, 0.7024970
874.0181, 0.7303920
874.5002, 1.177899
874.9823, 1.472561
875.4644, 1.268268
875.9465, 0.9194070
876.4286, 0.8455830
876.9108, 1.061798
877.3929, 1.204074
877.8750, 1.080007
878.3571, 0.9478710
878.8392, 0.9516050
879.3214, 0.9999030
879.8035, 1.015030
880.2856, 0.9864380
880.7677, 0.9025490
881.2498, 0.7478640
881.7319, 0.6493400
882.2141, 0.8679550
882.6962, 1.254719
883.1783, 1.328080
883.6604, 1.096638
884.1425, 0.8366440
884.6246, 0.6395460
885.1068, 0.4849010
885.5889, 0.3411670
886.0710, 0.2312690
886.5531, 0.2712700
887.0352, 0.5422660
887.5173, 0.7221180
887.9995, 0.7237720
888.4816, 0.7199730
888.9637, 0.8436370
889.4458, 1.008968
889.9279, 0.9890240
890.4100, 0.7184110
890.8922, 0.5164570
891.3743, 0.4974720
891.8564, 0.4748810
892.3385, 0.2868220
892.8206, 9.9514000E-02
893.3027, 0.1562820
893.7849, 0.4263240
894.2670, 0.6204460
894.7491, 0.5377190
895.2312, 0.4535170
895.7133, 0.7248000
896.1954, 1.110012
896.6776, 1.184439
897.1597, 0.9746170
897.6418, 0.7462060
898.1239, 0.6154890
898.6060, 0.5422150
899.0881, 0.4738400
899.5703, 0.4201820
900.0524, 0.4731450
900.5345, 0.6459890
901.0166, 0.6299080
901.4987, 0.2826100
901.9808, 1.8240000E-03
902.4630, 0.1568590
902.9451, 0.5864730
903.4272, 0.7094140
903.9093, 0.3282100
904.3914, 9.9969000E-02
904.8735, 0.1164130
905.3557, 0.1736240
905.8378, 0.2244600
906.3199, 0.2641960
906.8020, 0.2892470
907.2841, 0.2989960
907.7662, 0.2902920
908.2484, 0.2545000
908.7305, 0.2101830
909.2126, 0.1734680
909.6947, 0.1249260
910.1768, 8.6139999E-03
910.6589, 0.1296260
911.1411, 0.1707720
911.6232, 6.8144999E-02
912.1053, 6.3104004E-02
912.5874, 0.1056110
913.0695, 0.1267790
913.5516, 0.2787740
914.0338, 0.4973270
914.5159, 0.5791790
914.9980, 0.4800940
915.4801, 0.2735620
915.9622, 8.8590002E-03
916.4443, 0.2778610
916.9265, 0.2807420
917.4086, 1.8537000E-02
917.8907, 0.1272210
918.3728, 0.1063600
918.8549, 0.1224010
919.3370, 0.3009730
919.8192, 0.4823640
920.3013, 0.4149990
920.7834, 8.7431997E-02
921.2655, 2.2973999E-02
921.7476, 0.2871060
922.2297, 0.4624220
922.7119, 0.2944540
923.1940, 0.1025890
923.6761, 6.4955004E-02
924.1582, 0.1348980
924.6403, 0.2120220
925.1224, 0.2813480
925.6046, 0.3799270
926.0867, 0.6051990
926.5688, 0.7617270
927.0509, 0.6713710
927.5330, 0.5018910
928.0151, 0.5119280
928.4973, 0.6620740
928.9794, 0.6135950
929.4615, 9.2160001E-02
929.9436, 0.3660830
930.4257, 0.1704340
930.9078, 0.3052740
931.3900, 0.5574310
931.8721, 0.5743170
932.3542, 0.4262220
932.8363, 0.1570330
933.3184, 6.6799000E-02
933.8005, 4.1429002E-02
934.2827, 0.1095040
934.7648, 7.4080001E-03
935.2469, 0.3475460
935.7290, 0.4532940
936.2111, 0.2435690
936.6932, 2.0566000E-02
937.1754, 0.1981430
937.6575, 0.3019170
938.1396, 0.3526650
938.6217, 0.3491490
939.1038, 0.3029380
939.5859, 0.1967970
940.0681, 9.2283003E-02
940.5502, 5.0320001E-03
941.0323, 8.5340001E-02
941.5144, 0.1628680
941.9965, 0.2178920
942.4786, 0.1609020
942.9608, 5.3408999E-02
943.4429, 0.2806550
943.9250, 0.7203680
944.4071, 0.9315990
944.8892, 0.4771650
945.3713, 0.1318900
945.8535, 0.2789850
946.3356, 3.4327000E-02
946.8177, 0.3220090
947.2998, 0.4635850
947.7819, 0.4946600
948.2640, 0.3158340
948.7462, 0.1306680
949.2283, 0.1628930
949.7104, 0.3340210
950.1925, 0.4503490
950.6746, 0.4552570
951.1567, 0.4333170
951.6389, 0.4569860
952.1210, 0.4838310
952.6031, 0.4315240
953.0852, 0.3484920
953.5673, 0.3688430
954.0494, 0.4844920
954.5316, 0.5327930
955.0137, 0.4226600
955.4958, 0.2878700
955.9779, 0.3811630
956.4600, 0.6253120
956.9421, 0.5863540
957.4242, 0.2762870
957.9063, 5.0567999E-02
958.3884, 2.3910000E-03
958.8705, 7.9193003E-02
959.3527, 0.2816130
959.8348, 0.5588110
960.3169, 0.7905600
960.7990, 0.9914290
961.2811, 1.041216
961.7632, 0.8539190
962.2454, 0.7537790
962.7275, 0.8891990
963.2096, 1.125324
963.6917, 1.361505
964.1738, 1.581859
964.6559, 1.603727
965.1381, 1.174809
965.6202, 0.9571090
966.1023, 1.110411
966.5844, 1.311915
967.0665, 1.423881
967.5486, 1.502549
968.0308, 1.660647
968.5129, 1.894657
968.9950, 1.979079
969.4771, 1.674221
969.9592, 1.488427
970.4413, 1.694064
970.9235, 1.982377
971.4056, 2.076385
971.8877, 2.064340
972.3698, 2.139115
972.8519, 2.351462
973.3340, 2.723845
973.8162, 3.399423
974.2983, 4.084842
974.7804, 4.492821
975.2625, 4.839110
975.7446, 5.420664
976.2267, 6.213415
976.7089, 6.995066
977.1910, 7.657601
977.6731, 8.320526
978.1552, 9.043344
978.6373, 9.885147
979.1194, 11.07202
979.6016, 12.47425
980.0837, 13.54847
980.5658, 14.24125
981.0479, 15.06966
981.5300, 16.39194
982.0121, 17.97632
982.4943, 19.33599
982.9764, 20.55516
983.4585, 22.14213
983.9406, 24.10247
984.4227, 26.25982
984.9048, 28.55931
985.3870, 30.96617
985.8691, 33.44129
986.3512, 36.00821
986.8333, 38.88901
987.3154, 42.19854
987.7975, 44.79099
988.2797, 46.57630
988.7618, 48.07104
989.2439, 49.66570
989.7260, 50.61566
990.2081, 50.03005
990.6902, 47.99734
991.1724, 45.29422
991.6545, 41.78396
992.1366, 37.91666
992.6187, 33.31631
993.1008, 28.89351
993.5829, 25.05251
994.0651, 21.67913
994.5472, 18.61295
995.0293, 15.84243
995.5114, 13.40451
995.9935, 11.27471
996.4756, 9.494064
996.9578, 8.137091
997.4399, 7.067911
997.9220, 6.362687
998.4041, 5.823490
998.8862, 5.066364
999.3683, 4.043660
999.8505, 3.466879
1000.333, 4.025065
1000.815, 4.410782
1001.297, 3.924691
1001.779, 3.243327
1002.261, 2.855042
1002.743, 2.738988
1003.225, 2.822117
1003.707, 3.097262
1004.190, 3.156151
1004.672, 2.509605
1005.154, 1.844357
1005.636, 1.666136
1006.118, 1.691349
1006.600, 1.606957
1007.082, 1.396409
1007.564, 1.109105
1008.046, 0.7592270
1008.529, 0.5423140
1009.011, 0.7795750
1009.493, 1.078503
1009.975, 0.9170170
1010.457, 0.5412440
1010.939, 0.3918460
1011.421, 0.4991250
1011.903, 0.6824310
1012.385, 0.8567190
1012.868, 0.9859730
1013.350, 1.032173
1013.832, 1.005118
1014.314, 0.9209570
1014.796, 0.7800660
1015.278, 0.5017010
1015.760, 0.1248660
1016.242, 5.6119999E-03
1016.725, 0.3322170
1017.207, 0.8285710
1017.689, 1.089539
1018.171, 1.132431
1018.653, 0.8839110
1019.135, 0.4253230
1019.617, 0.3834870
1020.099, 0.8859660
1020.581, 1.330187
1021.064, 1.280400
1021.546, 0.9896590
1022.028, 0.9514450
1022.510, 1.146255
1022.992, 1.264205
1023.474, 1.287092
1023.956, 1.264523
1024.438, 1.192843
1024.921, 1.206088
1025.403, 1.425186
1025.885, 1.741749
1026.367, 1.886539
1026.849, 1.838269
1027.331, 1.865009
1027.813, 1.968499
1028.295, 2.174306
1028.777, 2.492829
1029.260, 2.768559
1029.742, 2.863022
1030.224, 2.885169
1030.706, 3.158085
1031.188, 3.784426
1031.670, 4.064000
1032.152, 3.790658
1032.634, 3.795083
1033.116, 4.423552
1033.599, 5.181753
1034.081, 5.668885
1034.563, 5.972701
1035.045, 6.330521
1035.527, 6.719481
1036.009, 7.187151
1036.491, 7.824762
1036.973, 8.373986
1037.456, 8.662786
1037.938, 8.961361
1038.420, 9.512492
1038.902, 10.24831
1039.384, 10.95617
1039.866, 11.66676
1040.348, 12.25325
1040.830, 12.71656
1041.313, 13.05178
1041.795, 13.10222
1042.277, 13.16419
1042.759, 13.53260
1043.241, 14.11334
1043.723, 14.60486
1044.205, 15.08748
1044.687, 15.20924
1045.169, 14.76366
1045.651, 14.22188
1046.134, 13.67269
1046.616, 13.11399
1047.098, 12.53115
1047.580, 11.93965
1048.062, 11.38486
1048.544, 10.89696
1049.026, 10.35615
1049.508, 9.713804
1049.991, 9.061483
1050.473, 8.466309
1050.955, 7.840288
1051.437, 7.005440
1051.919, 6.089965
1052.401, 5.445300
1052.883, 5.187315
1053.365, 4.909065
1053.848, 4.475460
1054.330, 4.070665
1054.812, 3.783894
1055.294, 3.538618
1055.776, 3.261819
1056.258, 2.971992
1056.740, 2.730351
1057.222, 2.551992
1057.704, 2.392067
1058.187, 2.193976
1058.669, 2.067648
1059.151, 2.246155
1059.633, 2.353928
1060.115, 1.916128
1060.597, 1.183576
1061.079, 0.7633660
1061.561, 0.7972720
1062.043, 0.8893420
1062.526, 0.9507630
1063.008, 0.9813480
1063.490, 0.9827580
1063.972, 0.9521900
1064.454, 0.8515070
1064.936, 0.7284170
1065.418, 0.7012320
1065.900, 0.7957430
1066.383, 0.8120120
1066.865, 0.5455780
1067.347, 0.3476020
1067.829, 0.4545310
1068.311, 0.6329670
1068.793, 0.7086310
1069.275, 0.6906010
1069.757, 0.6091490
1070.240, 0.4762610
1070.722, 0.3858530
1071.204, 0.3472080
1071.686, 0.3986070
1072.168, 0.7147310
1072.650, 0.9798370
1073.132, 0.8670820
1073.614, 0.5447080
1074.096, 0.3044350
1074.578, 0.2013580
1075.061, 0.1681800
1075.543, 0.2406930
1076.025, 0.2779470
1076.507, 0.2043080
1076.989, 7.6779999E-02
1077.471, 0.1170690
1077.953, 0.3050890
1078.435, 0.3698610
1078.918, 0.3125390
1079.400, 0.2614210
1079.882, 0.3080770
1080.364, 0.2758150
1080.846, 1.8338000E-02
1081.328, 0.3193120
1081.810, 0.4811340
1082.292, 0.5102140
1082.774, 0.3447420
1083.257, 5.6687001E-02
1083.739, 2.8293001E-02
1084.221, 0.3159670
1084.703, 0.5161740
1085.185, 0.1008760
1085.667, 0.3133350
1086.149, 0.3172000
1086.631, 9.4584003E-02
1087.114, 0.2229420
1087.596, 0.5399390
1088.078, 0.6401520
1088.560, 0.4097060
1089.042, 0.2180110
1089.524, 0.2600710
1090.006, 0.3326140
1090.488, 0.3691980
1090.970, 0.3391400
1091.453, 0.1390450
1091.935, 0.1350310
1092.417, 0.2279750
1092.899, 6.4397998E-02
1093.381, 9.1064997E-02
1093.863, 9.0240002E-02
1094.345, 0.1240950
1094.827, 0.3911920
1095.309, 0.6282460
1095.792, 0.5595260
1096.274, 0.3091320
1096.756, 0.1104760
1097.238, 6.1969999E-03
1097.720, 2.7441001E-02
1098.202, 0.3683820
1098.684, 0.5798330
1099.166, 0.4326110
1099.649, 0.1859280
1100.131, 6.1845001E-02
1100.613, 0.2471480
1101.095, 0.2748740
1101.577, 0.1496510
1102.059, 2.8556000E-02
1102.541, 4.1499000E-02
1103.023, 0.1198630
1103.505, 0.2364910
1103.988, 0.3469290
1104.470, 0.4342780
1104.952, 0.4972030
1105.434, 0.5320220
1105.916, 0.5416720
1106.398, 0.5363280
1106.880, 0.4965330
1107.362, 0.4918180
1107.844, 0.5699690
1108.327, 0.6375750
1108.809, 0.6041790
1109.291, 0.5934530
1109.773, 0.7454360
1110.255, 1.007477
1110.737, 1.219840
1111.219, 1.369449
1111.701, 1.479840
1112.184, 1.583929
1112.666, 1.604411
1113.148, 1.393949
1113.630, 1.227163
1114.112, 1.359619
1114.594, 1.628082
1115.076, 1.717996
1115.558, 1.606369
1116.041, 1.545704
1116.523, 1.604597
1117.005, 1.591449
1117.487, 1.346718
1117.969, 1.232125
1118.451, 1.535483
1118.933, 1.951460
1119.415, 2.077065
1119.897, 1.940131
1120.380, 1.858952
1120.862, 1.887723
1121.344, 1.818161
1121.826, 1.503618
1122.308, 1.407247
1122.790, 1.791107
1123.272, 2.285589
1123.754, 2.575935
1124.236, 2.672744
1124.719, 2.568180
1125.201, 2.162948
1125.683, 2.123191
1126.165, 2.582406
1126.647, 2.870089
1127.129, 2.762355
1127.611, 2.676739
1128.093, 2.913567
1128.576, 3.318169
1129.058, 3.621925
1129.540, 3.822335
1130.022, 3.829332
1130.504, 3.606412
1130.986, 3.669041
1131.468, 4.126260
1131.950, 4.519781
1132.432, 4.621918
1132.915, 4.616819
1133.397, 4.740942
1133.879, 4.918909
1134.361, 4.800134
1134.843, 4.431337
1135.325, 4.464633
1135.807, 4.908647
1136.289, 5.075973
1136.771, 4.756238
1137.254, 4.423491
1137.736, 4.470498
1138.218, 4.657421
1138.700, 4.541364
1139.182, 4.195313
1139.664, 3.886022
1140.146, 3.629198
1140.628, 3.482462
1141.111, 3.433511
1141.593, 3.341704
1142.075, 3.137650
1142.557, 2.891946
1143.039, 2.663896
1143.521, 2.446041
1144.003, 2.337275
1144.485, 2.265924
1144.968, 1.963765
1145.450, 1.518877
1145.932, 1.306580
1146.414, 1.431674
1146.896, 1.665211
1147.378, 1.877315
1147.860, 2.067980
1148.342, 2.251639
1148.824, 2.404902
1149.307, 2.477966
1149.789, 2.492340
1150.271, 2.491538
1150.753, 2.516620
1151.235, 2.628499
1151.717, 2.881265
1152.199, 3.127168
1152.681, 3.311158
1153.163, 3.420010
1153.646, 3.364414
1154.128, 3.294788
1154.610, 3.342568
1155.092, 3.524058
1155.574, 3.845575
1156.056, 4.336943
1156.538, 4.755394
1157.020, 5.050403
1157.503, 5.235383
1157.985, 5.218396
1158.467, 5.182000
1158.949, 5.264720
1159.431, 5.403713
1159.913, 5.540656
1160.395, 5.650489
1160.877, 5.597075
1161.359, 5.272406
1161.842, 4.984665
1162.324, 4.713194
1162.806, 4.518238
1163.288, 4.493727
1163.770, 4.447492
1164.252, 4.201084
1164.734, 3.859761
1165.216, 3.669903
1165.698, 3.650314
1166.181, 3.533005
1166.663, 3.296664
1167.145, 3.045242
1167.627, 2.801490
1168.109, 2.505912
1168.591, 2.102993
1169.073, 1.779985
1169.555, 1.779445
1170.037, 1.996943
1170.520, 2.021741
1171.002, 1.861218
1171.484, 1.812648
1171.966, 1.888498
1172.448, 2.082363
1172.930, 2.387596
1173.412, 2.513670
1173.894, 2.248482
1174.377, 1.867181
1174.859, 1.794681
1175.341, 1.920266
1175.823, 1.967336
1176.305, 1.943614
1176.787, 1.859908
1177.269, 1.727662
1177.751, 1.581286
1178.234, 1.435680
1178.716, 1.279049
1179.198, 1.096768
1179.680, 0.9277480
1180.162, 0.7936410
1180.644, 0.6753540
1181.126, 0.5845240
1181.608, 0.5074240
1182.090, 0.4010710
1182.573, 0.2854140
1183.055, 0.2480040
1183.537, 0.3222480
1184.019, 0.4712330
1184.501, 0.7586000
1184.983, 1.010756
1185.465, 1.219484
1185.947, 1.267776
1186.429, 0.8966980
1186.912, 0.3669320
1187.394, 0.1628030
1187.876, 0.3219430
1188.358, 0.4614930
1188.840, 0.5285650
1189.322, 0.5606750
1189.804, 0.5599020
1190.286, 0.5252840
1190.769, 0.4444550
1191.251, 0.3420770
1191.733, 0.2046840
1192.215, 8.0209002E-02
1192.697, 0.1152360
1193.179, 0.3440120
1193.661, 0.4282220
1194.143, 0.3262980
1194.625, 0.2114530
1195.108, 6.8144999E-02
1195.590, 0.1198010
1196.072, 0.5249040
1196.554, 0.9544340
1197.036, 1.027172
1197.518, 0.8346460
1198.000, 0.6053810
1198.482, 0.3675610
1198.964, 0.3297030
1199.447, 0.4575090
1199.929, 0.5038410
1200.411, 0.4189440
1200.893, 0.3395610
1201.375, 0.3437770
1201.857, 0.4108950
1202.339, 0.5960250
1202.821, 0.7568450
1203.304, 0.5560620
1203.786, 0.2236690
1204.268, 0.2357820
1204.750, 0.4692170
1205.232, 0.4896510
1205.714, 0.2058060
1206.196, 4.2629998E-02
1206.678, 7.3182002E-02
1207.161, 7.1565002E-02
1207.643, 0.2148290
1208.125, 0.2935390
1208.607, 0.1074460
1209.089, 0.1730450
1209.571, 0.4225880
1210.053, 0.5972870
1210.535, 0.6399400
1211.017, 0.5390090
1211.500, 0.3695050
1211.982, 0.1141190
1212.464, 0.2679530
1212.946, 0.3539310
1213.428, 0.8397990
1213.910, 0.7680260
1214.392, 0.5157000
1214.874, 0.4065160
1215.356, 0.4167460
1215.839, 0.4835090
1216.321, 0.6155750
1216.803, 0.7235900
1217.285, 0.8094290
1217.767, 0.8629720
1218.249, 0.8866000
1218.731, 0.8179150
1219.213, 0.6161720
1219.696, 0.4234090
1220.178, 0.4026830
1220.660, 0.4863860
1221.142, 0.5408120
1221.624, 0.5616090
1222.106, 0.5036270
1222.588, 0.4005060
1223.070, 0.4103880
1223.552, 0.5205210
1224.035, 0.4869770
1224.517, 0.1888930
1224.999, 6.5568998E-02
1225.481, 5.7964001E-02
1225.963, 0.2535350
1226.445, 0.2275630
1226.927, 0.1416570
1227.409, 0.1674320
1227.891, 0.2594160
1228.374, 0.3333830
1228.856, 0.3739060
1229.338, 0.3742880
1229.820, 0.2744100
1230.302, 0.3126470
1230.784, 0.7711810
1231.266, 1.060714
1231.748, 0.8490910
1232.231, 0.5763650
1232.713, 0.5101010
1233.195, 0.5518160
1233.677, 0.5892180
1234.159, 0.6111860
1234.641, 0.4964520
1235.123, 0.1902170
1235.605, 1.5680000E-02
1236.088, 4.3489998E-03
1236.570, 3.5362002E-02
1237.052, 0.1707280
1237.534, 0.1308810
1238.016, 0.2861220
1238.498, 0.7433990
1238.980, 0.7150500
1239.462, 0.4190010
1239.944, 0.4628860
1240.427, 0.7303090
1240.909, 0.9239980
1241.391, 1.006098
1241.873, 0.9390380
1242.355, 0.7402250
1242.837, 0.5219560
1243.319, 0.3280650
1243.801, 0.2371190
1244.283, 0.3550750
1244.766, 0.5419860
1245.248, 0.7859130
1245.730, 0.9598520
1246.212, 0.8849660
1246.694, 0.6663910
1247.176, 0.4859810
1247.658, 0.3759110
1248.140, 0.3927410
1248.622, 0.5704800
1249.105, 0.6801640
1249.587, 0.6011430
1250.069, 0.6092230
1250.551, 0.7785630
1251.033, 0.8718900
1251.515, 0.7049520
1251.997, 0.4418820
1252.479, 0.3295070
1252.962, 0.3401080
1253.444, 0.3227280
1253.926, 0.2775100
1254.408, 0.2152260
1254.890, 0.1370650
1255.372, 1.2832000E-02
1255.854, 0.1590800
1256.336, 0.1539110
1256.818, 0.1393780
1257.301, 0.4928770
1257.783, 0.6769360
1258.265, 0.7543510
1258.747, 0.7653060
1259.229, 0.7545460
1259.711, 0.8127980
1260.193, 0.8846400
1260.675, 0.8679030
1261.157, 0.7418200
1261.640, 0.5002940
1262.122, 6.4337000E-02
1262.604, 0.1351610
1263.086, 5.4226998E-02
1263.568, 0.2696270
1264.050, 0.4096860
1264.532, 0.5258370
1265.014, 0.6382330
1265.497, 0.7570720
1265.979, 0.9406300
1266.461, 1.125800
1266.943, 0.9857900
1267.425, 0.4162710
1267.907, 0.4107500
1268.389, 1.052417
1268.871, 1.311659
1269.354, 1.001135
1269.836, 0.6559640
1270.318, 0.5174800
1270.800, 0.5415000
1271.282, 0.6678550
1271.764, 0.8084130
1272.246, 0.6852480
1272.728, 0.4210030
1273.210, 0.3084830
1273.693, 0.3135250
1274.175, 0.3589440
1274.657, 0.3658620
1275.139, 0.4907290
1275.621, 0.6872520
1276.103, 0.7792300
1276.585, 0.5927000
1277.067, 0.4644890
1277.549, 0.5743860
1278.032, 0.6796660
1278.514, 0.6665310
1278.996, 0.5974860
1279.478, 0.5355590
1279.960, 0.4514790
1280.442, 0.2738310
1280.924, 1.6620999E-02
1281.406, 5.3812999E-02
1281.889, 8.7076001E-02
1282.371, 0.2236940
1282.853, 0.3393130
1283.335, 0.5559880
1283.817, 0.9081370
1284.299, 1.102788
1284.781, 1.102803
1285.263, 0.8856340
1285.745, 0.5123560
1286.228, 0.0000000E+00
##END=



