##NAMES=Kryzhanovskite
##RRUFFID=R130691
##IDEAL CHEMISTRY=(Fe^3+^,Mn^2+^)_3_(PO_4_)_2_(OH,H_2_O)_3_
##LOCALITY=Rapid Creek, Dawson Mining District, Yukon Territory, Canada
##OWNER=RRUFF
##SOURCE=Rob Lavinsky
##DESCRIPTION=Euhedral reddish brown crystals
##STATUS=The identification of this mineral is confirmed by single-crystal X-ray diffraction and chemical analysis.
##URL=rruff.info/R130691
##MEASURED CHEMISTRY=(Fe^3+^_1.69_Mg_1.18_Mn_0.09_)_Σ=2.96_(PO_4_)_2_(OH)_1.61_·1.35H_2_O
90.71747, 0.0000000E+00
91.19958, 1.579346
91.68170, 6.318634
92.16382, 13.02466
92.64594, 21.96646
93.12805, 28.24850
93.61017, 28.61893
94.09229, 25.52591
94.57440, 19.63373
95.05651, 15.46680
95.53863, 14.50641
96.02074, 15.09497
96.50286, 15.37369
96.98498, 14.38037
97.46709, 11.40756
97.94921, 9.119995
98.43133, 8.333374
98.91344, 7.412598
99.39556, 5.960999
99.87768, 4.731476
100.3598, 5.883270
100.8419, 8.366180
101.3240, 11.30981
101.8061, 12.76941
102.2883, 12.14725
102.7704, 11.36380
103.2525, 11.31253
103.7346, 12.05853
104.2167, 12.82849
104.6988, 13.10541
105.1810, 12.96112
105.6631, 12.63327
106.1452, 12.43790
106.6273, 12.26926
107.1094, 11.33228
107.5915, 9.195984
108.0737, 6.756378
108.5558, 4.056122
109.0379, 1.313049
109.5200, 0.9897770
110.0021, 2.376404
110.4842, 2.702362
110.9664, 2.836090
111.4485, 2.917847
111.9306, 2.729706
112.4127, 1.985016
112.8948, 0.7387700
113.3769, 0.6111450
113.8591, 1.481720
114.3412, 1.576324
114.8233, 1.654694
115.3054, 1.612000
115.7875, 1.594147
116.2696, 1.729156
116.7517, 2.059692
117.2339, 2.569397
117.7160, 3.222107
118.1981, 3.861450
118.6802, 4.862885
119.1623, 6.458954
119.6444, 8.519165
120.1266, 10.76804
120.6087, 13.26611
121.0908, 15.68124
121.5729, 17.41843
122.0550, 18.13577
122.5371, 18.75305
123.0193, 20.13159
123.5014, 22.36102
123.9835, 24.58752
124.4656, 26.21030
124.9477, 27.67831
125.4298, 29.45294
125.9120, 31.78500
126.3941, 34.37546
126.8762, 36.46469
127.3583, 37.62250
127.8404, 39.01913
128.3225, 41.29825
128.8047, 43.93835
129.2868, 46.21158
129.7689, 47.61118
130.2510, 48.20941
130.7331, 49.05984
131.2152, 50.54968
131.6974, 51.94781
132.1795, 53.20163
132.6616, 54.22995
133.1437, 54.86813
133.6258, 54.91382
134.1079, 54.20514
134.5901, 54.00470
135.0722, 54.65500
135.5543, 55.43430
136.0364, 55.84241
136.5185, 55.86646
137.0006, 55.95172
137.4828, 56.69376
137.9649, 58.30847
138.4470, 59.42349
138.9291, 59.66428
139.4112, 59.48618
139.8933, 59.43988
140.3755, 59.67804
140.8576, 59.91833
141.3397, 59.75211
141.8218, 59.22400
142.3039, 58.64252
142.7860, 58.30627
143.2681, 58.05914
143.7503, 57.24625
144.2324, 55.26404
144.7145, 53.20309
145.1966, 52.04208
145.6787, 51.79269
146.1608, 51.81891
146.6430, 51.69571
147.1251, 51.43701
147.6072, 50.88556
148.0893, 49.46988
148.5714, 48.50369
149.0535, 48.05975
149.5357, 48.23831
150.0178, 48.78302
150.4999, 49.40567
150.9820, 50.34418
151.4641, 50.79761
151.9462, 50.48300
152.4284, 49.87430
152.9105, 49.26923
153.3926, 48.79376
153.8747, 48.46359
154.3568, 48.33878
154.8389, 48.90707
155.3211, 49.09027
155.8032, 48.21832
156.2853, 47.10733
156.7674, 46.88824
157.2495, 48.17575
157.7316, 50.47012
158.2138, 51.63913
158.6959, 50.99533
159.1780, 50.20044
159.6601, 49.47101
160.1422, 48.86789
160.6243, 48.52789
161.1065, 48.57199
161.5886, 48.95242
162.0707, 49.34592
162.5528, 50.03311
163.0349, 50.47510
163.5170, 50.16760
163.9991, 49.20810
164.4813, 48.46082
164.9634, 48.57111
165.4455, 49.23642
165.9276, 49.69565
166.4097, 49.80566
166.8918, 49.70563
167.3740, 49.38712
167.8561, 48.78629
168.3382, 48.51685
168.8203, 49.40588
169.3024, 50.72726
169.7845, 51.58731
170.2667, 51.48392
170.7488, 50.86176
171.2309, 50.66599
171.7130, 50.87903
172.1951, 51.42252
172.6772, 52.42767
173.1594, 53.66406
173.6415, 54.82535
174.1236, 55.73703
174.6057, 56.42194
175.0878, 57.00552
175.5699, 57.29077
176.0521, 57.67709
176.5342, 58.33749
177.0163, 59.16272
177.4984, 59.95230
177.9805, 60.57462
178.4626, 61.02905
178.9448, 61.52548
179.4269, 62.03677
179.9090, 62.60373
180.3911, 63.25540
180.8732, 63.97531
181.3553, 64.72409
181.8375, 65.47556
182.3196, 66.23355
182.8017, 66.93930
183.2838, 67.69708
183.7659, 68.32806
184.2480, 68.58890
184.7301, 68.56354
185.2123, 68.69083
185.6944, 69.46915
186.1765, 71.03809
186.6586, 71.87354
187.1407, 71.14478
187.6228, 70.29736
188.1050, 70.44211
188.5871, 71.68457
189.0692, 73.36014
189.5513, 75.03076
190.0334, 76.66080
190.5155, 77.74503
190.9977, 77.50757
191.4798, 77.02167
191.9619, 77.67645
192.4440, 79.79935
192.9261, 82.16803
193.4082, 83.67908
193.8904, 84.51309
194.3725, 84.97726
194.8546, 85.05008
195.3367, 84.83176
195.8188, 84.54489
196.3009, 84.26874
196.7831, 83.76199
197.2652, 82.91174
197.7473, 81.73083
198.2294, 80.20490
198.7115, 78.11005
199.1936, 75.59906
199.6758, 73.43689
200.1579, 72.11639
200.6400, 70.43475
201.1221, 67.76398
201.6042, 64.29333
202.0863, 60.51703
202.5685, 56.58884
203.0506, 52.53766
203.5327, 49.00620
204.0148, 46.41989
204.4969, 43.98425
204.9790, 41.50732
205.4612, 38.95877
205.9433, 36.29611
206.4254, 33.45001
206.9075, 30.40070
207.3896, 27.55704
207.8717, 25.00204
208.3539, 22.58777
208.8360, 20.19299
209.3181, 17.89609
209.8002, 15.89221
210.2823, 14.36087
210.7644, 13.33838
211.2466, 12.56635
211.7287, 12.38599
212.2108, 12.11798
212.6929, 11.48834
213.1750, 10.51910
213.6571, 9.357239
214.1393, 8.110657
214.6214, 6.740601
215.1035, 5.573151
215.5856, 4.562775
216.0677, 3.738220
216.5498, 3.204865
217.0320, 2.907532
217.5141, 2.611084
217.9962, 2.079865
218.4783, 1.266754
218.9604, 0.7272640
219.4425, 0.8399960
219.9247, 0.8860170
220.4068, 0.1800840
220.8889, 1.183838
221.3710, 2.293976
221.8531, 2.267487
222.3352, 1.009735
222.8174, 0.2191770
223.2995, 0.1166690
223.7816, 0.3091130
224.2637, 0.6053160
224.7458, 0.9759830
225.2279, 1.262390
225.7100, 1.256927
226.1922, 1.021362
226.6743, 1.036072
227.1564, 1.679077
227.6385, 2.368439
228.1206, 2.508545
228.6027, 2.059692
229.0849, 1.482300
229.5670, 1.003662
230.0491, 0.6567690
230.5312, 0.5322880
231.0133, 0.8190310
231.4954, 1.238953
231.9776, 1.511017
232.4597, 1.634918
232.9418, 1.611145
233.4239, 1.426392
233.9060, 1.087036
234.3881, 0.5483090
234.8703, 0.4121090
235.3524, 1.399872
235.8345, 1.744781
236.3166, 1.248413
236.7987, 0.9407650
237.2808, 1.665649
237.7630, 2.778748
238.2451, 3.561035
238.7272, 3.692230
239.2093, 3.541077
239.6914, 3.683258
240.1735, 4.172089
240.6557, 4.784241
241.1378, 5.447540
241.6199, 6.176941
242.1020, 6.979248
242.5841, 7.840515
243.0662, 8.821930
243.5484, 10.06302
244.0305, 11.65912
244.5126, 13.25903
244.9947, 15.00247
245.4768, 16.59271
245.9589, 17.65811
246.4410, 18.04929
246.9232, 18.18951
247.4053, 18.79370
247.8874, 19.94479
248.3695, 21.40906
248.8516, 23.54388
249.3337, 25.69870
249.8159, 27.24612
250.2980, 28.01706
250.7801, 28.52997
251.2622, 29.74603
251.7443, 32.17990
252.2264, 34.12476
252.7086, 34.89923
253.1907, 35.54440
253.6728, 36.93582
254.1549, 39.23761
254.6370, 41.81116
255.1191, 43.65088
255.6013, 44.29892
256.0834, 45.16064
256.5655, 46.10538
257.0476, 47.33206
257.5297, 49.11783
258.0118, 51.43991
258.4940, 53.91629
258.9761, 56.01761
259.4582, 57.54965
259.9403, 59.19403
260.4224, 61.08990
260.9045, 62.98590
261.3867, 64.75818
261.8688, 66.38272
262.3509, 67.85898
262.8330, 69.18640
263.3151, 70.33661
263.7972, 71.42953
264.2794, 71.97223
264.7615, 72.86539
265.2436, 74.80209
265.7257, 77.66312
266.2078, 80.74268
266.6899, 83.36475
267.1721, 85.45551
267.6542, 87.46118
268.1363, 89.20038
268.6184, 91.02908
269.1005, 93.25290
269.5826, 95.76050
270.0648, 98.10184
270.5469, 99.84482
271.0290, 100.9391
271.5111, 102.7095
271.9932, 105.5967
272.4753, 108.5663
272.9575, 111.2215
273.4396, 113.5959
273.9217, 115.8486
274.4038, 118.0728
274.8859, 120.2765
275.3680, 122.5077
275.8501, 124.7369
276.3322, 127.0252
276.8144, 129.3471
277.2965, 131.7536
277.7786, 134.3751
278.2607, 137.3206
278.7428, 140.4406
279.2249, 143.2747
279.7071, 145.8729
280.1892, 148.3488
280.6713, 150.5373
281.1534, 152.5851
281.6355, 154.7969
282.1176, 157.3101
282.5998, 160.0282
283.0819, 162.6992
283.5640, 165.4776
284.0461, 168.0008
284.5282, 169.9190
285.0103, 171.5671
285.4925, 173.5422
285.9746, 176.1039
286.4567, 178.8553
286.9388, 181.0834
287.4209, 182.6482
287.9030, 184.1842
288.3852, 185.7791
288.8673, 187.3355
289.3494, 188.8840
289.8315, 190.4672
290.3136, 191.6793
290.7957, 191.9051
291.2779, 191.0029
291.7600, 190.0749
292.2421, 189.3851
292.7242, 188.6704
293.2063, 187.5504
293.6884, 185.9784
294.1706, 184.4254
294.6527, 183.4488
295.1348, 183.0212
295.6169, 181.9099
296.0990, 179.8828
296.5811, 177.3905
297.0633, 174.5699
297.5454, 171.4519
298.0275, 168.3498
298.5096, 165.5823
298.9917, 163.1228
299.4738, 160.5117
299.9560, 157.7321
300.4381, 154.8893
300.9202, 151.8711
301.4023, 148.7317
301.8844, 145.7888
302.3665, 143.3115
302.8487, 141.0218
303.3308, 138.0850
303.8129, 134.1275
304.2950, 130.2135
304.7771, 126.8365
305.2592, 123.8819
305.7414, 121.0542
306.2235, 118.2791
306.7056, 115.4773
307.1877, 112.5169
307.6698, 109.3691
308.1519, 106.2782
308.6341, 103.2328
309.1162, 100.2671
309.5983, 97.59467
310.0804, 95.36426
310.5625, 93.18828
311.0446, 90.47742
311.5268, 87.20686
312.0089, 84.16206
312.4910, 81.57602
312.9731, 79.26106
313.4552, 77.02759
313.9373, 74.86078
314.4195, 72.65677
314.9016, 70.25787
315.3837, 67.68051
315.8658, 65.27588
316.3479, 63.10725
316.8300, 61.08214
317.3121, 59.13213
317.7943, 57.24028
318.2764, 55.45674
318.7585, 53.85997
319.2406, 52.39906
319.7227, 50.78705
320.2048, 49.08449
320.6870, 47.14604
321.1691, 44.55875
321.6512, 41.60239
322.1333, 39.30789
322.6154, 38.35464
323.0975, 38.14720
323.5797, 37.13391
324.0618, 34.88112
324.5439, 32.90733
325.0260, 32.10588
325.5081, 31.89771
325.9902, 31.12383
326.4724, 29.36140
326.9545, 27.15431
327.4366, 25.27136
327.9187, 23.69116
328.4008, 22.40845
328.8829, 21.71548
329.3651, 21.19095
329.8472, 20.31737
330.3293, 19.00465
330.8114, 17.53555
331.2935, 16.08621
331.7756, 14.66248
332.2578, 13.68408
332.7399, 13.65810
333.2220, 13.71143
333.7041, 13.11018
334.1862, 11.90672
334.6683, 10.71378
335.1505, 9.972931
335.6326, 9.618652
336.1147, 9.134720
336.5968, 8.400360
337.0789, 7.675674
337.5610, 7.037369
338.0432, 6.489838
338.5253, 6.111038
339.0074, 5.994186
339.4895, 5.939484
339.9716, 5.347076
340.4537, 3.874527
340.9359, 2.581375
341.4180, 1.648834
341.9001, 1.010635
342.3822, 0.6587220
342.8643, 0.5936280
343.3464, 0.6286470
343.8286, 0.5022740
344.3107, 0.1298980
344.7928, 0.1716610
345.2749, 0.4558110
345.7570, 0.6294710
346.2391, 0.5167540
346.7213, 0.1582640
347.2034, 0.1231380
347.6855, 7.4769999E-03
348.1676, 0.5363160
348.6497, 0.8427120
349.1318, 0.6678470
349.6140, 0.5442200
350.0961, 0.7809140
350.5782, 1.249939
351.0603, 1.658340
351.5424, 1.844650
352.0245, 1.814636
352.5067, 1.579834
352.9888, 0.6968540
353.4709, 0.1570740
353.9530, 0.4929050
354.4351, 1.071243
354.9172, 1.017532
355.3994, 4.9500000E-02
355.8815, 1.204208
356.3636, 1.671860
356.8457, 0.9282680
357.3278, 0.1957700
357.8099, 0.7027280
358.2920, 1.463806
358.7741, 1.864426
359.2563, 1.900040
359.7384, 1.693329
360.2205, 1.331207
360.7026, 0.7790530
361.1847, 0.4106750
361.6668, 0.2562870
362.1490, 0.2396850
362.6311, 0.4572750
363.1132, 0.7876430
363.5953, 1.001343
364.0774, 0.9497990
364.5595, 0.7069700
365.0417, 0.5998230
365.5238, 0.8972020
366.0059, 0.9471440
366.4880, 0.5633390
366.9701, 3.3447001E-02
367.4522, 0.6995390
367.9344, 1.367706
368.4165, 1.932266
368.8986, 2.201431
369.3807, 2.058624
369.8628, 1.930740
370.3449, 1.853073
370.8271, 1.774719
371.3092, 1.675156
371.7913, 1.549438
372.2734, 1.384811
372.7555, 1.130081
373.2376, 0.7935030
373.7198, 0.6576690
374.2019, 0.7411350
374.6840, 1.032120
375.1661, 1.858704
375.6482, 2.804077
376.1303, 3.144806
376.6125, 2.405273
377.0946, 1.164917
377.5767, 0.7729950
378.0588, 1.538086
378.5409, 2.283813
379.0230, 2.762482
379.5052, 3.051956
379.9873, 3.183823
380.4694, 3.165802
380.9515, 3.028214
381.4336, 2.671417
381.9157, 2.105438
382.3979, 1.946991
382.8800, 2.587067
383.3621, 3.291260
383.8442, 3.501404
384.3263, 3.336212
384.8084, 3.242462
385.2906, 3.458862
385.7727, 3.912521
386.2548, 4.613556
386.7369, 5.776382
387.2190, 6.392578
387.7011, 5.089066
388.1833, 3.083740
388.6654, 2.194016
389.1475, 3.162476
389.6296, 4.576370
390.1117, 5.256775
390.5938, 5.273880
391.0760, 5.137207
391.5581, 4.942261
392.0402, 4.747284
392.5223, 4.625626
393.0044, 4.575684
393.4865, 4.577698
393.9687, 4.521088
394.4508, 4.545349
394.9329, 5.008636
395.4150, 6.016174
395.8971, 6.906677
396.3792, 6.987503
396.8614, 6.336060
397.3435, 6.023346
397.8256, 6.284973
398.3077, 6.722015
398.7898, 7.193710
399.2719, 7.643555
399.7540, 7.882477
400.2361, 7.777039
400.7183, 7.480789
401.2004, 7.435501
401.6825, 7.778793
402.1646, 8.062424
402.6467, 8.034012
403.1288, 7.982285
403.6110, 8.371048
404.0931, 9.284729
404.5752, 10.22705
405.0573, 10.55748
405.5394, 10.06760
406.0215, 9.802353
406.5037, 9.854233
406.9858, 10.06485
407.4679, 10.37849
407.9500, 10.74954
408.4321, 11.10463
408.9142, 11.39658
409.3964, 11.71013
409.8785, 12.39821
410.3606, 13.96434
410.8427, 15.32906
411.3248, 16.15735
411.8069, 16.79243
412.2891, 17.61798
412.7712, 18.76866
413.2533, 20.09473
413.7354, 21.27866
414.2175, 22.20546
414.6996, 23.27849
415.1818, 24.67293
415.6639, 26.00073
416.1460, 27.16306
416.6281, 28.18149
417.1102, 29.08524
417.5923, 29.89378
418.0745, 30.62782
418.5566, 31.26845
419.0387, 31.51959
419.5208, 32.29922
420.0029, 34.58853
420.4850, 37.09875
420.9672, 38.49907
421.4493, 38.45671
421.9314, 38.08418
422.4135, 38.50647
422.8956, 39.67853
423.3777, 40.81126
423.8599, 41.75925
424.3420, 42.76074
424.8241, 44.15991
425.3062, 45.78883
425.7883, 47.07962
426.2704, 47.63210
426.7526, 47.77637
427.2347, 47.98039
427.7168, 48.25330
428.1989, 48.47649
428.6810, 48.48215
429.1631, 48.45850
429.6453, 48.81088
430.1274, 49.70906
430.6095, 50.59656
431.0916, 51.47476
431.5737, 52.10669
432.0558, 51.79845
432.5380, 50.27470
433.0201, 48.58444
433.5022, 48.09375
433.9843, 49.04375
434.4664, 49.07080
434.9485, 47.59406
435.4307, 45.58884
435.9128, 43.51486
436.3949, 41.45483
436.8770, 39.53879
437.3591, 37.86378
437.8412, 36.34683
438.3234, 34.70186
438.8055, 33.04768
439.2876, 31.09787
439.7697, 28.41470
440.2518, 25.67191
440.7339, 23.55814
441.2160, 22.19427
441.6982, 21.18213
442.1803, 20.10503
442.6624, 18.95576
443.1445, 17.78616
443.6266, 16.39122
444.1087, 15.19844
444.5909, 14.50354
445.0730, 14.07904
445.5551, 13.54053
446.0372, 12.69241
446.5193, 11.65082
447.0014, 10.63962
447.4836, 9.610962
447.9657, 8.762054
448.4478, 8.128967
448.9299, 7.670029
449.4120, 7.438950
449.8941, 7.400955
450.3763, 7.417862
450.8584, 7.310944
451.3405, 7.071960
451.8226, 6.762772
452.3047, 6.240738
452.7868, 5.971268
453.2690, 6.540802
453.7511, 7.473114
454.2332, 8.066101
454.7153, 8.038696
455.1974, 7.896545
455.6795, 8.070480
456.1617, 8.478073
456.6438, 8.808655
457.1259, 8.979965
457.6080, 9.084442
458.0901, 9.229477
458.5722, 9.415543
459.0544, 9.592194
459.5365, 9.619278
460.0186, 9.695419
460.5007, 10.04166
460.9828, 10.61354
461.4649, 11.19261
461.9471, 11.68140
462.4292, 12.08952
462.9113, 12.46446
463.3934, 12.81142
463.8755, 13.12015
464.3576, 13.48856
464.8398, 13.76558
465.3219, 13.71179
465.8040, 13.32401
466.2861, 12.90451
466.7682, 12.78484
467.2503, 12.98933
467.7325, 13.24669
468.2146, 13.89748
468.6967, 14.23105
469.1788, 13.69608
469.6609, 12.81805
470.1430, 12.41154
470.6252, 12.84642
471.1073, 13.70224
471.5894, 14.20012
472.0715, 14.20381
472.5536, 14.45900
473.0357, 15.60561
473.5179, 16.56364
474.0000, 16.50482
474.4821, 15.63477
474.9642, 14.89807
475.4463, 14.95071
475.9284, 15.48158
476.4106, 15.84122
476.8927, 16.01857
477.3748, 16.07249
477.8569, 15.93475
478.3390, 15.73581
478.8211, 15.70171
479.3033, 15.89262
479.7854, 16.05511
480.2675, 15.96307
480.7496, 15.78070
481.2317, 15.87279
481.7138, 16.31581
482.1959, 16.73830
482.6780, 16.80719
483.1602, 16.51640
483.6423, 16.19971
484.1244, 15.93626
484.6065, 15.56743
485.0886, 14.89207
485.5707, 14.09518
486.0529, 13.52658
486.5350, 13.31294
487.0171, 13.25853
487.4992, 13.03989
487.9813, 12.56573
488.4634, 12.17256
488.9456, 11.89153
489.4277, 11.64983
489.9098, 11.38699
490.3919, 11.13684
490.8740, 10.99620
491.3561, 11.03999
491.8383, 11.18497
492.3204, 11.25063
492.8025, 11.34023
493.2846, 11.06091
493.7667, 9.868195
494.2488, 8.611710
494.7310, 7.835205
495.2131, 7.571136
495.6952, 7.548279
496.1773, 7.769348
496.6594, 8.078232
497.1415, 8.032684
497.6237, 7.589783
498.1058, 6.947723
498.5879, 6.107925
499.0700, 5.164169
499.5521, 4.280899
500.0342, 3.414291
500.5164, 2.730576
500.9985, 2.370056
501.4806, 2.227493
501.9627, 2.147949
502.4448, 2.102875
502.9269, 2.010101
503.4091, 1.785828
503.8912, 1.421066
504.3733, 1.054810
504.8554, 0.4267430
505.3375, 8.3893001E-02
505.8196, 0.6857450
506.3018, 1.557922
506.7839, 1.561630
507.2660, 0.3167570
507.7481, 1.430756
508.2302, 2.538315
508.7123, 2.863037
509.1945, 3.069611
509.6766, 3.041412
510.1587, 3.011703
510.6408, 3.084869
511.1229, 3.220764
511.6050, 3.344421
512.0872, 3.430679
512.5693, 3.449707
513.0514, 3.295364
513.5335, 2.926117
514.0156, 2.707886
514.4977, 2.793671
514.9799, 2.988892
515.4620, 3.209457
515.9441, 3.423035
516.4262, 3.436111
516.9083, 3.169083
517.3904, 2.657455
517.8726, 1.836868
518.3547, 0.7384030
518.8368, 0.2496800
519.3189, 0.9296720
519.8010, 1.408554
520.2831, 1.877106
520.7653, 2.251541
521.2474, 2.849457
521.7295, 3.947144
522.2116, 5.132019
522.6937, 5.943848
523.1758, 6.436279
523.6580, 7.047958
524.1401, 8.087143
524.6222, 9.506882
525.1043, 11.11070
525.5864, 13.12210
526.0685, 14.98346
526.5507, 16.63225
527.0328, 18.13983
527.5149, 19.53859
527.9970, 20.84633
528.4791, 22.07861
528.9612, 23.13945
529.4434, 24.11714
529.9255, 25.66290
530.4076, 28.08734
530.8897, 30.35074
531.3718, 31.87106
531.8539, 33.06076
532.3361, 34.29292
532.8182, 35.60493
533.3003, 37.06969
533.7824, 38.81970
534.2645, 40.74234
534.7466, 42.69547
535.2288, 44.68199
535.7109, 46.38086
536.1930, 47.41338
536.6751, 47.93066
537.1572, 48.87730
537.6393, 50.48720
538.1215, 52.19861
538.6036, 54.14854
539.0857, 55.98425
539.5678, 57.12546
540.0499, 57.52335
540.5320, 57.81473
541.0142, 58.70320
541.4963, 60.21701
541.9784, 61.36639
542.4604, 61.90492
542.9426, 62.34422
543.4247, 62.69690
543.9068, 63.04639
544.3889, 63.51709
544.8710, 64.13252
545.3531, 64.71677
545.8353, 64.94199
546.3174, 64.86931
546.7995, 65.33481
547.2816, 66.72682
547.7637, 67.92151
548.2458, 67.84306
548.7280, 67.17894
549.2101, 67.08142
549.6922, 68.01242
550.1743, 68.94527
550.6564, 69.23640
551.1385, 69.06577
551.6207, 68.78104
552.1028, 68.45287
552.5849, 68.06992
553.0670, 67.62164
553.5491, 67.10536
554.0313, 66.54349
554.5134, 65.72597
554.9955, 65.12254
555.4776, 65.10008
555.9597, 65.25189
556.4418, 65.05550
556.9240, 64.39090
557.4061, 63.57243
557.8882, 62.99840
558.3703, 62.69528
558.8524, 62.01860
559.3345, 60.74017
559.8167, 59.40913
560.2988, 58.20749
560.7809, 57.06229
561.2630, 55.87231
561.7451, 54.61380
562.2272, 53.32994
562.7094, 51.90474
563.1915, 50.46872
563.6736, 49.55630
564.1557, 49.28766
564.6378, 49.17175
565.1199, 48.81100
565.6021, 48.25389
566.0842, 48.01865
566.5663, 48.66530
567.0484, 48.93275
567.5305, 48.05630
568.0126, 46.73737
568.4948, 45.90604
568.9769, 45.68842
569.4590, 45.50117
569.9411, 44.78529
570.4232, 43.57913
570.9053, 42.62801
571.3875, 42.00432
571.8696, 41.57336
572.3517, 41.17757
572.8338, 41.00758
573.3159, 41.41896
573.7980, 42.37776
574.2802, 43.24892
574.7623, 43.37660
575.2444, 42.96455
575.7265, 42.80231
576.2086, 42.91306
576.6907, 43.21664
577.1729, 43.66818
577.6550, 44.26534
578.1371, 44.95760
578.6192, 45.71400
579.1013, 46.70410
579.5834, 48.23727
580.0656, 49.89124
580.5477, 51.23883
581.0298, 52.23442
581.5119, 52.84883
581.9940, 52.94717
582.4761, 52.87549
582.9583, 53.82861
583.4404, 56.67470
583.9225, 59.26860
584.4046, 61.74905
584.8867, 63.84566
585.3688, 65.08191
585.8510, 65.74615
586.3331, 66.70409
586.8152, 68.55850
587.2973, 70.92722
587.7794, 72.90085
588.2615, 74.41307
588.7437, 76.01784
589.2258, 77.96895
589.7079, 79.92830
590.1900, 81.45393
590.6721, 82.64003
591.1542, 84.10495
591.6364, 86.31122
592.1185, 88.63274
592.6006, 90.51804
593.0827, 92.05927
593.5648, 93.54295
594.0469, 95.06343
594.5291, 96.62807
595.0112, 98.25732
595.4933, 99.96907
595.9754, 101.6816
596.4575, 103.6387
596.9396, 105.3297
597.4218, 106.5064
597.9039, 107.3867
598.3860, 108.2461
598.8681, 109.1860
599.3502, 110.1048
599.8323, 110.9083
600.3145, 111.5998
600.7966, 112.1168
601.2787, 112.4129
601.7608, 112.5865
602.2429, 112.7056
602.7250, 112.7719
603.2072, 112.7758
603.6893, 112.6634
604.1714, 112.5898
604.6535, 112.8693
605.1356, 113.1071
605.6177, 112.6128
606.0999, 111.3598
606.5820, 110.0105
607.0641, 109.0468
607.5462, 108.3584
608.0283, 107.4930
608.5104, 106.3165
608.9926, 105.2287
609.4747, 104.2845
609.9568, 103.4118
610.4389, 102.7020
610.9210, 102.0247
611.4031, 100.9980
611.8853, 99.30972
612.3674, 97.29514
612.8495, 95.63039
613.3316, 94.30595
613.8137, 92.82808
614.2958, 91.06450
614.7780, 89.22569
615.2601, 87.37958
615.7422, 85.54347
616.2243, 83.97507
616.7064, 83.25104
617.1885, 82.30449
617.6707, 80.03711
618.1528, 77.12050
618.6349, 75.04164
619.1170, 74.22227
619.5991, 73.72408
620.0812, 72.42311
620.5634, 70.24562
621.0455, 68.29306
621.5276, 66.69679
622.0097, 65.17903
622.4918, 63.81483
622.9739, 62.44137
623.4561, 60.83961
623.9382, 59.00130
624.4203, 57.22855
624.9023, 55.83981
625.3845, 54.70524
625.8666, 53.52086
626.3487, 52.28256
626.8308, 50.87769
627.3129, 49.16829
627.7950, 47.33894
628.2772, 45.73364
628.7593, 44.40067
629.2414, 43.01132
629.7235, 41.36078
630.2056, 39.77014
630.6877, 38.45111
631.1699, 37.36591
631.6520, 36.39789
632.1341, 35.50099
632.6162, 34.64577
633.0983, 33.87535
633.5804, 33.30743
634.0626, 32.13770
634.5447, 29.72993
635.0268, 27.55389
635.5089, 26.41702
635.9910, 25.84732
636.4731, 25.16354
636.9553, 24.23428
637.4374, 23.07571
637.9195, 21.45004
638.4016, 19.69109
638.8837, 18.47514
639.3658, 17.87029
639.8480, 17.39066
640.3301, 16.76965
640.8122, 15.98447
641.2943, 14.94604
641.7764, 13.27389
642.2585, 11.92341
642.7407, 11.09344
643.2228, 10.40758
643.7049, 9.590347
644.1870, 8.711403
644.6691, 8.011444
645.1512, 7.637680
645.6334, 7.417778
646.1155, 7.084999
646.5976, 6.641006
647.0797, 6.206779
647.5618, 5.829918
648.0439, 5.407608
648.5261, 4.797890
649.0082, 4.078156
649.4903, 3.527145
649.9724, 3.309250
650.4545, 3.042259
650.9366, 2.535141
651.4188, 1.924271
651.9009, 1.311142
652.3830, 0.7484970
652.8651, 0.3900150
653.3472, 0.3895260
653.8293, 0.5949100
654.3115, 0.3736800
654.7936, 0.5871200
655.2757, 1.210678
655.7578, 1.094231
656.2399, 0.8160400
656.7220, 0.6274950
657.2042, 0.5341110
657.6863, 0.5047530
658.1684, 0.6001210
658.6505, 0.6425090
659.1326, 0.2392500
659.6147, 0.3454440
660.0969, 0.2293620
660.5790, 0.7960970
661.0611, 1.878296
661.5432, 2.248772
662.0253, 1.986679
662.5074, 1.937729
662.9896, 2.394600
663.4717, 2.676544
663.9538, 2.710129
664.4359, 2.560753
664.9180, 2.133194
665.4001, 1.548553
665.8823, 1.191490
666.3644, 1.370247
666.8465, 1.792130
667.3286, 1.943207
667.8107, 1.827271
668.2928, 1.604195
668.7750, 1.242882
669.2571, 0.9661030
669.7392, 1.122787
670.2213, 1.626564
670.7034, 1.633919
671.1855, 0.5420530
671.6677, 0.3200300
672.1498, 0.3406830
672.6319, 3.0951999E-02
673.1140, 6.4696997E-02
673.5961, 0.1161880
674.0782, 0.3282780
674.5604, 0.3773960
675.0425, 0.3308640
675.5246, 0.4146350
676.0067, 0.6570050
676.4888, 0.9087600
676.9709, 1.135139
677.4531, 1.370712
677.9352, 1.644798
678.4173, 1.950768
678.8994, 2.267891
679.3815, 2.661339
679.8636, 2.973274
680.3458, 3.064598
680.8279, 3.031845
681.3100, 3.031998
681.7921, 3.090736
682.2742, 3.114990
682.7563, 3.009209
683.2385, 2.825409
683.7206, 2.845436
684.2027, 3.220299
684.6848, 3.468567
685.1669, 3.361290
685.6490, 3.258415
686.1312, 3.397568
686.6133, 3.715378
687.0954, 3.993927
687.5775, 4.132820
688.0596, 4.243347
688.5417, 4.487282
689.0239, 4.768417
689.5060, 4.799591
689.9881, 4.536453
690.4702, 4.302399
690.9523, 4.338402
691.4344, 4.621078
691.9166, 5.044075
692.3987, 5.880737
692.8808, 6.415901
693.3629, 6.474022
693.8450, 6.374489
694.3271, 6.241325
694.8093, 6.112671
695.2914, 6.023560
695.7735, 5.980934
696.2556, 6.008469
696.7377, 6.104279
697.2198, 6.288750
697.7020, 6.712776
698.1841, 7.421242
698.6662, 8.012291
699.1483, 8.183266
699.6304, 8.029175
700.1125, 7.914528
700.5947, 7.842270
701.0768, 7.811501
701.5589, 7.785576
702.0410, 7.836113
702.5231, 8.069260
703.0052, 8.402496
703.4874, 8.671562
703.9695, 8.808273
704.4516, 8.849777
704.9337, 8.788605
705.4158, 8.659187
705.8979, 8.631447
706.3801, 8.726479
706.8622, 8.905121
707.3442, 9.202843
707.8264, 9.525223
708.3085, 9.607849
708.7906, 9.305504
709.2727, 9.148460
709.7548, 9.204819
710.2369, 9.381973
710.7191, 9.791489
711.2012, 10.23858
711.6833, 10.35248
712.1654, 9.999985
712.6475, 9.470032
713.1296, 9.142731
713.6118, 9.029167
714.0939, 8.916718
714.5760, 8.774590
715.0581, 8.757225
715.5402, 8.994141
716.0223, 9.322403
716.5045, 9.492569
716.9866, 9.526634
717.4687, 9.511047
717.9508, 9.436974
718.4329, 9.198509
718.9150, 8.614616
719.3972, 7.954407
719.8793, 7.568626
720.3614, 7.524345
720.8435, 7.661438
721.3256, 7.988350
721.8077, 8.392372
722.2899, 8.295258
722.7720, 7.639893
723.2541, 7.160088
723.7362, 7.199104
724.2183, 7.259911
724.7004, 6.615234
725.1826, 5.302864
725.6647, 4.640846
726.1468, 5.201614
726.6289, 5.841660
727.1110, 6.273834
727.5931, 6.453514
728.0753, 6.243065
728.5574, 5.744331
729.0395, 5.351990
729.5216, 5.308144
730.0037, 5.418228
730.4858, 5.305786
730.9680, 4.971931
731.4501, 4.762520
731.9322, 4.802986
732.4143, 4.830948
732.8964, 4.610397
733.3785, 4.193573
733.8607, 3.854729
734.3428, 3.650398
734.8249, 3.434677
735.3070, 3.069046
735.7891, 2.765808
736.2712, 2.717331
736.7534, 2.884819
737.2355, 3.180695
737.7176, 3.587883
738.1997, 3.845985
738.6818, 3.394463
739.1639, 2.341118
739.6461, 1.751938
740.1282, 1.765663
740.6103, 2.029449
741.0924, 2.476059
741.5745, 2.957687
742.0566, 3.097656
742.5388, 2.746567
743.0209, 2.590614
743.5030, 2.922173
743.9851, 3.219292
744.4672, 3.190788
744.9493, 2.952141
745.4315, 2.649521
745.9136, 2.344406
746.3957, 2.141342
746.8778, 2.217934
747.3599, 2.464844
747.8420, 2.521881
748.3242, 2.384140
748.8063, 2.300034
749.2884, 2.391975
749.7705, 2.465897
750.2526, 2.217995
750.7347, 1.610054
751.2169, 1.435600
751.6990, 2.164223
752.1811, 2.681831
752.6632, 2.652611
753.1453, 2.381386
753.6274, 2.072983
754.1096, 1.785805
754.5917, 1.571533
755.0738, 1.480690
755.5559, 1.430153
756.0380, 1.241425
756.5201, 0.9764250
757.0023, 0.9826200
757.4844, 1.337791
757.9665, 1.584084
758.4486, 1.354195
758.9307, 0.8137440
759.4128, 0.5154570
759.8950, 0.5513690
760.3771, 0.6720660
760.8592, 1.057732
761.3413, 1.333549
761.8234, 1.215622
762.3055, 0.9078370
762.7877, 0.7441860
763.2698, 0.8196640
763.7519, 0.9515150
764.2340, 0.9757310
764.7161, 0.9864430
765.1982, 1.207619
765.6804, 1.584610
766.1625, 1.766052
766.6446, 1.609108
767.1267, 1.309128
767.6088, 1.105980
768.0909, 0.9973070
768.5731, 1.016701
769.0552, 1.294098
769.5373, 1.487183
770.0194, 1.509293
770.5015, 1.433464
770.9836, 1.264526
771.4658, 1.034370
771.9479, 0.8694460
772.4300, 0.8059540
772.9121, 0.8309780
773.3942, 1.080444
773.8763, 1.349739
774.3585, 1.237663
774.8406, 0.7589870
775.3227, 0.3060300
775.8048, 0.1271740
776.2869, 0.1809460
776.7690, 0.4404530
777.2512, 0.9796520
777.7333, 1.209076
778.2154, 0.9316100
778.6975, 0.6370770
779.1796, 0.5901950
779.6617, 0.6932980
780.1439, 0.7892000
780.6260, 0.8715130
781.1081, 0.9589390
781.5902, 1.114639
782.0723, 1.218735
782.5544, 1.200470
783.0366, 1.073212
783.5187, 0.7919390
784.0008, 0.3913350
784.4829, 0.1342700
784.9650, 0.3440250
785.4471, 0.8317410
785.9293, 0.9948040
786.4114, 0.8270800
786.8935, 0.7141040
787.3756, 0.7404860
787.8577, 0.8854980
788.3398, 1.195915
788.8220, 1.627197
789.3040, 1.790764
789.7861, 1.440720
790.2682, 1.190796
790.7504, 1.188972
791.2325, 1.206406
791.7146, 1.065361
792.1967, 0.8320620
792.6788, 0.6549380
793.1609, 0.5846480
793.6431, 0.6041340
794.1252, 0.7370990
794.6073, 0.9360890
795.0894, 1.096451
795.5715, 1.226517
796.0536, 1.444839
796.5358, 1.810707
797.0179, 2.143524
797.5000, 2.176048
797.9821, 1.892380
798.4642, 1.736275
798.9464, 1.750267
799.4285, 1.813278
799.9106, 1.975380
800.3927, 2.107033
800.8748, 2.080559
801.3569, 1.929993
801.8391, 1.816582
802.3212, 1.702400
802.8033, 1.747856
803.2854, 2.195709
803.7675, 2.752914
804.2496, 3.100990
804.7318, 3.218132
805.2139, 3.180634
805.6960, 3.021965
806.1781, 2.803162
806.6602, 2.557518
807.1423, 2.305290
807.6245, 2.371529
808.1066, 2.828300
808.5887, 3.324440
809.0708, 3.826401
809.5529, 4.126854
810.0350, 3.787437
810.5172, 2.626648
810.9993, 2.022873
811.4814, 2.224884
811.9635, 2.646133
812.4456, 3.431404
812.9277, 4.154968
813.4099, 4.334579
813.8920, 4.041283
814.3741, 3.763115
814.8562, 3.741508
815.3383, 3.838478
815.8204, 3.891830
816.3026, 3.964546
816.7847, 4.290649
817.2668, 4.841782
817.7489, 5.166237
818.2310, 4.994324
818.7131, 4.574524
819.1953, 4.368141
819.6774, 4.402496
820.1595, 4.478462
820.6416, 4.561897
821.1237, 4.739670
821.6058, 5.129776
822.0880, 5.597534
822.5701, 5.975006
823.0522, 6.249077
823.5343, 6.514336
824.0164, 6.832634
824.4985, 7.038986
824.9807, 6.864151
825.4628, 6.684067
825.9449, 7.033043
826.4270, 7.843315
826.9091, 8.639565
827.3912, 9.101250
827.8734, 9.261269
828.3555, 9.049057
828.8376, 8.675255
829.3197, 8.981483
829.8018, 10.03946
830.2839, 11.26652
830.7661, 12.45885
831.2482, 13.26357
831.7303, 13.11936
832.2124, 11.89228
832.6945, 11.05839
833.1766, 10.77854
833.6588, 10.61912
834.1409, 10.47983
834.6230, 10.51455
835.1051, 10.96409
835.5872, 11.67108
836.0693, 12.01770
836.5515, 11.54678
837.0336, 11.05553
837.5157, 11.04886
837.9978, 11.25523
838.4799, 11.34442
838.9620, 11.33352
839.4442, 11.42718
839.9263, 11.71955
840.4084, 12.04579
840.8905, 12.20461
841.3726, 12.20434
841.8547, 12.02251
842.3369, 11.62454
842.8190, 11.30785
843.3011, 11.21283
843.7832, 11.23220
844.2653, 11.16586
844.7474, 10.98540
845.2296, 11.01302
845.7117, 11.57012
846.1938, 11.89722
846.6759, 11.85017
847.1580, 11.62269
847.6401, 11.24167
848.1223, 10.82069
848.6044, 10.52428
849.0865, 10.36299
849.5686, 10.30102
850.0507, 10.43893
850.5328, 10.59485
851.0150, 10.58961
851.4971, 10.45049
851.9792, 10.25537
852.4613, 10.02357
852.9434, 9.731323
853.4255, 9.338005
853.9077, 8.893669
854.3898, 8.565636
854.8719, 8.353432
855.3540, 8.139023
855.8361, 7.895271
856.3182, 7.661720
856.8004, 7.467842
857.2825, 7.309196
857.7646, 7.169800
858.2467, 7.046295
858.7288, 6.950882
859.2109, 7.089935
859.6931, 7.016182
860.1752, 6.270096
860.6573, 5.397751
861.1394, 5.135025
861.6215, 5.531891
862.1036, 5.858620
862.5858, 5.806000
863.0679, 5.605469
863.5500, 5.340950
864.0321, 5.065277
864.5142, 4.857903
864.9963, 4.716606
865.4785, 4.597771
865.9606, 4.482971
866.4427, 4.329147
866.9248, 4.033821
867.4069, 3.630928
867.8890, 3.271568
868.3712, 2.958237
868.8533, 2.839928
869.3354, 3.032593
869.8175, 3.270523
870.2996, 3.178329
870.7817, 2.749130
871.2639, 2.445709
871.7459, 2.327438
872.2280, 2.231064
872.7101, 2.196182
873.1923, 2.115379
873.6744, 1.849586
874.1565, 1.498009
874.6386, 1.322838
875.1207, 1.448853
875.6028, 1.499107
876.0850, 1.304779
876.5671, 1.024643
877.0492, 0.7230990
877.5313, 0.4390260
878.0134, 0.2567670
878.4955, 0.1721270
878.9777, 1.5160000E-02
879.4598, 0.4197460
879.9419, 0.9172820
880.4240, 1.164436
880.9061, 1.170433
881.3882, 0.9038160
881.8704, 0.3783040
882.3525, 0.1857300
882.8346, 0.6847530
883.3167, 0.9693910
883.7988, 0.5984420
884.2809, 0.5978390
884.7631, 1.108559
885.2452, 0.6087110
885.7273, 0.2280120
886.2094, 0.4098890
886.6915, 0.8231050
887.1736, 1.210716
887.6558, 1.550491
888.1379, 1.526260
888.6200, 0.6687620
889.1021, 9.6504003E-02
889.5842, 0.2155150
890.0663, 0.4729840
890.5485, 0.3799130
891.0306, 0.1668620
891.5127, 0.4207000
891.9948, 1.326012
892.4769, 2.128532
892.9590, 2.380379
893.4412, 2.262581
893.9233, 1.783630
894.4054, 1.136070
894.8875, 0.6971510
895.3696, 0.5434270
895.8517, 0.5376820
896.3339, 0.5962450
896.8160, 0.6859890
897.2981, 0.7451320
897.7802, 0.7755280
898.2623, 0.8169630
898.7444, 0.8858950
899.2266, 0.7621230
899.7087, 0.2573700
900.1908, 0.2484660
900.6729, 0.1303860
901.1550, 0.6574480
901.6371, 1.036034
902.1193, 0.7551500
902.6014, 0.5307770
903.0835, 0.5472720
903.5656, 0.6083220
904.0477, 0.5235440
904.5298, 0.3862230
905.0120, 0.4859920
905.4941, 1.028831
905.9762, 1.303337
906.4583, 0.9043960
906.9404, 0.4342650
907.4225, 0.1905060
907.9047, 0.1348190
908.3868, 0.2557830
908.8689, 0.5006030
909.3510, 0.6393810
909.8331, 0.5019230
910.3152, 0.2591630
910.7974, 8.4976003E-02
911.2795, 7.1617000E-02
911.7616, 0.3303070
912.2437, 0.6721040
912.7258, 0.9616550
913.2079, 1.134048
913.6901, 1.253166
914.1722, 1.363266
914.6543, 1.493729
915.1364, 1.874496
915.6185, 2.517715
916.1006, 3.106750
916.5828, 3.588158
917.0649, 3.891594
917.5470, 3.905823
918.0291, 3.749420
918.5112, 3.883308
918.9933, 4.543762
919.4755, 4.893578
919.9576, 4.576378
920.4397, 4.455086
920.9218, 4.963470
921.4039, 5.778496
921.8860, 6.637024
922.3682, 7.520561
922.8503, 8.214905
923.3324, 8.450073
923.8145, 8.815697
924.2966, 9.602379
924.7787, 10.46315
925.2609, 11.22171
925.7430, 11.80598
926.2251, 12.03856
926.7072, 11.85664
927.1893, 11.82333
927.6714, 12.29416
928.1536, 13.09178
928.6357, 14.30676
929.1178, 15.62588
929.5999, 16.34540
930.0820, 16.47766
930.5641, 16.76348
931.0463, 17.68872
931.5284, 18.90619
932.0105, 19.83686
932.4926, 20.58654
932.9747, 21.61087
933.4568, 22.91560
933.9390, 24.28016
934.4211, 25.62460
934.9032, 26.84630
935.3853, 27.81785
935.8674, 28.57887
936.3495, 29.31778
936.8317, 29.99242
937.3138, 30.79701
937.7959, 31.76912
938.2780, 32.85240
938.7601, 34.03409
939.2422, 35.34785
939.7244, 36.89332
940.2065, 38.74126
940.6886, 40.38666
941.1707, 41.52484
941.6528, 42.83430
942.1349, 44.60093
942.6171, 46.37784
943.0992, 47.78308
943.5813, 48.98077
944.0634, 50.42246
944.5455, 52.27658
945.0276, 54.03169
945.5098, 55.48288
945.9919, 56.84283
946.4740, 58.06018
946.9561, 59.40654
947.4382, 61.29420
947.9203, 63.67806
948.4025, 66.11747
948.8846, 68.40935
949.3667, 70.55618
949.8488, 72.54119
950.3309, 74.38660
950.8130, 76.19727
951.2952, 77.96498
951.7773, 79.50459
952.2594, 80.80095
952.7415, 82.35876
953.2236, 84.79927
953.7057, 87.66689
954.1878, 89.73203
954.6699, 91.16290
955.1520, 93.26916
955.6342, 96.24381
956.1163, 98.68495
956.5984, 99.75854
957.0805, 100.4381
957.5626, 102.3685
958.0447, 105.5187
958.5269, 107.8902
959.0090, 109.2865
959.4911, 110.6013
959.9732, 111.9810
960.4553, 113.5614
960.9374, 115.6405
961.4196, 117.8337
961.9017, 118.9729
962.3838, 118.4392
962.8659, 118.7671
963.3480, 120.9108
963.8301, 122.5811
964.3123, 122.8122
964.7944, 122.6764
965.2765, 123.1455
965.7586, 124.0637
966.2407, 124.6325
966.7228, 124.6409
967.2050, 124.5210
967.6871, 124.4737
968.1692, 124.2203
968.6513, 123.5709
969.1334, 122.6306
969.6155, 121.5321
970.0977, 120.3011
970.5798, 118.9229
971.0619, 117.2755
971.5440, 115.6787
972.0261, 114.6109
972.5082, 113.4812
972.9904, 111.3657
973.4725, 108.7292
973.9546, 106.7600
974.4367, 105.7735
974.9188, 104.9645
975.4009, 103.6559
975.8831, 102.2302
976.3652, 101.4272
976.8473, 100.8226
977.3294, 99.39534
977.8115, 97.15668
978.2936, 94.78636
978.7758, 92.59837
979.2579, 90.79906
979.7400, 89.91057
980.2221, 89.51614
980.7042, 88.03428
981.1863, 85.64321
981.6685, 83.86232
982.1506, 82.99677
982.6327, 82.11845
983.1148, 80.62828
983.5969, 78.77120
984.0790, 76.93887
984.5612, 75.13192
985.0433, 73.70757
985.5254, 72.72731
986.0075, 71.76025
986.4896, 70.65747
986.9717, 69.67952
987.4539, 69.15176
987.9360, 68.80347
988.4181, 67.71271
988.9002, 65.53024
989.3823, 63.86482
989.8644, 62.88496
990.3466, 62.11795
990.8287, 61.67166
991.3108, 61.08891
991.7929, 59.76883
992.2750, 57.88206
992.7571, 56.44815
993.2393, 55.42888
993.7214, 54.93443
994.2035, 55.88588
994.6856, 56.25793
995.1677, 54.73114
995.6498, 52.61310
996.1320, 51.32906
996.6141, 50.83749
997.0962, 50.25594
997.5783, 49.38361
998.0604, 48.47446
998.5425, 47.41743
999.0247, 46.52881
999.5068, 46.37415
999.9889, 46.32896
1000.471, 45.35654
1000.953, 43.43535
1001.435, 41.72662
1001.917, 40.68034
1002.399, 40.00827
1002.882, 39.94557
1003.364, 39.84882
1003.846, 38.92332
1004.328, 37.55093
1004.810, 36.59940
1005.292, 36.24005
1005.774, 35.81882
1006.256, 34.78801
1006.739, 33.69832
1007.221, 33.11485
1007.703, 32.76968
1008.185, 32.40025
1008.667, 31.90570
1009.149, 31.09276
1009.631, 29.92004
1010.113, 28.69453
1010.595, 27.68584
1011.078, 26.79176
1011.560, 25.82472
1012.042, 24.86520
1012.524, 24.06703
1013.006, 23.46283
1013.488, 23.17134
1013.970, 23.23003
1014.452, 23.18524
1014.935, 22.38408
1015.417, 21.21460
1015.899, 20.82906
1016.381, 20.98880
1016.863, 20.43788
1017.345, 19.07018
1017.827, 17.93071
1018.309, 17.56802
1018.791, 17.48000
1019.274, 16.94592
1019.756, 16.09631
1020.238, 15.57070
1020.720, 15.36996
1021.202, 15.29956
1021.684, 15.29697
1022.166, 15.08791
1022.648, 14.49226
1023.130, 13.76503
1023.613, 13.32220
1024.095, 13.14414
1024.577, 13.01562
1025.059, 12.93934
1025.541, 12.76062
1026.023, 12.43437
1026.505, 12.04784
1026.987, 11.63388
1027.469, 11.30374
1027.952, 11.30128
1028.434, 11.64950
1028.916, 11.47385
1029.398, 10.52705
1029.880, 9.795380
1030.362, 9.551132
1030.844, 9.485886
1031.326, 9.410049
1031.809, 9.294281
1032.291, 9.127190
1032.773, 8.930244
1033.255, 8.576515
1033.737, 7.813927
1034.219, 7.492538
1034.701, 8.092255
1035.183, 8.703163
1035.666, 8.635948
1036.148, 8.157639
1036.630, 7.899277
1037.112, 7.964508
1037.594, 7.828629
1038.076, 7.240280
1038.558, 6.847351
1039.040, 6.843811
1039.522, 6.968124
1040.005, 7.121635
1040.487, 7.241936
1040.969, 7.227905
1041.451, 7.095230
1041.933, 6.885849
1042.415, 6.530464
1042.897, 6.119171
1043.379, 5.500313
1043.861, 4.999275
1044.344, 4.902237
1044.826, 5.046600
1045.308, 5.105698
1045.790, 5.035202
1046.272, 5.049110
1046.754, 5.370583
1047.236, 5.499710
1047.718, 5.157852
1048.201, 4.735489
1048.683, 4.411293
1049.165, 4.231346
1049.647, 4.301765
1050.129, 4.667328
1050.611, 4.892532
1051.093, 4.765472
1051.575, 4.664009
1052.057, 4.763885
1052.540, 4.867691
1053.022, 4.828011
1053.504, 4.690559
1053.986, 4.524788
1054.468, 4.336784
1054.950, 4.252930
1055.432, 4.397591
1055.914, 4.528526
1056.396, 4.599503
1056.879, 4.591949
1057.361, 4.374451
1057.843, 4.120071
1058.325, 4.172775
1058.807, 4.574669
1059.289, 4.853935
1059.771, 4.771721
1060.253, 4.654449
1060.736, 4.643997
1061.218, 4.625885
1061.700, 4.517250
1062.182, 4.334282
1062.664, 4.088867
1063.146, 3.793701
1063.628, 3.554680
1064.110, 3.382393
1064.593, 3.308739
1065.075, 3.428574
1065.557, 3.570496
1066.039, 3.660385
1066.521, 3.654266
1067.003, 3.429985
1067.485, 3.018272
1067.967, 2.762619
1068.449, 2.906197
1068.932, 3.026581
1069.414, 2.874634
1069.896, 2.689835
1070.378, 2.687103
1070.860, 2.747627
1071.342, 2.672264
1071.824, 2.455811
1072.306, 2.247040
1072.788, 2.091743
1073.271, 1.973419
1073.753, 1.904839
1074.235, 1.848694
1074.717, 1.806122
1075.199, 1.741394
1075.681, 1.612953
1076.163, 1.416443
1076.645, 1.175095
1077.127, 0.9219740
1077.610, 0.5408550
1078.092, 0.4166410
1078.574, 1.091743
1079.056, 0.5115740
1079.538, 0.4019240
1080.020, 0.4809650
1080.502, 0.1778490
1080.984, 0.7929990
1081.467, 1.153862
1081.949, 1.301109
1082.431, 1.133118
1082.913, 0.8984680
1083.395, 0.5898360
1083.877, 0.4146800
1084.359, 0.6860660
1084.841, 1.259872
1085.323, 1.769882
1085.806, 2.139397
1086.288, 2.232574
1086.770, 1.631233
1087.252, 1.186943
1087.734, 1.592407
1088.216, 2.139977
1088.698, 2.123207
1089.180, 1.728127
1089.662, 1.431564
1090.145, 1.332542
1090.627, 1.333107
1091.109, 1.426666
1091.591, 1.567055
1092.073, 1.973793
1092.555, 2.199150
1093.037, 1.642723
1093.519, 0.7594760
1094.002, 0.3445510
1094.484, 0.4919660
1094.966, 0.6899950
1095.448, 0.8427510
1095.930, 0.9120410
1096.412, 0.9458310
1096.894, 0.8283920
1097.376, 0.2555010
1097.859, 0.3732910
1098.341, 0.3361360
1098.823, 0.2819290
1099.305, 0.3754580
1099.787, 0.7388840
1100.269, 1.531578
1100.751, 1.306168
1101.233, 1.082191
1101.715, 1.348534
1102.198, 1.742683
1102.680, 1.941719
1103.162, 1.994972
1103.644, 2.083084
1104.126, 2.201088
1104.608, 2.441223
1105.090, 2.980942
1105.572, 3.433693
1106.054, 3.740883
1106.537, 3.849045
1107.019, 3.591934
1107.501, 3.136192
1107.983, 2.812737
1108.465, 2.588234
1108.947, 2.795052
1109.429, 4.116379
1109.911, 4.934135
1110.394, 4.452568
1110.876, 3.926346
1111.358, 4.229164
1111.840, 4.851044
1112.322, 4.909622
1112.804, 4.359451
1113.286, 4.221176
1113.768, 4.807556
1114.250, 5.271149
1114.733, 5.517838
1115.215, 5.700798
1115.697, 5.927765
1116.179, 6.079582
1116.661, 5.938705
1117.143, 5.573570
1117.625, 5.508423
1118.107, 5.894821
1118.589, 6.241051
1119.072, 6.580589
1119.554, 6.768089
1120.036, 6.646286
1120.518, 6.566498
1121.000, 6.877785
1121.482, 7.419151
1121.964, 7.719093
1122.446, 7.747398
1122.929, 7.688538
1123.411, 7.472939
1123.893, 7.434776
1124.375, 7.705345
1124.857, 7.987854
1125.339, 8.106705
1125.821, 8.089111
1126.303, 7.953896
1126.786, 7.714569
1127.268, 7.659271
1127.750, 7.825378
1128.232, 7.887100
1128.714, 7.784660
1129.196, 7.681816
1129.678, 7.667290
1130.160, 7.607971
1130.642, 7.297523
1131.125, 6.903450
1131.607, 7.172684
1132.089, 8.040237
1132.571, 8.266479
1133.053, 7.800972
1133.535, 7.384071
1134.017, 7.239761
1134.499, 7.340012
1134.981, 7.716484
1135.464, 8.047371
1135.946, 7.518829
1136.428, 6.446869
1136.910, 6.266937
1137.392, 6.796478
1137.874, 7.111954
1138.356, 7.048416
1138.838, 6.784592
1139.321, 6.420212
1139.803, 6.126900
1140.285, 6.263535
1140.767, 6.451233
1141.249, 5.766632
1141.731, 4.672531
1142.213, 4.214638
1142.695, 4.332108
1143.177, 4.491096
1143.660, 4.502060
1144.142, 4.356682
1144.624, 4.020126
1145.106, 3.668518
1145.588, 3.423073
1146.070, 3.251343
1146.552, 3.209473
1147.034, 3.233223
1147.516, 3.203819
1147.999, 3.079689
1148.481, 2.816551
1148.963, 2.356415
1149.445, 1.959053
1149.927, 1.829613
1150.409, 1.755127
1150.891, 1.626701
1151.373, 1.515289
1151.856, 1.493546
1152.338, 1.482590
1152.820, 1.332298
1153.302, 1.015518
1153.784, 0.7107240
1154.266, 0.4642790
1154.748, 0.2643050
1155.230, 4.8804998E-02
1155.713, 1.6140001E-02
1156.195, 0.2978170
1156.677, 0.6699330
1157.159, 0.7730670
1157.641, 0.6434360
1158.123, 0.3127940
1158.605, 0.5443420
1159.087, 0.9109000
1159.569, 0.3060910
1160.052, 0.2261350
1160.534, 0.3696100
1161.016, 0.3910450
1161.498, 0.4545020
1161.980, 0.5556070
1162.462, 0.6911740
1162.944, 0.8701060
1163.426, 0.9825400
1163.908, 1.020214
1164.391, 0.9958650
1164.873, 0.8688660
1165.355, 0.8076440
1165.837, 0.8948170
1166.319, 1.093327
1166.801, 1.423862
1167.283, 1.763443
1167.765, 1.466579
1168.247, 0.4939800
1168.730, 0.1677550
1169.212, 0.5629730
1169.694, 0.9071540
1170.176, 0.9862170
1170.658, 1.119232
1171.140, 1.538414
1171.622, 2.058273
1172.104, 2.392647
1172.587, 2.577877
1173.069, 2.715996
1173.551, 2.817772
1174.033, 2.956631
1174.515, 3.110249
1174.997, 3.072971
1175.479, 2.788853
1175.961, 2.618893
1176.443, 2.943245
1176.926, 3.350258
1177.408, 3.275692
1177.890, 2.991661
1178.372, 2.846489
1178.854, 2.832657
1179.336, 2.927853
1179.818, 3.076359
1180.300, 3.113396
1180.782, 2.962612
1181.265, 2.767506
1181.747, 2.553265
1182.229, 2.399498
1182.711, 2.330658
1183.193, 2.373272
1183.675, 2.685261
1184.157, 3.068817
1184.639, 3.097992
1185.122, 2.741234
1185.604, 2.580189
1186.086, 2.944977
1186.568, 3.190701
1187.050, 3.112965
1187.532, 3.016781
1188.014, 2.897217
1188.496, 2.937275
1188.979, 3.486164
1189.461, 4.275227
1189.943, 4.476868
1190.425, 3.955906
1190.907, 3.658928
1191.389, 3.677265
1191.871, 3.664948
1192.353, 3.553394
1192.835, 3.448997
1193.318, 3.395996
1193.800, 3.406265
1194.282, 3.525276
1194.764, 3.684914
1195.246, 3.538998
1195.728, 3.109825
1196.210, 3.082623
1196.692, 3.464268
1197.174, 3.715874
1197.657, 3.706715
1198.139, 3.662025
1198.621, 3.721611
1199.103, 3.801468
1199.585, 3.763359
1200.067, 3.688385
1200.549, 3.800892
1201.031, 3.977566
1201.514, 3.867371
1201.996, 3.571823
1202.478, 3.503326
1202.960, 3.747952
1203.442, 4.044678
1203.924, 4.298965
1204.406, 4.392330
1204.888, 4.190006
1205.370, 3.838627
1205.853, 3.272980
1206.335, 2.770130
1206.817, 2.770073
1207.299, 3.079937
1207.781, 3.104755
1208.263, 2.706375
1208.745, 2.413357
1209.227, 2.365608
1209.709, 2.415699
1210.192, 2.621460
1210.674, 2.808838
1211.156, 2.877430
1211.638, 2.887688
1212.120, 2.903450
1212.602, 2.912224
1213.084, 2.853634
1213.566, 2.707390
1214.049, 2.668293
1214.531, 2.778393
1215.013, 2.796909
1215.495, 2.648296
1215.977, 2.515709
1216.459, 2.475861
1216.941, 2.399754
1217.423, 2.113079
1217.906, 1.764259
1218.388, 1.908974
1218.870, 2.403782
1219.352, 2.514706
1219.834, 2.278465
1220.316, 2.065910
1220.798, 1.978329
1221.280, 2.023491
1221.762, 2.208103
1222.245, 2.429771
1222.727, 2.598137
1223.209, 2.734314
1223.691, 2.878780
1224.173, 3.006378
1224.655, 3.034279
1225.137, 3.017082
1225.619, 3.114090
1226.101, 3.273003
1226.584, 3.140717
1227.066, 2.456905
1227.548, 1.962902
1228.030, 2.081917
1228.512, 2.243778
1228.994, 2.171452
1229.476, 2.059387
1229.958, 2.092499
1230.441, 2.164860
1230.923, 2.090363
1231.405, 1.850002
1231.887, 1.641731
1232.369, 1.421146
1232.851, 1.418648
1233.333, 1.736214
1233.815, 1.891087
1234.297, 1.693005
1234.780, 1.622116
1235.262, 2.069717
1235.744, 2.704300
1236.226, 2.896801
1236.708, 2.767639
1237.190, 2.795250
1237.672, 2.905506
1238.154, 2.909378
1238.636, 2.803040
1239.119, 2.666271
1239.601, 2.538502
1240.083, 2.451691
1240.565, 2.447147
1241.047, 2.458099
1241.529, 2.330643
1242.011, 2.247688
1242.493, 2.513756
1242.975, 2.828960
1243.458, 2.783028
1243.940, 2.488834
1244.422, 2.175129
1244.904, 1.886936
1245.386, 1.726997
1245.868, 1.848015
1246.350, 1.935822
1246.832, 1.749088
1247.315, 1.769115
1247.797, 2.494625
1248.279, 3.055054
1248.761, 2.730915
1249.243, 1.952209
1249.725, 1.471970
1250.207, 1.277767
1250.689, 1.335075
1251.172, 1.666908
1251.654, 1.892467
1252.136, 1.982742
1252.618, 1.917145
1253.100, 1.709499
1253.582, 1.466064
1254.064, 1.239609
1254.546, 1.119694
1255.028, 1.315529
1255.510, 1.642979
1255.993, 1.772453
1256.475, 1.747494
1256.957, 1.514587
1257.439, 1.209183
1257.921, 1.173733
1258.403, 1.412102
1258.885, 1.554291
1259.367, 1.420116
1259.850, 1.262222
1260.332, 1.226414
1260.814, 1.176956
1261.296, 0.9568100
1261.778, 0.8021550
1262.260, 0.9550820
1262.742, 1.260071
1263.224, 1.537334
1263.707, 1.751991
1264.189, 1.565807
1264.671, 0.7183420
1265.153, 0.3958360
1265.635, 0.7522510
1266.117, 0.9875870
1266.599, 0.9033890
1267.081, 0.8310590
1267.563, 0.9620630
1268.046, 1.102253
1268.528, 0.9800000
1269.010, 0.7344020
1269.492, 0.7050440
1269.974, 0.8013990
1270.456, 0.7736890
1270.938, 0.6704330
1271.420, 0.7139090
1271.902, 0.8678050
1272.385, 0.7674710
1272.867, 0.2728650
1273.349, 3.8685001E-02
1273.831, 0.7304230
1274.313, 1.394482
1274.795, 1.611027
1275.277, 1.580456
1275.759, 1.288734
1276.242, 0.9285470
1276.724, 0.6706920
1277.206, 0.5245700
1277.688, 0.5015870
1278.170, 0.6192670
1278.652, 0.6645510
1279.134, 0.6242680
1279.616, 0.5773120
1280.099, 0.5162960
1280.581, 0.3695490
1281.063, 9.1339000E-02
1281.545, 7.8250997E-02
1282.027, 6.0913000E-02
1282.509, 0.3563960
1282.991, 0.3150710
1283.473, 0.2189370
1283.955, 0.0000000E+00
##END=



