##NAMES=Ktenasite
##RRUFFID=R070081
##IDEAL CHEMISTRY=(Cu,Zn)_5_(SO_4_)_2_(OH)_6_&#183;6H_2_O
##LOCALITY=Amot, Modum, Norway
##OWNER=RRUFF
##SOURCE=Bob Jenkins
##DESCRIPTION=Radial aggregates of bluish green tabular crystals, associated with colorless tabular gypsum crystals.
##STATUS=The identification of this mineral has been confirmed only by single crystal X-ray diffraction.
##URL=rruff.info/R070081
158.3766, 0.0000000E+00
158.8587, 7.544922
159.3408, 16.30096
159.8230, 27.84058
160.3051, 15.83905
160.7872, 3.093994
161.2693, 2.563354
161.7514, 10.03369
162.2335, 23.24042
162.7157, 27.76404
163.1978, 22.33459
163.6799, 16.56787
164.1620, 13.06329
164.6441, 12.47125
165.1262, 15.73291
165.6084, 27.12134
166.0905, 40.01788
166.5726, 50.52588
167.0547, 58.55994
167.5368, 62.69452
168.0189, 59.08588
168.5011, 50.59454
168.9832, 43.75031
169.4653, 42.30054
169.9474, 43.91803
170.4295, 46.76831
170.9116, 51.20276
171.3938, 55.29150
171.8759, 57.36572
172.3580, 57.64514
172.8401, 57.05054
173.3222, 56.71729
173.8043, 55.70911
174.2865, 52.07397
174.7686, 43.11163
175.2507, 34.48688
175.7328, 34.15112
176.2149, 41.16339
176.6970, 48.41461
177.1792, 49.73810
177.6613, 47.36359
178.1434, 45.97980
178.6255, 48.06183
179.1076, 51.18231
179.5897, 51.53485
180.0719, 48.44647
180.5540, 43.30627
181.0361, 34.31274
181.5182, 23.42340
182.0003, 16.63861
182.4824, 18.52148
182.9646, 25.34473
183.4467, 28.93146
183.9288, 29.18768
184.4109, 27.39832
184.8930, 23.37616
185.3751, 17.76422
185.8573, 14.47412
186.3394, 16.05188
186.8215, 21.40924
187.3036, 27.18695
187.7857, 33.98657
188.2678, 39.11346
188.7500, 37.18213
189.2321, 28.51422
189.7142, 21.32410
190.1963, 21.76398
190.6784, 28.22852
191.1605, 27.65399
191.6427, 17.79242
192.1248, 4.985413
192.6069, 0.1044920
193.0890, 3.408752
193.5711, 9.492615
194.0532, 16.88983
194.5354, 25.43805
195.0175, 31.11310
195.4996, 33.44366
195.9817, 33.14331
196.4638, 31.39374
196.9460, 28.02997
197.4281, 24.29224
197.9102, 21.46161
198.3923, 19.68500
198.8744, 14.96747
199.3565, 4.933838
199.8387, 6.926758
200.3208, 10.12799
200.8029, 3.692139
201.2850, 7.762024
201.7671, 23.98547
202.2492, 46.74792
202.7314, 59.69537
203.2135, 57.89313
203.6956, 45.07843
204.1777, 37.35602
204.6598, 35.49994
205.1419, 36.71338
205.6241, 39.14264
206.1062, 42.92871
206.5883, 47.25275
207.0704, 52.58990
207.5525, 58.52893
208.0346, 61.77185
208.5168, 61.87396
208.9989, 60.12836
209.4810, 56.84149
209.9631, 50.71997
210.4452, 47.64465
210.9273, 49.20074
211.4095, 55.23425
211.8916, 62.16962
212.3737, 71.05670
212.8558, 79.29871
213.3379, 84.06110
213.8200, 84.22321
214.3022, 83.82452
214.7843, 83.05267
215.2664, 81.76837
215.7485, 83.99127
216.2306, 90.74402
216.7127, 99.54907
217.1949, 108.0968
217.6770, 118.1453
218.1591, 123.8270
218.6412, 122.0155
219.1233, 111.1996
219.6054, 106.4127
220.0876, 110.0346
220.5697, 117.0065
221.0518, 120.4418
221.5339, 118.3705
222.0160, 116.5604
222.4981, 116.0029
222.9803, 116.1578
223.4624, 121.1219
223.9445, 133.5054
224.4266, 148.7465
224.9087, 159.8932
225.3908, 166.4335
225.8730, 169.7478
226.3551, 169.5321
226.8372, 164.4961
227.3193, 161.0406
227.8014, 158.2684
228.2835, 157.5966
228.7657, 161.8623
229.2478, 174.0441
229.7299, 186.4702
230.2120, 196.5653
230.6941, 204.1865
231.1762, 210.4071
231.6584, 214.6526
232.1405, 217.7261
232.6226, 221.2170
233.1047, 225.1683
233.5868, 229.4902
234.0689, 234.3104
234.5511, 240.3922
235.0332, 244.7921
235.5153, 246.9357
235.9974, 247.6595
236.4795, 248.6888
236.9616, 250.3067
237.4438, 251.7797
237.9259, 252.1887
238.4080, 249.2056
238.8901, 251.7129
239.3722, 263.4094
239.8543, 279.4175
240.3365, 287.6092
240.8186, 281.4036
241.3007, 276.9551
241.7828, 282.6050
242.2649, 307.4471
242.7470, 319.9267
243.2292, 314.3131
243.7113, 297.8755
244.1934, 288.8245
244.6755, 288.8198
245.1576, 293.7735
245.6397, 303.5104
246.1219, 324.1625
246.6040, 335.9204
247.0861, 334.1687
247.5682, 324.0105
248.0503, 317.9684
248.5324, 318.6383
249.0146, 319.5593
249.4967, 317.7703
249.9788, 311.8950
250.4609, 306.5950
250.9430, 302.8442
251.4251, 299.4116
251.9073, 292.2778
252.3894, 278.0059
252.8715, 265.4891
253.3536, 259.3903
253.8357, 262.7793
254.3178, 264.5597
254.8000, 264.7391
255.2821, 263.1582
255.7642, 259.2025
256.2463, 251.9460
256.7284, 243.8441
257.2105, 235.4157
257.6927, 224.5023
258.1748, 219.7795
258.6569, 226.6436
259.1390, 237.9244
259.6211, 231.6545
260.1032, 196.9572
260.5854, 165.2507
261.0675, 152.5761
261.5496, 166.4204
262.0317, 177.0205
262.5138, 184.6302
262.9959, 188.3014
263.4781, 184.2202
263.9602, 168.8033
264.4423, 153.8340
264.9244, 145.5333
265.4065, 144.5245
265.8886, 142.8814
266.3708, 140.1467
266.8529, 136.8478
267.3350, 134.4335
267.8171, 133.2925
268.2992, 131.9630
268.7813, 130.2310
269.2635, 129.1743
269.7456, 125.7981
270.2277, 118.2889
270.7098, 109.0411
271.1919, 104.3744
271.6740, 105.1666
272.1562, 106.0025
272.6383, 104.2503
273.1204, 99.82166
273.6025, 97.05688
274.0846, 97.68091
274.5667, 99.47491
275.0489, 93.10327
275.5310, 74.31665
276.0131, 59.84265
276.4952, 62.14685
276.9773, 83.60608
277.4594, 90.55414
277.9416, 78.33527
278.4237, 57.48138
278.9058, 45.59863
279.3879, 43.58972
279.8700, 44.14075
280.3521, 44.72937
280.8343, 45.43939
281.3164, 44.11578
281.7985, 40.52795
282.2806, 35.31525
282.7627, 28.06696
283.2448, 18.73492
283.7270, 13.49103
284.2091, 17.64966
284.6912, 29.78333
285.1733, 35.16150
285.6554, 32.60846
286.1375, 26.94275
286.6197, 25.84033
287.1018, 28.99384
287.5839, 29.29169
288.0660, 18.74408
288.5481, 1.369507
289.0303, 0.2188720
289.5124, 18.08435
289.9945, 39.27618
290.4766, 43.25519
290.9587, 32.01294
291.4409, 19.56171
291.9230, 10.67078
292.4051, 5.511963
292.8872, 2.813049
293.3693, 2.197876
293.8514, 3.308838
294.3336, 8.291260
294.8157, 15.71570
295.2978, 19.63812
295.7799, 14.17926
296.2620, 4.952454
296.7441, 5.149780
297.2263, 15.11279
297.7084, 24.94983
298.1905, 22.63647
298.6726, 12.54309
299.1547, 5.607849
299.6368, 6.871460
300.1190, 12.68604
300.6011, 19.95935
301.0832, 28.80151
301.5653, 34.07220
302.0474, 27.81323
302.5295, 14.88831
303.0117, 3.724182
303.4938, 5.744751
303.9759, 9.289185
304.4580, 2.575928
304.9401, 27.77234
305.4222, 49.43060
305.9044, 54.28064
306.3865, 49.05713
306.8686, 42.74664
307.3507, 36.40448
307.8328, 31.54565
308.3149, 31.40314
308.7971, 34.64545
309.2792, 35.61609
309.7613, 25.95074
310.2434, 14.22552
310.7255, 9.189697
311.2076, 16.43292
311.6898, 26.14624
312.1719, 33.41437
312.6540, 38.43085
313.1361, 41.74927
313.6182, 44.65582
314.1003, 45.51843
314.5825, 42.31189
315.0646, 33.07336
315.5467, 24.01666
316.0288, 17.03247
316.5109, 12.10956
316.9930, 9.328674
317.4752, 9.743408
317.9573, 11.14832
318.4394, 11.68890
318.9215, 9.692871
319.4036, 12.25488
319.8857, 30.75391
320.3679, 53.38226
320.8500, 62.03375
321.3321, 32.69550
321.8142, 5.197205
322.2963, 2.520752
322.7784, 16.56909
323.2606, 30.26074
323.7427, 30.18121
324.2248, 23.18280
324.7069, 17.66766
325.1890, 18.74109
325.6711, 17.41785
326.1533, 9.903198
326.6354, 5.536377
327.1175, 16.01257
327.5996, 20.15118
328.0817, 19.80231
328.5638, 16.47369
329.0460, 7.501404
329.5281, 1.248169
330.0102, 11.19202
330.4923, 22.12286
330.9744, 23.16571
331.4565, 5.157227
331.9387, 13.92676
332.4208, 19.96729
332.9029, 4.048828
333.3850, 7.374512
333.8671, 9.872070
334.3492, 5.269470
334.8314, 4.156311
335.3135, 8.590759
335.7956, 13.02734
336.2777, 13.41345
336.7598, 7.742126
337.2419, 5.586121
337.7241, 9.112976
338.2062, 15.73749
338.6883, 17.83032
339.1704, 14.67090
339.6525, 9.788879
340.1346, 3.577087
340.6168, 4.328735
341.0989, 6.841187
341.5810, 2.747864
342.0631, 5.261719
342.5452, 14.13977
343.0273, 24.29163
343.5095, 29.82983
343.9916, 24.81610
344.4737, 11.34735
344.9558, 5.204346
345.4379, 7.463318
345.9200, 12.90924
346.4022, 15.59717
346.8843, 15.83087
347.3664, 15.75537
347.8485, 17.45795
348.3306, 18.98584
348.8127, 13.86841
349.2949, 1.820313
349.7770, 9.017212
350.2591, 10.00793
350.7412, 3.940430
351.2233, 2.612122
351.7054, 7.364624
352.1876, 11.96320
352.6697, 20.37256
353.1518, 31.76672
353.6339, 39.36310
354.1160, 35.95050
354.5981, 26.59949
355.0803, 17.33105
355.5624, 7.928284
356.0445, 1.538391
356.5266, 4.032776
357.0087, 12.26746
357.4908, 16.66547
357.9730, 7.287964
358.4551, 5.071289
358.9372, 12.00671
359.4193, 11.27209
359.9014, 7.789368
360.3835, 3.139526
360.8657, 2.499329
361.3478, 8.610962
361.8299, 18.93109
362.3120, 28.09521
362.7941, 32.92664
363.2762, 32.88727
363.7584, 29.15930
364.2405, 19.18475
364.7226, 6.746887
365.2047, 4.108521
365.6868, 14.26050
366.1689, 21.20245
366.6511, 24.58636
367.1332, 24.45325
367.6153, 20.28076
368.0974, 7.128113
368.5795, 6.937256
369.0616, 16.88318
369.5438, 23.43231
370.0259, 24.37170
370.5080, 14.95935
370.9901, 1.425964
371.4722, 5.987000
371.9543, 10.29590
372.4365, 26.05896
372.9186, 29.08685
373.4007, 13.65381
373.8828, 1.370789
374.3649, 7.986633
374.8470, 13.29517
375.3292, 9.718262
375.8113, 6.145996
376.2934, 19.13239
376.7755, 20.75867
377.2576, 10.67328
377.7397, 7.281128
378.2219, 12.47424
378.7040, 19.44769
379.1861, 18.33447
379.6682, 8.896973
380.1503, 0.3950810
380.6324, 7.390686
381.1146, 11.33990
381.5967, 5.978455
382.0788, 9.120911
382.5609, 26.74316
383.0430, 43.11102
383.5251, 57.07159
384.0073, 64.36725
384.4894, 60.53186
384.9715, 52.62793
385.4536, 50.83441
385.9357, 54.59662
386.4178, 59.94354
386.9000, 66.18262
387.3821, 72.06427
387.8642, 75.40625
388.3463, 74.69800
388.8284, 73.64673
389.3105, 76.40973
389.7927, 79.84650
390.2748, 80.21252
390.7569, 72.86444
391.2390, 65.57794
391.7211, 62.66376
392.2032, 64.30103
392.6854, 70.14630
393.1675, 84.38452
393.6496, 101.2443
394.1317, 114.6364
394.6138, 120.1981
395.0959, 124.6486
395.5781, 131.3124
396.0602, 139.6659
396.5423, 143.8874
397.0244, 138.2989
397.5065, 131.4174
397.9886, 128.0675
398.4708, 125.3201
398.9529, 129.9978
399.4350, 147.7950
399.9171, 173.6033
400.3992, 192.6491
400.8813, 203.5447
401.3635, 209.2358
401.8456, 209.5407
402.3277, 202.0624
402.8098, 198.9674
403.2919, 201.9499
403.7740, 207.6503
404.2562, 209.8609
404.7383, 205.4667
405.2204, 209.7367
405.7025, 231.3409
406.1846, 266.5743
406.6667, 286.2911
407.1489, 288.0938
407.6310, 283.4724
408.1131, 284.6797
408.5952, 291.3494
409.0773, 292.3535
409.5594, 282.8185
410.0416, 269.6813
410.5237, 267.0499
411.0058, 274.0065
411.4879, 280.7557
411.9700, 281.2302
412.4521, 277.2297
412.9343, 272.2633
413.4164, 266.6030
413.8985, 260.1421
414.3806, 250.9370
414.8628, 240.8923
415.3449, 234.0729
415.8270, 235.7056
416.3091, 238.7978
416.7912, 237.2896
417.2733, 231.6033
417.7555, 226.3336
418.2376, 223.1014
418.7197, 221.7503
419.2018, 222.1692
419.6839, 229.2261
420.1660, 232.4345
420.6482, 223.5552
421.1303, 206.9010
421.6124, 197.6097
422.0945, 205.2983
422.5766, 216.0104
423.0587, 223.6964
423.5409, 227.8000
424.0230, 228.2626
424.5051, 221.3511
424.9872, 212.6250
425.4693, 210.1674
425.9514, 220.8646
426.4336, 228.0100
426.9157, 225.8752
427.3978, 214.3378
427.8799, 209.4962
428.3620, 215.5568
428.8441, 221.6877
429.3263, 215.3162
429.8084, 192.1692
430.2905, 184.5200
430.7726, 201.7427
431.2547, 232.6631
431.7368, 247.9813
432.2190, 246.5490
432.7011, 242.0268
433.1832, 240.4517
433.6653, 242.3190
434.1474, 251.4198
434.6295, 269.4263
435.1117, 286.9044
435.5938, 288.3973
436.0759, 279.3508
436.5580, 277.2605
437.0401, 295.0298
437.5222, 319.4113
438.0044, 332.7689
438.4865, 336.2409
438.9686, 341.1968
439.4507, 360.5548
439.9328, 383.4438
440.4149, 396.8902
440.8971, 392.0649
441.3792, 388.8054
441.8613, 401.0024
442.3434, 422.2842
442.8255, 439.0970
443.3076, 442.1030
443.7898, 443.3489
444.2719, 448.6418
444.7540, 459.5680
445.2361, 468.3832
445.7182, 472.1909
446.2003, 474.0624
446.6825, 476.9805
447.1646, 482.6783
447.6467, 487.1223
448.1288, 487.8549
448.6109, 486.2816
449.0930, 492.2554
449.5752, 512.1006
450.0573, 528.8350
450.5394, 531.8397
451.0215, 517.2738
451.5036, 505.7082
451.9857, 497.1129
452.4679, 492.1769
452.9500, 494.8379
453.4321, 505.8721
453.9142, 510.4784
454.3963, 499.1019
454.8784, 477.8394
455.3606, 469.3380
455.8427, 474.0671
456.3248, 480.4328
456.8069, 478.8051
457.2890, 471.0736
457.7711, 461.2134
458.2533, 448.7172
458.7354, 436.9271
459.2175, 431.2628
459.6996, 429.4575
460.1817, 424.7948
460.6638, 408.2626
461.1460, 391.1600
461.6281, 383.0663
462.1102, 385.6932
462.5923, 388.7661
463.0744, 390.9716
463.5565, 389.8019
464.0387, 382.7115
464.5208, 359.8726
465.0029, 340.7493
465.4850, 334.0848
465.9671, 336.8625
466.4492, 332.6424
466.9314, 306.7402
467.4135, 285.9104
467.8956, 282.8583
468.3777, 308.8754
468.8598, 322.6458
469.3419, 320.5497
469.8241, 309.2987
470.3062, 296.9351
470.7883, 282.6006
471.2704, 270.1394
471.7525, 259.8596
472.2346, 252.2258
472.7168, 252.0111
473.1989, 260.6700
473.6810, 268.0667
474.1631, 263.1728
474.6452, 248.9865
475.1273, 242.0796
475.6095, 246.2650
476.0916, 253.3986
476.5737, 251.2724
477.0558, 242.5456
477.5379, 235.9645
478.0201, 236.8187
478.5022, 241.0033
478.9843, 246.8319
479.4664, 254.0237
479.9485, 256.9166
480.4306, 245.2678
480.9128, 230.9231
481.3949, 225.8574
481.8770, 242.2639
482.3591, 256.0073
482.8412, 257.1143
483.3233, 249.4774
483.8055, 242.7339
484.2876, 236.8531
484.7697, 234.4891
485.2518, 238.9975
485.7339, 252.7982
486.2160, 255.7577
486.6982, 238.4312
487.1803, 219.3569
487.6624, 216.0063
488.1445, 235.9945
488.6266, 251.6515
489.1087, 259.1332
489.5909, 259.2256
490.0730, 254.7413
490.5551, 245.3768
491.0372, 235.9843
491.5193, 227.3788
492.0014, 220.4998
492.4836, 222.8013
492.9657, 235.8619
493.4478, 246.8229
493.9299, 236.3956
494.4120, 212.4468
494.8941, 197.4906
495.3763, 205.1125
495.8584, 218.1024
496.3405, 216.0787
496.8226, 201.7399
497.3047, 186.9331
497.7868, 179.8159
498.2690, 175.6619
498.7511, 169.5532
499.2332, 158.3864
499.7153, 150.5102
500.1974, 153.4379
500.6795, 160.7354
501.1617, 165.4032
501.6438, 168.0029
502.1259, 165.9601
502.6080, 154.7193
503.0901, 137.3663
503.5722, 128.4198
504.0544, 134.2117
504.5365, 139.4174
505.0186, 136.3277
505.5007, 121.9089
505.9828, 115.4031
506.4649, 120.0339
506.9471, 127.4684
507.4292, 123.8215
507.9113, 107.8249
508.3934, 99.22766
508.8755, 107.0504
509.3576, 121.8762
509.8398, 121.3861
510.3219, 106.7919
510.8040, 90.87250
511.2861, 80.80487
511.7682, 75.16748
512.2504, 72.86896
512.7325, 74.01324
513.2146, 75.07123
513.6967, 75.33087
514.1788, 73.57690
514.6609, 67.95844
515.1431, 48.54175
515.6252, 34.17487
516.1073, 39.26215
516.5894, 57.90851
517.0715, 65.39087
517.5536, 43.65967
518.0358, 20.17108
518.5179, 7.445679
519.0000, 9.393494
519.4821, 10.64752
519.9642, 11.73035
520.4464, 11.67657
520.9285, 8.255737
521.4106, 1.612305
521.8927, 4.537781
522.3748, 4.799683
522.8569, 21.07153
523.3391, 26.85266
523.8212, 21.33301
524.3033, 13.41888
524.7854, 5.566895
525.2675, 0.8265380
525.7496, 1.476013
526.2318, 13.49854
526.7139, 26.16479
527.1960, 30.14948
527.6781, 28.42365
528.1602, 26.94086
528.6423, 29.53394
529.1245, 30.06409
529.6066, 21.31085
530.0887, 6.545959
530.5708, 5.352234
531.0529, 9.295288
531.5350, 10.41730
532.0172, 10.66577
532.4993, 10.01984
532.9814, 10.00128
533.4635, 12.17145
533.9456, 14.21191
534.4277, 14.43347
534.9099, 12.66443
535.3920, 8.988892
535.8741, 1.484619
536.3562, 6.963318
536.8383, 7.970764
537.3204, 0.6783450
537.8026, 7.521240
538.2847, 6.407776
538.7668, 0.9018550
539.2489, 2.166992
539.7310, 3.218079
540.2131, 8.911499
540.6953, 8.524048
541.1774, 4.218933
541.6595, 2.007935
542.1416, 3.718140
542.6237, 5.547546
543.1058, 2.314270
543.5880, 3.532349
544.0701, 7.037231
544.5522, 4.572510
545.0343, 0.4744870
545.5164, 4.356018
545.9985, 9.498596
546.4807, 10.91235
546.9628, 2.997253
547.4449, 5.679993
547.9270, 10.40643
548.4091, 9.590942
548.8912, 7.108521
549.3734, 1.469055
549.8555, 4.846558
550.3376, 8.716614
550.8197, 10.09766
551.3018, 8.719116
551.7839, 2.782837
552.2661, 5.292603
552.7482, 4.605957
553.2303, 5.579895
553.7124, 13.72021
554.1945, 8.819092
554.6766, 3.738953
555.1588, 5.081665
555.6409, 6.782715
556.1230, 17.19171
556.6051, 8.897339
557.0872, 8.735046
557.5693, 20.92456
558.0515, 21.17633
558.5336, 17.93610
559.0157, 14.91449
559.4978, 12.19031
559.9799, 10.02435
560.4620, 6.606934
560.9442, 5.516663
561.4263, 10.01947
561.9084, 21.43555
562.3905, 26.55273
562.8726, 21.97369
563.3547, 14.33569
563.8369, 6.516785
564.3190, 4.145081
564.8011, 4.442139
565.2832, 10.27820
565.7653, 29.97681
566.2474, 36.81439
566.7296, 30.62323
567.2117, 26.18762
567.6938, 30.63464
568.1759, 38.29718
568.6580, 35.45422
569.1401, 23.41052
569.6223, 12.45801
570.1044, 10.71527
570.5865, 13.38708
571.0686, 14.14990
571.5507, 11.58990
572.0328, 12.78137
572.5150, 26.27515
572.9971, 43.39252
573.4792, 55.34521
573.9613, 52.38129
574.4434, 52.69116
574.9255, 66.61841
575.4077, 86.23981
575.8898, 88.89941
576.3719, 60.29272
576.8540, 36.94775
577.3361, 31.49603
577.8182, 43.62933
578.3004, 54.37427
578.7825, 63.95746
579.2646, 70.90808
579.7467, 72.54785
580.2288, 69.83203
580.7109, 68.77338
581.1931, 70.24353
581.6752, 72.61945
582.1573, 73.84723
582.6394, 74.44446
583.1215, 75.70099
583.6036, 79.81219
584.0858, 83.16724
584.5679, 77.95099
585.0500, 68.32233
585.5321, 69.78223
586.0142, 103.4775
586.4963, 137.2845
586.9785, 154.4999
587.4606, 150.4646
587.9427, 146.2836
588.4248, 140.8672
588.9069, 137.1637
589.3890, 137.8313
589.8712, 144.3019
590.3533, 150.8378
590.8354, 155.7119
591.3175, 162.0029
591.7996, 178.9935
592.2817, 206.9061
592.7639, 227.6049
593.2460, 231.1375
593.7281, 225.6876
594.2102, 227.0336
594.6923, 234.6473
595.1744, 245.5628
595.6566, 263.2729
596.1387, 280.2394
596.6208, 286.1016
597.1029, 277.5596
597.5850, 271.2957
598.0671, 274.9810
598.5493, 285.3766
599.0314, 299.1078
599.5135, 322.3814
599.9956, 339.8953
600.4777, 347.7881
600.9598, 350.0911
601.4420, 353.7665
601.9241, 357.8226
602.4062, 364.5948
602.8883, 375.4724
603.3704, 389.3867
603.8525, 403.4252
604.3347, 418.6432
604.8168, 427.6617
605.2989, 420.6378
605.7810, 402.8983
606.2631, 390.2038
606.7452, 383.6857
607.2274, 380.7029
607.7095, 380.7216
608.1916, 382.2950
608.6737, 383.1481
609.1558, 380.8671
609.6379, 381.1218
610.1201, 391.8243
610.6022, 405.8686
611.0843, 409.2417
611.5664, 383.9177
612.0485, 365.2626
612.5306, 365.6056
613.0128, 382.2528
613.4949, 387.6692
613.9770, 377.3539
614.4591, 366.6359
614.9412, 365.1597
615.4233, 372.3815
615.9055, 371.6819
616.3876, 360.9860
616.8697, 350.2148
617.3518, 354.2163
617.8339, 366.7356
618.3160, 368.4113
618.7982, 350.2433
619.2803, 331.1558
619.7624, 333.2273
620.2445, 346.6789
620.7266, 352.4425
621.2087, 334.7569
621.6909, 315.3470
622.1730, 301.7750
622.6551, 294.3973
623.1372, 291.1267
623.6193, 298.8352
624.1014, 301.7081
624.5836, 291.2255
625.0657, 263.5360
625.5478, 247.9943
626.0299, 247.5587
626.5120, 252.1248
626.9941, 254.5959
627.4763, 254.4783
627.9584, 245.7861
628.4405, 225.8513
628.9226, 203.2691
629.4047, 190.7836
629.8868, 184.9451
630.3690, 176.9232
630.8511, 157.3805
631.3332, 139.4696
631.8153, 134.5607
632.2974, 139.5095
632.7795, 143.3384
633.2617, 142.4592
633.7438, 139.5050
634.2259, 135.9568
634.7080, 132.1736
635.1901, 124.0937
635.6722, 108.5247
636.1544, 92.93799
636.6365, 82.62433
637.1186, 78.57007
637.6007, 73.38232
638.0828, 65.74817
638.5649, 59.20746
639.0471, 58.82013
639.5292, 63.58423
640.0113, 70.11194
640.4934, 80.50153
640.9755, 86.82971
641.4576, 73.90436
641.9398, 49.73969
642.4219, 33.87683
642.9040, 45.20789
643.3861, 57.45801
643.8682, 54.33203
644.3503, 37.24725
644.8325, 27.29034
645.3146, 34.99524
645.7967, 43.53931
646.2788, 46.40454
646.7609, 42.75757
647.2430, 38.28595
647.7252, 32.14288
648.2073, 26.95258
648.6894, 25.39807
649.1715, 27.27075
649.6536, 30.83881
650.1357, 36.88550
650.6179, 41.14368
651.1000, 35.31964
651.5821, 23.67816
652.0642, 16.33051
652.5463, 21.06934
653.0284, 26.49567
653.5106, 25.07184
653.9927, 18.54187
654.4748, 11.72162
654.9569, 3.708008
655.4390, 2.188721
655.9211, 4.673035
656.4033, 3.868225
656.8854, 0.5522460
657.3675, 7.880188
657.8496, 14.22156
658.3317, 12.77869
658.8138, 3.136047
659.2960, 0.9044190
659.7781, 1.393311
660.2602, 5.864746
660.7423, 9.931213
661.2244, 12.83600
661.7065, 12.07739
662.1887, 5.938232
662.6708, 0.1632080
663.1529, 3.521851
663.6350, 3.548035
664.1171, 0.5887450
664.5992, 17.22601
665.0814, 29.20593
665.5635, 29.56451
666.0456, 21.09521
666.5277, 14.02606
667.0098, 6.727051
667.4919, 3.699463
667.9741, 7.436279
668.4562, 17.04004
668.9383, 26.20294
669.4204, 35.61572
669.9025, 39.45868
670.3846, 29.75452
670.8668, 11.68579
671.3489, 0.3757320
671.8310, 5.581726
672.3131, 7.570068
672.7952, 9.993469
673.2773, 10.32941
673.7595, 4.469421
674.2416, 13.32568
674.7237, 25.67700
675.2058, 21.55640
675.6879, 10.81665
676.1700, 5.871460
676.6522, 11.49402
677.1343, 15.23340
677.6164, 14.60535
678.0985, 12.01868
678.5806, 13.16083
679.0627, 18.27917
679.5449, 24.86603
680.0270, 33.49652
680.5091, 41.99908
680.9912, 44.95648
681.4733, 42.91138
681.9554, 38.96478
682.4376, 30.63708
682.9197, 24.26404
683.4018, 28.38904
683.8839, 43.36835
684.3660, 52.18933
684.8481, 42.98590
685.3303, 29.88232
685.8124, 22.06372
686.2945, 22.01263
686.7766, 19.98029
687.2587, 13.69360
687.7408, 8.782349
688.2230, 13.03088
688.7051, 27.17023
689.1872, 30.81226
689.6693, 18.30164
690.1514, 3.255127
690.6335, 8.247192
691.1157, 26.28766
691.5978, 39.20038
692.0799, 37.48993
692.5620, 32.07654
693.0441, 32.16321
693.5262, 34.69965
694.0084, 32.36127
694.4905, 9.932800
694.9726, 3.390381
695.4547, 7.905640
695.9368, 38.72382
696.4189, 51.31927
696.9011, 37.48346
697.3832, 23.57050
697.8653, 22.17102
698.3474, 32.10620
698.8295, 41.58502
699.3116, 50.72510
699.7938, 57.91003
700.2759, 64.61707
700.7580, 67.51501
701.2401, 57.72034
701.7222, 32.13452
702.2043, 13.54230
702.6865, 21.59503
703.1686, 39.89722
703.6507, 53.40790
704.1328, 59.77039
704.6149, 60.04779
705.0970, 49.01794
705.5792, 35.46191
706.0613, 31.95361
706.5434, 41.93665
707.0255, 47.09930
707.5076, 42.81683
707.9897, 34.59113
708.4719, 34.39722
708.9540, 40.74316
709.4361, 44.93689
709.9182, 41.40741
710.4003, 35.79590
710.8824, 34.80402
711.3646, 36.93207
711.8467, 37.22491
712.3288, 28.21228
712.8109, 21.85321
713.2930, 26.57562
713.7751, 42.51947
714.2573, 49.53687
714.7394, 42.58728
715.2215, 34.18011
715.7036, 29.77020
716.1857, 29.34125
716.6678, 32.34460
717.1500, 39.19171
717.6321, 46.74054
718.1142, 54.58618
718.5963, 60.80157
719.0784, 60.56006
719.5605, 52.76843
720.0427, 43.15057
720.5248, 31.70563
721.0070, 22.45898
721.4891, 20.73541
721.9712, 33.21191
722.4533, 43.27112
722.9354, 47.74860
723.4175, 51.08069
723.8997, 59.88959
724.3818, 79.17200
724.8639, 85.72699
725.3460, 72.17957
725.8281, 50.34167
726.3102, 43.20520
726.7924, 48.80701
727.2745, 50.92657
727.7566, 39.52924
728.2387, 27.55341
728.7208, 33.61096
729.2029, 51.15979
729.6851, 62.04736
730.1672, 52.57214
730.6493, 41.32996
731.1314, 36.14893
731.6135, 37.03082
732.0956, 36.39630
732.5778, 31.91028
733.0599, 29.65173
733.5420, 33.34064
734.0241, 42.01294
734.5062, 45.31799
734.9883, 43.05981
735.4705, 38.83313
735.9526, 33.34570
736.4347, 28.31891
736.9168, 27.45282
737.3989, 30.99799
737.8810, 34.22711
738.3632, 34.63995
738.8453, 33.34265
739.3274, 31.06335
739.8095, 27.62640
740.2916, 23.91040
740.7737, 19.44507
741.2559, 15.29956
741.7380, 11.20630
742.2201, 5.994934
742.7022, 11.21582
743.1843, 31.53955
743.6664, 50.70044
744.1486, 41.21161
744.6307, 12.82233
745.1128, 4.917847
745.5949, 2.914673
746.0770, 7.051880
746.5591, 20.53473
747.0413, 34.55493
747.5234, 44.56030
748.0055, 47.34100
748.4876, 48.03613
748.9697, 46.69556
749.4518, 44.17908
749.9340, 43.39478
750.4161, 46.86353
750.8982, 42.03662
751.3803, 21.47223
751.8624, 5.648865
752.3445, 14.16522
752.8267, 6.765015
753.3088, 2.428223
753.7909, 7.228943
754.2730, 9.504639
754.7551, 10.72162
755.2372, 10.91986
755.7194, 10.25110
756.2015, 8.346802
756.6836, 5.972046
757.1657, 1.547302
757.6478, 4.506958
758.1299, 1.666504
758.6121, 14.20905
759.0942, 28.66492
759.5763, 32.61646
760.0584, 27.96814
760.5405, 27.49115
761.0226, 31.15851
761.5048, 34.41309
761.9869, 32.96753
762.4690, 29.68243
762.9511, 28.35187
763.4332, 29.50897
763.9153, 29.42468
764.3975, 25.71069
764.8796, 20.87195
765.3617, 16.02643
765.8438, 9.726868
766.3259, 8.861084
766.8080, 15.80334
767.2902, 23.84900
767.7723, 26.10681
768.2544, 23.35077
768.7365, 23.92480
769.2186, 29.12982
769.7007, 34.38269
770.1829, 36.27728
770.6650, 34.80267
771.1471, 28.90991
771.6292, 15.12433
772.1113, 5.354492
772.5934, 4.576233
773.0756, 10.04596
773.5577, 19.44153
774.0398, 40.11066
774.5219, 47.82196
775.0040, 35.86615
775.4861, 17.61505
775.9683, 14.66656
776.4504, 25.75403
776.9325, 36.00073
777.4146, 42.71100
777.8967, 42.72998
778.3788, 22.79352
778.8610, 5.508484
779.3431, 20.78412
779.8252, 2.364685
780.3073, 16.13910
780.7894, 22.89130
781.2715, 22.24615
781.7537, 25.15814
782.2358, 37.29089
782.7179, 39.70569
783.2000, 24.77399
783.6821, 1.490540
784.1642, 6.341125
784.6464, 1.078735
785.1285, 4.775757
785.6106, 4.501831
786.0927, 3.396545
786.5748, 9.685425
787.0569, 20.29071
787.5391, 26.71063
788.0212, 17.53088
788.5033, 11.68622
788.9854, 21.38531
789.4675, 41.67188
789.9496, 48.34863
790.4318, 34.92615
790.9139, 25.65784
791.3960, 32.40594
791.8781, 48.80072
792.3602, 50.00568
792.8423, 36.59515
793.3245, 22.23248
793.8066, 12.33344
794.2887, 7.145691
794.7708, 8.756104
795.2529, 16.21204
795.7350, 23.89624
796.2172, 31.59192
796.6993, 37.50293
797.1814, 41.14276
797.6635, 42.78979
798.1456, 40.31152
798.6277, 32.72302
799.1099, 24.24939
799.5920, 15.01953
800.0741, 7.250854
800.5562, 9.048157
801.0383, 20.00568
801.5204, 29.27417
802.0026, 28.10120
802.4847, 23.49530
802.9668, 19.99451
803.4489, 18.39246
803.9310, 18.15588
804.4131, 20.64984
804.8953, 22.83795
805.3774, 22.96057
805.8595, 20.88788
806.3416, 21.55933
806.8237, 25.30402
807.3058, 29.98199
807.7880, 36.25897
808.2701, 41.82593
808.7522, 38.27228
809.2343, 25.72083
809.7164, 17.25952
810.1985, 29.00134
810.6807, 42.89478
811.1628, 43.05054
811.6449, 23.87451
812.1270, 13.47577
812.6091, 17.72174
813.0912, 24.52570
813.5734, 26.63879
814.0555, 23.91266
814.5376, 22.83228
815.0197, 23.69257
815.5018, 22.72382
815.9839, 12.41705
816.4661, 0.6382450
816.9482, 1.358154
817.4303, 17.49744
817.9124, 30.09210
818.3945, 25.14313
818.8766, 17.13373
819.3588, 17.03076
819.8409, 27.92151
820.3230, 32.69037
820.8051, 28.89294
821.2872, 24.82135
821.7693, 28.84857
822.2515, 39.14935
822.7336, 44.89996
823.2157, 45.47443
823.6978, 42.17511
824.1799, 30.06134
824.6620, 18.23651
825.1442, 17.67303
825.6263, 32.57208
826.1084, 43.70935
826.5905, 46.90771
827.0726, 44.39215
827.5547, 35.66821
828.0369, 18.77863
828.5190, 7.555298
829.0011, 1.808594
829.4832, 1.982422
829.9653, 13.64178
830.4474, 30.43494
830.9296, 36.92383
831.4117, 31.20386
831.8938, 24.57941
832.3759, 26.59839
832.8580, 28.78931
833.3401, 22.94543
833.8223, 2.215637
834.3044, 5.068604
834.7865, 8.169067
835.2686, 25.11554
835.7507, 32.94232
836.2328, 32.11554
836.7150, 36.00897
837.1971, 44.93823
837.6792, 51.00922
838.1613, 37.62073
838.6434, 19.15155
839.1255, 16.73303
839.6077, 35.26691
840.0898, 44.72644
840.5719, 22.63129
841.0540, 0.7565920
841.5361, 7.213928
842.0182, 6.009705
842.5004, 18.21039
842.9825, 29.76099
843.4646, 37.78943
843.9467, 38.28302
844.4288, 33.91827
844.9109, 32.04541
845.3931, 33.04877
845.8752, 32.83521
846.3573, 23.76935
846.8394, 16.14374
847.3215, 21.05145
847.8036, 44.10016
848.2858, 48.86871
848.7679, 22.83649
849.2500, 2.489563
849.7321, 6.673584
850.2142, 8.749634
850.6964, 17.36713
851.1785, 19.22198
851.6606, 17.75793
852.1427, 13.66248
852.6248, 8.602051
853.1069, 2.771729
853.5891, 3.554077
854.0712, 3.863098
854.5533, 10.95398
855.0354, 25.79883
855.5175, 34.95148
855.9996, 38.46588
856.4818, 31.22351
856.9639, 10.31439
857.4460, 4.054016
857.9281, 8.872803
858.4102, 33.78149
858.8923, 35.08380
859.3745, 15.96033
859.8566, 0.6276250
860.3387, 7.228638
860.8208, 17.31403
861.3029, 21.10736
861.7850, 18.10345
862.2672, 14.40985
862.7493, 7.228210
863.2314, 3.249451
863.7135, 7.386963
864.1956, 16.57355
864.6777, 17.75989
865.1599, 11.86273
865.6420, 6.664185
866.1241, 8.192383
866.6062, 10.88104
867.0883, 7.712769
867.5704, 1.126343
868.0526, 1.220215
868.5347, 19.12775
869.0168, 33.78650
869.4989, 40.70972
869.9810, 41.07300
870.4631, 35.83533
870.9453, 24.52216
871.4274, 18.94366
871.9095, 27.36792
872.3916, 39.85748
872.8737, 45.61169
873.3558, 44.63361
873.8380, 37.26154
874.3201, 12.36157
874.8022, 6.105591
875.2843, 6.919006
875.7664, 2.392029
876.2485, 8.565735
876.7307, 11.44916
877.2128, 10.64417
877.6949, 4.615845
878.1770, 1.848389
878.6591, 0.1696170
879.1412, 7.613586
879.6234, 16.44580
880.1055, 26.52045
880.5876, 32.80701
881.0697, 31.18262
881.5518, 25.67194
882.0339, 21.71576
882.5161, 17.76593
882.9982, 20.73346
883.4803, 35.04797
883.9624, 49.10254
884.4445, 43.01489
884.9266, 22.03015
885.4088, 8.815735
885.8909, 8.281128
886.3730, 11.96863
886.8551, 14.87054
887.3372, 17.62659
887.8193, 21.06354
888.3015, 26.29309
888.7836, 30.10455
889.2657, 34.33972
889.7478, 34.48834
890.2299, 22.72198
890.7120, 0.4661870
891.1942, 7.558899
891.6763, 0.7900390
892.1584, 10.63647
892.6405, 7.929993
893.1226, 2.295227
893.6047, 5.844482
894.0869, 21.38251
894.5690, 32.54620
895.0511, 33.95331
895.5332, 32.10571
896.0153, 29.61249
896.4974, 26.47791
896.9796, 20.81775
897.4617, 12.26947
897.9438, 7.647949
898.4259, 15.07159
898.9080, 26.83478
899.3901, 33.93469
899.8723, 37.07941
900.3544, 36.20135
900.8365, 26.31921
901.3186, 17.97949
901.8007, 15.07025
902.2828, 16.81439
902.7650, 19.42780
903.2471, 23.06915
903.7292, 26.90912
904.2113, 32.22449
904.6934, 35.86407
905.1755, 28.54089
905.6577, 15.01019
906.1398, 7.773315
906.6219, 20.63593
907.1040, 31.09015
907.5861, 30.12463
908.0682, 22.90424
908.5504, 15.01807
909.0325, 3.927002
909.5146, 4.659302
909.9967, 23.28510
910.4788, 46.59344
910.9609, 53.89557
911.4431, 49.55859
911.9252, 43.91412
912.4073, 40.15723
912.8894, 35.41199
913.3715, 27.54846
913.8536, 18.61090
914.3358, 9.906006
914.8179, 1.979675
915.3000, 1.576721
915.7821, 16.49860
916.2642, 34.33679
916.7463, 29.67944
917.2285, 11.41302
917.7106, 3.182434
918.1927, 8.193176
918.6748, 12.56348
919.1569, 2.467407
919.6390, 6.962646
920.1212, 2.202759
920.6033, 19.46277
921.0854, 31.11017
921.5675, 30.40656
922.0496, 27.02008
922.5317, 26.76959
923.0139, 28.13861
923.4960, 25.71393
923.9781, 20.12189
924.4602, 14.87939
924.9423, 12.48541
925.4244, 10.40735
925.9066, 7.177917
926.3887, 3.205811
926.8708, 5.7799999E-02
927.3529, 3.246216
927.8350, 3.855347
928.3171, 0.5911870
928.7993, 4.898071
929.2814, 8.410889
929.7635, 10.98999
930.2456, 16.80328
930.7277, 30.92542
931.2098, 43.22229
931.6920, 50.43103
932.1741, 51.30249
932.6562, 42.00690
933.1383, 15.29138
933.6204, 0.1021730
934.1025, 0.1514890
934.5847, 5.361023
935.0668, 4.956970
935.5489, 0.1425780
936.0310, 5.220154
936.5131, 10.64246
936.9952, 12.59717
937.4774, 7.510498
937.9595, 0.6718750
938.4416, 10.17395
938.9237, 22.31854
939.4058, 25.50397
939.8879, 15.94818
940.3701, 7.473999
940.8522, 11.47229
941.3343, 23.41547
941.8164, 29.01691
942.2985, 28.81061
942.7806, 26.63452
943.2628, 22.11151
943.7449, 18.70532
944.2270, 20.55707
944.7091, 25.87769
945.1912, 23.85657
945.6733, 10.16937
946.1555, 2.851013
946.6376, 9.263000
947.1197, 21.60132
947.6018, 22.69794
948.0839, 16.77496
948.5660, 16.03168
949.0482, 31.88538
949.5303, 43.10657
950.0124, 31.70953
950.4945, 12.29102
950.9766, 5.544556
951.4587, 18.30164
951.9409, 22.75409
952.4230, 15.40704
952.9051, 5.771667
953.3872, 2.563416
953.8693, 5.270264
954.3514, 15.10455
954.8336, 32.86639
955.3157, 46.59790
955.7978, 44.44061
956.2799, 41.36444
956.7620, 48.14160
957.2441, 65.10608
957.7263, 73.01434
958.2084, 70.93030
958.6905, 65.88684
959.1726, 58.35010
959.6547, 52.41614
960.1368, 57.60291
960.6190, 70.93042
961.1011, 81.90070
961.5832, 82.13977
962.0653, 83.63354
962.5474, 90.39526
963.0295, 100.7637
963.5117, 112.5400
963.9938, 126.0070
964.4759, 137.6269
964.9580, 146.1820
965.4401, 154.2294
965.9222, 165.5809
966.4044, 178.3170
966.8865, 188.2594
967.3686, 191.2737
967.8507, 200.8558
968.3329, 224.5407
968.8150, 250.5879
969.2971, 268.2037
969.7792, 276.5882
970.2614, 304.8279
970.7435, 353.4929
971.2256, 402.0024
971.7077, 431.1260
972.1898, 454.8295
972.6719, 483.1210
973.1541, 517.6721
973.6362, 565.8398
974.1183, 640.6275
974.6004, 711.5305
975.0825, 768.3824
975.5646, 817.8347
976.0468, 878.8597
976.5289, 949.5569
977.0110, 1021.633
977.4931, 1088.640
977.9752, 1156.294
978.4573, 1232.708
978.9395, 1312.989
979.4216, 1388.559
979.9037, 1453.682
980.3858, 1526.391
980.8679, 1612.462
981.3500, 1694.771
981.8322, 1752.880
982.3143, 1791.530
982.7964, 1822.327
983.2785, 1846.646
983.7606, 1869.845
984.2427, 1905.612
984.7249, 1930.878
985.2070, 1923.281
985.6891, 1886.094
986.1712, 1864.497
986.6533, 1860.410
987.1354, 1862.708
987.6176, 1868.782
988.0997, 1875.966
988.5818, 1875.995
989.0639, 1873.607
989.5460, 1881.162
990.0281, 1912.042
990.5103, 1943.220
990.9924, 1968.653
991.4745, 1991.456
991.9566, 2015.867
992.4387, 2042.146
992.9208, 2070.073
993.4030, 2101.241
993.8851, 2121.276
994.3672, 2108.916
994.8493, 2081.749
995.3314, 2064.261
995.8135, 2063.004
996.2957, 2038.877
996.7778, 1979.748
997.2599, 1907.733
997.7420, 1827.881
998.2241, 1742.910
998.7062, 1672.419
999.1884, 1613.285
999.6705, 1546.969
1000.153, 1463.582
1000.635, 1369.518
1001.117, 1263.401
1001.599, 1151.000
1002.081, 1047.819
1002.563, 958.2689
1003.045, 865.0602
1003.527, 762.6600
1004.010, 662.6406
1004.492, 577.9409
1004.974, 507.4067
1005.456, 448.4565
1005.938, 401.8210
1006.420, 361.2814
1006.902, 326.7797
1007.384, 295.5579
1007.866, 263.7949
1008.349, 231.7590
1008.831, 216.4937
1009.313, 219.2992
1009.795, 219.0887
1010.277, 201.9122
1010.759, 177.4476
1011.241, 156.6350
1011.723, 138.8623
1012.206, 122.5715
1012.688, 103.4127
1013.170, 92.15588
1013.652, 92.78125
1014.134, 98.23767
1014.616, 99.19006
1015.098, 96.08752
1015.580, 92.30090
1016.062, 88.36548
1016.545, 82.88208
1017.027, 71.63965
1017.509, 60.75037
1017.991, 56.99316
1018.473, 61.72498
1018.955, 57.50110
1019.437, 40.37317
1019.919, 28.26636
1020.401, 33.32874
1020.884, 46.41724
1021.366, 49.32007
1021.848, 43.98999
1022.330, 36.25940
1022.812, 21.54272
1023.294, 13.65735
1023.776, 23.55017
1024.258, 37.12109
1024.740, 34.26880
1025.223, 14.16284
1025.705, 6.750000
1026.187, 16.50159
1026.669, 26.29041
1027.151, 16.29663
1027.633, 1.329956
1028.115, 3.500610
1028.597, 3.862061
1029.080, 10.49512
1029.562, 15.86353
1030.044, 19.23230
1030.526, 19.83386
1031.008, 18.66785
1031.490, 17.75916
1031.972, 17.37097
1032.454, 18.85242
1032.937, 29.73914
1033.419, 32.51660
1033.901, 8.331665
1034.383, 21.64789
1034.865, 31.52332
1035.347, 17.05450
1035.829, 6.598267
1036.311, 1.618774
1036.793, 0.3900150
1037.276, 3.519409
1037.758, 8.223145
1038.240, 12.22632
1038.722, 15.10461
1039.204, 14.18677
1039.686, 3.877930
1040.168, 2.203491
1040.650, 1.746338
1041.132, 10.27881
1041.615, 9.170288
1042.097, 0.4921880
1042.579, 7.255493
1043.061, 12.37244
1043.543, 13.87976
1044.025, 7.426514
1044.507, 0.5448000
1044.989, 2.994019
1045.472, 1.635132
1045.954, 4.016357
1046.436, 3.715088
1046.918, 3.905762
1047.400, 9.407349
1047.882, 15.35779
1048.364, 12.39490
1048.846, 2.983154
1049.328, 1.382446
1049.811, 10.21082
1050.293, 16.51929
1050.775, 10.19666
1051.257, 0.8343510
1051.739, 10.68872
1052.221, 34.19019
1052.703, 44.69128
1053.185, 34.99402
1053.667, 22.88135
1054.150, 19.38770
1054.632, 18.76099
1055.114, 14.65320
1055.596, 6.280518
1056.078, 12.56177
1056.560, 35.97607
1057.042, 54.81958
1057.524, 56.35046
1058.007, 47.91077
1058.489, 32.66089
1058.971, 16.10437
1059.453, 11.12366
1059.935, 34.97217
1060.417, 51.65771
1060.899, 58.19934
1061.381, 56.58594
1061.864, 43.54919
1062.346, 23.66821
1062.828, 21.56226
1063.310, 39.09033
1063.792, 50.69373
1064.274, 31.65015
1064.756, 10.47974
1065.238, 3.083618
1065.720, 8.009521
1066.203, 21.96973
1066.685, 46.45898
1067.167, 66.63220
1067.649, 79.48242
1068.131, 83.42505
1068.613, 70.95020
1069.095, 50.55640
1069.577, 33.82385
1070.059, 21.92651
1070.542, 18.00452
1071.024, 25.48767
1071.506, 33.55615
1071.988, 33.80481
1072.470, 28.51074
1072.952, 23.32593
1073.434, 19.03430
1073.916, 19.67615
1074.399, 32.17920
1074.881, 44.26550
1075.363, 49.42822
1075.845, 52.52710
1076.327, 63.44031
1076.809, 82.45581
1077.291, 92.46667
1077.773, 90.72681
1078.255, 82.01135
1078.738, 62.28516
1079.220, 43.57727
1079.702, 36.07776
1080.184, 41.82947
1080.666, 57.18372
1081.148, 87.60217
1081.630, 109.2432
1082.112, 109.8093
1082.594, 100.5829
1083.077, 102.4648
1083.559, 110.1632
1084.041, 111.7908
1084.523, 94.53894
1085.005, 89.25708
1085.487, 111.1952
1085.969, 133.3534
1086.451, 132.1504
1086.934, 110.9269
1087.416, 96.09265
1087.898, 88.20886
1088.380, 87.42554
1088.862, 95.54517
1089.344, 109.0585
1089.826, 131.9183
1090.308, 157.4607
1090.791, 168.8214
1091.273, 163.3606
1091.755, 164.8311
1092.237, 177.6838
1092.719, 188.3560
1093.201, 178.9434
1093.683, 163.6212
1094.165, 157.5227
1094.647, 162.8944
1095.130, 173.4218
1095.612, 193.2930
1096.094, 206.0977
1096.576, 202.1562
1097.058, 190.8606
1097.540, 191.3475
1098.022, 200.4163
1098.504, 210.6213
1098.987, 219.1085
1099.469, 229.3551
1099.951, 246.4598
1100.433, 261.2773
1100.915, 265.2196
1101.397, 259.3152
1101.879, 259.7723
1102.361, 266.4442
1102.844, 276.9822
1103.326, 293.1091
1103.808, 309.5349
1104.290, 323.8495
1104.772, 335.9111
1105.254, 344.1685
1105.736, 346.8677
1106.218, 358.7837
1106.700, 383.3895
1107.182, 408.4133
1107.665, 419.7262
1108.147, 424.5404
1108.629, 427.7703
1109.111, 430.0302
1109.593, 440.6177
1110.075, 462.6049
1110.557, 486.8792
1111.039, 511.8936
1111.522, 531.9119
1112.004, 528.8440
1112.486, 513.8239
1112.968, 511.8693
1113.450, 539.2064
1113.932, 553.8223
1114.414, 537.9557
1114.896, 518.8301
1115.379, 514.6501
1115.861, 521.1053
1116.343, 502.8481
1116.825, 465.3647
1117.307, 441.6189
1117.789, 470.9346
1118.271, 493.1101
1118.753, 470.6486
1119.235, 431.9901
1119.718, 413.2571
1120.200, 416.2556
1120.682, 409.8066
1121.164, 391.0553
1121.646, 372.8062
1122.128, 369.2131
1122.610, 367.0344
1123.092, 353.0300
1123.574, 329.4071
1124.057, 313.5638
1124.539, 307.0067
1125.021, 307.2738
1125.503, 315.9097
1125.985, 320.8511
1126.467, 299.3939
1126.949, 269.1881
1127.431, 256.7302
1127.914, 270.3835
1128.396, 274.2950
1128.878, 261.6285
1129.360, 246.9102
1129.842, 235.1359
1130.324, 226.3105
1130.806, 221.7584
1131.288, 220.0774
1131.771, 217.7522
1132.253, 213.3003
1132.735, 208.6714
1133.217, 205.5256
1133.699, 200.8319
1134.181, 190.6210
1134.663, 176.1112
1135.145, 168.5312
1135.627, 166.8591
1136.109, 163.9421
1136.592, 154.1390
1137.074, 144.1136
1137.556, 137.2086
1138.038, 131.7246
1138.520, 125.2065
1139.002, 117.6903
1139.484, 109.8909
1139.966, 101.9022
1140.449, 96.14624
1140.931, 92.79236
1141.413, 94.00012
1141.895, 107.5817
1142.377, 128.6533
1142.859, 130.4978
1143.341, 109.2709
1143.823, 87.92493
1144.306, 70.83081
1144.788, 61.21936
1145.270, 67.43628
1145.752, 79.82178
1146.234, 87.19873
1146.716, 87.92224
1147.198, 90.62756
1147.680, 98.40833
1148.162, 100.6633
1148.645, 89.01562
1149.127, 74.18921
1149.609, 77.86523
1150.091, 90.84570
1150.573, 95.70435
1151.055, 83.61951
1151.537, 71.09351
1152.019, 57.50964
1152.501, 47.38269
1152.984, 46.66882
1153.466, 51.35132
1153.948, 47.85889
1154.430, 39.02698
1154.912, 35.23389
1155.394, 46.54370
1155.876, 55.69763
1156.358, 62.45361
1156.841, 62.46692
1157.323, 44.28210
1157.805, 14.29321
1158.287, 4.359985
1158.769, 14.73865
1159.251, 26.42212
1159.733, 32.83057
1160.215, 34.54712
1160.698, 29.91626
1161.180, 22.41040
1161.662, 18.36426
1162.144, 17.67395
1162.626, 21.04626
1163.108, 29.45239
1163.590, 32.14343
1164.072, 9.019165
1164.554, 10.46045
1165.036, 2.287292
1165.519, 26.49585
1166.001, 43.67169
1166.483, 49.25421
1166.965, 41.12335
1167.447, 12.62366
1167.929, 11.11896
1168.411, 2.262817
1168.893, 16.90234
1169.376, 23.41101
1169.858, 16.26617
1170.340, 13.13385
1170.822, 14.45685
1171.304, 12.80420
1171.786, 0.2788700
1172.268, 10.94086
1172.750, 0.3624880
1173.233, 19.65088
1173.715, 31.55463
1174.197, 32.82526
1174.679, 30.55963
1175.161, 24.65527
1175.643, 15.83667
1176.125, 2.807251
1176.607, 18.42950
1177.089, 9.448975
1177.572, 14.77228
1178.054, 28.37775
1178.536, 21.57831
1179.018, 21.74957
1179.500, 32.92157
1179.982, 42.53027
1180.464, 37.27106
1180.946, 23.84412
1181.428, 7.365845
1181.911, 9.893127
1182.393, 17.13922
1182.875, 8.951721
1183.357, 1.992981
1183.839, 15.35944
1184.321, 26.33087
1184.803, 28.68683
1185.285, 25.81757
1185.768, 21.58588
1186.250, 16.56799
1186.732, 18.50684
1187.214, 34.64404
1187.696, 47.20117
1188.178, 51.59363
1188.660, 49.50189
1189.142, 40.74365
1189.625, 28.65302
1190.107, 20.04120
1190.589, 16.41962
1191.071, 14.39233
1191.553, 12.86560
1192.035, 13.14825
1192.517, 16.08789
1192.999, 20.94073
1193.481, 30.52350
1193.964, 41.21307
1194.446, 42.54529
1194.928, 25.20374
1195.410, 14.89722
1195.892, 20.95166
1196.374, 29.87720
1196.856, 34.57489
1197.338, 35.98590
1197.820, 39.16309
1198.303, 42.10413
1198.785, 38.08087
1199.267, 17.32159
1199.749, 0.2502440
1200.231, 11.48700
1200.713, 15.24304
1201.195, 4.463806
1201.677, 16.68359
1202.160, 30.20813
1202.642, 35.73224
1203.124, 31.84918
1203.606, 0.6255490
1204.088, 15.96497
1204.570, 1.244690
1205.052, 22.58643
1205.534, 32.15076
1206.016, 29.97968
1206.499, 25.56604
1206.981, 20.04797
1207.463, 18.11237
1207.945, 26.36005
1208.427, 33.58417
1208.909, 37.68945
1209.391, 37.69647
1209.873, 27.77771
1210.355, 11.64600
1210.838, 10.51160
1211.320, 25.84119
1211.802, 36.19989
1212.284, 23.85297
1212.766, 11.77795
1213.248, 9.000366
1213.730, 11.45337
1214.212, 11.70239
1214.695, 10.05713
1215.177, 6.614441
1215.659, 0.8796390
1216.141, 0.0000000E+00
1216.623, 8.665344
1217.105, 23.15680
1217.587, 47.27551
1218.069, 71.96661
1218.552, 66.39783
1219.034, 38.87152
1219.516, 22.82446
1219.998, 28.73090
1220.480, 34.24994
1220.962, 25.91663
1221.444, 17.95978
1221.926, 18.03693
1222.408, 22.87781
1222.891, 22.61810
1223.373, 18.44354
1223.855, 16.64404
1224.337, 20.44202
1224.819, 24.73859
1225.301, 25.42523
1225.783, 25.70013
1226.265, 30.36743
1226.747, 37.17004
1227.230, 35.38922
1227.712, 27.45972
1228.194, 22.03558
1228.676, 20.17932
1229.158, 26.08215
1229.640, 53.88300
1230.122, 73.69897
1230.604, 60.85144
1231.087, 24.69312
1231.569, 12.98645
1232.051, 19.88452
1232.533, 23.98236
1233.015, 9.961304
1233.497, 1.335571
1233.979, 3.955017
1234.461, 10.69885
1234.943, 21.83173
1235.426, 34.18152
1235.908, 29.82666
1236.390, 13.43945
1236.872, 4.448059
1237.354, 22.97021
1237.836, 32.48468
1238.318, 23.02618
1238.800, 10.18500
1239.282, 11.69000
1239.765, 20.77106
1240.247, 16.96082
1240.729, 4.126099
1241.211, 0.6364140
1241.693, 16.42731
1242.175, 30.94623
1242.657, 38.81445
1243.139, 44.22827
1243.622, 55.70618
1244.104, 66.99011
1244.586, 59.36591
1245.068, 35.62854
1245.550, 20.38086
1246.032, 30.37384
1246.514, 33.18451
1246.996, 20.54095
1247.479, 9.274719
1247.961, 31.54224
1248.443, 64.22742
1248.925, 60.73779
1249.407, 22.84204
1249.889, 1.520264
1250.371, 15.47125
1250.853, 23.01642
1251.335, 14.89203
1251.818, 3.513123
1252.300, 4.223145
1252.782, 11.82379
1253.264, 19.80023
1253.746, 27.51758
1254.228, 35.87592
1254.710, 47.31299
1255.192, 50.97278
1255.674, 42.88800
1256.157, 32.57892
1256.639, 31.04663
1257.121, 34.78381
1257.603, 41.02112
1258.085, 48.56726
1258.567, 52.19281
1259.049, 52.20691
1259.531, 52.65942
1260.014, 55.51843
1260.496, 53.93286
1260.978, 28.79034
1261.460, 2.866821
1261.942, 0.6820680
1262.424, 17.08319
1262.906, 31.18518
1263.388, 41.78992
1263.870, 45.79230
1264.353, 40.84674
1264.835, 34.89771
1265.317, 38.88220
1265.799, 41.99658
1266.281, 30.44275
1266.763, 7.616699
1267.245, 3.768433
1267.727, 18.23907
1268.209, 32.63141
1268.692, 42.56482
1269.174, 47.01257
1269.656, 37.76160
1270.138, 30.29230
1270.620, 39.29785
1271.102, 59.19977
1271.584, 54.95312
1272.066, 31.23920
1272.549, 14.77228
1273.031, 15.51733
1273.513, 20.42914
1273.995, 24.86786
1274.477, 30.08978
1274.959, 38.88177
1275.441, 48.12024
1275.923, 41.64996
1276.406, 25.87946
1276.888, 18.36267
1277.370, 28.87549
1277.852, 36.11847
1278.334, 31.96332
1278.816, 26.85852
1279.298, 26.40771
1279.780, 27.96106
1280.262, 27.36169
1280.745, 23.74597
1281.227, 15.22968
1281.709, 3.984192
1282.191, 13.16528
1282.673, 9.238647
1283.155, 0.2772830
1283.637, 10.38470
1284.119, 21.61877
1284.601, 36.54407
1285.084, 49.77136
1285.566, 53.28180
1286.048, 37.82019
1286.530, 35.92743
1287.012, 50.63568
1287.494, 62.78094
1287.976, 61.06281
1288.458, 52.59961
1288.941, 42.36322
1289.423, 32.04144
1289.905, 23.18445
1290.387, 17.02216
1290.869, 15.15454
1291.351, 17.67316
1291.833, 20.84839
1292.315, 20.90924
1292.797, 23.04944
1293.280, 36.73035
1293.762, 50.66089
1294.244, 51.31787
1294.726, 38.67047
1295.208, 36.95459
1295.690, 44.79547
1296.172, 49.43018
1296.654, 39.47986
1297.136, 32.72955
1297.619, 44.62073
1298.101, 55.21063
1298.583, 46.58447
1299.065, 23.81927
1299.547, 16.75183
1300.029, 17.26562
1300.511, 20.89325
1300.993, 28.26007
1301.476, 32.07648
1301.958, 31.36316
1302.440, 28.21332
1302.922, 21.35254
1303.404, 14.67932
1303.886, 18.70386
1304.368, 29.87683
1304.850, 40.42999
1305.333, 50.42377
1305.815, 54.92505
1306.297, 53.74878
1306.779, 47.72241
1307.261, 31.32190
1307.743, 15.77515
1308.225, 20.68500
1308.707, 34.13489
1309.189, 33.60913
1309.672, 11.16718
1310.154, 4.768494
1310.636, 14.93970
1311.118, 25.15881
1311.600, 26.56049
1312.082, 22.84497
1312.564, 10.16968
1313.046, 1.554749
1313.528, 0.6970830
1314.011, 16.30841
1314.493, 22.74921
1314.975, 20.61108
1315.457, 11.87146
1315.939, 4.171997
1316.421, 0.3489990
1316.903, 2.395081
1317.385, 0.0000000E+00
##END=



