##NAMES=Kunatite
##RRUFFID=R120055
##IDEAL CHEMISTRY=CuFe^3+^_2_(PO_4_)_2_(OH)_2_&#183;4H_2_O
##LOCALITY=Krasno, Horni Slakov, Bohemia, Czech Republic
##OWNER=RRUFF
##SOURCE=William W Pinch
##DESCRIPTION=Spherical aggregates of pale green acicular crystals on quartz, associated with triplite
##STATUS=The identification of this mineral is not yet confirmed.
##URL=rruff.info/R120055
167.4645, 0.0000000E+00
167.9467, 9.0640001E-03
168.4288, 9.3360998E-02
168.9109, 0.7170940
169.3930, 1.441277
169.8751, 1.888138
170.3572, 2.112175
170.8394, 1.782219
171.3215, 1.266907
171.8036, 1.188690
172.2857, 2.130943
172.7678, 3.460014
173.2499, 4.466591
173.7321, 5.056656
174.2142, 5.754257
174.6963, 7.160995
175.1784, 9.075653
175.6605, 11.05492
176.1426, 12.37201
176.6248, 13.73868
177.1069, 16.30611
177.5890, 20.41397
178.0711, 24.87738
178.5532, 28.05533
179.0353, 30.42424
179.5175, 33.49744
179.9996, 38.53998
180.4817, 44.83113
180.9638, 51.20824
181.4459, 57.64648
181.9280, 63.89127
182.4102, 69.83734
182.8923, 75.35538
183.3744, 80.51816
183.8565, 85.43965
184.3386, 90.00954
184.8207, 93.48779
185.3029, 95.43011
185.7850, 96.97620
186.2671, 100.8420
186.7492, 106.8703
187.2313, 112.1384
187.7134, 113.3779
188.1956, 111.2715
188.6777, 109.7164
189.1598, 109.6373
189.6419, 110.1174
190.1240, 110.1893
190.6061, 109.7714
191.0883, 107.9338
191.5704, 103.5736
192.0525, 96.96213
192.5346, 91.14819
193.0167, 86.88736
193.4988, 83.40866
193.9810, 78.31656
194.4631, 71.36087
194.9452, 64.45682
195.4273, 57.86703
195.9094, 51.58394
196.3915, 46.16687
196.8737, 41.86153
197.3558, 38.41006
197.8379, 34.85008
198.3200, 31.15083
198.8021, 27.55598
199.2842, 24.26352
199.7664, 21.25224
200.2485, 18.63380
200.7306, 16.49924
201.2127, 14.76785
201.6948, 13.03317
202.1769, 11.37709
202.6591, 9.495560
203.1412, 6.773804
203.6233, 2.948242
204.1054, 0.2142640
204.5875, 0.5896610
205.0696, 0.2506100
205.5518, 4.2633001E-02
206.0339, 1.564743
206.5160, 3.412064
206.9981, 4.272034
207.4802, 3.992462
207.9623, 3.475540
208.4445, 2.798309
208.9266, 1.980148
209.4087, 1.746475
209.8908, 2.325989
210.3729, 3.059296
210.8550, 3.107574
211.3372, 2.187393
211.8193, 1.660217
212.3014, 2.213577
212.7835, 3.857773
213.2656, 3.838425
213.7477, 1.667480
214.2299, 1.461380
214.7120, 4.197388
215.1941, 6.568970
215.6762, 8.543045
216.1583, 10.00511
216.6404, 10.89064
217.1226, 12.17177
217.6047, 14.05849
218.0868, 16.08862
218.5689, 17.58347
219.0510, 18.00911
219.5331, 19.20694
220.0153, 21.88226
220.4974, 26.23296
220.9795, 30.05305
221.4616, 33.37517
221.9437, 36.19702
222.4258, 38.40732
222.9080, 39.40175
223.3901, 41.05217
223.8722, 43.83205
224.3543, 47.83978
224.8364, 52.36810
225.3185, 57.28546
225.8007, 62.38080
226.2828, 66.89888
226.7649, 70.49777
227.2470, 74.05740
227.7291, 77.63049
228.2112, 81.21466
228.6934, 85.24770
229.1755, 89.88605
229.6576, 94.82552
230.1397, 99.51596
230.6218, 103.6508
231.1039, 108.2298
231.5861, 113.4441
232.0682, 119.4131
232.5503, 125.8221
233.0324, 132.9648
233.5145, 140.2863
233.9966, 147.0961
234.4788, 152.7593
234.9609, 158.9953
235.4430, 166.4384
235.9251, 175.3411
236.4072, 183.7792
236.8893, 192.0861
237.3715, 199.6633
237.8536, 205.6440
238.3357, 209.4154
238.8178, 212.7753
239.2999, 216.2373
239.7820, 219.8608
240.2642, 222.8045
240.7463, 224.8784
241.2284, 226.4156
241.7105, 227.8465
242.1926, 229.3665
242.6747, 230.3988
243.1569, 230.7377
243.6390, 230.3212
244.1211, 229.7212
244.6032, 229.0726
245.0853, 228.1227
245.5674, 226.5887
246.0496, 224.4363
246.5317, 221.7833
247.0138, 218.7158
247.4959, 215.2657
247.9780, 210.8500
248.4601, 204.7555
248.9423, 198.3875
249.4244, 193.3787
249.9065, 190.4651
250.3886, 187.5082
250.8707, 184.2633
251.3528, 180.8046
251.8350, 176.0104
252.3171, 169.3901
252.7992, 162.0342
253.2813, 155.0919
253.7634, 149.0135
254.2455, 142.4905
254.7277, 135.1450
255.2098, 126.9238
255.6919, 118.8859
256.1740, 111.1302
256.6561, 103.4261
257.1382, 95.54733
257.6204, 87.00153
258.1025, 79.33429
258.5846, 73.02780
259.0667, 68.00140
259.5488, 63.16922
260.0309, 58.67453
260.5131, 54.30283
260.9952, 49.84103
261.4773, 44.96179
261.9594, 40.85745
262.4415, 37.91544
262.9236, 36.01816
263.4058, 34.01428
263.8879, 31.67007
264.3700, 29.52563
264.8521, 28.07870
265.3342, 27.61572
265.8163, 26.99734
266.2985, 25.90271
266.7806, 24.50690
267.2627, 23.84991
267.7448, 24.13297
268.2269, 24.69067
268.7090, 25.03955
269.1912, 25.11707
269.6733, 25.30560
270.1554, 25.53329
270.6375, 25.88751
271.1196, 26.88272
271.6017, 28.67474
272.0839, 30.77310
272.5660, 32.90454
273.0481, 35.13324
273.5302, 37.04666
274.0123, 38.62421
274.4944, 39.87280
274.9766, 40.57666
275.4587, 40.44882
275.9408, 40.89035
276.4229, 43.14673
276.9050, 47.44751
277.3871, 50.68076
277.8693, 52.32123
278.3514, 53.13782
278.8335, 54.84476
279.3156, 57.56735
279.7977, 60.53537
280.2798, 63.49469
280.7620, 66.42346
281.2441, 68.78455
281.7262, 70.32263
282.2083, 71.68906
282.6904, 74.13919
283.1725, 77.73462
283.6547, 81.51364
284.1368, 85.18134
284.6189, 88.68225
285.1010, 91.62787
285.5831, 93.88791
286.0652, 95.93323
286.5474, 98.43835
287.0295, 101.3963
287.5116, 104.4876
287.9937, 107.8571
288.4758, 111.3648
288.9579, 113.8936
289.4401, 115.3659
289.9222, 116.4289
290.4043, 117.8783
290.8864, 119.6557
291.3685, 121.2870
291.8506, 122.5542
292.3328, 123.5429
292.8149, 124.4771
293.2970, 125.3667
293.7791, 126.1254
294.2612, 126.5232
294.7433, 126.6684
295.2255, 126.9944
295.7076, 127.6788
296.1897, 128.6116
296.6718, 129.6761
297.1539, 130.8620
297.6360, 131.8990
298.1182, 132.3263
298.6003, 132.4109
299.0824, 132.8476
299.5645, 133.9407
300.0466, 135.3482
300.5287, 136.7830
301.0109, 138.1934
301.4930, 139.2364
301.9751, 139.3462
302.4572, 138.9725
302.9393, 138.8602
303.4214, 139.1559
303.9036, 139.7844
304.3857, 140.8272
304.8678, 142.1808
305.3499, 143.4708
305.8320, 144.6276
306.3141, 145.5449
306.7963, 146.0320
307.2784, 145.9875
307.7605, 145.7226
308.2426, 145.3586
308.7247, 144.9630
309.2068, 144.7134
309.6890, 145.1825
310.1711, 145.4958
310.6532, 144.6333
311.1353, 142.3380
311.6174, 140.0898
312.0995, 139.1105
312.5817, 138.7369
313.0638, 137.8565
313.5459, 136.3255
314.0280, 134.0053
314.5101, 130.4451
314.9922, 125.5332
315.4744, 121.1427
315.9565, 119.0497
316.4386, 117.6287
316.9207, 115.0504
317.4028, 109.6292
317.8849, 104.0240
318.3671, 99.46428
318.8492, 95.90070
319.3313, 92.22781
319.8134, 87.79254
320.2955, 83.15433
320.7776, 78.79947
321.2598, 74.95528
321.7419, 71.24603
322.2240, 67.71021
322.7061, 64.31818
323.1882, 60.81676
323.6703, 57.07744
324.1525, 53.14600
324.6346, 49.05737
325.1167, 44.22737
325.5988, 40.20248
326.0809, 37.53174
326.5630, 35.75287
327.0452, 33.70847
327.5273, 30.93198
328.0094, 28.31384
328.4915, 26.19061
328.9736, 24.83081
329.4557, 23.35741
329.9379, 21.68869
330.4200, 19.93103
330.9021, 18.26489
331.3842, 16.48004
331.8663, 15.07991
332.3484, 14.23828
332.8306, 14.02371
333.3127, 13.84219
333.7948, 13.85179
334.2769, 13.78670
334.7590, 13.27765
335.2411, 11.99303
335.7233, 10.99344
336.2054, 10.62378
336.6875, 10.83144
337.1696, 10.69142
337.6517, 10.03209
338.1339, 9.366287
338.6160, 9.194092
339.0981, 9.644409
339.5802, 9.919708
340.0623, 9.853134
340.5444, 9.555450
341.0266, 9.431274
341.5087, 9.495926
341.9908, 9.609085
342.4729, 9.712540
342.9550, 9.804733
343.4371, 9.711121
343.9193, 9.316391
344.4014, 8.922516
344.8835, 9.256638
345.3656, 10.31206
345.8477, 11.18913
346.3298, 11.20644
346.8120, 10.62032
347.2941, 10.76128
347.7762, 11.81676
348.2583, 12.75215
348.7404, 11.80101
349.2225, 9.480804
349.7047, 8.019821
350.1868, 9.115128
350.6689, 11.22330
351.1510, 11.27132
351.6331, 9.298828
352.1152, 7.365021
352.5974, 7.668762
353.0795, 9.163254
353.5616, 9.843124
354.0437, 8.700363
354.5258, 7.116455
355.0079, 6.359848
355.4901, 6.350449
355.9722, 6.694534
356.4543, 8.033356
356.9364, 9.188599
357.4185, 8.622635
357.9006, 5.285156
358.3828, 2.346008
358.8649, 2.464294
359.3470, 4.387405
359.8291, 5.571762
360.3112, 3.954605
360.7933, 1.980957
361.2755, 1.215652
361.7576, 1.981201
362.2397, 2.624619
362.7218, 2.459396
363.2039, 1.859894
363.6860, 1.244568
364.1682, 0.5431670
364.6503, 7.6139998E-03
365.1324, 0.1316680
365.6145, 9.6115001E-02
366.0966, 8.2442999E-02
366.5787, 0.7015530
367.0609, 1.489410
367.5430, 1.790283
368.0251, 0.4785160
368.5072, 3.0609000E-02
368.9893, 1.123856
369.4714, 3.302994
369.9536, 4.339554
370.4357, 3.157089
370.9178, 1.966705
371.3999, 1.669968
371.8820, 2.637665
372.3641, 3.588531
372.8463, 4.774796
373.3284, 5.769165
373.8105, 5.796951
374.2926, 4.354980
374.7747, 3.070892
375.2568, 2.377655
375.7390, 2.279800
376.2211, 2.595123
376.7032, 3.555115
377.1853, 4.461792
377.6674, 4.559677
378.1495, 3.748367
378.6317, 3.008362
379.1138, 2.464233
379.5959, 2.147415
380.0780, 2.334488
380.5601, 3.089401
381.0422, 3.601563
381.5244, 2.955460
382.0065, 1.440308
382.4886, 0.8429410
382.9707, 1.543991
383.4528, 2.589722
383.9349, 2.542328
384.4171, 1.573273
384.8992, 0.6392060
385.3813, 0.3348240
385.8634, 0.3197020
386.3455, 1.5945001E-02
386.8276, 0.6975710
387.3098, 1.464523
387.7919, 2.221436
388.2740, 2.894897
388.7561, 3.329010
389.2382, 3.094650
389.7203, 2.971771
390.2025, 3.817001
390.6846, 5.430481
391.1667, 6.899063
391.6488, 7.448685
392.1309, 7.762375
392.6130, 8.415344
393.0952, 9.573837
393.5773, 10.94292
394.0594, 12.74643
394.5415, 14.63846
395.0236, 15.97601
395.5057, 15.84126
395.9879, 15.75366
396.4700, 16.31958
396.9521, 17.64412
397.4342, 19.23479
397.9163, 21.37349
398.3984, 23.57585
398.8806, 25.39946
399.3627, 26.48592
399.8448, 27.56940
400.3269, 28.78786
400.8090, 30.10439
401.2911, 31.16426
401.7733, 31.60872
402.2554, 32.22787
402.7375, 33.49072
403.2196, 35.75775
403.7017, 37.73578
404.1838, 39.19595
404.6660, 40.51550
405.1481, 42.52679
405.6302, 45.54152
406.1123, 48.12956
406.5944, 49.58548
407.0765, 49.98856
407.5587, 50.99158
408.0408, 52.70160
408.5229, 54.61290
409.0050, 56.21181
409.4871, 57.51039
409.9692, 58.78879
410.4514, 60.05661
410.9335, 61.40439
411.4156, 63.16370
411.8977, 65.27454
412.3798, 67.24268
412.8619, 68.29478
413.3441, 69.02878
413.8262, 70.84305
414.3083, 74.10950
414.7904, 77.41576
415.2725, 79.13269
415.7546, 79.89536
416.2368, 81.06461
416.7189, 83.79126
417.2010, 86.76065
417.6831, 88.78674
418.1652, 89.90199
418.6473, 91.25972
419.1295, 93.46707
419.6116, 96.19550
420.0937, 99.18491
420.5758, 103.1474
421.0579, 106.2807
421.5400, 107.5356
422.0222, 107.5243
422.5043, 107.8207
422.9864, 108.3275
423.4685, 109.6549
423.9506, 112.3793
424.4327, 117.2513
424.9149, 120.8112
425.3970, 122.1660
425.8791, 122.7297
426.3612, 123.7839
426.8433, 125.6878
427.3254, 127.1826
427.8076, 128.1490
428.2897, 128.7548
428.7718, 129.2270
429.2539, 129.5910
429.7360, 129.5094
430.2181, 128.7137
430.7003, 127.0739
431.1824, 125.5145
431.6645, 124.2346
432.1466, 123.0151
432.6287, 121.2142
433.1108, 118.7970
433.5930, 116.5224
434.0751, 114.8245
434.5572, 113.4273
435.0393, 111.4417
435.5214, 108.9106
436.0035, 106.4165
436.4857, 104.4620
436.9678, 102.9089
437.4499, 101.3878
437.9320, 99.75665
438.4141, 98.13834
438.8962, 96.76141
439.3784, 95.62814
439.8605, 94.58572
440.3426, 93.29269
440.8247, 92.02194
441.3068, 91.13181
441.7889, 90.76416
442.2711, 90.35313
442.7532, 89.40924
443.2353, 88.28781
443.7174, 87.38014
444.1995, 86.74435
444.6816, 86.44997
445.1638, 86.49352
445.6459, 86.87466
446.1280, 87.61507
446.6101, 89.47607
447.0922, 91.03384
447.5743, 91.54811
448.0565, 90.32739
448.5386, 89.94516
449.0207, 91.06453
449.5028, 92.56949
449.9849, 92.96732
450.4670, 91.79095
450.9492, 90.61383
451.4313, 89.91457
451.9134, 89.53935
452.3955, 88.24179
452.8776, 85.80946
453.3597, 83.28812
453.8419, 81.43765
454.3240, 80.25621
454.8061, 79.08569
455.2882, 77.92166
455.7703, 76.64825
456.2524, 75.17920
456.7346, 73.47543
457.2167, 71.42714
457.6988, 68.60605
458.1809, 65.54642
458.6630, 63.20978
459.1451, 61.57318
459.6273, 59.99481
460.1094, 57.81198
460.5915, 55.47699
461.0736, 53.62158
461.5557, 52.52193
462.0378, 51.57684
462.5200, 50.60435
463.0021, 49.49153
463.4842, 48.03249
463.9663, 45.85777
464.4484, 43.56612
464.9305, 41.34335
465.4127, 39.18156
465.8948, 37.49750
466.3769, 36.74538
466.8590, 36.29887
467.3411, 35.71251
467.8232, 35.08191
468.3054, 34.11981
468.7875, 32.53441
469.2696, 30.66942
469.7517, 29.40300
470.2338, 29.01321
470.7159, 28.71715
471.1981, 28.22148
471.6802, 27.51396
472.1623, 27.13283
472.6444, 27.31010
473.1265, 27.17287
473.6086, 25.48303
474.0908, 22.29553
474.5729, 19.99437
475.0550, 19.17479
475.5371, 19.12550
476.0192, 18.70534
476.5013, 17.94572
476.9835, 17.01790
477.4656, 15.48103
477.9477, 13.95229
478.4298, 13.69991
478.9119, 14.80635
479.3940, 16.01855
479.8762, 16.62213
480.3583, 16.66046
480.8404, 16.13101
481.3225, 14.51558
481.8046, 13.04198
482.2867, 12.55635
482.7689, 12.72162
483.2510, 12.66519
483.7331, 11.89310
484.2152, 11.02246
484.6973, 10.31616
485.1794, 9.811905
485.6616, 9.369263
486.1437, 8.870575
486.6258, 8.495789
487.1079, 8.374466
487.5900, 8.490692
488.0721, 8.910095
488.5543, 9.763321
489.0364, 10.87738
489.5185, 11.80444
490.0006, 12.58664
490.4827, 13.00003
490.9648, 12.79840
491.4470, 12.02124
491.9291, 11.52087
492.4112, 11.31483
492.8933, 11.32080
493.3754, 11.51051
493.8575, 11.85741
494.3397, 12.27399
494.8218, 12.81586
495.3039, 13.27872
495.7860, 13.30139
496.2681, 12.98387
496.7502, 12.66252
497.2324, 12.28499
497.7145, 12.12965
498.1966, 12.75156
498.6787, 14.18042
499.1608, 15.05487
499.6429, 13.77391
500.1251, 12.08008
500.6072, 11.53696
501.0893, 13.71519
501.5714, 15.38258
502.0535, 15.53764
502.5356, 14.70993
503.0178, 14.11998
503.4999, 14.21101
503.9820, 14.14531
504.4641, 13.48198
504.9462, 12.15619
505.4283, 12.02855
505.9105, 13.80756
506.3926, 15.69902
506.8747, 16.13165
507.3568, 14.78775
507.8389, 14.29666
508.3210, 15.17758
508.8032, 16.53082
509.2853, 16.60657
509.7674, 15.48970
510.2495, 14.61766
510.7316, 14.75294
511.2137, 15.44031
511.6959, 15.68019
512.1780, 15.49945
512.6601, 15.29277
513.1422, 15.42091
513.6243, 15.66220
514.1064, 15.80594
514.5886, 15.90228
515.0707, 15.58336
515.5528, 13.98077
516.0349, 11.98732
516.5170, 10.86339
516.9991, 11.98404
517.4813, 13.05542
517.9634, 13.26012
518.4455, 12.68954
518.9276, 12.20383
519.4097, 12.32890
519.8918, 12.17773
520.3740, 11.27202
520.8561, 9.148468
521.3382, 7.802826
521.8203, 7.514130
522.3024, 7.672974
522.7845, 7.595428
523.2667, 7.247650
523.7488, 6.828888
524.2309, 6.380493
524.7130, 5.886749
525.1951, 5.244476
525.6772, 4.455475
526.1594, 3.755554
526.6415, 3.411102
527.1236, 3.218521
527.6057, 2.707565
528.0878, 1.867050
528.5699, 0.9080050
529.0521, 0.1905360
529.5342, 1.219589
530.0163, 1.848450
530.4984, 1.727631
530.9805, 1.659286
531.4626, 2.303711
531.9448, 3.291168
532.4269, 3.901749
532.9090, 3.464111
533.3911, 3.080673
533.8732, 3.292892
534.3553, 4.146393
534.8375, 4.468597
535.3196, 4.018021
535.8017, 3.251404
536.2838, 2.430893
536.7659, 1.644394
537.2480, 0.4290470
537.7302, 1.574692
538.2123, 3.515823
538.6944, 3.830750
539.1765, 2.377319
539.6586, 1.358887
540.1407, 1.473587
540.6229, 2.324463
541.1050, 2.961594
541.5871, 3.430450
542.0692, 4.159790
542.5513, 5.912369
543.0334, 7.923553
543.5156, 8.858124
543.9977, 8.595779
544.4798, 8.278854
544.9619, 8.752228
545.4440, 9.586685
545.9261, 10.28613
546.4083, 10.33583
546.8904, 10.77603
547.3725, 12.25237
547.8546, 14.33705
548.3367, 16.14287
548.8188, 17.68657
549.3010, 18.75484
549.7831, 19.10014
550.2652, 18.73628
550.7473, 18.85443
551.2294, 19.77065
551.7115, 20.63451
552.1937, 20.85220
552.6758, 20.34409
553.1579, 19.98758
553.6400, 19.84669
554.1221, 19.79744
554.6042, 19.67126
555.0864, 19.48492
555.5685, 19.31815
556.0506, 19.13820
556.5327, 19.06908
557.0148, 19.20200
557.4969, 19.57465
557.9791, 20.33711
558.4612, 21.97029
558.9433, 23.75060
559.4254, 25.07394
559.9075, 25.89806
560.3896, 26.55884
560.8718, 26.85835
561.3539, 27.24936
561.8360, 28.09981
562.3181, 30.20918
562.8002, 31.62134
563.2823, 31.30856
563.7645, 30.65875
564.2466, 32.02521
564.7287, 36.71185
565.2108, 40.43320
565.6929, 41.93446
566.1750, 41.75214
566.6572, 42.32005
567.1393, 43.65709
567.6214, 45.28403
568.1035, 47.12505
568.5856, 49.08624
569.0677, 50.65289
569.5499, 51.77121
570.0320, 52.81798
570.5141, 54.99190
570.9962, 57.13771
571.4783, 57.07942
571.9604, 53.18565
572.4426, 49.29073
572.9247, 48.06943
573.4068, 48.43068
573.8889, 48.41663
574.3710, 47.46887
574.8531, 46.14384
575.3353, 44.50221
575.8174, 42.59068
576.2995, 40.76756
576.7816, 39.07719
577.2637, 37.43692
577.7458, 35.86362
578.2280, 34.47949
578.7101, 32.47952
579.1922, 29.45779
579.6743, 26.66484
580.1564, 25.95288
580.6385, 27.14650
581.1207, 26.87515
581.6028, 24.10460
582.0849, 20.74838
582.5670, 19.94066
583.0491, 21.04782
583.5313, 21.94688
584.0134, 21.24393
584.4955, 20.08911
584.9776, 19.55212
585.4597, 19.53218
585.9418, 19.44489
586.4240, 18.72812
586.9061, 18.12738
587.3882, 18.12814
587.8703, 18.98575
588.3524, 19.73750
588.8345, 20.21039
589.3167, 20.47375
589.7988, 20.61520
590.2809, 20.73825
590.7630, 20.58037
591.2451, 20.00299
591.7272, 19.25778
592.2094, 18.75383
592.6915, 18.49922
593.1736, 18.69702
593.6557, 19.76627
594.1378, 21.09763
594.6199, 20.94453
595.1021, 19.50328
595.5842, 18.22746
596.0663, 18.46529
596.5484, 19.16182
597.0305, 19.00893
597.5126, 17.88255
597.9948, 16.74477
598.4769, 16.07321
598.9590, 15.66380
599.4411, 15.36049
599.9232, 15.33614
600.4053, 15.08820
600.8875, 14.40483
601.3696, 13.51790
601.8517, 12.72903
602.3338, 11.98880
602.8159, 11.47112
603.2980, 11.23923
603.7802, 11.21501
604.2623, 11.26793
604.7444, 11.47296
605.2265, 11.23364
605.7086, 9.806244
606.1907, 7.671417
606.6729, 6.561066
607.1550, 6.466263
607.6371, 6.733780
608.1192, 7.169815
608.6013, 7.525833
609.0834, 7.437958
609.5656, 6.772156
610.0477, 5.947479
610.5298, 4.846634
611.0119, 3.870178
611.4940, 3.453400
611.9761, 4.213760
612.4583, 4.944000
612.9404, 5.561844
613.4225, 6.032196
613.9046, 6.253342
614.3867, 6.172729
614.8688, 5.939423
615.3510, 5.607468
615.8331, 5.163239
616.3152, 4.432388
616.7973, 3.381271
617.2794, 2.398895
617.7615, 1.744507
618.2437, 1.367065
618.7258, 1.163208
619.2079, 1.126465
619.6900, 1.112534
620.1721, 1.032928
620.6542, 0.8846740
621.1364, 0.6645810
621.6185, 0.3410800
622.1006, 3.1280001E-03
622.5827, 0.3048400
623.0648, 0.6083370
623.5469, 0.9430240
624.0291, 1.733124
624.5112, 2.016998
624.9933, 1.339798
625.4754, 7.6263003E-02
625.9575, 0.4230190
626.4396, 0.1132970
626.9218, 0.5957950
627.4039, 0.5156710
627.8860, 1.2405000E-02
628.3681, 1.8753000E-02
628.8502, 0.4349520
629.3323, 0.9960940
629.8145, 1.690628
630.2966, 2.220848
630.7787, 1.777115
631.2608, 0.1980590
631.7429, 1.171280
632.2250, 1.127335
632.7072, 0.4323430
633.1893, 0.1081090
633.6714, 0.2796250
634.1535, 0.3034060
634.6356, 8.8180996E-02
635.1177, 0.2005920
635.5999, 0.2856980
636.0820, 6.5398999E-02
636.5641, 0.2539980
637.0462, 0.1939930
637.5283, 9.8434001E-02
638.0104, 0.7016370
638.4926, 1.730721
638.9747, 2.377449
639.4568, 2.142609
639.9389, 1.269783
640.4210, 0.4352650
640.9031, 0.3486020
641.3853, 0.7889020
641.8674, 0.5796810
642.3495, 3.0861000E-02
642.8316, 0.8844380
643.3137, 2.016838
643.7958, 2.861649
644.2780, 3.098633
644.7601, 2.948212
645.2422, 2.568123
645.7243, 1.372398
646.2064, 0.9272920
646.6885, 1.646965
647.1707, 2.923576
647.6528, 4.052773
648.1349, 5.207306
648.6170, 5.595924
649.0991, 4.814392
649.5812, 3.445961
650.0634, 2.819031
650.5455, 2.896835
651.0276, 3.236534
651.5097, 3.847534
651.9918, 4.468216
652.4739, 4.535004
652.9561, 4.169319
653.4382, 4.011467
653.9203, 4.755325
654.4024, 5.596565
654.8845, 5.879669
655.3666, 5.475220
655.8488, 5.371635
656.3309, 6.011642
656.8130, 6.848267
657.2951, 7.618904
657.7772, 8.562668
658.2593, 8.724014
658.7415, 7.834969
659.2236, 6.592026
659.7057, 5.628845
660.1878, 4.954430
660.6699, 5.050949
661.1520, 6.227539
661.6342, 7.638306
662.1163, 7.950195
662.5984, 7.523430
663.0805, 7.309692
663.5626, 7.971573
664.0447, 8.694206
664.5269, 8.824013
665.0090, 8.541367
665.4911, 8.379181
665.9732, 8.293373
666.4553, 8.560959
666.9374, 9.589798
667.4196, 11.28898
667.9017, 12.17673
668.3838, 11.94309
668.8659, 11.50462
669.3480, 11.37084
669.8301, 11.53766
670.3123, 11.14005
670.7944, 10.06279
671.2765, 9.279686
671.7586, 10.09332
672.2407, 11.77193
672.7228, 12.59290
673.2050, 12.23663
673.6871, 11.60970
674.1692, 11.08354
674.6513, 10.79251
675.1334, 10.93414
675.6155, 12.10400
676.0977, 12.88011
676.5798, 12.55849
677.0619, 11.77618
677.5440, 11.48181
678.0261, 11.86852
678.5082, 12.42845
678.9904, 13.21407
679.4725, 13.96285
679.9546, 13.77091
680.4367, 12.63203
680.9188, 12.08012
681.4009, 13.27656
681.8831, 15.10381
682.3652, 15.49601
682.8473, 14.72751
683.3294, 13.90195
683.8115, 13.41377
684.2936, 13.00388
684.7758, 12.52766
685.2579, 12.12388
685.7400, 11.66959
686.2221, 10.96213
686.7042, 10.37231
687.1863, 10.03520
687.6685, 9.968994
688.1506, 9.884552
688.6327, 9.816254
689.1148, 9.947304
689.5969, 10.36149
690.0790, 10.97533
690.5612, 11.61343
691.0433, 12.32218
691.5254, 12.81197
692.0075, 12.60834
692.4896, 11.96934
692.9717, 11.33823
693.4539, 10.73161
693.9360, 10.17434
694.4181, 9.831825
694.9002, 9.612053
695.3823, 9.317711
695.8644, 8.500023
696.3466, 8.193726
696.8287, 8.946442
697.3108, 10.13438
697.7929, 9.998550
698.2750, 8.093819
698.7571, 6.517410
699.2393, 6.051025
699.7214, 6.401794
700.2035, 6.683990
700.6856, 6.902161
701.1677, 7.037567
701.6498, 7.037636
702.1320, 6.932594
702.6141, 6.699821
703.0962, 6.358673
703.5783, 6.085312
704.0604, 6.074265
704.5425, 6.143661
705.0247, 6.171288
705.5068, 6.115753
705.9889, 6.093468
706.4710, 6.140831
706.9531, 6.140564
707.4352, 5.984520
707.9174, 5.660362
708.3995, 5.368538
708.8816, 5.078796
709.3637, 5.022865
709.8458, 5.709236
710.3279, 6.785034
710.8101, 7.405357
711.2922, 7.402679
711.7743, 7.026398
712.2564, 5.945602
712.7385, 4.796219
713.2206, 4.364883
713.7028, 5.669411
714.1849, 6.601997
714.6670, 6.480843
715.1491, 5.890388
715.6312, 5.617355
716.1133, 5.817146
716.5955, 5.873878
717.0776, 5.632515
717.5597, 5.239807
718.0418, 4.944725
718.5239, 4.765617
719.0060, 4.851898
719.4882, 5.508919
719.9703, 6.166992
720.4524, 6.024742
720.9345, 5.289673
721.4166, 4.583260
721.8987, 4.179779
722.3809, 3.877266
722.8630, 3.546799
723.3451, 3.212891
723.8272, 3.100441
724.3093, 3.249680
724.7914, 3.595680
725.2736, 4.308105
725.7557, 5.292068
726.2378, 5.188927
726.7199, 3.856445
727.2020, 2.655304
727.6841, 2.783485
728.1663, 3.617973
728.6484, 3.677780
729.1305, 2.944855
729.6126, 2.271889
730.0947, 2.341927
730.5768, 2.634636
731.0590, 2.730774
731.5411, 2.535240
732.0232, 2.354622
732.5053, 2.314201
732.9874, 2.247192
733.4695, 2.060844
733.9517, 1.748306
734.4338, 1.274757
734.9159, 0.5806500
735.3980, 0.1177290
735.8801, 0.6821210
736.3622, 1.067520
736.8444, 1.010773
737.3265, 0.4033430
737.8086, 0.3086090
738.2907, 0.8814010
738.7728, 1.236740
739.2549, 1.250565
739.7371, 0.7518010
740.2192, 0.1531980
740.7013, 0.9419400
741.1834, 1.844810
741.6655, 1.514000
742.1476, 1.106857
742.6298, 2.314575
743.1119, 1.251892
743.5940, 0.8660430
744.0761, 1.942780
744.5582, 2.036469
745.0403, 1.728180
745.5225, 1.013458
746.0046, 0.2759860
746.4867, 7.8735001E-02
746.9688, 0.2130890
747.4509, 0.2312320
747.9330, 0.3295750
748.4152, 0.7452240
748.8973, 0.6727600
749.3794, 0.2276610
749.8615, 0.2159880
750.3436, 0.8479310
750.8257, 1.081833
751.3079, 0.5928960
751.7900, 0.3349000
752.2721, 0.5848690
752.7542, 0.1617890
753.2363, 0.2703400
753.7184, 0.4738920
754.2006, 0.4361720
754.6827, 7.2250001E-02
755.1648, 0.5723110
755.6469, 1.293213
756.1290, 2.197891
756.6111, 2.958694
757.0933, 3.374512
757.5754, 3.446198
758.0575, 3.508102
758.5396, 3.668274
759.0217, 3.664413
759.5038, 3.205139
759.9860, 2.396530
760.4681, 2.690308
760.9502, 4.185913
761.4323, 5.570007
761.9144, 5.675674
762.3965, 5.187241
762.8787, 5.405533
763.3608, 6.316528
763.8429, 7.285797
764.3250, 8.160812
764.8071, 8.781036
765.2892, 8.843857
765.7714, 8.194717
766.2535, 8.194626
766.7356, 9.308075
767.2177, 10.56046
767.6998, 11.47855
768.1819, 12.07251
768.6641, 12.25696
769.1462, 11.99231
769.6283, 11.60458
770.1104, 11.22968
770.5925, 10.95787
771.0746, 11.04118
771.5568, 11.52187
772.0389, 12.00354
772.5210, 12.35019
773.0031, 12.51941
773.4852, 12.41917
773.9673, 11.85959
774.4495, 11.61998
774.9316, 11.82991
775.4137, 12.22861
775.8958, 12.74474
776.3779, 13.42883
776.8600, 13.46262
777.3422, 12.73344
777.8243, 11.90810
778.3064, 11.73868
778.7885, 11.93552
779.2706, 11.93236
779.7527, 11.61005
780.2349, 11.28641
780.7170, 11.09076
781.1991, 11.01625
781.6812, 11.10080
782.1633, 11.72664
782.6454, 11.73181
783.1276, 10.87627
783.6097, 9.686584
784.0918, 8.594238
784.5739, 7.595032
785.0560, 6.910172
785.5381, 6.579010
786.0203, 6.539749
786.5024, 7.065811
786.9845, 7.735168
787.4666, 7.704208
787.9487, 6.496185
788.4308, 5.556351
788.9130, 6.147964
789.3951, 7.057755
789.8772, 6.986450
790.3593, 4.822296
790.8414, 3.555237
791.3235, 3.456055
791.8057, 3.919876
792.2878, 4.416611
792.7699, 4.915970
793.2520, 4.768250
793.7341, 3.745636
794.2162, 2.650299
794.6984, 2.443741
795.1805, 2.771118
795.6626, 3.031448
796.1447, 3.076004
796.6268, 2.965469
797.1089, 2.421570
797.5911, 1.888184
798.0732, 1.865005
798.5553, 2.525589
799.0374, 3.151398
799.5195, 3.831940
800.0016, 4.551102
800.4838, 4.913101
800.9659, 5.037247
801.4480, 5.744965
801.9301, 7.400604
802.4122, 8.863297
802.8943, 8.594604
803.3765, 7.611191
803.8586, 7.229019
804.3407, 8.024139
804.8228, 8.863556
805.3049, 9.360779
805.7870, 9.920990
806.2692, 11.01534
806.7513, 12.88586
807.2334, 14.21471
807.7155, 14.69930
808.1976, 15.05217
808.6797, 16.53595
809.1619, 18.73578
809.6440, 20.18927
810.1261, 20.34955
810.6082, 20.51132
811.0903, 21.76962
811.5724, 23.46414
812.0546, 24.87000
812.5367, 25.46126
813.0188, 26.43456
813.5009, 28.13460
813.9830, 29.94855
814.4651, 31.01141
814.9473, 31.24229
815.4294, 32.52621
815.9115, 35.28305
816.3936, 38.10098
816.8757, 39.00435
817.3578, 38.87170
817.8400, 39.34195
818.3221, 40.99098
818.8042, 42.57991
819.2863, 43.29176
819.7684, 43.79199
820.2505, 44.76115
820.7327, 46.62148
821.2148, 47.73747
821.6969, 47.78221
822.1790, 47.73296
822.6611, 48.79538
823.1432, 50.75406
823.6254, 52.14813
824.1075, 52.80579
824.5896, 53.09425
825.0717, 52.71252
825.5538, 52.46667
826.0359, 53.56262
826.5181, 56.87762
827.0002, 59.14432
827.4823, 58.90099
827.9644, 57.94695
828.4465, 57.29681
828.9286, 56.88393
829.4108, 57.28992
829.8929, 58.67853
830.3750, 60.18320
830.8571, 60.81476
831.3392, 61.00723
831.8214, 61.92734
832.3035, 63.72241
832.7856, 65.02570
833.2677, 64.25093
833.7498, 63.14771
834.2319, 63.08224
834.7141, 64.50528
835.1962, 65.77072
835.6783, 66.94278
836.1604, 67.83298
836.6425, 68.09586
837.1246, 67.80750
837.6068, 68.39406
838.0889, 69.86935
838.5710, 71.05399
839.0531, 70.61874
839.5352, 69.67732
840.0173, 69.37807
840.4995, 69.80411
840.9816, 70.56259
841.4637, 72.29089
841.9458, 73.54639
842.4279, 73.43616
842.9100, 72.00127
843.3922, 71.85065
843.8743, 73.26437
844.3564, 74.41518
844.8385, 73.95900
845.3206, 72.52122
845.8027, 71.49971
846.2849, 70.84135
846.7670, 70.27756
847.2491, 69.84692
847.7312, 69.29657
848.2133, 68.44658
848.6954, 67.31458
849.1776, 66.21400
849.6597, 65.37593
850.1418, 64.08459
850.6239, 61.87935
851.1060, 59.18007
851.5881, 57.73920
852.0703, 57.36272
852.5524, 56.38832
853.0345, 53.50514
853.5166, 50.12347
853.9987, 47.25104
854.4808, 44.88127
854.9630, 42.99408
855.4451, 42.20306
855.9272, 41.16362
856.4093, 39.55638
856.8914, 37.56972
857.3735, 35.58397
857.8557, 33.60892
858.3378, 31.31940
858.8199, 28.42755
859.3020, 25.55258
859.7841, 23.75813
860.2662, 22.67535
860.7484, 21.58565
861.2305, 20.22931
861.7126, 18.84515
862.1947, 17.38542
862.6768, 16.02473
863.1589, 15.07251
863.6411, 14.83205
864.1232, 14.09193
864.6053, 12.67976
865.0874, 10.90096
865.5695, 8.796783
866.0516, 6.636551
866.5338, 5.328674
867.0159, 5.138214
867.4980, 5.245560
867.9801, 5.379486
868.4622, 5.341858
868.9443, 4.922852
869.4265, 3.915253
869.9086, 2.900452
870.3907, 1.821655
870.8728, 0.8359680
871.3549, 9.7457998E-02
871.8370, 0.4092560
872.3192, 0.8110500
872.8013, 1.115723
873.2834, 1.429153
873.7655, 2.040878
874.2476, 2.576202
874.7297, 2.529968
875.2119, 1.840897
875.6940, 1.392654
876.1761, 1.532913
876.6582, 1.847717
877.1403, 2.340698
877.6224, 2.950867
878.1046, 2.665756
878.5867, 1.445267
879.0688, 0.2361150
879.5509, 0.2824100
880.0330, 0.4991760
880.5151, 0.9560390
880.9973, 1.597992
881.4794, 2.199265
881.9615, 2.303085
882.4436, 2.751129
882.9257, 4.285828
883.4078, 6.349670
883.8900, 7.288132
884.3721, 6.840347
884.8542, 6.670380
885.3363, 7.359695
885.8184, 8.403931
886.3005, 8.735794
886.7827, 8.711411
887.2648, 9.262253
887.7469, 11.12026
888.2290, 13.01398
888.7111, 14.53506
889.1932, 15.68896
889.6754, 16.52182
890.1575, 17.07361
890.6396, 17.13792
891.1217, 16.60658
891.6038, 16.01689
892.0859, 15.85994
892.5681, 16.02248
893.0502, 15.81804
893.5323, 15.14064
894.0144, 14.82304
894.4965, 15.74762
894.9786, 16.90282
895.4608, 17.37486
895.9429, 16.83557
896.4250, 16.51006
896.9071, 16.60260
897.3892, 16.58780
897.8713, 16.03981
898.3535, 15.02588
898.8356, 13.89200
899.3177, 12.66974
899.7998, 11.75388
900.2819, 11.76797
900.7640, 11.94818
901.2462, 11.78641
901.7283, 11.25627
902.2104, 10.33636
902.6925, 8.520569
903.1746, 7.238297
903.6567, 7.060455
904.1389, 7.623535
904.6210, 7.842361
905.1031, 7.724808
905.5852, 7.339386
906.0673, 6.546677
906.5494, 5.729004
907.0316, 5.325272
907.5137, 5.121902
907.9958, 4.736023
908.4779, 3.495789
908.9600, 2.908997
909.4421, 3.356842
909.9243, 4.226425
910.4064, 4.568924
910.8885, 4.441666
911.3706, 5.026627
911.8527, 6.601715
912.3348, 8.237350
912.8170, 9.138412
913.2991, 9.549606
913.7812, 9.522614
914.2633, 8.713165
914.7454, 9.063431
915.2275, 11.62044
915.7097, 14.47475
916.1918, 16.52429
916.6739, 17.78346
917.1560, 19.01726
917.6381, 20.21088
918.1202, 21.98370
918.6024, 25.48315
919.0845, 29.28214
919.5666, 31.63330
920.0487, 32.74588
920.5308, 34.20900
921.0129, 37.22537
921.4951, 39.69510
921.9772, 40.77272
922.4593, 41.08707
922.9414, 42.74638
923.4235, 45.70433
923.9056, 48.28239
924.3878, 49.85901
924.8699, 50.97148
925.3520, 52.32433
925.8341, 53.62558
926.3162, 54.41664
926.7983, 53.91107
927.2805, 53.91844
927.7626, 55.03578
928.2447, 56.33424
928.7268, 56.88638
929.2089, 56.69350
929.6910, 56.11224
930.1732, 55.14995
930.6553, 54.09515
931.1374, 53.04446
931.6195, 52.12880
932.1016, 51.82585
932.5837, 52.28125
933.0659, 51.63257
933.5480, 48.13133
934.0301, 44.94218
934.5122, 43.48721
934.9943, 43.42673
935.4764, 42.63017
935.9586, 41.14357
936.4407, 39.47937
936.9228, 37.67987
937.4049, 35.89731
937.8870, 34.57854
938.3691, 33.39291
938.8513, 31.61368
939.3334, 28.38663
939.8155, 25.35530
940.2976, 22.65488
940.7797, 20.37321
941.2618, 19.00291
941.7440, 18.43929
942.2261, 16.98822
942.7082, 14.13283
943.1903, 11.59679
943.6724, 11.75650
944.1545, 12.70271
944.6367, 12.38916
945.1188, 10.17218
945.6009, 7.880371
946.0830, 5.284988
946.5651, 3.247391
947.0472, 2.626038
947.5294, 3.132034
948.0115, 1.956711
948.4936, 0.6996610
948.9757, 2.438492
949.4578, 0.3088380
949.9399, 2.065094
950.4221, 1.443634
950.9042, 1.410950
951.3863, 3.298584
951.8684, 3.659393
952.3505, 3.454346
952.8326, 2.614136
953.3148, 1.602036
953.7969, 1.438461
954.2790, 1.907486
954.7611, 2.059982
955.2432, 1.589508
955.7253, 1.022873
956.2075, 0.8922270
956.6896, 0.7651670
957.1717, 0.1571040
957.6538, 1.168762
958.1359, 2.236206
958.6180, 2.815399
959.1002, 3.717346
959.5823, 5.711807
960.0644, 8.476151
960.5465, 11.12984
961.0286, 13.64804
961.5107, 15.91417
961.9929, 17.19939
962.4750, 18.90277
962.9571, 22.02713
963.4392, 26.21947
963.9213, 30.24345
964.4034, 34.03862
964.8856, 37.78088
965.3677, 41.55148
965.8498, 45.22804
966.3319, 48.54161
966.8140, 51.66072
967.2961, 54.95006
967.7783, 58.85127
968.2604, 62.07423
968.7425, 63.64682
969.2246, 64.73058
969.7067, 66.39117
970.1888, 68.81927
970.6710, 70.21106
971.1531, 70.50577
971.6352, 70.22768
972.1173, 69.96065
972.5994, 69.24170
973.0815, 67.01302
973.5637, 63.57468
974.0458, 60.71458
974.5279, 59.67181
975.0100, 58.49637
975.4921, 56.54228
975.9742, 54.22841
976.4564, 52.70538
976.9385, 51.90858
977.4206, 50.72420
977.9027, 48.68996
978.3848, 46.78503
978.8669, 46.00414
979.3491, 45.86125
979.8312, 45.83032
980.3133, 46.03711
980.7954, 45.69791
981.2775, 44.47113
981.7596, 43.25217
982.2418, 42.75285
982.7239, 42.81514
983.2060, 42.41132
983.6881, 41.63925
984.1702, 41.42209
984.6523, 43.16356
985.1345, 44.81451
985.6166, 44.83661
986.0987, 43.71860
986.5808, 43.43031
987.0629, 44.22995
987.5450, 45.12555
988.0272, 46.04559
988.5093, 46.70309
988.9914, 46.07253
989.4735, 44.98001
989.9556, 45.39247
990.4377, 48.22063
990.9199, 50.46057
991.4020, 50.72005
991.8841, 50.03888
992.3662, 48.89323
992.8483, 47.26161
993.3304, 46.71210
993.8126, 47.29713
994.2947, 48.04701
994.7768, 48.79579
995.2589, 49.05367
995.7410, 47.72275
996.2231, 45.39833
996.7053, 43.75909
997.1874, 43.84076
997.6695, 43.98270
998.1516, 44.11035
998.6337, 44.02608
999.1158, 43.31442
999.5980, 42.05608
1000.080, 40.93028
1000.562, 40.04594
1001.044, 39.07356
1001.526, 37.55328
1002.009, 35.96957
1002.491, 34.75366
1002.973, 33.96291
1003.455, 33.22662
1003.937, 32.50938
1004.419, 31.99335
1004.901, 31.94354
1005.383, 31.98640
1005.865, 31.16753
1006.348, 29.70862
1006.830, 28.26611
1007.312, 27.14833
1007.794, 26.42860
1008.276, 26.31064
1008.758, 26.35771
1009.240, 26.28381
1009.722, 26.21426
1010.205, 25.57977
1010.687, 24.32524
1011.169, 23.15233
1011.651, 22.45943
1012.133, 22.03407
1012.615, 21.76497
1013.097, 21.74763
1013.579, 21.60139
1014.061, 21.15201
1014.544, 20.70305
1015.026, 20.33344
1015.508, 20.03558
1015.990, 19.91588
1016.472, 19.90129
1016.954, 19.59578
1017.436, 18.61607
1017.918, 17.98064
1018.401, 18.80119
1018.883, 19.98122
1019.365, 20.37746
1019.847, 19.60223
1020.329, 19.75729
1020.811, 20.93594
1021.293, 22.30077
1021.775, 23.40776
1022.257, 24.25652
1022.740, 24.80090
1023.222, 25.09903
1023.704, 25.39200
1024.186, 25.43356
1024.668, 25.67738
1025.150, 26.22083
1025.632, 27.01176
1026.114, 27.89371
1026.596, 28.80548
1027.079, 29.14357
1027.561, 28.71225
1028.043, 28.53590
1028.525, 29.57625
1029.007, 31.20055
1029.489, 33.01352
1029.971, 34.91498
1030.453, 36.16747
1030.936, 36.77448
1031.418, 36.92902
1031.900, 36.59129
1032.382, 35.96158
1032.864, 35.27769
1033.346, 34.63939
1033.828, 34.30275
1034.310, 34.40312
1034.792, 34.75090
1035.275, 35.39467
1035.757, 36.18529
1036.239, 37.25113
1036.721, 38.58699
1037.203, 38.44453
1037.685, 36.78569
1038.167, 35.20084
1038.649, 35.04228
1039.132, 35.28600
1039.614, 35.24141
1040.096, 34.87323
1040.578, 34.21869
1041.060, 33.15950
1041.542, 32.11081
1042.024, 31.08162
1042.506, 30.20587
1042.989, 29.79752
1043.471, 29.64874
1043.953, 29.39200
1044.435, 28.99895
1044.917, 28.18054
1045.399, 26.66512
1045.881, 24.80858
1046.363, 22.64079
1046.845, 20.26788
1047.328, 18.46582
1047.810, 17.22253
1048.292, 16.70609
1048.774, 17.69360
1049.256, 18.44569
1049.738, 16.97261
1050.220, 14.54399
1050.702, 13.28960
1051.184, 14.23007
1051.667, 14.23804
1052.149, 13.10883
1052.631, 11.50362
1053.113, 9.580750
1053.595, 7.730881
1054.077, 6.859467
1054.559, 6.869675
1055.041, 6.881165
1055.523, 6.720337
1056.006, 6.244522
1056.488, 5.224304
1056.970, 4.047302
1057.452, 3.532654
1057.934, 3.626541
1058.416, 3.966492
1058.898, 4.589584
1059.380, 4.754623
1059.863, 2.916153
1060.345, 1.069916
1060.827, 1.324966
1061.309, 3.847031
1061.791, 4.980835
1062.273, 4.561432
1062.755, 3.438751
1063.237, 1.562592
1063.719, 0.2368770
1064.202, 0.4202730
1064.684, 0.3659970
1065.166, 0.8725280
1065.648, 0.3025670
1066.130, 0.2468110
1066.612, 1.344086
1067.094, 2.274475
1067.576, 1.690308
1068.059, 7.3867999E-02
1068.541, 1.198013
1069.023, 1.656616
1069.505, 1.455460
1069.987, 0.3207860
1070.469, 1.793839
1070.951, 1.617889
1071.433, 0.5634920
1071.916, 2.5180001E-03
1072.398, 3.2974001E-02
1072.880, 0.2600100
1073.362, 0.9088590
1073.844, 1.523148
1074.326, 1.756760
1074.808, 1.710312
1075.290, 1.504730
1075.772, 1.149155
1076.255, 0.4158940
1076.737, 1.057678
1077.219, 2.022720
1077.701, 1.970871
1078.183, 1.322662
1078.665, 0.6920470
1079.147, 0.1501010
1079.629, 0.1532440
1080.111, 0.2140960
1080.594, 7.4371003E-02
1081.076, 1.646515
1081.558, 2.683456
1082.040, 1.761902
1082.522, 0.8279720
1083.004, 1.879593
1083.486, 1.546448
1083.968, 1.237091
1084.450, 2.175186
1084.933, 2.887024
1085.415, 2.206223
1085.897, 0.7809750
1086.379, 0.4499820
1086.861, 1.659775
1087.343, 1.679070
1087.825, 0.2925720
1088.307, 1.202011
1088.790, 1.429916
1089.272, 1.285248
1089.754, 2.111298
1090.236, 3.683868
1090.718, 4.444778
1091.200, 3.490189
1091.682, 2.873932
1092.164, 3.033020
1092.646, 3.520187
1093.129, 3.715622
1093.611, 3.626923
1094.093, 3.167633
1094.575, 2.279930
1095.057, 1.756645
1095.539, 2.233849
1096.021, 2.883743
1096.503, 3.460281
1096.986, 3.889534
1097.468, 3.669472
1097.950, 2.927505
1098.432, 2.768387
1098.914, 3.686676
1099.396, 4.836098
1099.878, 6.138077
1100.360, 6.999504
1100.843, 6.622452
1101.325, 4.815018
1101.807, 4.026329
1102.289, 4.318665
1102.771, 4.819176
1103.253, 5.125099
1103.735, 5.229599
1104.217, 5.192596
1104.699, 4.958542
1105.182, 4.329903
1105.664, 2.115265
1106.146, 2.076866
1106.628, 5.086296
1107.110, 8.224358
1107.592, 8.535568
1108.074, 7.238503
1108.556, 6.770737
1109.038, 7.127724
1109.521, 7.643349
1110.003, 7.956772
1110.485, 8.626770
1110.967, 10.18521
1111.449, 11.67606
1111.931, 11.22285
1112.413, 9.347435
1112.895, 8.344444
1113.377, 8.485687
1113.860, 9.017914
1114.342, 9.762924
1114.824, 10.48592
1115.306, 10.94960
1115.788, 11.30493
1116.270, 12.28317
1116.752, 13.86726
1117.234, 14.49548
1117.717, 13.55990
1118.199, 12.48407
1118.681, 12.45845
1119.163, 12.98799
1119.645, 13.72557
1120.127, 14.64883
1120.609, 15.32945
1121.091, 15.76000
1121.573, 15.95728
1122.056, 15.90578
1122.538, 15.72449
1123.020, 15.26918
1123.502, 14.80698
1123.984, 14.75171
1124.466, 15.33125
1124.948, 16.12691
1125.430, 17.32440
1125.913, 18.23175
1126.395, 18.13225
1126.877, 17.49966
1127.359, 17.31801
1127.841, 17.57353
1128.323, 17.90795
1128.805, 18.62830
1129.287, 18.79360
1129.770, 18.09207
1130.252, 17.12362
1130.734, 16.26064
1131.216, 15.62061
1131.698, 15.99924
1132.180, 17.24165
1132.662, 17.96991
1133.144, 17.09818
1133.626, 15.96355
1134.109, 14.97748
1134.591, 13.99199
1135.073, 12.79534
1135.555, 11.51933
1136.037, 10.82900
1136.519, 10.82041
1137.001, 10.99251
1137.483, 11.61404
1137.965, 11.66413
1138.448, 9.778854
1138.930, 6.749817
1139.412, 5.492439
1139.894, 6.234779
1140.376, 6.636566
1140.858, 5.997894
1141.340, 5.169510
1141.822, 4.747330
1142.304, 4.651382
1142.787, 5.069466
1143.269, 5.961746
1143.751, 5.630341
1144.233, 3.686714
1144.715, 2.422508
1145.197, 2.927078
1145.679, 4.106369
1146.161, 4.624825
1146.644, 4.694641
1147.126, 4.625992
1147.608, 4.435135
1148.090, 4.301865
1148.572, 4.395401
1149.054, 3.961243
1149.536, 2.152870
1150.018, 0.1509930
1150.500, 0.3082580
1150.983, 1.774597
1151.465, 2.861717
1151.947, 2.993019
1152.429, 2.923523
1152.911, 2.673775
1153.393, 2.343262
1153.875, 1.994812
1154.357, 1.616638
1154.840, 0.9956210
1155.322, 0.3016360
1155.804, 0.1023710
1156.286, 1.274963
1156.768, 2.017159
1157.250, 2.041824
1157.732, 1.653381
1158.214, 0.9983060
1158.697, 0.1633760
1159.179, 0.5339970
1159.661, 1.063370
1160.143, 1.285309
1160.625, 0.8682630
1161.107, 0.4822850
1161.589, 0.4824140
1162.071, 0.4642940
1162.553, 0.3345640
1163.036, 1.711937
1163.518, 2.114433
1164.000, 1.482292
1164.482, 0.7849040
1164.964, 0.6094510
1165.446, 0.5067140
1165.928, 0.2075040
1166.410, 0.1245880
1166.892, 8.6639002E-02
1167.375, 0.2842250
1167.857, 0.2982480
1168.339, 0.1548160
1168.821, 0.4071660
1169.303, 0.1689000
1169.785, 0.9657520
1170.267, 1.744446
1170.749, 2.404480
1171.231, 2.626007
1171.714, 2.412575
1172.196, 2.171638
1172.678, 1.994324
1173.160, 1.759941
1173.642, 1.294891
1174.124, 0.7926790
1174.606, 0.2747960
1175.088, 0.1704710
1175.571, 0.2346340
1176.053, 1.560448
1176.535, 2.345772
1177.017, 2.060318
1177.499, 1.544678
1177.981, 1.562531
1178.463, 1.782494
1178.945, 1.951172
1179.427, 2.048264
1179.910, 1.720421
1180.392, 0.8882830
1180.874, 0.4304350
1181.356, 0.8229290
1181.838, 1.371933
1182.320, 1.303177
1182.802, 0.9856870
1183.284, 0.7936940
1183.767, 0.7306520
1184.249, 1.250053
1184.731, 2.515038
1185.213, 3.231384
1185.695, 2.435295
1186.177, 1.338753
1186.659, 1.337311
1187.141, 1.956039
1187.624, 2.616722
1188.106, 3.457138
1188.588, 3.320129
1189.070, 2.006561
1189.552, 0.8681490
1190.034, 0.6475910
1190.516, 1.059563
1190.998, 2.501877
1191.480, 4.077080
1191.963, 4.064667
1192.445, 0.9209060
1192.927, 0.1977770
1193.409, 1.147438
1193.891, 2.491867
1194.373, 1.660866
1194.855, 0.2114490
1195.337, 0.2293930
1195.819, 1.216553
1196.302, 2.095810
1196.784, 2.795288
1197.266, 3.094772
1197.748, 2.906021
1198.230, 2.671371
1198.712, 2.780495
1199.194, 3.030899
1199.676, 3.331886
1200.158, 3.552078
1200.641, 3.217667
1201.123, 1.807793
1201.605, 0.9506380
1202.087, 0.7347030
1202.569, 1.069382
1203.051, 2.367332
1203.533, 3.824982
1204.015, 4.226814
1204.498, 3.836952
1204.980, 3.742401
1205.462, 4.507568
1205.944, 4.476295
1206.426, 3.310371
1206.908, 2.100906
1207.390, 1.967155
1207.872, 2.387154
1208.354, 2.978615
1208.837, 3.597763
1209.319, 3.627228
1209.801, 2.713516
1210.283, 2.008141
1210.765, 1.634003
1211.247, 1.516418
1211.729, 1.734703
1212.211, 2.052315
1212.694, 2.028343
1213.176, 1.753937
1213.658, 1.935043
1214.140, 2.886238
1214.622, 3.694984
1215.104, 4.326965
1215.586, 4.578941
1216.068, 4.029732
1216.551, 3.081017
1217.033, 1.982300
1217.515, 0.8579030
1217.997, 0.4111330
1218.479, 0.9002150
1218.961, 1.420914
1219.443, 1.848167
1219.925, 2.036690
1220.407, 1.492203
1220.890, 0.8821560
1221.372, 1.156792
1221.854, 2.245499
1222.336, 2.888016
1222.818, 3.056396
1223.300, 2.609985
1223.782, 1.373001
1224.264, 0.1656490
1224.746, 0.2150270
1225.229, 3.6934000E-02
1225.711, 1.085381
1226.193, 2.723213
1226.675, 3.068253
1227.157, 1.839386
1227.639, 1.054070
1228.121, 1.161156
1228.603, 1.730385
1229.085, 2.953163
1229.568, 3.907349
1230.050, 3.272621
1230.532, 1.261864
1231.014, 0.5354460
1231.496, 1.233086
1231.978, 1.921349
1232.460, 2.259659
1232.942, 2.570435
1233.425, 3.444710
1233.907, 4.272026
1234.389, 4.479927
1234.871, 4.117752
1235.353, 3.447525
1235.835, 2.439171
1236.317, 2.114716
1236.799, 2.852859
1237.281, 3.597893
1237.764, 3.532028
1238.246, 3.034142
1238.728, 2.004128
1239.210, 0.8031540
1239.692, 1.345810
1240.174, 3.522469
1240.656, 4.518463
1241.138, 3.492622
1241.621, 2.336937
1242.103, 2.656044
1242.585, 3.135445
1243.067, 2.767708
1243.549, 1.872749
1244.031, 1.777908
1244.513, 2.360039
1244.995, 2.582207
1245.478, 2.095345
1245.960, 1.726837
1246.442, 2.211555
1246.924, 2.719437
1247.406, 2.671112
1247.888, 2.327827
1248.370, 2.805885
1248.852, 3.786583
1249.334, 4.041946
1249.817, 3.163559
1250.299, 2.289612
1250.781, 1.727028
1251.263, 1.642128
1251.745, 2.334641
1252.227, 3.292358
1252.709, 3.144188
1253.191, 2.251686
1253.673, 1.597427
1254.156, 1.358879
1254.638, 1.574409
1255.120, 2.863640
1255.602, 3.677864
1256.084, 3.430138
1256.566, 2.504288
1257.048, 1.063339
1257.530, 0.2844920
1258.012, 0.1113740
1258.495, 2.802490
1258.977, 4.110847
1259.459, 2.966576
1259.941, 1.663078
1260.423, 0.7550280
1260.905, 0.4282910
1261.387, 1.632782
1261.869, 3.234268
1262.352, 3.361961
1262.834, 1.628319
1263.316, 0.5547490
1263.798, 0.2652740
1264.280, 0.7601010
1264.762, 2.262611
1265.244, 3.697762
1265.726, 3.544388
1266.208, 2.764221
1266.691, 2.467186
1267.173, 2.747673
1267.655, 2.671745
1268.137, 2.213806
1268.619, 1.540535
1269.101, 0.6087190
1269.583, 0.1194460
1270.065, 6.9305003E-02
1270.548, 0.4268420
1271.030, 5.5137999E-02
1271.512, 0.9984360
1271.994, 0.3067470
1272.476, 1.965714
1272.958, 3.296883
1273.440, 3.039383
1273.922, 2.464981
1274.405, 2.151169
1274.887, 2.183655
1275.369, 2.865326
1275.851, 3.768433
1276.333, 3.367813
1276.815, 2.027153
1277.297, 1.803490
1277.779, 3.163139
1278.261, 4.273651
1278.744, 3.969368
1279.226, 3.451599
1279.708, 3.076233
1280.190, 2.808762
1280.672, 2.899017
1281.154, 3.124802
1281.636, 2.951210
1282.118, 2.324738
1282.600, 1.849739
1283.083, 1.435738
1283.565, 1.817963
1284.047, 3.568733
1284.529, 5.182312
1285.011, 3.788742
1285.493, 1.227325
1285.975, 0.4812390
1286.457, 1.739059
1286.939, 2.214668
1287.422, 1.905052
1287.904, 1.802139
1288.386, 2.059097
1288.868, 2.396935
1289.350, 2.449997
1289.832, 2.481766
1290.314, 2.943375
1290.796, 3.642937
1291.279, 3.599533
1291.761, 2.714310
1292.243, 2.068413
1292.725, 1.809319
1293.207, 1.806580
1293.689, 1.847878
1294.171, 2.195625
1294.653, 3.791718
1295.135, 5.507271
1295.618, 5.068016
1296.100, 2.742264
1296.582, 0.9744110
1297.064, 2.1011000E-02
1297.546, 0.1003340
1298.028, 1.465172
1298.510, 2.750885
1298.992, 3.212753
1299.475, 3.053299
1299.957, 1.524879
1300.439, 0.1155700
1300.921, 3.4870000E-03
1301.403, 0.8393780
1301.885, 0.0000000E+00
##END=



