##NAMES=Kupletskite
##RRUFFID=R110176
##IDEAL CHEMISTRY=K_2_NaMn^2+^_7_Ti_2_(Si_4_O_12_)_2_O_2_(OH)_4_F
##LOCALITY=Mont St-Hilaire, Quebec, Canada
##OWNER=RRUFF
##SOURCE=Donald Doell
##DESCRIPTION=Dark brown micaceous associated with orthoclase and aegirine
##STATUS=The identification of this mineral has been confirmed only by single crystal X-ray diffraction.
##URL=rruff.info/R110176
145.1185, 0.0000000E+00
145.6006, 0.2492680
146.0827, 0.5772710
146.5648, 0.2026370
147.0469, 0.1397090
147.5291, 4.7610002E-03
148.0112, 0.9031980
148.4933, 2.200317
148.9754, 3.015808
149.4575, 3.098328
149.9396, 3.065002
150.4218, 2.838989
150.9039, 2.701904
151.3860, 3.042175
151.8681, 4.116699
152.3502, 5.855774
152.8323, 7.673035
153.3145, 9.966736
153.7966, 11.91669
154.2787, 13.55493
154.7608, 14.72034
155.2429, 15.01080
155.7250, 13.91205
156.2072, 11.20349
156.6893, 10.71924
157.1714, 14.02252
157.6535, 17.58813
158.1356, 20.09650
158.6177, 21.43213
159.0999, 21.96912
159.5820, 21.87042
160.0641, 20.95642
160.5462, 21.15259
161.0283, 22.92377
161.5104, 25.41534
161.9926, 28.34009
162.4747, 31.62866
162.9568, 34.56079
163.4389, 36.16101
163.9210, 36.50171
164.4031, 36.83331
164.8853, 37.29108
165.3674, 37.88007
165.8495, 38.80634
166.3316, 40.09216
166.8137, 41.34106
167.2958, 42.61108
167.7780, 44.39868
168.2601, 44.90240
168.7422, 44.77124
169.2243, 44.92450
169.7064, 45.48566
170.1885, 45.81775
170.6707, 45.82159
171.1528, 45.56714
171.6349, 44.88049
172.1170, 43.93176
172.5991, 42.51862
173.0812, 40.57489
173.5634, 38.96234
174.0455, 38.29224
174.5276, 37.51093
175.0097, 36.11005
175.4918, 34.12659
175.9739, 31.95215
176.4561, 30.04968
176.9382, 28.54132
177.4203, 26.82056
177.9024, 24.61975
178.3845, 22.43768
178.8666, 20.60736
179.3488, 19.14258
179.8309, 17.76233
180.3130, 16.09406
180.7951, 13.90137
181.2772, 11.96350
181.7593, 10.43555
182.2415, 9.032471
182.7236, 7.447754
183.2057, 5.644104
183.6878, 3.973633
184.1699, 3.008911
184.6520, 3.319153
185.1342, 3.253479
185.6163, 2.426514
186.0984, 1.371033
186.5805, 0.6717530
187.0626, 0.5116580
187.5447, 0.6333620
188.0269, 0.6806030
188.5090, 0.7349850
188.9911, 0.4649660
189.4732, 0.9305420
189.9553, 2.593323
190.4374, 2.686279
190.9196, 0.1724850
191.4017, 2.919861
191.8838, 3.457031
192.3659, 1.361145
192.8480, 0.8366090
193.3301, 2.180969
193.8123, 2.742798
194.2944, 2.701660
194.7765, 1.764404
195.2586, 0.6275630
195.7407, 0.1819460
196.2228, 0.4476930
196.7050, 0.4940800
197.1871, 0.7200930
197.6692, 3.110352
198.1513, 4.680603
198.6334, 4.379028
199.1155, 3.660645
199.5977, 3.298401
200.0798, 3.391296
200.5619, 4.043335
201.0440, 5.675415
201.5261, 8.559326
202.0082, 10.66083
202.4904, 10.97375
202.9725, 11.01343
203.4546, 11.55524
203.9367, 12.64453
204.4188, 13.66882
204.9009, 13.67358
205.3831, 12.06238
205.8652, 11.32166
206.3473, 12.29333
206.8294, 13.50519
207.3115, 14.02435
207.7936, 13.75140
208.2758, 13.30652
208.7579, 13.64575
209.2400, 15.49371
209.7221, 16.50006
210.2042, 16.11444
210.6863, 15.42761
211.1685, 15.10120
211.6506, 15.29541
212.1327, 15.81769
212.6148, 16.36450
213.0969, 16.66058
213.5790, 17.67255
214.0612, 20.55426
214.5433, 23.39349
215.0254, 24.41974
215.5075, 23.29218
215.9896, 21.34540
216.4717, 20.44208
216.9539, 21.01843
217.4360, 21.77600
217.9181, 23.00928
218.4002, 24.25897
218.8823, 24.87738
219.3644, 24.70020
219.8466, 24.52832
220.3287, 25.63300
220.8108, 28.33636
221.2929, 30.45972
221.7750, 31.02618
222.2571, 31.12415
222.7393, 32.35431
223.2214, 35.20197
223.7035, 38.25055
224.1856, 39.44019
224.6677, 38.93323
225.1498, 38.72504
225.6320, 39.41107
226.1141, 40.68945
226.5962, 42.14203
227.0783, 43.78052
227.5604, 45.35663
228.0425, 46.54413
228.5247, 47.43457
229.0068, 48.40240
229.4889, 49.47601
229.9710, 50.72772
230.4531, 52.39728
230.9352, 54.67560
231.4174, 57.00970
231.8995, 58.70593
232.3816, 60.05542
232.8637, 61.90967
233.3458, 65.38220
233.8279, 69.74756
234.3101, 72.46399
234.7922, 72.39862
235.2743, 72.45306
235.7564, 74.45062
236.2385, 77.74310
236.7206, 81.06708
237.2028, 83.71838
237.6849, 85.82135
238.1670, 88.00232
238.6491, 90.58374
239.1312, 92.71472
239.6133, 93.67041
240.0955, 94.05743
240.5776, 94.97131
241.0597, 97.26300
241.5418, 100.5358
242.0239, 102.8087
242.5060, 103.4153
242.9882, 103.8747
243.4703, 104.7994
243.9524, 105.8920
244.4345, 106.6747
244.9166, 106.8071
245.3987, 106.4000
245.8809, 106.0254
246.3630, 105.5670
246.8451, 105.1586
247.3272, 105.0654
247.8093, 104.9529
248.2914, 104.4324
248.7736, 103.3670
249.2557, 101.8613
249.7378, 100.6329
250.2199, 99.54987
250.7020, 98.85760
251.1841, 99.27344
251.6663, 99.98401
252.1484, 99.89709
252.6305, 98.42242
253.1126, 96.01398
253.5947, 94.03314
254.0768, 92.74176
254.5590, 91.64294
255.0411, 91.04047
255.5232, 90.52930
256.0053, 89.52557
256.4874, 87.77228
256.9695, 85.71643
257.4517, 84.20868
257.9338, 83.53430
258.4159, 83.15771
258.8980, 83.28027
259.3801, 83.60217
259.8622, 83.96295
260.3444, 84.29340
260.8265, 84.30518
261.3086, 83.43982
261.7907, 81.17499
262.2728, 78.71124
262.7549, 76.16516
263.2371, 73.35980
263.7192, 69.87665
264.2013, 65.63367
264.6834, 61.40350
265.1655, 58.38910
265.6476, 57.30328
266.1298, 55.81897
266.6119, 53.73828
267.0940, 51.32056
267.5761, 48.66962
268.0582, 45.82178
268.5403, 43.12335
269.0225, 41.04297
269.5046, 39.80243
269.9867, 38.20557
270.4688, 36.16803
270.9509, 33.81140
271.4330, 30.82855
271.9152, 27.28290
272.3973, 24.37964
272.8794, 23.58276
273.3615, 25.08173
273.8436, 25.49109
274.3257, 24.25598
274.8079, 22.26508
275.2900, 19.92426
275.7721, 17.31934
276.2542, 15.01312
276.7363, 13.44458
277.2184, 12.61682
277.7006, 11.86346
278.1827, 10.84900
278.6648, 10.18195
279.1469, 10.67163
279.6290, 12.14209
280.1111, 13.20483
280.5933, 12.96820
281.0754, 11.65967
281.5575, 10.36774
282.0396, 8.955261
282.5217, 7.729187
283.0038, 6.981812
283.4860, 6.633057
283.9681, 6.239563
284.4502, 5.575684
284.9323, 4.770508
285.4144, 4.025330
285.8965, 3.165588
286.3787, 2.755066
286.8608, 3.554932
287.3429, 5.168152
287.8250, 6.063660
288.3071, 5.459229
288.7892, 4.301758
289.2714, 3.991333
289.7535, 4.590149
290.2356, 5.312561
290.7177, 5.957886
291.1998, 6.455078
291.6819, 6.574768
292.1641, 6.162964
292.6462, 5.552429
293.1283, 5.100281
293.6104, 4.787415
294.0925, 4.468689
294.5746, 4.096924
295.0568, 3.681091
295.5389, 3.185730
296.0210, 2.537048
296.5031, 2.020203
296.9852, 2.010559
297.4673, 2.345520
297.9495, 2.601013
298.4316, 2.612122
298.9137, 2.477783
299.3958, 2.441956
299.8779, 2.598450
300.3600, 2.409668
300.8422, 1.151611
301.3243, 0.6531980
301.8064, 2.128174
302.2885, 3.234070
302.7706, 3.809387
303.2527, 3.420227
303.7349, 1.985046
304.2170, 0.7441410
304.6991, 0.4647830
305.1812, 0.6367190
305.6633, 0.5823970
306.1454, 0.2009280
306.6276, 0.3655400
307.1097, 1.307495
307.5918, 2.563049
308.0739, 2.934021
308.5560, 1.364746
309.0381, 0.6920780
309.5203, 1.498535
310.0024, 0.9124760
310.4845, 0.1774290
310.9666, 0.1371460
311.4487, 0.6720580
311.9308, 1.276855
312.4130, 2.139160
312.8951, 2.598999
313.3772, 1.765564
313.8593, 0.1421510
314.3414, 1.662781
314.8235, 1.829041
315.3057, 1.082947
315.7878, 0.4776610
316.2699, 4.8219999E-03
316.7520, 8.0200002E-02
317.2341, 0.8758540
317.7162, 2.397705
318.1984, 3.443542
318.6805, 3.293518
319.1626, 2.614380
319.6447, 2.544312
320.1268, 3.232117
320.6089, 3.788330
321.0911, 3.406799
321.5732, 2.666870
322.0553, 2.382385
322.5374, 2.814575
323.0195, 3.579834
323.5016, 4.556091
323.9838, 5.756165
324.4659, 6.194214
324.9480, 4.815247
325.4301, 2.950500
325.9122, 2.250366
326.3943, 2.926392
326.8765, 4.061157
327.3586, 5.229309
327.8407, 6.375244
328.3228, 7.153564
328.8049, 7.418945
329.2870, 7.359375
329.7692, 7.104431
330.2513, 6.676636
330.7334, 6.336548
331.2155, 6.375977
331.6976, 6.579712
332.1797, 6.357117
332.6619, 5.485657
333.1440, 4.641541
333.6261, 4.309448
334.1082, 4.412537
334.5903, 4.892517
335.0724, 5.952820
335.5546, 7.271362
336.0367, 8.433167
336.5188, 9.417480
337.0009, 10.43811
337.4830, 11.96326
337.9651, 13.47095
338.4473, 13.88135
338.9294, 12.36188
339.4115, 10.86279
339.8936, 11.18744
340.3757, 13.09747
340.8578, 14.82635
341.3400, 15.80072
341.8221, 16.17657
342.3042, 16.19061
342.7863, 15.76697
343.2684, 15.41766
343.7505, 15.21844
344.2327, 15.28082
344.7148, 16.03882
345.1969, 17.80048
345.6790, 19.67065
346.1611, 20.46570
346.6432, 20.36292
347.1254, 20.34229
347.6075, 20.97412
348.0896, 21.66949
348.5717, 21.54840
349.0538, 20.50702
349.5359, 19.44183
350.0181, 18.92023
350.5002, 18.94482
350.9823, 19.32257
351.4644, 20.50232
351.9465, 21.64099
352.4286, 22.10999
352.9108, 22.01410
353.3929, 21.86145
353.8750, 21.89984
354.3571, 22.02466
354.8392, 21.93860
355.3214, 21.45728
355.8035, 21.20087
356.2856, 21.54321
356.7677, 22.23175
357.2498, 22.80487
357.7319, 23.12006
358.2141, 23.36475
358.6962, 23.80695
359.1783, 24.43695
359.6604, 24.95618
360.1425, 25.48376
360.6246, 25.87299
361.1068, 25.90503
361.5889, 25.65863
362.0710, 25.58289
362.5531, 26.13123
363.0352, 27.23260
363.5173, 27.44208
363.9995, 25.68372
364.4816, 24.21539
364.9637, 24.64642
365.4458, 26.25970
365.9279, 27.02203
366.4100, 25.74097
366.8922, 23.15118
367.3743, 21.81152
367.8564, 22.51758
368.3385, 23.45001
368.8206, 24.94238
369.3027, 26.20984
369.7849, 26.14862
370.2670, 24.48730
370.7491, 22.20746
371.2312, 20.70990
371.7133, 20.36554
372.1954, 19.87372
372.6776, 19.18042
373.1597, 18.38989
373.6418, 17.55469
374.1239, 16.68091
374.6060, 15.71906
375.0881, 14.57367
375.5703, 13.27216
376.0524, 12.55774
376.5345, 12.73474
377.0166, 13.12592
377.4987, 13.71545
377.9808, 14.39594
378.4630, 15.07654
378.9451, 15.71777
379.4272, 16.24957
379.9093, 16.51379
380.3914, 16.54358
380.8735, 16.20190
381.3557, 14.86438
381.8378, 13.63422
382.3199, 13.49371
382.8020, 14.49243
383.2841, 15.78821
383.7662, 16.42139
384.2484, 16.26758
384.7305, 16.26324
385.2126, 16.33789
385.6947, 16.61877
386.1768, 17.32220
386.6589, 18.25775
387.1411, 19.07385
387.6232, 19.55878
388.1053, 19.76782
388.5874, 20.00665
389.0695, 20.67523
389.5516, 20.57568
390.0338, 18.71057
390.5159, 16.48328
390.9980, 15.16943
391.4801, 15.12537
391.9622, 15.83258
392.4443, 16.85382
392.9265, 18.24286
393.4086, 19.24261
393.8907, 19.45654
394.3728, 19.45599
394.8549, 19.57642
395.3370, 19.83856
395.8192, 20.14130
396.3013, 20.55862
396.7834, 20.96939
397.2655, 20.86844
397.7476, 20.00464
398.2297, 19.26227
398.7119, 19.38217
399.1940, 19.82199
399.6761, 19.84909
400.1582, 19.14905
400.6403, 18.27072
401.1224, 17.75772
401.6046, 17.58792
402.0867, 17.48804
402.5688, 17.35461
403.0509, 17.28595
403.5330, 17.40082
404.0151, 17.69888
404.4973, 18.04004
404.9794, 18.58502
405.4615, 19.07129
405.9436, 18.99271
406.4257, 18.26093
406.9078, 17.23029
407.3900, 16.03418
407.8721, 14.75836
408.3542, 13.78549
408.8363, 13.08978
409.3184, 12.75952
409.8005, 13.10327
410.2827, 13.92255
410.7648, 14.53125
411.2469, 14.61670
411.7290, 14.34589
412.2111, 14.05325
412.6932, 13.69391
413.1754, 13.42218
413.6575, 13.22403
414.1396, 13.14505
414.6217, 13.32501
415.1038, 13.75351
415.5859, 14.12515
416.0681, 14.11600
416.5502, 13.67834
417.0323, 13.34875
417.5144, 13.15024
417.9965, 13.01459
418.4786, 12.81018
418.9608, 12.66003
419.4429, 12.81497
419.9250, 13.41315
420.4071, 14.32855
420.8892, 15.25854
421.3713, 16.83936
421.8535, 17.38574
422.3356, 16.21521
422.8177, 14.52307
423.2998, 13.05072
423.7819, 11.99020
424.2640, 11.34225
424.7462, 11.19812
425.2283, 11.61081
425.7104, 11.71146
426.1925, 11.30069
426.6746, 10.76407
427.1567, 9.936066
427.6389, 9.116425
428.1210, 8.890533
428.6031, 9.646912
429.0852, 10.68460
429.5673, 10.46088
430.0494, 8.585052
430.5316, 6.866821
431.0137, 5.561310
431.4958, 4.691132
431.9779, 4.507324
432.4600, 4.948242
432.9421, 5.382660
433.4243, 5.275848
433.9064, 4.753510
434.3885, 4.332489
434.8706, 3.997345
435.3527, 3.853668
435.8348, 4.186920
436.3170, 4.719696
436.7991, 4.993835
437.2812, 4.941010
437.7633, 4.530518
438.2454, 3.532410
438.7275, 2.042969
439.2097, 0.7718510
439.6918, 2.5208000E-02
440.1739, 0.5082400
440.6560, 0.8901980
441.1381, 1.185211
441.6202, 1.373718
442.1024, 1.423889
442.5845, 1.378448
443.0666, 1.223053
443.5487, 0.9741520
444.0308, 0.8270570
444.5129, 0.9828800
444.9951, 1.381866
445.4772, 1.476227
445.9593, 1.031830
446.4414, 0.6009220
446.9235, 0.2769470
447.4056, 9.1124997E-02
447.8878, 0.1188050
448.3699, 0.3809810
448.8520, 0.7601320
449.3341, 1.099731
449.8162, 1.464325
450.2983, 1.574646
450.7805, 1.531403
451.2626, 1.186951
451.7447, 0.2887880
452.2268, 0.9878230
452.7089, 2.295441
453.1910, 3.457947
453.6732, 4.350616
454.1553, 4.312012
454.6374, 2.246429
455.1195, 1.120087
455.6016, 2.240753
456.0837, 3.826874
456.5659, 4.190979
457.0480, 3.109528
457.5301, 1.903320
458.0122, 1.965454
458.4943, 3.273254
458.9764, 4.725433
459.4586, 6.558197
459.9407, 8.111237
460.4228, 9.114746
460.9049, 9.632019
461.3870, 9.722656
461.8691, 9.280731
462.3513, 8.629761
462.8334, 8.054535
463.3155, 7.580200
463.7976, 7.485657
464.2797, 7.926270
464.7618, 8.618500
465.2440, 9.205048
465.7261, 9.689484
466.2082, 10.13974
466.6903, 10.71475
467.1724, 11.22290
467.6545, 11.12241
468.1367, 10.42224
468.6188, 10.25882
469.1009, 11.65060
469.5830, 14.12933
470.0651, 15.29297
470.5472, 13.99594
471.0294, 12.99649
471.5115, 13.10071
471.9936, 13.84125
472.4757, 14.85876
472.9578, 15.98999
473.4399, 16.74869
473.9221, 16.44086
474.4042, 14.76077
474.8863, 13.82974
475.3684, 14.35623
475.8505, 14.75406
476.3326, 14.33273
476.8148, 13.40256
477.2969, 12.47226
477.7790, 11.78790
478.2611, 11.39612
478.7432, 11.54153
479.2253, 12.64487
479.7075, 13.08749
480.1896, 11.63031
480.6717, 10.35403
481.1538, 10.73907
481.6359, 12.48892
482.1180, 14.02621
482.6002, 14.16071
483.0823, 13.35269
483.5644, 12.90472
484.0465, 12.91690
484.5286, 12.94153
485.0107, 12.86673
485.4929, 12.64999
485.9750, 12.12988
486.4571, 11.19055
486.9392, 10.49188
487.4213, 10.51120
487.9034, 11.04776
488.3856, 11.82745
488.8677, 12.88629
489.3498, 13.54382
489.8319, 12.94925
490.3140, 11.24951
490.7961, 10.48752
491.2783, 11.73764
491.7604, 12.77200
492.2425, 12.18100
492.7246, 10.73486
493.2067, 9.893341
493.6888, 10.17126
494.1710, 11.06912
494.6531, 11.86215
495.1352, 12.59210
495.6173, 13.05798
496.0994, 13.53256
496.5815, 13.51968
497.0637, 12.33664
497.5458, 10.50671
498.0279, 9.117950
498.5100, 8.821106
498.9921, 9.236176
499.4742, 9.402496
499.9564, 9.235535
500.4385, 9.059937
500.9206, 8.776276
501.4027, 8.624481
501.8848, 8.750732
502.3669, 9.132996
502.8491, 9.673767
503.3312, 10.60880
503.8133, 11.65494
504.2954, 11.84512
504.7775, 11.02115
505.2596, 10.02862
505.7418, 8.978149
506.2239, 8.122223
506.7060, 7.879883
507.1881, 8.421936
507.6702, 8.972229
508.1523, 9.263580
508.6345, 9.305603
509.1166, 9.203339
509.5987, 9.003784
510.0808, 8.248444
510.5629, 6.183746
511.0450, 3.076904
511.5272, 1.852356
512.0093, 4.372345
512.4914, 6.273163
512.9735, 5.639618
513.4556, 3.938232
513.9377, 3.162720
514.4199, 3.819672
514.9020, 4.940308
515.3841, 5.328644
515.8662, 4.890778
516.3483, 4.426453
516.8304, 3.902893
517.3126, 3.384888
517.7947, 2.872742
518.2768, 2.386902
518.7589, 1.974396
519.2410, 1.658325
519.7231, 1.347900
520.2053, 0.7809750
520.6874, 9.3566999E-02
521.1695, 0.4327390
521.6516, 8.6852998E-02
522.1337, 0.9133910
522.6158, 2.034149
523.0980, 3.169281
523.5801, 3.449707
524.0622, 1.813843
524.5443, 5.8929000E-02
525.0264, 7.1502998E-02
525.5085, 1.421356
525.9907, 2.281189
526.4728, 1.588257
526.9549, 0.3935550
527.4370, 0.3510130
527.9191, 1.612823
528.4012, 2.548706
528.8834, 2.669525
529.3655, 2.642761
529.8476, 3.141479
530.3297, 3.913574
530.8118, 4.108826
531.2939, 3.249634
531.7761, 1.801270
532.2582, 0.8968200
532.7403, 0.8134160
533.2224, 0.7968440
533.7045, 0.7172240
534.1866, 0.8414610
534.6688, 1.400970
535.1509, 2.173248
535.6330, 2.867981
536.1151, 3.193329
536.5972, 3.330963
537.0793, 3.941315
537.5615, 5.214966
538.0436, 5.912842
538.5257, 5.150238
539.0078, 4.112091
539.4899, 3.904114
539.9720, 4.519287
540.4542, 5.152893
540.9363, 5.611298
541.4184, 5.847351
541.9005, 5.478790
542.3826, 4.508301
542.8647, 3.913757
543.3469, 4.266418
543.8290, 5.329468
544.3111, 6.541992
544.7932, 8.104553
545.2753, 9.323853
545.7574, 9.935516
546.2396, 10.28546
546.7217, 10.45499
547.2038, 10.61630
547.6859, 11.19818
548.1680, 12.53653
548.6501, 14.43896
549.1323, 16.05768
549.6144, 17.29306
550.0965, 18.38718
550.5786, 19.33493
551.0607, 20.22107
551.5428, 20.93253
552.0250, 21.56207
552.5071, 22.59573
552.9892, 24.71533
553.4713, 27.41782
553.9534, 29.05203
554.4355, 29.47964
554.9177, 29.47772
555.3998, 29.03345
555.8819, 28.56161
556.3640, 28.66064
556.8461, 29.35342
557.3282, 29.93494
557.8104, 30.27451
558.2925, 30.27176
558.7746, 29.62991
559.2567, 28.43982
559.7388, 27.40765
560.2209, 26.91235
560.7031, 26.83109
561.1852, 26.82919
561.6673, 27.62674
562.1494, 27.45557
562.6315, 25.22507
563.1136, 22.84756
563.5958, 21.93781
564.0779, 22.26074
564.5600, 22.42786
565.0421, 21.38434
565.5242, 19.58804
566.0063, 18.75003
566.4885, 19.48260
566.9706, 19.38940
567.4527, 16.59442
567.9348, 13.77072
568.4169, 13.16431
568.8990, 14.54770
569.3812, 15.50760
569.8633, 14.42539
570.3454, 12.39145
570.8275, 10.99988
571.3096, 10.21646
571.7917, 9.237915
572.2739, 7.576874
572.7560, 5.763123
573.2381, 4.785980
573.7202, 4.818939
574.2023, 4.918976
574.6844, 5.043915
575.1666, 5.172852
575.6487, 5.317322
576.1308, 5.451691
576.6129, 5.552277
577.0950, 5.613373
577.5771, 5.549988
578.0593, 5.125031
578.5414, 4.125061
579.0235, 3.281006
579.5056, 2.713593
579.9877, 2.309723
580.4698, 2.090851
580.9520, 1.992645
581.4341, 1.865509
581.9162, 1.600098
582.3983, 1.334259
582.8804, 1.526794
583.3625, 2.106049
583.8447, 1.894501
584.3268, 0.3453980
584.8089, 1.454254
585.2910, 2.409821
585.7731, 2.556671
586.2552, 2.396057
586.7374, 1.795990
587.2195, 1.082489
587.7016, 0.3502810
588.1837, 0.3667300
588.6658, 1.123688
589.1479, 1.908203
589.6301, 2.356659
590.1122, 1.924866
590.5943, 0.4842530
591.0764, 0.4909670
591.5585, 1.193939
592.0406, 1.154816
592.5228, 0.7195430
593.0049, 2.936798
593.4870, 3.459106
593.9691, 1.814575
594.4512, 2.2278000E-02
594.9333, 0.1577150
595.4155, 1.786865
595.8976, 2.249542
596.3797, 1.156403
596.8618, 9.4299996E-03
597.3439, 0.2829590
597.8260, 3.8483001E-02
598.3082, 0.1149900
598.7903, 0.7431340
599.2724, 1.103882
599.7545, 0.7157900
600.2366, 6.3598998E-02
600.7188, 0.3087460
601.2009, 0.3973690
601.6830, 0.5813600
602.1651, 1.162598
602.6472, 1.927246
603.1293, 2.042816
603.6115, 1.000885
604.0936, 0.2373350
604.5757, 0.1642760
605.0578, 0.2837520
605.5399, 2.7923999E-02
606.0220, 0.4821170
606.5042, 0.9530640
606.9863, 1.295868
607.4684, 1.397430
607.9505, 0.8894350
608.4326, 0.2054440
608.9147, 0.9812010
609.3969, 1.270081
609.8790, 1.031921
610.3611, 0.1542050
610.8432, 2.171875
611.3253, 3.358490
611.8074, 3.246307
612.2896, 2.572083
612.7717, 1.156586
613.2538, 0.3994450
613.7359, 0.9157410
614.2180, 0.1121830
614.7001, 0.9499210
615.1823, 0.9808040
615.6644, 8.2611002E-02
616.1465, 0.9072570
616.6286, 1.636566
617.1107, 1.892548
617.5928, 1.195953
618.0750, 0.2354430
618.5571, 0.2385860
619.0392, 9.7107001E-02
619.5213, 0.1197200
620.0034, 9.8693997E-02
620.4855, 0.1625370
620.9677, 0.7481080
621.4498, 1.672699
621.9319, 2.584259
622.4140, 3.332031
622.8961, 3.942749
623.3782, 4.515564
623.8604, 5.206512
624.3425, 5.395020
624.8246, 4.425568
625.3067, 3.450226
625.7888, 3.331757
626.2709, 3.847870
626.7531, 4.290863
627.2352, 4.306732
627.7173, 4.199524
628.1994, 4.492157
628.6815, 5.198639
629.1636, 6.276184
629.6458, 8.374908
630.1279, 9.969238
630.6100, 9.829285
631.0921, 8.844482
631.5742, 8.730347
632.0563, 10.28073
632.5385, 11.63196
633.0206, 10.72583
633.5027, 8.852112
633.9848, 8.817871
634.4669, 10.99869
634.9490, 13.53592
635.4312, 15.18558
635.9133, 16.03574
636.3954, 16.50278
636.8775, 16.23141
637.3596, 16.03897
637.8417, 15.56982
638.3239, 15.49762
638.8060, 16.39749
639.2881, 18.14792
639.7702, 20.28769
640.2523, 22.63876
640.7344, 24.96872
641.2166, 26.72977
641.6987, 27.90121
642.1808, 28.98865
642.6629, 29.96146
643.1450, 30.95990
643.6271, 32.06671
644.1093, 33.32727
644.5914, 34.90717
645.0735, 36.85931
645.5556, 39.10321
646.0377, 41.73840
646.5198, 44.56448
647.0020, 47.23557
647.4841, 49.70761
647.9662, 52.26077
648.4483, 55.13492
648.9304, 58.23862
649.4125, 61.29965
649.8947, 64.11996
650.3768, 67.48151
650.8589, 72.29034
651.3410, 76.83032
651.8231, 79.46167
652.3052, 80.48965
652.7874, 82.07089
653.2695, 85.92798
653.7516, 90.21527
654.2337, 92.80991
654.7158, 93.83582
655.1979, 93.80273
655.6801, 92.76151
656.1622, 91.48566
656.6443, 90.99744
657.1264, 91.43793
657.6085, 90.27557
658.0906, 86.38608
658.5728, 82.56628
659.0549, 79.80811
659.5370, 77.20541
660.0191, 73.56699
660.5012, 68.86380
660.9833, 64.25684
661.4655, 60.88812
661.9476, 58.21576
662.4297, 54.27942
662.9118, 48.78650
663.3939, 44.62015
663.8760, 43.26373
664.3582, 42.88248
664.8403, 41.27951
665.3224, 38.56885
665.8045, 36.13483
666.2866, 34.23187
666.7687, 32.56308
667.2509, 30.90799
667.7330, 29.48227
668.2151, 28.77573
668.6972, 28.78394
669.1793, 28.91934
669.6614, 28.53903
670.1436, 27.69257
670.6257, 27.10098
671.1078, 26.81100
671.5899, 26.61316
672.0720, 26.65158
672.5541, 26.69064
673.0363, 26.40524
673.5184, 25.85321
674.0005, 25.68146
674.4826, 26.40854
674.9647, 27.47992
675.4468, 28.61813
675.9290, 29.68307
676.4111, 30.09250
676.8932, 29.65808
677.3753, 29.04880
677.8574, 29.01224
678.3395, 29.55496
678.8217, 30.56595
679.3038, 32.62396
679.7859, 34.42279
680.2680, 35.47018
680.7501, 36.34427
681.2322, 37.63287
681.7144, 39.33572
682.1965, 40.97687
682.6786, 42.35071
683.1607, 43.38748
683.6428, 43.72733
684.1249, 43.48309
684.6071, 43.61258
685.0892, 44.40662
685.5713, 45.69055
686.0534, 47.46548
686.5355, 49.80228
687.0176, 51.14557
687.4998, 50.91425
687.9819, 50.51288
688.4640, 50.05783
688.9461, 49.74744
689.4282, 49.68085
689.9103, 49.92444
690.3925, 50.69043
690.8746, 52.47217
691.3567, 54.56320
691.8388, 54.93637
692.3209, 53.50302
692.8030, 52.83337
693.2852, 54.02243
693.7673, 55.39865
694.2494, 54.99136
694.7315, 52.95694
695.2136, 51.79956
695.6957, 52.09695
696.1779, 52.69040
696.6600, 53.19186
697.1421, 53.77609
697.6242, 54.88580
698.1063, 56.41083
698.5884, 57.54846
699.0706, 57.59634
699.5527, 56.94257
700.0348, 56.76010
700.5169, 57.14084
700.9990, 57.43042
701.4811, 57.63153
701.9633, 57.54953
702.4454, 56.69678
702.9275, 55.39011
703.4096, 54.67654
703.8917, 55.04697
704.3738, 55.51434
704.8560, 55.54126
705.3381, 55.51443
705.8202, 56.04233
706.3023, 57.05646
706.7844, 57.91513
707.2665, 58.19382
707.7487, 57.95819
708.2308, 57.24954
708.7129, 55.86740
709.1950, 54.96158
709.6771, 54.83264
710.1592, 54.99454
710.6414, 55.48730
711.1235, 55.98758
711.6056, 55.72241
712.0877, 54.27957
712.5698, 52.74707
713.0519, 51.54340
713.5341, 50.61746
714.0162, 50.05228
714.4983, 49.74640
714.9804, 49.34598
715.4625, 48.65421
715.9446, 47.68036
716.4268, 46.31375
716.9089, 44.32495
717.3910, 43.04147
717.8731, 43.06384
718.3552, 42.95581
718.8373, 41.70566
719.3195, 40.05292
719.8016, 39.17065
720.2837, 39.37601
720.7658, 39.42279
721.2479, 38.85715
721.7300, 37.73581
722.2122, 35.67477
722.6943, 33.06229
723.1764, 31.16824
723.6585, 30.55188
724.1406, 30.59659
724.6227, 30.44345
725.1049, 30.10773
725.5870, 29.39774
726.0691, 28.20193
726.5512, 26.80923
727.0333, 24.87778
727.5154, 23.07321
727.9976, 22.34708
728.4797, 22.73657
728.9618, 22.70990
729.4439, 20.75806
729.9260, 18.86090
730.4081, 19.48871
730.8903, 21.52161
731.3724, 22.15033
731.8545, 20.59155
732.3366, 18.09009
732.8187, 15.77274
733.3008, 13.71201
733.7830, 12.87027
734.2651, 14.16437
734.7472, 14.69775
735.2293, 13.22086
735.7114, 11.26135
736.1935, 9.832611
736.6757, 8.871185
737.1578, 7.848877
737.6399, 6.245850
738.1220, 5.006683
738.6041, 5.036652
739.0862, 5.734344
739.5684, 6.317230
740.0505, 6.583801
740.5326, 6.322540
741.0147, 5.306854
741.4968, 3.856262
741.9789, 3.027313
742.4611, 3.100037
742.9432, 2.699280
743.4253, 0.9781190
743.9074, 0.3957520
744.3895, 0.2612000
744.8716, 0.7994080
745.3538, 1.830292
745.8359, 2.929230
746.3180, 3.479584
746.8001, 2.501556
747.2822, 1.119263
747.7643, 0.6791380
748.2465, 1.016083
748.7286, 1.328949
749.2107, 1.280426
749.6928, 0.9750060
750.1749, 0.4928890
750.6570, 0.2160030
751.1392, 0.3403630
751.6213, 0.5029300
752.1034, 1.188873
752.5855, 1.094910
753.0676, 0.5968020
753.5497, 0.2946470
754.0319, 0.2598270
754.5140, 4.9102999E-02
754.9961, 0.7483830
755.4782, 1.541718
755.9603, 2.030182
756.4424, 2.181763
756.9246, 1.947266
757.4067, 1.344574
757.8888, 0.5920100
758.3709, 0.1597290
758.8530, 0.7570800
759.3351, 0.7385250
759.8173, 4.4952001E-02
760.2994, 0.5296630
760.7815, 0.8636780
761.2636, 0.9488830
761.7457, 0.7273560
762.2278, 0.2280580
762.7100, 0.3704530
763.1921, 1.313171
763.6742, 1.965240
764.1563, 1.993164
764.6384, 1.831055
765.1205, 1.741180
765.6027, 1.792725
766.0848, 2.085419
766.5669, 2.646851
767.0490, 3.153442
767.5311, 3.174042
768.0132, 2.819458
768.4954, 2.190918
768.9775, 1.169556
769.4596, 0.4758910
769.9417, 0.4939580
770.4238, 0.9098210
770.9059, 1.033447
771.3881, 0.7271120
771.8702, 0.8224490
772.3523, 1.929199
772.8344, 2.582214
773.3165, 1.878082
773.7986, 0.7032170
774.2808, 0.1230770
774.7629, 0.3878170
775.2450, 1.0315000E-02
775.7271, 1.464996
776.2092, 3.227631
776.6913, 4.048798
777.1735, 4.105530
777.6556, 3.968445
778.1377, 3.721893
778.6198, 3.658325
779.1019, 4.086761
779.5840, 4.860840
780.0662, 5.222473
780.5483, 5.015198
781.0304, 4.680145
781.5125, 3.893066
781.9946, 3.340485
782.4767, 3.370422
782.9589, 3.872894
783.4410, 4.807678
783.9231, 6.380157
784.4052, 7.280090
784.8873, 6.015564
785.3694, 4.126465
785.8516, 3.671387
786.3337, 4.430939
786.8158, 4.856049
787.2979, 4.307190
787.7800, 3.789368
788.2621, 4.684570
788.7443, 6.908234
789.2264, 7.665649
789.7085, 6.304657
790.1906, 5.300171
790.6727, 5.533325
791.1548, 6.246490
791.6370, 6.917572
792.1191, 7.480072
792.6012, 7.389343
793.0833, 5.494415
793.5654, 4.263672
794.0475, 5.392303
794.5297, 7.108276
795.0118, 7.677185
795.4939, 7.046204
795.9760, 5.890625
796.4581, 4.523743
796.9402, 3.185638
797.4224, 2.272064
797.9045, 1.725616
798.3866, 1.177917
798.8687, 0.5853580
799.3508, 0.1004940
799.8329, 0.2769170
800.3151, 0.3658140
800.7972, 0.3101810
801.2793, 2.216125
801.7614, 3.034454
802.2435, 2.136261
802.7256, 1.049957
803.2078, 0.4476620
803.6899, 1.486908
804.1720, 0.6298830
804.6541, 1.854309
805.1362, 3.468658
805.6183, 2.336853
806.1005, 0.3784790
806.5826, 0.6094970
807.0647, 0.8522640
807.5468, 0.6835940
808.0289, 0.2336120
808.5110, 2.9910000E-03
808.9932, 0.3939210
809.4753, 1.073181
809.9574, 1.088409
810.4395, 0.1919560
810.9216, 0.2092590
811.4037, 0.2851870
811.8859, 0.7258610
812.3680, 0.4678650
812.8501, 3.4637000E-02
813.3322, 0.1216430
813.8143, 0.2782290
814.2964, 0.7047420
814.7786, 1.385956
815.2607, 1.672974
815.7428, 0.9677730
816.2249, 0.2494200
816.7070, 1.423431
817.1891, 2.374207
817.6713, 3.005127
818.1534, 3.217377
818.6355, 3.065857
819.1176, 2.490723
819.5997, 1.587158
820.0818, 1.071777
820.5640, 1.080048
821.0461, 1.302246
821.5282, 1.603638
822.0103, 1.868958
822.4924, 1.715027
822.9745, 0.7140200
823.4567, 0.2433470
823.9388, 1.097870
824.4209, 1.568390
824.9030, 0.6112060
825.3851, 0.8464360
825.8672, 1.697357
826.3494, 1.773438
826.8315, 1.299805
827.3136, 0.3863830
827.7957, 1.858887
828.2778, 1.444061
828.7599, 0.1001280
829.2421, 0.3037110
829.7242, 0.4954220
830.2063, 1.401581
830.6884, 1.586334
831.1705, 1.290771
831.6526, 1.057281
832.1348, 0.8759160
832.6169, 0.8676760
833.0990, 1.168152
833.5811, 1.300598
834.0632, 0.8511050
834.5453, 0.1421510
835.0275, 9.5062003E-02
835.5096, 0.3518070
835.9917, 0.6380620
836.4738, 0.6623840
836.9559, 0.6355590
837.4380, 0.5800780
837.9202, 0.5476070
838.4023, 0.6250310
838.8844, 0.7992860
839.3665, 0.9191890
839.8486, 0.9179080
840.3307, 0.8153690
840.8129, 0.5219420
841.2950, 0.1806030
841.7771, 0.2515870
842.2592, 0.6853030
842.7413, 0.5712280
843.2234, 0.7665100
843.7056, 2.311768
844.1877, 1.663940
844.6698, 1.437622
845.1519, 3.385559
845.6340, 3.797150
846.1161, 3.805603
846.5983, 3.679535
847.0804, 3.582855
847.5625, 3.869293
848.0446, 4.589233
848.5267, 4.798279
849.0089, 4.000793
849.4910, 3.276398
849.9731, 2.821198
850.4552, 2.644714
850.9373, 2.984467
851.4194, 3.606689
851.9016, 3.743469
852.3837, 2.869843
852.8658, 2.133301
853.3479, 3.007568
853.8300, 4.534027
854.3121, 4.914825
854.7943, 4.237854
855.2764, 3.580841
855.7585, 3.409058
856.2406, 3.473236
856.7227, 3.395691
857.2048, 3.201355
857.6870, 3.556274
858.1691, 4.635651
858.6512, 5.752991
859.1333, 6.969818
859.6154, 7.699707
860.0975, 7.186584
860.5797, 5.690063
861.0618, 4.622772
861.5439, 3.747345
862.0260, 3.804657
862.5081, 5.843689
862.9902, 7.819305
863.4724, 8.572662
863.9545, 8.441559
864.4366, 7.946899
864.9187, 7.292786
865.4008, 6.927979
865.8829, 7.418091
866.3651, 8.130493
866.8472, 8.337372
867.3293, 8.131989
867.8114, 7.725830
868.2935, 7.278503
868.7756, 7.170288
869.2578, 7.719482
869.7399, 8.572968
870.2220, 8.702454
870.7041, 8.049561
871.1862, 8.417328
871.6683, 10.28159
872.1505, 11.82291
872.6326, 12.01050
873.1147, 11.43219
873.5968, 11.03561
874.0789, 10.83160
874.5610, 10.89514
875.0432, 11.38989
875.5253, 11.86496
876.0074, 12.25693
876.4895, 12.55930
876.9716, 12.47025
877.4537, 12.26587
877.9359, 12.99014
878.4180, 15.54794
878.9001, 17.73752
879.3822, 17.93085
879.8643, 17.24786
880.3464, 16.70322
880.8286, 16.43381
881.3107, 16.52090
881.7928, 17.00726
882.2749, 17.58347
882.7570, 17.90439
883.2391, 17.99646
883.7213, 18.03058
884.2034, 18.08707
884.6855, 18.96591
885.1676, 21.05853
885.6497, 22.90085
886.1318, 23.31561
886.6140, 22.69565
887.0961, 22.44019
887.5782, 22.62271
888.0603, 23.21362
888.5424, 24.71976
889.0245, 25.89532
889.5067, 25.65115
889.9888, 25.16858
890.4709, 26.07529
890.9530, 28.41501
891.4351, 30.06094
891.9172, 30.07553
892.3994, 29.92215
892.8815, 30.01321
893.3636, 30.39731
893.8457, 31.22626
894.3278, 32.32507
894.8099, 33.20004
895.2921, 33.60315
895.7742, 34.07785
896.2563, 35.27042
896.7384, 36.81259
897.2205, 38.27429
897.7026, 39.50327
898.1848, 39.77222
898.6669, 38.91837
899.1490, 38.28802
899.6311, 39.31985
900.1132, 41.48911
900.5953, 42.61115
901.0775, 42.47870
901.5596, 43.00690
902.0417, 44.90530
902.5238, 46.61688
903.0059, 46.72739
903.4880, 46.23251
903.9702, 47.35312
904.4523, 50.79953
904.9344, 52.97031
905.4165, 52.35388
905.8986, 52.41653
906.3807, 54.85013
906.8629, 57.54129
907.3450, 58.42023
907.8271, 57.84879
908.3092, 57.72925
908.7913, 58.68430
909.2734, 59.87173
909.7556, 61.22198
910.2377, 62.38379
910.7198, 62.71051
911.2019, 62.70230
911.6840, 63.51596
912.1661, 65.40637
912.6483, 67.22928
913.1304, 67.81821
913.6125, 67.95200
914.0946, 69.22543
914.5767, 71.10825
915.0588, 71.55933
915.5410, 70.40286
916.0231, 69.69226
916.5052, 70.79556
916.9873, 72.68808
917.4694, 73.36768
917.9515, 72.78293
918.4337, 72.48325
918.9158, 72.55173
919.3979, 72.43393
919.8800, 71.61386
920.3621, 71.26614
920.8442, 73.14087
921.3264, 76.82123
921.8085, 78.20654
922.2906, 75.09592
922.7727, 73.19992
923.2548, 73.59915
923.7369, 74.18088
924.2191, 73.85776
924.7012, 73.10400
925.1833, 72.76010
925.6654, 72.98444
926.1475, 73.21243
926.6296, 73.18436
927.1118, 73.31497
927.5939, 74.19720
928.0760, 75.06580
928.5581, 74.88034
929.0402, 73.90189
929.5223, 73.20483
930.0045, 73.25977
930.4866, 73.57050
930.9687, 73.81763
931.4508, 73.83829
931.9329, 73.35004
932.4150, 72.55997
932.8972, 72.04688
933.3793, 71.91498
933.8614, 71.68451
934.3435, 70.89996
934.8256, 70.63370
935.3077, 69.38126
935.7899, 69.46872
936.2720, 69.13919
936.7541, 68.20694
937.2362, 67.08569
937.7183, 66.01666
938.2004, 64.76761
938.6826, 62.79001
939.1647, 60.04852
939.6468, 58.26669
940.1289, 58.07541
940.6110, 57.39243
941.0931, 55.49869
941.5753, 53.36917
942.0574, 51.55005
942.5395, 50.00803
943.0216, 48.61627
943.5037, 47.27493
943.9858, 46.20584
944.4680, 45.99734
944.9501, 45.39517
945.4322, 43.23599
945.9143, 40.88269
946.3964, 40.09573
946.8785, 40.59778
947.3607, 40.43768
947.8428, 38.61969
948.3249, 36.77649
948.8070, 36.22406
949.2891, 35.67264
949.7712, 33.48557
950.2534, 30.46985
950.7355, 28.47293
951.2176, 27.89633
951.6997, 27.56607
952.1818, 26.58966
952.6639, 25.39981
953.1461, 24.49234
953.6282, 23.86246
954.1103, 23.74438
954.5924, 23.99161
955.0745, 23.67703
955.5566, 22.32877
956.0388, 20.67090
956.5209, 19.81882
957.0030, 19.50165
957.4851, 17.89932
957.9672, 15.02328
958.4493, 13.94223
958.9315, 15.54480
959.4136, 17.47760
959.8957, 18.11459
960.3778, 17.65689
960.8599, 16.44519
961.3420, 14.17154
961.8242, 12.76239
962.3063, 12.41702
962.7884, 12.54376
963.2705, 13.58453
963.7526, 14.17575
964.2347, 12.52966
964.7169, 9.066376
965.1990, 6.858948
965.6811, 7.081909
966.1632, 6.776428
966.6453, 5.419373
967.1274, 4.132324
967.6096, 3.128845
968.0917, 2.604523
968.5738, 3.046722
969.0559, 4.397339
969.5380, 5.281891
970.0201, 5.282745
970.5023, 4.889191
970.9844, 4.038239
971.4665, 3.076050
971.9486, 2.211090
972.4307, 1.466553
972.9128, 0.7565920
973.3950, 6.7809999E-02
973.8771, 0.2730410
974.3592, 0.3012700
974.8413, 0.9253230
975.3234, 0.6623840
975.8055, 5.6580000E-02
976.2877, 3.0792000E-02
976.7698, 0.4974670
977.2519, 0.6479490
977.7340, 9.3323000E-02
978.2161, 0.5498350
978.6982, 0.4159850
979.1804, 1.087921
979.6625, 0.5510860
980.1446, 1.686951
980.6267, 2.275757
981.1088, 2.084320
981.5909, 1.423981
982.0731, 0.4175720
982.5552, 0.3987730
983.0373, 0.4703060
983.5194, 0.2272950
984.0015, 0.8041990
984.4836, 5.7250999E-02
984.9658, 1.694733
985.4479, 1.401611
985.9300, 0.3309630
986.4121, 0.5409850
986.8942, 1.213898
987.3763, 1.714325
987.8585, 2.093445
988.3406, 1.858734
988.8227, 0.7363280
989.3048, 0.1199340
989.7869, 0.1337590
990.2690, 0.1383360
990.7512, 2.5787000E-02
991.2333, 0.4279170
991.7154, 0.6969910
992.1975, 0.8795470
992.6796, 0.6334230
993.1617, 0.5947270
993.6439, 1.519867
994.1260, 1.489410
994.6081, 0.8345640
995.0902, 0.2213130
995.5723, 1.723999
996.0544, 2.339050
996.5366, 1.293121
997.0187, 0.4003600
997.5008, 0.4151920
997.9829, 0.6234740
998.4650, 0.8687740
998.9471, 2.869537
999.4293, 3.044891
999.9114, 0.9754640
1000.393, 0.2043460
1000.876, 1.531677
1001.358, 2.841003
1001.840, 1.604462
1002.322, 4.4158999E-02
1002.804, 0.1644590
1003.286, 0.8869930
1003.768, 1.974609
1004.250, 2.803040
1004.733, 3.358978
1005.215, 3.397125
1005.697, 3.413483
1006.179, 4.219238
1006.661, 4.945129
1007.143, 3.956604
1007.625, 1.797668
1008.107, 0.7052610
1008.589, 1.682007
1009.072, 2.949738
1009.554, 2.936646
1010.036, 2.462097
1010.518, 2.329437
1011.000, 2.555725
1011.482, 3.215302
1011.964, 4.223175
1012.446, 5.225128
1012.929, 6.033447
1013.411, 6.769501
1013.893, 7.772736
1014.375, 8.719818
1014.857, 8.746887
1015.339, 8.128052
1015.821, 7.963562
1016.303, 8.424286
1016.785, 8.653534
1017.268, 8.042267
1017.750, 7.048096
1018.232, 6.146515
1018.714, 5.503662
1019.196, 6.111603
1019.678, 7.808746
1020.160, 8.920319
1020.642, 8.990570
1021.125, 8.792450
1021.607, 8.912689
1022.089, 9.303040
1022.571, 10.06247
1023.053, 11.13327
1023.535, 10.98306
1024.017, 9.472443
1024.499, 9.132599
1024.981, 10.91586
1025.464, 12.92035
1025.946, 13.41049
1026.428, 12.81110
1026.910, 12.43835
1027.392, 12.33075
1027.874, 11.98798
1028.356, 11.24445
1028.838, 11.01388
1029.321, 11.67487
1029.803, 12.82016
1030.285, 14.23090
1030.767, 15.68552
1031.249, 16.12653
1031.731, 15.25354
1032.213, 14.51309
1032.695, 14.02869
1033.177, 13.33313
1033.660, 11.80923
1034.142, 10.77213
1034.624, 11.84833
1035.106, 14.62482
1035.588, 16.53772
1036.070, 17.58157
1036.552, 17.64752
1037.034, 15.83997
1037.516, 14.55798
1037.999, 14.94684
1038.481, 15.78833
1038.963, 15.85715
1039.445, 15.25702
1039.927, 14.56641
1040.409, 13.51990
1040.891, 12.69424
1041.373, 12.28809
1041.855, 11.96103
1042.338, 11.44519
1042.820, 11.07080
1043.302, 11.41995
1043.784, 12.31937
1044.266, 12.42078
1044.748, 11.08075
1045.230, 9.962708
1045.712, 8.929443
1046.195, 8.454376
1046.677, 9.473816
1047.159, 10.66907
1047.641, 10.44345
1048.123, 8.963593
1048.605, 7.739410
1049.087, 6.738251
1049.569, 6.219788
1050.052, 6.725891
1050.534, 7.173035
1051.016, 6.927429
1051.498, 6.376190
1051.980, 6.039368
1052.462, 5.940125
1052.944, 5.775238
1053.426, 5.151855
1053.908, 4.979431
1054.391, 6.262604
1054.873, 7.109650
1055.355, 5.911346
1055.837, 4.188263
1056.319, 3.807037
1056.801, 4.671783
1057.283, 5.422058
1057.765, 5.694427
1058.248, 5.799347
1058.730, 6.229401
1059.212, 6.209442
1059.694, 4.621277
1060.176, 2.831604
1060.658, 2.705109
1061.140, 3.994293
1061.622, 4.736145
1062.104, 4.189667
1062.587, 3.702515
1063.069, 3.942749
1063.551, 4.157867
1064.033, 3.746521
1064.515, 3.219238
1064.997, 3.129181
1065.479, 3.459808
1065.961, 3.775055
1066.443, 3.968170
1066.926, 4.119720
1067.408, 4.169312
1067.890, 4.328278
1068.372, 4.586578
1068.854, 5.070679
1069.336, 6.270813
1069.818, 7.774078
1070.300, 8.267303
1070.782, 7.272095
1071.265, 6.371216
1071.747, 6.678650
1072.229, 6.796631
1072.711, 5.334625
1073.193, 3.658295
1073.675, 3.473755
1074.157, 4.418457
1074.639, 5.031158
1075.122, 4.873260
1075.604, 4.635559
1076.086, 4.625763
1076.568, 4.641632
1077.050, 4.569946
1077.532, 4.453735
1078.014, 4.341949
1078.496, 4.226379
1078.979, 4.008636
1079.461, 3.639587
1079.943, 3.617126
1080.425, 4.514832
1080.907, 5.404877
1081.389, 6.041687
1081.871, 6.204132
1082.353, 5.188049
1082.835, 3.686584
1083.318, 3.205292
1083.800, 4.073486
1084.282, 5.056213
1084.764, 5.923096
1085.246, 6.400879
1085.728, 6.030548
1086.210, 5.510651
1086.692, 5.625458
1087.175, 6.139954
1087.657, 6.594391
1088.139, 6.875610
1088.621, 6.838104
1089.103, 5.950562
1089.585, 5.399414
1090.067, 6.374756
1090.549, 7.195709
1091.031, 6.109680
1091.514, 4.256287
1091.996, 3.477386
1092.478, 3.920746
1092.960, 4.462555
1093.442, 5.050323
1093.924, 5.106537
1094.406, 3.904175
1094.888, 2.657837
1095.370, 2.037231
1095.853, 1.917603
1096.335, 2.258789
1096.817, 2.928986
1097.299, 3.438293
1097.781, 3.705872
1098.263, 3.668610
1098.745, 2.948669
1099.227, 2.358765
1099.709, 2.489349
1100.192, 2.847168
1100.674, 2.946991
1101.156, 2.789642
1101.638, 2.471130
1102.120, 1.814331
1102.602, 1.708679
1103.084, 3.284851
1103.566, 4.285431
1104.049, 3.406036
1104.531, 1.924347
1105.013, 0.6658630
1105.495, 0.2328190
1105.977, 0.6583250
1106.459, 0.5889890
1106.941, 0.1382450
1107.423, 0.6484070
1107.906, 1.842010
1108.388, 4.518982
1108.870, 6.543182
1109.352, 6.091461
1109.834, 4.219666
1110.316, 2.630371
1110.798, 1.405182
1111.280, 0.7003780
1111.762, 0.9462280
1112.245, 1.084137
1112.727, 1.069672
1113.209, 0.8311460
1113.691, 2.3132000E-02
1114.173, 0.9003600
1114.655, 0.9913940
1115.137, 0.3477170
1115.619, 0.2853700
1116.102, 1.142029
1116.584, 1.544006
1117.066, 0.8712160
1117.548, 0.6759340
1118.030, 2.165497
1118.512, 3.612488
1118.994, 3.092834
1119.476, 1.188171
1119.958, 0.3140260
1120.441, 0.9621890
1120.923, 1.008759
1121.405, 0.1134950
1121.887, 0.5149230
1122.369, 0.6951600
1122.851, 1.970490
1123.333, 2.203583
1123.815, 1.685974
1124.297, 1.004822
1124.780, 0.1339420
1125.262, 0.5210570
1125.744, 0.9425050
1126.226, 1.264984
1126.708, 1.674347
1127.190, 1.329254
1127.672, 0.4981080
1128.154, 2.671875
1128.636, 3.524231
1129.119, 3.186035
1129.601, 2.608612
1130.083, 1.715729
1130.565, 1.484833
1131.047, 2.104004
1131.529, 2.509430
1132.011, 2.247803
1132.493, 1.808929
1132.976, 1.709381
1133.458, 1.763428
1133.940, 1.254395
1134.422, 1.416046
1134.904, 1.568054
1135.386, 1.384430
1135.868, 2.047455
1136.350, 1.940796
1136.833, 1.903687
1137.315, 2.578491
1137.797, 3.369232
1138.279, 3.156952
1138.761, 2.255371
1139.243, 1.644196
1139.725, 1.323822
1140.207, 1.360138
1140.689, 1.687714
1141.172, 1.925446
1141.654, 1.889740
1142.136, 1.489777
1142.618, 0.2058110
1143.100, 1.028839
1143.582, 0.2398380
1144.064, 1.632721
1144.546, 2.781189
1145.029, 3.122040
1145.511, 3.020966
1145.993, 2.642395
1146.475, 2.192200
1146.957, 1.688782
1147.439, 1.479156
1147.921, 2.433563
1148.403, 3.433441
1148.885, 2.585693
1149.368, 1.031738
1149.850, 1.128937
1150.332, 2.775818
1150.814, 3.916870
1151.296, 3.673981
1151.778, 3.041199
1152.260, 2.197205
1152.742, 1.650726
1153.224, 2.237885
1153.707, 2.901611
1154.189, 2.127472
1154.671, 0.6086120
1155.153, 0.1329650
1155.635, 1.066772
1156.117, 2.221222
1156.599, 3.726776
1157.081, 4.680267
1157.563, 4.786133
1158.046, 4.268188
1158.528, 2.618164
1159.010, 0.8408810
1159.492, 0.4167480
1159.974, 1.214508
1160.456, 1.488525
1160.938, 0.4003300
1161.420, 0.1583860
1161.903, 1.800903
1162.385, 2.925446
1162.867, 2.596008
1163.349, 1.811310
1163.831, 1.097900
1164.313, 0.6755980
1164.795, 1.166290
1165.277, 2.760895
1165.760, 3.471924
1166.242, 3.005524
1166.724, 2.557770
1167.206, 2.264313
1167.688, 2.177399
1168.170, 2.379974
1168.652, 2.665955
1169.134, 2.798706
1169.616, 2.776367
1170.099, 2.464325
1170.581, 1.853363
1171.063, 1.676056
1171.545, 1.973816
1172.027, 2.640533
1172.509, 3.716644
1172.991, 4.762085
1173.473, 5.438690
1173.956, 5.655182
1174.438, 5.172180
1174.920, 4.207703
1175.402, 3.015076
1175.884, 1.890533
1176.366, 2.100128
1176.848, 3.484619
1177.330, 4.676666
1177.813, 5.090454
1178.295, 4.708496
1178.777, 2.881226
1179.259, 1.160492
1179.741, 1.848206
1180.223, 3.678925
1180.705, 5.008270
1181.187, 5.775757
1181.669, 6.300995
1182.151, 6.577789
1182.634, 6.150299
1183.116, 4.557404
1183.598, 3.076691
1184.080, 2.507172
1184.562, 2.233002
1185.044, 1.864502
1185.526, 1.786255
1186.008, 2.484558
1186.490, 3.597107
1186.973, 4.306213
1187.455, 4.469452
1187.937, 4.231812
1188.419, 3.033508
1188.901, 2.336395
1189.383, 2.731964
1189.865, 3.306152
1190.347, 3.544403
1190.830, 3.800507
1191.312, 4.711578
1191.794, 4.578644
1192.276, 4.421234
1192.758, 4.566345
1193.240, 3.536682
1193.722, 3.113159
1194.204, 2.670746
1194.687, 1.913300
1195.169, 1.735748
1195.651, 2.898376
1196.133, 4.377197
1196.615, 4.418854
1197.097, 3.344147
1197.579, 3.227356
1198.061, 4.008118
1198.543, 4.544922
1199.026, 4.728943
1199.508, 4.562378
1199.990, 4.064026
1200.472, 3.570038
1200.954, 3.276489
1201.436, 3.242493
1201.918, 3.506134
1202.400, 3.831787
1202.883, 3.590332
1203.365, 3.128998
1203.847, 3.430878
1204.329, 4.342102
1204.811, 4.818542
1205.293, 4.488892
1205.775, 4.037903
1206.257, 3.983246
1206.740, 3.891144
1207.222, 3.424896
1207.704, 2.794525
1208.186, 1.898895
1208.668, 1.145721
1209.150, 1.208038
1209.632, 1.997498
1210.114, 2.814453
1210.596, 3.688477
1211.078, 3.972900
1211.561, 2.939209
1212.043, 2.125061
1212.525, 2.282074
1213.007, 2.488373
1213.489, 2.064697
1213.971, 1.371124
1214.453, 0.8499450
1214.935, 0.5281680
1215.417, 1.119690
1215.900, 3.127563
1216.382, 4.058258
1216.864, 3.566956
1217.346, 2.824310
1217.828, 2.114380
1218.310, 1.700317
1218.792, 1.818207
1219.274, 2.202362
1219.757, 2.364380
1220.239, 2.357941
1220.721, 2.446198
1221.203, 2.657166
1221.685, 2.892120
1222.167, 3.103485
1222.649, 3.059937
1223.131, 2.701019
1223.614, 2.323761
1224.096, 2.070038
1224.578, 2.143524
1225.060, 3.145538
1225.542, 4.253326
1226.024, 4.265015
1226.506, 3.812317
1226.988, 4.190491
1227.470, 5.057831
1227.953, 4.857452
1228.435, 3.154358
1228.917, 1.699860
1229.399, 0.9794620
1229.881, 0.9013060
1230.363, 2.463074
1230.845, 3.475555
1231.327, 1.987366
1231.810, 0.2344670
1232.292, 1.076904
1232.774, 0.8340760
1233.256, 0.6982120
1233.738, 0.8671880
1234.220, 0.2467960
1234.702, 1.633881
1235.184, 2.733276
1235.667, 2.573456
1236.149, 1.900482
1236.631, 0.9333190
1237.113, 0.3833920
1237.595, 1.280853
1238.077, 1.074982
1238.559, 3.140411
1239.041, 2.231842
1239.523, 2.314301
1240.005, 3.135895
1240.488, 2.705688
1240.970, 0.9232790
1241.452, 0.2103270
1241.934, 0.2954710
1242.416, 1.163208
1242.898, 1.320709
1243.380, 1.149353
1243.862, 0.7650760
1244.344, 0.4899600
1244.827, 0.9280090
1245.309, 1.612976
1245.791, 1.564331
1246.273, 0.8815000
1246.755, 0.7917180
1247.237, 1.901123
1247.719, 2.536194
1248.201, 1.957031
1248.684, 1.378845
1249.166, 1.226624
1249.648, 1.078400
1250.130, 0.4163820
1250.612, 0.1009520
1251.094, 0.6206360
1251.576, 2.265625
1252.058, 2.863678
1252.541, 2.268707
1253.023, 1.724030
1253.505, 1.241241
1253.987, 0.9831240
1254.469, 0.9851990
1254.951, 1.357666
1255.433, 2.202850
1255.915, 2.940277
1256.397, 2.785309
1256.880, 2.146484
1257.362, 1.614868
1257.844, 1.287933
1258.326, 1.582672
1258.808, 2.183380
1259.290, 2.475098
1259.772, 2.587158
1260.254, 2.401306
1260.737, 1.579285
1261.219, 1.018860
1261.701, 1.392303
1262.183, 2.011261
1262.665, 2.889038
1263.147, 3.462830
1263.629, 2.881561
1264.111, 2.009094
1264.594, 1.809052
1265.076, 2.188293
1265.558, 2.777527
1266.040, 3.778870
1266.522, 4.070587
1267.004, 3.417847
1267.486, 2.969513
1267.968, 3.003448
1268.450, 2.952026
1268.932, 2.766052
1269.415, 2.304230
1269.897, 1.417358
1270.379, 0.5812680
1270.861, 1.158997
1271.343, 2.589447
1271.825, 3.264130
1272.307, 3.412903
1272.789, 4.034851
1273.271, 4.932648
1273.754, 4.651764
1274.236, 2.771667
1274.718, 1.135956
1275.200, 1.161530
1275.682, 1.479492
1276.164, 1.160950
1276.646, 0.9143070
1277.128, 1.692108
1277.611, 2.493835
1278.093, 1.475372
1278.575, 0.4126890
1279.057, 8.5749999E-03
1279.539, 3.245514
1280.021, 4.508087
1280.503, 2.640167
1280.985, 1.645447
1281.468, 2.190857
1281.950, 2.831055
1282.432, 1.593597
1282.914, 1.371368
1283.396, 1.237518
1283.878, 1.079407
1284.360, 0.8982850
1284.842, 0.5060730
1285.324, 0.0000000E+00
##END=



