##NAMES=Kurchatovite
##RRUFFID=R130074
##IDEAL CHEMISTRY=CaMgB_2_O_5_
##LOCALITY=Solongo B deposit, Vitim Plateau, Buriatia (Buryatia) Republic, Transbaikalia (Zabaykalye), Eastern-Siberian Region, Russia
##OWNER=RRUFF
##SOURCE=Igor Pekov
##DESCRIPTION=Pale gray crystals with good cleavage, associated with white frolovite and yellow wurtzite
##STATUS=The identification of this mineral has been confirmed by single-crystal X-ray diffraction.
##URL=rruff.info/R130074
90.59570, 0.0000000E+00
91.07782, 3.3248998E-02
91.55994, 0.7608720
92.04205, 3.330971
92.52417, 6.628983
93.00629, 10.42051
93.48840, 13.92794
93.97052, 15.95869
94.45264, 15.63211
94.93475, 14.28866
95.41687, 13.31893
95.89898, 13.31558
96.38110, 13.76578
96.86321, 13.63635
97.34533, 12.70847
97.82745, 11.03942
98.30956, 9.288651
98.79168, 7.412193
99.27380, 5.727730
99.75591, 4.243286
100.2380, 2.877655
100.7201, 1.792122
101.2023, 1.237663
101.6844, 0.6892850
102.1665, 0.4216000
102.6486, 0.9914780
103.1307, 1.882782
103.6128, 2.759445
104.0950, 3.377174
104.5771, 4.025909
105.0592, 5.108932
105.5413, 5.939484
106.0234, 6.425346
106.5055, 6.371284
106.9877, 5.864998
107.4698, 5.272804
107.9519, 4.430367
108.4340, 3.739471
108.9161, 3.460014
109.3982, 3.432419
109.8804, 3.265686
110.3625, 2.472130
110.8446, 0.8308330
111.3267, 0.2335210
111.8088, 0.4202500
112.2909, 0.3029630
112.7731, 4.7501002E-02
113.2552, 0.2710800
113.7373, 0.5913700
114.2194, 0.8349380
114.7015, 1.064682
115.1836, 1.054298
115.6658, 0.5951840
116.1479, 1.7006001E-02
116.6300, 0.3649140
117.1121, 0.4272770
117.5942, 0.2987590
118.0763, 0.3080370
118.5584, 0.6036220
119.0406, 0.7317200
119.5227, 0.4493560
120.0048, 0.1134640
120.4869, 0.5996480
120.9690, 0.8325040
121.4511, 0.9053650
121.9333, 1.045036
122.4154, 1.342278
122.8975, 1.605614
123.3796, 1.646385
123.8617, 1.443687
124.3438, 1.187912
124.8260, 0.7966610
125.3081, 0.4600140
125.7902, 0.3845370
126.2723, 0.6808850
126.7544, 1.237175
127.2365, 1.818810
127.7187, 2.477058
128.2008, 3.094246
128.6829, 3.640617
129.1650, 4.143486
129.6471, 4.588821
130.1292, 4.954109
130.6114, 5.255455
131.0935, 5.736076
131.5756, 6.626938
132.0577, 7.496254
132.5398, 8.175514
133.0219, 8.741631
133.5041, 9.392685
133.9862, 10.32632
134.4683, 11.63534
134.9504, 12.60469
135.4325, 13.33514
135.9146, 13.73327
136.3968, 13.63598
136.8789, 13.07185
137.3610, 12.32168
137.8431, 11.71439
138.3252, 11.29637
138.8073, 10.73787
139.2895, 9.855095
139.7716, 8.884590
140.2537, 8.086754
140.7358, 7.523590
141.2179, 7.153748
141.7000, 6.990685
142.1821, 7.013313
142.6643, 7.006310
143.1464, 6.905418
143.6285, 6.712418
144.1106, 6.405052
144.5927, 5.886246
145.0748, 5.340446
145.5570, 4.927338
146.0391, 4.636749
146.5212, 4.363651
147.0033, 3.990723
147.4854, 3.500927
147.9675, 3.097309
148.4497, 2.922104
148.9318, 2.883739
149.4139, 3.093254
149.8960, 3.564121
150.3781, 4.170780
150.8602, 4.713524
151.3424, 5.102688
151.8245, 5.642731
152.3066, 6.378490
152.7887, 7.233200
153.2708, 8.130424
153.7529, 9.039410
154.2351, 10.01619
154.7172, 11.21158
155.1993, 13.03287
155.6814, 14.58500
156.1635, 15.82188
156.6456, 16.77643
157.1278, 17.47304
157.6099, 17.91933
158.0920, 18.12622
158.5741, 18.13276
159.0562, 18.04333
159.5383, 17.67008
160.0205, 16.88282
160.5026, 15.78908
160.9847, 14.57646
161.4668, 13.31161
161.9489, 12.03796
162.4310, 10.98847
162.9131, 10.27966
163.3953, 9.641624
163.8774, 8.869705
164.3595, 7.986710
164.8416, 7.263073
165.3237, 6.999928
165.8058, 6.991535
166.2880, 6.752426
166.7701, 6.001785
167.2522, 5.166580
167.7343, 4.764713
168.2164, 4.866192
168.6985, 5.046604
169.1807, 5.064610
169.6628, 5.029545
170.1449, 5.075401
170.6270, 5.308064
171.1091, 5.616707
171.5912, 5.701302
172.0734, 5.321552
172.5555, 5.181416
173.0376, 5.657745
173.5197, 6.470387
174.0018, 7.232437
174.4839, 7.714710
174.9661, 7.976059
175.4482, 8.251770
175.9303, 8.495045
176.4124, 8.775593
176.8945, 9.121029
177.3766, 9.554684
177.8588, 10.10306
178.3409, 10.78097
178.8230, 11.58419
179.3051, 12.12834
179.7872, 12.24492
180.2693, 12.27655
180.7515, 12.26119
181.2336, 12.23182
181.7157, 12.23658
182.1978, 12.32277
182.6799, 12.49992
183.1620, 12.64521
183.6441, 12.74030
184.1263, 12.83826
184.6084, 13.04680
185.0905, 13.31922
185.5726, 13.44343
186.0547, 13.19213
186.5368, 12.49575
187.0190, 11.91950
187.5011, 11.63880
187.9832, 11.35619
188.4653, 10.84924
188.9474, 10.09953
189.4296, 9.222553
189.9117, 8.263275
190.3938, 7.235489
190.8759, 6.369419
191.3580, 5.738850
191.8401, 5.259609
192.3223, 4.836731
192.8044, 4.456287
193.2865, 4.157978
193.7686, 4.008339
194.2507, 3.973717
194.7328, 3.994156
195.2150, 4.135231
195.6971, 4.307678
196.1792, 4.276241
196.6613, 3.887451
197.1434, 3.598404
197.6255, 3.938560
198.1077, 4.666592
198.5898, 5.145710
199.0719, 4.813278
199.5540, 3.904102
200.0361, 3.461903
200.5182, 3.787220
201.0004, 4.217995
201.4825, 4.417965
201.9646, 4.431499
202.4467, 4.379124
202.9288, 4.353432
203.4109, 4.348236
203.8930, 4.234818
204.3752, 3.781170
204.8573, 3.469845
205.3394, 3.610096
205.8215, 4.054615
206.3036, 4.431206
206.7857, 4.372673
207.2679, 3.840988
207.7500, 3.643967
208.2321, 4.276463
208.7142, 4.809212
209.1963, 4.847717
209.6784, 4.509129
210.1606, 4.179501
210.6427, 4.234337
211.1248, 4.750626
211.6069, 4.953480
212.0890, 4.671329
212.5711, 4.271564
213.0533, 3.850719
213.5354, 3.433582
214.0175, 3.009975
214.4996, 2.557178
214.9817, 2.045990
215.4638, 1.734344
215.9460, 1.854259
216.4281, 1.922764
216.9102, 1.658470
217.3923, 1.092896
217.8744, 0.4511910
218.3565, 7.2944999E-02
218.8387, 0.4672890
219.3208, 0.7731670
219.8029, 1.045303
220.2850, 1.201885
220.7671, 1.102634
221.2492, 0.7843780
221.7314, 0.5160900
222.2135, 0.5603520
222.6956, 0.9428220
223.1777, 1.158928
223.6598, 1.154640
224.1419, 1.027908
224.6240, 0.8025970
225.1062, 0.4905240
225.5883, 0.1985890
226.0704, 4.9599999E-04
226.5525, 9.7015001E-02
227.0346, 0.1148530
227.5167, 5.7785001E-02
227.9989, 0.2402950
228.4810, 0.2510570
228.9631, 7.8060001E-02
229.4452, 0.1462250
229.9273, 0.3467600
230.4094, 0.5243610
230.8916, 0.6824340
231.3737, 0.8180960
231.8558, 0.9373400
232.3379, 1.026340
232.8200, 1.073593
233.3021, 1.162781
233.7843, 1.423382
234.2664, 1.748611
234.7485, 1.962215
235.2306, 1.937756
235.7127, 1.852074
236.1948, 1.975952
236.6770, 2.365528
237.1591, 2.733418
237.6412, 2.866737
238.1233, 2.916348
238.6054, 3.060200
239.0875, 3.392654
239.5697, 3.784977
240.0518, 4.023590
240.5339, 4.071289
241.0160, 4.084290
241.4981, 4.075890
241.9802, 4.083447
242.4624, 4.170486
242.9445, 4.382492
243.4266, 4.606667
243.9087, 4.621368
244.3908, 4.331585
244.8729, 4.090458
245.3550, 4.051361
245.8372, 4.070217
246.3193, 4.041542
246.8014, 3.931656
247.2835, 3.737171
247.7656, 3.389202
248.2477, 2.702160
248.7299, 2.326538
249.2120, 2.661842
249.6941, 3.143791
250.1762, 3.292271
250.6583, 2.969948
251.1404, 2.479141
251.6226, 2.349918
252.1047, 2.797195
252.5868, 3.128986
253.0689, 3.234417
253.5510, 3.254887
254.0331, 3.277710
254.5153, 3.327465
254.9974, 3.388863
255.4795, 3.407314
255.9616, 3.221943
256.4437, 3.374332
256.9258, 4.140957
257.4080, 4.980255
257.8901, 5.539570
258.3722, 5.760967
258.8543, 5.828426
259.3364, 5.983383
259.8185, 6.263897
260.3007, 6.537762
260.7828, 6.857967
261.2649, 7.136307
261.7470, 7.277477
262.2291, 7.294151
262.7112, 7.305340
263.1934, 7.453434
263.6755, 7.783005
264.1576, 8.100960
264.6397, 8.368393
265.1218, 8.652111
265.6039, 9.021793
266.0861, 9.461658
266.5682, 9.884590
267.0503, 10.20765
267.5324, 10.42435
268.0145, 10.54230
268.4966, 10.46405
268.9788, 10.40084
269.4609, 10.50188
269.9430, 10.72367
270.4251, 10.89392
270.9072, 10.86367
271.3893, 10.62477
271.8715, 10.42854
272.3536, 10.38807
272.8357, 10.27126
273.3178, 9.891422
273.7999, 9.342785
274.2820, 8.899075
274.7642, 8.768589
275.2463, 8.909988
275.7284, 8.821033
276.2105, 8.271923
276.6926, 7.765404
277.1747, 7.589901
277.6568, 7.596680
278.1389, 7.411579
278.6211, 6.802250
279.1032, 5.933907
279.5853, 5.471550
280.0674, 5.703373
280.5495, 5.852150
281.0316, 5.679306
281.5138, 5.328579
281.9959, 5.054604
282.4780, 4.982979
282.9601, 5.016506
283.4422, 4.880558
283.9243, 4.494938
284.4065, 4.099960
284.8886, 3.628468
285.3707, 3.196758
285.8528, 3.005119
286.3349, 3.142796
286.8170, 3.484516
287.2992, 3.834747
287.7813, 4.225784
288.2634, 4.493282
288.7455, 4.494602
289.2276, 4.403084
289.7097, 4.430069
290.1919, 4.624817
290.6740, 4.900761
291.1561, 5.173527
291.6382, 5.446980
292.1203, 5.678562
292.6024, 5.824284
293.0846, 5.946690
293.5667, 6.085541
294.0488, 6.249321
294.5309, 6.487217
295.0130, 6.891232
295.4951, 7.456886
295.9773, 7.848000
296.4594, 7.930534
296.9415, 7.924309
297.4236, 7.983036
297.9057, 8.112450
298.3878, 8.273262
298.8700, 8.453648
299.3521, 8.642292
299.8342, 8.784435
300.3163, 8.812328
300.7984, 8.854824
301.2805, 8.985649
301.7627, 9.196560
302.2448, 9.451271
302.7269, 9.742809
303.2090, 10.05954
303.6911, 10.37847
304.1732, 10.78838
304.6554, 11.06793
305.1375, 11.01824
305.6196, 10.75549
306.1017, 10.61091
306.5838, 10.75961
307.0659, 10.99774
307.5481, 10.90693
308.0302, 10.45261
308.5123, 9.923584
308.9944, 9.409111
309.4765, 8.882618
309.9586, 8.293049
310.4408, 7.620617
310.9229, 6.915451
311.4050, 6.222260
311.8871, 5.528248
312.3692, 4.954475
312.8513, 4.644901
313.3335, 4.413235
313.8156, 3.989521
314.2977, 3.327850
314.7798, 2.689201
315.2619, 2.340328
315.7440, 2.264347
316.2262, 2.134251
316.7083, 1.845860
317.1904, 1.549206
317.6725, 1.383808
318.1546, 1.345467
318.6367, 1.321175
319.1188, 1.237648
319.6010, 1.106201
320.0831, 0.9911960
320.5652, 0.9108240
321.0473, 0.8278080
321.5294, 0.6873440
322.0115, 0.5214810
322.4937, 0.4510150
322.9758, 0.5645830
323.4579, 0.7691730
323.9400, 0.8159790
324.4221, 0.6238980
324.9042, 0.4809340
325.3864, 0.5118140
325.8685, 0.6579480
326.3506, 0.8177340
326.8327, 0.9649240
327.3148, 1.093460
327.7969, 1.185818
328.2791, 1.235497
328.7612, 1.309536
329.2433, 1.461086
329.7254, 1.604912
330.2075, 1.631397
330.6896, 1.526123
331.1718, 1.421867
331.6539, 1.455799
332.1360, 1.641380
332.6181, 1.816700
333.1002, 2.010101
333.5823, 2.170238
334.0645, 2.250492
334.5466, 2.245453
335.0287, 2.186848
335.5108, 2.054314
335.9929, 1.886856
336.4750, 1.936020
336.9572, 2.458218
337.4393, 2.904266
337.9214, 2.986828
338.4035, 2.813351
338.8856, 2.656143
339.3677, 2.651688
339.8499, 2.715485
340.3320, 2.602200
340.8141, 2.187508
341.2962, 1.850029
341.7783, 1.655544
342.2604, 1.578426
342.7426, 1.629646
343.2247, 1.813316
343.7068, 2.024437
344.1889, 2.098934
344.6710, 1.969826
345.1531, 1.808666
345.6353, 1.538185
346.1174, 1.311115
346.5995, 1.214119
347.0816, 1.256796
347.5637, 1.466709
348.0458, 1.936661
348.5280, 2.705505
349.0101, 3.028879
349.4922, 2.541243
349.9743, 2.056322
350.4564, 1.884485
350.9385, 1.964884
351.4207, 2.162426
351.9028, 2.426592
352.3849, 2.721411
352.8670, 2.886356
353.3491, 2.796795
353.8312, 2.752722
354.3134, 2.766647
354.7955, 2.853291
355.2776, 3.092367
355.7597, 3.493200
356.2418, 3.852177
356.7239, 3.811956
357.2061, 3.048870
357.6882, 2.545637
358.1703, 2.522652
358.6524, 2.577515
359.1345, 2.375267
359.6166, 1.929909
360.0987, 1.543055
360.5808, 1.533531
361.0630, 1.958874
361.5451, 2.225355
362.0272, 2.208948
362.5093, 2.164856
362.9914, 2.198952
363.4735, 2.266581
363.9557, 2.250996
364.4378, 2.068712
364.9199, 1.786566
365.4020, 1.699154
365.8841, 2.043741
366.3662, 2.261307
366.8484, 2.228424
367.3305, 2.075163
367.8126, 1.900614
368.2947, 1.744648
368.7768, 1.634129
369.2589, 1.635696
369.7411, 1.835680
370.2232, 1.908590
370.7053, 1.730856
371.1874, 1.526651
371.6695, 1.416153
372.1516, 1.395924
372.6338, 1.386467
373.1159, 1.327360
373.5980, 1.218960
374.0801, 1.053450
374.5622, 0.7097760
375.0443, 0.4635790
375.5265, 0.4558490
376.0086, 0.5861910
376.4907, 0.7158570
376.9728, 0.7931270
377.4549, 0.7949370
377.9370, 0.6360170
378.4192, 0.2298070
378.9013, 9.0163998E-02
379.3834, 0.2014430
379.8655, 0.2114410
380.3476, 0.1824870
380.8297, 0.1279740
381.3119, 6.0593002E-02
381.7940, 2.3758000E-02
382.2761, 0.1239530
382.7582, 0.1647010
383.2403, 7.9751998E-02
383.7224, 8.3500001E-04
384.2046, 5.9510998E-02
384.6867, 0.2094480
385.1688, 0.2815090
385.6509, 8.9941002E-02
386.1330, 0.2261260
386.6151, 0.3250710
387.0973, 0.1507680
387.5794, 3.9554998E-02
388.0615, 7.4545003E-02
388.5436, 4.0894002E-02
389.0257, 7.2296001E-02
389.5078, 0.2437760
389.9900, 0.3932130
390.4721, 0.2777730
390.9542, 4.7929998E-02
391.4363, 0.1055070
391.9184, 0.4140530
392.4005, 1.078747
392.8827, 1.266655
393.3648, 0.9568560
393.8469, 0.6097870
394.3290, 0.3236430
394.8111, 0.1376170
395.2932, 0.1731190
395.7754, 0.4678460
396.2575, 0.7651880
396.7396, 0.8307670
397.2217, 0.6777650
397.7038, 0.5495800
398.1859, 0.4537300
398.6681, 0.3863700
399.1501, 0.3809720
399.6323, 0.4101280
400.1144, 0.3615260
400.5965, 0.1555820
401.0786, 0.1266210
401.5607, 0.2332290
402.0428, 4.4376001E-02
402.5250, 7.9571001E-02
403.0071, 9.4029997E-03
403.4892, 0.1274320
403.9713, 0.1619420
404.4534, 6.2077001E-02
404.9355, 4.3887999E-02
405.4177, 2.2340000E-03
405.8998, 0.2426320
406.3819, 0.4270190
406.8640, 0.6365530
407.3461, 0.7226730
407.8282, 0.5237920
408.3104, 0.1369970
408.7925, 0.2108150
409.2746, 0.3844740
409.7567, 0.3984570
410.2388, 0.3218350
410.7209, 6.6791996E-02
411.2031, 0.1700520
411.6852, 0.4326820
412.1673, 0.6386170
412.6494, 0.6947840
413.1315, 0.5845510
413.6136, 0.3855650
414.0958, 0.1890430
414.5779, 1.4360000E-02
415.0600, 0.1799680
415.5421, 0.3152240
416.0242, 0.4034040
416.5063, 0.4258670
416.9885, 0.3941780
417.4706, 0.3262440
417.9527, 0.2136920
418.4348, 9.1038004E-02
418.9169, 8.7844998E-02
419.3990, 0.2616600
419.8812, 0.4290080
420.3633, 0.5223370
420.8454, 0.5893920
421.3275, 0.6832500
421.8096, 0.8181360
422.2917, 0.9331840
422.7739, 0.9615750
423.2560, 0.9061320
423.7381, 0.8152390
424.2202, 0.6274700
424.7023, 0.5042570
425.1844, 0.6117460
425.6666, 0.8899440
426.1487, 1.121605
426.6308, 1.184755
427.1129, 1.163315
427.5950, 1.173101
428.0771, 1.215302
428.5593, 1.279011
429.0414, 1.369585
429.5235, 1.473373
430.0056, 1.571539
430.4877, 1.698061
430.9698, 1.742037
431.4520, 1.545729
431.9341, 1.243839
432.4162, 1.134558
432.8983, 1.309134
433.3804, 1.560913
433.8625, 1.639742
434.3447, 1.513018
434.8268, 1.480421
435.3089, 1.610186
435.7910, 1.786844
436.2731, 1.950188
436.7552, 2.093365
437.2374, 2.244293
437.7195, 2.441336
438.2016, 2.626156
438.6837, 2.564508
439.1658, 1.781996
439.6479, 1.362463
440.1301, 1.651445
440.6122, 2.178951
441.0943, 2.533644
441.5764, 2.619200
442.0585, 2.552557
442.5406, 2.448000
443.0227, 2.291321
443.5049, 2.195677
443.9870, 2.136627
444.4691, 2.154520
444.9512, 2.395021
445.4333, 2.708088
445.9154, 2.821196
446.3976, 2.573151
446.8797, 2.169830
447.3618, 2.097731
447.8439, 2.490015
448.3260, 2.815437
448.8081, 2.961105
449.2903, 3.016787
449.7724, 2.993275
450.2545, 2.908577
450.7366, 2.876881
451.2187, 3.015961
451.7008, 3.286495
452.1830, 3.515106
452.6651, 3.680843
453.1472, 3.847267
453.6293, 4.087313
454.1114, 4.342812
454.5935, 4.517147
455.0757, 4.546295
455.5578, 4.574514
456.0399, 4.724363
456.5220, 4.976501
457.0041, 5.261728
457.4862, 5.582417
457.9684, 5.883316
458.4505, 6.059923
458.9326, 6.101797
459.4147, 6.203672
459.8968, 6.518559
460.3789, 6.844728
460.8611, 6.976194
461.3432, 6.928253
461.8253, 6.878368
462.3074, 6.950424
462.7895, 7.098021
463.2716, 7.117859
463.7538, 6.890610
464.2359, 6.677368
464.7180, 6.537792
465.2001, 6.411402
465.6822, 6.215149
466.1643, 5.956120
466.6465, 5.751575
467.1286, 5.738972
467.6107, 5.951090
468.0928, 6.074095
468.5749, 6.035477
469.0570, 5.947716
469.5392, 5.826487
470.0213, 5.681536
470.5034, 5.498383
470.9855, 5.294241
471.4676, 5.147842
471.9497, 5.215059
472.4319, 5.613865
472.9140, 5.818081
473.3961, 5.527958
473.8782, 5.207542
474.3603, 5.144157
474.8424, 5.283365
475.3246, 5.399010
475.8067, 5.355751
476.2888, 5.197105
476.7709, 4.968128
477.2530, 4.636751
477.7351, 4.500147
478.2173, 4.845463
478.6994, 5.393543
479.1815, 5.682005
479.6636, 5.625191
480.1457, 5.578764
480.6278, 5.697409
481.1100, 5.938211
481.5920, 6.235750
482.0742, 6.590660
482.5563, 6.978239
483.0384, 7.405178
483.5205, 7.860409
484.0026, 8.122192
484.4847, 8.016741
484.9669, 7.917730
485.4490, 7.992365
485.9311, 8.171909
486.4132, 8.333481
486.8953, 8.431303
487.3774, 8.490450
487.8596, 8.551081
488.3417, 8.617805
488.8238, 8.673639
489.3059, 8.734549
489.7880, 8.775805
490.2701, 8.780298
490.7523, 8.750795
491.2344, 8.690289
491.7165, 8.600109
492.1986, 8.481544
492.6807, 8.311201
493.1628, 8.017033
493.6450, 7.873461
494.1271, 8.064175
494.6092, 8.336765
495.0913, 8.570335
495.5734, 8.745291
496.0555, 8.824696
496.5377, 8.652761
497.0198, 8.363157
497.5019, 8.388153
497.9840, 8.803556
498.4661, 9.243896
498.9482, 9.543953
499.4304, 9.727171
499.9125, 9.845448
500.3946, 9.890585
500.8767, 9.898434
501.3588, 9.889568
501.8409, 9.854706
502.3231, 9.787128
502.8052, 9.686268
503.2873, 9.515656
503.7694, 9.226957
504.2515, 8.812401
504.7336, 8.440302
505.2158, 8.244188
505.6979, 7.938122
506.1800, 7.288086
506.6621, 6.501923
507.1442, 5.898870
507.6263, 5.592329
508.1085, 5.467283
508.5906, 5.385128
509.0727, 5.425098
509.5548, 5.219198
510.0369, 4.501240
510.5190, 3.803411
511.0012, 3.289984
511.4833, 2.948826
511.9654, 2.746944
512.4475, 2.691462
512.9296, 2.688625
513.4117, 2.552637
513.8939, 2.260450
514.3760, 2.010658
514.8581, 1.874460
515.3402, 1.765360
515.8223, 1.605883
516.3044, 1.404049
516.7866, 1.218306
517.2687, 1.054756
517.7508, 0.9302690
518.2329, 0.8916130
518.7150, 0.9309790
519.1971, 0.9405080
519.6793, 0.8594460
520.1614, 0.7298530
520.6435, 0.6481040
521.1256, 0.6202950
521.6077, 0.6079960
522.0898, 0.6470950
522.5720, 0.6700690
523.0541, 0.6065290
523.5362, 0.4627970
524.0183, 0.2905060
524.5004, 0.1200080
524.9825, 3.7319001E-02
525.4647, 0.1240770
525.9468, 0.1064760
526.4289, 5.9133999E-02
526.9110, 0.1103880
527.3931, 0.2380140
527.8752, 6.5874003E-02
528.3574, 0.3534870
528.8395, 0.5895060
529.3216, 9.5886000E-02
529.8037, 0.9374220
530.2858, 1.272043
530.7679, 0.5979790
531.2501, 5.8970999E-02
531.7322, 0.2409990
532.2143, 0.1877310
532.6964, 0.1124520
533.1785, 4.1448999E-02
533.6606, 1.9866999E-02
534.1428, 5.6444000E-02
534.6249, 8.3191000E-02
535.1070, 0.1578690
535.5891, 0.2959060
536.0712, 0.3681640
536.5533, 0.2538870
537.0355, 1.4214000E-02
537.5176, 0.2141700
537.9997, 0.4294610
538.4818, 0.4843640
538.9639, 0.1800590
539.4460, 0.2434140
539.9282, 0.4907000
540.4103, 0.5012000
540.8924, 0.3872720
541.3745, 0.2437080
541.8566, 6.5729000E-02
542.3387, 2.6285000E-02
542.8209, 0.3378520
543.3029, 0.5352710
543.7850, 0.4297730
544.2672, 0.2088260
544.7493, 9.6008003E-02
545.2314, 0.1477170
545.7135, 0.2311820
546.1956, 0.1739710
546.6777, 5.3019999E-03
547.1599, 7.4095003E-02
547.6420, 1.3727000E-02
548.1241, 0.1398850
548.6062, 0.2521530
549.0883, 0.3498480
549.5704, 0.4348790
550.0526, 0.5228020
550.5347, 0.5646650
551.0168, 0.5196500
551.4989, 0.4082870
551.9810, 0.2501770
552.4631, 4.7222000E-02
552.9453, 0.1268630
553.4274, 0.2114600
553.9095, 0.2057420
554.3916, 9.2065997E-02
554.8737, 0.3327370
555.3558, 0.6069640
555.8380, 0.4559860
556.3201, 0.1525270
556.8022, 4.9902000E-02
557.2843, 0.2291700
557.7664, 0.4968090
558.2485, 0.6381660
558.7307, 0.6493260
559.2128, 0.6275180
559.6949, 0.5361540
560.1770, 0.4651830
560.6591, 0.4467140
561.1412, 0.4617020
561.6234, 0.4986800
562.1055, 0.5589120
562.5876, 0.5953460
563.0697, 0.5337220
563.5518, 0.4130990
564.0339, 0.3688510
564.5161, 0.4236180
564.9982, 0.5195670
565.4803, 0.6286540
565.9624, 0.7456870
566.4445, 0.8445340
566.9266, 0.8342400
567.4088, 0.9340500
567.8909, 1.424217
568.3730, 1.968260
568.8551, 2.089102
569.3372, 1.736198
569.8193, 1.252878
570.3015, 0.9471590
570.7836, 0.8128090
571.2657, 0.7521970
571.7478, 0.8226620
572.2299, 0.8929330
572.7120, 0.9567180
573.1942, 1.002825
573.6763, 1.020931
574.1584, 1.010046
574.6405, 0.9781950
575.1226, 0.9036430
575.6047, 0.8102000
576.0869, 0.8124520
576.5690, 0.9344770
577.0511, 1.051197
577.5332, 1.103378
578.0153, 1.113930
578.4974, 1.109875
578.9796, 1.077013
579.4617, 1.097786
579.9438, 1.246302
580.4259, 1.439417
580.9080, 1.613382
581.3901, 1.747704
581.8723, 1.775454
582.3544, 1.633883
582.8365, 1.389118
583.3186, 1.285471
583.8007, 1.522579
584.2828, 1.614080
584.7650, 1.445738
585.2471, 1.229101
585.7292, 1.082335
586.2113, 0.9917050
586.6934, 0.9358370
587.1755, 0.9441010
587.6577, 0.9954610
588.1398, 1.085272
588.6219, 1.220591
589.1040, 1.344536
589.5861, 1.503906
590.0682, 1.587114
590.5504, 1.405651
591.0325, 1.013924
591.5146, 0.7743020
591.9967, 0.8770470
592.4788, 1.103081
592.9609, 1.326916
593.4431, 1.523903
593.9252, 1.606033
594.4073, 1.531273
594.8894, 1.423368
595.3715, 1.460783
595.8536, 1.699518
596.3358, 1.834326
596.8179, 1.859446
597.3000, 1.844746
597.7821, 1.758659
598.2642, 1.653316
598.7463, 1.587854
599.2285, 1.584002
599.7106, 1.646257
600.1927, 1.812241
600.6748, 2.078882
601.1569, 2.268793
601.6390, 2.327713
602.1212, 2.403877
602.6033, 2.623074
603.0854, 2.902365
603.5675, 3.113827
604.0496, 3.236971
604.5317, 3.307596
605.0139, 3.307119
605.4960, 3.287218
605.9781, 3.296951
606.4602, 3.346865
606.9423, 3.458241
607.4244, 3.650059
607.9066, 3.910666
608.3887, 4.189890
608.8708, 4.475657
609.3529, 4.798407
609.8350, 5.203350
610.3171, 5.607952
610.7993, 5.964153
611.2814, 6.263290
611.7635, 6.501247
612.2456, 6.662798
612.7277, 6.790537
613.2098, 6.977428
613.6920, 7.227703
614.1741, 7.498549
614.6562, 7.857519
615.1383, 8.134464
615.6204, 8.082928
616.1025, 7.764050
616.5847, 7.551441
617.0668, 7.729116
617.5489, 7.828955
618.0310, 7.449156
618.5131, 6.792723
618.9952, 6.242472
619.4774, 5.917437
619.9595, 5.784723
620.4416, 5.841366
620.9237, 6.109343
621.4058, 6.198221
621.8879, 5.939754
622.3701, 5.706795
622.8522, 5.583645
623.3343, 5.520300
623.8164, 5.452345
624.2985, 5.375210
624.7806, 5.361303
625.2628, 5.458305
625.7448, 5.640945
626.2269, 5.941593
626.7090, 6.393337
627.1912, 6.667290
627.6733, 6.527607
628.1554, 6.217686
628.6375, 6.203156
629.1196, 6.504171
629.6017, 6.768724
630.0839, 6.932518
630.5660, 7.083233
631.0481, 7.329739
631.5302, 7.602959
632.0123, 7.790617
632.4944, 7.860781
632.9766, 7.891216
633.4587, 8.013710
633.9408, 8.267141
634.4229, 8.375631
634.9050, 8.239597
635.3871, 8.079466
635.8693, 8.022974
636.3514, 8.005503
636.8335, 7.904873
637.3156, 7.669004
637.7977, 7.432337
638.2798, 7.363567
638.7620, 7.334686
639.2441, 7.073807
639.7262, 6.559420
640.2083, 6.047602
640.6904, 5.686615
641.1725, 5.441252
641.6547, 5.240917
642.1368, 5.114138
642.6189, 5.019304
643.1010, 5.070005
643.5831, 5.037075
644.0652, 4.712921
644.5474, 4.189381
645.0295, 3.701946
645.5116, 3.369846
645.9937, 3.154289
646.4758, 3.007631
646.9579, 2.929646
647.4401, 2.896246
647.9222, 2.933626
648.4043, 2.952080
648.8864, 2.856474
649.3685, 2.683458
649.8506, 2.577707
650.3328, 2.642044
650.8149, 2.632259
651.2970, 2.343702
651.7791, 1.989326
652.2612, 1.851028
652.7433, 1.936983
653.2255, 2.054119
653.7076, 2.063568
654.1897, 1.984781
654.6718, 1.870077
655.1539, 1.647572
655.6360, 1.564554
656.1182, 1.807550
656.6003, 2.069845
657.0824, 2.194170
657.5645, 2.197790
658.0466, 2.158932
658.5287, 2.099508
659.0109, 2.020473
659.4930, 1.915199
659.9751, 1.791313
660.4572, 1.653643
660.9393, 1.501770
661.4214, 1.401958
661.9036, 1.433426
662.3857, 1.574877
662.8678, 1.594934
663.3499, 1.384306
663.8320, 1.195223
664.3141, 1.035534
664.7963, 0.9150350
665.2784, 0.8369620
665.7605, 0.8040030
666.2426, 0.8318160
666.7247, 0.9590170
667.2068, 1.103781
667.6890, 1.094477
668.1711, 0.9364910
668.6532, 0.8225650
669.1353, 0.8103490
669.6174, 0.8153530
670.0995, 0.7375240
670.5817, 0.5941600
671.0638, 0.5517350
671.5459, 0.7500320
672.0280, 0.8802740
672.5101, 0.7909360
672.9922, 0.6157400
673.4744, 0.4811940
673.9565, 0.4134860
674.4386, 0.3985540
674.9207, 0.4331760
675.4028, 0.4997840
675.8849, 0.5486620
676.3671, 0.5876330
676.8492, 0.5681340
677.3313, 0.4170400
677.8134, 0.2766150
678.2955, 0.2865010
678.7776, 0.4036010
679.2598, 0.4739650
679.7419, 0.4561390
680.2240, 0.3919560
680.7061, 0.2816770
681.1882, 0.1502480
681.6703, 3.4240000E-03
682.1525, 0.1410060
682.6346, 0.1770310
683.1167, 5.5959998E-03
683.5988, 0.3410740
684.0809, 0.5032220
684.5630, 0.4383350
685.0452, 0.3170430
685.5273, 1.2121000E-02
686.0094, 0.2370190
686.4915, 4.2650001E-03
686.9736, 0.4940030
687.4557, 0.6533660
687.9379, 5.3822000E-02
688.4200, 0.6115110
688.9021, 0.6526320
689.3842, 0.3017730
689.8663, 9.6224003E-02
690.3484, 0.1317040
690.8306, 0.2282540
691.3127, 0.2506220
691.7948, 0.2118380
692.2769, 0.1762920
692.7590, 0.1236840
693.2411, 0.1081560
693.7233, 0.1842580
694.2054, 0.2478370
694.6875, 0.2453040
695.1696, 0.1771300
695.6517, 3.6276001E-02
696.1339, 0.2212730
696.6160, 0.4243600
697.0981, 0.3024220
697.5802, 3.8720999E-02
698.0623, 0.2057720
698.5444, 0.1299360
699.0266, 2.2116000E-02
699.5087, 3.3438001E-02
699.9908, 0.1246590
700.4729, 0.1460650
700.9550, 5.6318000E-02
701.4371, 4.2376000E-02
701.9193, 0.1676480
702.4014, 0.2840600
702.8835, 0.3604660
703.3656, 0.4121550
703.8477, 0.4952110
704.3298, 0.6426120
704.8120, 0.7408890
705.2941, 0.5623320
705.7762, 0.1914620
706.2583, 6.2047999E-02
706.7404, 0.2370590
707.2225, 0.5047570
707.7046, 0.7793480
708.1867, 1.038599
708.6688, 1.228733
709.1509, 1.359570
709.6331, 1.401482
710.1152, 1.234573
710.5973, 1.093023
711.0794, 1.150900
711.5615, 1.323605
712.0436, 1.435305
712.5258, 1.424582
713.0079, 1.405796
713.4900, 1.538830
713.9721, 1.787935
714.4542, 1.939833
714.9363, 1.967211
715.4185, 2.026423
715.9006, 2.183619
716.3827, 2.415121
716.8648, 2.710030
717.3469, 3.093824
717.8290, 3.380507
718.3112, 3.333946
718.7933, 3.421387
719.2754, 4.002489
719.7575, 4.810152
720.2396, 5.442070
720.7217, 5.802763
721.2039, 6.116396
721.6860, 6.620638
722.1681, 7.251785
722.6502, 7.749733
723.1323, 8.107117
723.6144, 8.397820
724.0966, 8.563494
724.5787, 8.791264
725.0608, 9.320704
725.5429, 10.15153
726.0250, 11.01456
726.5071, 11.88934
726.9893, 12.80774
727.4714, 13.66618
727.9535, 14.64419
728.4356, 15.99776
728.9177, 17.70218
729.3998, 19.45723
729.8820, 21.02919
730.3641, 22.53168
730.8462, 24.33255
731.3283, 26.44957
731.8104, 28.25022
732.2925, 29.63437
732.7747, 30.64095
733.2568, 31.41274
733.7389, 31.82175
734.2210, 31.38036
734.7031, 29.93368
735.1852, 27.89704
735.6674, 24.96423
736.1495, 21.77608
736.6316, 18.59259
737.1137, 15.62407
737.5958, 13.20940
738.0779, 11.49570
738.5601, 10.27761
739.0422, 9.311417
739.5243, 8.593988
740.0064, 8.028679
740.4885, 7.589380
740.9706, 7.407064
741.4528, 7.585239
741.9349, 8.032167
742.4170, 8.574358
742.8991, 9.197969
743.3812, 9.957432
743.8633, 11.04638
744.3455, 12.07678
744.8276, 12.78433
745.3097, 13.30200
745.7918, 13.91707
746.2739, 14.64928
746.7560, 15.21775
747.2382, 15.30591
747.7203, 15.01102
748.2024, 14.63232
748.6845, 14.16655
749.1666, 13.52972
749.6487, 12.65989
750.1309, 11.69693
750.6130, 10.76230
751.0951, 9.851994
751.5772, 9.107088
752.0593, 8.689289
752.5414, 8.219122
753.0236, 7.454100
753.5057, 6.724289
753.9878, 6.365019
754.4699, 6.334223
754.9520, 6.347912
755.4341, 6.235819
755.9163, 6.079996
756.3984, 6.011597
756.8805, 6.016701
757.3626, 6.019842
757.8447, 6.004780
758.3268, 5.994068
758.8090, 6.012299
759.2911, 6.047720
759.7732, 6.056244
760.2553, 6.004484
760.7374, 5.977631
761.2195, 6.010769
761.7017, 6.031200
762.1838, 6.005676
762.6659, 5.944958
763.1480, 5.883739
763.6301, 5.834562
764.1122, 5.709776
764.5944, 5.348631
765.0765, 4.929272
765.5586, 4.774302
766.0407, 4.848919
766.5228, 4.888458
767.0049, 4.786188
767.4871, 4.676579
767.9692, 4.756145
768.4513, 5.038677
768.9334, 5.168613
769.4155, 5.160805
769.8976, 4.969387
770.3798, 4.399906
770.8619, 3.796036
771.3440, 3.431938
771.8261, 3.289530
772.3082, 3.191343
772.7903, 3.108992
773.2725, 3.008354
773.7546, 2.830532
774.2367, 2.635067
774.7188, 2.520418
775.2009, 2.492741
775.6830, 2.499117
776.1652, 2.509066
776.6473, 2.509596
777.1294, 2.453476
777.6115, 2.320593
778.0936, 2.266312
778.5757, 2.313297
779.0579, 2.416817
779.5400, 2.579796
780.0221, 2.773767
780.5042, 2.944294
780.9863, 3.081224
781.4684, 3.245039
781.9506, 3.506924
782.4327, 3.743391
782.9148, 3.858080
783.3969, 3.899401
783.8790, 3.985228
784.3611, 4.128098
784.8433, 4.169645
785.3254, 3.906748
785.8075, 3.466728
786.2896, 3.265636
786.7717, 3.308462
787.2538, 3.295387
787.7360, 3.161144
788.2181, 2.922951
788.7002, 2.574360
789.1823, 2.129778
789.6644, 1.723486
790.1465, 1.367867
790.6286, 1.028687
791.1107, 0.6760670
791.5928, 0.3647160
792.0750, 0.1258560
792.5571, 4.4167001E-02
793.0392, 0.1481610
793.5213, 0.1789340
794.0034, 0.2113630
794.4855, 0.3744700
794.9677, 0.5581260
795.4498, 0.4959280
795.9319, 0.2198810
796.4140, 5.9958000E-02
796.8961, 0.1634040
797.3782, 0.3141420
797.8604, 0.1864510
798.3425, 0.2409800
798.8246, 0.4318900
799.3067, 0.2792000
799.7888, 8.4412001E-02
800.2709, 0.1874120
800.7531, 0.3885440
801.2352, 0.3441730
801.7173, 0.1086370
802.1994, 4.3427002E-02
802.6815, 1.9043000E-02
803.1636, 9.2409000E-02
803.6458, 0.1171700
804.1279, 6.5844998E-02
804.6100, 0.1648010
805.0921, 0.5112290
805.5742, 0.7376860
806.0563, 0.7084730
806.5385, 0.5920560
807.0206, 0.6828310
807.5027, 0.9599090
807.9848, 1.111565
808.4669, 1.096788
808.9490, 1.110182
809.4312, 1.255238
809.9133, 1.448334
810.3954, 1.562021
810.8775, 1.580843
811.3596, 1.617800
811.8417, 1.653173
812.3239, 1.731010
812.8060, 1.842369
813.2881, 2.016432
813.7702, 2.358841
814.2523, 2.804600
814.7344, 3.087488
815.2166, 3.019346
815.6987, 2.856770
816.1808, 2.828478
816.6629, 2.916788
817.1450, 3.099949
817.6271, 3.367289
818.1093, 3.673948
818.5914, 3.996735
819.0735, 4.329437
819.5556, 4.661011
820.0377, 4.992075
820.5198, 5.312252
821.0020, 5.582968
821.4841, 5.922455
821.9662, 6.467947
822.4483, 7.036938
822.9304, 7.362709
823.4125, 7.458504
823.8947, 7.743462
824.3768, 8.372154
824.8589, 9.117464
825.3410, 9.912912
825.8231, 10.75603
826.3052, 11.64206
826.7874, 12.57266
827.2695, 13.55179
827.7516, 14.58567
828.2337, 15.67354
828.7158, 16.75659
829.1979, 17.88845
829.6801, 19.31911
830.1622, 21.06273
830.6443, 22.94108
831.1264, 24.85017
831.6085, 26.87194
832.0906, 29.14154
832.5728, 31.62725
833.0549, 34.50297
833.5370, 37.90125
834.0191, 41.48153
834.5012, 45.08244
834.9833, 48.85878
835.4655, 53.17276
835.9476, 57.85447
836.4297, 62.16651
836.9118, 65.92445
837.3939, 69.20611
837.8760, 72.12867
838.3582, 74.56627
838.8403, 76.41602
839.3224, 77.64950
839.8045, 78.18401
840.2866, 77.97896
840.7687, 77.28828
841.2509, 76.40299
841.7330, 75.32929
842.2151, 74.00374
842.6972, 72.39893
843.1793, 71.04084
843.6614, 70.05015
844.1436, 69.62224
844.6257, 70.12854
845.1078, 71.53850
845.5899, 72.49982
846.0720, 72.35931
846.5541, 72.72502
847.0363, 74.24155
847.5184, 75.81253
848.0005, 76.89489
848.4826, 77.47821
848.9647, 77.61644
849.4468, 77.26861
849.9290, 76.72393
850.4111, 76.36388
850.8932, 75.69682
851.3753, 74.15245
851.8574, 71.89999
852.3395, 69.34537
852.8217, 66.64363
853.3038, 63.74356
853.7859, 60.60239
854.2680, 57.26017
854.7501, 53.84193
855.2322, 50.33903
855.7144, 46.97414
856.1965, 43.79305
856.6786, 40.86750
857.1607, 38.25959
857.6428, 35.92275
858.1249, 33.72870
858.6071, 31.76530
859.0892, 29.77602
859.5713, 27.59252
860.0534, 25.56350
860.5355, 23.84210
861.0176, 22.32750
861.4998, 20.86301
861.9819, 19.41637
862.4640, 18.09450
862.9461, 16.98131
863.4282, 15.95380
863.9103, 14.93374
864.3925, 13.95350
864.8746, 13.04019
865.3567, 12.18802
865.8388, 11.45966
866.3209, 10.89664
866.8030, 10.39315
867.2852, 9.783487
867.7673, 9.090397
868.2494, 8.418808
868.7315, 7.788353
869.2136, 7.176014
869.6957, 6.545357
870.1779, 5.972792
870.6600, 5.579901
871.1421, 5.366581
871.6242, 5.141172
872.1063, 4.869562
872.5884, 4.653513
873.0705, 4.548819
873.5526, 4.474152
874.0347, 4.448256
874.5168, 4.405302
874.9990, 4.139391
875.4811, 3.502983
875.9632, 3.009457
876.4453, 2.943615
876.9274, 2.978260
877.4095, 2.894503
877.8917, 2.733082
878.3738, 2.595413
878.8559, 2.506392
879.3380, 2.393021
879.8201, 2.161978
880.3022, 1.932262
880.7844, 1.955591
881.2665, 2.148964
881.7486, 2.122112
882.2307, 1.824257
882.7128, 1.596415
883.1949, 1.668755
883.6771, 1.880068
884.1592, 1.877838
884.6413, 1.619631
885.1234, 1.463896
885.6055, 1.440439
886.0876, 1.455399
886.5698, 1.516483
887.0519, 1.560680
887.5340, 1.500685
888.0161, 1.343283
888.4982, 1.213177
888.9803, 1.112581
889.4625, 1.048019
889.9446, 1.109516
890.4267, 1.131889
890.9088, 0.9151570
891.3909, 0.5897060
891.8730, 0.4126990
892.3552, 0.4559800
892.8373, 0.5737630
893.3194, 0.7754120
893.8015, 0.9186630
894.2836, 0.7112660
894.7657, 0.3637980
895.2479, 0.4160670
895.7300, 0.9074650
896.2121, 1.287073
896.6942, 1.123037
897.1763, 0.6761000
897.6584, 0.4123080
898.1406, 0.3330710
898.6227, 0.5389310
899.1048, 1.078884
899.5869, 1.399422
900.0690, 1.195320
900.5511, 0.7637480
901.0333, 0.5413440
901.5154, 0.5387440
901.9975, 0.5370670
902.4796, 0.5537320
902.9617, 0.5309730
903.4438, 0.4301240
903.9260, 0.3190610
904.4081, 0.2246460
904.8902, 0.1575830
905.3723, 0.1549420
905.8544, 0.2486630
906.3365, 0.3238810
906.8187, 0.3717310
907.3008, 0.3729930
907.7829, 0.2576330
908.2650, 0.1198340
908.7471, 0.1087990
909.2292, 0.2284580
909.7114, 0.3270760
910.1935, 0.3114140
910.6756, 0.2434490
911.1577, 0.1574830
911.6398, 7.5801000E-02
912.1219, 7.3089004E-02
912.6041, 0.1260760
913.0862, 6.7387998E-02
913.5683, 0.1825940
914.0504, 0.4026850
914.5325, 0.2179020
915.0146, 0.2650580
915.4968, 0.3750080
915.9789, 9.5807001E-02
916.4610, 5.0742999E-02
916.9431, 9.8540999E-02
917.4252, 0.2463640
917.9073, 0.1238220
918.3895, 0.1747100
918.8716, 0.2959360
919.3537, 0.1431470
919.8358, 6.2251002E-02
920.3179, 7.6205999E-02
920.8000, 0.1314430
921.2822, 0.3050520
921.7643, 0.4461360
922.2464, 0.3306920
922.7285, 2.7226999E-02
923.2106, 0.2532880
923.6927, 0.1940010
924.1749, 0.1351100
924.6570, 0.2179920
925.1391, 0.2753890
925.6212, 0.1221040
926.1033, 0.1469770
926.5854, 0.3234320
927.0676, 0.3455460
927.5497, 0.3052620
928.0318, 0.2381900
928.5139, 0.1595550
928.9960, 6.0283002E-02
929.4781, 3.0793000E-02
929.9603, 2.5195999E-02
930.4424, 6.1997000E-02
930.9245, 6.5596998E-02
931.4066, 0.1358300
931.8887, 0.3792110
932.3708, 0.3732820
932.8530, 0.1847170
933.3351, 9.4238997E-02
933.8172, 0.1121640
934.2993, 0.1431880
934.7814, 0.1548930
935.2635, 0.1326660
935.7457, 4.1023001E-02
936.2278, 8.6672001E-02
936.7099, 1.1815000E-02
937.1920, 0.3597500
937.6741, 0.4976740
938.1563, 0.2289090
938.6384, 2.4893999E-02
939.1205, 1.3192000E-02
939.6026, 0.1377430
940.0847, 0.2017300
940.5668, 0.1586110
941.0490, 0.1475680
941.5311, 0.1713450
942.0132, 0.2220590
942.4953, 0.3500150
942.9774, 0.4580900
943.4595, 0.4622950
943.9417, 0.3913000
944.4238, 0.3129840
944.9059, 0.2171720
945.3880, 0.2040730
945.8701, 0.4623250
946.3522, 0.6526370
946.8344, 0.4207940
947.3165, 5.3560998E-02
947.7986, 1.9463999E-02
948.2807, 0.2117430
948.7628, 0.4210620
949.2449, 0.4409690
949.7271, 0.3623610
950.2092, 0.2039580
950.6913, 4.2537998E-02
951.1734, 1.0883000E-02
951.6555, 8.7039001E-02
952.1376, 0.1708850
952.6198, 0.2278020
953.1019, 0.2917690
953.5840, 0.4167760
954.0661, 0.5455250
954.5482, 0.4902520
955.0303, 0.2923630
955.5124, 0.2603550
955.9945, 0.4365840
956.4766, 0.5540010
956.9587, 0.4573620
957.4409, 0.2940800
957.9230, 0.3183630
958.4051, 0.5246960
958.8872, 0.5494270
959.3693, 0.2989090
959.8514, 0.3056510
960.3336, 0.8150690
960.8157, 1.304573
961.2978, 1.370714
961.7799, 1.131685
962.2620, 0.9035460
962.7441, 0.6449300
963.2263, 0.5262810
963.7084, 0.6165180
964.1905, 0.7555950
964.6726, 0.9777390
965.1547, 1.167464
965.6368, 1.192440
966.1190, 1.090834
966.6011, 1.041356
967.0832, 1.053285
967.5653, 1.143481
968.0474, 1.433509
968.5295, 1.675509
969.0117, 1.652794
969.4938, 1.537692
969.9759, 1.549020
970.4580, 1.715975
970.9401, 1.968230
971.4222, 2.341148
971.9044, 2.648744
972.3865, 2.775686
972.8686, 2.827927
973.3507, 2.890602
973.8328, 2.951512
974.3149, 2.947474
974.7971, 2.878812
975.2792, 2.787535
975.7613, 2.704529
976.2434, 2.610318
976.7255, 2.495440
977.2076, 2.394260
977.6898, 2.335362
978.1719, 2.317011
978.6540, 2.348576
979.1361, 2.427920
979.6182, 2.477308
980.1003, 2.381059
980.5825, 2.217864
981.0646, 2.210579
981.5467, 2.330262
982.0288, 2.375273
982.5109, 2.308630
982.9930, 2.245127
983.4752, 2.264142
983.9573, 2.284267
984.4394, 2.139023
984.9215, 1.835661
985.4036, 1.803731
985.8857, 2.114068
986.3679, 2.267756
986.8500, 2.088793
987.3321, 1.878312
987.8142, 1.890847
988.2963, 2.033926
988.7784, 2.033619
989.2606, 1.857529
989.7427, 1.687860
990.2248, 1.504236
990.7069, 1.354014
991.1890, 1.243556
991.6711, 1.185572
992.1533, 1.218987
992.6354, 1.319915
993.1175, 1.343612
993.5996, 1.182125
994.0817, 1.126540
994.5638, 1.331922
995.0460, 1.494711
995.5281, 1.437575
996.0102, 1.301389
996.4923, 1.206684
996.9744, 1.176750
997.4565, 1.242413
997.9387, 1.549017
998.4208, 1.699408
998.9029, 1.460826
999.3850, 1.180454
999.8671, 1.032564
1000.349, 1.003983
1000.831, 1.081154
1001.313, 1.247007
1001.796, 1.411011
1002.278, 1.575141
1002.760, 1.665177
1003.242, 1.611848
1003.724, 1.498056
1004.206, 1.313754
1004.688, 1.153568
1005.170, 1.236459
1005.653, 1.582795
1006.135, 1.834540
1006.617, 1.694419
1007.099, 1.434695
1007.581, 1.273163
1008.063, 1.177303
1008.545, 1.084677
1009.027, 1.013352
1009.509, 1.059658
1009.992, 1.245316
1010.474, 1.422215
1010.956, 1.435508
1011.438, 1.393332
1011.920, 1.495794
1012.402, 1.658084
1012.884, 1.648443
1013.366, 1.481291
1013.849, 1.371953
1014.331, 1.414071
1014.813, 1.527322
1015.295, 1.665500
1015.777, 1.769597
1016.259, 1.612240
1016.741, 1.275437
1017.223, 1.171619
1017.705, 1.345917
1018.188, 1.581707
1018.670, 1.770599
1019.152, 1.868813
1019.634, 1.788771
1020.116, 1.571508
1020.598, 1.405537
1021.080, 1.292634
1021.562, 1.268507
1022.044, 1.346755
1022.527, 1.374504
1023.009, 1.240829
1023.491, 1.065897
1023.973, 1.054361
1024.455, 1.193439
1024.937, 1.271004
1025.419, 1.294629
1025.901, 1.147861
1026.384, 0.7376540
1026.866, 0.4884510
1027.348, 0.7084530
1027.830, 1.158055
1028.312, 1.399692
1028.794, 1.431843
1029.276, 1.397117
1029.758, 1.237617
1030.240, 1.189267
1030.723, 1.333314
1031.205, 1.519629
1031.687, 1.691518
1032.169, 1.789618
1032.651, 1.659191
1033.133, 1.245118
1033.615, 1.092828
1034.097, 1.372955
1034.579, 1.534485
1035.062, 1.397679
1035.544, 1.237638
1036.026, 1.252257
1036.508, 1.355220
1036.990, 1.351911
1037.472, 1.202054
1037.954, 1.177393
1038.436, 1.395665
1038.919, 1.551010
1039.401, 1.630033
1039.883, 1.587415
1040.365, 1.267759
1040.847, 0.8445200
1041.329, 0.7013010
1041.811, 0.8940200
1042.293, 1.066411
1042.776, 1.226353
1043.258, 1.349018
1043.740, 1.491043
1044.222, 1.531175
1044.704, 1.276490
1045.186, 0.9027680
1045.668, 0.7726430
1046.150, 0.9500820
1046.632, 1.075784
1047.115, 1.171480
1047.597, 1.131876
1048.079, 0.7583940
1048.561, 0.4052080
1049.043, 0.3524210
1049.525, 0.4810220
1050.007, 0.5573940
1050.489, 0.5525670
1050.971, 0.5277240
1051.454, 0.4429210
1051.936, 0.4091140
1052.418, 0.5206270
1052.900, 0.6360860
1053.382, 0.6514200
1053.864, 0.5963310
1054.346, 0.5160390
1054.828, 0.4151510
1055.311, 0.3705830
1055.793, 0.5059290
1056.275, 0.5607130
1056.757, 0.3455940
1057.239, 0.1149350
1057.721, 8.1880003E-02
1058.203, 0.1607800
1058.685, 0.1692920
1059.167, 8.2015999E-02
1059.650, 5.8855999E-02
1060.132, 0.1907710
1060.614, 0.3429300
1061.096, 0.5485630
1061.578, 0.6721700
1062.060, 0.5259250
1062.542, 0.2663130
1063.024, 0.1817580
1063.506, 0.3011260
1063.989, 0.3519440
1064.471, 0.1727290
1064.953, 3.7209999E-03
1065.435, 0.1099480
1065.917, 0.1487720
1066.399, 8.7971002E-02
1066.881, 2.1405000E-02
1067.363, 0.1216000
1067.846, 0.1958190
1068.328, 0.2184000
1068.810, 0.1776750
1069.292, 0.1090410
1069.774, 3.0654000E-02
1070.256, 0.1496620
1070.738, 0.1608590
1071.220, 0.1165700
1071.703, 9.7736001E-02
1072.185, 0.1026440
1072.667, 7.4022003E-02
1073.149, 4.6000998E-02
1073.631, 0.1347850
1074.113, 5.6109000E-02
1074.595, 6.3490001E-03
1075.077, 0.1550090
1075.559, 0.3759620
1076.042, 0.3874900
1076.524, 0.2126330
1077.006, 0.1192240
1077.488, 0.2287400
1077.970, 0.3284020
1078.452, 0.3379960
1078.934, 0.2846690
1079.416, 8.8127002E-02
1079.898, 9.1241002E-02
1080.380, 1.1718000E-02
1080.863, 0.2615800
1081.345, 0.4448530
1081.827, 0.4471880
1082.309, 0.3770260
1082.791, 0.1961500
1083.273, 5.6143999E-02
1083.755, 9.6919000E-02
1084.237, 0.1921500
1084.720, 0.2167070
1085.202, 0.1712450
1085.684, 7.6431997E-02
1086.166, 7.7738002E-02
1086.648, 0.1305830
1087.130, 0.1213600
1087.612, 0.3244560
1088.094, 0.1887180
1088.577, 1.3498000E-02
1089.059, 0.1347170
1089.541, 0.4253250
1090.023, 0.5632530
1090.505, 0.4830350
1090.987, 0.4102980
1091.469, 0.4552340
1091.951, 0.4912130
1092.433, 0.4228290
1092.916, 0.3645860
1093.398, 0.4416230
1093.880, 0.5770000
1094.362, 0.6312200
1094.844, 0.5884730
1095.326, 0.5428610
1095.808, 0.4914550
1096.290, 0.4895760
1096.772, 0.5897610
1097.255, 0.7079240
1097.737, 0.7970850
1098.219, 0.8683890
1098.701, 0.9816680
1099.183, 1.111371
1099.665, 1.071584
1100.147, 0.6799450
1100.629, 0.4092730
1101.112, 0.4584540
1101.594, 0.5650830
1102.076, 0.5545930
1102.558, 0.5712630
1103.040, 0.8962310
1103.522, 1.395358
1104.004, 1.503700
1104.486, 0.9495970
1104.969, 0.6101260
1105.451, 0.8396360
1105.933, 1.046991
1106.415, 0.9914050
1106.897, 0.8660420
1107.379, 0.7721580
1107.861, 0.7477640
1108.343, 0.9056960
1108.825, 1.318785
1109.307, 1.532358
1109.790, 1.269094
1110.272, 1.146214
1110.754, 1.468225
1111.236, 1.768068
1111.718, 1.676303
1112.200, 1.425891
1112.682, 1.432742
1113.164, 1.720133
1113.647, 1.878700
1114.129, 1.837101
1114.611, 1.779882
1115.093, 1.719456
1115.575, 1.646397
1116.057, 1.574362
1116.539, 1.468536
1117.021, 1.252073
1117.504, 0.9569090
1117.986, 0.8220460
1118.468, 0.9686030
1118.950, 0.9738600
1119.432, 0.7445700
1119.914, 0.5592370
1120.396, 0.4965840
1120.878, 0.5170330
1121.360, 0.6200390
1121.843, 0.7620890
1122.325, 0.8091410
1122.807, 0.7489430
1123.289, 0.6476710
1123.771, 0.4887140
1124.253, 0.3762950
1124.735, 0.3703380
1125.217, 0.2702260
1125.699, 0.1092910
1126.182, 0.5285840
1126.664, 0.5432990
1127.146, 0.1839520
1127.628, 2.9112000E-02
1128.110, 0.1132030
1128.592, 0.1109310
1129.074, 4.0266000E-02
1129.556, 0.1261160
1130.039, 4.1239001E-02
1130.521, 0.1104930
1131.003, 0.2270390
1131.485, 0.2927130
1131.967, 0.2112880
1132.449, 4.2130002E-03
1132.931, 0.1181740
1133.413, 0.1200310
1133.896, 0.1040000
1134.378, 9.8716997E-02
1134.860, 0.1481400
1135.342, 0.2983550
1135.824, 0.4638020
1136.306, 0.4820180
1136.788, 0.3829650
1137.270, 0.2342780
1137.752, 6.7805998E-02
1138.234, 8.9605004E-02
1138.717, 0.3025470
1139.199, 0.4403210
1139.681, 0.3662430
1140.163, 0.3013460
1140.645, 0.5620000
1141.127, 0.9333230
1141.609, 1.002228
1142.091, 0.8846510
1142.574, 0.7725370
1143.056, 0.7238980
1143.538, 0.8598520
1144.020, 1.189100
1144.502, 1.493296
1144.984, 1.628761
1145.466, 1.675028
1145.948, 1.670521
1146.431, 1.666979
1146.913, 1.743263
1147.395, 1.867428
1147.877, 1.950991
1148.359, 2.005766
1148.841, 2.165249
1149.323, 2.514036
1149.805, 2.802362
1150.287, 2.831738
1150.770, 2.790239
1151.252, 2.747902
1151.734, 2.761292
1152.216, 2.921036
1152.698, 3.171539
1153.180, 3.417164
1153.662, 3.636389
1154.144, 3.694328
1154.626, 3.329077
1155.109, 3.106083
1155.591, 3.343378
1156.073, 3.633963
1156.555, 3.744263
1157.037, 3.746649
1157.519, 3.803503
1158.001, 3.879023
1158.483, 3.672596
1158.966, 2.907669
1159.448, 2.396801
1159.930, 2.360613
1160.412, 2.346100
1160.894, 2.145905
1161.376, 2.032604
1161.858, 2.315252
1162.340, 2.760117
1162.822, 2.836008
1163.305, 2.500439
1163.787, 2.289919
1164.269, 2.256132
1164.751, 2.186035
1165.233, 2.026207
1165.715, 1.919825
1166.197, 1.963884
1166.679, 2.005919
1167.161, 1.836044
1167.644, 1.540955
1168.126, 1.507318
1168.608, 1.748209
1169.090, 1.916563
1169.572, 1.998407
1170.054, 1.926348
1170.536, 1.677963
1171.018, 1.456814
1171.500, 1.404615
1171.983, 1.447302
1172.465, 1.467710
1172.947, 1.483786
1173.429, 1.604164
1173.911, 1.773516
1174.393, 1.694931
1174.875, 1.419277
1175.357, 1.453484
1175.840, 1.956306
1176.322, 2.356527
1176.804, 2.103514
1177.286, 1.690792
1177.768, 1.807440
1178.250, 2.105740
1178.732, 1.981129
1179.214, 1.676735
1179.697, 1.819426
1180.179, 2.371458
1180.661, 2.704031
1181.143, 2.535620
1181.625, 2.312290
1182.107, 2.205645
1182.589, 2.264154
1183.071, 2.683165
1183.553, 3.113091
1184.036, 3.200460
1184.518, 3.099289
1185.000, 3.083801
1185.482, 3.179111
1185.964, 3.332264
1186.446, 3.656778
1186.928, 3.886065
1187.410, 3.876272
1187.892, 3.817257
1188.375, 3.714180
1188.857, 3.674423
1189.339, 3.869598
1189.821, 4.184877
1190.303, 4.251999
1190.785, 4.005198
1191.267, 3.883347
1191.749, 3.856697
1192.232, 4.017359
1192.714, 4.432016
1193.196, 4.829082
1193.678, 5.104607
1194.160, 5.296387
1194.642, 5.449757
1195.124, 5.573286
1195.606, 5.591421
1196.089, 5.478859
1196.571, 5.358982
1197.053, 5.253916
1197.535, 5.343441
1198.017, 5.657980
1198.499, 5.946363
1198.981, 6.051958
1199.463, 6.084869
1199.945, 6.209682
1200.427, 6.349319
1200.910, 6.328848
1201.392, 6.209635
1201.874, 6.078674
1202.356, 5.995653
1202.838, 6.141275
1203.320, 6.483419
1203.802, 6.627439
1204.284, 6.255466
1204.767, 5.910524
1205.249, 5.974010
1205.731, 6.220999
1206.213, 6.639120
1206.695, 7.012146
1207.177, 6.997490
1207.659, 6.746031
1208.141, 6.725313
1208.624, 7.042381
1209.106, 7.243889
1209.588, 7.221321
1210.070, 7.077110
1210.552, 6.736652
1211.034, 6.386906
1211.516, 6.037464
1211.998, 5.799072
1212.480, 5.843212
1212.963, 6.080677
1213.445, 6.162056
1213.927, 6.041683
1214.409, 6.001713
1214.891, 6.079067
1215.373, 6.086231
1215.855, 5.982693
1216.337, 5.838192
1216.819, 5.690952
1217.302, 5.493145
1217.784, 5.149714
1218.266, 4.773994
1218.748, 4.814356
1219.230, 5.146862
1219.712, 5.120907
1220.194, 4.761835
1220.676, 4.375706
1221.159, 4.044506
1221.641, 3.767172
1222.123, 3.544926
1222.605, 3.318130
1223.087, 2.944096
1223.569, 2.616043
1224.051, 2.642036
1224.533, 2.782854
1225.016, 2.737179
1225.498, 2.544596
1225.980, 2.320488
1226.462, 2.098732
1226.944, 1.904016
1227.426, 1.757006
1227.908, 1.691805
1228.390, 1.603142
1228.872, 1.495283
1229.354, 1.332872
1229.837, 1.188314
1230.319, 1.121729
1230.801, 1.112213
1231.283, 1.102772
1231.765, 1.095827
1232.247, 1.061476
1232.729, 1.006266
1233.211, 0.9125480
1233.694, 0.7460440
1234.176, 0.6422310
1234.658, 0.6626300
1235.140, 0.6526110
1235.622, 0.4917550
1236.104, 0.2743840
1236.586, 0.1495060
1237.068, 0.1129300
1237.551, 0.1696430
1238.033, 0.2970350
1238.515, 0.4505310
1238.997, 0.5826260
1239.479, 0.4486620
1239.961, 3.4125999E-02
1240.443, 0.2328380
1240.925, 6.1756000E-02
1241.407, 0.2480090
1241.890, 0.5035100
1242.372, 0.6587680
1242.854, 0.6844330
1243.336, 0.5748980
1243.818, 0.1931840
1244.300, 0.2781720
1244.782, 0.4465180
1245.264, 0.2683940
1245.746, 9.3337998E-02
1246.229, 3.8162000E-02
1246.711, 5.6301001E-02
1247.193, 0.3896980
1247.675, 0.5292240
1248.157, 0.1751480
1248.639, 0.2373280
1249.121, 0.4528160
1249.603, 0.4788590
1250.085, 0.2887610
1250.568, 9.6210003E-02
1251.050, 0.3263210
1251.532, 0.4031870
1252.014, 0.2264140
1252.496, 0.2294850
1252.978, 0.3652190
1253.460, 2.6360000E-03
1253.942, 0.3885990
1254.425, 0.4748230
1254.907, 0.4463880
1255.389, 0.5613210
1255.871, 0.7196880
1256.353, 0.7367250
1256.835, 0.6692090
1257.317, 0.5781970
1257.799, 0.5035250
1258.281, 0.5725900
1258.764, 0.7574390
1259.246, 0.7386020
1259.728, 0.2640420
1260.210, 4.2989999E-03
1260.692, 0.5295070
1261.174, 0.9258880
1261.656, 0.5039100
1262.138, 7.5615004E-02
1262.620, 0.3601490
1263.103, 0.8740540
1263.585, 1.064198
1264.067, 0.9038890
1264.549, 0.7551190
1265.031, 0.3604740
1265.513, 0.4397430
1265.995, 1.172043
1266.477, 1.545589
1266.960, 1.120255
1267.442, 0.5153730
1267.924, 0.4230160
1268.406, 0.5886540
1268.888, 0.5587770
1269.370, 0.3863450
1269.852, 0.3371960
1270.334, 0.2805670
1270.817, 0.2998770
1271.299, 0.3511580
1271.781, 0.3843120
1272.263, 0.4123880
1272.745, 0.2614750
1273.227, 0.1272960
1273.709, 5.8837999E-02
1274.191, 0.5064240
1274.673, 0.9343680
1275.156, 1.006111
1275.638, 0.9783860
1276.120, 0.8259350
1276.602, 0.6724470
1277.084, 0.8406410
1277.566, 1.223373
1278.048, 1.423103
1278.530, 1.403522
1279.012, 1.766052
1279.495, 2.772671
1279.977, 3.170212
1280.459, 2.653141
1280.941, 2.306099
1281.423, 2.595856
1281.905, 2.785191
1282.387, 2.290230
1282.869, 1.500599
1283.352, 1.095020
1283.834, 0.8959050
1284.316, 0.5020680
1284.798, 0.0000000E+00
##END=



