##NAMES=Kurnakovite
##RRUFFID=R050393
##IDEAL CHEMISTRY=MgB_3_O_3_(OH)_5_&#183;5H_2_O
##LOCALITY=Kramer deposit, Boron, Kern County, California, USA
##OWNER=RRUFF
##SOURCE=Marcus Origlieri
##DESCRIPTION=Colorless to gray cleavage fragment
##STATUS=The identification of this mineral has been confirmed by X-ray diffraction and chemical analysis
##URL=rruff.info/R050393
##MEASURED CHEMISTRY=Mg_1.00_B_3_O_3_(OH)_5_·5H_2_O ; = lighter phase. The darker phase: (Mg_0.97_Al_0.02_[box]_0.01_)_Σ=1_B_3_O_3_(OH)_5_·5H_2_O ; B not measured but estimated by stoichiometry
126.5838, 0.0000000E+00
127.0659, 1.918945
127.5480, 1.595459
128.0302, 26.55591
128.5123, 67.53540
128.9944, 121.3652
129.4765, 186.6069
129.9586, 260.1750
130.4407, 343.4851
130.9229, 433.8579
131.4050, 523.9697
131.8871, 614.2461
132.3692, 698.8652
132.8513, 765.1790
133.3334, 808.6248
133.8156, 816.2446
134.2977, 784.8892
134.7798, 726.1816
135.2619, 656.2290
135.7440, 573.9104
136.2261, 484.2297
136.7083, 402.8708
137.1904, 329.4500
137.6725, 264.1511
138.1546, 205.6750
138.6367, 153.1013
139.1188, 109.7234
139.6010, 75.77881
140.0831, 51.24219
140.5652, 35.17114
141.0473, 28.20386
141.5294, 27.97900
142.0115, 31.17407
142.4937, 36.27295
142.9758, 47.79028
143.4579, 67.13696
143.9400, 94.50073
144.4221, 127.9062
144.9042, 168.8772
145.3864, 215.1614
145.8685, 262.0894
146.3506, 310.7454
146.8327, 359.2729
147.3148, 408.2642
147.7969, 461.1296
148.2791, 505.2671
148.7612, 542.1365
149.2433, 570.2612
149.7254, 586.2432
150.2075, 584.0447
150.6896, 575.1689
151.1718, 563.4163
151.6539, 542.8975
152.1360, 528.1145
152.6181, 519.1338
153.1002, 515.9707
153.5823, 518.7749
154.0645, 531.9553
154.5466, 547.7751
155.0287, 562.5557
155.5108, 572.7446
155.9929, 585.8127
156.4750, 601.9177
156.9572, 621.3872
157.4393, 645.5393
157.9214, 676.6948
158.4035, 711.5088
158.8856, 747.9541
159.3677, 783.3118
159.8499, 822.6599
160.3320, 866.7947
160.8141, 915.6050
161.2962, 969.2498
161.7783, 1029.653
162.2604, 1093.791
162.7426, 1159.906
163.2247, 1233.481
163.7068, 1305.802
164.1889, 1377.180
164.6710, 1446.123
165.1531, 1501.503
165.6353, 1537.790
166.1174, 1557.539
166.5995, 1561.514
167.0816, 1549.076
167.5637, 1522.642
168.0458, 1478.254
168.5280, 1413.736
169.0101, 1345.344
169.4922, 1282.371
169.9743, 1222.706
170.4564, 1164.481
170.9385, 1106.720
171.4207, 1050.566
171.9028, 996.2898
172.3849, 944.0952
172.8670, 895.6390
173.3491, 851.8914
173.8312, 812.4215
174.3134, 776.2581
174.7955, 744.6418
175.2776, 715.7146
175.7597, 688.7202
176.2418, 663.8418
176.7239, 637.3359
177.2061, 602.4382
177.6882, 561.9636
178.1703, 524.2744
178.6524, 494.2253
179.1345, 468.8478
179.6166, 443.4946
180.0988, 417.4182
180.5809, 392.4957
181.0630, 369.4645
181.5451, 348.7084
182.0272, 332.8060
182.5093, 322.6455
182.9915, 318.0991
183.4736, 319.8992
183.9557, 328.8628
184.4378, 341.2008
184.9199, 352.0745
185.4020, 361.8804
185.8842, 373.1047
186.3663, 387.2174
186.8484, 403.8595
187.3305, 421.8411
187.8126, 441.7573
188.2947, 461.6050
188.7769, 479.3999
189.2590, 495.0577
189.7411, 506.5356
190.2232, 514.1638
190.7053, 517.2783
191.1874, 511.5012
191.6696, 495.7382
192.1517, 472.2501
192.6338, 444.7500
193.1159, 413.2620
193.5980, 377.4463
194.0801, 334.7383
194.5623, 286.0038
195.0444, 240.0123
195.5265, 197.0117
196.0086, 158.3763
196.4907, 128.3639
196.9728, 107.6882
197.4550, 89.44812
197.9371, 68.54907
198.4192, 44.86169
198.9013, 26.32007
199.3834, 14.41296
199.8655, 7.214844
200.3477, 0.2017820
200.8298, 6.619751
201.3119, 13.20776
201.7940, 19.78149
202.2761, 26.41101
202.7582, 32.11182
203.2404, 36.57520
203.7225, 40.20593
204.2046, 44.58398
204.6867, 50.35754
205.1688, 54.66016
205.6509, 55.16687
206.1331, 51.29175
206.6152, 47.61743
207.0973, 44.66223
207.5794, 42.07617
208.0615, 39.25684
208.5436, 36.94421
209.0258, 32.43091
209.5079, 22.97693
209.9900, 6.979126
210.4721, 5.886108
210.9542, 13.48511
211.4363, 17.87646
211.9185, 26.21387
212.4006, 39.52893
212.8827, 54.62976
213.3648, 69.64380
213.8469, 85.01489
214.3290, 99.24512
214.8112, 112.4337
215.2933, 124.3002
215.7754, 134.1116
216.2575, 141.4084
216.7396, 147.5146
217.2217, 152.7384
217.7038, 156.1407
218.1860, 161.6716
218.6681, 170.5303
219.1502, 181.5376
219.6323, 189.8737
220.1144, 193.6088
220.5965, 197.9086
221.0787, 205.6794
221.5608, 217.5790
222.0429, 231.1343
222.5250, 246.3632
223.0071, 263.1367
223.4892, 280.3019
223.9714, 297.5645
224.4535, 315.9366
224.9356, 336.2358
225.4177, 358.6609
225.8998, 382.4775
226.3819, 408.3313
226.8641, 435.5990
227.3462, 461.3130
227.8283, 485.3210
228.3104, 507.9653
228.7925, 529.6941
229.2746, 553.2411
229.7568, 570.1067
230.2389, 579.5229
230.7210, 582.2830
231.2031, 580.8940
231.6852, 576.6373
232.1673, 566.3665
232.6495, 548.0726
233.1316, 518.9390
233.6137, 487.9185
234.0958, 454.6842
234.5779, 420.1591
235.0600, 387.2908
235.5422, 355.3955
236.0243, 326.1368
236.5064, 300.1416
236.9885, 278.0364
237.4706, 257.0193
237.9527, 236.0072
238.4349, 216.3374
238.9170, 202.1500
239.3991, 195.0596
239.8812, 191.5323
240.3633, 190.1691
240.8454, 191.5278
241.3276, 193.0039
241.8097, 194.6594
242.2918, 196.6252
242.7739, 198.6332
243.2560, 198.8132
243.7381, 201.0325
244.2203, 207.6055
244.7024, 221.3169
245.1845, 232.1841
245.6666, 239.3956
246.1487, 244.3932
246.6308, 249.6844
247.1130, 254.4730
247.5951, 260.9095
248.0772, 270.0480
248.5593, 282.9426
249.0414, 294.8718
249.5235, 305.8337
250.0057, 315.7933
250.4878, 324.6394
250.9699, 331.2450
251.4520, 338.8011
251.9341, 348.8348
252.4162, 362.4821
252.8984, 373.0807
253.3805, 379.5817
253.8626, 383.8794
254.3447, 388.8396
254.8268, 395.8563
255.3089, 400.9117
255.7911, 403.0062
256.2732, 402.1825
256.7553, 397.4172
257.2374, 387.7305
257.7195, 374.8751
258.2017, 361.2214
258.6838, 348.0372
259.1659, 330.6954
259.6480, 306.4226
260.1301, 275.0043
260.6122, 247.1667
261.0944, 222.6281
261.5765, 202.1952
262.0586, 187.6001
262.5407, 181.5938
263.0228, 173.5579
263.5049, 160.6843
263.9871, 143.4854
264.4692, 129.2723
264.9513, 118.0684
265.4334, 109.5529
265.9155, 103.7634
266.3976, 101.3115
266.8798, 99.57617
267.3619, 98.41711
267.8440, 98.29382
268.3261, 99.08289
268.8082, 100.1451
269.2903, 101.9751
269.7725, 105.4309
270.2546, 110.8369
270.7367, 116.3661
271.2188, 121.9121
271.7009, 127.1470
272.1830, 130.4390
272.6652, 130.8669
273.1473, 131.7466
273.6294, 135.2694
274.1115, 141.5977
274.5936, 149.7563
275.0757, 160.3029
275.5579, 172.2172
276.0400, 182.1774
276.5221, 189.8557
277.0042, 196.8390
277.4863, 203.3885
277.9684, 209.2925
278.4506, 218.0049
278.9327, 230.7169
279.4148, 245.1427
279.8969, 256.5917
280.3790, 264.9071
280.8611, 271.4572
281.3433, 277.3181
281.8254, 282.5009
282.3075, 284.6411
282.7896, 283.6426
283.2717, 279.7966
283.7538, 273.3463
284.2360, 264.2770
284.7181, 253.2598
285.2002, 240.0626
285.6823, 224.9010
286.1644, 209.6466
286.6465, 194.4445
287.1287, 179.0870
287.6108, 163.7390
288.0929, 148.3259
288.5750, 131.5804
289.0571, 112.0146
289.5392, 90.62488
290.0214, 71.48376
290.5035, 54.63879
290.9856, 40.14661
291.4677, 29.17969
291.9498, 21.16187
292.4319, 12.71619
292.9141, 2.069214
293.3962, 9.323242
293.8783, 18.24097
294.3604, 24.62671
294.8425, 29.07556
295.3246, 30.94836
295.8068, 31.10388
296.2889, 32.64819
296.7710, 37.12976
297.2531, 42.37732
297.7352, 44.54492
298.2173, 43.88599
298.6995, 42.55298
299.1816, 43.26794
299.6637, 44.35486
300.1458, 41.95312
300.6279, 34.58093
301.1100, 25.25244
301.5922, 17.41821
302.0743, 10.86475
302.5564, 4.716064
303.0385, 0.1147460
303.5206, 4.934448
304.0027, 14.13586
304.4849, 28.62634
304.9670, 44.04712
305.4491, 56.01636
305.9312, 65.55103
306.4133, 75.09436
306.8954, 84.85828
307.3776, 95.82727
307.8597, 109.2972
308.3418, 125.6838
308.8239, 142.4667
309.3060, 157.7050
309.7881, 172.3335
310.2703, 187.2814
310.7524, 202.7860
311.2345, 219.1052
311.7166, 236.2611
312.1987, 254.2560
312.6808, 272.9287
313.1630, 292.3175
313.6451, 312.4591
314.1272, 333.5708
314.6093, 355.4524
315.0914, 378.2212
315.5735, 401.4910
316.0557, 425.3650
316.5378, 450.4541
317.0199, 478.5624
317.5020, 506.9678
317.9841, 534.0232
318.4662, 557.6394
318.9484, 581.5735
319.4305, 607.3711
319.9126, 634.4402
320.3947, 661.2136
320.8768, 688.6051
321.3589, 714.5737
321.8411, 737.7068
322.3232, 755.8461
322.8053, 775.4182
323.2874, 801.0872
323.7695, 828.2891
324.2516, 849.7930
324.7338, 859.9617
325.2159, 868.4282
325.6980, 878.7864
326.1801, 892.5623
326.6622, 902.1425
327.1443, 907.9623
327.6265, 909.0601
328.1086, 904.3877
328.5907, 890.8293
329.0728, 875.1326
329.5549, 858.3154
330.0370, 840.3136
330.5192, 820.1595
331.0013, 797.3523
331.4834, 772.7036
331.9655, 746.1975
332.4476, 714.9885
332.9297, 686.7338
333.4119, 663.0238
333.8940, 642.9272
334.3761, 622.4608
334.8582, 600.4055
335.3403, 580.5321
335.8224, 564.9495
336.3046, 554.3955
336.7867, 545.9722
337.2688, 540.2120
337.7509, 536.0103
338.2330, 530.4873
338.7151, 522.5647
339.1973, 516.8918
339.6794, 516.1315
340.1615, 520.6139
340.6436, 522.7399
341.1257, 521.6829
341.6078, 520.1301
342.0899, 521.6763
342.5721, 526.5020
343.0542, 532.0498
343.5363, 537.6125
344.0184, 543.2900
344.5005, 549.7061
344.9826, 556.8798
345.4648, 564.3524
345.9469, 570.7703
346.4290, 576.6255
346.9111, 585.0267
347.3932, 596.5914
347.8753, 610.9482
348.3575, 628.4352
348.8396, 648.6252
349.3217, 668.0435
349.8038, 681.9401
350.2859, 693.1675
350.7680, 709.4456
351.2502, 732.0801
351.7323, 755.9773
352.2144, 777.1376
352.6965, 795.4927
353.1786, 809.9478
353.6607, 818.8412
354.1429, 824.1517
354.6250, 828.4219
355.1071, 831.7986
355.5892, 832.9626
356.0713, 833.1996
356.5534, 830.2781
357.0356, 820.6553
357.5177, 801.0088
357.9998, 776.1282
358.4819, 747.8650
358.9640, 717.0009
359.4461, 687.7090
359.9283, 663.7118
360.4104, 641.0973
360.8925, 616.1353
361.3746, 585.1863
361.8567, 556.3379
362.3388, 533.3165
362.8210, 514.9072
363.3031, 497.8134
363.7852, 478.9567
364.2673, 462.8281
364.7494, 451.9397
365.2315, 447.5632
365.7137, 444.6520
366.1958, 442.8645
366.6779, 441.8534
367.1600, 441.1901
367.6421, 438.9299
368.1242, 438.9875
368.6064, 442.6300
369.0885, 450.0521
369.5706, 458.0815
370.0527, 468.5105
370.5348, 478.2366
371.0169, 484.9308
371.4991, 483.6282
371.9812, 487.8453
372.4633, 500.8057
372.9454, 519.9047
373.4275, 535.6852
373.9096, 547.3115
374.3918, 557.3999
374.8739, 566.8374
375.3560, 575.7607
375.8381, 585.2524
376.3202, 595.6816
376.8023, 605.6475
377.2845, 613.1130
377.7666, 617.7223
378.2487, 621.7673
378.7308, 627.0571
379.2129, 632.7733
379.6950, 632.2980
380.1772, 624.9756
380.6593, 614.4221
381.1414, 603.1460
381.6235, 590.8859
382.1056, 576.9502
382.5877, 562.2424
383.0699, 546.2190
383.5520, 527.2358
384.0341, 504.7810
384.5162, 479.8381
384.9983, 450.6406
385.4804, 419.5198
385.9626, 391.5698
386.4447, 368.0317
386.9268, 346.1166
387.4089, 321.9377
387.8910, 296.7090
388.3731, 274.0938
388.8553, 255.7826
389.3374, 240.3622
389.8195, 227.3289
390.3016, 217.0143
390.7837, 208.0361
391.2658, 199.5748
391.7480, 191.9585
392.2301, 185.5780
392.7122, 180.1448
393.1943, 176.6130
393.6764, 175.8464
394.1585, 177.4597
394.6407, 180.3182
395.1228, 185.3617
395.6049, 190.5322
396.0870, 194.3887
396.5691, 195.6721
397.0512, 199.2352
397.5334, 205.8531
398.0155, 215.3269
398.4976, 227.2903
398.9797, 246.3915
399.4618, 263.0072
399.9439, 274.1697
400.4261, 279.8906
400.9082, 287.6428
401.3903, 297.9489
401.8724, 309.7301
402.3545, 322.4739
402.8366, 336.5190
403.3188, 350.6305
403.8009, 365.5234
404.2830, 380.0953
404.7651, 390.7078
405.2472, 395.2461
405.7293, 401.6467
406.2115, 414.2977
406.6936, 433.3623
407.1757, 448.7031
407.6578, 459.3473
408.1399, 469.0394
408.6220, 482.4243
409.1042, 499.4417
409.5863, 516.8276
410.0684, 533.5815
410.5505, 550.2456
411.0326, 568.3350
411.5147, 587.9788
411.9969, 610.2371
412.4790, 638.3784
412.9611, 669.8500
413.4432, 697.7559
413.9253, 720.9760
414.4074, 742.5654
414.8896, 766.0612
415.3717, 790.5946
415.8538, 813.9728
416.3359, 836.8635
416.8180, 856.8352
417.3001, 871.9917
417.7823, 882.3752
418.2644, 886.6641
418.7465, 884.6672
419.2286, 876.1240
419.7107, 860.8175
420.1928, 837.6628
420.6750, 808.8147
421.1571, 773.6500
421.6392, 733.1221
422.1213, 690.6024
422.6034, 646.3152
423.0855, 600.9670
423.5677, 553.6106
424.0498, 503.0093
424.5319, 455.9919
425.0140, 413.8468
425.4961, 374.8367
425.9782, 337.1439
426.4604, 301.4207
426.9425, 265.9196
427.4246, 228.5023
427.9067, 190.2278
428.3888, 161.7002
428.8709, 147.3270
429.3531, 134.9867
429.8352, 117.1180
430.3173, 92.27380
430.7994, 70.51917
431.2815, 52.45496
431.7636, 36.98914
432.2458, 22.40955
432.7279, 8.577637
433.2100, 2.337036
433.6921, 8.785156
434.1742, 11.90564
434.6563, 15.31494
435.1385, 19.05566
435.6206, 23.38586
436.1027, 29.11023
436.5848, 35.62170
437.0669, 41.67590
437.5490, 47.71436
438.0312, 51.50208
438.5133, 47.92224
438.9954, 39.67615
439.4775, 34.30261
439.9596, 39.59668
440.4417, 46.96924
440.9239, 48.38452
441.4060, 43.36182
441.8881, 36.95691
442.3702, 29.92151
442.8523, 23.93188
443.3344, 20.63867
443.8166, 23.92456
444.2987, 25.94568
444.7808, 24.63770
445.2629, 20.30566
445.7450, 13.75525
446.2271, 0.5070800
446.7093, 10.69287
447.1914, 15.32703
447.6735, 9.885132
448.1556, 9.124146
448.6377, 15.68494
449.1198, 25.12695
449.6020, 32.90637
450.0841, 37.28845
450.5662, 43.38647
451.0483, 52.50366
451.5304, 63.94214
452.0125, 74.12146
452.4947, 82.64514
452.9768, 91.41064
453.4589, 101.1416
453.9410, 111.9066
454.4231, 125.3259
454.9052, 142.0964
455.3874, 159.8918
455.8695, 176.0250
456.3516, 190.7397
456.8337, 205.1130
457.3158, 218.8176
457.7979, 233.1786
458.2801, 250.9784
458.7622, 271.8707
459.2443, 294.1610
459.7264, 317.0634
460.2085, 340.3890
460.6906, 363.7520
461.1728, 387.2292
461.6549, 410.0659
462.1370, 428.9194
462.6191, 447.0513
463.1012, 468.8101
463.5833, 501.5085
464.0655, 532.9165
464.5476, 558.6056
465.0297, 578.2952
465.5118, 591.9021
465.9939, 596.1125
466.4760, 596.1919
466.9582, 595.0759
467.4403, 594.8240
467.9224, 589.9695
468.4045, 580.1339
468.8866, 565.8928
469.3687, 547.6465
469.8509, 525.0342
470.3330, 499.5118
470.8151, 470.5884
471.2972, 438.6970
471.7793, 407.9926
472.2614, 377.8531
472.7436, 349.8555
473.2257, 325.9640
473.7078, 306.1774
474.1899, 284.5404
474.6720, 259.9216
475.1541, 234.8417
475.6363, 211.7095
476.1184, 190.8746
476.6005, 174.7887
477.0826, 166.8179
477.5647, 162.7742
478.0468, 155.7377
478.5290, 145.9335
479.0111, 135.4083
479.4932, 123.2217
479.9753, 112.1514
480.4574, 105.8455
480.9395, 105.7590
481.4217, 107.7921
481.9038, 110.0977
482.3859, 112.7439
482.8680, 115.8027
483.3501, 119.7794
483.8322, 123.6748
484.3144, 126.8282
484.7965, 129.2853
485.2786, 132.5229
485.7607, 137.9611
486.2428, 143.1880
486.7249, 146.8942
487.2071, 147.8104
487.6892, 149.8248
488.1713, 153.3364
488.6534, 157.6885
489.1355, 161.8696
489.6176, 165.5297
490.0998, 170.3781
490.5819, 177.5116
491.0640, 185.8241
491.5461, 190.4277
492.0282, 191.1691
492.5103, 191.6113
492.9925, 193.9784
493.4746, 198.1121
493.9567, 203.5513
494.4388, 210.8497
494.9209, 216.6232
495.4030, 215.5319
495.8852, 209.9711
496.3673, 206.2704
496.8494, 207.8191
497.3315, 211.2889
497.8136, 213.5135
498.2957, 214.4045
498.7779, 214.3170
499.2600, 213.2722
499.7421, 212.0552
500.2242, 211.2506
500.7063, 211.0078
501.1884, 210.4880
501.6706, 208.9668
502.1527, 206.8285
502.6348, 204.5516
503.1169, 200.9066
503.5990, 199.3273
504.0811, 202.0381
504.5633, 207.3435
505.0454, 209.4906
505.5275, 206.5009
506.0096, 203.0332
506.4917, 200.8688
506.9738, 199.9728
507.4560, 200.6932
507.9381, 203.6403
508.4202, 206.3601
508.9023, 205.9486
509.3844, 202.5840
509.8665, 199.2863
510.3487, 196.4106
510.8308, 194.2452
511.3129, 193.3978
511.7950, 193.7538
512.2772, 194.7302
512.7593, 196.3456
513.2414, 198.4834
513.7235, 201.5045
514.2056, 205.2997
514.6877, 207.7949
515.1699, 204.8567
515.6520, 201.0891
516.1341, 201.2729
516.6162, 208.9368
517.0983, 216.0615
517.5804, 220.1610
518.0626, 221.9502
518.5447, 222.6288
519.0268, 219.0696
519.5089, 217.7960
519.9910, 221.1318
520.4731, 228.8119
520.9553, 235.6228
521.4374, 241.4363
521.9195, 246.3849
522.4016, 250.0237
522.8837, 251.7297
523.3658, 255.3971
523.8480, 261.3605
524.3301, 268.9937
524.8122, 277.5303
525.2943, 286.7825
525.7764, 295.5698
526.2585, 303.3453
526.7407, 310.8864
527.2228, 320.2958
527.7049, 331.2367
528.1870, 341.3721
528.6691, 348.6132
529.1512, 354.7550
529.6334, 362.2485
530.1155, 371.3806
530.5976, 379.6245
531.0797, 385.2804
531.5618, 389.4570
532.0439, 393.0038
532.5261, 393.9047
533.0082, 397.4053
533.4903, 408.7201
533.9724, 423.2194
534.4545, 431.2275
534.9366, 425.3342
535.4188, 420.3569
535.9009, 420.2485
536.3830, 424.8730
536.8651, 427.3793
537.3472, 427.1851
537.8293, 426.1202
538.3115, 425.2592
538.7936, 424.6317
539.2757, 424.2148
539.7578, 424.0771
540.2399, 424.0140
540.7220, 423.2927
541.2042, 422.1997
541.6863, 422.5574
542.1684, 425.8822
542.6505, 429.7767
543.1326, 430.6335
543.6147, 428.9895
544.0969, 426.9537
544.5790, 424.2700
545.0611, 422.6807
545.5432, 424.4066
546.0253, 429.7799
546.5074, 434.3809
546.9896, 435.4113
547.4717, 435.3748
547.9538, 436.2933
548.4359, 439.1122
548.9180, 442.1327
549.4001, 446.1200
549.8823, 450.0215
550.3644, 451.8746
550.8465, 450.5237
551.3286, 449.4303
551.8107, 449.7834
552.2928, 451.2308
552.7750, 451.3210
553.2571, 450.1630
553.7392, 447.2333
554.2213, 441.4060
554.7034, 433.2507
555.1855, 426.4586
555.6677, 421.5476
556.1498, 415.2963
556.6319, 404.1136
557.1140, 389.1510
557.5961, 372.7173
558.0782, 355.0179
558.5604, 336.7196
559.0425, 318.2435
559.5246, 299.6953
560.0067, 281.4031
560.4888, 265.5210
560.9709, 248.2607
561.4531, 226.9518
561.9352, 201.4781
562.4173, 178.3771
562.8994, 159.5770
563.3815, 142.5809
563.8636, 126.0847
564.3458, 110.3999
564.8279, 94.50464
565.3100, 77.39709
565.7921, 61.14868
566.2742, 49.14929
566.7563, 41.78784
567.2385, 34.13782
567.7206, 24.81580
568.2027, 15.12732
568.6848, 8.724121
569.1669, 5.145752
569.6490, 1.667603
570.1312, 3.637451
570.6133, 9.589600
571.0954, 15.08362
571.5775, 20.04077
572.0596, 22.68042
572.5417, 19.71814
573.0239, 15.27246
573.5060, 13.10938
573.9881, 14.73718
574.4702, 16.26038
574.9523, 17.03845
575.4344, 16.88391
575.9166, 15.52698
576.3987, 10.80798
576.8808, 7.776611
577.3629, 7.619507
577.8450, 9.451416
578.3271, 10.63184
578.8093, 11.52283
579.2914, 10.62500
579.7735, 6.007813
580.2556, 1.338623
580.7377, 3.166748
581.2198, 1.040405
581.7020, 5.584717
582.1841, 5.221436
582.6662, 1.689453
583.1483, 0.9449460
583.6304, 2.051636
584.1125, 2.574707
584.5947, 3.124390
585.0768, 3.713257
585.5589, 4.353394
586.0410, 5.070190
586.5231, 5.903198
587.0052, 6.143555
587.4873, 6.523193
587.9694, 8.938110
588.4515, 16.98633
588.9337, 23.83472
589.4158, 27.05725
589.8979, 26.63574
590.3800, 27.18872
590.8621, 28.34961
591.3442, 31.10071
591.8264, 36.36084
592.3085, 44.26892
592.7906, 52.38696
593.2727, 60.83496
593.7548, 68.64087
594.2369, 73.50781
