##NAMES=Kurnakovite
##RRUFFID=R050393
##IDEAL CHEMISTRY=MgB_3_O_3_(OH)_5_&#183;5H_2_O
##LOCALITY=Kramer deposit, Boron, Kern County, California, USA
##OWNER=RRUFF
##SOURCE=Marcus Origlieri
##DESCRIPTION=Colorless to gray cleavage fragment
##STATUS=The identification of this mineral has been confirmed by X-ray diffraction and chemical analysis
##URL=rruff.info/R050393
##MEASURED CHEMISTRY=Mg_1.00_B_3_O_3_(OH)_5_·5H_2_O ; = lighter phase. The darker phase: (Mg_0.97_Al_0.02_[box]_0.01_)_Σ=1_B_3_O_3_(OH)_5_·5H_2_O ; B not measured but estimated by stoichiometry
125.7895, 0.0000000E+00
126.2716, 7.8795999E-02
126.7537, 0.1362920
127.2358, 3.958740
127.7179, 10.26794
128.2001, 19.67279
128.6822, 32.95874
129.1643, 50.71838
129.6464, 73.06042
130.1285, 98.10663
130.6107, 126.7786
131.0928, 154.4880
131.5749, 181.6256
132.0570, 207.2534
132.5391, 230.2083
133.0212, 250.4942
133.5033, 271.5650
133.9855, 286.7926
134.4676, 286.6027
134.9497, 275.5545
135.4318, 256.6970
135.9139, 231.6239
136.3960, 202.5437
136.8782, 170.8016
137.3603, 135.3154
137.8424, 103.5481
138.3245, 75.66431
138.8066, 51.85852
139.2887, 33.05161
139.7709, 19.85413
140.2530, 10.46115
140.7351, 2.915924
141.2172, 3.019012
141.6993, 6.533203
142.1814, 6.718109
142.6636, 4.028931
143.1457, 0.1412660
143.6278, 4.462799
144.1099, 10.58078
144.5920, 18.69418
145.0741, 28.80875
145.5563, 40.29611
146.0384, 52.91772
146.5205, 66.75287
147.0026, 80.58337
147.4847, 95.07993
147.9668, 108.8349
148.4490, 121.7798
148.9311, 133.6475
149.4132, 143.0988
149.8953, 147.8608
150.3774, 146.3961
150.8595, 142.8106
151.3417, 136.8096
151.8238, 129.6867
152.3059, 121.7827
152.7880, 113.4067
153.2701, 105.4924
153.7522, 100.5681
154.2344, 101.3708
154.7165, 102.5049
155.1986, 102.8578
155.6807, 103.6888
156.1628, 106.7225
156.6449, 112.8852
157.1271, 121.6005
157.6092, 130.6911
158.0913, 139.3492
158.5734, 149.1860
159.0555, 160.6196
159.5376, 173.5620
160.0198, 187.8467
160.5019, 203.5025
160.9840, 220.5065
161.4661, 238.0136
161.9482, 255.5678
162.4303, 274.3296
162.9125, 295.1434
163.3946, 317.9967
163.8767, 342.1168
164.3588, 369.2990
164.8409, 396.7448
165.3230, 420.6680
165.8052, 440.9814
166.2873, 456.2703
166.7694, 464.6464
167.2515, 465.5187
167.7336, 460.6714
168.2157, 448.8412
168.6979, 432.8167
169.1800, 415.1344
169.6621, 396.4608
170.1442, 377.2402
170.6263, 358.4315
171.1084, 339.8910
171.5906, 322.2158
172.0727, 305.0196
172.5548, 288.7077
173.0369, 273.8840
173.5190, 261.0266
174.0011, 249.9138
174.4833, 239.1136
174.9654, 228.6331
175.4475, 218.5459
175.9296, 208.9290
176.4117, 199.7387
176.8938, 190.9021
177.3760, 182.4741
177.8581, 174.4911
178.3402, 165.4364
178.8223, 154.0473
179.3044, 142.9689
179.7865, 132.9984
180.2687, 124.1586
180.7508, 116.2170
181.2329, 109.0140
181.7150, 102.5667
182.1971, 97.28326
182.6792, 92.61514
183.1614, 89.33163
183.6435, 88.53918
184.1256, 89.62604
184.6077, 92.19385
185.0898, 96.00082
185.5719, 101.1805
186.0541, 106.6737
186.5362, 112.1998
187.0183, 118.1797
187.5004, 125.2174
187.9825, 133.4347
188.4646, 141.7836
188.9468, 149.5516
189.4289, 156.7161
189.9110, 163.1581
190.3931, 169.7867
190.8752, 175.3811
191.3573, 178.0840
191.8395, 177.5960
192.3216, 174.4854
192.8037, 168.9657
193.2858, 161.4049
193.7679, 152.0813
194.2500, 140.3969
194.7322, 126.9948
195.2143, 113.5893
195.6964, 99.80728
196.1785, 86.82629
196.6606, 74.98322
197.1427, 64.20331
197.6249, 54.44946
198.1070, 45.76953
198.5891, 38.08325
199.0712, 30.74561
199.5533, 23.67462
200.0354, 17.51004
200.5176, 12.86081
200.9997, 9.505524
201.4818, 6.683075
201.9639, 3.853241
202.4460, 0.9782710
202.9281, 1.291168
203.4103, 2.238251
203.8924, 3.243652
204.3745, 4.957489
204.8566, 7.124603
205.3387, 9.001526
205.8208, 9.939941
206.3030, 9.875397
206.7851, 9.469604
207.2672, 8.609070
207.7493, 7.559814
208.2314, 6.429474
208.7135, 5.196167
209.1957, 3.766418
209.6778, 2.059204
210.1599, 6.7290999E-02
210.6420, 2.133301
211.1241, 4.408722
211.6062, 6.958801
212.0884, 10.00885
212.5705, 13.47369
213.0526, 17.03882
213.5347, 20.49429
214.0168, 23.83569
214.4989, 26.71857
214.9811, 28.85294
215.4632, 30.79904
215.9453, 33.03650
216.4274, 35.55719
216.9095, 37.83270
217.3916, 39.33194
217.8737, 40.02844
218.3559, 40.92310
218.8380, 42.52408
219.3201, 44.01978
219.8022, 44.37180
220.2843, 43.50623
220.7664, 42.94174
221.2486, 44.02969
221.7307, 46.51065
222.2128, 49.15405
222.6949, 51.62860
223.1770, 54.27585
223.6591, 57.37460
224.1413, 60.90225
224.6234, 65.08643
225.1055, 70.43524
225.5876, 76.54468
226.0697, 82.75647
226.5518, 88.70807
227.0340, 94.74667
227.5161, 101.5137
227.9982, 109.2426
228.4803, 116.8943
228.9624, 124.0785
229.4445, 130.7344
229.9267, 136.8529
230.4088, 142.7273
230.8909, 147.7461
231.3730, 150.5685
231.8551, 150.7639
232.3372, 149.7422
232.8194, 148.3990
233.3015, 146.2238
233.7836, 142.4442
234.2657, 136.6056
234.7478, 129.2304
235.2299, 121.3680
235.7121, 112.7773
236.1942, 104.0978
236.6763, 94.82968
237.1584, 85.97253
237.6405, 78.54129
238.1227, 72.91995
238.6048, 68.60718
239.0869, 64.43900
239.5690, 60.02026
240.0511, 56.47266
240.5332, 54.43066
241.0154, 53.21350
241.4975, 51.98441
241.9796, 50.26416
242.4617, 48.37918
242.9438, 47.43811
243.4259, 48.23303
243.9081, 48.95764
244.3902, 49.35632
244.8723, 49.60544
245.3544, 49.77292
245.8365, 49.90314
246.3186, 50.19299
246.8008, 51.12244
247.2829, 53.27286
247.7650, 55.28705
248.2471, 57.02011
248.7292, 58.63800
249.2113, 60.18375
249.6935, 61.69727
250.1756, 63.37659
250.6577, 65.62076
251.1398, 68.72940
251.6219, 72.03073
252.1040, 75.58038
252.5862, 79.25610
253.0683, 82.92560
253.5504, 86.54135
254.0325, 90.23584
254.5146, 94.28918
254.9967, 99.51849
255.4789, 103.3971
255.9610, 105.4693
256.4431, 106.4369
256.9252, 106.9000
257.4073, 106.9861
257.8894, 106.4939
258.3716, 105.2155
258.8537, 103.2265
259.3358, 99.79285
259.8179, 94.47250
260.3000, 87.90051
260.7821, 79.83731
261.2643, 70.49185
261.7464, 61.89911
262.2285, 56.52347
262.7106, 55.32288
263.1927, 52.71790
263.6748, 47.53610
264.1570, 41.77676
264.6391, 37.06073
265.1212, 33.58417
265.6033, 30.63834
266.0854, 27.51270
266.5675, 24.24023
267.0497, 21.91913
267.5318, 21.49237
268.0139, 21.44174
268.4960, 20.29584
268.9781, 18.00592
269.4602, 15.96509
269.9424, 15.24573
270.4245, 15.77866
270.9066, 16.41299
271.3887, 17.00906
271.8708, 17.77475
272.3529, 18.98520
272.8351, 20.58972
273.3172, 22.03122
273.7993, 22.64868
274.2814, 22.98553
274.7635, 24.60080
275.2456, 28.21494
275.7278, 32.32114
276.2099, 35.94708
276.6920, 39.14340
277.1741, 42.24884
277.6562, 45.16623
278.1383, 48.27097
278.6205, 52.23291
279.1026, 57.53891
279.5847, 62.76151
280.0668, 67.00546
280.5489, 70.36353
281.0310, 73.25250
281.5132, 75.70575
281.9953, 77.80563
282.4774, 79.90109
282.9595, 82.13080
283.4416, 83.58774
283.9237, 83.70001
284.4059, 82.57947
284.8880, 80.61020
285.3701, 77.65280
285.8522, 74.13382
286.3343, 70.70181
286.8164, 67.34277
287.2986, 63.35452
287.7807, 58.29715
288.2628, 52.29758
288.7449, 45.61371
289.2270, 37.69507
289.7091, 30.14877
290.1913, 24.32172
290.6734, 19.90814
291.1555, 15.78336
291.6376, 11.19638
292.1197, 6.580475
292.6018, 3.041016
293.0840, 1.003723
293.5661, 0.7829900
294.0482, 3.454010
294.5303, 6.455444
295.0124, 8.745148
295.4945, 9.699524
295.9767, 9.803040
296.4588, 9.728607
296.9409, 9.285400
297.4230, 9.325684
297.9051, 11.31384
298.3872, 13.74008
298.8694, 14.66443
299.3515, 13.16199
299.8336, 10.60681
300.3157, 8.747864
300.7978, 7.672516
301.2799, 6.654938
301.7621, 5.522217
302.2442, 4.261414
302.7263, 2.856354
303.2084, 1.306519
303.6905, 0.4222720
304.1726, 2.417542
304.6548, 4.686371
305.1369, 7.026520
305.6190, 9.518524
306.1011, 11.97134
306.5832, 14.15622
307.0653, 16.07355
307.5475, 18.05521
308.0296, 20.40634
308.5117, 23.09311
308.9938, 25.74112
309.4759, 28.06708
309.9580, 30.65237
310.4402, 33.99231
310.9223, 37.91769
311.4044, 41.79266
311.8865, 45.14554
312.3686, 48.08044
312.8507, 50.98166
313.3329, 53.37195
313.8150, 56.63406
314.2971, 61.87561
314.7792, 68.37888
315.2613, 74.86523
315.7434, 80.64182
316.2256, 86.15103
316.7077, 92.31592
317.1898, 99.23151
317.6719, 106.7276
318.1540, 115.0726
318.6361, 123.8215
319.1183, 132.4988
319.6004, 140.9754
320.0825, 149.4323
320.5646, 158.2141
321.0467, 167.4016
321.5288, 176.3974
322.0110, 184.7581
322.4931, 193.0094
322.9752, 201.8385
323.4573, 211.3433
323.9394, 220.1797
324.4215, 226.6035
324.9037, 230.6416
325.3858, 235.4994
325.8679, 242.8496
326.3500, 249.9594
326.8321, 255.4249
327.3142, 259.1488
327.7964, 260.8862
328.2785, 259.9085
328.7606, 256.6361
329.2427, 253.0940
329.7248, 249.4509
330.2069, 245.4016
330.6891, 241.3296
331.1712, 236.7902
331.6533, 230.6646
332.1354, 221.7476
332.6175, 211.2837
333.0996, 201.6920
333.5818, 192.9711
334.0639, 184.9886
334.5460, 178.1104
335.0281, 171.8080
335.5102, 165.5217
335.9923, 158.9533
336.4745, 152.6276
336.9566, 146.9745
337.4387, 142.0035
337.9208, 137.9004
338.4029, 134.8776
338.8850, 132.7404
339.3671, 131.5320
339.8492, 131.3236
340.3314, 131.0191
340.8135, 129.1920
341.2956, 126.2597
341.7777, 125.0713
342.2598, 126.7914
342.7419, 129.4889
343.2241, 131.3658
343.7062, 132.6234
344.1883, 134.2703
344.6704, 137.3415
345.1525, 141.0483
345.6346, 143.3831
346.1168, 143.7385
346.5989, 144.3455
347.0810, 147.0131
347.5631, 151.0249
348.0452, 155.3583
348.5273, 159.9175
349.0095, 164.5424
349.4916, 168.9762
349.9737, 173.1788
350.4558, 177.5844
350.9379, 182.2499
351.4200, 187.3093
351.9022, 192.9249
352.3843, 199.2116
352.8664, 205.5696
353.3485, 211.9770
353.8306, 218.3121
354.3127, 223.9248
354.7949, 228.7687
355.2770, 232.6333
355.7591, 235.2689
356.2412, 236.7302
356.7233, 237.0922
357.2054, 237.0737
357.6876, 235.9915
358.1697, 232.3210
358.6518, 225.6330
359.1339, 217.5599
359.6160, 209.1984
360.0981, 200.5527
360.5803, 191.9478
361.0624, 183.6443
361.5445, 175.2299
362.0266, 166.0133
362.5087, 156.1514
362.9908, 146.9762
363.4730, 139.0967
363.9551, 132.5873
364.4372, 127.2930
364.9193, 123.5636
365.4014, 120.3541
365.8835, 117.3773
366.3657, 114.6240
366.8478, 111.9012
367.3299, 109.0468
367.8120, 106.6580
368.2941, 105.8178
368.7762, 106.7543
369.2584, 108.0484
369.7405, 109.5343
370.2226, 111.2790
370.7047, 113.3821
371.1868, 115.8562
371.6689, 118.5796
372.1511, 121.5822
372.6332, 124.8784
373.1153, 127.4112
373.5974, 127.9344
374.0795, 129.0092
374.5616, 132.6481
375.0438, 137.8881
375.5259, 142.1415
376.0080, 143.8606
376.4901, 143.8567
376.9722, 144.9872
377.4543, 148.3300
377.9365, 151.4159
378.4186, 154.4472
378.9007, 156.9292
379.3828, 158.2437
379.8649, 158.2545
380.3470, 157.3524
380.8292, 156.0347
381.3113, 154.1502
381.7934, 152.0470
382.2755, 150.1570
382.7576, 147.5496
383.2397, 143.8415
383.7219, 138.9291
384.2040, 132.6370
384.6861, 124.6702
385.1682, 115.2130
385.6503, 107.0331
386.1324, 101.6656
386.6146, 96.01062
387.0967, 89.38394
387.5788, 82.26080
388.0609, 75.01013
388.5430, 67.83389
389.0251, 61.19345
389.5073, 56.06772
389.9894, 53.17438
390.4715, 50.08289
390.9536, 46.10608
391.4357, 42.28598
391.9178, 39.16937
392.4000, 36.89658
392.8821, 35.44168
393.3642, 34.95581
393.8463, 35.35416
394.3284, 35.32986
394.8105, 34.78183
395.2927, 34.30667
395.7748, 33.93118
396.2569, 33.79306
396.7390, 34.07761
397.2211, 34.87027
397.7032, 36.15985
398.1854, 37.97739
398.6675, 40.46503
399.1496, 43.07526
399.6317, 45.69751
400.1138, 48.37747
400.5959, 51.29865
401.0781, 54.47134
401.5602, 57.35248
402.0423, 59.15128
402.5244, 59.99850
403.0065, 61.40326
403.4886, 63.65778
403.9708, 66.34784
404.4529, 69.01575
404.9350, 71.80560
405.4171, 75.21075
405.8992, 80.11768
406.3813, 85.39914
406.8635, 88.99219
407.3456, 90.67929
407.8277, 92.74048
408.3098, 96.60837
408.7919, 101.4453
409.2740, 105.6559
409.7562, 108.7659
410.2383, 112.3038
410.7204, 117.1045
411.2025, 123.0822
411.6846, 130.1917
412.1667, 138.6812
412.6489, 147.6535
413.1310, 155.8250
413.6131, 163.2454
414.0952, 171.5128
414.5773, 181.6887
415.0594, 192.3079
415.5416, 202.2441
416.0237, 211.3706
416.5058, 219.5101
416.9879, 226.3864
417.4700, 232.2101
417.9521, 238.1810
418.4343, 246.5049
418.9164, 252.3654
419.3985, 254.0901
419.8806, 252.6620
420.3627, 249.2888
420.8448, 244.3690
421.3270, 238.1504
421.8091, 231.0281
422.2912, 223.2548
422.7733, 213.5814
423.2554, 201.3277
423.7375, 187.9840
424.2197, 174.0540
424.7018, 159.8533
425.1839, 145.8203
425.6660, 132.2226
426.1481, 119.1585
426.6302, 106.8740
427.1124, 95.50897
427.5945, 84.99496
428.0766, 75.39651
428.5587, 66.62396
429.0408, 58.44122
429.5229, 50.82544
430.0051, 43.93756
430.4872, 38.11700
430.9693, 33.62219
431.4514, 29.22876
431.9335, 24.70569
432.4156, 20.45645
432.8978, 16.74350
433.3799, 13.44272
433.8620, 10.12451
434.3441, 6.370819
434.8262, 2.569199
435.3083, 5.3557999E-02
435.7905, 1.183319
436.2726, 1.972305
436.7547, 2.215179
437.2368, 2.642792
437.7189, 4.214661
438.2010, 7.198334
438.6832, 10.03514
439.1653, 11.39621
439.6474, 11.45041
440.1295, 11.06711
440.6116, 10.29054
441.0938, 9.249344
441.5759, 7.777893
442.0580, 6.083374
442.5401, 4.871017
443.0222, 4.619843
443.5043, 4.747330
443.9865, 4.768250
444.4686, 4.672485
444.9507, 4.342987
445.4328, 3.542328
445.9149, 2.663605
446.3970, 2.766159
446.8792, 4.363510
447.3613, 5.311493
447.8434, 4.498108
448.3255, 2.963898
448.8076, 1.983536
449.2897, 1.764725
449.7719, 1.865570
450.2540, 2.092651
450.7361, 2.505508
451.2182, 1.049927
451.7003, 4.539291
452.1824, 9.235626
452.6646, 10.51651
453.1467, 9.833221
453.6288, 9.636993
454.1109, 11.00346
454.5930, 13.33974
455.0751, 15.43657
455.5573, 16.72479
456.0394, 18.93651
456.5215, 22.44202
457.0036, 26.38675
457.4857, 30.34488
457.9678, 34.28130
458.4500, 38.39827
458.9321, 42.91309
459.4142, 47.71182
459.8963, 52.01321
460.3784, 54.81287
460.8605, 58.95879
461.3427, 65.90204
461.8248, 74.02737
462.3069, 81.87749
462.7890, 89.08765
463.2711, 96.07855
463.7532, 103.4423
464.2354, 111.1377
464.7175, 117.9344
465.1996, 123.5373
465.6817, 128.4377
466.1638, 133.2543
466.6459, 137.7234
467.1281, 141.0922
467.6102, 143.1396
468.0923, 143.9338
468.5744, 143.3280
469.0565, 141.3858
469.5386, 138.8911
470.0208, 136.3101
470.5029, 133.1103
470.9850, 128.1241
471.4671, 121.0959
471.9492, 114.1789
472.4313, 108.2832
472.9135, 102.5184
473.3956, 95.58908
473.8777, 87.55614
474.3598, 79.83408
474.8419, 73.51585
475.3240, 68.50258
475.8062, 63.97794
476.2883, 60.27945
476.7704, 56.56616
477.2525, 52.48642
477.7346, 48.39246
478.2167, 44.60425
478.6989, 41.23618
479.1810, 38.49878
479.6631, 36.75296
480.1452, 36.30893
480.6273, 35.31946
481.1094, 32.58517
481.5916, 30.54387
482.0737, 30.54082
482.5558, 31.68942
483.0379, 32.33366
483.5200, 31.60916
484.0021, 30.35811
484.4843, 30.31711
484.9664, 31.81966
485.4485, 32.98438
485.9306, 33.14395
486.4127, 33.11276
486.8948, 33.37498
487.3770, 33.93353
487.8591, 34.62828
488.3412, 35.33598
488.8233, 36.12755
489.3054, 37.16162
489.7875, 38.44743
490.2697, 39.85695
490.7518, 41.42313
491.2339, 43.01068
491.7160, 44.37195
492.1981, 45.43842
492.6802, 46.46278
493.1624, 47.56255
493.6445, 48.59471
494.1266, 49.34637
494.6087, 49.82240
495.0908, 50.29114
495.5729, 50.90430
496.0551, 51.57733
496.5372, 52.35992
497.0193, 53.95673
497.5014, 55.08423
497.9835, 55.15660
498.4656, 54.63322
498.9478, 54.03474
499.4299, 53.58530
499.9120, 53.43292
500.3941, 53.81723
500.8762, 54.92693
501.3583, 55.50937
501.8405, 55.03275
502.3226, 54.58673
502.8047, 54.87216
503.2868, 55.46274
503.7689, 55.56253
504.2510, 54.74490
504.7331, 52.99387
505.2152, 50.18710
505.6974, 46.15115
506.1795, 42.95668
506.6616, 41.38133
507.1437, 40.35995
507.6258, 39.43665
508.1079, 38.45700
508.5901, 36.80669
509.0722, 33.65143
509.5543, 30.19461
510.0364, 27.88013
510.5185, 26.71162
511.0006, 25.96446
511.4828, 25.38803
511.9649, 24.96901
512.4470, 24.76320
512.9291, 24.95097
513.4113, 24.72795
513.8934, 23.64716
514.3755, 22.20242
514.8576, 20.84904
515.3397, 19.64627
515.8218, 18.54720
516.3040, 17.52596
516.7861, 16.56227
517.2682, 15.52914
517.7503, 13.65648
518.2324, 12.72372
518.7145, 14.03246
519.1967, 15.70453
519.6788, 15.73445
520.1609, 13.87842
520.6430, 11.57611
521.1251, 10.37729
521.6072, 10.27124
522.0894, 10.17717
522.5715, 9.698807
523.0536, 9.837097
523.5357, 11.48547
524.0178, 13.63387
524.4999, 14.98175
524.9821, 15.10805
525.4642, 15.05991
525.9463, 16.01509
526.4284, 17.72290
526.9105, 18.84331
527.3926, 18.98389
527.8748, 19.08813
528.3569, 19.87245
528.8390, 21.12280
529.3211, 22.45212
529.8032, 24.10487
530.2853, 25.57117
530.7675, 26.21637
531.2496, 26.53397
531.7317, 27.75017
532.2138, 30.24335
532.6959, 32.71198
533.1780, 33.40182
533.6602, 31.84132
534.1423, 31.53001
534.6244, 33.46359
535.1065, 35.13599
535.5886, 35.50046
536.0707, 35.18762
536.5529, 35.35719
537.0350, 36.44894
537.5171, 37.67572
537.9992, 37.47104
538.4813, 35.29297
538.9634, 34.52560
539.4456, 36.63342
539.9277, 38.74403
540.4098, 39.31331
540.8919, 38.95082
541.3740, 38.97060
541.8561, 40.00964
542.3383, 41.36562
542.8204, 42.26526
543.3025, 42.72511
543.7846, 42.81120
544.2667, 42.33263
544.7488, 41.89337
545.2310, 42.37245
545.7131, 43.64273
546.1952, 44.49789
546.6773, 44.05525
547.1594, 43.79187
547.6415, 45.03763
548.1237, 47.22516
548.6058, 48.92191
549.0879, 49.54448
549.5700, 49.49518
550.0521, 49.34094
550.5342, 48.78064
551.0164, 49.09308
551.4985, 51.39122
551.9806, 53.29254
552.4627, 53.29990
552.9448, 52.22522
553.4269, 51.89854
553.9091, 53.26482
554.3912, 54.95387
554.8733, 54.23392
555.3554, 50.61902
555.8375, 47.91138
556.3196, 46.93047
556.8018, 46.61153
557.2839, 46.51570
557.7660, 46.48763
558.2481, 46.15251
558.7302, 45.68295
559.2123, 44.48807
559.6945, 41.37784
560.1766, 36.84734
560.6587, 33.21626
561.1408, 31.29395
561.6229, 30.14912
562.1050, 28.76678
562.5872, 27.16292
563.0693, 24.97391
563.5514, 21.24289
564.0335, 17.89310
564.5156, 16.23738
564.9977, 15.60588
565.4799, 14.66182
565.9620, 12.88516
566.4441, 10.87656
566.9262, 9.672943
567.4083, 9.591568
567.8904, 9.015488
568.3726, 7.203537
568.8547, 5.655884
569.3368, 4.990280
569.8189, 4.903198
570.3010, 4.921066
570.7831, 4.895584
571.2653, 4.772461
571.7474, 4.535553
572.2295, 4.167542
572.7116, 3.410675
573.1937, 2.035294
573.6758, 0.7547300
574.1580, 0.3448180
574.6401, 0.5612030
575.1222, 0.4364170
575.6043, 0.3984990
576.0864, 1.274399
576.5685, 2.162750
577.0507, 2.781204
577.5328, 2.304123
578.0149, 0.6177370
578.4970, 0.8771360
578.9791, 0.5594330
579.4612, 1.670654
579.9434, 3.192596
580.4255, 3.463608
580.9076, 3.641815
581.3897, 4.073639
581.8718, 4.450897
582.3539, 4.315491
582.8361, 3.615326
583.3182, 2.880692
583.8003, 2.726593
584.2824, 3.051376
584.7645, 3.171524
585.2466, 3.200470
585.7288, 2.665909
586.2108, 0.6020050
586.6929, 1.823318
587.1750, 2.755341
587.6572, 1.716431
588.1393, 0.7171020
588.6214, 0.7975460
589.1035, 1.377304
589.5856, 1.867157
590.0677, 2.147324
590.5499, 1.842850
591.0320, 0.5321350
591.5141, 1.292053
591.9962, 1.775467
592.4783, 0.2101590
592.9604, 2.023911
593.4426, 3.801010
593.9247, 5.269028
594.4068, 6.021484
594.8889, 6.264847
595.3710, 6.667831
595.8531, 7.694061
596.3353, 9.079987
596.8174, 10.15073
597.2995, 10.79565
597.7816, 11.75140
598.2637, 13.23811
598.7458, 15.04254
599.2280, 17.13358
599.7101, 19.41826
600.1922, 21.40916
600.6743, 22.66441
601.1564, 23.81049
601.6385, 25.31328
602.1207, 27.13774
602.6028, 29.29790
603.0849, 31.82330
603.5670, 34.24773
604.0491, 35.84184
604.5313, 36.30986
605.0134, 37.81416
605.4955, 41.02107
605.9776, 44.35403
606.4597, 47.50993
606.9418, 50.42804
607.4240, 52.87125
607.9061, 54.83276
608.3882, 56.90434
608.8703, 59.56569
609.3524, 62.83813
609.8345, 67.26691
610.3167, 73.27530
610.7988, 79.39581
611.2809, 85.06435
611.7630, 90.33646
612.2451, 95.11401
612.7272, 99.14760
613.2094, 103.7728
613.6915, 109.8750
614.1736, 116.7592
614.6557, 123.3445
615.1378, 129.7183
615.6199, 136.8339
616.1021, 145.2773
616.5842, 154.7575
617.0663, 164.3124
617.5484, 173.7996
618.0305, 183.7803
618.5126, 194.5105
618.9948, 205.4375
619.4769, 216.0910
619.9590, 226.6728
620.4411, 237.5703
620.9232, 249.0433
621.4053, 260.9398
621.8875, 273.0258
622.3696, 285.2828
622.8517, 298.0302
623.3338, 311.4159
623.8159, 325.0737
624.2980, 338.8892
624.7802, 352.7365
625.2623, 366.1196
625.7444, 379.4756
626.2265, 391.4284
626.7086, 401.0536
627.1907, 409.1786
627.6729, 417.2051
628.1550, 425.2463
628.6371, 431.8409
629.1192, 435.6244
629.6013, 436.8744
630.0834, 437.7851
630.5656, 439.6113
631.0477, 438.6855
631.5298, 433.6398
632.0119, 426.7710
632.4940, 419.9027
632.9761, 412.9338
633.4583, 404.3241
633.9404, 392.5472
634.4225, 379.1341
634.9046, 366.7640
635.3867, 355.1775
635.8688, 342.1071
636.3510, 326.2454
636.8331, 309.8371
637.3152, 295.5443
637.7973, 283.5401
638.2794, 271.2610
638.7615, 257.9309
639.2437, 245.1254
639.7258, 233.8649
640.2079, 223.2771
640.6900, 212.1456
641.1721, 200.2272
641.6542, 188.5393
642.1364, 178.1248
642.6185, 168.8425
643.1006, 159.4344
643.5827, 149.2879
644.0648, 140.7139
644.5469, 135.7347
645.0291, 131.7660
645.5112, 126.5619
645.9933, 119.9780
646.4754, 113.1588
646.9575, 106.2426
647.4396, 99.69507
647.9218, 93.86049
648.4039, 88.66003
648.8860, 84.30423
649.3681, 80.85318
649.8502, 77.86301
650.3323, 74.72079
650.8145, 71.35318
651.2966, 67.62152
651.7787, 62.78102
652.2608, 58.45639
652.7429, 55.21252
653.2250, 52.74385
653.7072, 50.84070
654.1893, 49.39110
654.6714, 47.93309
655.1535, 45.88869
655.6356, 43.48981
656.1177, 41.61172
656.5999, 40.36665
657.0820, 38.88657
657.5641, 36.60730
658.0462, 34.01933
658.5283, 32.07193
659.0104, 30.90424
659.4926, 29.53976
659.9747, 27.49330
660.4568, 25.55238
660.9389, 24.33841
661.4210, 23.59053
661.9031, 22.65413
662.3853, 21.28027
662.8674, 19.98361
663.3495, 19.66301
663.8316, 20.42366
664.3137, 20.39600
664.7958, 19.13530
665.2780, 17.89366
665.7601, 17.20741
666.2422, 16.84453
666.7243, 16.62601
667.2064, 16.55927
667.6885, 16.38000
668.1707, 15.79510
668.6528, 15.14799
669.1349, 14.94325
669.6170, 15.07730
670.0991, 14.94933
670.5812, 14.25443
671.0634, 13.42479
671.5455, 13.31534
672.0276, 14.36946
672.5097, 14.46255
672.9918, 12.82913
673.4739, 11.04990
673.9561, 9.381226
674.4382, 7.937836
674.9203, 6.843445
675.4024, 6.134415
675.8845, 5.650970
676.3666, 5.501282
676.8488, 5.425903
677.3309, 4.682205
677.8130, 3.257828
678.2951, 2.120605
678.7772, 1.760620
679.2593, 1.869675
679.7415, 1.908325
680.2236, 1.890594
680.7057, 1.736603
681.1878, 1.524109
681.6699, 1.093094
682.1520, 0.1015780
682.6342, 1.390381
683.1163, 1.625916
683.5984, 0.5228120
684.0805, 0.8594360
684.5626, 1.389175
685.0447, 1.204926
685.5269, 1.080688
686.0090, 1.061417
686.4911, 0.8596340
686.9732, 0.1479030
687.4553, 0.6277470
687.9374, 0.6463930
688.4196, 0.1725460
688.9017, 0.8249360
689.3838, 1.135834
689.8659, 1.264465
690.3480, 1.326187
690.8301, 1.268188
691.3123, 0.7121730
691.7944, 0.3587490
692.2765, 0.9297180
692.7586, 0.4977260
693.2407, 3.708145
693.7228, 5.644852
694.2050, 6.263077
694.6871, 5.708389
695.1692, 2.999527
695.6513, 0.1079860
696.1334, 1.788651
696.6155, 2.024811
697.0977, 1.740570
697.5798, 0.5468440
698.0619, 0.4452970
698.5440, 0.1207280
699.0261, 0.9573060
699.5082, 1.588028
699.9904, 1.440460
700.4725, 1.061035
700.9546, 1.042435
701.4367, 1.354630
701.9188, 1.542297
702.4009, 1.537659
702.8831, 1.541290
703.3652, 1.594681
703.8473, 1.682251
704.3294, 2.045792
704.8115, 2.538040
705.2936, 2.309052
705.7758, 0.4132230
706.2579, 1.735367
706.7400, 3.134933
707.2221, 3.880417
707.7042, 4.009933
708.1863, 3.579483
708.6685, 3.217896
709.1506, 3.508759
709.6327, 4.376297
710.1148, 5.241714
710.5969, 5.907883
711.0790, 6.940353
711.5612, 8.971985
712.0433, 10.88611
712.5254, 11.86082
713.0075, 12.09393
713.4896, 12.29083
713.9717, 12.65990
714.4539, 13.19928
714.9360, 14.11256
715.4181, 15.15733
715.9002, 15.48792
716.3823, 15.04709
716.8644, 15.26990
717.3466, 17.36842
717.8287, 20.69585
718.3108, 22.81830
718.7929, 22.60199
719.2750, 23.32268
719.7571, 26.08421
720.2393, 28.73177
720.7214, 29.65800
721.2035, 29.80322
721.6856, 31.23296
722.1677, 34.85591
722.6498, 38.54288
723.1320, 40.08055
723.6141, 40.54886
724.0962, 42.18022
724.5783, 45.11209
725.0604, 48.38588
725.5425, 51.57452
726.0247, 54.52208
726.5068, 56.71593
726.9889, 57.05327
727.4710, 60.04988
727.9531, 68.61957
728.4352, 76.46019
728.9174, 80.96199
729.3995, 83.78136
729.8816, 86.92671
730.3637, 90.85335
730.8458, 95.01540
731.3279, 99.30676
731.8101, 103.4738
732.2922, 106.9542
732.7743, 109.8441
733.2564, 112.8157
733.7385, 116.1248
734.2206, 119.5403
734.7028, 122.8202
735.1849, 125.9864
735.6670, 128.6673
736.1491, 130.4971
736.6312, 132.2804
737.1133, 134.9129
737.5955, 137.0184
738.0776, 137.3539
738.5597, 135.9438
739.0418, 133.5866
739.5239, 130.0260
740.0060, 126.4677
740.4882, 124.9231
740.9703, 124.5782
741.4524, 122.7749
741.9345, 118.9416
742.4166, 114.0497
742.8987, 108.7464
743.3809, 103.2575
743.8630, 98.75171
744.3451, 95.86455
744.8272, 92.79935
745.3093, 89.45439
745.7914, 85.91533
746.2736, 81.97421
746.7557, 77.93410
747.2378, 74.49669
747.7199, 72.05978
748.2020, 69.51086
748.6841, 65.45599
749.1663, 60.92741
749.6484, 57.68912
750.1305, 55.80473
750.6126, 54.84459
751.0947, 54.60672
751.5768, 54.35143
752.0590, 52.66978
752.5411, 49.13080
753.0232, 46.16583
753.5053, 43.56735
753.9874, 41.70750
754.4695, 41.75572
754.9517, 42.10373
755.4338, 40.67821
755.9159, 37.32471
756.3980, 34.63538
756.8801, 34.25201
757.3622, 34.65886
757.8444, 34.85295
758.3265, 34.65730
758.8086, 33.45633
759.2907, 31.15761
759.7728, 28.68906
760.2549, 26.94569
760.7371, 25.85556
761.2192, 25.05664
761.7013, 24.67068
762.1834, 24.20979
762.6655, 23.38133
763.1476, 22.71843
763.6298, 22.90245
764.1119, 23.53389
764.5940, 23.62614
765.0761, 22.84181
765.5582, 21.77802
766.0403, 20.26523
766.5225, 18.92912
767.0046, 18.85321
767.4867, 19.68362
767.9688, 19.86238
768.4509, 18.57716
768.9330, 16.71626
769.4152, 15.76233
769.8973, 15.74043
770.3794, 15.76958
770.8615, 15.85725
771.3436, 15.93942
771.8257, 16.02611
772.3079, 16.06335
772.7900, 15.95976
773.2721, 15.70743
773.7542, 15.44824
774.2363, 14.77661
774.7184, 14.57516
775.2006, 15.80666
775.6827, 17.51683
776.1648, 18.46846
776.6469, 18.45737
777.1290, 17.92056
777.6111, 16.91132
778.0933, 16.12630
778.5754, 17.34047
779.0575, 20.42813
779.5396, 22.95490
780.0217, 24.46532
780.5038, 25.12698
780.9860, 24.86926
781.4681, 23.99568
781.9502, 23.71034
782.4323, 24.05977
782.9144, 24.85651
783.3965, 26.39046
783.8787, 28.08884
784.3608, 29.91873
784.8429, 31.52843
785.3250, 32.23766
785.8071, 31.83023
786.2892, 31.52750
786.7714, 32.46759
787.2535, 34.18655
787.7356, 36.11978
788.2177, 38.07993
788.6998, 39.13048
789.1819, 38.83992
789.6641, 38.37653
790.1462, 39.35933
790.6283, 41.78171
791.1104, 42.85732
791.5925, 41.23766
792.0746, 40.32634
792.5568, 41.22176
793.0389, 42.52727
793.5210, 43.18884
794.0031, 43.43057
794.4852, 44.25237
794.9673, 46.45380
795.4495, 48.30182
795.9316, 48.08057
796.4137, 47.25346
796.8958, 48.08540
797.3779, 50.27193
797.8600, 51.64778
798.3422, 51.06985
798.8243, 49.58044
799.3064, 48.84036
799.7885, 48.87828
800.2706, 48.91998
800.7527, 48.83186
801.2349, 49.21475
801.7170, 50.96887
802.1991, 52.71695
802.6812, 52.15247
803.1633, 49.27483
803.6454, 47.27034
804.1276, 47.21021
804.6097, 47.12395
805.0918, 46.08810
805.5739, 44.82068
806.0560, 44.42450
806.5381, 44.63763
807.0203, 43.91156
807.5024, 41.09108
807.9845, 37.72702
808.4666, 35.93626
808.9487, 35.44908
809.4308, 35.44620
809.9130, 35.83847
810.3951, 35.78711
810.8772, 34.76608
811.3593, 33.10086
811.8414, 31.35062
812.3235, 29.24451
812.8057, 28.05547
813.2878, 29.18745
813.7699, 29.46667
814.2520, 27.08736
814.7341, 24.09450
815.2162, 22.70398
815.6984, 22.96843
816.1805, 23.12428
816.6626, 22.24732
817.1447, 21.21983
817.6268, 20.94075
818.1089, 20.83449
818.5911, 19.83894
819.0732, 17.95094
819.5553, 16.04608
820.0374, 14.67139
820.5195, 13.70537
821.0016, 12.89449
821.4838, 12.23570
821.9659, 11.96399
822.4480, 12.37743
822.9301, 12.15649
823.4122, 10.05847
823.8943, 7.435600
824.3765, 6.925163
824.8586, 9.161766
825.3407, 10.14500
825.8228, 8.742783
826.3049, 7.284897
826.7870, 6.463257
827.2692, 6.043762
827.7513, 5.804604
828.2334, 5.691605
828.7155, 5.715057
829.1976, 5.997253
829.6797, 6.196609
830.1619, 5.621918
830.6440, 4.734474
831.1261, 4.957703
831.6082, 6.284477
832.0903, 6.976334
832.5724, 5.966843
833.0546, 4.117516
833.5367, 3.217361
834.0188, 3.512794
834.5009, 2.935883
834.9830, 0.9470140
835.4651, 0.7802810
835.9473, 1.936134
836.4294, 2.443909
836.9115, 1.699463
837.3936, 0.1828920
837.8757, 0.9487530
838.3578, 0.8924790
838.8400, 2.478485
839.3221, 2.475456
839.8042, 1.896988
840.2863, 1.899643
840.7684, 2.339661
841.2505, 2.199135
841.7327, 0.9148030
842.2148, 0.5686870
842.6969, 1.300606
843.1790, 1.309563
843.6611, 0.2270970
844.1432, 1.803078
844.6254, 2.674408
845.1075, 1.365608
845.5896, 0.7104030
846.0717, 1.699814
846.5538, 1.596848
847.0359, 1.022919
847.5181, 0.3382340
848.0002, 1.554611
848.4823, 2.982071
848.9644, 3.691612
849.4465, 2.512733
849.9286, 0.1160660
850.4108, 1.434029
850.8929, 1.357674
851.3750, 1.441971
851.8571, 3.008636
852.3392, 4.377403
852.8214, 3.723557
853.3035, 1.897194
853.7856, 0.7335430
854.2677, 0.8119740
854.7498, 1.418907
855.2319, 2.190857
855.7141, 2.848038
856.1962, 2.501640
856.6783, 1.333572
857.1604, 0.6123200
857.6425, 0.6568980
858.1246, 1.174202
858.6068, 2.045753
859.0889, 3.047768
859.5710, 3.273918
860.0531, 2.308937
860.5352, 1.662621
861.0173, 1.492477
861.4995, 1.513298
861.9816, 1.767212
862.4637, 2.045502
862.9458, 1.927773
863.4279, 1.336739
863.9100, 1.279793
864.3922, 2.274467
864.8743, 3.564240
865.3564, 5.296875
865.8385, 6.761383
866.3206, 6.741127
866.8027, 5.522202
867.2849, 4.749100
867.7670, 5.416336
868.2491, 6.702324
868.7312, 7.585258
869.2133, 8.224838
869.6954, 9.364883
870.1776, 10.94799
870.6597, 11.54765
871.1418, 10.47279
871.6239, 8.496094
872.1060, 6.504074
872.5881, 4.510529
873.0703, 3.732079
873.5524, 4.472404
874.0345, 5.704430
874.5166, 7.814056
874.9987, 9.667274
875.4808, 10.14809
875.9630, 9.651520
876.4451, 9.330048
876.9272, 9.471603
877.4093, 9.310844
877.8914, 8.632225
878.3735, 7.674835
878.8557, 5.970551
879.3378, 4.343689
879.8199, 4.313965
880.3020, 6.031883
880.7841, 7.591446
881.2662, 7.659660
881.7484, 6.922432
882.2305, 5.816071
882.7126, 4.658180
883.1947, 4.318062
883.6768, 4.853928
884.1589, 5.658684
884.6411, 6.403847
885.1232, 6.788094
885.6053, 5.858459
886.0874, 3.546638
886.5695, 2.729927
887.0516, 3.827560
887.5338, 4.962914
888.0159, 5.433014
888.4980, 5.631248
888.9801, 6.143150
889.4622, 6.964607
889.9443, 6.913536
890.4265, 5.346413
890.9086, 3.845184
891.3907, 2.542641
891.8728, 1.352585
892.3549, 0.2267990
892.8370, 1.625786
893.3192, 1.661171
893.8013, 8.6433001E-02
894.2834, 2.065018
894.7655, 4.433655
895.2476, 6.031105
895.7297, 5.127029
896.2119, 2.782700
896.6940, 0.7126920
897.1761, 0.4996110
897.6582, 0.6820140
898.1403, 0.3924560
898.6224, 1.975426
899.1046, 3.296074
899.5867, 4.231285
900.0688, 3.618385
900.5509, 1.347702
901.0330, 0.6176450
901.5151, 1.380058
901.9973, 1.543556
902.4794, 1.867477
902.9615, 2.225685
903.4436, 1.390800
903.9257, 1.389450
904.4078, 3.021835
904.8900, 2.159119
905.3721, 0.8238450
905.8542, 0.5782390
906.3363, 1.093506
906.8184, 1.438530
907.3005, 1.577202
907.7827, 2.043533
908.2648, 3.108437
908.7469, 4.054031
909.2290, 4.102394
909.7111, 4.115669
910.1932, 5.698196
910.6754, 8.653244
911.1575, 10.35138
911.6396, 8.526611
912.1217, 6.451241
912.6038, 6.920303
913.0859, 8.687302
913.5681, 10.38239
914.0502, 11.67541
914.5323, 12.16581
915.0143, 11.68504
915.4965, 10.97786
915.9786, 10.95565
916.4607, 11.41715
916.9428, 11.85738
917.4249, 12.22972
917.9070, 11.48230
918.3892, 9.192665
918.8713, 7.759628
919.3534, 9.297508
919.8355, 12.75588
920.3176, 14.96209
920.7997, 15.77167
921.2819, 15.85112
921.7640, 14.83533
922.2461, 13.83263
922.7282, 13.52559
923.2103, 13.25059
923.6924, 11.94965
924.1746, 9.713844
924.6567, 8.262764
925.1388, 8.629570
925.6209, 8.426643
926.1030, 6.309273
926.5851, 4.375031
927.0673, 4.168060
927.5494, 5.138176
928.0315, 6.244209
928.5136, 7.246796
928.9957, 8.075737
929.4778, 8.710930
929.9600, 9.140121
930.4421, 9.793854
930.9242, 10.01915
931.4063, 8.044983
931.8884, 4.407875
932.3705, 2.276917
932.8527, 3.562103
933.3348, 6.003471
933.8169, 6.743416
934.2990, 6.306145
934.7811, 5.999878
935.2632, 5.891983
935.7454, 5.942337
936.2275, 6.138168
936.7096, 6.433289
937.1917, 6.805367
937.6738, 7.206604
938.1559, 7.480621
938.6381, 7.645042
939.1202, 7.360100
939.6023, 6.207924
940.0844, 5.964409
940.5665, 7.923546
941.0486, 10.77555
941.5308, 12.44638
942.0129, 12.82973
942.4950, 13.23531
942.9771, 13.38690
943.4592, 13.98461
943.9413, 15.89031
944.4235, 17.50864
944.9056, 17.29182
945.3877, 16.18559
945.8698, 16.42236
946.3519, 18.67038
946.8340, 20.45865
947.3162, 20.57935
947.7983, 20.75268
948.2804, 22.44468
948.7625, 24.29557
949.2446, 24.39020
949.7267, 23.01270
950.2089, 22.03986
950.6910, 22.14507
951.1731, 23.25675
951.6552, 26.91460
952.1373, 30.38048
952.6194, 29.13692
953.1016, 25.03550
953.5837, 23.08842
954.0658, 24.58796
954.5479, 27.23434
955.0300, 29.53369
955.5121, 31.06815
955.9943, 30.42801
956.4764, 28.32048
956.9585, 27.83863
957.4406, 29.18954
957.9227, 30.64053
958.4048, 31.46171
958.8870, 31.04910
959.3691, 28.10246
959.8512, 23.23363
960.3333, 21.78043
960.8154, 24.39716
961.2975, 25.52686
961.7797, 23.86456
962.2618, 21.60715
962.7439, 20.02021
963.2260, 19.01576
963.7081, 18.49701
964.1902, 18.65443
964.6724, 18.25976
965.1545, 16.98205
965.6366, 15.69924
966.1187, 14.36735
966.6008, 13.35642
967.0829, 13.27401
967.5651, 13.68502
968.0472, 13.09303
968.5293, 10.78936
969.0114, 9.144630
969.4935, 9.596191
969.9756, 9.442734
970.4578, 6.430344
970.9399, 2.926098
971.4220, 1.634163
971.9041, 2.437080
972.3862, 3.380489
972.8683, 3.874996
973.3505, 4.242340
973.8326, 5.176487
974.3147, 5.576797
974.7968, 3.340649
975.2789, 0.2785800
975.7610, 8.7031998E-02
976.2432, 3.152122
976.7253, 6.035713
977.2074, 6.453754
977.6895, 5.816811
978.1716, 5.796753
978.6537, 5.715782
979.1359, 3.832222
979.6180, 0.7032390
980.1001, 1.252560
980.5822, 1.169117
981.0643, 0.1718030
981.5464, 0.7412950
982.0286, 1.620102
982.5107, 2.695446
982.9928, 3.855057
983.4749, 4.475471
983.9570, 4.499565
984.4391, 4.527958
984.9213, 4.898342
985.4034, 5.180145
985.8855, 4.674191
986.3676, 3.490044
986.8497, 2.490486
987.3318, 1.626568
987.8140, 1.614170
988.2961, 2.711584
988.7782, 4.164841
989.2603, 5.609472
989.7424, 6.876411
990.2245, 7.646856
990.7067, 7.927973
991.1888, 7.547909
991.6709, 6.025917
992.1530, 5.028061
992.6351, 5.199505
993.1172, 5.601263
993.5994, 5.400000
994.0815, 4.900856
994.5636, 5.133894
995.0457, 6.697992
995.5278, 7.299889
996.0099, 6.129938
996.4921, 5.060320
996.9742, 4.285147
997.4563, 4.025627
997.9384, 4.647499
998.4205, 5.945559
998.9026, 7.337143
999.3848, 9.326704
999.8669, 9.914770
1000.349, 6.755310
1000.831, 4.401020
1001.313, 6.268797
1001.795, 9.216688
1002.277, 9.229570
1002.760, 6.789080
1003.242, 5.815042
1003.724, 8.261351
1004.206, 10.49480
1004.688, 10.08838
1005.170, 9.585037
1005.652, 12.10114
1006.134, 15.23386
1006.617, 14.68567
1007.099, 10.48957
1007.581, 6.786434
1008.063, 5.539803
1008.545, 5.599498
1009.027, 7.013093
1009.509, 8.471854
1009.991, 7.890661
1010.473, 6.236453
1010.956, 6.106664
1011.438, 8.016339
1011.920, 9.651374
1012.402, 8.926036
1012.884, 7.426718
1013.366, 8.451510
1013.848, 10.46612
1014.330, 9.528565
1014.813, 6.098595
1015.295, 4.099173
1015.777, 4.915530
1016.259, 6.643502
1016.741, 7.493212
1017.223, 7.733164
1017.705, 8.073324
1018.187, 8.263494
1018.669, 7.706680
1019.152, 6.579987
1019.634, 5.882766
1020.116, 5.945132
1020.598, 5.699758
1021.080, 3.805387
1021.562, 1.253283
1022.044, 1.544578
1022.526, 4.245036
1023.008, 4.057944
1023.491, 0.4565930
1023.973, 0.9067340
1024.455, 2.572513
1024.937, 6.854269
1025.419, 7.075418
1025.901, 4.370000
1026.383, 4.064898
1026.865, 6.316144
1027.348, 8.781347
1027.830, 11.40340
1028.312, 13.10919
1028.794, 13.22465
1029.276, 12.88668
1029.758, 13.68626
1030.240, 15.30828
1030.722, 14.95834
1031.204, 11.89653
1031.687, 10.30460
1032.169, 10.95751
1032.651, 12.02288
1033.133, 12.83423
1033.615, 13.32328
1034.097, 13.35421
1034.579, 12.95577
1035.061, 12.54978
1035.544, 11.96609
1036.026, 11.84008
1036.508, 12.34882
1036.990, 13.08434
1037.472, 13.84196
1037.954, 14.74103
1038.436, 16.04588
1038.918, 17.74172
1039.401, 19.22424
1039.883, 21.38847
1040.365, 21.58632
1040.847, 17.66535
1041.329, 14.41131
1041.811, 14.04292
1042.293, 15.37569
1042.775, 17.31116
1043.257, 19.80937
1043.740, 21.39454
1044.222, 22.24902
1044.704, 21.91038
1045.186, 18.95851
1045.668, 16.42859
1046.150, 15.17376
1046.632, 15.35097
1047.114, 18.11860
1047.596, 23.11866
1048.079, 25.59534
1048.561, 23.16490
1049.043, 21.20444
1049.525, 20.44675
1050.007, 20.15755
1050.489, 19.84710
1050.971, 19.89199
1051.453, 21.12078
1051.936, 23.33536
1052.418, 24.69489
1052.900, 24.43029
1053.382, 24.11477
1053.864, 24.05036
1054.346, 23.99663
1054.828, 23.89660
1055.310, 23.69032
1055.792, 23.40784
1056.275, 22.98747
1056.757, 22.05091
1057.239, 19.74040
1057.721, 18.52714
1058.203, 19.65554
1058.685, 21.39988
1059.167, 23.69377
1059.649, 25.47740
1060.131, 25.67688
1060.614, 24.27867
1061.096, 21.59190
1061.578, 16.90336
1062.060, 13.09757
1062.542, 10.88091
1063.024, 10.15512
1063.506, 12.10396
1063.988, 14.64222
1064.471, 15.52034
1064.953, 14.77560
1065.435, 13.55963
1065.917, 12.12618
1066.399, 10.44614
1066.881, 8.445900
1067.363, 6.212799
1067.845, 3.724968
1068.328, 1.125259
1068.810, 2.341667
1069.292, 5.713219
1069.774, 5.681870
1070.256, 0.4227680
1070.738, 2.917389
1071.220, 1.351189
1071.702, 5.337662
1072.184, 2.876961
1072.667, 0.9551090
1073.149, 0.1991580
1073.631, 3.857353
1074.113, 6.639206
1074.595, 6.951645
1075.077, 5.854073
1075.559, 2.839050
1076.041, 0.2747570
1076.523, 2.984390
1077.006, 4.859047
1077.488, 5.091957
1077.970, 4.313606
1078.452, 3.800148
1078.934, 3.841553
1079.416, 4.239059
1079.898, 4.925461
1080.380, 5.984085
1080.862, 8.311050
1081.345, 10.52344
1081.827, 10.62833
1082.309, 9.754311
1082.791, 9.945267
1083.273, 11.54594
1083.755, 13.27382
1084.237, 14.72168
1084.719, 15.98952
1085.202, 17.20182
1085.684, 18.17306
1086.166, 18.52218
1086.648, 18.64742
1087.130, 19.35627
1087.612, 20.62492
1088.094, 21.26669
1088.576, 20.30366
1089.058, 19.71832
1089.541, 20.47916
1090.023, 21.78815
1090.505, 23.20466
1090.987, 24.77490
1091.469, 27.53596
1091.951, 30.73571
1092.433, 30.52312
1092.915, 23.61290
1093.397, 19.43355
1093.880, 24.33664
1094.362, 29.98013
1094.844, 31.91260
1095.326, 31.65459
1095.808, 30.66285
1096.290, 29.27774
1096.772, 27.58608
1097.254, 25.38560
1097.737, 24.07957
1098.219, 25.13372
1098.701, 25.94131
1099.183, 25.07510
1099.665, 23.69988
1100.147, 22.64124
1100.629, 21.99513
1101.111, 21.69684
1101.594, 21.71656
1102.076, 22.29342
1102.558, 24.57644
1103.040, 25.92602
1103.522, 25.05054
1104.004, 23.38589
1104.486, 20.99937
1104.968, 18.97035
1105.450, 19.56083
1105.932, 22.82650
1106.415, 24.33076
1106.897, 20.67670
1107.379, 19.03102
1107.861, 23.06248
1108.343, 26.79442
1108.825, 26.89637
1109.307, 25.16278
1109.789, 23.29190
1110.272, 21.60276
1110.754, 21.27000
1111.236, 23.51705
1111.718, 24.93468
1112.200, 25.04111
1112.682, 24.50690
1113.164, 22.77737
1113.646, 21.16321
1114.129, 20.90179
1114.611, 21.70961
1115.093, 22.87919
1115.575, 25.36916
1116.057, 25.11051
1116.539, 18.88132
1117.021, 14.78072
1117.503, 15.27300
1117.985, 17.31367
1118.468, 20.22848
1118.950, 22.63612
1119.432, 21.28446
1119.914, 15.64927
1120.396, 12.84161
1120.878, 14.36043
1121.360, 15.47011
1121.842, 16.07034
1122.324, 15.35114
1122.807, 12.11499
1123.289, 8.411514
1123.771, 6.436478
1124.253, 6.235992
1124.735, 8.876755
1125.217, 16.28822
1125.699, 19.53503
1126.181, 16.80934
1126.664, 14.07703
1127.146, 13.65686
1127.628, 13.35226
1128.110, 10.92924
1128.592, 7.536316
1129.074, 7.378708
1129.556, 10.85919
1130.038, 12.44237
1130.521, 12.00832
1131.003, 10.57121
1131.485, 8.047394
1131.967, 5.469421
1132.449, 3.551392
1132.931, 2.392654
1133.413, 2.170639
1133.895, 2.832001
1134.377, 4.231140
1134.859, 6.244659
1135.342, 6.359070
1135.824, 4.358292
1136.306, 4.435028
1136.788, 8.251068
1137.270, 10.83925
1137.752, 6.264633
1138.234, 1.643173
1138.716, 3.399246
1139.199, 0.1586910
1139.681, 3.750565
1140.163, 7.979874
1140.645, 11.38895
1141.127, 13.45705
1141.609, 14.43507
1142.091, 14.27982
1142.573, 14.02220
1143.056, 16.36194
1143.538, 18.93764
1144.020, 15.50189
1144.502, 8.629425
1144.984, 4.981689
1145.466, 5.130585
1145.948, 6.320313
1146.430, 7.374969
1146.912, 8.971191
1147.395, 12.26025
1147.877, 15.68008
1148.359, 17.54225
1148.841, 18.43625
1149.323, 19.38708
1149.805, 20.04327
1150.287, 18.77217
1150.769, 15.72275
1151.251, 13.93327
1151.734, 15.56975
1152.216, 17.50298
1152.698, 16.73523
1153.180, 16.22211
1153.662, 20.48254
1154.144, 25.12070
1154.626, 22.63252
1155.108, 15.00822
1155.591, 11.40109
1156.073, 14.92804
1156.555, 19.05618
1157.037, 22.70549
1157.519, 24.89578
1158.001, 24.46779
1158.483, 23.18446
1158.965, 21.45821
1159.448, 20.25085
1159.930, 21.79683
1160.412, 26.17055
1160.894, 28.02100
1161.376, 23.51353
1161.858, 21.59669
1162.340, 25.24826
1162.822, 28.76443
1163.304, 30.38713
1163.786, 30.65273
1164.269, 29.63910
1164.751, 27.75977
1165.233, 26.30476
1165.715, 25.01003
1166.197, 25.50215
1166.679, 28.65051
1167.161, 31.35124
1167.643, 33.65054
1168.126, 33.19948
1168.608, 27.39172
1169.090, 20.94862
1169.572, 21.55373
1170.054, 27.83879
1170.536, 29.03358
1171.018, 24.88174
1171.500, 21.48824
1171.983, 19.36073
1172.465, 17.68851
1172.947, 16.16158
1173.429, 15.87329
1173.911, 17.96402
1174.393, 20.84148
1174.875, 21.79297
1175.357, 20.90501
1175.839, 17.91083
1176.322, 13.40362
1176.804, 9.058609
1177.286, 5.627274
1177.768, 5.939453
1178.250, 11.12296
1178.732, 15.97318
1179.214, 15.40533
1179.696, 11.95865
1180.178, 7.041962
1180.661, 2.848419
1181.143, 4.084076
1181.625, 8.484482
1182.107, 10.40114
1182.589, 9.139862
1183.071, 8.210907
1183.553, 9.270142
1184.035, 10.92854
1184.518, 13.05644
1185.000, 14.62253
1185.482, 14.08156
1185.964, 13.26971
1186.446, 14.65260
1186.928, 17.22649
1187.410, 18.36839
1187.892, 17.59599
1188.375, 16.33865
1188.857, 13.97098
1189.339, 12.58702
1189.821, 13.71837
1190.303, 14.60248
1190.785, 12.82466
1191.267, 11.03514
1191.749, 13.71883
1192.231, 18.70786
1192.714, 16.93661
1193.196, 5.287430
1193.678, 0.9998170
1194.160, 0.3295290
1194.642, 1.641037
1195.124, 4.435150
1195.606, 6.563293
1196.088, 7.122406
1196.570, 5.930832
1197.053, 2.317444
1197.535, 2.721695
1198.017, 3.041092
1198.499, 1.188293
1198.981, 2.580917
1199.463, 0.8306120
1199.945, 0.8184360
1200.427, 3.868729
1200.910, 6.817413
1201.392, 7.464508
1201.874, 7.147278
1202.356, 8.281418
1202.838, 9.518051
1203.320, 7.302429
1203.802, 3.203873
1204.284, 0.5006870
1204.766, 0.5540470
1205.249, 0.4031830
1205.731, 0.6143340
1206.213, 1.258636
1206.695, 0.3338620
1207.177, 0.1715240
1207.659, 2.559479
1208.141, 5.039352
1208.623, 3.484085
1209.105, 0.3395540
1209.588, 1.125351
1210.070, 1.160812
1210.552, 1.762726
1211.034, 3.756241
1211.516, 4.467209
1211.998, 3.788284
1212.480, 0.9906460
1212.962, 6.474533
1213.445, 13.27365
1213.927, 16.33861
1214.409, 17.54376
1214.891, 18.86383
1215.373, 20.04297
1215.855, 19.54439
1216.337, 16.00854
1216.819, 17.39899
1217.302, 25.69237
1217.784, 31.04454
1218.266, 31.06166
1218.748, 29.57367
1219.230, 28.45119
1219.712, 28.04214
1220.194, 28.86729
1220.676, 30.62276
1221.158, 33.12079
1221.641, 35.77177
1222.123, 34.34288
1222.605, 29.67647
1223.087, 28.56480
1223.569, 31.95981
1224.051, 33.42142
1224.533, 29.24997
1225.015, 24.93806
1225.497, 26.27884
1225.980, 29.42314
1226.462, 30.68768
1226.944, 30.29895
1227.426, 27.25014
1227.908, 23.49431
1228.390, 23.34439
1228.872, 26.81401
1229.354, 28.85684
1229.837, 26.97185
1230.319, 25.76947
1230.801, 27.93863
1231.283, 28.79774
1231.765, 24.28137
1232.247, 19.86932
1232.729, 20.30037
1233.211, 23.40213
1233.693, 24.71777
1234.176, 23.94356
1234.658, 23.69109
1235.140, 23.97595
1235.622, 23.89919
1236.104, 22.86105
1236.586, 22.19934
1237.068, 22.92421
1237.550, 23.87897
1238.032, 24.89244
1238.515, 25.84727
1238.997, 27.42169
1239.479, 28.76210
1239.961, 25.45634
1240.443, 20.17393
1240.925, 16.77522
1241.407, 15.47223
1241.889, 18.45340
1242.372, 25.21556
1242.854, 27.67007
1243.336, 20.03079
1243.818, 11.55130
1244.300, 11.93683
1244.782, 14.52124
1245.264, 12.25539
1245.746, 8.810638
1246.229, 8.964111
1246.711, 11.55281
1247.193, 13.61832
1247.675, 14.63660
1248.157, 15.20883
1248.639, 14.99864
1249.121, 15.33409
1249.603, 17.60355
1250.085, 18.86411
1250.568, 17.44580
1251.050, 15.69936
1251.532, 14.90085
1252.014, 14.99663
1252.496, 16.09932
1252.978, 18.06343
1253.460, 19.40948
1253.942, 20.25482
1254.424, 19.36780
1254.907, 16.51112
1255.389, 16.75549
1255.871, 21.39807
1256.353, 22.82823
1256.835, 15.89046
1257.317, 7.254974
1257.799, 5.184830
1258.281, 7.368134
1258.764, 12.27434
1259.246, 16.81177
1259.728, 13.41510
1260.210, 5.559784
1260.692, 2.591843
1261.174, 5.268280
1261.656, 7.081741
1262.138, 5.365494
1262.620, 3.266388
1263.103, 1.164871
1263.585, 0.4653930
1264.067, 3.879944
1264.549, 6.698364
1265.031, 4.282318
1265.513, 0.1876370
1265.995, 0.1923370
1266.477, 2.401733
1266.959, 2.205414
1267.442, 0.0000000E+00
##END=



