##NAMES=Kyanite
##RRUFFID=R100159
##IDEAL CHEMISTRY=Al_2_OSiO_4_
##LOCALITY=Tanzania
##OWNER=RRUFF
##SOURCE=William W. Pinch
##DESCRIPTION=Reddish-orange cut gemstone
##STATUS=The identification of this mineral has been confirmed by single-crystal X-ray diffraction.
##URL=rruff.info/R100159
132.9794, 0.0000000E+00
133.4615, 0.7985530
133.9436, 1.455914
134.4257, 0.7879100
134.9078, 0.5915830
135.3899, 3.448837
135.8721, 5.445862
136.3542, 5.062477
136.8363, 2.606697
137.3184, 1.5491000E-02
137.8005, 1.169769
138.2826, 0.8229710
138.7648, 6.9579999E-03
139.2469, 1.231709
139.7290, 2.816536
140.2111, 4.328583
140.6932, 5.723625
141.1753, 7.162865
141.6575, 8.884079
142.1396, 11.21655
142.6217, 12.99296
143.1038, 13.90581
143.5859, 13.93745
144.0681, 13.66177
144.5502, 12.60278
145.0323, 11.66047
145.5144, 11.97398
145.9965, 14.37498
146.4786, 16.74644
146.9608, 18.53484
147.4429, 19.68524
147.9250, 20.64990
148.4071, 21.34415
148.8892, 21.88612
149.3713, 22.40301
149.8535, 22.33775
150.3356, 22.81639
150.8177, 24.15554
151.2998, 26.53688
151.7819, 29.39025
152.2640, 33.16470
152.7462, 37.38250
153.2283, 41.10034
153.7104, 44.06670
154.1925, 46.68906
154.6746, 49.04651
155.1567, 50.86642
155.6389, 52.84177
156.1210, 55.20808
156.6031, 57.80917
157.0852, 60.29142
157.5673, 62.98430
158.0495, 65.24904
158.5316, 66.78545
159.0137, 67.28564
159.4958, 67.38185
159.9779, 66.80735
160.4600, 65.86161
160.9422, 65.52297
161.4243, 66.42428
161.9064, 67.86730
162.3885, 69.38550
162.8706, 70.99109
163.3527, 72.54461
163.8349, 73.88627
164.3170, 75.09231
164.7991, 76.53079
165.2812, 78.88573
165.7633, 81.33214
166.2454, 83.10405
166.7276, 83.13012
167.2097, 83.18863
167.6918, 84.15683
168.1739, 86.01653
168.6560, 88.70530
169.1381, 93.30074
169.6203, 98.31660
170.1024, 100.6297
170.5845, 99.47911
171.0666, 97.62395
171.5487, 96.75957
172.0309, 96.80808
172.5130, 96.75584
172.9951, 95.71964
173.4772, 94.15926
173.9593, 92.78570
174.4414, 91.84629
174.9236, 91.23571
175.4057, 91.22646
175.8878, 91.83622
176.3699, 91.79642
176.8520, 89.62158
177.3341, 86.00886
177.8163, 82.45757
178.2984, 79.51471
178.7805, 77.05117
179.2626, 75.10107
179.7447, 73.74277
180.2268, 72.23372
180.7090, 69.54876
181.1911, 66.04871
181.6732, 62.86887
182.1553, 60.43452
182.6374, 58.68736
183.1195, 57.59279
183.6017, 57.15504
184.0838, 57.25778
184.5659, 58.15140
185.0480, 59.63185
185.5301, 60.72702
186.0123, 60.67499
186.4944, 59.84200
186.9765, 59.40041
187.4586, 59.45432
187.9407, 59.65335
188.4228, 59.56638
188.9050, 59.20111
189.3871, 58.64255
189.8692, 57.66309
190.3513, 56.43303
190.8334, 55.91141
191.3155, 56.45584
191.7977, 57.21933
192.2798, 56.79727
192.7619, 55.20599
193.2440, 53.36197
193.7261, 51.38982
194.2082, 49.38097
194.6904, 48.49113
195.1725, 49.05241
195.6546, 50.13675
196.1367, 49.95889
196.6188, 48.42033
197.1009, 47.04471
197.5831, 46.90613
198.0652, 47.99951
198.5473, 48.63722
199.0294, 48.63683
199.5115, 48.35323
199.9937, 48.30353
200.4758, 48.40025
200.9579, 48.55380
201.4400, 48.73523
201.9221, 48.98782
202.4042, 49.76006
202.8864, 51.14955
203.3685, 52.75941
203.8506, 53.95380
204.3327, 54.82193
204.8148, 55.32671
205.2969, 55.18619
205.7791, 54.17995
206.2612, 53.86266
206.7433, 54.68456
207.2254, 56.10222
207.7075, 56.56584
208.1896, 55.86981
208.6718, 54.48141
209.1539, 52.40097
209.6360, 49.35292
210.1181, 47.55740
210.6002, 47.54433
211.0823, 48.47739
211.5645, 48.07938
212.0466, 45.79007
212.5287, 43.50792
213.0108, 42.38548
213.4929, 42.82166
213.9750, 42.80441
214.4572, 42.03848
214.9393, 40.82860
215.4214, 40.04950
215.9035, 39.74513
216.3856, 39.78035
216.8678, 40.14728
217.3499, 41.01762
217.8320, 41.68222
218.3141, 42.07915
218.7962, 42.24545
219.2783, 42.16144
219.7605, 41.42079
220.2426, 41.14844
220.7247, 42.01291
221.2068, 44.35806
221.6889, 46.84488
222.1710, 49.46204
222.6532, 52.16962
223.1353, 54.80959
223.6174, 57.67900
224.0995, 60.04765
224.5816, 61.48734
225.0637, 61.68921
225.5459, 61.90752
226.0280, 62.73439
226.5101, 63.49127
226.9922, 61.96355
227.4743, 57.33893
227.9564, 51.71274
228.4386, 45.82555
228.9207, 39.27055
229.4028, 33.65024
229.8849, 28.93491
230.3670, 25.15825
230.8492, 22.41502
231.3313, 21.26370
231.8134, 20.33034
232.2955, 18.89345
232.7776, 16.39397
233.2597, 14.77438
233.7419, 14.37589
234.2240, 14.77449
234.7061, 14.88075
235.1882, 14.63940
235.6703, 14.19969
236.1524, 13.49174
236.6346, 11.91884
237.1167, 11.59006
237.5988, 13.37851
238.0809, 16.09616
238.5630, 16.75993
239.0451, 13.68291
239.5273, 11.07977
240.0094, 11.02562
240.4915, 15.42447
240.9736, 17.24287
241.4557, 15.22472
241.9378, 11.19756
242.4200, 9.006943
242.9021, 9.513245
243.3842, 10.49072
243.8663, 11.16998
244.3484, 11.52638
244.8306, 11.63361
245.3127, 11.35023
245.7948, 10.88878
246.2769, 10.69290
246.7590, 11.08032
247.2411, 11.18933
247.7233, 10.62550
248.2054, 9.107452
248.6875, 8.000519
249.1696, 7.523331
249.6517, 7.319656
250.1338, 6.781281
250.6160, 5.661819
251.0981, 4.660263
251.5802, 4.103195
252.0623, 4.179581
252.5444, 3.628204
253.0265, 1.916489
253.5087, 1.7364999E-02
253.9908, 0.5140380
254.4729, 1.170990
254.9550, 2.502365
255.4371, 2.738052
255.9192, 1.771439
256.4014, 0.4449770
256.8835, 1.717194
257.3656, 3.767227
257.8477, 4.418396
258.3298, 2.895264
258.8120, 1.741821
259.2941, 1.825928
259.7762, 3.279449
260.2583, 3.557907
260.7404, 2.007523
261.2225, 9.7198002E-02
261.7047, 0.5288540
262.1868, 0.6927190
262.6689, 1.715622
263.1510, 1.969955
263.6331, 1.493561
264.1152, 1.712341
264.5974, 3.070206
265.0795, 4.440872
265.5616, 4.592743
266.0437, 3.071487
266.5258, 1.863281
267.0079, 1.563644
267.4901, 1.972504
267.9722, 1.224182
268.4543, 1.183563
268.9364, 3.781967
269.4185, 5.306595
269.9006, 5.500854
270.3828, 5.681656
270.8649, 5.813263
271.3470, 6.104599
271.8291, 7.725143
272.3112, 11.07829
272.7933, 14.75696
273.2755, 17.68134
273.7576, 19.73401
274.2397, 21.82280
274.7218, 24.07448
275.2039, 26.59872
275.6860, 29.82262
276.1682, 33.98650
276.6503, 37.86461
277.1324, 40.84773
277.6145, 42.91422
278.0966, 43.65422
278.5787, 42.72678
279.0609, 40.77885
279.5430, 38.86722
280.0251, 36.89572
280.5072, 35.78693
280.9893, 35.97202
281.4715, 37.43498
281.9536, 39.87854
282.4357, 43.29791
282.9178, 47.78949
283.3999, 53.87997
283.8820, 61.65065
284.3642, 69.49829
284.8463, 76.62988
285.3284, 83.13681
285.8105, 89.78033
286.2926, 96.66034
286.7747, 103.4655
287.2569, 109.4256
287.7390, 114.5920
288.2211, 120.4790
288.7032, 128.0762
289.1853, 136.9473
289.6674, 145.4481
290.1496, 153.6697
290.6317, 161.2465
291.1138, 167.8632
291.5959, 173.5393
292.0780, 178.0885
292.5602, 180.8429
293.0423, 182.7137
293.5244, 185.2823
294.0065, 188.4688
294.4886, 194.2014
294.9707, 203.7271
295.4529, 217.2318
295.9350, 235.1570
296.4171, 258.2374
296.8992, 285.4626
297.3813, 315.6274
297.8634, 348.4295
298.3456, 382.2589
298.8277, 417.1677
299.3098, 451.8373
299.7919, 484.9264
300.2740, 519.9047
300.7561, 545.9371
301.2383, 549.9423
301.7204, 532.6658
302.2025, 496.6669
302.6846, 430.5954
303.1667, 350.4861
303.6488, 277.6865
304.1310, 215.1752
304.6131, 163.2548
305.0952, 124.9495
305.5773, 98.47601
306.0594, 79.10028
306.5415, 66.77737
307.0237, 58.88327
307.5058, 52.78743
307.9879, 48.37962
308.4700, 45.15149
308.9521, 42.96011
309.4343, 41.64542
309.9164, 40.86667
310.3985, 40.36166
310.8806, 40.41211
311.3627, 41.52374
311.8448, 43.72552
312.3270, 45.76530
312.8091, 46.10271
313.2912, 46.06224
313.7733, 47.20810
314.2554, 51.23096
314.7375, 55.50954
315.2197, 58.69293
315.7018, 60.97484
316.1839, 63.27197
316.6660, 65.48773
317.1481, 68.03110
317.6302, 71.16757
318.1124, 74.94202
318.5945, 79.61856
319.0766, 84.79781
319.5587, 90.76347
320.0408, 98.74551
320.5229, 109.6133
321.0051, 122.3144
321.4872, 136.5346
321.9693, 152.9504
322.4514, 169.0159
322.9335, 184.7581
323.4156, 199.8344
323.8978, 213.5493
324.3799, 230.4775
324.8620, 241.8576
325.3441, 245.0895
325.8262, 240.4725
326.3083, 226.3415
326.7905, 195.6075
327.2726, 157.2960
327.7547, 122.9423
328.2368, 91.45328
328.7189, 65.20393
329.2010, 45.30026
329.6832, 32.26659
330.1653, 21.48016
330.6474, 13.39365
331.1295, 7.239319
331.6116, 2.371017
332.0938, 0.8300480
332.5759, 3.353287
333.0580, 5.239944
333.5401, 6.522842
334.0222, 7.333252
334.5043, 7.640198
334.9865, 7.528793
335.4686, 6.923859
335.9507, 5.428909
336.4328, 4.617508
336.9149, 5.036819
337.3970, 5.951996
337.8792, 5.318451
338.3613, 2.708435
338.8434, 0.2763370
339.3255, 3.094299
339.8076, 5.809937
340.2898, 7.992157
340.7719, 9.716064
341.2540, 10.83060
341.7361, 10.91180
342.2182, 9.833374
342.7003, 8.882996
343.1825, 8.628204
343.6646, 8.922058
344.1467, 8.698822
344.6288, 7.874481
345.1109, 6.958435
345.5930, 6.457245
346.0752, 6.342896
346.5573, 6.318298
347.0394, 6.308533
347.5215, 6.343872
348.0036, 6.249054
348.4857, 6.044708
348.9679, 6.557281
349.4500, 8.692902
349.9321, 12.06854
350.4142, 15.63931
350.8963, 19.37619
351.3784, 22.96048
351.8606, 25.36026
352.3427, 27.00836
352.8248, 29.58682
353.3069, 33.98718
353.7890, 39.86945
354.2711, 46.96762
354.7533, 55.27832
355.2354, 64.46109
355.7175, 73.94125
356.1996, 84.00323
356.6817, 95.18469
357.1638, 108.7740
357.6460, 122.7745
358.1281, 137.0612
358.6102, 151.2756
359.0923, 162.1368
359.5744, 169.3795
360.0565, 171.5079
360.5387, 166.9012
361.0208, 152.5825
361.5029, 134.5649
361.9850, 112.9066
362.4671, 89.21530
362.9492, 68.74268
363.4314, 53.55167
363.9135, 41.89017
364.3956, 32.86612
364.8777, 26.38358
365.3598, 22.41855
365.8419, 21.67007
366.3241, 23.25656
366.8062, 25.87943
367.2883, 30.74008
367.7704, 35.28577
368.2526, 38.45038
368.7347, 39.75620
369.2168, 42.44617
369.6989, 47.46774
370.1810, 53.33533
370.6631, 58.89304
371.1453, 63.82596
371.6274, 68.93665
372.1095, 74.45908
372.5916, 80.32794
373.0737, 85.73303
373.5558, 89.83618
374.0380, 94.78430
374.5201, 102.1371
375.0022, 112.7841
375.4843, 122.6989
375.9664, 131.9046
376.4485, 140.1763
376.9307, 146.9947
377.4128, 151.9254
377.8949, 156.9778
378.3770, 162.8108
378.8591, 169.3846
379.3412, 176.3507
379.8234, 183.3882
380.3055, 191.7280
380.7876, 202.8206
381.2697, 216.6692
381.7518, 231.7599
382.2339, 248.4178
382.7161, 265.4654
383.1982, 281.2315
383.6803, 295.5291
384.1624, 306.7314
384.6445, 314.6775
385.1266, 318.4573
385.6088, 314.8182
386.0909, 302.0278
386.5730, 285.7907
387.0551, 270.3874
387.5372, 256.7087
388.0193, 247.0922
388.5015, 242.2491
388.9836, 242.5062
389.4657, 249.6898
389.9478, 263.9410
390.4299, 279.1690
390.9120, 295.0728
391.3942, 308.4781
391.8763, 315.2525
392.3584, 317.5537
392.8405, 309.5599
393.3226, 283.3445
393.8047, 242.4866
394.2869, 203.0753
394.7690, 166.9118
395.2511, 137.0418
395.7332, 115.8380
396.2154, 105.9336
396.6975, 100.5746
397.1796, 98.44724
397.6617, 99.69196
398.1438, 104.5791
398.6259, 114.6660
399.1081, 126.8345
399.5902, 140.5323
400.0723, 155.8809
400.5544, 171.5521
401.0365, 188.4485
401.5186, 205.1095
402.0008, 220.6137
402.4829, 237.6282
402.9650, 248.8805
403.4471, 254.4891
403.9292, 253.7033
404.4113, 242.6843
404.8935, 218.9556
405.3756, 190.6664
405.8577, 160.4100
406.3398, 127.5975
406.8219, 99.10498
407.3040, 74.86615
407.7862, 55.14999
408.2683, 40.89059
408.7504, 32.21072
409.2325, 24.87784
409.7146, 17.26328
410.1967, 10.00867
410.6789, 4.934357
411.1610, 2.077515
411.6431, 0.4337160
412.1252, 0.7460330
412.6073, 1.385101
413.0894, 1.155701
413.5716, 0.1597900
414.0537, 1.997620
414.5358, 3.452362
415.0179, 4.783173
415.5000, 6.900299
415.9821, 10.94638
416.4643, 15.64136
416.9464, 19.74533
417.4285, 23.12979
417.9106, 26.02576
418.3927, 28.97714
418.8748, 31.39417
419.3570, 32.52710
419.8391, 31.08313
420.3212, 29.33499
420.8033, 27.84976
421.2854, 26.74237
421.7675, 26.48056
422.2497, 27.22162
422.7318, 28.83963
423.2139, 31.39859
423.6960, 35.45892
424.1781, 39.23730
424.6602, 42.10129
425.1424, 44.69083
425.6245, 47.89212
426.1066, 51.58063
426.5887, 55.97928
427.0709, 61.08575
427.5530, 66.89862
428.0351, 73.45029
428.5172, 80.72644
428.9993, 88.86374
429.4814, 97.93820
429.9636, 107.8891
430.4457, 118.9963
430.9278, 131.2873
431.4099, 144.7364
431.8920, 159.2327
432.3741, 174.9003
432.8563, 191.6840
433.3384, 210.2962
433.8205, 230.3670
434.3026, 249.1618
434.7847, 266.9102
435.2668, 282.3679
435.7490, 295.0445
436.2311, 304.5987
436.7132, 309.3358
437.1953, 308.6281
437.6774, 303.1778
438.1595, 293.9719
438.6417, 280.8851
439.1238, 263.3826
439.6059, 238.4054
440.0880, 210.2569
440.5701, 182.6113
441.0522, 155.4089
441.5344, 131.3516
442.0165, 111.9768
442.4986, 96.69861
442.9807, 84.93094
443.4628, 77.08069
443.9449, 72.10855
444.4271, 70.48505
444.9092, 71.76413
445.3913, 73.51703
445.8734, 75.44748
446.3555, 77.43677
446.8376, 79.77304
447.3198, 84.65161
447.8019, 85.44244
448.2840, 80.55807
448.7661, 72.19540
449.2482, 63.24292
449.7303, 53.52948
450.2125, 43.57950
450.6946, 32.89648
451.1767, 21.65143
451.6588, 13.08585
452.1409, 7.605133
452.6230, 3.699280
453.1052, 0.5133360
453.5873, 1.960388
454.0694, 3.952087
454.5515, 5.458588
455.0337, 6.541351
455.5158, 7.369446
455.9979, 7.924530
456.4800, 7.799377
456.9621, 6.504150
457.4442, 4.499817
457.9264, 2.857300
458.4085, 1.569305
458.8906, 0.3007510
459.3727, 0.7565000
459.8548, 2.078918
460.3369, 4.585999
460.8191, 8.979980
461.3012, 13.46606
461.7833, 16.40216
462.2654, 18.39722
462.7475, 20.70233
463.2296, 23.72495
463.7118, 27.27744
464.1939, 31.67880
464.6760, 37.05106
465.1581, 41.84781
465.6402, 44.48599
466.1223, 46.67422
466.6045, 49.61453
467.0866, 53.49231
467.5687, 58.34744
468.0508, 63.91470
468.5329, 70.40445
469.0150, 78.58142
469.4972, 89.08914
469.9793, 100.1914
470.4614, 111.3391
470.9435, 122.5468
471.4256, 134.1241
471.9077, 146.2839
472.3899, 158.3979
472.8720, 169.4957
473.3541, 179.4882
473.8362, 190.4941
474.3183, 202.7392
474.8004, 216.4741
475.2826, 232.3514
475.7647, 250.2249
476.2468, 268.8994
476.7289, 286.8379
477.2110, 305.5259
477.6931, 327.7792
478.1753, 353.6945
478.6574, 382.6053
479.1395, 413.9629
479.6216, 447.9326
480.1037, 484.6630
480.5858, 523.9539
481.0680, 566.8132
481.5501, 615.3356
482.0322, 667.9410
482.5143, 720.9424
482.9964, 775.4898
483.4786, 827.8942
483.9607, 879.8678
484.4428, 931.8747
484.9249, 969.1938
485.4070, 992.3551
485.8892, 997.4144
486.3713, 980.6429
486.8534, 936.2107
487.3355, 879.3375
487.8176, 803.9776
488.2997, 718.6597
488.7819, 638.8143
489.2640, 562.5486
489.7461, 495.5191
490.2282, 440.3442
490.7103, 396.2329
491.1924, 358.3026
491.6746, 326.8473
492.1567, 299.3130
492.6388, 274.7627
493.1209, 252.6311
493.6030, 230.7251
494.0851, 208.1592
494.5673, 186.4070
495.0494, 168.0382
495.5315, 152.4665
496.0136, 138.2583
496.4957, 124.2150
496.9778, 111.3783
497.4600, 100.5620
497.9421, 91.76428
498.4242, 84.39227
498.9063, 78.29031
499.3884, 73.28156
499.8705, 69.17905
500.3527, 66.12936
500.8348, 63.62943
501.3169, 61.79947
501.7990, 60.38605
502.2811, 59.02197
502.7632, 57.56296
503.2454, 56.25952
503.7275, 55.00372
504.2096, 53.85144
504.6917, 53.42273
505.1738, 54.01459
505.6559, 54.93216
506.1381, 55.77679
506.6202, 56.42050
507.1023, 57.60657
507.5844, 59.51797
508.0665, 61.64700
508.5486, 63.38492
509.0308, 64.73856
509.5129, 65.58731
509.9950, 65.90833
510.4771, 65.70502
510.9592, 64.94434
511.4413, 63.55765
511.9235, 61.63174
512.4056, 59.59631
512.8877, 56.98480
513.3698, 52.70328
513.8519, 46.58282
514.3340, 40.45499
514.8162, 35.76953
515.2983, 31.91443
515.7804, 28.08328
516.2625, 23.85266
516.7446, 19.76746
517.2267, 15.80545
517.7089, 12.12170
518.1910, 9.175964
518.6731, 7.713165
519.1552, 6.398468
519.6373, 4.597809
520.1194, 2.154022
520.6016, 0.7514950
521.0837, 1.276886
521.5658, 1.864227
522.0479, 0.9087520
522.5300, 2.371735
523.0121, 4.189026
523.4943, 3.847809
523.9764, 2.538574
524.4585, 2.534454
524.9406, 3.874146
525.4227, 4.878571
525.9048, 4.804535
526.3870, 4.049164
526.8691, 3.530151
527.3513, 3.238068
527.8334, 3.084900
528.3155, 3.014465
528.7976, 3.033142
529.2797, 3.239777
529.7618, 3.710144
530.2440, 3.961487
530.7261, 3.444489
531.2082, 2.571808
531.6903, 1.884460
532.1724, 2.030945
532.6545, 1.882294
533.1367, 0.7434690
533.6188, 1.048065
534.1009, 2.334167
534.5830, 2.636200
535.0651, 2.680084
535.5472, 2.582031
536.0294, 2.263367
536.5115, 2.431396
536.9936, 3.281250
537.4757, 4.348816
537.9578, 5.164703
538.4399, 5.623840
538.9221, 6.718933
539.4042, 8.890503
539.8863, 11.17670
540.3684, 11.41638
540.8505, 9.821533
541.3326, 8.963348
541.8148, 10.38489
542.2969, 12.88232
542.7790, 14.33273
543.2611, 14.83362
543.7432, 15.22958
544.2253, 16.06201
544.7075, 17.09714
545.1896, 18.15433
545.6717, 19.24936
546.1538, 20.13428
546.6359, 20.89563
547.1180, 21.30096
547.6002, 21.08624
548.0823, 18.68588
548.5644, 17.39377
549.0465, 18.65997
549.5286, 21.49884
550.0107, 23.00793
550.4929, 22.29230
550.9750, 21.56381
551.4571, 21.36417
551.9392, 21.69571
552.4213, 22.99579
552.9034, 25.44199
553.3856, 28.31195
553.8677, 31.07065
554.3498, 33.73279
554.8319, 36.38071
555.3140, 38.92151
555.7961, 41.83768
556.2783, 45.83417
556.7604, 50.69913
557.2425, 55.79861
557.7246, 60.91711
558.2067, 66.17886
558.6888, 71.79572
559.1710, 77.65753
559.6531, 83.32101
560.1352, 88.84415
560.6173, 93.84235
561.0994, 98.43259
561.5815, 102.8684
562.0637, 104.9365
562.5458, 102.9607
563.0279, 99.23062
563.5100, 95.44852
563.9921, 92.03482
564.4742, 87.70340
564.9564, 81.82510
565.4385, 75.49066
565.9206, 70.51883
566.4027, 67.03253
566.8848, 64.45016
567.3669, 62.59900
567.8491, 61.55981
568.3312, 61.98260
568.8133, 63.81061
569.2954, 65.70969
569.7775, 66.95786
570.2596, 67.64514
570.7418, 67.93225
571.2239, 67.84152
571.7060, 67.19952
572.1881, 65.85788
572.6702, 63.91360
573.1523, 61.42700
573.6345, 58.29700
574.1166, 54.87595
574.5987, 51.07721
575.0808, 47.14886
575.5629, 43.43701
576.0450, 40.09384
576.5272, 36.95474
577.0093, 33.97971
577.4914, 31.18393
577.9735, 28.62048
578.4556, 26.18848
578.9377, 24.29861
579.4199, 23.32614
579.9020, 23.25317
580.3841, 22.33432
580.8662, 20.58194
581.3483, 18.63727
581.8304, 16.66669
582.3126, 14.85577
582.7947, 14.29700
583.2768, 15.62296
583.7589, 17.13168
584.2410, 16.68576
584.7231, 15.08627
585.2053, 13.93457
585.6874, 14.60361
586.1696, 15.22736
586.6517, 14.51862
587.1338, 12.78894
587.6159, 11.51474
588.0980, 11.55344
588.5801, 11.76929
589.0623, 11.59131
589.5444, 10.85763
590.0265, 10.65384
590.5086, 11.40991
590.9907, 12.25592
591.4728, 12.31274
591.9550, 11.25470
592.4371, 11.09528
592.9192, 12.15970
593.4013, 13.73709
593.8834, 14.84607
594.3655, 15.55499
594.8477, 16.16486
595.3298, 16.51712
595.8119, 17.12363
596.2940, 18.84625
596.7761, 21.43802
597.2582, 24.12973
597.7404, 26.63113
598.2225, 28.98428
598.7046, 31.27405
599.1867, 33.48279
599.6688, 35.37073
600.1509, 36.28656
600.6331, 37.29361
601.1152, 39.08246
601.5973, 42.05515
602.0794, 44.88678
602.5615, 47.24561
603.0436, 49.75543
603.5258, 53.54147
604.0079, 59.20514
604.4900, 62.71265
604.9721, 62.95056
605.4542, 61.36456
605.9363, 61.12622
606.4185, 61.97971
606.9006, 61.57690
607.3827, 58.53137
607.8648, 53.82770
608.3469, 48.12585
608.8290, 41.71796
609.3112, 36.54434
609.7933, 34.82028
610.2754, 33.95883
610.7575, 31.72833
611.2396, 27.65384
611.7217, 24.35486
612.2039, 22.53494
612.6860, 21.80707
613.1681, 21.94720
613.6502, 23.92731
614.1323, 24.96719
614.6144, 24.59402
615.0966, 23.64465
615.5787, 23.44025
616.0608, 24.16263
616.5429, 24.50571
617.0250, 24.22263
617.5071, 23.33096
617.9893, 21.43793
618.4714, 18.72296
618.9535, 16.61453
619.4356, 16.48135
619.9177, 17.00677
620.3998, 16.45419
620.8820, 14.90079
621.3641, 13.24078
621.8462, 11.56006
622.3283, 10.22754
622.8104, 9.627625
623.2925, 10.00815
623.7747, 10.25836
624.2568, 9.898315
624.7389, 9.497986
625.2210, 9.516907
625.7031, 10.10605
626.1852, 10.79239
626.6674, 11.59131
627.1495, 12.41470
627.6316, 12.98242
628.1137, 13.26611
628.5958, 14.07855
629.0779, 15.98157
629.5601, 18.18033
630.0422, 18.88113
630.5243, 18.42081
631.0064, 18.34680
631.4885, 19.97623
631.9706, 22.07626
632.4528, 23.19736
632.9349, 23.42844
633.4170, 24.42862
633.8991, 28.66241
634.3812, 32.62332
634.8633, 33.90811
635.3455, 31.04636
635.8276, 29.37906
636.3097, 29.97372
636.7918, 30.88422
637.2739, 30.43835
637.7560, 28.31168
638.2382, 26.33475
638.7203, 24.67810
639.2024, 23.05472
639.6845, 21.11526
640.1666, 18.79797
640.6487, 15.91956
641.1309, 11.82886
641.6130, 7.927551
642.0951, 6.788452
642.5772, 7.549103
643.0594, 7.833862
643.5415, 5.738953
644.0236, 3.463409
644.5057, 2.290344
644.9879, 2.180359
645.4700, 2.323730
645.9521, 2.108887
646.4342, 2.543518
646.9163, 4.317780
647.3984, 7.821991
647.8806, 10.09015
648.3627, 10.68063
648.8448, 10.93146
649.3269, 11.86777
649.8090, 13.49911
650.2911, 15.51846
650.7733, 17.98990
651.2554, 20.60297
651.7375, 23.32635
652.2196, 25.92142
652.7017, 27.72635
653.1838, 28.13306
653.6660, 28.52454
654.1481, 30.02942
654.6302, 32.23520
655.1123, 34.44595
655.5944, 37.40576
656.0765, 39.26031
656.5587, 39.03546
657.0408, 37.08600
657.5229, 35.14288
658.0050, 33.21167
658.4871, 31.31268
658.9692, 29.45282
659.4514, 27.63046
659.9335, 25.89673
660.4156, 24.28784
660.8977, 22.52911
661.3798, 19.98016
661.8619, 17.19528
662.3441, 15.83838
662.8262, 16.03946
663.3083, 16.41666
663.7904, 15.55392
664.2725, 14.43137
664.7546, 14.17410
665.2368, 15.24475
665.7189, 16.56268
666.2010, 18.00095
666.6831, 19.41193
667.1652, 20.62213
667.6473, 21.64606
668.1295, 22.46829
668.6116, 23.08676
669.0937, 23.52081
669.5758, 23.88757
670.0579, 24.24139
670.5400, 23.99649
671.0222, 22.80261
671.5043, 21.08722
671.9864, 19.75494
672.4685, 18.70673
672.9506, 17.47128
673.4327, 15.80350
673.9149, 13.82333
674.3970, 11.36523
674.8791, 8.537842
675.3612, 6.174316
675.8433, 4.586761
676.3254, 3.530884
676.8076, 3.027649
677.2897, 3.192230
677.7718, 3.134491
678.2539, 2.607147
678.7360, 2.220703
679.2181, 2.505737
679.7003, 3.563995
680.1824, 4.298279
680.6645, 4.693939
681.1466, 4.700806
681.6287, 3.816345
682.1108, 2.492371
682.5930, 2.116669
683.0751, 3.164337
683.5572, 4.471405
684.0393, 5.642853
684.5214, 6.271973
685.0035, 5.801483
685.4857, 2.529205
685.9678, 8.7646000E-02
686.4499, 0.8521120
686.9320, 0.4220580
687.4141, 0.3525090
687.8962, 0.8375850
688.3784, 1.314270
688.8605, 1.688629
689.3426, 1.949493
689.8247, 1.984192
690.3068, 1.769592
690.7889, 1.733673
691.2711, 2.223236
691.7532, 2.959015
692.2353, 3.417480
692.7174, 3.630707
693.1995, 3.630310
693.6816, 2.870880
694.1638, 2.151550
694.6459, 2.256439
695.1280, 3.286926
695.6101, 3.946259
696.0922, 3.952026
696.5743, 3.436401
697.0565, 2.327179
697.5386, 0.3001100
698.0207, 0.8106990
698.5028, 0.7013850
698.9849, 0.3746640
699.4670, 0.8894960
699.9492, 2.139648
700.4313, 2.977631
700.9135, 3.228729
701.3956, 3.228333
701.8777, 3.306641
702.3598, 3.393005
702.8419, 3.348602
703.3240, 3.038605
703.8062, 2.765228
704.2883, 2.773071
704.7704, 2.875000
705.2525, 2.802185
705.7346, 2.231323
706.2167, 1.839600
706.6989, 1.605682
707.1810, 1.635223
707.6631, 2.406189
708.1452, 4.155640
708.6273, 5.101563
709.1094, 4.341919
709.5916, 2.834229
710.0737, 2.970398
710.5558, 4.434723
711.0379, 5.689087
711.5200, 5.314362
712.0021, 4.900879
712.4843, 6.259674
712.9664, 9.014496
713.4485, 11.14783
713.9306, 11.38629
714.4127, 11.30923
714.8948, 11.62830
715.3770, 12.30261
715.8591, 12.52859
716.3412, 11.99298
716.8233, 11.72845
717.3054, 12.56329
717.7875, 14.46014
718.2697, 15.42715
718.7518, 15.32083
719.2339, 15.26019
719.7160, 16.58554
720.1981, 18.59375
720.6802, 20.15384
721.1624, 21.09595
721.6445, 21.85330
722.1266, 22.74854
722.6087, 23.50085
723.0908, 23.92484
723.5729, 24.29153
724.0551, 23.64352
724.5372, 21.13272
725.0193, 18.34094
725.5014, 17.09427
725.9835, 17.75421
726.4656, 17.67267
726.9478, 16.43182
727.4299, 14.79401
727.9120, 13.86740
728.3941, 13.46439
728.8762, 12.98984
729.3583, 12.20868
729.8405, 11.27875
730.3226, 10.03635
730.8047, 8.828400
731.2868, 8.264496
731.7689, 8.987946
732.2510, 9.863586
732.7332, 10.93176
733.2153, 11.89108
733.6974, 12.17090
734.1795, 11.68655
734.6616, 10.72900
735.1437, 9.112244
735.6259, 7.259491
736.1080, 6.382111
736.5901, 6.410065
737.0722, 6.703369
737.5543, 7.136536
738.0364, 7.554413
738.5186, 7.702576
739.0007, 7.639130
739.4828, 7.628174
739.9649, 7.986755
740.4470, 8.216095
740.9291, 8.264099
741.4113, 8.070282
741.8934, 6.999481
742.3755, 4.220642
742.8576, 2.078369
743.3397, 1.666626
743.8218, 2.777893
744.3040, 3.911469
744.7861, 5.105835
745.2682, 5.743530
745.7503, 4.806305
746.2324, 3.253906
746.7145, 2.781219
747.1967, 3.389008
747.6788, 3.987823
748.1609, 4.150269
748.6430, 3.922638
749.1251, 3.017578
749.6072, 1.054657
750.0894, 0.7465820
750.5715, 3.388000
751.0536, 5.952911
751.5357, 6.392487
752.0178, 4.498810
752.4999, 3.329865
752.9821, 2.889313
753.4642, 2.645325
753.9463, 1.937256
754.4284, 1.149689
754.9105, 1.159210
755.3926, 2.180450
755.8748, 3.161835
756.3569, 3.492584
756.8390, 3.463898
757.3211, 3.271149
757.8032, 2.634674
758.2853, 2.576111
758.7675, 3.766388
759.2496, 4.933411
759.7318, 4.688477
760.2139, 2.722839
760.6960, 1.595978
761.1781, 1.597137
761.6602, 2.272461
762.1423, 3.464264
762.6245, 4.850677
763.1066, 5.556549
763.5887, 5.266144
764.0708, 4.719604
764.5529, 4.234314
765.0350, 3.880615
765.5172, 3.739899
765.9993, 4.449188
766.4814, 4.502014
766.9635, 3.147675
767.4456, 1.522736
767.9277, 1.299530
768.4099, 2.853271
768.8920, 3.664459
769.3741, 3.190338
769.8562, 2.186127
770.3383, 1.698273
770.8204, 1.573334
771.3026, 1.355347
771.7847, 0.7300720
772.2668, 0.6353150
772.7489, 2.380127
773.2310, 4.743530
773.7131, 5.857361
774.1953, 4.412231
774.6774, 2.941010
775.1595, 1.365570
775.6416, 0.1558230
776.1237, 0.4229740
776.6058, 2.415955
777.0880, 3.946289
777.5701, 4.441986
778.0522, 4.313507
778.5343, 3.999847
779.0164, 3.597229
779.4985, 3.428040
779.9807, 3.915985
780.4628, 4.303345
780.9449, 3.916504
781.4270, 3.091217
781.9091, 2.555237
782.3912, 2.650726
782.8734, 2.774628
783.3555, 2.909790
783.8376, 3.033875
784.3197, 2.938904
784.8018, 2.639740
785.2839, 2.193756
785.7661, 1.393707
786.2482, 0.6842040
786.7303, 0.9321900
787.2124, 1.904358
787.6945, 2.937134
788.1766, 4.041382
788.6588, 4.838867
789.1409, 4.872528
789.6230, 4.436798
790.1051, 4.402649
790.5872, 5.342834
791.0693, 5.868683
791.5515, 5.527008
792.0336, 4.733673
792.5157, 4.740601
792.9978, 5.550354
793.4799, 6.398682
793.9620, 7.194946
794.4442, 7.668274
794.9263, 7.111786
795.4084, 5.879272
795.8905, 4.945374
796.3726, 4.767242
796.8547, 4.976227
797.3369, 5.609131
797.8190, 6.520599
798.3011, 7.239136
798.7832, 7.697601
799.2653, 8.102112
799.7474, 8.571838
800.2296, 8.955475
800.7117, 8.751495
801.1938, 8.011139
801.6759, 7.244934
802.1580, 6.484467
802.6401, 5.916992
803.1223, 6.012604
803.6044, 6.485687
804.0865, 6.590759
804.5686, 5.472015
805.0507, 4.618988
805.5328, 4.951691
806.0150, 5.870728
806.4971, 5.612762
806.9792, 3.561829
807.4613, 2.337708
807.9434, 3.046417
808.4255, 4.793976
808.9077, 5.072876
809.3898, 4.241730
809.8719, 3.973419
810.3540, 5.556427
810.8361, 7.406708
811.3182, 8.322968
811.8004, 8.532104
812.2825, 8.613464
812.7646, 9.035065
813.2467, 8.950012
813.7288, 7.845245
814.2109, 6.264374
814.6931, 5.815948
815.1752, 6.692169
815.6573, 6.891724
816.1394, 5.562775
816.6215, 3.749969
817.1037, 3.273499
817.5858, 3.723480
818.0679, 4.019043
818.5500, 3.160278
819.0322, 2.637543
819.5143, 3.740631
819.9964, 5.606018
820.4785, 6.375916
820.9606, 5.425537
821.4427, 4.344299
821.9249, 3.318146
822.4070, 2.321564
822.8891, 1.182465
823.3712, 4.8645001E-02
823.8533, 0.8428340
824.3354, 1.118103
824.8176, 0.7672730
825.2997, 1.066742
825.7818, 3.470154
826.2639, 4.820618
826.7460, 3.521698
827.2281, 2.335480
827.7103, 2.330383
828.1924, 2.567871
828.6745, 1.585999
829.1566, 1.192108
829.6387, 2.880280
830.1208, 2.927979
830.6030, 1.927979
831.0851, 0.4442750
831.5672, 1.190765
832.0493, 2.065308
832.5314, 1.707520
833.0135, 1.040314
833.4957, 0.6181030
833.9778, 0.3432310
834.4599, 8.4716998E-02
834.9420, 0.3492430
835.4241, 0.6679380
835.9063, 0.8131100
836.3884, 0.9182740
836.8705, 1.197601
837.3526, 1.634705
837.8347, 1.848450
838.3168, 1.772522
838.7990, 1.574982
839.2811, 1.559021
839.7632, 1.473511
840.2453, 0.7979430
840.7274, 0.9338680
841.2095, 1.999420
841.6917, 1.131287
842.1738, 0.1705630
842.6559, 0.7002560
843.1380, 0.1619260
843.6201, 6.7657001E-02
844.1022, 1.1688000E-02
844.5844, 0.3616640
845.0665, 1.034973
845.5486, 1.952911
846.0307, 3.086029
846.5128, 4.457062
846.9949, 5.252045
847.4771, 4.449829
847.9592, 3.187195
848.4413, 2.274414
848.9234, 1.853607
849.4055, 1.661194
849.8876, 1.883362
850.3698, 2.035339
850.8519, 1.752014
851.3340, 1.090088
851.8161, 0.8511350
852.2982, 1.039886
852.7803, 1.145599
853.2625, 0.6374210
853.7446, 2.3804000E-02
854.2267, 0.2618100
854.7088, 0.1250610
855.1909, 0.3695680
855.6730, 1.886322
856.1552, 3.127960
856.6373, 3.399384
857.1194, 2.842865
857.6015, 2.613251
858.0836, 2.739197
858.5657, 3.047241
859.0479, 3.518524
859.5300, 4.092468
860.0121, 4.481598
860.4942, 4.825592
860.9763, 5.620178
861.4584, 7.740967
861.9406, 9.689636
862.4227, 10.53912
862.9048, 10.60406
863.3869, 11.03339
863.8690, 11.88879
864.3511, 12.91974
864.8333, 13.89325
865.3154, 15.17322
865.7975, 18.22205
866.2796, 22.55249
866.7617, 25.96539
867.2438, 27.37030
867.7260, 28.20233
868.2081, 29.08917
868.6902, 30.28662
869.1723, 32.23102
869.6544, 35.92395
870.1365, 39.08740
870.6187, 41.26044
871.1008, 43.24921
871.5829, 45.93225
872.0650, 49.32141
872.5471, 53.87634
873.0292, 59.84119
873.5114, 66.11432
873.9935, 71.37213
874.4756, 76.33844
874.9577, 81.81238
875.4399, 87.84729
875.9220, 95.05469
876.4041, 104.4412
876.8862, 114.2515
877.3683, 123.3890
877.8505, 131.7074
878.3326, 139.9022
878.8147, 147.7708
879.2968, 156.6680
879.7789, 168.8611
880.2610, 182.2366
880.7432, 193.2427
881.2253, 201.7128
881.7074, 210.3914
882.1895, 219.6671
882.6716, 230.4314
883.1537, 244.0105
883.6359, 260.0566
884.1180, 274.4797
884.6001, 287.0364
885.0822, 299.3072
885.5643, 311.9425
886.0464, 324.9035
886.5286, 338.4182
887.0107, 352.1165
887.4928, 365.1542
887.9749, 378.6021
888.4570, 389.5815
888.9391, 396.9783
889.4213, 400.5499
889.9034, 400.0390
890.3855, 394.9313
890.8676, 387.0010
891.3497, 376.0079
891.8318, 363.1668
892.3140, 350.2561
892.7961, 337.1296
893.2782, 323.0770
893.7603, 307.5670
894.2424, 292.1542
894.7245, 277.7027
895.2067, 264.3305
895.6888, 252.0440
896.1709, 239.9755
896.6530, 230.8418
897.1351, 225.3368
897.6172, 221.7636
898.0994, 219.2689
898.5815, 217.5305
899.0636, 213.7750
899.5457, 207.7153
900.0278, 201.0378
900.5099, 195.4922
900.9921, 189.7577
901.4742, 182.2883
901.9563, 172.7473
902.4384, 163.1454
902.9205, 154.0134
903.4026, 144.6434
903.8848, 134.4833
904.3669, 123.7134
904.8490, 113.1076
905.3311, 102.8210
905.8132, 93.60809
906.2953, 86.25415
906.7775, 79.75580
907.2596, 72.76404
907.7417, 65.63904
908.2238, 59.62640
908.7059, 56.02850
909.1880, 52.58362
909.6702, 48.92584
910.1523, 45.03821
910.6344, 40.53174
911.1165, 35.46472
911.5986, 31.84601
912.0807, 30.61530
912.5629, 30.03510
913.0450, 27.88025
913.5271, 25.16156
914.0092, 23.42035
914.4913, 23.88446
914.9734, 23.90308
915.4556, 22.39728
915.9377, 20.93365
916.4198, 21.19543
916.9019, 23.33246
917.3840, 24.46625
917.8661, 24.39954
918.3483, 23.82709
918.8304, 23.02496
919.3125, 22.28748
919.7946, 21.77930
920.2767, 21.51740
920.7589, 22.28455
921.2410, 25.76068
921.7231, 28.80243
922.2052, 30.01025
922.6873, 29.63086
923.1694, 29.64203
923.6516, 30.02399
924.1337, 31.23724
924.6158, 33.99756
925.0979, 37.29230
925.5800, 39.69122
926.0621, 41.51343
926.5443, 43.60101
927.0264, 46.76215
927.5085, 49.52637
927.9906, 51.22101
928.4727, 52.67572
928.9548, 55.16962
929.4370, 58.69879
929.9191, 63.28705
930.4012, 69.17444
930.8833, 74.90155
931.3654, 78.49988
931.8475, 81.02435
932.3297, 83.77979
932.8118, 86.71136
933.2939, 91.00946
933.7761, 98.02649
934.2582, 105.4124
934.7403, 111.7451
935.2224, 117.0477
935.7045, 122.3857
936.1866, 127.8229
936.6688, 132.6791
937.1509, 135.8620
937.6330, 138.6562
938.1151, 142.8601
938.5972, 148.1775
939.0793, 152.6584
939.5615, 154.3347
940.0436, 156.9441
940.5257, 161.5395
941.0078, 167.5754
941.4899, 173.5606
941.9720, 179.4976
942.4542, 185.2702
942.9363, 190.7793
943.4184, 196.4233
943.9005, 202.7521
944.3826, 209.4137
944.8647, 216.1343
945.3469, 222.9831
945.8290, 229.4762
946.3111, 235.7153
946.7932, 241.4225
947.2753, 246.0878
947.7574, 249.8418
948.2396, 254.4392
948.7217, 259.9743
949.2038, 264.9656
949.6859, 268.5606
950.1680, 270.8846
950.6501, 271.5165
951.1323, 270.6010
951.6144, 270.5789
952.0965, 273.2535
952.5786, 274.1772
953.0607, 271.3237
953.5428, 266.2391
954.0250, 263.8998
954.5071, 263.7813
954.9892, 262.7374
955.4713, 258.9213
955.9534, 254.8768
956.4355, 251.9149
956.9177, 250.1475
957.3998, 249.8328
957.8819, 252.6180
958.3640, 253.7241
958.8461, 252.9102
959.3282, 250.7053
959.8104, 247.5799
960.2925, 243.5690
960.7746, 238.5074
961.2567, 232.3783
961.7388, 226.5868
962.2209, 223.5055
962.7031, 219.8621
963.1852, 212.8364
963.6673, 202.4380
964.1494, 192.8130
964.6315, 184.7071
965.1136, 175.1987
965.5958, 162.2208
966.0779, 148.1914
966.5600, 138.4171
967.0421, 131.8083
967.5242, 125.2863
968.0063, 117.6205
968.4885, 109.2590
968.9706, 99.72009
969.4527, 90.18225
969.9348, 81.82184
970.4169, 74.81464
970.8990, 68.42358
971.3812, 62.53223
971.8633, 57.28790
972.3454, 53.46307
972.8275, 50.17957
973.3096, 45.90051
973.7917, 40.56171
974.2739, 35.98248
974.7560, 33.40588
975.2381, 31.12347
975.7202, 28.48743
976.2023, 25.63556
976.6844, 22.90393
977.1666, 20.08722
977.6487, 18.03497
978.1308, 17.62701
978.6129, 17.48389
979.0950, 15.81427
979.5771, 13.45538
980.0593, 11.78912
980.5414, 12.29633
981.0235, 11.86182
981.5056, 9.886597
981.9877, 7.528259
982.4698, 5.849487
982.9520, 4.842834
983.4341, 4.057190
983.9162, 3.462708
984.3983, 3.126892
984.8804, 2.765259
985.3625, 2.471558
985.8447, 2.585876
986.3268, 3.199036
986.8089, 3.428772
987.2910, 2.762695
987.7731, 2.370056
988.2552, 2.526001
988.7374, 3.263367
989.2195, 5.038452
989.7016, 7.611084
990.1837, 9.807190
990.6658, 10.90503
991.1479, 11.91022
991.6301, 13.17700
992.1122, 14.68335
992.5944, 16.41974
993.0765, 18.39429
993.5586, 20.07379
994.0407, 21.32910
994.5228, 23.34344
995.0049, 28.02118
995.4871, 33.44708
995.9692, 36.74237
996.4513, 38.21124
996.9334, 40.58093
997.4155, 46.41876
997.8976, 51.04034
998.3798, 52.81085
998.8619, 53.02545
999.3440, 55.37708
999.8261, 59.50134
1000.308, 61.81104
1000.790, 61.19684
1001.272, 59.15253
1001.755, 56.54150
1002.237, 53.44684
1002.719, 49.72205
1003.201, 45.02661
1003.683, 41.01666
1004.165, 38.07825
1004.647, 34.82404
1005.129, 29.32782
1005.612, 22.94061
1006.094, 20.11304
1006.576, 20.15857
1007.058, 19.67584
1007.540, 15.84814
1008.022, 12.37213
1008.504, 11.36371
1008.986, 11.41162
1009.468, 9.848083
1009.951, 6.344666
1010.433, 4.028687
1010.915, 3.525146
1011.397, 3.549683
1011.879, 2.547241
1012.361, 1.261963
1012.843, 0.6392820
1013.325, 0.8862920
1013.807, 1.226196
1014.290, 1.675903
1014.772, 1.958008
1015.254, 1.881042
1015.736, 1.551636
1016.218, 1.459351
1016.700, 1.550476
1017.182, 1.509338
1017.664, 1.182617
1018.147, 0.7050170
1018.629, 0.2263790
1019.111, 0.3731080
1019.593, 1.412659
1020.075, 3.504822
1020.557, 3.979065
1021.039, 2.398499
1021.521, 0.4780270
1022.003, 0.1971440
1022.486, 7.1898997E-02
1022.968, 1.8920000E-03
1023.450, 5.4899999E-04
1023.932, 0.6083980
1024.414, 3.561279
1024.896, 5.355469
1025.378, 4.346985
1025.860, 1.700317
1026.343, 0.7572020
1026.825, 1.435486
1027.307, 2.476990
1027.789, 3.746338
1028.271, 4.625793
1028.753, 4.419617
1029.235, 3.584106
1029.717, 2.559204
1030.199, 1.194702
1030.682, 0.3549190
1031.164, 0.1033940
1031.646, 0.1719360
1032.128, 0.4319460
1032.610, 0.8741460
1033.092, 1.898865
1033.574, 3.160034
1034.056, 3.358643
1034.539, 0.4630740
1035.021, 1.819153
1035.503, 1.799011
1035.985, 0.8860470
1036.467, 1.131470
1036.949, 2.582764
1037.431, 2.869019
1037.913, 1.625183
1038.396, 0.2804570
1038.878, 0.3529050
1039.360, 0.1704100
1039.842, 1.704163
1040.324, 5.252441
1040.806, 5.992981
1041.288, 2.113525
1041.770, 0.5787960
1042.252, 0.2808230
1042.734, 2.660950
1043.217, 1.744568
1043.699, 1.046814
1044.181, 1.733948
1044.663, 2.168579
1045.145, 5.248779
1045.627, 5.129822
1046.109, 3.552856
1046.591, 1.256409
1047.074, 1.882446
1047.556, 1.928345
1048.038, 1.129578
1048.520, 3.961548
1049.002, 4.021545
1049.484, 3.175293
1049.966, 2.893616
1050.448, 3.021484
1050.931, 3.017639
1051.413, 2.605530
1051.895, 2.513062
1052.377, 2.851563
1052.859, 3.483582
1053.341, 4.621887
1053.823, 5.848694
1054.305, 6.073914
1054.787, 5.169617
1055.270, 4.366089
1055.752, 4.125427
1056.234, 4.221436
1056.716, 4.654785
1057.198, 5.292664
1057.680, 5.753845
1058.162, 6.006470
1058.644, 5.380615
1059.126, 3.065674
1059.609, 1.337830
1060.091, 3.391785
1060.573, 6.514587
1061.055, 7.506348
1061.537, 5.388550
1062.019, 4.347656
1062.501, 4.640320
1062.983, 5.135681
1063.466, 5.148926
1063.948, 4.821716
1064.430, 4.218872
1064.912, 3.509705
1065.394, 3.170288
1065.876, 3.578918
1066.358, 4.106506
1066.840, 4.511047
1067.323, 5.127380
1067.805, 6.757019
1068.287, 9.125061
1068.769, 9.899414
1069.251, 8.901917
1069.733, 7.970337
1070.215, 8.782593
1070.697, 9.710144
1071.179, 9.381287
1071.661, 8.173096
1072.144, 7.861938
1072.626, 8.583801
1073.108, 9.307312
1073.590, 9.810120
1074.072, 10.05756
1074.554, 9.944641
1075.036, 9.585632
1075.518, 9.031799
1076.001, 8.152710
1076.483, 7.915649
1076.965, 8.766479
1077.447, 9.436462
1077.929, 9.213928
1078.411, 8.368103
1078.893, 7.036011
1079.375, 5.595337
1079.858, 5.250183
1080.340, 7.608459
1080.822, 9.526367
1081.304, 9.375916
1081.786, 8.654663
1082.268, 8.640564
1082.750, 9.398132
1083.232, 9.607666
1083.714, 9.332581
1084.197, 9.066589
1084.679, 9.658997
1085.161, 9.878784
1085.643, 8.180847
1086.125, 5.393005
1086.607, 4.253723
1087.089, 5.382996
1087.571, 6.307800
1088.054, 6.695313
1088.536, 6.813599
1089.018, 6.766235
1089.500, 6.733032
1089.982, 7.207336
1090.464, 8.237854
1090.946, 8.346375
1091.428, 6.589600
1091.911, 4.971741
1092.393, 4.277222
1092.875, 4.200439
1093.357, 4.244019
1093.839, 4.362305
1094.321, 4.604248
1094.803, 5.152039
1095.285, 5.296143
1095.767, 3.927734
1096.250, 2.681030
1096.732, 2.838562
1097.214, 4.362610
1097.696, 5.555908
1098.178, 6.344666
1098.660, 6.567322
1099.142, 5.612488
1099.624, 4.585571
1100.106, 4.709595
1100.589, 5.557495
1101.071, 6.300415
1101.553, 6.940430
1102.035, 6.934753
1102.517, 6.453430
1102.999, 5.754639
1103.481, 5.078552
1103.963, 4.442871
1104.446, 3.700562
1104.928, 2.811646
1105.410, 2.325562
1105.892, 2.773682
1106.374, 3.251648
1106.856, 3.620178
1107.338, 3.801025
1107.820, 3.354126
1108.302, 2.804688
1108.785, 3.505615
1109.267, 5.650391
1109.749, 7.190491
1110.231, 6.799377
1110.713, 6.176880
1111.195, 5.948120
1111.677, 5.951538
1112.159, 5.641785
1112.641, 5.125793
1113.124, 5.149048
1113.606, 6.085510
1114.088, 6.874695
1114.570, 6.494202
1115.052, 5.954346
1115.534, 6.429077
1116.016, 7.806091
1116.498, 6.433899
1116.981, 2.138123
1117.463, 1.030029
1117.945, 0.7913210
1118.427, 0.8535160
1118.909, 2.818054
1119.391, 4.489807
1119.873, 4.804199
1120.355, 2.841675
1120.838, 2.326294
1121.320, 3.584290
1121.802, 4.791687
1122.284, 4.299866
1122.766, 3.200073
1123.248, 3.285706
1123.730, 4.197388
1124.212, 4.885864
1124.694, 4.952698
1125.177, 4.866089
1125.659, 4.546265
1126.141, 4.343811
1126.623, 4.824768
1127.105, 5.676208
1127.587, 6.015137
1128.069, 5.866943
1128.551, 5.718933
1129.033, 6.231506
1129.516, 6.107727
1129.998, 4.598206
1130.480, 2.714111
1130.962, 2.244202
1131.444, 2.945984
1131.926, 3.615845
1132.408, 4.083557
1132.890, 4.608459
1133.373, 5.777954
1133.855, 6.624084
1134.337, 6.648682
1134.819, 5.963928
1135.301, 4.559692
1135.783, 2.494507
1136.265, 1.151245
1136.747, 0.9869380
1137.229, 1.221985
1137.712, 1.374878
1138.194, 1.540344
1138.676, 1.859985
1139.158, 2.321655
1139.640, 2.059998
1140.122, 0.9390870
1140.604, 0.5454710
1141.086, 1.680420
1141.569, 3.530823
1142.051, 6.545410
1142.533, 9.103210
1143.015, 8.567322
1143.497, 2.850037
1143.979, 0.3198850
1144.461, 1.636597
1144.943, 3.618652
1145.426, 4.382507
1145.908, 4.527344
1146.390, 5.033691
1146.872, 5.611450
1147.354, 5.647400
1147.836, 4.401245
1148.318, 3.560059
1148.800, 3.358826
1149.282, 3.116760
1149.765, 1.932007
1150.247, 0.4083250
1150.729, 0.1434330
1151.211, 0.8616940
1151.693, 1.255066
1152.175, 0.3639530
1152.657, 0.2102050
1153.139, 9.8021999E-02
1153.621, 0.2445070
1154.104, 6.9397002E-02
1154.586, 0.2911380
1155.068, 0.6292720
1155.550, 2.743164
1156.032, 4.052734
1156.514, 2.363770
1156.996, 1.287537
1157.478, 2.413391
1157.961, 1.340393
1158.443, 3.991821
1158.925, 2.004883
1159.407, 1.719727
1159.889, 3.647522
1160.371, 5.334900
1160.853, 4.813904
1161.335, 4.148621
1161.818, 4.463989
1162.300, 5.411255
1162.782, 6.214050
1163.264, 6.805603
1163.746, 6.362305
1164.228, 4.563843
1164.710, 2.545288
1165.192, 4.8219999E-03
1165.674, 1.394836
1166.156, 0.4002690
1166.639, 4.603821
1167.121, 6.084656
1167.603, 4.849060
1168.085, 3.865234
1168.567, 4.231995
1169.049, 4.693176
1169.531, 3.791870
1170.013, 2.709656
1170.496, 2.932617
1170.978, 2.476868
1171.460, 2.012695
1171.942, 2.954041
1172.424, 2.029175
1172.906, 3.012268
1173.388, 4.711243
1173.870, 6.824829
1174.353, 8.500305
1174.835, 8.312927
1175.317, 5.771545
1175.799, 3.872925
1176.281, 2.702759
1176.763, 1.834473
1177.245, 0.8876340
1177.727, 0.3031620
1178.209, 0.8432010
1178.692, 1.955505
1179.174, 2.828491
1179.656, 3.168030
1180.138, 2.783508
1180.620, 1.487976
1181.102, 0.4835210
1181.584, 0.8861080
1182.066, 1.873291
1182.548, 2.477417
1183.031, 2.821594
1183.513, 3.263428
1183.995, 4.064453
1184.477, 4.405151
1184.959, 4.221863
1185.441, 3.959778
1185.923, 3.424683
1186.405, 2.867432
1186.888, 3.405762
1187.370, 4.712219
1187.852, 5.497620
1188.334, 5.445129
1188.816, 4.944031
1189.298, 3.863281
1189.780, 2.877258
1190.262, 2.670959
1190.745, 3.001648
1191.227, 3.768494
1191.709, 4.800110
1192.191, 5.309692
1192.673, 4.890625
1193.155, 4.442139
1193.637, 4.124573
1194.119, 3.681091
1194.601, 2.551147
1195.084, 1.236145
1195.566, 0.4024050
1196.048, 0.1332400
1196.530, 0.6812740
1197.012, 2.762939
1197.494, 4.259583
1197.976, 4.676880
1198.458, 4.586853
1198.941, 4.736084
1199.423, 4.921082
1199.905, 4.824951
1200.387, 4.410461
1200.869, 3.609131
1201.351, 1.797485
1201.833, 0.9555660
1202.315, 1.991089
1202.797, 3.415894
1203.280, 2.195557
1203.762, 8.7096997E-02
1204.244, 0.3707280
1204.726, 1.917358
1205.208, 3.397278
1205.690, 3.237732
1206.172, 2.749451
1206.654, 2.135742
1207.136, 1.740112
1207.619, 2.462646
1208.101, 3.704285
1208.583, 4.432251
1209.065, 4.421082
1209.547, 4.194397
1210.029, 3.478699
1210.511, 3.311462
1210.993, 4.232056
1211.476, 5.658325
1211.958, 7.130127
1212.440, 8.142212
1212.922, 7.466064
1213.404, 4.352112
1213.886, 2.329956
1214.368, 1.896362
1214.850, 2.244324
1215.333, 3.340088
1215.815, 4.599487
1216.297, 4.775940
1216.779, 4.440674
1217.261, 4.792542
1217.743, 6.507813
1218.225, 7.178040
1218.707, 6.297363
1219.189, 5.266357
1219.672, 4.735596
1220.154, 4.431274
1220.636, 3.593506
1221.118, 2.694641
1221.600, 2.646912
1222.082, 3.992188
1222.564, 5.195618
1223.046, 6.242371
1223.528, 6.849548
1224.011, 6.867554
1224.493, 6.618103
1224.975, 7.022522
1225.457, 7.507568
1225.939, 6.940613
1226.421, 4.256104
1226.903, 3.078430
1227.385, 3.885010
1227.868, 4.795715
1228.350, 4.898071
1228.832, 4.333679
1229.314, 2.698730
1229.796, 0.7694700
1230.278, 6.3842997E-02
1230.760, 0.9573970
1231.242, 1.821228
1231.724, 2.643250
1232.207, 2.747375
1232.689, 1.150879
1233.171, 0.7482910
1233.653, 1.533569
1234.135, 1.219421
1234.617, 0.5523070
1235.099, 5.268555
1235.581, 5.837097
1236.063, 1.550415
1236.546, 1.888000
1237.028, 0.3484500
1237.510, 3.867676
1237.992, 3.511230
1238.474, 5.503174
1238.956, 6.357605
1239.438, 5.724121
1239.920, 6.457092
1240.403, 3.675354
1240.885, 1.111145
1241.367, 2.094360
1241.849, 3.348022
1242.331, 1.031494
1242.813, 2.378235
1243.295, 2.986816
1243.777, 8.6425997E-02
1244.260, 1.671753
1244.742, 2.313049
1245.224, 2.551636
1245.706, 2.391541
1246.188, 2.586243
1246.670, 4.495850
1247.152, 6.637146
1247.634, 6.867126
1248.116, 5.013062
1248.599, 4.018982
1249.081, 3.861755
1249.563, 3.980713
1250.045, 3.820251
1250.527, 4.178284
1251.009, 6.685181
1251.491, 8.975952
1251.973, 7.877441
1252.455, 3.624512
1252.938, 3.349487
1253.420, 6.552856
1253.902, 9.063660
1254.384, 8.561035
1254.866, 7.014893
1255.348, 3.886292
1255.830, 1.371338
1256.313, 2.011841
1256.795, 5.163269
1257.277, 6.675598
1257.759, 6.806519
1258.241, 7.026489
1258.723, 8.561890
1259.205, 9.454712
1259.687, 9.163574
1260.169, 8.425842
1260.651, 7.548828
1261.134, 6.802002
1261.616, 7.452637
1262.098, 9.045227
1262.580, 10.04907
1263.062, 9.664856
1263.544, 8.838562
1264.026, 7.379822
1264.508, 6.164978
1264.991, 6.077332
1265.473, 6.665894
1265.955, 7.484253
1266.437, 8.196106
1266.919, 7.954773
1267.401, 5.199524
1267.883, 4.359558
1268.365, 5.684143
1268.848, 7.360229
1269.330, 7.755859
1269.812, 7.200745
1270.294, 6.980225
1270.776, 6.857727
1271.258, 6.643127
1271.740, 6.122742
1272.222, 6.112183
1272.704, 6.683777
1273.187, 6.736694
1273.669, 7.868103
1274.151, 8.580811
1274.633, 7.647827
1275.115, 5.890869
1275.597, 4.520020
1276.079, 3.520630
1276.561, 3.334473
1277.043, 3.955444
1277.526, 5.024536
1278.008, 7.198730
1278.490, 8.762817
1278.972, 8.146118
1279.454, 6.755554
1279.936, 6.193848
1280.418, 6.423035
1280.900, 5.437683
1281.383, 3.523560
1281.865, 2.552917
1282.347, 5.127563
1282.829, 6.310730
1283.311, 2.653259
1283.793, 0.8320310
1284.275, 0.1589970
1284.757, 4.406616
1285.240, 7.696228
1285.722, 9.828979
1286.204, 9.971741
1286.686, 6.118713
1287.168, 3.276917
1287.650, 2.161255
1288.132, 1.767029
1288.614, 1.349792
1289.096, 1.241821
1289.578, 2.449646
1290.061, 4.433655
1290.543, 6.117676
1291.025, 7.305298
1291.507, 7.780945
1291.989, 7.381531
1292.471, 6.911072
1292.953, 6.428467
1293.435, 6.242554
1293.918, 9.174683
1294.400, 12.84216
1294.882, 13.78851
1295.364, 11.69208
1295.846, 9.169006
1296.328, 6.297180
1296.810, 3.772644
1297.292, 1.423584
1297.775, 4.2419001E-02
1298.257, 1.468140
1298.739, 3.413269
1299.221, 3.534973
1299.703, 2.074646
1300.185, 0.9479980
1300.667, 6.0180999E-02
1301.149, 0.8336180
1301.631, 3.905457
1302.114, 2.774475
1302.596, 0.0000000E+00
##END=



