##NAMES=Lamprophyllite
##RRUFFID=R070200
##IDEAL CHEMISTRY=Na_3_(SrNa)Ti^4+^_3_(Si_2_O_7_)_2_O_2_(OH)_2_
##LOCALITY=Windy Boy Peak, Bearpaw Mountains, Hill County, Montana, USA
##OWNER=RRUFF
##SOURCE=James Shigley
##DESCRIPTION=Golden brown translucent platy massive associated with quartz
##STATUS=The identification of this mineral is confirmed by single-crystal X-ray diffraction and chemical analysis.
##URL=rruff.info/R070200
##MEASURED CHEMISTRY=(Na_2.64_Mn^2+^_0.22_Mg_0.15_)_Σ=3.01_(Sr_1.19_K_0.18_Ba_0.13_Ca_0.09_)(Ti_2.82_Fe_0.33_Al_0.01_)_Σ=3.16_(Si_1.95_O_7_)_2_O_2_[(OH)_1.34_F_0.66_]_Σ=2_
151.2007, 0.0000000E+00
151.6828, 14.51904
152.1649, 34.71045
152.6470, 67.31006
153.1292, 99.49121
153.6113, 127.3613
154.0934, 123.5496
154.5755, 80.74219
155.0576, 39.36792
155.5397, 11.28027
156.0219, 4.397461
156.5040, 7.158203
156.9861, 2.082764
157.4682, 22.79443
157.9503, 55.07471
158.4324, 97.03076
158.9146, 147.6948
159.3967, 206.6646
159.8788, 270.9692
160.3609, 343.0791
160.8430, 419.2781
161.3251, 494.0681
161.8073, 566.8333
162.2894, 634.9482
162.7715, 695.0679
163.2536, 748.0752
163.7357, 792.1497
164.2178, 815.4829
164.7000, 830.1919
165.1821, 862.0913
165.6642, 919.7390
166.1463, 989.2930
166.6284, 1060.201
167.1105, 1132.649
167.5927, 1192.494
168.0748, 1229.532
168.5569, 1249.392
169.0390, 1267.546
169.5211, 1289.058
170.0032, 1304.965
170.4854, 1310.775
170.9675, 1307.049
171.4496, 1284.755
171.9317, 1227.823
172.4138, 1146.819
172.8959, 1076.927
173.3781, 1027.193
173.8602, 984.3691
174.3423, 939.2632
174.8244, 892.0854
175.3065, 839.3862
175.7886, 774.5269
176.2708, 701.4834
176.7529, 632.9116
177.2350, 565.2666
177.7171, 509.0088
178.1992, 474.9373
178.6813, 460.4922
179.1634, 450.2295
179.6456, 434.2078
180.1277, 411.7749
180.6098, 390.9412
181.0919, 372.9673
181.5740, 357.4641
182.0561, 343.8076
182.5383, 325.6079
183.0204, 315.5706
183.5025, 313.5098
183.9846, 316.3271
184.4667, 312.4324
184.9488, 298.9822
185.4310, 284.0168
185.9131, 268.9453
186.3952, 257.4910
186.8773, 248.5168
187.3594, 240.1550
187.8415, 236.3030
188.3237, 242.8237
188.8058, 267.9353
189.2879, 292.6089
189.7700, 307.7488
190.2521, 311.1978
190.7342, 307.1660
191.2164, 295.4116
191.6985, 275.4712
192.1806, 256.3337
192.6627, 245.0347
193.1448, 238.3367
193.6269, 233.0979
194.1091, 228.6177
194.5912, 223.2490
195.0733, 213.7932
195.5554, 202.8105
196.0375, 203.1758
196.5196, 226.8274
197.0018, 243.0400
197.4839, 236.6384
197.9660, 216.3750
198.4481, 196.2485
198.9302, 183.6406
199.4123, 176.6399
199.8945, 168.9021
200.3766, 160.7358
200.8587, 151.1155
201.3408, 137.3740
201.8229, 122.7493
202.3050, 111.7246
202.7872, 106.5867
203.2693, 106.2742
203.7514, 108.8901
204.2335, 118.6177
204.7156, 122.9778
205.1977, 118.5889
205.6799, 107.6750
206.1620, 91.20239
206.6441, 68.24634
207.1262, 43.57495
207.6083, 28.54321
208.0904, 27.97314
208.5726, 27.13232
209.0547, 26.69507
209.5368, 23.92310
210.0189, 20.13525
210.5010, 15.72754
210.9831, 11.12231
211.4653, 7.010498
211.9474, 3.511475
212.4295, 16.93481
212.9116, 4.043213
213.3937, 15.25952
213.8758, 17.00439
214.3580, 17.08667
214.8401, 4.635986
215.3222, 10.36499
215.8043, 16.63013
216.2864, 2.939697
216.7685, 24.78296
217.2507, 5.602051
217.7328, 5.199219
218.2149, 3.742676
218.6970, 5.923096
219.1791, 9.893311
219.6612, 4.674805
220.1434, 8.919922
220.6255, 3.036621
221.1076, 6.222412
221.5897, 22.52905
222.0718, 17.99951
222.5539, 0.8671880
223.0361, 10.34863
223.5182, 0.9423830
224.0003, 0.5576170
224.4824, 33.73950
224.9645, 18.96509
225.4466, 15.69336
225.9288, 11.43750
226.4109, 10.02075
226.8930, 16.95654
227.3751, 32.36401
227.8572, 42.34058
228.3393, 42.20532
228.8215, 41.33325
229.3036, 42.92261
229.7857, 47.09546
230.2678, 53.88940
230.7499, 66.90869
231.2320, 83.71851
231.7142, 86.99951
232.1963, 71.05591
232.6784, 48.11035
233.1605, 15.61157
233.6426, 18.53687
234.1247, 40.22778
234.6069, 37.12891
235.0890, 18.19653
235.5711, 11.64551
236.0532, 20.65210
236.5353, 36.70752
237.0174, 60.53857
237.4996, 87.42432
237.9817, 111.2441
238.4638, 128.2195
238.9459, 142.8672
239.4280, 164.9822
239.9101, 198.0974
240.3923, 228.2424
240.8744, 246.0571
241.3565, 260.8362
241.8386, 280.7578
242.3207, 308.2192
242.8028, 340.9834
243.2850, 378.4529
243.7671, 422.1782
244.2492, 460.8687
244.7313, 487.4172
245.2134, 510.3599
245.6955, 537.9026
246.1777, 571.6582
246.6598, 601.1646
247.1419, 612.9250
247.6240, 607.2920
248.1061, 608.3245
248.5882, 621.4380
249.0704, 642.5500
249.5525, 672.3083
250.0346, 709.6367
250.5167, 740.9922
250.9988, 754.6470
251.4809, 753.7192
251.9631, 754.4653
252.4452, 760.9177
252.9273, 765.5852
253.4094, 759.0066
253.8915, 744.8882
254.3736, 737.5283
254.8558, 751.1135
255.3379, 774.9033
255.8200, 783.8838
256.3021, 773.1501
256.7842, 758.5308
257.2664, 745.6975
257.7485, 737.0234
258.2306, 739.6831
258.7127, 776.8652
259.1948, 813.5261
259.6769, 794.2051
260.1591, 712.8835
260.6412, 640.0378
261.1233, 622.3396
261.6054, 637.0303
262.0875, 639.6299
262.5696, 621.0366
263.0518, 595.2988
263.5339, 568.1274
264.0160, 540.7759
264.4981, 525.3062
264.9802, 531.7988
265.4623, 548.6284
265.9445, 554.0383
266.4266, 545.3276
266.9087, 534.0178
267.3908, 525.0935
267.8729, 517.7258
268.3550, 508.8647
268.8372, 496.2659
269.3193, 485.0312
269.8014, 485.4019
270.2835, 496.9402
270.7656, 507.7434
271.2477, 510.8401
271.7299, 510.8801
272.2120, 513.7654
272.6941, 523.8335
273.1762, 533.0674
273.6583, 532.9114
274.1404, 523.9829
274.6226, 519.7759
275.1047, 530.3184
275.5868, 543.1064
276.0689, 550.6982
276.5510, 551.5186
277.0331, 548.3711
277.5153, 544.0774
277.9974, 537.7139
278.4795, 527.3323
278.9616, 504.5608
279.4437, 486.8008
279.9258, 489.0127
280.4080, 505.7732
280.8901, 520.6294
281.3722, 527.6987
281.8543, 527.8730
282.3364, 523.4949
282.8185, 509.3572
283.3007, 503.3828
283.7828, 516.3149
284.2649, 535.2725
284.7470, 542.1597
285.2291, 530.9265
285.7112, 514.1855
286.1934, 514.4932
286.6755, 547.9370
287.1576, 566.8391
287.6397, 562.1147
288.1218, 550.2554
288.6039, 540.6025
289.0861, 535.0371
289.5682, 533.5513
290.0503, 537.5679
290.5324, 549.5439
291.0145, 555.2012
291.4966, 544.0225
291.9788, 534.3994
292.4609, 534.9697
292.9430, 543.0293
293.4251, 551.5161
293.9072, 555.8027
294.3893, 556.2715
294.8715, 555.2729
295.3536, 551.0957
295.8357, 547.6948
296.3178, 546.1079
296.7999, 545.5728
297.2820, 545.5762
297.7642, 546.0024
298.2463, 545.8188
298.7284, 542.6011
299.2105, 534.7310
299.6926, 528.1865
300.1747, 522.9336
300.6569, 519.9502
301.1390, 521.4956
301.6211, 527.4399
302.1032, 532.9951
302.5853, 530.5200
303.0674, 519.6426
303.5495, 518.2715
304.0316, 532.1748
304.5138, 551.7876
304.9959, 579.3960
305.4780, 609.4238
305.9601, 624.3833
306.4422, 603.3687
306.9243, 560.4404
307.4065, 535.2031
307.8886, 531.0005
308.3707, 535.6201
308.8528, 549.9478
309.3349, 567.0405
309.8170, 575.3892
310.2992, 567.9741
310.7813, 556.3120
311.2634, 551.6396
311.7455, 553.7769
312.2276, 559.1802
312.7097, 567.2632
313.1919, 577.4126
313.6740, 589.8022
314.1561, 606.9575
314.6382, 617.7900
315.1203, 611.9536
315.6024, 596.5137
316.0846, 586.5879
316.5667, 586.0645
317.0488, 590.1460
317.5309, 593.3359
318.0130, 595.4751
318.4951, 599.2598
318.9773, 612.5747
319.4594, 622.6138
319.9415, 612.8652
320.4236, 584.9463
320.9057, 559.8413
321.3878, 554.1211
321.8700, 566.8672
322.3521, 576.1162
322.8342, 584.2310
323.3163, 586.4995
323.7984, 578.3013
324.2805, 563.2871
324.7627, 547.7363
325.2448, 534.9551
325.7269, 525.1001
326.2090, 518.8970
326.6911, 512.6133
327.1732, 513.0435
327.6554, 526.1631
328.1375, 541.9526
328.6196, 551.7100
329.1017, 554.4126
329.5838, 556.6587
330.0659, 567.0400
330.5481, 588.4639
331.0302, 602.4561
331.5123, 594.4561
331.9944, 593.3120
332.4765, 612.8110
332.9586, 647.3647
333.4408, 683.7617
333.9229, 713.3174
334.4050, 738.4155
334.8871, 770.0913
335.3692, 817.4561
335.8513, 853.1274
336.3335, 863.6812
336.8156, 863.4512
337.2977, 865.0195
337.7798, 871.8486
338.2619, 882.4937
338.7440, 896.0957
339.2262, 912.7681
339.7083, 929.9160
340.1904, 952.0015
340.6725, 968.5752
341.1546, 971.6704
341.6367, 961.9937
342.1189, 946.9595
342.6010, 925.9644
343.0831, 903.1494
343.5652, 889.5430
344.0473, 888.2427
344.5294, 883.8848
345.0116, 859.6084
345.4937, 824.2769
345.9758, 803.3633
346.4579, 815.6328
346.9400, 827.1514
347.4221, 807.8608
347.9043, 766.4795
348.3864, 735.9292
348.8685, 732.4399
349.3506, 742.3574
349.8327, 736.2739
350.3148, 710.3027
350.7970, 681.9160
351.2791, 652.5664
351.7612, 622.9082
352.2433, 590.9824
352.7254, 557.3809
353.2076, 529.1479
353.6897, 514.3750
354.1718, 515.1138
354.6539, 512.3613
355.1360, 508.0122
355.6181, 499.0400
356.1003, 482.5581
356.5824, 460.7144
357.0645, 435.8472
357.5466, 408.3696
358.0287, 382.7656
358.5108, 374.7188
358.9930, 406.0366
359.4751, 417.1201
359.9572, 388.4561
360.4393, 349.0249
360.9214, 321.3472
361.4035, 309.3384
361.8857, 302.2188
362.3678, 287.2153
362.8499, 263.5918
363.3320, 247.1187
363.8141, 240.5112
364.2962, 238.7109
364.7784, 242.2876
365.2605, 248.2632
365.7426, 250.3555
366.2247, 244.6284
366.7068, 234.4209
367.1889, 225.4268
367.6711, 217.8511
368.1532, 208.6499
368.6353, 193.8198
369.1174, 178.5054
369.5995, 171.3364
370.0816, 175.7568
370.5638, 175.6538
371.0459, 155.6265
371.5280, 125.7046
372.0101, 108.7808
372.4922, 110.4814
372.9743, 118.2256
373.4565, 120.0459
373.9386, 115.5166
374.4207, 110.1797
374.9028, 107.6665
375.3849, 101.3735
375.8670, 82.49756
376.3492, 55.64697
376.8313, 36.11084
377.3134, 33.49805
377.7955, 40.99463
378.2776, 36.01318
378.7597, 4.129883
379.2419, 22.65723
379.7240, 43.44043
380.2061, 57.95312
380.6882, 60.94873
381.1703, 53.15625
381.6524, 46.25195
382.1346, 57.27734
382.6167, 90.51904
383.0988, 112.0522
383.5809, 123.0806
384.0630, 118.6533
384.5451, 85.57520
385.0273, 38.85889
385.5094, 3.253906
385.9915, 7.475586
386.4736, 5.152832
386.9557, 10.59326
387.4378, 24.03955
387.9200, 43.97217
388.4021, 68.46680
388.8842, 101.4092
389.3663, 150.3125
389.8484, 215.6035
390.3305, 276.4292
390.8127, 318.1763
391.2948, 347.4307
391.7769, 380.1514
392.2590, 418.5908
392.7411, 455.0908
393.2232, 480.1411
393.7054, 497.7817
394.1875, 527.0215
394.6696, 577.9277
395.1517, 631.4468
395.6338, 674.6475
396.1159, 713.1357
396.5981, 761.4146
397.0802, 825.6211
397.5623, 896.2358
398.0444, 957.1880
398.5265, 1005.244
399.0086, 1049.324
399.4908, 1088.573
399.9729, 1124.335
400.4550, 1152.694
400.9371, 1177.329
401.4192, 1209.333
401.9013, 1257.914
402.3835, 1320.454
402.8656, 1381.921
403.3477, 1446.403
403.8298, 1502.460
404.3119, 1544.121
404.7940, 1579.899
405.2762, 1616.877
405.7583, 1657.200
406.2404, 1701.183
406.7225, 1751.029
407.2046, 1806.633
407.6867, 1859.977
408.1689, 1915.553
408.6510, 1960.170
409.1331, 1976.354
409.6152, 1975.237
410.0973, 1986.426
410.5794, 2031.255
411.0616, 2082.900
411.5437, 2112.557
412.0258, 2122.303
412.5079, 2125.541
412.9900, 2124.757
413.4721, 2124.391
413.9543, 2135.830
414.4364, 2164.346
414.9185, 2183.954
415.4006, 2187.985
415.8827, 2182.127
416.3648, 2168.917
416.8470, 2150.149
417.3291, 2130.931
417.8112, 2115.134
418.2933, 2102.759
418.7754, 2093.863
419.2575, 2092.277
419.7397, 2089.746
420.2218, 2097.020
420.7039, 2097.126
421.1860, 2064.338
421.6681, 1993.544
422.1502, 1915.491
422.6324, 1875.597
423.1145, 1881.742
423.5966, 1865.479
424.0787, 1814.867
424.5608, 1750.494
425.0429, 1675.357
425.5251, 1594.322
426.0072, 1520.174
426.4893, 1463.300
426.9714, 1409.220
427.4535, 1336.237
427.9356, 1244.296
428.4178, 1153.663
428.8999, 1070.579
429.3820, 992.4585
429.8641, 914.8230
430.3462, 837.3579
430.8283, 764.0278
431.3105, 697.7007
431.7926, 634.7930
432.2747, 573.6897
432.7568, 513.3022
433.2389, 447.9602
433.7210, 371.5942
434.2032, 288.3208
434.6853, 222.6394
435.1674, 192.4353
435.6495, 157.7419
436.1316, 103.4207
436.6137, 49.18530
437.0959, 16.58374
437.5780, 8.137451
438.0601, 5.953125
438.5422, 10.78760
439.0243, 42.81396
439.5064, 61.67798
439.9886, 60.89673
440.4707, 57.56323
440.9528, 59.00317
441.4349, 60.94727
441.9170, 57.16455
442.3991, 44.60620
442.8813, 24.02051
443.3634, 3.106934
443.8455, 35.64233
444.3276, 72.10864
444.8097, 112.2415
445.2918, 156.1560
445.7740, 205.0945
446.2561, 258.5601
446.7382, 315.1592
447.2203, 377.6165
447.7024, 440.3474
448.1845, 494.8989
448.6667, 545.7166
449.1488, 607.3540
449.6309, 687.8330
450.1130, 779.1162
450.5951, 863.5762
451.0772, 928.4192
451.5594, 1009.883
452.0415, 1123.441
452.5236, 1239.464
453.0057, 1338.212
453.4878, 1421.554
453.9699, 1502.074
454.4521, 1589.599
454.9342, 1680.328
455.4163, 1760.077
455.8984, 1826.771
456.3805, 1887.687
456.8626, 1948.853
457.3448, 2001.873
457.8269, 2039.640
458.3090, 2061.307
458.7911, 2069.473
459.2732, 2066.285
459.7553, 2050.616
460.2375, 2018.397
460.7196, 1968.966
461.2017, 1909.418
461.6838, 1840.621
462.1659, 1766.011
462.6480, 1698.711
463.1302, 1651.431
463.6123, 1593.766
464.0944, 1507.587
464.5765, 1410.733
465.0586, 1325.432
465.5407, 1255.804
466.0229, 1191.430
466.5050, 1121.083
466.9871, 1043.734
467.4692, 975.8337
467.9513, 926.6875
468.4334, 876.2410
468.9156, 820.9963
469.3977, 761.6299
469.8798, 697.1392
470.3619, 626.8225
470.8440, 561.1829
471.3261, 515.8169
471.8083, 488.8523
472.2904, 451.8367
472.7725, 395.1606
473.2546, 341.8975
473.7367, 315.3213
474.2188, 305.4756
474.7010, 290.1150
475.1831, 261.5608
475.6652, 230.8752
476.1473, 206.6941
476.6294, 185.6694
477.1115, 158.0906
477.5937, 120.7935
478.0758, 83.39819
478.5579, 58.40601
479.0400, 48.42920
479.5221, 37.33447
480.0042, 24.34814
480.4864, 11.32715
480.9685, 5.175049
481.4506, 19.88184
481.9327, 22.99609
482.4148, 10.29175
482.8969, 7.834961
483.3791, 16.68042
483.8612, 15.18921
484.3433, 16.29199
484.8254, 20.55981
485.3075, 25.94775
485.7896, 29.26025
486.2718, 34.37793
486.7539, 49.09863
487.2360, 77.46484
487.7181, 110.7505
488.2002, 145.0552
488.6823, 179.1794
489.1645, 205.2090
489.6466, 219.0938
490.1287, 231.7412
490.6108, 258.4150
491.0929, 303.5161
491.5750, 336.7166
492.0572, 349.4221
492.5393, 361.3074
493.0214, 379.1970
493.5035, 401.5608
493.9856, 428.2197
494.4677, 458.9158
494.9499, 488.2661
495.4320, 507.6870
495.9141, 515.4309
496.3962, 519.6716
496.8783, 517.3694
497.3604, 514.4180
497.8426, 514.9609
498.3247, 518.0061
498.8068, 520.7988
499.2889, 523.7852
499.7710, 524.2515
500.2531, 516.9663
500.7353, 503.9204
501.2174, 495.5767
501.6995, 495.1904
502.1816, 496.9233
502.6637, 497.1355
503.1458, 497.0166
503.6280, 481.3411
504.1101, 427.8052
504.5922, 380.5234
505.0743, 366.6438
505.5564, 374.7241
506.0385, 383.9138
506.5207, 385.4980
507.0028, 381.2517
507.4849, 373.0664
507.9670, 359.3943
508.4491, 347.9065
508.9312, 335.8330
509.4134, 329.4236
509.8955, 338.7297
510.3776, 354.2422
510.8597, 355.6482
511.3418, 329.2998
511.8239, 301.4917
512.3061, 307.2839
512.7882, 337.1648
513.2703, 347.2417
513.7524, 324.6235
514.2346, 292.3184
514.7167, 272.0530
515.1988, 264.5425
515.6809, 257.1687
516.1630, 247.7134
516.6451, 240.8584
517.1273, 240.5972
517.6094, 243.2454
518.0915, 242.1511
518.5736, 235.8303
519.0557, 230.7693
519.5378, 237.9475
520.0200, 259.2532
520.5021, 265.2754
520.9842, 247.1018
521.4663, 226.0212
521.9484, 205.5286
522.4305, 189.1362
522.9127, 183.4316
523.3948, 191.7722
523.8769, 200.6689
524.3590, 199.1570
524.8411, 190.6636
525.3232, 183.0435
525.8054, 177.3962
526.2875, 171.4548
526.7696, 162.1770
527.2517, 151.0178
527.7338, 148.9014
528.2159, 167.0044
528.6981, 178.2017
529.1802, 174.1531
529.6623, 163.7781
530.1444, 154.4709
530.6265, 147.6958
531.1086, 142.6558
531.5908, 139.8572
532.0729, 137.7090
532.5550, 126.5107
533.0371, 101.1658
533.5192, 80.87012
534.0013, 77.08350
534.4835, 77.37744
534.9656, 68.75610
535.4477, 50.49414
535.9298, 36.14526
536.4119, 33.26270
536.8940, 36.04004
537.3762, 40.45264
537.8583, 44.82397
538.3404, 41.66138
538.8225, 25.59424
539.3046, 4.430176
539.7867, 3.093506
540.2689, 16.77051
540.7510, 23.78125
541.2331, 5.401123
541.7152, 14.00903
542.1973, 17.91528
542.6794, 12.85938
543.1616, 16.38477
543.6437, 38.95166
544.1258, 65.76221
544.6079, 71.84180
545.0900, 57.35669
545.5721, 44.36987
546.0543, 36.05151
546.5364, 31.12329
547.0185, 32.21094
547.5006, 36.70166
547.9827, 33.06812
548.4648, 6.991699
548.9469, 13.14868
549.4290, 3.559570
549.9111, 16.94751
550.3932, 15.73828
550.8754, 12.94141
551.3575, 44.26562
551.8396, 51.39551
552.3217, 34.93555
552.8038, 31.17944
553.2859, 52.72412
553.7681, 67.51245
554.2502, 59.64722
554.7323, 47.46045
555.2144, 50.37842
555.6965, 70.64331
556.1786, 90.90723
556.6608, 96.25293
557.1429, 95.60327
557.6250, 104.9272
558.1071, 124.5698
558.5892, 149.5957
559.0714, 180.1235
559.5535, 210.3206
560.0356, 226.2087
560.5177, 211.4409
560.9998, 219.5957
561.4819, 273.2549
561.9641, 329.2805
562.4462, 362.4312
562.9283, 378.0925
563.4104, 391.5012
563.8925, 409.5884
564.3746, 431.5530
564.8568, 457.1975
565.3389, 486.5745
565.8210, 515.0769
566.3031, 539.0076
566.7852, 567.4844
567.2673, 608.0540
567.7495, 658.3459
568.2316, 714.1589
568.7137, 778.7981
569.1958, 843.2065
569.6779, 901.2676
570.1600, 957.6025
570.6422, 1016.953
571.1243, 1080.982
571.6064, 1153.960
572.0885, 1240.368
572.5706, 1338.781
573.0527, 1439.244
573.5349, 1548.708
574.0170, 1647.616
574.4991, 1713.510
574.9812, 1783.890
575.4633, 1891.012
575.9454, 2031.513
576.4276, 2174.072
576.9097, 2304.197
577.3918, 2426.869
577.8739, 2542.745
578.3560, 2654.466
578.8381, 2781.043
579.3203, 2931.196
579.8024, 3086.180
580.2845, 3222.677
580.7666, 3341.336
581.2487, 3435.433
581.7308, 3503.431
582.2130, 3553.500
582.6951, 3587.099
583.1772, 3603.534
583.6593, 3600.251
584.1414, 3577.494
584.6235, 3542.039
585.1057, 3504.220
585.5878, 3460.013
586.0699, 3390.849
586.5520, 3295.041
587.0341, 3182.801
587.5162, 3052.607
587.9984, 2912.264
588.4805, 2773.982
588.9626, 2635.559
589.4447, 2507.053
589.9268, 2387.232
590.4089, 2279.401
590.8911, 2192.812
591.3732, 2119.177
591.8553, 2040.006
592.3374, 1946.853
592.8195, 1849.751
593.3016, 1764.733
593.7838, 1692.472
594.2659, 1628.266
594.7480, 1579.283
595.2301, 1526.700
595.7122, 1449.844
596.1943, 1365.173
596.6765, 1301.291
597.1586, 1265.888
597.6407, 1237.950
598.1228, 1214.015
598.6049, 1190.173
599.0870, 1160.594
599.5692, 1125.249
600.0513, 1091.107
600.5334, 1062.486
601.0155, 1037.218
601.4976, 1009.764
601.9797, 980.6162
602.4619, 948.2256
602.9440, 911.2925
603.4261, 874.4805
603.9082, 839.2888
604.3903, 805.5627
604.8724, 772.4053
605.3546, 738.0356
605.8367, 707.5156
606.3188, 690.5576
606.8009, 679.2061
607.2830, 657.9102
607.7651, 623.4387
608.2473, 582.4146
608.7294, 537.5959
609.2115, 491.4993
609.6936, 461.4849
610.1757, 465.0337
610.6578, 455.8259
611.1400, 419.5085
611.6221, 380.3840
612.1042, 354.0889
612.5863, 338.9102
613.0684, 326.0393
613.5505, 313.0684
614.0327, 297.2458
614.5148, 272.3950
614.9969, 241.4629
615.4790, 216.8018
615.9611, 201.4458
616.4432, 188.5979
616.9254, 172.0305
617.4075, 152.2954
617.8896, 136.6519
618.3717, 128.0305
618.8538, 119.5671
619.3359, 110.1812
619.8181, 100.9546
620.3002, 92.92700
620.7823, 85.98096
621.2644, 79.11670
621.7465, 71.61304
622.2286, 64.01514
622.7108, 56.00806
623.1929, 48.05029
623.6750, 45.34790
624.1571, 50.02246
624.6392, 57.11914
625.1213, 63.69214
625.6035, 69.46191
626.0856, 65.27954
626.5677, 42.80908
627.0498, 22.39575
627.5319, 4.491943
628.0140, 7.048584
628.4962, 5.634521
628.9783, 6.777588
629.4604, 20.47046
629.9425, 30.91895
630.4246, 35.76807
630.9067, 25.70654
631.3889, 1.449463
631.8710, 12.18237
632.3531, 6.697998
632.8352, 4.183838
633.3173, 7.846680
633.7994, 4.283691
634.2816, 0.3125000
634.7637, 14.78052
635.2458, 19.08911
635.7279, 4.787842
636.2100, 32.67529
636.6921, 37.67432
637.1743, 20.66260
637.6564, 4.557861
638.1385, 7.506104
638.6206, 19.07129
639.1027, 12.83203
639.5848, 11.20630
640.0670, 22.67041
640.5491, 11.85962
641.0312, 6.874268
641.5133, 21.68213
641.9954, 32.44238
642.4775, 40.27612
642.9597, 41.35059
643.4418, 44.48413
643.9239, 57.51221
644.4060, 69.77393
644.8881, 68.82690
645.3702, 55.92114
645.8524, 42.28369
646.3345, 34.25195
646.8166, 32.35815
647.2987, 39.48608
647.7808, 55.38403
648.2629, 71.76099
648.7451, 88.48511
649.2272, 100.2725
649.7093, 99.10376
650.1914, 87.34766
650.6735, 87.10010
651.1556, 111.1069
651.6378, 129.0305
652.1199, 131.1221
652.6020, 127.8337
653.0841, 125.5977
653.5662, 126.4768
654.0483, 132.2346
654.5305, 143.9944
655.0126, 160.9790
655.4947, 187.6626
655.9768, 221.8906
656.4589, 234.7205
656.9410, 215.9683
657.4232, 197.0161
657.9053, 202.5442
658.3874, 228.1414
658.8695, 249.9453
659.3516, 268.6746
659.8337, 283.1885
660.3159, 284.1108
660.7980, 288.7495
661.2801, 315.1409
661.7622, 355.6309
662.2443, 388.3452
662.7264, 401.8135
663.2086, 407.7786
663.6907, 417.0894
664.1728, 430.9158
664.6549, 457.1689
665.1370, 497.9011
665.6191, 539.5244
666.1013, 570.9998
666.5834, 599.0889
667.0655, 645.7334
667.5476, 734.3279
668.0297, 799.7422
668.5118, 826.3176
668.9940, 845.3901
669.4761, 867.8726
669.9582, 896.1545
670.4403, 931.3638
670.9224, 973.7803
671.4045, 1025.788
671.8867, 1097.121
672.3688, 1177.411
672.8509, 1239.621
673.3330, 1283.659
673.8151, 1336.783
674.2972, 1413.934
674.7794, 1505.097
675.2615, 1591.614
675.7436, 1672.731
676.2257, 1750.744
676.7078, 1821.534
677.1899, 1895.603
677.6721, 1976.948
678.1542, 2062.673
678.6363, 2147.180
679.1184, 2229.798
679.6005, 2318.089
680.0826, 2418.685
680.5648, 2526.925
681.0469, 2637.396
681.5290, 2749.677
682.0111, 2859.195
682.4932, 2962.381
682.9753, 3067.224
683.4575, 3186.802
683.9396, 3321.630
684.4217, 3447.098
684.9038, 3559.743
685.3859, 3669.337
685.8680, 3785.841
686.3502, 3893.306
686.8323, 3975.978
687.3144, 4036.800
687.7965, 4098.996
688.2786, 4176.171
688.7607, 4251.171
689.2429, 4315.217
689.7250, 4365.592
690.2071, 4404.081
690.6892, 4430.147
691.1713, 4434.517
691.6534, 4407.714
692.1356, 4354.605
692.6177, 4292.920
693.0998, 4223.309
693.5819, 4145.587
694.0640, 4061.586
694.5461, 3965.993
695.0283, 3854.405
695.5104, 3727.802
695.9925, 3586.106
696.4746, 3412.541
696.9567, 3249.110
697.4388, 3113.413
697.9210, 2989.328
698.4031, 2867.696
698.8852, 2744.054
699.3673, 2611.361
699.8494, 2465.202
700.3315, 2320.615
700.8137, 2199.236
701.2958, 2098.447
701.7779, 1999.959
702.2600, 1901.445
702.7421, 1802.828
703.2242, 1703.297
703.7064, 1606.222
704.1885, 1517.590
704.6706, 1440.497
705.1527, 1363.017
705.6348, 1283.700
706.1169, 1206.634
706.5991, 1132.986
707.0812, 1062.224
707.5633, 991.9807
708.0454, 922.0034
708.5275, 859.1206
709.0096, 808.8779
709.4918, 767.5303
709.9739, 730.4707
710.4560, 697.5518
710.9381, 669.0557
711.4202, 645.0918
711.9023, 624.4812
712.3845, 607.1414
712.8666, 592.2043
713.3487, 567.7539
713.8308, 526.1831
714.3129, 491.4197
714.7950, 474.3000
715.2772, 459.8750
715.7593, 435.8604
716.2414, 405.5095
716.7235, 381.8005
717.2056, 370.3926
717.6877, 361.8044
718.1699, 353.1592
718.6520, 343.8713
719.1341, 333.9934
719.6162, 322.8997
720.0983, 307.5933
720.5804, 285.8945
721.0626, 264.1436
721.5447, 255.9812
722.0268, 260.3289
722.5089, 254.2583
722.9910, 233.2859
723.4731, 215.2339
723.9553, 211.0261
724.4374, 213.7737
724.9195, 209.6575
725.4016, 195.2874
725.8837, 184.6858
726.3658, 181.3611
726.8480, 177.9548
727.3301, 173.4641
727.8122, 166.2595
728.2943, 152.1621
728.7764, 131.6355
729.2585, 114.7437
729.7407, 111.2571
730.2228, 113.1167
730.7049, 110.4355
731.1870, 103.8835
731.6691, 93.72412
732.1512, 80.27148
732.6334, 71.38867
733.1155, 75.55054
733.5976, 89.13452
734.0797, 91.93896
734.5618, 78.98608
735.0439, 69.42285
735.5261, 67.82544
736.0082, 67.75684
736.4903, 67.20312
736.9724, 64.79248
737.4545, 56.89087
737.9366, 41.04199
738.4188, 24.54736
738.9009, 2.598633
739.3830, 12.92993
739.8651, 5.825928
740.3472, 14.73779
740.8293, 28.01538
741.3115, 26.09253
741.7936, 16.15210
742.2757, 1.443115
742.7578, 14.49194
743.2399, 15.54590
743.7220, 1.534912
744.2042, 5.420166
744.6863, 3.365723
745.1684, 19.84229
745.6505, 36.29175
746.1326, 53.01294
746.6147, 57.64697
747.0969, 38.24805
747.5790, 23.88818
748.0611, 23.42114
748.5432, 24.98242
749.0253, 18.52222
749.5074, 6.090820
749.9896, 3.234863
750.4717, 6.333984
750.9538, 6.329346
751.4359, 4.969727
751.9180, 1.692383
752.4001, 6.831543
752.8823, 18.36450
753.3644, 23.56934
753.8465, 17.38818
754.3286, 8.611572
754.8107, 13.69873
755.2928, 31.05396
755.7750, 37.20996
756.2571, 29.82324
756.7392, 20.12720
757.2213, 11.16235
757.7034, 4.517334
758.1855, 3.559326
758.6677, 10.07275
759.1498, 9.091309
759.6319, 9.805176
760.1140, 22.02856
760.5961, 13.10083
761.0782, 2.046143
761.5604, 7.266113
762.0425, 26.96631
762.5246, 46.74854
763.0067, 62.37012
763.4888, 72.45020
763.9709, 72.17139
764.4531, 67.30615
764.9352, 67.76025
765.4173, 73.54004
765.8994, 78.02051
766.3815, 77.41772
766.8636, 75.29932
767.3458, 77.92627
767.8279, 85.25098
768.3100, 90.66943
768.7921, 93.21118
769.2742, 97.46362
769.7563, 103.8303
770.2385, 114.0667
770.7206, 133.8611
771.2027, 165.9734
771.6848, 181.2407
772.1669, 161.1482
772.6490, 150.4370
773.1312, 163.7917
773.6133, 186.9558
774.0954, 210.6423
774.5775, 232.6528
775.0596, 251.2004
775.5417, 265.9607
776.0239, 275.5923
776.5060, 270.8931
776.9881, 264.3638
777.4702, 278.9299
777.9523, 312.1460
778.4344, 344.4817
778.9166, 366.1846
779.3987, 380.8406
779.8808, 390.5181
780.3629, 395.6262
780.8450, 407.9788
781.3271, 428.3865
781.8093, 452.7917
782.2914, 482.4534
782.7735, 511.0564
783.2556, 529.5789
783.7377, 537.4932
784.2198, 548.9592
784.7020, 558.7305
785.1841, 579.1006
785.6662, 623.1084
786.1483, 668.3381
786.6304, 701.3386
787.1125, 721.1704
787.5947, 727.8340
788.0768, 713.9727
788.5589, 708.2505
789.0410, 740.0210
789.5231, 781.1589
790.0052, 797.3103
790.4874, 793.9875
790.9695, 795.9636
791.4516, 812.7327
791.9337, 832.2483
792.4158, 840.2595
792.8979, 839.4836
793.3801, 841.4915
793.8622, 846.3413
794.3443, 853.5662
794.8264, 863.7136
795.3085, 873.3147
795.7906, 878.7000
796.2728, 880.4297
796.7549, 882.8967
797.2370, 890.3472
797.7191, 892.6587
798.2012, 889.0410
798.6833, 880.8486
799.1655, 865.3367
799.6476, 845.6643
800.1297, 826.5173
800.6118, 807.4910
801.0939, 794.8882
801.5760, 800.5264
802.0582, 804.6226
802.5403, 790.5005
803.0224, 765.4067
803.5045, 742.5947
803.9866, 724.2690
804.4688, 703.9819
804.9509, 678.2920
805.4330, 648.3179
805.9151, 610.5479
806.3972, 569.2661
806.8793, 543.1675
807.3615, 534.7881
807.8436, 528.4907
808.3257, 514.2993
808.8078, 494.4082
809.2899, 475.0679
809.7720, 458.0391
810.2542, 425.9512
810.7363, 364.3911
811.2184, 323.2900
811.7005, 337.7432
812.1826, 368.9282
812.6647, 362.5781
813.1469, 316.4814
813.6290, 278.7749
814.1111, 258.0830
814.5932, 238.1597
815.0753, 209.8901
815.5574, 185.3613
816.0396, 179.5981
816.5217, 184.8232
817.0038, 179.1416
817.4859, 152.7739
817.9680, 126.8872
818.4501, 112.3340
818.9323, 107.1387
819.4144, 120.6362
819.8965, 141.8081
820.3786, 138.0889
820.8607, 100.5601
821.3428, 57.40918
821.8250, 36.58057
822.3071, 31.38770
822.7892, 23.74854
823.2713, 13.67773
823.7534, 0.8247070
824.2355, 15.30811
824.7177, 30.33350
825.1998, 40.47070
825.6819, 47.91748
826.1640, 59.88721
826.6461, 79.64941
827.1282, 94.05957
827.6104, 102.6494
828.0925, 106.3701
828.5746, 98.46387
829.0567, 90.35498
829.5388, 99.53271
830.0209, 126.8169
830.5031, 144.9595
830.9852, 145.4561
831.4673, 143.0044
831.9494, 142.9004
832.4315, 141.3916
832.9136, 134.9580
833.3958, 123.9678
833.8779, 110.7495
834.3600, 96.55957
834.8421, 78.45508
835.3242, 53.96484
835.8063, 24.48877
836.2885, 14.92578
836.7706, 57.31689
837.2527, 78.32617
837.7348, 73.21680
838.2169, 76.53711
838.6990, 125.7412
839.1812, 203.9976
839.6633, 263.1343
840.1454, 305.1743
840.6275, 358.3101
841.1096, 428.3345
841.5917, 500.0938
842.0739, 563.7056
842.5560, 621.5991
843.0381, 679.2173
843.5202, 733.9111
844.0023, 799.8979
844.4844, 884.2676
844.9666, 966.5352
845.4487, 1040.610
845.9308, 1108.220
846.4129, 1168.534
846.8950, 1222.237
847.3771, 1283.178
847.8593, 1355.805
848.3414, 1430.177
848.8235, 1518.021
849.3056, 1594.807
849.7877, 1637.754
850.2698, 1658.129
850.7520, 1681.482
851.2341, 1715.361
851.7162, 1744.331
852.1983, 1762.076
852.6804, 1769.774
853.1625, 1763.411
853.6447, 1749.987
854.1268, 1740.530
854.6089, 1737.125
855.0910, 1738.048
855.5731, 1747.092
856.0552, 1746.875
856.5374, 1697.609
857.0195, 1619.420
857.5016, 1579.473
857.9837, 1579.209
858.4658, 1568.551
858.9479, 1523.454
859.4301, 1466.820
859.9122, 1430.636
860.3943, 1412.574
860.8764, 1385.676
861.3585, 1348.192
861.8406, 1314.432
862.3228, 1288.008
862.8049, 1265.614
863.2870, 1247.070
863.7691, 1228.918
864.2512, 1197.018
864.7333, 1135.203
865.2155, 1096.335
865.6976, 1091.083
866.1797, 1095.206
866.6618, 1101.912
867.1439, 1112.019
867.6260, 1124.383
868.1082, 1139.468
868.5903, 1166.552
869.0724, 1212.705
869.5545, 1263.771
870.0366, 1310.432
870.5187, 1364.554
871.0009, 1430.123
871.4830, 1511.972
871.9651, 1617.853
872.4472, 1750.647
872.9293, 1902.839
873.4114, 2072.836
873.8936, 2257.355
874.3757, 2455.905
874.8578, 2666.459
875.3399, 2884.172
875.8220, 3110.973
876.3041, 3356.909
876.7863, 3627.572
877.2684, 3924.723
877.7505, 4264.829
878.2326, 4631.121
878.7147, 4963.493
879.1968, 5265.909
879.6790, 5599.550
880.1611, 5988.456
880.6432, 6400.477
881.1253, 6793.914
881.6074, 7174.148
882.0895, 7562.814
882.5717, 7959.681
883.0538, 8375.148
883.5359, 8816.253
884.0180, 9241.817
884.5001, 9617.015
884.9822, 9966.975
885.4644, 10342.71
885.9465, 10751.56
886.4286, 11148.04
886.9107, 11533.65
887.3928, 11900.76
887.8749, 12246.46
888.3571, 12571.15
888.8392, 12884.08
889.3213, 13178.90
889.8034, 13419.95
890.2855, 13593.16
890.7676, 13734.23
891.2498, 13814.37
891.7319, 13896.67
892.2140, 14041.90
892.6961, 14191.48
893.1782, 14264.60
893.6603, 14253.13
894.1425, 14213.74
894.6246, 14154.04
895.1067, 14082.62
895.5888, 14019.82
896.0709, 13934.54
896.5530, 13775.19
897.0352, 13570.33
897.5173, 13404.74
897.9994, 13310.60
898.4815, 13193.95
898.9636, 12975.94
899.4457, 12711.95
899.9279, 12452.23
900.4100, 12195.73
900.8921, 11932.86
901.3742, 11665.16
901.8563, 11410.00
902.3384, 11180.96
902.8206, 10954.81
903.3027, 10703.07
903.7848, 10429.89
904.2669, 10145.57
904.7490, 9850.688
905.2311, 9550.732
905.7133, 9246.846
906.1954, 8960.135
906.6775, 8714.429
907.1596, 8494.976
907.6417, 8259.759
908.1238, 8009.870
908.6060, 7757.419
909.0881, 7503.384
909.5702, 7259.885
910.0523, 7034.930
910.5344, 6819.975
911.0165, 6604.039
911.4987, 6387.749
911.9808, 6179.486
912.4629, 5978.944
912.9450, 5785.824
913.4271, 5598.076
913.9092, 5419.345
914.3914, 5253.713
914.8735, 5099.004
915.3556, 4946.311
915.8377, 4791.502
916.3198, 4660.518
916.8019, 4574.522
917.2841, 4479.151
917.7662, 4346.565
918.2483, 4210.303
918.7304, 4090.644
919.2125, 3990.058
919.6946, 3920.512
920.1768, 3906.637
920.6589, 3876.460
921.1410, 3815.801
921.6231, 3747.972
922.1052, 3671.165
922.5873, 3600.666
923.0695, 3555.453
923.5516, 3534.395
924.0337, 3516.229
924.5158, 3490.622
924.9979, 3472.756
925.4800, 3479.205
925.9622, 3484.971
926.4443, 3463.386
926.9264, 3429.876
927.4085, 3414.229
927.8906, 3422.398
928.3727, 3433.950
928.8549, 3445.029
929.3370, 3451.263
929.8191, 3442.616
930.3012, 3431.779
930.7833, 3430.343
931.2654, 3441.033
931.7476, 3468.434
932.2297, 3513.358
932.7118, 3555.508
933.1939, 3576.102
933.6760, 3592.376
934.1581, 3626.076
934.6403, 3669.108
935.1224, 3700.460
935.6045, 3722.616
936.0866, 3762.420
936.5687, 3835.736
937.0508, 3918.287
937.5330, 3978.211
938.0151, 4027.561
938.4972, 4089.612
938.9793, 4163.472
939.4614, 4244.393
939.9435, 4330.494
940.4257, 4419.978
940.9078, 4513.509
941.3899, 4603.081
941.8720, 4666.271
942.3541, 4713.535
942.8362, 4793.422
943.3184, 4904.878
943.8005, 5015.573
944.2826, 5114.578
944.7647, 5200.997
945.2468, 5273.898
945.7289, 5333.723
946.2111, 5384.937
946.6932, 5426.745
947.1753, 5438.658
947.6574, 5418.886
948.1395, 5367.048
948.6216, 5280.402
949.1038, 5178.082
949.5859, 5085.602
950.0680, 4994.379
950.5501, 4855.332
951.0322, 4662.966
951.5143, 4470.085
951.9965, 4285.958
952.4786, 4085.549
952.9607, 3853.998
953.4428, 3610.160
953.9249, 3381.128
954.4070, 3167.626
954.8892, 2953.322
955.3713, 2739.618
955.8534, 2522.681
956.3355, 2297.102
956.8176, 2081.537
957.2997, 1882.164
957.7819, 1701.096
958.2640, 1543.384
958.7461, 1411.516
959.2282, 1278.107
959.7103, 1136.929
960.1924, 1005.693
960.6746, 888.4143
961.1567, 780.0515
961.6388, 677.2087
962.1209, 581.3066
962.6030, 497.6064
963.0851, 429.9885
963.5673, 357.2898
964.0494, 262.4006
964.5315, 188.5591
965.0136, 155.2605
965.4957, 134.8132
965.9778, 110.1650
966.4600, 83.12598
966.9421, 57.40063
967.4242, 32.55493
967.9063, 10.56787
968.3884, 5.442627
968.8705, 23.10034
969.3527, 53.22949
969.8348, 77.86938
970.3169, 75.67871
970.7990, 56.89355
971.2811, 54.41162
971.7632, 79.93188
972.2454, 94.39795
972.7275, 79.90479
973.2096, 70.37109
973.6917, 83.15234
974.1738, 102.0449
974.6559, 113.5330
975.1381, 117.6704
975.6202, 117.7590
976.1023, 113.4531
976.5844, 107.8481
977.0665, 101.7725
977.5486, 94.51489
978.0308, 80.21729
978.5129, 68.44238
978.9950, 73.34131
979.4771, 90.48389
979.9592, 98.72778
980.4413, 90.21411
980.9235, 81.06494
981.4056, 77.39917
981.8877, 72.80273
982.3698, 60.74609
982.8519, 47.93188
983.3340, 44.94800
983.8162, 49.19141
984.2983, 45.60034
984.7804, 27.79492
985.2625, 8.267822
985.7446, 16.52832
986.2267, 33.10962
986.7089, 26.31665
987.1910, 11.32080
987.6731, 7.808350
988.1552, 15.02783
988.6373, 16.84375
989.1194, 0.7456050
989.6016, 2.843994
990.0837, 34.14209
990.5658, 70.55347
991.0479, 74.49854
991.5300, 64.56079
992.0121, 64.54980
992.4943, 76.55908
992.9764, 92.21704
993.4585, 111.7383
993.9406, 127.1433
994.4227, 134.9387
994.9048, 137.3040
995.3870, 132.5012
995.8691, 125.1301
996.3512, 119.1538
996.8333, 116.2437
997.3154, 119.9465
997.7975, 133.2188
998.2797, 149.0818
998.7618, 170.2410
999.2439, 186.5393
999.7260, 186.7654
1000.208, 180.0803
1000.690, 177.5103
1001.172, 180.8352
1001.654, 189.0547
1002.137, 203.5669
1002.619, 218.3130
1003.101, 232.6527
1003.583, 243.8250
1004.065, 248.4912
1004.547, 249.6619
1005.029, 251.7158
1005.511, 254.5127
1005.994, 253.3972
1006.476, 242.1855
1006.958, 239.9099
1007.440, 264.6775
1007.922, 291.7061
1008.404, 306.9122
1008.886, 312.3624
1009.368, 308.8755
1009.850, 299.0599
1010.333, 290.6196
1010.815, 285.6246
1011.297, 283.6543
1011.779, 282.2788
1012.261, 286.3040
1012.743, 304.6229
1013.225, 326.0596
1013.707, 334.6978
1014.190, 333.4255
1014.672, 340.5084
1015.154, 366.5479
1015.636, 382.9666
1016.118, 368.7943
1016.600, 352.8496
1017.082, 349.1488
1017.564, 354.3479
1018.046, 369.7834
1018.529, 389.7316
1019.011, 396.8878
1019.493, 382.9961
1019.975, 372.0990
1020.457, 373.8046
1020.939, 378.8447
1021.421, 381.3464
1021.903, 385.9408
1022.385, 402.4247
1022.868, 424.5015
1023.350, 433.1698
1023.832, 422.2145
1024.314, 410.1865
1024.796, 392.9763
1025.278, 387.5386
1025.760, 414.8760
1026.242, 444.0289
1026.725, 443.2710
1027.207, 423.1733
1027.689, 417.0427
1028.171, 435.2100
1028.653, 443.5320
1029.135, 424.5558
1029.617, 405.1403
1030.099, 393.1201
1030.582, 387.7026
1031.064, 390.6984
1031.546, 395.7328
1032.028, 392.0198
1032.510, 377.9697
1032.992, 366.9542
1033.474, 356.0530
1033.956, 355.0555
1034.438, 380.1227
1034.921, 401.2385
1035.403, 393.8612
1035.885, 374.3318
1036.367, 373.7069
1036.849, 394.3191
1037.331, 390.0796
1037.813, 327.9563
1038.295, 291.9165
1038.777, 306.4805
1039.260, 327.1149
1039.742, 339.8129
1040.224, 342.9683
1040.706, 329.3193
1041.188, 299.6887
1041.670, 285.3119
1042.152, 297.6409
1042.634, 303.9329
1043.116, 299.8081
1043.599, 294.5487
1044.081, 287.8220
1044.563, 283.4492
1045.045, 287.7736
1045.527, 299.5823
1046.009, 308.6244
1046.491, 316.1644
1046.973, 313.2760
1047.456, 293.6003
1047.938, 284.0989
1048.420, 294.3313
1048.902, 311.5613
1049.384, 326.0347
1049.866, 338.2668
1050.348, 349.1494
1050.830, 358.9846
1051.313, 367.0000
1051.795, 373.4242
1052.277, 373.0742
1052.759, 362.2715
1053.241, 356.1272
1053.723, 366.1705
1054.205, 385.2388
1054.687, 402.2280
1055.169, 417.4978
1055.651, 418.9641
1056.134, 404.8107
1056.616, 397.7347
1057.098, 402.0875
1057.580, 413.4819
1058.062, 429.7739
1058.544, 446.9094
1059.026, 458.6355
1059.508, 467.2522
1059.991, 482.0665
1060.473, 500.5774
1060.955, 508.0059
1061.437, 504.3231
1061.919, 507.3557
1062.401, 524.9187
1062.883, 546.8105
1063.365, 563.6953
1063.848, 575.0265
1064.330, 575.8630
1064.812, 571.4492
1065.294, 578.6169
1065.776, 595.4727
1066.258, 608.8756
1066.740, 614.8599
1067.222, 618.2947
1067.704, 623.3635
1068.187, 625.8171
1068.669, 613.8032
1069.151, 599.8937
1069.633, 608.0803
1070.115, 629.6519
1070.597, 645.7198
1071.079, 651.7139
1071.561, 648.9297
1072.043, 636.9773
1072.526, 622.3616
1073.008, 610.6323
1073.490, 598.4233
1073.972, 582.2672
1074.454, 563.4463
1074.936, 541.7922
1075.418, 519.6752
1075.900, 504.7040
1076.383, 500.0796
1076.865, 488.0837
1077.347, 452.3667
1077.829, 416.5981
1078.311, 395.3831
1078.793, 378.0249
1079.275, 353.0216
1079.757, 325.8502
1080.240, 308.5894
1080.722, 302.6530
1081.204, 294.6587
1081.686, 281.7190
1082.168, 266.0078
1082.650, 249.7637
1083.132, 228.7253
1083.614, 188.9088
1084.096, 151.4694
1084.578, 148.5542
1085.061, 174.4099
1085.543, 182.1592
1086.025, 161.1781
1086.507, 144.5524
1086.989, 134.7593
1087.471, 124.9103
1087.953, 109.8451
1088.435, 99.11304
1088.918, 105.2531
1089.400, 117.3300
1089.882, 104.8324
1090.364, 62.67615
1090.846, 48.37012
1091.328, 69.57092
1091.810, 83.36096
1092.292, 80.78406
1092.775, 76.79053
1093.257, 80.03650
1093.739, 83.92664
1094.221, 79.79395
1094.703, 68.17737
1095.185, 51.47009
1095.667, 30.71472
1096.149, 17.44348
1096.631, 13.10999
1097.114, 23.88916
1097.596, 51.48657
1098.078, 71.21960
1098.560, 60.05969
1099.042, 35.29395
1099.524, 28.06079
1100.006, 31.43896
1100.488, 25.58472
1100.970, 14.52112
1101.453, 16.35217
1101.935, 31.17712
1102.417, 40.29297
1102.899, 34.16272
1103.381, 22.62659
1103.863, 9.744751
1104.345, 1.215576
1104.827, 6.797729
1105.310, 18.44702
1105.792, 26.48657
1106.274, 30.18579
1106.756, 31.45459
1107.238, 30.80750
1107.720, 27.61169
1108.202, 15.94312
1108.684, 9.524170
1109.167, 25.13074
1109.649, 37.18518
1110.131, 19.05945
1110.613, 8.330078
1111.095, 12.88586
1111.577, 2.490723
1112.059, 6.024780
1112.541, 17.19958
1113.023, 27.53284
1113.505, 7.289673
1113.988, 7.615234
1114.470, 2.666626
1114.952, 3.394897
1115.434, 8.591309
1115.916, 25.96924
1116.398, 19.25134
1116.880, 14.20239
1117.362, 28.32947
1117.845, 20.96741
1118.327, 2.368286
1118.809, 49.68469
1119.291, 73.95325
1119.773, 49.08557
1120.255, 11.87244
1120.737, 3.511475
1121.219, 15.88098
1121.702, 24.16589
1122.184, 28.80908
1122.666, 33.47327
1123.148, 38.22656
1123.630, 42.67773
1124.112, 46.42822
1124.594, 45.81116
1125.076, 37.90161
1125.558, 30.77271
1126.041, 37.89014
1126.523, 50.32886
1127.005, 53.75732
1127.487, 50.22974
1127.969, 40.51648
1128.451, 28.40833
1128.933, 24.03418
1129.415, 29.53149
1129.897, 33.21802
1130.380, 26.42810
1130.862, 19.19580
1131.344, 16.76587
1131.826, 16.82898
1132.308, 14.84863
1132.790, 14.07874
1133.272, 21.94373
1133.754, 35.09058
1134.237, 38.25537
1134.719, 24.70081
1135.201, 19.66650
1135.683, 39.06921
1136.165, 48.43921
1136.647, 24.65955
1137.129, 3.713379
1137.611, 7.458984
1138.094, 24.17346
1138.576, 39.66870
1139.058, 53.68225
1139.540, 53.27039
1140.022, 33.88147
1140.504, 18.39929
1140.986, 8.778809
1141.468, 1.006226
1141.950, 3.160034
1142.432, 0.4165040
1142.915, 23.42444
1143.397, 50.43982
1143.879, 43.97693
1144.361, 11.61353
1144.843, 6.861206
1145.325, 6.517944
1145.807, 4.563965
1146.289, 20.01831
1146.772, 24.93164
1147.254, 12.85034
1147.736, 2.024658
1148.218, 10.02002
1148.700, 23.23804
1149.182, 31.00854
1149.664, 33.48853
1150.146, 28.57202
1150.629, 18.96899
1151.111, 3.919678
1151.593, 12.40698
1152.075, 11.35571
1152.557, 19.22217
1153.039, 43.05762
1153.521, 46.48315
1154.003, 41.09277
1154.485, 16.96484
1154.968, 2.295410
1155.450, 8.469971
1155.932, 31.23389
1156.414, 34.20288
1156.896, 18.15991
1157.378, 10.66431
1157.860, 16.30640
1158.342, 13.61011
1158.824, 1.396484
1159.307, 1.900391
1159.789, 21.31567
1160.271, 46.45386
1160.753, 56.72168
1161.235, 54.29541
1161.717, 37.55737
1162.199, 14.68237
1162.681, 13.82788
1163.164, 26.71973
1163.646, 33.08472
1164.128, 35.40967
1164.610, 34.86035
1165.092, 34.00464
1165.574, 26.55566
1166.056, 16.26221
1166.538, 8.147217
1167.021, 16.97900
1167.503, 27.24976
1167.985, 16.19434
1168.467, 0.5585940
1168.949, 6.863525
1169.431, 30.90894
1169.913, 43.13184
1170.395, 20.97363
1170.877, 5.764893
1171.359, 0.0000000E+00
##END=



