##NAMES=Lannonite
##RRUFFID=R090036
##IDEAL CHEMISTRY=HCa_4_Mg_2_Al_4_(SO_4_)_8_F_9_&#183;32H_2_O
##LOCALITY=Lone Pine mine, Catron County, New Mexico, USA
##OWNER=RRUFF
##SOURCE=Bob Jenkins
##DESCRIPTION=Transparent colorless thin square tabular crystals on matrix
##STATUS=The identification of this mineral has been confirmed by single-crystal X-ray diffraction.
##URL=rruff.info/R090036
170.1825, 0.0000000E+00
170.6646, 2.2705000E-02
171.1467, 0.7995610
171.6288, 1.944824
172.1109, 3.294189
172.5931, 4.549072
173.0752, 5.644531
173.5573, 6.447754
174.0394, 6.762939
174.5215, 5.750488
175.0036, 4.548584
175.4858, 4.707764
175.9679, 6.166992
176.4500, 7.463135
176.9321, 6.510010
177.4142, 4.231201
177.8963, 2.950195
178.3785, 4.628174
178.8606, 7.631104
179.3427, 9.518311
179.8248, 11.21118
180.3069, 11.63647
180.7890, 10.27417
181.2712, 8.237549
181.7533, 6.711914
182.2354, 7.617676
182.7175, 11.09619
183.1996, 12.57739
183.6818, 13.61035
184.1639, 13.98926
184.6460, 12.69067
185.1281, 10.10352
185.6102, 8.312500
186.0923, 9.481445
186.5745, 12.38696
187.0566, 12.77930
187.5387, 10.17188
188.0208, 6.356201
188.5029, 3.174805
188.9850, 0.7849120
189.4672, 0.6691890
189.9493, 0.1813960
190.4314, 1.796631
190.9135, 2.737793
191.3956, 2.282959
191.8777, 1.407471
192.3599, 2.102783
192.8420, 4.373047
193.3241, 5.771729
193.8062, 4.031006
194.2883, 0.4477540
194.7704, 2.582520
195.2526, 1.758301
195.7347, 0.6694340
196.2168, 2.245117
196.6989, 2.835205
197.1810, 3.601074
197.6632, 5.575195
198.1453, 8.773438
198.6274, 10.40698
199.1095, 10.03735
199.5916, 8.494385
200.0737, 7.440186
200.5559, 6.957275
201.0380, 6.597900
201.5201, 6.182617
202.0022, 5.761475
202.4843, 5.290527
202.9664, 5.110596
203.4486, 4.930420
203.9307, 4.601074
204.4128, 4.458984
204.8949, 4.848633
205.3770, 5.987061
205.8591, 7.771973
206.3413, 8.163574
206.8234, 6.030518
207.3055, 3.198486
207.7876, 3.300781
208.2697, 7.156982
208.7519, 11.19653
209.2340, 13.55908
209.7161, 13.99414
210.1982, 13.75659
210.6803, 12.65991
211.1624, 11.06055
211.6446, 9.804932
212.1267, 8.731445
212.6088, 8.497803
213.0909, 10.04419
213.5730, 14.46704
214.0551, 16.46021
214.5373, 15.07397
215.0194, 11.46655
215.5015, 8.755371
215.9836, 6.949219
216.4657, 6.095215
216.9478, 6.556396
217.4300, 9.156250
217.9121, 10.16431
218.3942, 8.488281
218.8763, 5.354004
219.3584, 4.738525
219.8405, 8.007568
220.3227, 11.10693
220.8048, 11.74609
221.2869, 8.763428
221.7690, 6.546387
222.2511, 5.264893
222.7333, 4.818848
223.2154, 5.150146
223.6975, 7.158691
224.1796, 8.532959
224.6617, 7.886719
225.1438, 3.968262
225.6260, 1.595703
226.1081, 1.489502
226.5902, 2.937256
227.0723, 3.847656
227.5544, 4.200195
228.0365, 4.225586
228.5187, 3.872070
229.0008, 2.808350
229.4829, 2.112061
229.9650, 1.812988
230.4471, 1.803955
230.9292, 1.820068
231.4114, 1.612793
231.8935, 1.663330
232.3756, 2.223633
232.8577, 3.718994
233.3398, 4.611084
233.8220, 4.868896
234.3041, 4.489990
234.7862, 3.279785
235.2683, 0.2463380
235.7504, 2.044434
236.2325, 2.205811
236.7147, 1.240967
237.1968, 3.143799
237.6789, 3.166748
238.1610, 1.920410
238.6431, 0.6118160
239.1252, 0.8059080
239.6074, 2.050049
240.0895, 3.024414
240.5716, 3.777832
241.0537, 4.072266
241.5358, 3.966309
242.0179, 3.385986
242.5001, 2.024902
242.9822, 0.9116210
243.4643, 0.7477983
243.9464, -5.8727521E-02
244.4285, 1.186768
244.9106, 0.4809570
245.3928, 2.370605
245.8749, 5.413086
246.3570, 7.118652
246.8391, 6.934326
247.3212, 6.099365
247.8034, 4.877930
248.2855, 2.932861
248.7676, 2.346680
249.2497, 3.979492
249.7318, 6.368164
250.2139, 7.180176
250.6961, 5.354004
251.1782, 4.046875
251.6603, 4.546143
252.1424, 7.361816
252.6245, 8.441650
253.1066, 7.431641
253.5888, 5.532959
254.0709, 4.021729
254.5530, 2.905273
255.0351, 2.055664
255.5172, 1.164551
255.9993, 4.9072001E-02
256.4815, 1.009277
256.9636, 5.646484
257.4457, 10.57349
257.9278, 11.40869
258.4099, 5.657471
258.8921, 1.584717
259.3742, 1.855713
259.8563, 6.560791
260.3384, 8.482666
260.8205, 6.224365
261.3026, 3.013916
261.7848, 2.276367
262.2669, 5.101563
262.7490, 7.320068
263.2311, 7.659180
263.7132, 6.330078
264.1953, 6.946289
264.6775, 10.49048
265.1596, 14.33154
265.6417, 15.94678
266.1238, 14.50000
266.6059, 13.72266
267.0880, 14.25757
267.5702, 16.00195
268.0523, 18.57153
268.5344, 22.99683
269.0165, 26.21387
269.4986, 25.04077
269.9807, 17.91211
270.4629, 13.50635
270.9450, 13.61377
271.4271, 17.09692
271.9092, 19.44775
272.3913, 20.49414
272.8734, 20.86548
273.3556, 20.66235
273.8377, 19.65430
274.3198, 19.66138
274.8019, 21.21411
275.2840, 23.61255
275.7661, 24.79492
276.2483, 24.43481
276.7304, 24.15625
277.2125, 24.89600
277.6946, 26.71606
278.1768, 29.00024
278.6589, 32.07178
279.1410, 35.16064
279.6231, 36.31958
280.1052, 35.27002
280.5873, 34.44067
281.0695, 35.87476
281.5516, 39.53491
282.0337, 40.02930
282.5158, 36.43945
282.9979, 31.35669
283.4800, 28.69727
283.9622, 28.49951
284.4443, 29.55859
284.9264, 32.11768
285.4085, 35.80762
285.8906, 37.32520
286.3727, 36.14453
286.8549, 34.54443
287.3370, 35.98657
287.8191, 40.28589
288.3012, 43.86401
288.7833, 45.32080
289.2654, 45.01440
289.7476, 44.01270
290.2297, 42.25171
290.7118, 40.48096
291.1939, 39.73535
291.6760, 39.83960
292.1581, 39.61548
292.6403, 38.82446
293.1224, 37.44482
293.6045, 35.19702
294.0866, 32.22607
294.5687, 29.20361
295.0508, 26.08472
295.5330, 23.03345
296.0151, 20.67261
296.4972, 19.19751
296.9793, 18.31030
297.4614, 17.63794
297.9435, 17.19580
298.4257, 17.03906
298.9078, 17.58423
299.3899, 18.45288
299.8720, 18.63452
300.3541, 17.73242
300.8362, 16.80664
301.3184, 17.18042
301.8005, 18.57080
302.2826, 19.75073
302.7647, 19.52661
303.2469, 18.79590
303.7290, 19.11401
304.2111, 20.94019
304.6932, 22.62354
305.1753, 21.61597
305.6574, 19.08740
306.1396, 17.82593
306.6217, 21.38354
307.1038, 25.76318
307.5859, 26.05200
308.0680, 21.55103
308.5501, 17.11597
309.0323, 16.97729
309.5144, 19.24170
309.9965, 20.88599
310.4786, 20.09204
310.9607, 18.66968
311.4428, 17.75732
311.9250, 17.39941
312.4071, 17.65137
312.8892, 19.12817
313.3713, 21.03174
313.8534, 22.58423
314.3355, 22.92114
314.8177, 23.25342
315.2998, 24.38232
315.7819, 26.12671
316.2640, 27.52905
316.7461, 27.34839
317.2282, 27.05127
317.7104, 27.91675
318.1925, 31.78125
318.6746, 34.43311
319.1567, 34.11548
319.6388, 31.48438
320.1209, 28.24927
320.6031, 23.17188
321.0852, 19.00928
321.5673, 17.44800
322.0494, 19.94604
322.5315, 21.75659
323.0136, 21.58350
323.4958, 20.38232
323.9779, 19.71313
324.4600, 20.72607
324.9421, 21.48584
325.4242, 21.41528
325.9064, 20.30127
326.3885, 19.35327
326.8706, 18.86987
327.3527, 18.54883
327.8348, 18.07056
328.3170, 16.29932
328.7991, 15.57080
329.2812, 16.62915
329.7633, 19.51733
330.2454, 21.71753
330.7275, 22.93481
331.2097, 23.55664
331.6918, 23.74683
332.1739, 22.71069
332.6560, 22.40015
333.1381, 23.13281
333.6202, 24.68164
334.1024, 26.14893
334.5845, 27.74170
335.0666, 28.85229
335.5487, 29.25732
336.0308, 29.14868
336.5129, 27.73022
336.9951, 24.52637
337.4772, 20.44165
337.9593, 17.05688
338.4414, 14.32495
338.9235, 12.72803
339.4056, 13.10107
339.8878, 15.77124
340.3699, 16.23242
340.8520, 13.83643
341.3341, 10.55591
341.8162, 8.984863
342.2983, 9.269043
342.7805, 9.580322
343.2626, 9.186279
343.7447, 8.279541
344.2268, 8.082764
344.7089, 8.629883
345.1910, 9.306885
345.6732, 9.442139
346.1553, 9.086426
346.6374, 8.889893
347.1195, 9.177246
347.6016, 9.451660
348.0837, 8.274902
348.5659, 5.780518
349.0480, 3.907471
349.5301, 4.433838
350.0122, 6.659668
350.4944, 8.689697
350.9765, 10.26587
351.4586, 11.89233
351.9407, 15.09814
352.4228, 19.10376
352.9049, 21.24561
353.3871, 18.65137
353.8692, 14.08032
354.3513, 11.04956
354.8334, 9.682861
355.3155, 9.029297
355.7976, 7.961182
356.2798, 7.133545
356.7619, 7.629395
357.2440, 10.76465
357.7261, 14.54785
358.2082, 17.97852
358.6903, 20.92969
359.1725, 22.72900
359.6546, 22.30347
360.1367, 20.88379
360.6188, 19.49707
361.1009, 18.23560
361.5830, 17.29834
362.0652, 17.08667
362.5473, 17.30615
363.0294, 17.21631
363.5115, 16.40015
363.9936, 15.39795
364.4757, 14.59619
364.9579, 14.30444
365.4400, 13.48511
365.9221, 10.61450
366.4042, 7.564209
366.8863, 6.696777
367.3684, 11.81299
367.8506, 15.70093
368.3327, 16.49756
368.8148, 13.95020
369.2969, 10.93286
369.7790, 6.663574
370.2611, 2.511963
370.7433, 0.6049800
371.2254, 2.583740
371.7075, 3.677246
372.1896, 3.610352
372.6717, 2.675537
373.1538, 2.050293
373.6360, 1.934814
374.1181, 1.893555
374.6002, 1.781250
375.0823, 1.658691
375.5645, 1.248535
376.0466, 0.3525390
376.5287, 0.5886230
377.0108, 0.8178710
377.4929, 0.2490230
377.9750, 0.6442870
378.4572, 2.076904
378.9393, 3.826416
379.4214, 3.391357
379.9035, 0.2446290
380.3856, 2.941406
380.8677, 2.582520
381.3499, 0.9355470
381.8320, 2.331543
382.3141, 0.2124020
382.7962, 4.687012
383.2783, 6.891846
383.7604, 6.895996
384.2426, 6.523926
384.7247, 6.818604
385.2068, 7.603271
385.6889, 8.655273
386.1710, 10.00903
386.6531, 11.24634
387.1353, 12.11060
387.6174, 12.54443
388.0995, 12.41797
388.5816, 10.90796
389.0637, 9.316895
389.5458, 9.598145
390.0280, 11.74146
390.5101, 12.94629
390.9922, 9.324951
391.4743, 4.586670
391.9564, 3.048828
392.4385, 9.466309
392.9207, 15.13257
393.4028, 14.40234
393.8849, 9.096191
394.3670, 4.656006
394.8491, 3.017090
395.3312, 2.896484
395.8134, 3.868896
396.2955, 6.505859
396.7776, 8.402100
397.2597, 8.257080
397.7418, 7.284668
398.2239, 7.079834
398.7061, 8.991455
399.1882, 10.53442
399.6703, 11.21338
400.1524, 11.03247
400.6346, 10.18042
401.1167, 7.492920
401.5988, 5.161621
402.0809, 4.783936
402.5630, 7.737793
403.0451, 9.910889
403.5273, 10.80347
404.0094, 10.74536
404.4915, 10.63550
404.9736, 10.42969
405.4557, 10.15894
405.9378, 9.784424
406.4200, 9.270264
406.9021, 9.024658
407.3842, 9.264893
407.8663, 9.289795
408.3484, 7.912354
408.8305, 5.126709
409.3127, 2.903564
409.7948, 2.068848
410.2769, 2.107910
410.7590, 1.364746
411.2411, 0.1203610
411.7232, 1.226563
412.2054, 0.7141110
412.6875, 0.8806150
413.1696, 1.917969
413.6517, 2.062744
414.1338, 1.987061
414.6159, 2.311768
415.0981, 2.981934
415.5802, 3.900635
416.0623, 4.625977
416.5444, 5.707764
417.0265, 7.986084
417.5086, 11.44385
417.9908, 14.52856
418.4729, 15.91284
418.9550, 16.47974
419.4371, 17.15161
419.9192, 18.43774
420.4013, 19.58325
420.8835, 19.65991
421.3656, 19.26416
421.8477, 20.19409
422.3298, 25.09155
422.8119, 29.77124
423.2940, 32.27710
423.7762, 31.85376
424.2583, 31.02026
424.7404, 29.49097
425.2225, 27.94849
425.7047, 27.10474
426.1868, 26.59058
426.6689, 27.32788
427.1510, 29.92603
427.6331, 34.18140
428.1152, 37.89087
428.5974, 41.15991
429.0795, 43.69067
429.5616, 45.19092
430.0437, 45.29077
430.5258, 46.51807
431.0079, 49.67139
431.4901, 53.39673
431.9722, 54.72656
432.4543, 53.31250
432.9364, 52.85840
433.4185, 55.28198
433.9006, 59.86401
434.3828, 63.09644
434.8649, 64.89722
435.3470, 66.58447
435.8291, 70.26978
436.3112, 74.86523
436.7933, 76.50659
437.2755, 73.45654
437.7576, 69.67578
438.2397, 70.90063
438.7218, 75.82812
439.2039, 80.01855
439.6860, 79.23169
440.1682, 77.65894
440.6503, 80.00659
441.1324, 86.71948
441.6145, 92.99463
442.0966, 95.25146
442.5787, 95.71338
443.0609, 96.79639
443.5430, 100.4573
444.0251, 103.4138
444.5072, 103.6453
444.9893, 101.9824
445.4714, 101.5225
445.9536, 103.7673
446.4357, 106.7080
446.9178, 109.5203
447.3999, 112.0554
447.8820, 114.9597
448.3641, 119.0237
448.8463, 123.1792
449.3284, 126.2766
449.8105, 127.7395
450.2926, 129.3015
450.7747, 131.1443
451.2569, 133.3242
451.7390, 136.1846
452.2211, 139.9897
452.7032, 143.7522
453.1853, 146.9089
453.6674, 149.4167
454.1496, 151.3967
454.6317, 153.0024
455.1138, 153.5847
455.5959, 151.6331
456.0780, 147.3506
456.5602, 143.4929
457.0423, 141.9780
457.5244, 140.9421
458.0065, 136.2935
458.4886, 128.3188
458.9707, 119.3386
459.4529, 111.1763
459.9350, 103.2046
460.4171, 94.64404
460.8992, 85.06396
461.3813, 76.00049
461.8634, 68.57935
462.3456, 62.43579
462.8277, 57.10742
463.3098, 52.00024
463.7919, 47.86011
464.2740, 45.55176
464.7561, 44.91943
465.2383, 43.87671
465.7204, 41.31763
466.2025, 38.38208
466.6846, 35.75146
467.1667, 33.39111
467.6488, 31.41431
468.1310, 29.36768
468.6131, 27.78296
469.0952, 27.54834
469.5773, 29.26978
470.0594, 31.37183
470.5415, 33.83350
471.0237, 36.57397
471.5058, 38.08887
471.9879, 38.57690
472.4700, 37.56958
472.9521, 33.71118
473.4342, 26.47949
473.9164, 22.09302
474.3985, 21.70142
474.8806, 23.54810
475.3627, 24.79248
475.8448, 25.32031
476.3270, 24.98169
476.8091, 23.24512
477.2912, 20.98755
477.7733, 19.62988
478.2554, 18.99048
478.7375, 18.69775
479.2197, 18.78052
479.7018, 18.94873
480.1839, 18.76050
480.6660, 18.00854
481.1481, 17.22192
481.6302, 16.98486
482.1124, 16.91479
482.5945, 16.36353
483.0766, 14.76147
483.5587, 12.92993
484.0408, 11.00073
484.5229, 9.018311
485.0051, 7.641846
485.4872, 8.403809
485.9693, 8.789795
486.4514, 7.075928
486.9335, 0.2297360
487.4156, 3.420898
487.8978, 0.1765140
488.3799, 6.496582
488.8620, 9.010498
489.3441, 6.214600
489.8262, 3.414551
490.3083, 1.989258
490.7905, 1.752686
491.2726, 1.332275
491.7547, 0.7385250
492.2368, 4.6631001E-02
492.7189, 1.434082
493.2010, 3.221191
493.6832, 3.868408
494.1653, 3.259766
494.6474, 1.528076
495.1295, 1.876465
495.6116, 6.358887
496.0938, 10.22559
496.5759, 13.56006
497.0580, 15.31006
497.5401, 13.14526
498.0222, 7.817139
498.5044, 3.282471
498.9865, 1.508789
499.4686, 1.606445
499.9507, 3.397217
500.4328, 7.593750
500.9149, 10.60229
501.3971, 10.73340
501.8792, 9.256836
502.3613, 7.652344
502.8434, 5.395996
503.3255, 3.883057
503.8076, 3.787598
504.2898, 4.709717
504.7719, 4.792725
505.2540, 3.250244
505.7361, 1.937744
506.2182, 1.652832
506.7003, 2.519043
507.1825, 3.688721
507.6646, 5.502441
508.1467, 6.914795
508.6288, 6.440674
509.1109, 4.115234
509.5930, 2.190674
510.0752, 1.124756
510.5573, 0.7727050
511.0394, 1.150635
511.5215, 2.147705
512.0037, 2.928711
512.4858, 2.744873
512.9679, 2.208984
513.4500, 2.166992
513.9321, 2.639404
514.4142, 3.317383
514.8964, 4.779541
515.3785, 5.942871
515.8606, 5.415527
516.3427, 1.400635
516.8248, 1.797119
517.3069, 1.990967
517.7891, 0.3178710
518.2712, 1.132080
518.7533, 2.177246
519.2354, 2.654541
519.7175, 2.140137
520.1996, 0.6723630
520.6818, 6.9335997E-02
521.1639, 0.7045900
521.6460, 1.767822
522.1281, 2.838135
522.6102, 3.971436
523.0923, 5.003174
523.5745, 6.065186
524.0566, 6.800049
524.5387, 6.370117
525.0208, 4.774902
525.5029, 3.718506
525.9850, 3.609131
526.4672, 4.415527
526.9493, 7.037354
527.4314, 11.14014
527.9135, 13.64233
528.3956, 11.84302
528.8777, 7.687988
529.3599, 3.249268
529.8420, 1.443848
530.3241, 0.1758484
530.8062, -0.8333503
531.2883, 1.040771
531.7704, 0.1342770
532.2526, 2.284668
532.7347, 4.287354
533.2168, 4.236572
533.6989, 2.877197
534.1810, 1.965088
534.6631, 3.263916
535.1453, 3.400146
535.6274, 0.7333980
536.1095, 4.923584
536.5916, 7.900391
537.0737, 7.118408
537.5558, 5.374268
538.0380, 4.226807
538.5201, 3.530273
539.0022, 4.594971
539.4843, 7.912109
539.9664, 11.91846
540.4485, 14.29150
540.9307, 15.13013
541.4128, 15.45483
541.8949, 15.40601
542.3770, 15.12915
542.8591, 14.58105
543.3412, 13.87061
543.8234, 13.68091
544.3055, 14.99512
544.7876, 16.56592
545.2697, 17.07349
545.7518, 16.70288
546.2339, 16.25928
546.7161, 16.22827
547.1982, 16.27539
547.6803, 16.11328
548.1624, 15.52466
548.6445, 15.02490
549.1266, 14.78223
549.6088, 14.75659
550.0909, 14.92700
550.5730, 16.28003
551.0551, 16.23096
551.5372, 13.47729
552.0193, 8.599609
552.5015, 6.917480
552.9836, 9.179199
553.4657, 12.11108
553.9478, 13.70874
554.4299, 14.04175
554.9120, 13.87622
555.3942, 13.11255
555.8763, 12.34229
556.3584, 11.57080
556.8405, 11.25562
557.3226, 12.97314
557.8047, 18.74023
558.2869, 24.32495
558.7690, 25.22949
559.2511, 22.82935
559.7332, 20.58569
560.2154, 19.12720
560.6975, 19.08911
561.1796, 21.62378
561.6617, 26.85400
562.1439, 30.79297
562.6260, 32.85107
563.1081, 33.26880
563.5902, 32.12305
564.0723, 28.02368
564.5544, 25.38696
565.0366, 24.62402
565.5187, 24.85303
566.0008, 24.72827
566.4829, 23.97339
566.9650, 24.46606
567.4471, 27.30908
567.9293, 30.87744
568.4114, 30.42188
568.8935, 26.21753
569.3756, 22.21924
569.8577, 21.06787
570.3398, 21.41821
570.8220, 20.92407
571.3041, 19.56689
571.7862, 18.33325
572.2683, 18.26636
572.7504, 18.50513
573.2325, 18.20557
573.7147, 17.17920
574.1968, 15.75513
574.6789, 13.54297
575.1610, 11.18628
575.6431, 9.425781
576.1252, 8.743652
576.6074, 8.183105
577.0895, 7.686768
577.5716, 7.247559
578.0537, 6.669189
578.5358, 5.653809
579.0179, 5.266846
579.5001, 6.140869
579.9822, 8.150391
580.4643, 9.320801
580.9464, 9.508789
581.4285, 9.714600
581.9106, 10.86816
582.3928, 12.74414
582.8749, 14.67969
583.3570, 16.64600
583.8391, 18.36768
584.3212, 19.66431
584.8033, 20.51978
585.2855, 20.90210
585.7676, 19.87842
586.2497, 19.37720
586.7318, 20.90405
587.2139, 23.75830
587.6960, 25.81689
588.1782, 26.12109
588.6603, 26.07007
589.1424, 25.94629
589.6245, 25.62769
590.1066, 25.70044
590.5887, 26.99805
591.0709, 27.53760
591.5530, 25.45044
592.0351, 20.00073
592.5172, 17.12476
592.9993, 17.48096
593.4814, 19.43823
593.9636, 21.46436
594.4457, 23.25220
594.9278, 23.24414
595.4099, 20.39307
595.8920, 16.90552
596.3741, 16.05542
596.8563, 16.94946
597.3384, 17.18896
597.8205, 13.73364
598.3026, 10.89038
598.7847, 12.37280
599.2668, 17.68652
599.7490, 21.68799
600.2311, 22.19263
600.7132, 21.46338
601.1953, 20.28564
601.6774, 18.00122
602.1595, 17.56274
602.6417, 19.94238
603.1238, 22.88550
603.6059, 24.35522
604.0880, 24.19019
604.5701, 23.19507
605.0522, 21.26123
605.5344, 18.88135
606.0165, 16.49854
606.4986, 14.28882
606.9807, 13.69922
607.4628, 16.83472
607.9449, 20.45239
608.4271, 19.06055
608.9092, 13.91504
609.3913, 9.838623
609.8735, 11.02637
610.3556, 13.11060
610.8377, 12.46289
611.3198, 8.717285
611.8019, 7.048340
612.2841, 11.81567
612.7662, 16.90967
613.2483, 18.07910
613.7304, 12.28101
614.2125, 9.388184
614.6946, 10.43408
615.1768, 13.15161
615.6589, 14.69849
616.1410, 14.78076
616.6231, 15.87891
617.1052, 18.76099
617.5873, 22.34058
618.0695, 24.62378
618.5516, 25.69409
619.0337, 25.91968
619.5158, 24.44165
619.9979, 22.75977
620.4800, 23.21265
620.9622, 25.42969
621.4443, 27.38037
621.9264, 27.78931
622.4085, 27.76343
622.8906, 27.77319
623.3727, 27.75684
623.8549, 28.48853
624.3370, 30.94629
624.8191, 33.50879
625.3012, 35.03564
625.7833, 34.89233
626.2654, 35.06006
626.7476, 35.64233
627.2297, 36.33252
627.7118, 36.86426
628.1939, 37.25342
628.6760, 36.94849
629.1581, 35.63135
629.6403, 33.99170
630.1224, 33.49561
630.6045, 33.81177
631.0866, 33.56250
631.5687, 31.51636
632.0508, 29.08228
632.5330, 27.56665
633.0151, 26.88477
633.4972, 26.32861
633.9793, 26.15601
634.4614, 25.58936
634.9435, 23.74707
635.4257, 19.97827
635.9078, 18.25439
636.3899, 19.54468
636.8720, 21.76123
637.3541, 23.62915
637.8362, 25.23828
638.3184, 25.97949
638.8005, 25.66699
639.2826, 25.12524
639.7647, 25.21875
640.2468, 25.73022
640.7289, 26.80811
641.2111, 29.10303
641.6932, 30.99219
642.1753, 29.70044
642.6574, 26.40161
643.1395, 23.78247
643.6216, 22.92407
644.1038, 23.16772
644.5859, 24.61401
645.0680, 26.97778
645.5501, 29.03979
646.0322, 31.14917
646.5143, 32.23608
646.9965, 31.48120
647.4786, 28.69556
647.9607, 27.78198
648.4428, 29.92139
648.9249, 31.52441
649.4070, 29.50000
649.8892, 23.97656
650.3713, 20.45679
650.8534, 19.28809
651.3355, 19.20386
651.8176, 19.34961
652.2997, 19.49414
652.7819, 18.99390
653.2640, 17.39014
653.7461, 16.00049
654.2282, 16.47559
654.7103, 17.67114
655.1924, 17.88940
655.6746, 16.23657
656.1567, 13.97192
656.6388, 10.87842
657.1209, 7.436035
657.6030, 4.919678
658.0851, 3.107910
658.5673, 2.738525
659.0494, 4.729980
659.5316, 8.425049
660.0137, 9.420410
660.4958, 7.495361
660.9779, 5.328125
661.4600, 4.419434
661.9421, 4.485107
662.4243, 4.810547
662.9064, 5.379395
663.3885, 6.300781
663.8706, 8.559326
664.3527, 10.60693
664.8348, 10.41577
665.3170, 6.888916
665.7991, 4.467041
666.2812, 5.783447
666.7633, 8.258545
667.2454, 9.423340
667.7275, 8.254395
668.2097, 7.366699
668.6918, 6.708008
669.1739, 6.491455
669.6560, 7.638184
670.1381, 10.46289
670.6202, 11.07983
671.1024, 7.857178
671.5845, 3.032959
672.0666, 0.3242190
672.5487, 0.4272460
673.0308, 0.2690430
673.5129, 3.901367
673.9951, 7.515869
674.4772, 8.531494
674.9593, 7.276855
675.4414, 5.244141
675.9235, 1.050049
676.4056, 2.007568
676.8878, 1.707764
677.3699, 2.285156
677.8520, 4.549561
678.3341, 3.985352
678.8162, 3.308105
679.2983, 4.217529
679.7805, 6.855957
680.2626, 8.869873
680.7447, 10.22119
681.2268, 11.00903
681.7089, 11.49097
682.1910, 11.46069
682.6732, 10.09937
683.1553, 7.061035
683.6374, 3.993164
684.1195, 1.622803
684.6016, 0.2807620
685.0837, 0.1672360
685.5659, 2.725830
686.0480, 4.851318
686.5301, 6.170410
687.0122, 6.544922
687.4943, 5.542969
687.9764, 1.644531
688.4586, 0.2375490
688.9407, 1.370361
689.4228, 5.056641
689.9049, 7.179443
690.3870, 7.768555
690.8691, 7.524902
691.3513, 6.712158
691.8334, 5.393066
692.3155, 3.222412
692.7976, 2.924202
693.2797, 1.635498
693.7618, 1.832520
694.2440, 1.529053
694.7261, 1.471191
695.2082, 1.705811
695.6903, 2.505127
696.1724, 5.337158
696.6545, 7.333008
697.1367, 6.804199
697.6188, 3.152344
698.1009, 1.078857
698.5830, 1.208984
699.0651, 1.403076
699.5472, 0.5148930
700.0294, 4.176758
700.5115, 6.409424
700.9936, 6.872070
701.4757, 6.486084
701.9578, 5.425049
702.4399, 4.293945
702.9221, 4.141846
703.4042, 5.500732
703.8863, 6.840576
704.3684, 7.434814
704.8505, 7.486816
705.3326, 7.248291
705.8148, 5.970215
706.2969, 5.497314
706.7790, 6.468994
707.2611, 8.020996
707.7432, 8.728516
708.2253, 8.651611
708.7075, 7.540527
709.1896, 4.968750
709.6718, 1.932129
710.1539, 0.3442380
710.6360, 0.1105960
711.1181, 0.7023930
711.6002, 2.588867
712.0823, 4.667236
712.5645, 6.340088
713.0466, 7.498291
713.5287, 7.715332
714.0108, 5.565430
714.4929, 3.635254
714.9750, 2.952881
715.4572, 3.409668
715.9393, 4.380615
716.4214, 6.236816
716.9035, 7.728027
717.3856, 8.208984
717.8677, 7.705566
718.3499, 6.679688
718.8320, 5.089844
719.3141, 3.416748
719.7962, 1.666504
720.2783, 0.2143550
720.7604, 0.2023930
721.2426, 0.3933110
721.7247, 1.264893
722.2068, 2.194092
722.6889, 3.273193
723.1710, 4.808350
723.6531, 7.672852
724.1353, 8.665283
724.6174, 6.325684
725.0995, 3.458984
725.5816, 2.480713
726.0637, 3.678955
726.5458, 4.773926
727.0280, 5.364014
727.5101, 6.562012
727.9922, 11.39111
728.4743, 17.97583
728.9564, 20.53833
729.4385, 16.50122
729.9207, 11.35986
730.4028, 9.424072
730.8849, 9.170654
731.3670, 8.662109
731.8491, 5.525879
732.3312, 3.630127
732.8134, 4.931641
733.2955, 7.722656
733.7776, 9.351563
734.2597, 9.652100
734.7418, 9.235107
735.2239, 8.115967
735.7061, 6.551025
736.1882, 4.984863
736.6703, 3.492188
737.1524, 2.603027
737.6345, 2.992920
738.1166, 3.628906
738.5988, 2.827393
739.0809, 1.267822
739.5630, 0.8964840
740.0451, 4.797119
740.5272, 7.759033
741.0093, 6.428955
741.4915, 1.710938
741.9736, 0.2192380
742.4557, 2.238037
742.9378, 4.237305
743.4199, 3.641846
743.9020, 1.088867
744.3842, 0.5100100
744.8663, 1.891602
745.3484, 3.490479
745.8305, 4.702148
746.3126, 5.255615
746.7947, 4.132324
747.2769, 1.622559
747.7590, 0.1215820
748.2411, 1.958252
748.7232, 4.417236
749.2053, 5.914307
749.6874, 6.227295
750.1696, 6.503174
750.6517, 6.451416
751.1338, 6.721680
751.6159, 8.244141
752.0980, 11.17358
752.5801, 11.04443
753.0623, 7.400879
753.5444, 4.336670
754.0265, 5.558105
754.5086, 8.895752
754.9907, 10.71069
755.4728, 10.75586
755.9550, 10.06763
756.4371, 8.508057
756.9192, 6.870605
757.4013, 5.947998
757.8835, 6.167969
758.3656, 6.006104
758.8477, 5.150879
759.3298, 4.216553
759.8120, 3.653564
760.2941, 3.508057
760.7762, 3.883301
761.2583, 4.968262
761.7404, 5.957520
762.2225, 5.914795
762.7047, 5.134277
763.1868, 4.176514
763.6689, 3.091309
764.1510, 2.184814
764.6331, 1.490479
765.1152, 1.191650
765.5974, 1.449951
766.0795, 2.585449
766.5616, 3.802490
767.0437, 4.910889
767.5258, 6.101807
768.0079, 7.895264
768.4901, 10.49341
768.9722, 11.10864
769.4543, 8.747314
769.9364, 5.842529
770.4185, 6.201172
770.9006, 8.641113
771.3828, 10.04761
771.8649, 8.902588
772.3470, 7.956543
772.8291, 9.680176
773.3112, 12.56323
773.7933, 14.51465
774.2755, 16.07251
774.7576, 15.32373
775.2397, 10.69263
775.7218, 4.888672
776.2039, 2.591309
776.6860, 4.354492
777.1682, 4.739746
777.6503, 2.125244
778.1324, 1.090576
778.6145, 0.5629880
779.0966, 2.468262
779.5787, 4.470459
780.0609, 3.763672
780.5430, 2.524170
781.0251, 1.502197
781.5072, 0.8706050
781.9893, 0.9323730
782.4714, 2.508545
782.9536, 3.853516
783.4357, 4.913818
783.9178, 5.599609
784.3999, 5.555908
784.8820, 4.737305
785.3641, 4.080078
785.8463, 3.797607
786.3284, 3.872070
786.8105, 4.995117
787.2926, 6.444336
787.7747, 6.409668
788.2568, 1.482910
788.7390, 2.439941
789.2211, 1.625977
789.7032, 2.175049
790.1853, 4.819824
790.6674, 5.234375
791.1495, 5.382324
791.6317, 5.421875
792.1138, 5.498291
792.5959, 6.201416
793.0780, 7.554443
793.5601, 8.343750
794.0422, 8.150391
794.5244, 7.293213
795.0065, 5.654785
795.4886, 3.736084
795.9707, 2.728516
796.4528, 4.475830
796.9349, 5.840088
797.4171, 5.272949
797.8992, 3.475098
798.3813, 2.088623
798.8634, 1.237549
799.3455, 0.8928220
799.8276, 0.8044430
800.3098, 1.398438
800.7919, 4.133301
801.2740, 8.646484
801.7561, 11.39624
802.2382, 10.38989
802.7203, 7.866943
803.2025, 5.415771
803.6846, 3.277588
804.1667, 1.843262
804.6488, 1.288818
805.1309, 1.534912
805.6130, 3.608154
806.0952, 6.377930
806.5773, 6.612549
807.0594, 3.054443
807.5416, 1.581543
808.0237, 4.486084
808.5058, 9.260498
808.9879, 10.83276
809.4700, 9.547119
809.9521, 6.739746
810.4343, 0.9291990
810.9164, 3.724854
811.3985, 2.572266
811.8806, 2.041992
812.3627, 5.150635
812.8448, 3.420166
813.3270, 2.706055
813.8091, 4.452881
814.2912, 7.504639
814.7733, 9.536621
815.2554, 10.54834
815.7375, 10.39111
816.2197, 8.680176
816.7018, 6.381348
817.1839, 4.876953
817.6660, 4.093506
818.1481, 3.962402
818.6302, 5.388428
819.1124, 6.328125
819.5945, 5.103516
820.0766, 2.928467
820.5587, 2.269775
821.0408, 4.752441
821.5229, 5.752197
822.0051, 3.829590
822.4872, 1.187500
822.9693, 2.774658
823.4514, 7.991943
823.9335, 10.51538
824.4156, 7.677979
824.8978, 3.827881
825.3799, 3.409424
825.8620, 5.136963
826.3441, 6.942139
826.8262, 8.778564
827.3083, 9.751465
827.7905, 8.744629
828.2726, 7.156250
828.7547, 6.662109
829.2368, 7.389160
829.7189, 8.835449
830.2010, 11.14087
830.6832, 13.63818
831.1653, 16.23901
831.6474, 18.29004
832.1295, 17.63843
832.6116, 12.89453
833.0938, 8.088379
833.5759, 6.042969
834.0580, 5.280762
834.5401, 4.141602
835.0222, 1.850098
835.5043, 0.1020510
835.9865, 2.314941
836.4686, 3.469971
836.9507, 1.205322
837.4328, 4.177490
837.9149, 6.271484
838.3970, 3.953857
838.8792, 1.049072
839.3613, 1.787598
839.8434, 4.229736
840.3255, 5.706543
840.8076, 5.477295
841.2897, 5.107422
841.7719, 4.706543
842.2540, 4.596924
842.7361, 5.040527
843.2182, 6.175293
843.7003, 7.316406
844.1824, 8.592773
844.6646, 9.337158
845.1467, 8.588867
845.6288, 6.886719
846.1109, 5.465332
846.5930, 4.259033
847.0751, 3.697510
847.5573, 4.938965
848.0394, 6.151855
848.5215, 5.764160
849.0036, 3.186768
849.4857, 1.981934
849.9678, 2.866211
850.4500, 4.056152
850.9321, 4.744629
851.4142, 4.933838
851.8963, 4.234619
852.3784, 2.692627
852.8605, 1.512207
853.3427, 2.391602
853.8248, 3.548340
854.3069, 2.404541
854.7890, 0.7233890
855.2711, 2.105957
855.7532, 1.559082
856.2354, 5.014160
856.7175, 6.425781
857.1996, 5.962891
857.6818, 4.575439
858.1639, 1.960449
858.6460, 0.4963380
859.1281, 2.165771
859.6102, 4.938721
860.0923, 4.430420
860.5745, 1.598389
861.0566, 0.2116700
861.5387, 2.207031
862.0208, 4.320801
862.5029, 3.528320
862.9850, 0.8688960
863.4672, 8.8134997E-02
863.9493, 1.459717
864.4314, 2.685547
864.9135, 2.868164
865.3956, 2.867432
865.8777, 4.811279
866.3599, 7.786133
866.8420, 8.381836
867.3241, 3.820801
867.8062, 0.2165530
868.2883, 1.084473
868.7704, 5.053223
869.2526, 8.337402
869.7347, 9.523682
870.2168, 10.96606
870.6989, 13.17676
871.1810, 15.06567
871.6631, 14.66943
872.1453, 12.16846
872.6274, 11.50269
873.1095, 13.65479
873.5916, 15.51611
874.0737, 13.06177
874.5558, 8.853027
875.0380, 6.114014
875.5201, 5.930420
876.0022, 5.837891
876.4843, 5.480469
876.9664, 4.936279
877.4485, 4.218262
877.9307, 3.300781
878.4128, 2.522217
878.8949, 1.908691
879.3770, 1.375000
879.8591, 0.5849610
880.3412, 6.2011998E-02
880.8234, 0.3623050
881.3055, 1.844971
881.7876, 3.060791
882.2697, 3.235840
882.7518, 3.101563
883.2339, 2.944092
883.7161, 2.764648
884.1982, 2.577393
884.6803, 2.222168
885.1624, 2.479980
885.6445, 4.289307
886.1266, 6.664551
886.6088, 6.845947
887.0909, 5.384033
887.5730, 4.538086
888.0551, 6.749512
888.5372, 8.588867
889.0193, 7.969727
889.5015, 5.562744
889.9836, 3.610840
890.4657, 1.939209
890.9478, 1.391113
891.4299, 2.433350
891.9120, 4.244873
892.3942, 5.593750
892.8763, 6.393066
893.3584, 6.121094
893.8405, 3.661865
894.3226, 1.796387
894.8047, 4.114258
895.2869, 7.813232
895.7690, 9.312012
896.2511, 4.926514
896.7332, 3.509033
897.2153, 6.503662
897.6974, 10.30542
898.1796, 10.99292
898.6617, 8.971436
899.1438, 6.711426
899.6259, 4.369385
900.1080, 2.909668
900.5901, 4.103027
901.0723, 5.941162
901.5544, 6.385010
902.0365, 4.946289
902.5186, 4.281006
903.0007, 5.509521
903.4828, 6.340332
903.9650, 5.226807
904.4471, 2.552979
904.9292, 2.383057
905.4113, 4.570313
905.8935, 6.094238
906.3756, 3.533936
906.8577, 0.5622560
907.3398, 1.520020
907.8220, 5.425781
908.3041, 8.160645
908.7862, 7.484863
909.2683, 6.940918
909.7504, 7.428467
910.2325, 8.380859
910.7147, 7.907227
911.1968, 6.046875
911.6789, 6.219482
912.1610, 10.28101
912.6431, 14.54224
913.1252, 14.31543
913.6074, 11.91406
914.0895, 10.41211
914.5716, 11.17871
915.0537, 12.06738
915.5358, 12.95654
916.0179, 13.66016
916.5001, 14.22192
916.9822, 14.73804
917.4643, 13.44360
917.9464, 10.03052
918.4285, 6.787354
918.9106, 6.374023
919.3928, 7.179932
919.8749, 7.230225
920.3570, 6.324707
920.8391, 5.050293
921.3212, 3.644287
921.8033, 1.873779
922.2855, 0.8745120
922.7676, 4.304932
923.2497, 4.779297
923.7318, 2.208984
924.2139, 0.1850590
924.6960, 0.1716310
925.1782, 0.5190430
925.6603, 0.5747070
926.1424, 2.856201
926.6245, 4.468750
927.1066, 3.560303
927.5887, 3.271484
928.0709, 4.253906
928.5530, 6.098633
929.0351, 8.583008
929.5172, 11.79688
929.9993, 12.63892
930.4814, 9.915039
930.9636, 7.019287
931.4457, 8.970703
931.9278, 12.71582
932.4099, 13.70752
932.8920, 9.688721
933.3741, 7.158447
933.8563, 9.907227
934.3384, 12.45288
934.8205, 10.73486
935.3026, 4.434082
935.7847, 0.9355470
936.2668, 0.2558590
936.7490, 1.173096
937.2311, 4.276367
937.7132, 7.447998
938.1953, 7.736572
938.6774, 5.527832
939.1595, 3.607422
939.6417, 2.965576
940.1238, 2.432861
940.6059, 1.378174
941.0880, 0.3742680
941.5701, 1.718262
942.0522, 5.332764
942.5344, 7.586426
943.0165, 6.969727
943.4986, 5.490234
943.9807, 5.389648
944.4628, 5.867676
944.9449, 5.709473
945.4271, 3.858154
945.9092, 2.733887
946.3913, 3.041504
946.8734, 3.492188
947.3555, 2.723877
947.8376, 0.8405760
948.3198, 0.5922850
948.8019, 1.467773
949.2840, 2.193604
949.7661, 3.635986
950.2482, 4.683105
950.7303, 3.928223
951.2125, 1.323242
951.6946, 0.5244140
952.1767, 0.9316410
952.6588, 1.147949
953.1409, 1.417725
953.6230, 1.850342
954.1052, 3.201904
954.5873, 5.221924
955.0695, 6.359863
955.5516, 5.346680
956.0337, 4.080566
956.5158, 3.638672
956.9979, 4.008301
957.4800, 5.281250
957.9622, 8.790039
958.4443, 10.34497
958.9264, 8.923828
959.4085, 7.101807
959.8906, 8.550049
960.3727, 12.06152
960.8549, 12.69263
961.3370, 9.893066
961.8191, 7.410156
962.3012, 8.142090
962.7833, 9.689941
963.2654, 10.14844
963.7476, 11.43750
964.2297, 13.34326
964.7118, 13.75928
965.1939, 16.65308
965.6760, 18.16333
966.1581, 18.21118
966.6403, 15.23145
967.1224, 10.57959
967.6045, 8.114502
968.0866, 11.66846
968.5687, 15.33887
969.0508, 17.96704
969.5330, 18.99219
970.0151, 16.99561
970.4972, 10.66943
970.9793, 8.044922
971.4614, 10.16064
971.9435, 14.47998
972.4257, 19.70190
972.9078, 24.67017
973.3899, 27.41553
973.8720, 27.58276
974.3541, 27.48608
974.8362, 26.54297
975.3184, 26.94946
975.8005, 29.72852
976.2826, 34.64624
976.7647, 40.61865
977.2468, 47.60010
977.7289, 53.19580
978.2111, 54.99707
978.6932, 56.47290
979.1753, 62.29541
979.6574, 70.43140
980.1395, 76.91235
980.6216, 78.59277
981.1038, 81.43164
981.5859, 85.29272
982.0680, 91.60767
982.5501, 103.8159
983.0322, 120.5042
983.5143, 131.5474
983.9965, 135.8623
984.4786, 140.6025
984.9607, 151.1145
985.4428, 164.1045
985.9249, 176.9612
986.4070, 189.5005
986.8892, 204.3792
987.3713, 222.2759
987.8534, 240.0464
988.3355, 255.5522
988.8176, 271.0330
989.2997, 292.3420
989.7819, 317.8958
990.2640, 343.0872
990.7461, 364.2744
991.2282, 386.7964
991.7103, 413.4529
992.1924, 442.3501
992.6746, 471.0989
993.1567, 500.0496
993.6388, 528.9780
994.1209, 558.7749
994.6030, 583.6345
995.0851, 598.5706
995.5673, 605.3777
996.0494, 607.2705
996.5315, 604.0239
997.0136, 590.5815
997.4957, 559.6980
997.9778, 523.9326
998.4600, 485.8440
998.9421, 446.7249
999.4242, 410.3875
999.9063, 377.2808
1000.388, 349.2068
1000.871, 326.8745
1001.353, 309.2720
1001.835, 295.9692
1002.317, 286.5835
1002.799, 280.7869
1003.281, 279.0444
1003.763, 279.4597
1004.245, 282.2480
1004.728, 286.5591
1005.210, 291.1272
1005.692, 296.7332
1006.174, 305.0625
1006.656, 316.4131
1007.138, 332.2251
1007.620, 353.0012
1008.102, 378.8230
1008.584, 409.9395
1009.067, 446.9534
1009.549, 491.1643
1010.031, 543.2393
1010.513, 600.8372
1010.995, 664.2014
1011.477, 729.8528
1011.959, 796.4827
1012.441, 860.4099
1012.924, 920.3525
1013.406, 981.5591
1013.888, 1011.398
1014.370, 1005.021
1014.852, 967.9146
1015.334, 896.7729
1015.816, 796.2334
1016.298, 686.0613
1016.780, 569.4456
1017.263, 462.4175
1017.745, 372.3210
1018.227, 296.6045
1018.709, 236.8245
1019.191, 190.8430
1019.673, 154.2029
1020.155, 127.3262
1020.637, 107.1396
1021.120, 94.27905
1021.602, 84.51562
1022.084, 73.07471
1022.566, 61.46777
1023.048, 52.77734
1023.530, 47.29858
1024.012, 42.36255
1024.494, 36.62329
1024.976, 31.66895
1025.458, 28.20703
1025.941, 25.97314
1026.423, 23.67700
1026.905, 21.37744
1027.387, 20.85254
1027.869, 23.64136
1028.351, 26.41382
1028.833, 26.10352
1029.316, 23.86230
1029.798, 20.94019
1030.280, 16.13477
1030.762, 14.25122
1031.244, 16.33740
1031.726, 18.68311
1032.208, 18.39282
1032.690, 16.23315
1033.172, 13.49731
1033.655, 10.60938
1034.137, 9.604492
1034.619, 14.88672
1035.101, 18.41382
1035.583, 15.97778
1036.065, 10.45703
1036.547, 6.638184
1037.029, 4.587158
1037.511, 4.019043
1037.994, 5.214844
1038.476, 6.058838
1038.958, 3.514404
1039.440, 0.1228030
1039.922, 1.214111
1040.404, 0.1384280
1040.886, 0.7468260
1041.368, 4.7851998E-02
1041.851, 0.5131840
1042.333, 0.2209470
1042.815, 0.5275880
1043.297, 0.7233890
1043.779, 0.4855960
1044.261, 0.1237790
1044.743, 1.006592
1045.225, 1.043457
1045.708, 2.748047
1046.190, 1.589393
1046.672, 5.790771
1047.154, 0.3007810
1047.636, 1.525635
1048.118, 2.482422
1048.600, 7.294434
1049.082, 10.25293
1049.564, 11.73462
1050.047, 11.83545
1050.529, 10.70752
1051.011, 8.759033
1051.493, 4.414307
1051.975, 3.129395
1052.457, 6.922607
1052.939, 12.05615
1053.421, 12.77222
1053.903, 10.31274
1054.386, 7.141113
1054.868, 3.532715
1055.350, 0.8852540
1055.832, 0.1672360
1056.314, 0.3972170
1056.796, 1.133301
1057.278, 2.349609
1057.760, 4.221680
1058.243, 6.674072
1058.725, 7.191406
1059.207, 3.588623
1059.689, 0.6472170
1060.171, 3.347168
1060.653, 4.373535
1061.135, 3.266113
1061.617, 1.655762
1062.099, 4.620605
1062.582, 5.255859
1063.064, 5.034424
1063.546, 5.244141
1064.028, 5.403564
1064.510, 4.435303
1064.992, 2.466064
1065.474, 0.3159180
1065.956, 2.873779
1066.438, 4.596680
1066.921, 3.699463
1067.403, 1.617188
1067.885, 0.9460450
1068.367, 1.472168
1068.849, 1.300537
1069.331, 0.1462400
1069.813, 1.675781
1070.295, 5.398682
1070.778, 8.536377
1071.260, 8.529785
1071.742, 5.601318
1072.224, 4.073730
1072.706, 4.257813
1073.188, 3.746338
1073.670, 0.8054200
1074.152, 1.678711
1074.635, 1.771973
1075.117, 7.872314
1075.599, 11.17188
1076.081, 8.180420
1076.563, 7.512207
1077.045, 11.19482
1077.527, 14.65649
1078.009, 14.19458
1078.491, 10.94849
1078.974, 9.165039
1079.456, 8.715088
1079.938, 8.927490
1080.420, 10.39966
1080.902, 11.35400
1081.384, 10.30029
1081.866, 8.804688
1082.348, 8.985352
1082.831, 10.94458
1083.313, 12.19141
1083.795, 12.49414
1084.277, 12.84863
1084.759, 14.77979
1085.241, 16.57886
1085.723, 16.73755
1086.205, 15.28662
1086.688, 13.47681
1087.170, 11.07593
1087.652, 9.231201
1088.134, 8.162598
1088.616, 7.923584
1089.098, 9.404541
1089.580, 11.46973
1090.062, 11.98218
1090.544, 10.12500
1091.026, 9.083252
1091.509, 9.316162
1091.991, 10.77734
1092.473, 14.35278
1092.955, 18.76001
1093.437, 18.45874
1093.919, 14.58105
1094.401, 12.00195
1094.883, 13.90771
1095.366, 15.30347
1095.848, 12.30615
1096.330, 8.922119
1096.812, 9.120361
1097.294, 13.35083
1097.776, 16.52173
1098.258, 18.71509
1098.740, 20.31567
1099.223, 20.74365
1099.705, 21.44727
1100.187, 24.00562
1100.669, 27.77319
1101.151, 31.14697
1101.633, 34.45801
1102.115, 35.79370
1102.597, 34.54419
1103.079, 32.94165
1103.562, 34.04980
1104.044, 35.98389
1104.526, 35.60278
1105.008, 32.92383
1105.490, 31.50146
1105.972, 33.77319
1106.454, 35.17603
1106.936, 34.32666
1107.418, 32.63257
1107.901, 32.86206
1108.383, 34.48853
1108.865, 35.96826
1109.347, 36.92065
1109.829, 38.15259
1110.311, 39.56714
1110.793, 41.91431
1111.275, 46.23901
1111.758, 51.76709
1112.240, 53.43066
1112.722, 51.68311
1113.204, 51.03931
1113.686, 53.89062
1114.168, 56.93750
1114.650, 57.91992
1115.132, 57.83105
1115.615, 57.56958
1116.097, 56.97070
1116.579, 57.83960
1117.061, 60.28979
1117.543, 62.75537
1118.025, 64.28003
1118.507, 65.16479
1118.989, 65.27002
1119.471, 65.20410
1119.953, 66.11841
1120.436, 69.79346
1120.918, 70.25781
1121.400, 66.28320
1121.882, 62.16919
1122.364, 63.38379
1122.846, 66.54565
1123.328, 65.42017
1123.810, 60.30786
1124.293, 55.79492
1124.775, 54.09399
1125.257, 52.15479
1125.739, 48.74829
1126.221, 45.83057
1126.703, 47.91479
1127.185, 53.05811
1127.667, 54.86206
1128.150, 52.55176
1128.632, 49.87988
1129.114, 48.62549
1129.596, 47.36963
1130.078, 45.35498
1130.560, 43.08984
1131.042, 42.06860
1131.524, 42.13574
1132.006, 42.19971
1132.489, 42.05249
1132.971, 42.47900
1133.453, 45.03198
1133.935, 47.33936
1134.417, 47.41602
1134.899, 45.42114
1135.381, 45.40771
1135.863, 47.34741
1136.346, 48.58618
1136.828, 47.43652
1137.310, 46.11816
1137.792, 47.01025
1138.274, 48.79932
1138.756, 49.79004
1139.238, 49.69531
1139.720, 48.82227
1140.203, 47.21045
1140.685, 46.07471
1141.167, 47.04468
1141.649, 48.28662
1142.131, 47.46411
1142.613, 45.06909
1143.095, 42.00586
1143.577, 36.89502
1144.059, 34.57642
1144.542, 35.82983
1145.024, 38.03638
1145.506, 39.12476
1145.988, 39.39868
1146.470, 39.20361
1146.952, 38.65527
1147.434, 38.13110
1147.916, 38.10083
1148.398, 37.43335
1148.881, 35.80322
1149.363, 33.80176
1149.845, 32.21704
1150.327, 30.94507
1150.809, 29.67578
1151.291, 28.42725
1151.773, 27.48608
1152.255, 27.83521
1152.738, 27.44287
1153.220, 25.52026
1153.702, 22.84619
1154.184, 20.50684
1154.666, 18.59937
1155.148, 17.68921
1155.630, 17.92822
1156.112, 18.13354
1156.594, 17.72217
1157.077, 16.93677
1157.559, 15.92749
1158.041, 14.61597
1158.523, 12.30908
1159.005, 9.266602
1159.487, 7.790283
1159.969, 8.922852
1160.451, 10.07666
1160.933, 9.937256
1161.416, 8.758789
1161.898, 6.340576
1162.380, 2.996338
1162.862, 1.522217
1163.344, 1.902588
1163.826, 3.011719
1164.308, 4.725586
1164.790, 6.412109
1165.273, 8.219727
1165.755, 9.280518
1166.237, 8.313232
1166.719, 4.966309
1167.201, 3.145020
1167.683, 2.841309
1168.165, 3.541504
1168.647, 5.926514
1169.130, 7.926758
1169.612, 6.428955
1170.094, 3.742432
1170.576, 3.765381
1171.058, 8.087891
1171.540, 9.892090
1172.022, 8.944580
1172.504, 7.189941
1172.986, 5.140381
1173.469, 3.743652
1173.951, 5.111328
1174.433, 7.839111
1174.915, 8.217041
1175.397, 4.134521
1175.879, 3.251953
1176.361, 6.461914
1176.843, 10.30225
1177.326, 12.32471
1177.808, 12.79077
1178.290, 11.49243
1178.772, 8.933105
1179.254, 6.746338
1179.736, 4.442871
1180.218, 3.023682
1180.700, 2.583496
1181.182, 2.953369
1181.665, 5.031250
1182.147, 7.074951
1182.629, 6.675537
1183.111, 4.093994
1183.593, 1.702637
1184.075, 0.6540530
1184.557, 1.311279
1185.039, 0.4865720
1185.521, 2.886475
1186.004, 3.656250
1186.486, 3.205078
1186.968, 1.746826
1187.450, 0.6037600
1187.932, 2.009277
1188.414, 1.760498
1188.896, 1.216797
1189.378, 0.5771480
1189.861, 7.1289003E-02
1190.343, 0.7961430
1190.825, 1.645508
1191.307, 0.2075200
1191.789, 5.488770
1192.271, 7.977051
1192.753, 4.936768
1193.235, 1.693359
1193.718, 0.2226560
1194.200, 1.155762
1194.682, 1.349609
1195.164, 1.138184
1195.646, 1.487549
1196.128, 2.930908
1196.610, 2.637939
1197.092, 1.713135
1197.574, 1.965509
1198.057, 1.013663
1198.539, 1.186035
1199.021, 7.7881001E-02
1199.503, 7.0556998E-02
1199.985, 0.7873540
1200.467, 2.808105
1200.949, 4.075195
1201.431, 4.183594
1201.913, 3.555908
1202.396, 1.968018
1202.878, 0.1420900
1203.360, 7.3974997E-02
1203.842, 1.237305
1204.324, 2.279297
1204.806, 2.639648
1205.288, 3.381348
1205.770, 5.319092
1206.253, 6.542725
1206.735, 5.513916
1207.217, 3.224121
1207.699, 2.640137
1208.181, 3.160645
1208.663, 3.028320
1209.145, 0.6982420
1209.627, 0.4089360
1210.109, 7.2754003E-02
1210.592, 1.956543
1211.074, 6.281250
1211.556, 11.51025
1212.038, 12.08545
1212.520, 9.428955
1213.002, 7.552979
1213.484, 9.119629
1213.966, 9.459229
1214.448, 7.235107
1214.931, 5.240967
1215.413, 6.496338
1215.895, 9.445068
1216.377, 9.423828
1216.859, 7.179199
1217.341, 5.114014
1217.823, 3.672607
1218.305, 3.295898
1218.788, 4.429932
1219.270, 5.710693
1219.752, 5.676025
1220.234, 4.996338
1220.716, 5.441895
1221.198, 6.782471
1221.680, 8.127930
1222.162, 9.861816
1222.645, 10.33496
1223.127, 9.001709
1223.609, 7.322998
1224.091, 6.634033
1224.573, 6.652588
1225.055, 7.225830
1225.537, 8.031982
1226.019, 7.894531
1226.501, 4.691650
1226.984, 3.523682
1227.466, 5.604004
1227.948, 7.725342
1228.430, 5.475342
1228.912, 1.598877
1229.394, 1.743164
1229.876, 5.069580
1230.358, 7.016357
1230.841, 5.550781
1231.323, 4.222168
1231.805, 3.057129
1232.287, 2.945557
1232.769, 6.520264
1233.251, 10.78589
1233.733, 10.24219
1234.215, 5.814209
1234.698, 2.862061
1235.180, 3.213135
1235.662, 2.409912
1236.144, 0.5832520
1236.626, 2.602295
1237.108, 2.122803
1237.590, 1.920306
1238.072, 2.044024
1238.554, 1.005371
1239.036, 1.944092
1239.519, 1.941211
1240.001, 2.059570
1240.483, 3.135742
1240.965, 3.937256
1241.447, 5.096680
1241.929, 6.138916
1242.411, 6.406738
1242.893, 6.232422
1243.376, 6.652832
1243.858, 7.750488
1244.340, 9.523438
1244.822, 12.23438
1245.304, 13.68018
1245.786, 10.19409
1246.268, 6.047607
1246.750, 4.825928
1247.233, 6.108154
1247.715, 7.774902
1248.197, 9.817383
1248.679, 10.60132
1249.161, 9.903076
1249.643, 9.018066
1250.125, 9.317871
1250.607, 10.31738
1251.089, 12.05811
1251.572, 13.76270
1252.054, 12.78687
1252.536, 9.051514
1253.018, 7.305176
1253.500, 8.289307
1253.982, 9.621338
1254.464, 9.361816
1254.946, 8.873779
1255.428, 9.088379
1255.911, 9.606201
1256.393, 9.160400
1256.875, 8.127197
1257.357, 8.848877
1257.839, 11.62036
1258.321, 13.70972
1258.803, 12.94238
1259.285, 11.72021
1259.768, 11.08862
1260.250, 10.74683
1260.732, 9.912354
1261.214, 8.844971
1261.696, 8.901367
1262.178, 10.22705
1262.660, 10.65015
1263.142, 7.461670
1263.625, 5.528809
1264.107, 6.626221
1264.589, 8.982910
1265.071, 9.861084
1265.553, 9.634521
1266.035, 9.002686
1266.517, 8.084717
1266.999, 7.687988
1267.481, 7.658447
1267.964, 8.921631
1268.446, 12.13501
1268.928, 15.65649
1269.410, 17.36938
1269.892, 17.17139
1270.374, 16.55200
1270.856, 15.10034
1271.338, 13.62720
1271.820, 13.33374
1272.303, 12.69653
1272.785, 11.35034
1273.267, 10.16553
1273.749, 10.46777
1274.231, 11.32812
1274.713, 12.13379
1275.195, 12.56616
1275.677, 11.04761
1276.160, 6.762939
1276.642, 5.084229
1277.124, 7.203857
1277.606, 9.822754
1278.088, 10.18726
1278.570, 9.451172
1279.052, 7.994629
1279.534, 6.312500
1280.016, 5.965088
1280.499, 7.021484
1280.981, 6.497070
1281.463, 3.899170
1281.945, 1.899170
1282.427, 3.273682
1282.909, 4.865234
1283.391, 4.515625
1283.873, 3.394043
1284.356, 3.835205
1284.838, 5.525146
1285.320, 6.347412
1285.802, 6.125244
1286.284, 6.557129
1286.766, 10.05322
1287.248, 12.29883
1287.730, 11.56470
1288.213, 9.697510
1288.695, 9.520996
1289.177, 10.30151
1289.659, 9.979004
1290.141, 8.500244
1290.623, 7.025879
1291.105, 6.050049
1291.587, 4.752197
1292.069, 2.642578
1292.552, 1.212646
1293.034, 3.252686
1293.516, 6.410156
1293.998, 7.142578
1294.480, 5.645996
1294.962, 3.998779
1295.444, 2.255127
1295.926, 0.8537600
1296.408, 0.2443850
1296.891, 0.3454590
1297.373, 2.197021
1297.855, 5.032227
1298.337, 6.237549
1298.819, 6.071777
1299.301, 5.020752
1299.783, 2.371826
1300.265, 0.5869140
1300.748, 0.7443850
1301.230, 0.9763180
1301.712, 0.3706050
1302.194, 3.6619999E-03
1302.676, 0.0000000E+00
##END=



