##NAMES=Larnite
##RRUFFID=R070530
##IDEAL CHEMISTRY=&#946;-Ca_2_SiO_4_
##LOCALITY=Larne, County Antrim, Northern Ireland, UK
##OWNER=RRUFF
##SOURCE=Michael Scott
##DESCRIPTION=Light gray massive
##STATUS=The identification of this mineral has been confirmed by single-crystal X-ray diffraction.
##URL=rruff.info/R070530
162.7721, 0.0000000E+00
163.2542, 8.588623
163.7363, 40.43530
164.2184, 76.24731
164.7005, 93.06348
165.1826, 77.87451
165.6648, 38.75317
166.1469, 15.28809
166.6290, 10.41748
167.1111, 16.91187
167.5932, 44.71826
168.0753, 81.19360
168.5575, 106.5801
169.0396, 109.9614
169.5217, 97.40283
170.0038, 94.63770
170.4859, 111.0271
170.9680, 125.4163
171.4502, 128.5886
171.9323, 128.1082
172.4144, 140.1592
172.8965, 174.9792
173.3786, 221.1687
173.8607, 235.6765
174.3429, 180.5161
174.8250, 142.8308
175.3071, 158.6135
175.7892, 201.0750
176.2713, 220.5498
176.7534, 190.9153
177.2356, 132.4771
177.7177, 110.6321
178.1998, 152.6555
178.6819, 185.1204
179.1640, 181.6470
179.6461, 157.5913
180.1283, 142.0884
180.6104, 148.5325
181.0925, 167.7700
181.5746, 176.5964
182.0567, 174.2478
182.5388, 166.2295
183.0210, 144.1545
183.5031, 118.2881
183.9852, 112.0330
184.4673, 138.5496
184.9494, 178.4827
185.4315, 185.6887
185.9137, 148.7812
186.3958, 119.5120
186.8779, 118.6489
187.3600, 135.3381
187.8421, 150.8242
188.3242, 160.0696
188.8064, 160.9680
189.2885, 142.9897
189.7706, 98.57324
190.2527, 71.86279
190.7348, 91.30054
191.2169, 132.6182
191.6991, 162.1125
192.1812, 169.5256
192.6633, 164.0027
193.1454, 158.7603
193.6275, 154.9990
194.1096, 145.3301
194.5918, 118.5166
195.0739, 96.49976
195.5560, 95.43481
196.0381, 127.8069
196.5202, 172.8728
197.0023, 196.8169
197.4845, 204.9495
197.9666, 211.6060
198.4487, 219.2773
198.9308, 226.3086
199.4129, 225.2351
199.8950, 217.4578
200.3772, 204.2339
200.8593, 182.8208
201.3414, 163.4683
201.8235, 148.4250
202.3056, 138.8716
202.7877, 136.0093
203.2699, 140.1045
203.7520, 151.2292
204.2341, 157.4241
204.7162, 148.4277
205.1983, 133.1782
205.6804, 123.5748
206.1626, 128.2367
206.6447, 138.2809
207.1268, 140.5389
207.6089, 127.4091
208.0910, 110.9478
208.5731, 93.71143
209.0553, 77.77185
209.5374, 69.69531
210.0195, 82.04224
210.5016, 97.86829
210.9837, 93.82629
211.4658, 66.32300
211.9480, 39.07947
212.4301, 26.78967
212.9122, 27.96960
213.3943, 36.68652
213.8764, 55.16895
214.3585, 73.28491
214.8407, 79.79138
215.3228, 74.57275
215.8049, 64.49731
216.2870, 50.92212
216.7691, 35.47644
217.2512, 20.99670
217.7334, 4.747070
218.2155, 6.464111
218.6976, 3.618042
219.1797, 12.30640
219.6618, 26.55920
220.1439, 32.05627
220.6261, 32.96997
221.1082, 35.05115
221.5903, 38.25427
222.0724, 42.90308
222.5545, 50.32397
223.0366, 59.93213
223.5188, 69.13574
224.0009, 81.12305
224.4830, 87.38110
224.9651, 75.61194
225.4472, 42.64319
225.9293, 7.721802
226.4115, 24.24670
226.8936, 50.65454
227.3757, 59.50110
227.8578, 41.52136
228.3399, 14.27576
228.8220, 0.2011720
229.3041, 1.835449
229.7863, 2.986084
230.2684, 13.02246
230.7505, 26.13745
231.2326, 26.62988
231.7147, 7.421387
232.1968, 14.03625
232.6790, 16.98718
233.1611, 4.391968
233.6432, 7.748535
234.1253, 16.29578
234.6074, 20.72388
235.0895, 19.38464
235.5717, 11.49292
236.0538, 0.8856200
236.5359, 13.78894
237.0180, 29.73975
237.5001, 34.03857
237.9822, 10.15247
238.4644, 18.91394
238.9465, 23.43018
239.4286, 1.327759
239.9107, 18.93225
240.3928, 14.68103
240.8749, 7.094849
241.3571, 20.47424
241.8392, 19.10120
242.3213, 12.17078
242.8034, 4.532593
243.2855, 3.465210
243.7676, 9.117310
244.2498, 12.14575
244.7319, 10.76196
245.2140, 0.8516850
245.6961, 28.99963
246.1782, 50.36865
246.6603, 38.71619
247.1425, 4.137451
247.6246, 18.46375
248.1067, 13.72815
248.5888, 8.015137
249.0709, 27.93823
249.5530, 49.67017
250.0352, 60.98328
250.5173, 41.11023
250.9994, 10.44556
251.4815, 13.38171
251.9636, 22.51978
252.4457, 44.22815
252.9279, 52.46326
253.4100, 7.122681
253.8921, 30.87585
254.3742, 26.91223
254.8563, 21.79651
255.3384, 55.21716
255.8206, 46.83179
256.3027, 58.85681
256.7848, 60.65332
257.2669, 50.61926
257.7490, 41.01782
258.2311, 25.08789
258.7133, 14.89148
259.1954, 25.11841
259.6775, 53.50818
260.1596, 79.79028
260.6417, 89.09888
261.1238, 81.20361
261.6060, 67.42310
262.0881, 39.50012
262.5702, 14.54944
263.0523, 1.773560
263.5344, 8.824097
264.0165, 5.564331
264.4987, 9.135498
264.9808, 33.84558
265.4629, 63.39148
265.9450, 111.5465
266.4271, 147.4197
266.9092, 163.7574
267.3914, 164.4219
267.8735, 149.3452
268.3556, 117.7142
268.8377, 83.53711
269.3198, 75.35962
269.8019, 117.3490
270.2841, 150.3081
270.7662, 167.3435
271.2483, 179.4750
271.7304, 200.7050
272.2125, 232.1934
272.6946, 258.2180
273.1768, 256.6937
273.6589, 212.4945
274.1410, 192.9833
274.6231, 212.3761
275.1052, 240.0314
275.5873, 265.0636
276.0695, 283.4213
276.5516, 291.6155
277.0337, 284.7571
277.5158, 262.0426
277.9979, 248.3833
278.4800, 246.9457
278.9622, 251.0493
279.4443, 261.5148
279.9264, 276.0934
280.4085, 292.7081
280.8906, 310.7045
281.3727, 327.8477
281.8549, 334.9169
282.3370, 318.5227
282.8191, 311.0583
283.3012, 321.1173
283.7833, 338.7380
284.2654, 355.1466
284.7476, 367.4879
285.2297, 374.4183
285.7118, 371.5222
286.1939, 352.7764
286.6760, 341.8059
287.1581, 343.7848
287.6403, 349.4064
288.1224, 356.6284
288.6045, 363.4674
289.0866, 364.9669
289.5687, 351.8130
290.0508, 321.2200
290.5330, 303.7444
291.0151, 306.0660
291.4972, 317.6367
291.9793, 339.1202
292.4614, 365.6698
292.9435, 386.7642
293.4257, 393.1783
293.9078, 390.0917
294.3899, 398.8459
294.8720, 432.3075
295.3541, 449.4648
295.8362, 412.4567
296.3184, 359.8937
296.8005, 339.7465
297.2826, 372.5469
297.7647, 426.0496
298.2468, 465.0049
298.7289, 490.0029
299.2111, 502.5742
299.6932, 489.3761
300.1753, 473.6698
300.6574, 483.8188
301.1395, 524.2876
301.6216, 556.8120
302.1038, 547.3445
302.5859, 507.1510
303.0680, 478.2523
303.5501, 468.6016
304.0322, 470.7244
304.5143, 481.3809
304.9964, 498.3948
305.4785, 513.0732
305.9607, 522.3359
306.4428, 531.4207
306.9249, 546.6888
307.4070, 568.6489
307.8891, 588.1035
308.3712, 595.9780
308.8534, 595.3788
309.3355, 601.7042
309.8176, 636.6945
310.2997, 662.8892
310.7818, 645.1235
311.2639, 597.8657
311.7461, 574.5476
312.2282, 602.5723
312.7103, 659.3740
313.1924, 689.3536
313.6745, 680.5217
314.1566, 674.7820
314.6388, 687.0920
315.1209, 704.0101
315.6030, 706.5542
316.0851, 690.6229
316.5672, 671.2061
317.0493, 667.3656
317.5315, 684.2230
318.0136, 698.1072
318.4957, 716.8717
318.9778, 726.0867
319.4599, 706.2039
319.9420, 666.5593
320.4242, 639.5281
320.9063, 652.3774
321.3884, 699.8612
321.8705, 717.9641
322.3526, 663.0327
322.8347, 630.2024
323.3169, 654.3813
323.7990, 703.3275
324.2811, 737.0576
324.7632, 740.5515
325.2453, 720.3640
325.7274, 684.7952
326.2096, 614.9275
326.6917, 576.1016
327.1738, 593.3982
327.6559, 620.7690
328.1380, 627.6377
328.6201, 612.6101
329.1023, 595.8170
329.5844, 596.6804
330.0665, 614.8690
330.5486, 634.1100
331.0307, 667.8813
331.5128, 685.6218
331.9950, 666.8866
332.4771, 627.0935
332.9592, 588.4408
333.4413, 561.5258
333.9234, 546.6416
334.4055, 550.3103
334.8877, 580.2991
335.3698, 596.0636
335.8519, 564.5986
336.3340, 518.0667
336.8161, 486.8258
337.2982, 478.3647
337.7804, 479.3823
338.2625, 482.7372
338.7446, 487.7576
339.2267, 492.3241
339.7088, 497.6233
340.1909, 499.1399
340.6731, 490.6755
341.1552, 473.5037
341.6373, 454.0764
342.1194, 429.5114
342.6015, 406.0820
343.0836, 391.5616
343.5658, 386.0966
344.0479, 384.5031
344.5300, 383.3710
345.0121, 383.4592
345.4942, 387.9109
345.9763, 399.4214
346.4585, 411.8058
346.9406, 434.4589
347.4227, 454.4918
347.9048, 442.8312
348.3869, 388.1399
348.8690, 316.4714
349.3512, 276.3590
349.8333, 284.8771
350.3154, 292.6580
350.7975, 301.7981
351.2796, 308.6567
351.7617, 311.8274
352.2439, 310.7073
352.7260, 303.6136
353.2081, 287.6715
353.6902, 263.1129
354.1723, 249.3625
354.6544, 265.8805
355.1366, 272.5559
355.6187, 257.4414
356.1008, 229.4623
356.5829, 198.3448
357.0650, 168.0400
357.5471, 142.1741
358.0293, 128.2035
358.5114, 129.1194
358.9935, 132.5061
359.4756, 139.5068
359.9577, 146.3811
360.4398, 150.7162
360.9220, 152.5664
361.4041, 153.8375
361.8862, 155.4618
362.3683, 157.6036
362.8504, 163.5800
363.3326, 180.0753
363.8147, 185.5662
364.2968, 156.4724
364.7789, 110.0251
365.2610, 73.12439
365.7431, 52.25110
366.2253, 43.85486
366.7074, 51.36316
367.1895, 71.94080
367.6716, 82.57739
368.1537, 69.79993
368.6358, 50.60535
369.1180, 56.74133
369.6001, 93.11584
370.0822, 118.4010
370.5643, 113.6672
371.0464, 95.80176
371.5285, 81.74316
372.0107, 74.17578
372.4928, 73.87244
372.9749, 84.92126
373.4570, 106.8196
373.9391, 107.3159
374.4212, 65.22522
374.9034, 28.75049
375.3855, 17.41125
375.8676, 21.93481
376.3497, 28.25146
376.8318, 30.43604
377.3139, 27.84180
377.7961, 17.49731
378.2782, 13.12085
378.7603, 26.45007
379.2424, 6.863403
379.7245, 14.36987
380.2066, 12.52893
380.6888, 7.812012
381.1709, 19.89209
381.6530, 4.469482
382.1351, 57.26270
382.6172, 72.12341
383.0993, 23.91284
383.5815, 20.62207
384.0636, 40.66736
384.5457, 44.84607
385.0278, 40.47388
385.5099, 28.39404
385.9920, 15.38794
386.4742, 12.08862
386.9563, 17.45679
387.4384, 10.60754
387.9205, 24.74792
388.4026, 56.59644
388.8847, 44.13513
389.3669, 5.106812
389.8490, 35.83228
390.3311, 10.45020
390.8132, 31.39197
391.2953, 41.44763
391.7774, 19.39661
392.2596, 9.241821
392.7417, 34.42188
393.2238, 52.64404
393.7059, 49.31873
394.1880, 6.617310
394.6701, 27.41125
395.1523, 37.20837
395.6344, 33.42249
396.1165, 26.06226
396.5986, 18.40112
397.0807, 14.39099
397.5628, 19.46375
398.0450, 35.79126
398.5271, 48.64612
399.0092, 58.03296
399.4913, 64.39380
399.9734, 68.65979
400.4555, 69.86475
400.9377, 64.92090
401.4197, 51.55615
401.9019, 35.13037
402.3840, 28.68909
402.8661, 36.06494
403.3482, 43.01111
403.8303, 54.51746
404.3124, 59.37109
404.7946, 41.45886
405.2767, 4.521362
405.7588, 21.26282
406.2409, 0.9024660
406.7230, 48.37256
407.2051, 61.57556
407.6873, 25.04297
408.1694, 4.499390
408.6515, 20.81799
409.1336, 71.29773
409.6157, 90.63245
410.0978, 55.21558
410.5800, 18.92896
411.0621, 18.78540
411.5442, 42.73987
412.0263, 63.79749
412.5084, 75.13330
412.9905, 77.66504
413.4727, 70.07605
413.9548, 48.57410
414.4369, 37.36548
414.9190, 42.65588
415.4011, 52.70544
415.8832, 62.59229
416.3654, 71.74731
416.8475, 82.50073
417.3296, 71.94263
417.8117, 109.1609
418.2938, 132.2251
418.7759, 141.8982
419.2581, 98.05029
419.7402, 123.3264
420.2223, 120.9092
420.7044, 117.3624
421.1865, 152.3843
421.6686, 116.3511
422.1508, 150.7745
422.6329, 157.0807
423.1150, 151.7355
423.5971, 156.5830
424.0792, 162.4121
424.5613, 172.0887
425.0435, 180.2666
425.5256, 179.3074
426.0077, 139.4438
426.4898, 177.8483
426.9719, 202.0997
427.4540, 212.9586
427.9362, 170.2968
428.4183, 196.7584
428.9004, 195.5262
429.3825, 193.1635
429.8646, 229.3688
430.3467, 240.6504
430.8289, 244.8092
431.3110, 241.6732
431.7931, 230.2452
432.2752, 218.3536
432.7573, 228.0605
433.2394, 270.7577
433.7216, 325.3654
434.2037, 346.5958
434.6858, 301.3588
435.1679, 288.2000
435.6500, 337.6833
436.1321, 388.5776
436.6143, 402.9749
437.0964, 387.5870
437.5785, 367.7094
438.0606, 359.3173
438.5427, 361.2599
439.0248, 372.6228
439.5070, 400.5312
439.9891, 424.3391
440.4712, 439.5521
440.9533, 447.5463
441.4354, 444.2433
441.9175, 429.4302
442.3997, 418.5621
442.8818, 430.6735
443.3639, 453.8358
443.8460, 449.4143
444.3281, 408.0356
444.8102, 382.0333
445.2924, 422.0470
445.7745, 507.3326
446.2566, 543.9612
446.7387, 498.1775
447.2208, 447.4730
447.7029, 416.2163
448.1851, 400.5397
448.6672, 391.4132
449.1493, 385.9590
449.6314, 382.5811
450.1135, 378.8589
450.5956, 373.3862
451.0778, 371.0671
451.5599, 383.8057
452.0420, 390.9598
452.5241, 377.8081
453.0062, 354.1715
453.4883, 335.4056
453.9705, 327.9225
454.4526, 324.7340
454.9347, 313.8508
455.4168, 294.0045
455.8989, 278.9601
456.3810, 276.4280
456.8632, 271.7042
457.3453, 249.0854
457.8274, 215.7637
458.3095, 194.9198
458.7916, 206.1018
459.2737, 224.6222
459.7559, 219.9644
460.2380, 195.8188
460.7201, 176.8594
461.2022, 172.4849
461.6843, 177.6521
462.1664, 185.8083
462.6486, 199.4385
463.1307, 206.5289
463.6128, 203.0076
464.0949, 195.2948
464.5770, 184.5021
465.0591, 171.6499
465.5413, 157.2520
466.0234, 140.8265
466.5055, 125.8157
466.9876, 97.48633
467.4697, 129.2598
467.9518, 146.8761
468.4340, 151.0950
468.9161, 101.7905
469.3982, 121.6088
469.8803, 113.7355
470.3624, 104.7357
470.8445, 134.3118
471.3267, 92.84094
471.8088, 121.8319
472.2909, 122.7020
472.7730, 136.4437
473.2551, 122.3163
473.7372, 116.7963
474.2194, 139.2781
474.7015, 146.4723
475.1836, 129.2362
475.6657, 143.7999
476.1478, 115.6398
476.6299, 125.4545
477.1121, 141.3264
477.5942, 157.0360
478.0763, 168.6837
478.5584, 176.1064
479.0405, 179.3438
479.5226, 174.2145
480.0048, 170.0336
480.4869, 167.6357
480.9690, 166.3260
481.4511, 165.1852
481.9332, 164.2794
482.4153, 142.1862
482.8975, 176.0897
483.3796, 196.0029
483.8617, 202.3152
484.3438, 154.6742
484.8259, 176.0380
485.3080, 169.6989
485.7902, 162.2227
486.2723, 193.3074
486.7544, 153.3287
487.2365, 183.7977
487.7186, 186.1425
488.2007, 201.3544
488.6829, 188.6938
489.1650, 174.2164
489.6471, 168.5362
490.1292, 161.1989
490.6113, 153.1556
491.0934, 151.5022
491.5756, 165.5464
492.0577, 175.1484
492.5398, 172.9719
493.0219, 163.1815
493.5040, 147.3289
493.9861, 129.1680
494.4683, 119.3048
494.9504, 130.6548
495.4325, 162.5554
495.9146, 182.2304
496.3967, 180.8709
496.8788, 168.8187
497.3610, 141.2115
497.8431, 112.5972
498.3252, 101.5076
498.8073, 111.7085
499.2894, 116.0051
499.7715, 80.34009
500.2536, 28.99365
500.7357, 20.65057
501.2179, 62.09662
501.7000, 106.9062
502.1821, 125.8033
502.6642, 124.0790
503.1463, 125.0326
503.6284, 135.3134
504.1106, 138.5429
504.5927, 127.7167
505.0748, 115.5525
505.5569, 108.6703
506.0390, 103.6641
506.5211, 92.16772
507.0033, 65.87225
507.4854, 29.94257
507.9675, 17.03894
508.4496, 39.01379
508.9317, 65.15021
509.4138, 92.67584
509.8960, 115.3828
510.3781, 128.8445
510.8602, 132.1627
511.3423, 126.7440
511.8244, 107.9812
512.3066, 83.96906
512.7887, 66.24377
513.2708, 54.89703
513.7529, 58.30481
514.2350, 87.70563
514.7172, 128.2969
515.1993, 141.4955
515.6814, 118.0875
516.1635, 94.48376
516.6456, 58.04309
517.1277, 32.55585
517.6099, 53.99847
518.0920, 108.9121
518.5741, 144.9163
519.0562, 124.7982
519.5383, 69.78925
520.0204, 46.59930
520.5026, 68.26740
520.9847, 86.52551
521.4668, 84.03448
521.9489, 84.35535
522.4310, 108.8176
522.9131, 150.6679
523.3953, 179.8160
523.8774, 177.4222
524.3595, 160.2163
524.8416, 140.5434
525.3237, 121.6819
525.8058, 113.3952
526.2880, 121.3008
526.7701, 134.7396
527.2522, 136.0381
527.7343, 117.0462
528.2164, 117.3176
528.6985, 161.6265
529.1807, 198.6721
529.6628, 203.0699
530.1449, 183.3597
530.6270, 147.2452
531.1091, 98.20190
531.5912, 53.01758
532.0734, 38.92249
532.5555, 58.87158
533.0376, 86.12054
533.5197, 136.4086
534.0018, 169.2382
534.4839, 142.3384
534.9661, 87.22009
535.4482, 64.70752
535.9303, 103.2388
536.4124, 144.0388
536.8945, 136.6397
537.3766, 104.1547
537.8588, 100.4328
538.3409, 134.9105
538.8230, 162.1882
539.3051, 138.6708
539.7872, 69.02692
540.2693, 25.92395
540.7515, 20.03577
541.2336, 27.13232
541.7157, 58.02631
542.1978, 91.78784
542.6799, 107.6736
543.1620, 104.5202
543.6442, 97.63306
544.1263, 98.63910
544.6084, 106.0969
545.0905, 118.6004
545.5726, 139.8447
546.0547, 145.5461
546.5369, 116.6120
547.0190, 75.71002
547.5011, 58.17163
547.9832, 67.29858
548.4653, 66.42822
548.9474, 29.00043
549.4296, 8.950256
549.9116, 14.69891
550.3937, 6.113403
550.8759, 36.24402
551.3580, 68.64606
551.8401, 91.31787
552.3222, 74.06805
552.8043, 11.30310
553.2864, 55.41589
553.7686, 19.76508
554.2507, 20.77545
554.7328, 42.03156
555.2149, 47.66241
555.6970, 46.27466
556.1791, 39.86816
556.6613, 30.84033
557.1434, 20.13226
557.6255, 8.669495
558.1076, 1.083984
558.5897, 9.093628
559.0718, 12.51648
559.5540, 8.775146
560.0361, 1.704346
560.5182, 14.92743
561.0003, 52.68054
561.4824, 64.59460
561.9645, 7.833252
562.4467, 56.95377
562.9288, 64.42822
563.4109, 15.46960
563.8930, 39.11023
564.3751, 61.48181
564.8572, 56.88690
565.3394, 38.42493
565.8215, 0.5123290
566.3036, 26.83307
566.7857, 32.81671
567.2678, 26.83948
567.7499, 15.50488
568.2321, 0.4934690
568.7142, 9.545471
569.1963, 0.2058720
569.6784, 10.37372
570.1605, 2.067932
570.6426, 16.62817
571.1248, 25.55914
571.6069, 17.55481
572.0890, 0.4617310
572.5711, 21.72888
573.0532, 49.21954
573.5353, 57.07324
574.0175, 20.97388
574.4996, 4.670654
574.9817, 6.946838
575.4638, 31.04578
575.9459, 37.89536
576.4280, 20.67401
576.9102, 5.604126
577.3923, 41.94788
577.8744, 76.23712
578.3565, 76.21674
578.8386, 40.81635
579.3207, 12.24249
579.8029, 16.21967
580.2850, 37.13062
580.7671, 36.27118
581.2492, 14.35565
581.7313, 32.36349
582.2134, 21.11407
582.6956, 70.93671
583.1777, 67.33374
583.6598, 26.62384
584.1419, 11.15454
584.6240, 27.54224
585.1061, 32.10904
585.5883, 41.64175
586.0704, 54.92578
586.5525, 44.35272
587.0346, 4.909790
587.5167, 47.41254
587.9988, 43.46216
588.4810, 7.490479
588.9631, 7.295593
589.4452, 18.60321
589.9273, 35.58606
590.4094, 17.87994
590.8915, 8.670044
591.3737, 18.86633
591.8558, 10.63556
592.3379, 8.034668
592.8200, 33.56641
593.3021, 60.74677
593.7842, 73.12262
594.2664, 65.85229
594.7485, 61.87811
595.2306, 69.75641
595.7127, 76.57141
596.1948, 70.60498
596.6769, 55.79755
597.1591, 46.51038
597.6412, 53.27301
598.1233, 57.60687
598.6054, 39.92023
599.0875, 14.15479
599.5696, 6.244690
600.0518, 20.64246
600.5339, 46.06311
601.0160, 75.45190
601.4981, 106.0121
601.9802, 109.1624
602.4623, 54.19135
602.9445, 25.57245
603.4266, 58.39111
603.9087, 103.3093
604.3908, 128.8571
604.8729, 132.8522
605.3550, 122.0143
605.8372, 78.41284
606.3193, 40.96625
606.8014, 75.60223
607.2835, 156.8132
607.7656, 191.1124
608.2477, 150.1290
608.7299, 88.30548
609.2120, 64.76569
609.6941, 81.00122
610.1762, 89.61920
610.6583, 78.67426
611.1404, 69.48969
611.6226, 75.05695
612.1047, 86.06488
612.5868, 88.19598
613.0689, 82.20984
613.5510, 85.36572
614.0331, 119.7720
614.5153, 165.1219
614.9974, 180.7329
615.4795, 168.9573
615.9616, 158.4507
616.4437, 159.0167
616.9258, 163.6945
617.4080, 163.4667
617.8901, 157.4932
618.3722, 158.1021
618.8543, 170.1697
619.3364, 181.7420
619.8185, 186.2479
620.3007, 185.6317
620.7828, 193.5968
621.2649, 213.1179
621.7470, 225.7982
622.2291, 202.9047
622.7112, 164.2278
623.1934, 170.1898
623.6755, 221.8815
624.1576, 269.6366
624.6397, 302.4050
625.1218, 317.7800
625.6039, 305.7029
626.0861, 259.6963
626.5682, 236.8142
627.0503, 239.6110
627.5324, 261.6268
628.0145, 325.9535
628.4966, 397.9323
628.9788, 427.2991
629.4609, 406.4685
629.9430, 373.1393
630.4251, 360.3793
630.9072, 362.7958
631.3893, 361.0149
631.8715, 355.5828
632.3536, 369.7672
632.8357, 418.4781
633.3178, 474.8959
633.7999, 500.2667
634.2820, 492.8562
634.7642, 510.0621
635.2463, 582.7465
635.7284, 647.3304
636.2105, 670.3432
636.6926, 670.8246
637.1747, 671.0665
637.6569, 678.4789
638.1390, 695.4739
638.6211, 725.8587
639.1032, 766.2534
639.5853, 808.2453
640.0674, 856.1285
640.5496, 900.5831
641.0317, 942.4104
641.5138, 975.9983
641.9959, 985.5494
642.4780, 970.2377
642.9601, 978.6148
643.4423, 1031.453
643.9244, 1088.584
644.4065, 1125.805
644.8886, 1164.573
645.3707, 1239.179
645.8528, 1350.265
646.3350, 1450.499
646.8171, 1496.127
647.2992, 1500.846
647.7813, 1503.811
648.2634, 1502.936
648.7455, 1518.401
649.2277, 1555.186
649.7098, 1612.177
650.1919, 1696.768
650.6740, 1806.874
651.1561, 1899.038
651.6382, 1963.351
652.1204, 2017.583
652.6025, 2056.542
653.0846, 2095.592
653.5667, 2155.187
654.0488, 2235.103
654.5309, 2318.062
655.0131, 2392.548
655.4952, 2457.983
655.9773, 2511.643
656.4594, 2553.499
656.9415, 2588.865
657.4236, 2614.678
657.9058, 2644.433
658.3879, 2695.167
658.8700, 2764.583
659.3521, 2817.338
659.8342, 2828.086
660.3163, 2855.713
660.7985, 2935.662
661.2806, 3023.131
661.7627, 3076.613
662.2448, 3095.754
662.7269, 3101.379
663.2090, 3103.243
663.6912, 3105.961
664.1733, 3118.198
664.6554, 3139.373
665.1375, 3164.832
665.6196, 3196.802
666.1017, 3220.249
666.5839, 3221.607
667.0660, 3205.048
667.5481, 3191.800
668.0302, 3191.213
668.5123, 3180.091
668.9944, 3150.951
669.4766, 3115.716
669.9587, 3080.733
670.4408, 3046.537
670.9229, 3013.629
671.4050, 2982.887
671.8871, 2947.862
672.3693, 2895.788
672.8514, 2832.666
673.3335, 2781.839
673.8156, 2746.541
674.2977, 2707.885
674.7798, 2653.936
675.2620, 2590.131
675.7441, 2529.237
676.2262, 2467.800
676.7083, 2416.843
677.1904, 2388.807
677.6725, 2357.087
678.1547, 2309.115
678.6368, 2250.339
679.1189, 2189.949
679.6010, 2130.464
680.0831, 2068.643
680.5652, 1999.809
681.0474, 1928.245
681.5295, 1861.743
682.0116, 1800.634
682.4937, 1744.571
682.9758, 1691.650
683.4579, 1637.118
683.9401, 1574.724
684.4222, 1501.352
684.9043, 1453.475
685.3864, 1464.330
685.8685, 1455.320
686.3506, 1387.576
686.8328, 1302.661
687.3149, 1242.313
687.7970, 1209.999
688.2791, 1180.078
688.7612, 1137.985
689.2433, 1095.903
689.7255, 1066.512
690.2076, 1045.086
690.6897, 1022.518
691.1718, 996.0787
691.6539, 962.9386
692.1360, 918.7200
692.6182, 867.1085
693.1003, 830.2982
693.5824, 813.0204
694.0645, 795.4147
694.5466, 769.9456
695.0287, 747.5056
695.5109, 745.8723
695.9930, 755.5934
696.4751, 741.0183
696.9572, 677.5448
697.4393, 619.9393
697.9214, 584.3607
698.4036, 563.9119
698.8857, 557.8553
699.3678, 563.4768
699.8499, 578.6976
700.3320, 604.7493
700.8141, 625.3807
701.2963, 606.9354
701.7784, 551.3226
702.2605, 498.8361
702.7426, 449.5539
703.2247, 419.8076
703.7068, 426.5592
704.1890, 453.3738
704.6711, 462.9276
705.1532, 456.6003
705.6353, 429.3134
706.1174, 339.4554
706.5995, 274.1675
707.0817, 297.2094
707.5638, 360.5927
708.0459, 392.8871
708.5280, 376.3580
709.0101, 345.7773
709.4922, 316.9926
709.9744, 297.3982
710.4565, 315.3706
710.9386, 362.6581
711.4207, 379.1910
711.9028, 343.3284
712.3849, 294.5866
712.8671, 278.8935
713.3492, 296.6900
713.8313, 301.0208
714.3134, 283.8766
714.7955, 270.3121
715.2776, 261.9745
715.7598, 257.7356
716.2419, 259.3208
716.7240, 264.4680
717.2061, 264.9413
717.6882, 257.4160
718.1703, 246.5655
718.6525, 225.5013
719.1346, 205.1525
719.6167, 202.8005
720.0988, 217.5769
720.5809, 233.0980
721.0630, 241.8625
721.5452, 241.1844
722.0273, 219.3629
722.5094, 176.4344
722.9915, 148.2482
723.4736, 142.8356
723.9557, 140.1436
724.4379, 129.9100
724.9200, 115.7183
725.4021, 103.4835
725.8842, 91.65137
726.3663, 88.32410
726.8484, 104.2169
727.3306, 118.5822
727.8127, 111.3608
728.2948, 99.09491
728.7769, 112.5094
729.2590, 155.1652
729.7411, 185.2264
730.2233, 151.5149
730.7054, 94.06403
731.1875, 94.10602
731.6696, 138.2795
732.1517, 148.6936
732.6339, 103.3777
733.1160, 51.18558
733.5981, 39.41675
734.0802, 61.22845
734.5623, 71.73654
735.0444, 63.25793
735.5266, 61.09006
736.0087, 77.68738
736.4908, 92.14288
736.9729, 91.42078
737.4550, 79.77673
737.9371, 69.01932
738.4193, 66.48740
738.9014, 52.32520
739.3835, 5.378387
739.8656, 61.44586
740.3477, 65.08768
740.8298, 29.43433
741.3120, 6.564728
741.7941, 26.35269
742.2762, 29.74933
742.7583, 6.932526
743.2404, 34.35184
743.7225, 50.17679
744.2047, 39.13705
744.6868, 14.41684
745.1689, 26.09113
745.6510, 63.51645
746.1331, 72.88391
746.6152, 52.78613
747.0973, 36.00620
747.5794, 19.80688
748.0615, 10.81381
748.5436, 9.388580
749.0258, 15.96732
749.5079, 39.09677
749.9900, 70.96768
750.4721, 86.27853
750.9542, 68.35721
751.4363, 47.46490
751.9185, 51.83594
752.4006, 64.83411
752.8827, 61.38495
753.3648, 41.19498
753.8469, 13.31009
754.3290, 18.47556
754.8112, 43.33731
755.2933, 37.76675
755.7754, 1.646698
756.2575, 16.68448
756.7396, 13.09418
757.2217, 4.884888
757.7039, 4.112183
758.1860, 10.95528
758.6681, 10.45161
759.1502, 1.284271
759.6323, 3.913361
760.1144, 1.454041
760.5966, 0.3054960
761.0787, 0.5777590
761.5608, 3.138947
762.0429, 9.702393
762.5250, 17.63901
763.0071, 17.27477
763.4893, 0.2296910
763.9714, 18.57344
764.4535, 23.40944
764.9356, 20.42192
765.4177, 23.24368
765.8998, 31.54034
766.3820, 32.65173
766.8641, 18.99979
767.3462, 0.9850920
767.8283, 13.14555
768.3104, 17.28314
768.7925, 13.76872
769.2747, 3.171936
769.7568, 9.655533
770.2389, 14.20901
770.7210, 42.79190
771.2031, 36.98683
771.6852, 5.787048
772.1674, 32.55341
772.6495, 37.03339
773.1316, 30.89604
773.6137, 7.320297
774.0958, 17.94740
774.5779, 33.37404
775.0601, 37.20749
775.5422, 3.118759
776.0243, 35.76031
776.5064, 54.22867
776.9885, 59.28568
777.4706, 10.80559
777.9528, 31.42549
778.4349, 24.33147
778.9170, 16.08406
779.3991, 46.38025
779.8812, 5.599976
780.3633, 35.24493
780.8455, 36.75052
781.3276, 51.11469
781.8097, 37.60344
782.2918, 32.69221
782.7739, 55.64395
783.2560, 63.14301
783.7382, 46.36697
784.2203, 61.47403
784.7024, 17.18758
785.1845, 43.88330
785.6666, 55.16817
786.1487, 24.85518
786.6309, 9.703644
787.1130, 25.76868
787.5951, 22.13922
788.0772, 1.419571
788.5593, 51.71524
789.0414, 92.85516
789.5236, 94.67380
790.0057, 75.05190
790.4878, 46.76427
790.9699, 18.20232
791.4520, 10.68958
791.9341, 31.50253
792.4163, 63.26475
792.8984, 89.96085
793.3805, 109.8701
793.8626, 112.9378
794.3447, 98.07140
794.8268, 79.19231
795.3090, 57.66501
795.7911, 38.78587
796.2732, 25.94928
796.7553, 19.93985
797.2374, 25.58611
797.7195, 56.68323
798.2017, 72.99604
798.6838, 62.72870
799.1659, 52.66107
799.6480, 59.78690
800.1301, 73.02736
800.6122, 71.33112
801.0944, 48.38754
801.5765, 33.11205
802.0586, 44.93433
802.5407, 64.16471
803.0228, 80.51039
803.5049, 91.09358
803.9871, 90.48935
804.4692, 79.56276
804.9513, 67.95788
805.4334, 62.69980
805.9155, 60.50526
806.3976, 53.44272
806.8798, 43.97534
807.3619, 45.33899
807.8440, 59.20874
808.3261, 73.59228
808.8082, 81.75311
809.2903, 85.98605
809.7725, 89.48222
810.2546, 93.32847
810.7367, 91.30399
811.2188, 79.84671
811.7009, 69.52748
812.1830, 59.48851
812.6652, 53.80936
813.1473, 63.81095
813.6294, 89.49000
814.1115, 106.0958
814.5936, 101.1433
815.0757, 101.8859
815.5579, 125.8636
816.0400, 148.0469
816.5221, 146.0291
817.0042, 127.0647
817.4863, 107.3714
817.9684, 90.31136
818.4506, 89.19753
818.9327, 135.9879
819.4148, 189.0275
819.8969, 186.5931
820.3790, 144.7833
820.8611, 112.3640
821.3433, 103.8606
821.8254, 103.5957
822.3075, 98.85458
822.7896, 93.02847
823.2717, 93.21493
823.7538, 99.13591
824.2360, 117.0934
824.7181, 152.4920
825.2002, 178.2647
825.6823, 172.6921
826.1644, 148.2689
826.6465, 138.2337
827.1287, 148.8101
827.6108, 149.0238
828.0929, 129.9056
828.5750, 116.4145
829.0571, 122.0001
829.5392, 135.6868
830.0214, 141.5438
830.5035, 141.6364
830.9856, 143.5980
831.4677, 124.8873
831.9498, 158.4339
832.4319, 177.9987
832.9141, 184.2559
833.3962, 135.9286
833.8783, 157.6326
834.3604, 151.7879
834.8425, 145.3903
835.3246, 176.6796
835.8068, 137.0329
836.2889, 169.9731
836.7710, 161.8877
837.2531, 145.3621
837.7352, 141.8932
838.2173, 158.8382
838.6995, 179.8880
839.1816, 192.8756
839.6637, 196.1118
840.1458, 185.9805
840.6279, 165.2233
841.1100, 159.9797
841.5922, 175.7317
842.0743, 195.1921
842.5564, 207.2619
843.0385, 212.8700
843.5206, 216.2612
844.0027, 218.3705
844.4849, 209.8896
844.9670, 178.4050
845.4491, 164.3213
845.9312, 199.6716
846.4133, 240.1435
846.8954, 234.8253
847.3776, 192.6492
847.8597, 169.7715
848.3418, 186.1788
848.8239, 200.4591
849.3060, 209.7676
849.7881, 211.8438
850.2703, 198.7417
850.7524, 178.8465
851.2345, 169.3099
851.7166, 175.7830
852.1987, 181.7330
852.6808, 167.3940
853.1630, 157.4343
853.6451, 184.8044
854.1272, 227.2445
854.6093, 246.2742
855.0914, 238.9256
855.5735, 229.3341
856.0557, 232.1668
856.5378, 235.1117
857.0199, 211.5570
857.5020, 174.2310
857.9841, 176.1467
858.4662, 215.0409
858.9484, 226.6569
859.4305, 184.1910
859.9126, 125.9646
860.3947, 96.59662
860.8768, 93.30655
861.3589, 95.50122
861.8411, 102.4106
862.3232, 122.6656
862.8053, 168.2355
863.2874, 199.5458
863.7695, 186.0208
864.2516, 144.6960
864.7338, 118.5553
865.2159, 116.5132
865.6980, 104.8237
866.1801, 61.33655
866.6622, 35.39551
867.1443, 53.17766
867.6265, 85.14493
868.1086, 103.7795
868.5907, 111.4538
869.0728, 123.4032
869.5549, 156.3684
870.0370, 164.7137
870.5192, 101.4358
871.0013, 43.94788
871.4834, 68.99773
871.9655, 138.6584
872.4476, 175.3401
872.9297, 158.8344
873.4119, 129.4303
873.8940, 96.77121
874.3761, 77.88466
874.8582, 104.6613
875.3403, 150.4924
875.8224, 167.8922
876.3046, 153.5217
876.7867, 131.0915
877.2688, 113.2324
877.7509, 101.2013
878.2330, 100.0925
878.7151, 105.5237
879.1973, 103.2283
879.6794, 93.76443
880.1615, 85.13449
880.6436, 79.98595
881.1257, 84.23642
881.6078, 106.8831
882.0900, 140.3045
882.5721, 152.7310
883.0542, 142.3380
883.5363, 131.8934
884.0184, 123.2206
884.5005, 120.2002
884.9827, 131.2275
885.4648, 137.7620
885.9469, 100.7931
886.4290, 9.896484
886.9111, 32.25676
887.3932, 1.375046
887.8754, 33.25867
888.3575, 68.82996
888.8396, 91.41284
889.3217, 79.51001
889.8038, 45.82094
890.2859, 30.54147
890.7681, 47.37585
891.2502, 52.97952
891.7323, 28.53130
892.2144, 8.826935
892.6965, 11.11154
893.1786, 24.86244
893.6608, 41.98064
894.1429, 59.36441
894.6250, 66.37814
895.1071, 57.48141
895.5892, 40.53168
896.0714, 4.158264
896.5535, 25.89429
897.0356, 16.75569
897.5177, 15.02921
897.9998, 32.14069
898.4819, 23.93674
898.9641, 8.219147
899.4462, 13.58450
899.9283, 26.24652
900.4104, 0.9974060
900.8925, 43.49188
901.3746, 53.95752
901.8568, 31.19330
902.3389, 3.274475
902.8210, 15.28229
903.3031, 25.70618
903.7852, 28.71689
904.2673, 24.96930
904.7495, 14.14633
905.2316, 2.356842
905.7137, 20.50778
906.1958, 38.57361
906.6779, 41.92560
907.1600, 14.69437
907.6422, 25.23495
908.1243, 30.45142
908.6064, 2.207184
909.0885, 24.28903
909.5706, 47.61130
910.0527, 55.88129
910.5349, 41.36066
911.0170, 21.18039
911.4991, 16.65482
911.9812, 26.24582
912.4633, 33.21396
912.9454, 35.02756
913.4276, 45.95346
913.9097, 76.61020
914.3918, 96.39166
914.8739, 82.61362
915.3560, 51.91620
915.8381, 34.75372
916.3203, 33.48419
916.8024, 30.82224
917.2845, 21.87527
917.7666, 19.29251
918.2487, 39.95654
918.7308, 53.91510
919.2130, 29.27548
919.6951, 16.57034
920.1772, 36.08304
920.6593, 17.32526
921.1414, 0.3522340
921.6235, 15.76590
922.1057, 22.71136
922.5878, 9.228088
923.0699, 8.885406
923.5520, 14.18713
924.0341, 8.663391
924.5162, 7.418488
924.9984, 11.62537
925.4805, 23.66614
925.9626, 64.71609
926.4447, 93.42578
926.9268, 65.83612
927.4089, 14.19363
927.8911, 11.14844
928.3732, 3.945618
928.8553, 3.880035
929.3374, 5.674530
929.8195, 17.53601
930.3016, 16.21622
930.7838, 15.71359
931.2659, 43.60876
931.7480, 83.13388
932.2301, 88.80478
932.7122, 49.06235
933.1943, 9.375671
933.6765, 10.28516
934.1586, 24.09586
934.6407, 14.75232
935.1228, 3.259827
935.6049, 1.888641
936.0870, 18.23126
936.5692, 41.08572
937.0513, 59.47134
937.5334, 70.27243
938.0155, 65.11020
938.4976, 52.49478
938.9797, 54.33444
939.4619, 64.05383
939.9440, 53.36203
940.4261, 21.14728
940.9082, 2.886993
941.3903, 21.42313
941.8724, 55.10175
942.3546, 71.84015
942.8367, 74.74820
943.3188, 77.72250
943.8009, 80.58936
944.2830, 73.87732
944.7651, 53.80774
945.2472, 51.18890
945.7293, 90.30981
946.2114, 144.2368
946.6935, 144.8582
947.1757, 95.00934
947.6578, 76.75848
948.1399, 94.92224
948.6220, 110.5998
949.1041, 109.7518
949.5862, 109.9267
950.0684, 131.6667
950.5505, 163.4751
951.0326, 151.2332
951.5147, 84.27887
951.9968, 53.40588
952.4789, 68.14935
952.9611, 104.5729
953.4432, 162.3456
953.9253, 212.7672
954.4074, 216.5958
954.8895, 184.0847
955.3716, 186.4645
955.8538, 237.7674
956.3359, 268.6711
956.8180, 269.3190
957.3001, 253.6197
957.7822, 217.2039
958.2643, 186.7543
958.7465, 201.4189
959.2286, 260.3040
959.7107, 289.0176
960.1928, 266.3987
960.6749, 258.0969
961.1570, 284.5491
961.6392, 308.3848
962.1213, 313.7349
962.6034, 302.1403
963.0855, 269.2614
963.5676, 209.0783
964.0497, 178.0858
964.5319, 194.5710
965.0140, 211.5915
965.4961, 222.5459
965.9782, 231.0494
966.4603, 242.1273
966.9424, 251.6548
967.4246, 250.7449
967.9067, 235.1107
968.3888, 234.1941
968.8709, 267.0162
969.3530, 289.8922
969.8351, 294.6668
970.3173, 286.3823
970.7994, 257.6815
971.2815, 221.3381
971.7636, 205.6083
972.2457, 217.1949
972.7278, 226.5145
973.2100, 228.4733
973.6921, 229.7155
974.1742, 231.2384
974.6563, 233.6632
975.1384, 236.7104
975.6205, 241.1360
976.1027, 248.6165
976.5848, 259.5822
977.0669, 272.8001
977.5490, 299.0407
978.0311, 311.6890
978.5132, 284.7670
978.9954, 256.3655
979.4775, 267.3882
979.9596, 304.6870
980.4417, 325.6437
980.9238, 319.0335
981.4059, 307.6685
981.8881, 283.7471
982.3702, 274.5137
982.8523, 300.5723
983.3344, 340.5425
983.8165, 371.5295
984.2986, 396.1971
984.7808, 434.0847
985.2629, 497.5460
985.7450, 542.2704
986.2271, 552.8725
986.7092, 540.6276
987.1913, 486.0146
987.6735, 430.8087
988.1556, 426.9819
988.6377, 463.1786
989.1198, 485.8152
989.6019, 474.1003
990.0840, 472.2242
990.5662, 513.7993
991.0483, 552.3881
991.5304, 554.5626
992.0125, 542.7583
992.4946, 542.7903
992.9767, 553.7773
993.4589, 559.3555
993.9410, 550.4943
994.4231, 552.2126
994.9052, 587.3553
995.3873, 623.3127
995.8694, 644.9617
996.3516, 651.9009
996.8337, 636.2780
997.3158, 606.3649
997.7979, 590.0964
998.2800, 600.0556
998.7621, 609.3453
999.2443, 593.1855
999.7264, 586.3582
1000.208, 625.8884
1000.691, 677.5093
1001.173, 697.2028
1001.655, 689.4159
1002.137, 689.0448
1002.619, 710.2944
1003.101, 726.7828
1003.583, 727.6677
1004.065, 718.4991
1004.548, 688.0978
1005.030, 659.9848
1005.512, 666.4755
1005.994, 700.7286
1006.476, 731.8757
1006.958, 752.8601
1007.440, 758.4724
1007.922, 739.0832
1008.404, 711.7571
1008.887, 677.3393
1009.369, 647.6973
1009.851, 633.9576
1010.333, 636.6554
1010.815, 657.6992
1011.297, 705.5782
1011.779, 731.6439
1012.261, 693.4948
1012.744, 653.1017
1013.226, 644.4849
1013.708, 653.5186
1014.190, 673.3612
1014.672, 695.3487
1015.154, 698.4156
1015.636, 672.0025
1016.118, 657.2964
1016.600, 688.0027
1017.083, 712.8025
1017.565, 699.9757
1018.047, 673.1461
1018.529, 651.3958
1019.011, 636.7675
1019.493, 628.1153
1019.975, 625.7332
1020.457, 625.3422
1020.940, 624.6369
1021.422, 626.7794
1021.904, 638.2946
1022.386, 648.7272
1022.868, 645.2540
1023.350, 634.4178
1023.832, 634.3177
1024.314, 650.1917
1024.797, 656.3275
1025.279, 643.4367
1025.761, 623.2064
1026.243, 581.9883
1026.725, 551.9205
1027.207, 576.4853
1027.689, 623.2706
1028.171, 621.7950
1028.653, 558.2697
1029.135, 520.1135
1029.618, 546.0510
1030.100, 567.5674
1030.582, 564.2130
1031.064, 554.3940
1031.546, 554.9264
1032.028, 554.7847
1032.510, 529.8710
1032.992, 477.3577
1033.475, 441.9686
1033.957, 432.2346
1034.439, 434.4653
1034.921, 466.4796
1035.403, 488.0399
1035.885, 469.1501
1036.367, 432.5222
1036.849, 411.5440
1037.332, 406.4055
1037.814, 389.9595
1038.296, 336.9427
1038.778, 312.5615
1039.260, 353.8695
1039.742, 378.8201
1040.224, 333.3823
1040.706, 273.1967
1041.188, 268.7235
1041.671, 312.6301
1042.153, 333.7489
1042.635, 325.1259
1043.117, 306.9780
1043.599, 262.4326
1044.081, 240.8988
1044.563, 278.7847
1045.045, 318.8447
1045.527, 299.2042
1046.010, 237.7785
1046.492, 208.9022
1046.974, 224.1497
1047.456, 236.5057
1047.938, 245.4921
1048.420, 244.6404
1048.902, 228.7105
1049.384, 216.2017
1049.866, 214.3865
1050.349, 220.3066
1050.831, 226.9016
1051.313, 238.2155
1051.795, 235.2446
1052.277, 219.1340
1052.759, 190.1621
1053.241, 141.0634
1053.723, 108.0751
1054.206, 110.1725
1054.688, 127.5693
1055.170, 118.4447
1055.652, 88.34998
1056.134, 83.49686
1056.616, 102.5739
1057.098, 115.8496
1057.580, 118.9261
1058.063, 112.8561
1058.545, 100.2149
1059.027, 89.05536
1059.509, 93.17566
1059.991, 110.1999
1060.473, 126.5776
1060.955, 141.5377
1061.437, 148.4441
1061.919, 142.3590
1062.401, 135.3021
1062.884, 133.0395
1063.366, 127.9953
1063.848, 117.2112
1064.330, 111.0912
1064.812, 140.7272
1065.294, 188.6938
1065.776, 200.8878
1066.258, 185.2984
1066.741, 179.0238
1067.223, 189.7360
1067.705, 200.0380
1068.187, 192.7431
1068.669, 178.2431
1069.151, 157.3954
1069.633, 138.5579
1070.115, 136.1535
1070.598, 145.1094
1071.080, 159.3930
1071.562, 174.4473
1072.044, 178.3011
1072.526, 164.0176
1073.008, 152.8466
1073.490, 163.9623
1073.972, 181.3572
1074.454, 194.7356
1074.937, 202.5914
1075.419, 198.6448
1075.901, 188.3352
1076.383, 186.2742
1076.865, 196.6360
1077.347, 209.0852
1077.829, 227.8348
1078.311, 236.0247
1078.793, 222.0980
1079.276, 173.7323
1079.758, 201.7758
1080.240, 215.7079
1080.722, 216.2414
1081.204, 163.2135
1081.686, 179.2872
1082.168, 167.6534
1082.650, 154.8735
1083.133, 180.6393
1083.615, 135.3279
1084.097, 160.3877
1084.579, 157.3320
1085.061, 167.3367
1085.543, 150.0150
1086.025, 141.1841
1086.507, 159.8081
1086.990, 162.8077
1087.472, 141.4690
1087.954, 152.0405
1088.436, 105.7040
1088.918, 109.4148
1089.400, 134.6523
1089.882, 129.3763
1090.364, 132.1080
1090.846, 115.3532
1091.328, 84.26714
1091.811, 32.00797
1092.293, 6.887756
1092.775, 21.93728
1093.257, 37.18207
1093.739, 32.21590
1094.221, 17.44059
1094.703, 4.302048
1095.185, 3.749557
1095.668, 11.12988
1096.150, 44.79536
1096.632, 37.83725
1097.114, 9.555813
1097.596, 39.13607
1098.078, 29.36089
1098.560, 4.448376
1099.042, 18.74303
1099.525, 33.21499
1100.007, 18.11509
1100.489, 9.540516
1100.971, 8.132881
1101.453, 12.86371
1101.935, 23.91958
1102.417, 20.44976
1102.899, 12.85638
1103.381, 6.043926
1103.864, 1.974327
1104.346, 19.28899
1104.828, 31.22311
1105.310, 12.23535
1105.792, 11.56626
1106.274, 4.750086
1106.756, 51.86893
1107.238, 18.49332
1107.720, 0.7842990
1108.203, 6.660069
1108.685, 41.02054
1109.167, 19.63308
1109.649, 26.01188
1110.131, 33.61767
1110.613, 2.698269
1111.095, 42.86232
1111.577, 12.57437
1112.060, 10.39437
1112.542, 4.544841
1113.024, 8.411751
1113.506, 12.78707
1113.988, 10.71372
1114.470, 18.76640
1114.952, 2.508791
1115.434, 18.12267
1115.917, 23.27367
1116.399, 14.69553
1116.881, 15.42650
1117.363, 0.4357490
1117.845, 16.42463
1118.327, 20.58418
1118.809, 28.88998
1119.291, 14.92006
1119.773, 18.29774
1120.255, 19.78895
1120.738, 20.68966
1121.220, 11.74414
1121.702, 18.19535
1122.184, 5.000935
1122.666, 12.33207
1123.148, 12.45776
1123.630, 6.205162
1124.112, 2.852642
1124.595, 0.1435200
1125.077, 31.13895
1125.559, 1.095768
1126.041, 10.10999
1126.523, 0.2307850
1127.005, 15.43906
1127.487, 19.40375
1127.969, 43.68510
1128.452, 50.56338
1128.934, 42.65699
1129.416, 26.53341
1129.898, 6.255341
1130.380, 7.839779
1130.862, 73.87537
1131.344, 124.3744
1131.826, 95.31022
1132.308, 50.97368
1132.791, 36.96634
1133.273, 41.39663
1133.755, 44.03361
1134.237, 45.15712
1134.719, 59.21428
1135.201, 99.92167
1135.683, 121.0004
1136.165, 103.7732
1136.647, 85.59263
1137.130, 71.95288
1137.612, 63.92232
1138.094, 63.91801
1138.576, 68.36762
1139.058, 71.46503
1139.540, 73.25263
1140.022, 74.56355
1140.504, 74.66409
1140.987, 81.64636
1141.469, 99.26450
1141.951, 97.24062
1142.433, 61.84263
1142.915, 29.73268
1143.397, 34.34880
1143.879, 61.00091
1144.361, 86.84813
1144.844, 107.9831
1145.326, 104.0319
1145.808, 82.53616
1146.290, 74.85203
1146.772, 82.62536
1147.254, 81.35344
1147.736, 60.70806
1148.218, 46.97176
1148.700, 75.05187
1149.182, 104.3777
1149.665, 81.24283
1150.147, 49.39984
1150.629, 74.41198
1151.111, 120.3361
1151.593, 108.4818
1152.075, 42.00614
1152.557, 7.758675
1153.039, 48.40041
1153.522, 73.27000
1154.004, 27.18760
1154.486, 0.3388790
1154.968, 50.51219
1155.450, 105.7299
1155.932, 104.5991
1156.414, 75.35181
1156.896, 65.68123
1157.379, 75.76523
1157.861, 77.69583
1158.343, 64.22710
1158.825, 68.84390
1159.307, 97.98204
1159.789, 134.3763
1160.271, 177.4952
1160.753, 192.0029
1161.235, 141.4460
1161.718, 63.51970
1162.200, 34.22205
1162.682, 46.49729
1163.164, 82.53843
1163.646, 131.0414
1164.128, 143.8503
1164.610, 117.8144
1165.092, 95.70492
1165.574, 91.76959
1166.057, 95.42162
1166.539, 95.33154
1167.021, 102.7375
1167.503, 139.0059
1167.985, 169.3148
1168.467, 145.9223
1168.949, 98.26224
1169.431, 86.43277
1169.914, 106.0996
1170.396, 117.3076
1170.878, 106.3482
1171.360, 98.33394
1171.842, 96.23614
1172.324, 103.8151
1172.806, 139.7115
1173.288, 164.6409
1173.771, 144.1390
1174.253, 111.4945
1174.735, 109.2336
1175.217, 128.2702
1175.699, 123.5876
1176.181, 87.06682
1176.663, 84.90428
1177.145, 128.2397
1177.627, 157.0224
1178.109, 155.0461
1178.592, 134.6893
1179.074, 95.35287
1179.556, 63.45696
1180.038, 80.74670
1180.520, 123.8103
1181.002, 151.1888
1181.484, 166.1366
1181.966, 162.2447
1182.449, 146.5901
1182.931, 137.3958
1183.413, 134.7501
1183.895, 123.2865
1184.377, 92.12065
1184.859, 64.54995
1185.341, 57.82713
1185.823, 56.13155
1186.306, 48.55105
1186.788, 44.06889
1187.270, 59.17185
1187.752, 80.19464
1188.234, 75.43740
1188.716, 44.52458
1189.198, 31.72325
1189.680, 40.22530
1190.162, 59.24823
1190.645, 101.6472
1191.127, 120.0377
1191.609, 94.77718
1192.091, 65.06090
1192.573, 57.90547
1193.055, 64.93975
1193.537, 69.84697
1194.019, 74.23775
1194.501, 78.21044
1194.984, 80.27777
1195.466, 87.88237
1195.948, 94.43829
1196.430, 93.00273
1196.912, 77.22469
1197.394, 60.51849
1197.876, 48.99649
1198.358, 42.83101
1198.841, 33.76260
1199.323, 36.84177
1199.805, 80.31032
1200.287, 128.3733
1200.769, 137.6504
1201.251, 120.3771
1201.733, 106.3140
1202.215, 98.52953
1202.698, 95.09158
1203.180, 101.6018
1203.662, 98.49146
1204.144, 76.87215
1204.626, 66.10509
1205.108, 76.34074
1205.590, 94.11459
1206.072, 110.6731
1206.554, 127.1628
1207.036, 150.8245
1207.519, 172.9031
1208.001, 146.0958
1208.483, 86.51917
1208.965, 65.26352
1209.447, 77.77003
1209.929, 80.72287
1210.411, 64.33701
1210.893, 47.90581
1211.376, 41.84645
1211.858, 37.94557
1212.340, 25.84274
1212.822, 19.69762
1213.304, 34.48251
1213.786, 56.13983
1214.268, 77.19864
1214.750, 90.42023
1215.233, 80.99005
1215.715, 50.46262
1216.197, 34.09752
1216.679, 42.37645
1217.161, 14.41566
1217.643, 47.39542
1218.125, 65.97581
1218.607, 71.63019
1219.089, 23.76402
1219.572, 45.03857
1220.054, 38.60934
1220.536, 31.04736
1221.018, 62.05063
1221.500, 21.99466
1221.982, 52.39609
1222.464, 54.67950
1222.946, 69.84448
1223.428, 57.13211
1223.911, 53.03094
1224.393, 76.82452
1224.875, 85.00296
1225.357, 69.18176
1225.839, 85.28937
1226.321, 44.44708
1226.803, 43.00293
1227.285, 19.96228
1227.768, 25.78690
1228.250, 43.17459
1228.732, 55.65625
1229.214, 60.33469
1229.696, 45.81937
1230.178, 8.196564
1230.660, 5.853973
1231.142, 7.216431
1231.625, 18.00702
1232.107, 22.77676
1232.589, 19.25552
1233.071, 6.682312
1233.553, 1.753662
1234.035, 12.44110
1234.517, 33.84631
1234.999, 28.24466
1235.481, 8.217529
1235.964, 1.428864
1236.446, 0.0000000E+00
##END=



