##NAMES=Laurelite
##RRUFFID=R100035
##IDEAL CHEMISTRY=Pb_7_F_12_Cl_2_
##LOCALITY=Grand Reef mine, Klondyke, Aravaipa District, Graham County, Arizona, USA
##OWNER=RRUFF
##SOURCE=Natural History Museum of Los Angeles County 
##DESCRIPTION=Colorless fragments from the type specimen, associated with grandreefite R100012 and pseudograndreefite R100006.  Photos of type specimen are courtesy of LACMNH.
##STATUS=The identification of this mineral has been confirmed by single-crystal X-ray diffraction.
##URL=rruff.info/R100035
92.49744, 0.0000000E+00
92.97955, 0.6370240
93.46167, 8.753052
93.94379, 14.01416
94.42590, 18.34686
94.90802, 22.94092
95.39014, 27.37354
95.87225, 31.29150
96.35437, 35.46466
96.83649, 40.42102
97.31860, 46.31299
97.80072, 53.32385
98.28284, 60.28864
98.76495, 66.68066
99.24707, 74.95837
99.72919, 86.29211
100.2113, 98.42249
100.6934, 110.6490
101.1755, 123.0317
101.6577, 135.8403
102.1398, 149.5269
102.6219, 164.3240
103.1040, 179.6942
103.5861, 196.1530
104.0682, 212.1755
104.5504, 227.0274
105.0325, 240.3643
105.5146, 252.0690
105.9967, 261.8796
106.4788, 269.5529
106.9609, 275.3339
107.4431, 278.9529
107.9252, 280.7425
108.4073, 281.0814
108.8894, 280.1369
109.3715, 278.5270
109.8536, 276.4283
110.3358, 274.1365
110.8179, 271.7777
111.3000, 268.8283
111.7821, 265.5865
112.2642, 264.7475
112.7463, 267.3694
113.2285, 270.7692
113.7106, 272.8806
114.1927, 274.8922
114.6748, 276.6642
115.1569, 278.3492
115.6390, 279.8167
116.1212, 281.6069
116.6033, 284.8307
117.0854, 287.6238
117.5675, 288.3206
118.0496, 286.4843
118.5317, 282.5329
119.0139, 277.3118
119.4960, 271.1812
119.9781, 263.1741
120.4602, 253.4315
120.9423, 241.8232
121.4244, 227.9415
121.9066, 211.3406
122.3887, 191.8054
122.8708, 173.0546
123.3529, 155.2872
123.8350, 137.7315
124.3171, 119.5311
124.7993, 100.9513
125.2814, 83.62988
125.7635, 69.17090
126.2456, 58.25671
126.7277, 48.21201
127.2098, 39.15665
127.6920, 30.90369
128.1741, 23.10635
128.6562, 15.66190
129.1383, 9.129578
129.6204, 4.653717
130.1025, 1.951416
130.5847, 0.4079590
131.0668, 3.050446
131.5489, 5.877686
132.0310, 8.495728
132.5131, 11.20493
132.9952, 13.13388
133.4774, 13.34982
133.9595, 11.86197
134.4416, 10.21402
134.9237, 9.854126
135.4058, 11.00745
135.8879, 11.76642
136.3701, 11.53595
136.8522, 10.92978
137.3343, 10.25882
137.8164, 9.639709
138.2985, 9.006775
138.7806, 8.290924
139.2628, 7.541748
139.7449, 6.637299
140.2270, 5.552094
140.7091, 4.343536
141.1912, 3.036896
141.6733, 1.650513
142.1555, 0.2379460
142.6376, 1.085602
143.1197, 2.201660
143.6018, 3.319061
144.0839, 4.428009
144.5660, 5.573914
145.0482, 6.798981
145.5303, 8.111206
146.0124, 9.542267
146.4945, 11.33865
146.9766, 13.99112
147.4587, 16.44461
147.9409, 18.10052
148.4230, 19.09793
148.9051, 20.08496
149.3872, 21.44797
149.8693, 23.21802
150.3514, 26.55374
150.8336, 30.70316
151.3157, 34.81421
151.7978, 37.89819
152.2799, 39.78345
152.7620, 41.69360
153.2441, 44.75864
153.7263, 48.48193
154.2084, 52.10965
154.6905, 55.70197
155.1726, 58.97916
155.6547, 61.17725
156.1368, 61.74039
156.6190, 62.18243
157.1011, 63.09442
157.5832, 64.47781
158.0653, 66.38330
158.5474, 69.16510
159.0295, 72.70496
159.5117, 75.43845
159.9938, 77.12054
160.4759, 78.09683
160.9580, 77.88995
161.4401, 76.98163
161.9222, 76.51550
162.4044, 77.77603
162.8865, 81.28543
163.3686, 83.39066
163.8507, 83.42181
164.3328, 82.75824
164.8149, 81.56805
165.2971, 80.08917
165.7792, 78.90274
166.2613, 78.78238
166.7434, 80.52570
167.2255, 80.96066
167.7076, 79.26523
168.1898, 77.02042
168.6719, 75.16144
169.1540, 73.91263
169.6361, 73.21338
170.1182, 73.08856
170.6003, 74.05011
171.0825, 74.22498
171.5646, 72.90417
172.0467, 71.01154
172.5288, 69.67566
173.0109, 69.26877
173.4930, 69.17288
173.9752, 68.15796
174.4573, 66.00742
174.9394, 64.49677
175.4215, 64.72784
175.9036, 65.96402
176.3857, 66.53317
176.8679, 65.82254
177.3500, 64.45380
177.8321, 63.18420
178.3142, 61.96890
178.7963, 61.06177
179.2784, 60.93362
179.7606, 61.43307
180.2427, 61.31171
180.7248, 59.53485
181.2069, 57.63809
181.6890, 57.07364
182.1711, 57.98001
182.6533, 59.28281
183.1354, 59.96518
183.6175, 59.94534
184.0996, 59.75742
184.5817, 59.13644
185.0638, 58.61661
185.5460, 58.63492
186.0281, 59.27148
186.5102, 60.04575
186.9923, 60.26471
187.4744, 59.69928
187.9565, 59.14389
188.4387, 58.65973
188.9208, 58.16599
189.4029, 57.62692
189.8850, 57.04544
190.3671, 56.40964
190.8492, 55.83334
191.3314, 55.99817
191.8135, 55.41000
192.2956, 53.15408
192.7777, 50.55194
193.2598, 48.88715
193.7419, 48.70438
194.2241, 49.37250
194.7062, 49.24118
195.1883, 47.00146
195.6704, 45.44296
196.1525, 44.96094
196.6346, 45.09000
197.1168, 45.32510
197.5989, 45.46188
198.0810, 45.55566
198.5631, 45.73395
199.0452, 45.90775
199.5273, 46.30045
200.0095, 46.90210
200.4916, 47.74271
200.9737, 48.87311
201.4558, 50.33847
201.9379, 52.06024
202.4200, 53.87238
202.9022, 55.74829
203.3843, 57.71985
203.8664, 59.81866
204.3485, 62.03360
204.8306, 64.28320
205.3127, 66.45462
205.7949, 68.71469
206.2770, 71.37796
206.7591, 74.53030
207.2412, 77.86594
207.7233, 81.41818
208.2054, 85.11768
208.6876, 88.36014
209.1697, 90.53961
209.6518, 92.40427
210.1339, 94.98563
210.6160, 98.36493
211.0981, 102.3148
211.5803, 106.8899
212.0624, 112.0841
212.5445, 117.0734
213.0266, 121.3081
213.5087, 125.3109
213.9908, 129.5169
214.4730, 133.9592
214.9551, 138.6599
215.4372, 143.6258
215.9193, 148.9059
216.4014, 154.2815
216.8836, 159.5033
217.3657, 164.9402
217.8478, 171.0569
218.3299, 177.9506
218.8120, 185.0177
219.2941, 191.2881
219.7763, 196.4235
220.2584, 201.8793
220.7405, 208.3112
221.2226, 214.9092
221.7047, 221.1699
222.1868, 226.9507
222.6690, 232.3865
223.1511, 237.5579
223.6332, 242.0448
224.1153, 247.3109
224.5974, 254.1111
225.0795, 261.2118
225.5617, 267.7038
226.0438, 273.3318
226.5259, 278.5020
227.0080, 283.9335
227.4901, 289.8327
227.9722, 295.6114
228.4544, 301.3617
228.9365, 306.9438
229.4186, 312.1423
229.9007, 316.9101
230.3828, 321.4337
230.8649, 326.0269
231.3471, 331.1881
231.8292, 335.5733
232.3113, 338.5093
232.7934, 341.1191
233.2755, 344.5557
233.7576, 349.0575
234.2398, 353.7628
234.7219, 357.1588
235.2040, 358.2509
235.6861, 359.6651
236.1682, 362.1711
236.6503, 364.5937
237.1325, 365.6387
237.6146, 365.0065
238.0967, 363.7123
238.5788, 363.3053
239.0609, 364.4716
239.5430, 365.0132
240.0252, 364.9095
240.5073, 364.0901
240.9894, 362.3805
241.4715, 359.7506
241.9536, 356.6237
242.4357, 353.4660
242.9179, 350.3118
243.4000, 346.9842
243.8821, 343.7636
244.3642, 340.1572
244.8463, 335.5676
245.3284, 329.8599
245.8106, 323.6275
246.2927, 317.4735
246.7748, 311.3977
247.2569, 305.0992
247.7390, 298.5917
248.2211, 291.7189
248.7033, 284.1292
249.1854, 275.7088
249.6675, 267.2940
250.1496, 259.7037
250.6317, 252.6901
251.1138, 245.6552
251.5960, 238.7484
252.0781, 231.7332
252.5602, 224.0555
253.0423, 215.5938
253.5244, 207.0948
254.0065, 199.2774
254.4887, 191.9918
254.9708, 184.9541
255.4529, 178.4743
255.9350, 172.1219
256.4171, 165.2727
256.8992, 157.8049
257.3813, 150.2950
257.8635, 142.8991
258.3456, 135.7472
258.8277, 129.0496
259.3098, 122.9256
259.7919, 117.2565
260.2740, 111.9564
260.7562, 107.0872
261.2383, 102.4211
261.7204, 97.93161
262.2025, 93.53351
262.6846, 89.05399
263.1667, 84.37231
263.6489, 79.69516
264.1310, 75.16766
264.6131, 70.69214
265.0952, 66.71350
265.5773, 63.97531
266.0594, 61.66626
266.5416, 58.95148
267.0237, 55.47073
267.5058, 51.91232
267.9879, 49.42545
268.4700, 48.34686
268.9521, 46.74380
269.4343, 43.09570
269.9164, 39.09613
270.3985, 36.11948
270.8806, 34.53424
271.3627, 33.53638
271.8448, 32.13638
272.3270, 30.19418
272.8091, 28.45187
273.2912, 27.55991
273.7733, 26.66177
274.2554, 24.97430
274.7375, 22.39844
275.2197, 19.94678
275.7018, 19.04974
276.1839, 20.08908
276.6660, 20.23657
277.1481, 17.93515
277.6302, 15.46802
278.1124, 14.04916
278.5945, 13.70590
279.0766, 13.64230
279.5587, 12.95340
280.0408, 11.50571
280.5229, 10.65103
281.0051, 11.31943
281.4872, 11.86337
281.9693, 11.48077
282.4514, 10.31348
282.9335, 9.019836
283.4156, 8.196442
283.8978, 7.852905
284.3799, 7.308044
284.8620, 6.416550
285.3441, 5.450043
285.8262, 4.281097
286.3083, 3.104874
286.7905, 2.322784
287.2726, 2.315887
287.7547, 2.983551
288.2368, 3.381866
288.7189, 3.467758
289.2010, 3.282837
289.6832, 2.691360
290.1653, 1.882278
290.6474, 1.063339
291.1295, 0.3164220
291.6116, 0.2654570
292.0938, 0.2283940
292.5759, 1.242996
293.0580, 2.143814
293.5401, 1.711273
294.0222, 0.7028050
294.5043, 1.1429000E-02
294.9865, 4.4112999E-02
295.4686, 0.4435420
295.9507, 0.2952420
296.4328, 0.9260250
296.9149, 1.749542
297.3970, 1.654358
297.8792, 1.330215
298.3613, 1.398300
298.8434, 2.040558
299.3255, 2.947128
299.8076, 3.663239
300.2897, 4.320679
300.7719, 4.442764
301.2540, 3.452255
301.7361, 2.414566
302.2182, 2.068436
302.7003, 2.495102
303.1824, 3.212692
303.6646, 3.708725
304.1467, 4.021469
304.6288, 3.936020
305.1109, 2.801300
305.5930, 1.857224
306.0751, 1.978577
306.5573, 2.933075
307.0394, 3.716965
307.5215, 3.290176
308.0036, 1.515991
308.4857, 0.5286250
308.9678, 1.036957
309.4500, 1.674911
309.9321, 2.239532
310.4142, 2.634918
310.8963, 2.726135
311.3784, 2.373474
311.8605, 1.667236
312.3427, 1.319107
312.8248, 1.693710
313.3069, 2.028732
313.7890, 2.180038
314.2711, 2.213333
314.7532, 2.278748
315.2354, 2.457870
315.7175, 2.606171
316.1996, 2.253799
316.6817, 0.8509830
317.1638, 0.1913300
317.6459, 0.6492310
318.1281, 0.7591250
318.6102, 0.6954650
319.0923, 0.5236510
319.5744, 0.2595980
320.0565, 0.1218260
320.5386, 0.8273770
321.0208, 1.144714
321.5029, 0.9061580
321.9850, 0.4422760
322.4671, 0.1228940
322.9492, 0.7210240
323.4313, 1.256485
323.9135, 1.678375
324.3956, 2.051208
324.8777, 1.967636
325.3598, 0.4204560
325.8419, 0.6484070
326.3240, 0.1276860
326.8062, 1.569992
327.2883, 3.225098
327.7704, 3.907059
328.2525, 3.664246
328.7346, 3.331833
329.2167, 2.312332
329.6989, 1.926727
330.1810, 3.098801
330.6631, 4.962845
331.1452, 6.178528
331.6273, 5.967377
332.1094, 4.846039
332.5916, 4.468552
333.0737, 5.473404
333.5558, 6.137207
334.0379, 5.976044
334.5200, 5.489944
335.0021, 5.086227
335.4843, 4.903168
335.9664, 4.935150
336.4485, 5.267059
336.9306, 6.122894
337.4127, 6.591827
337.8948, 5.998306
338.3770, 5.450287
338.8591, 5.860931
339.3412, 7.161545
339.8233, 8.366318
340.3055, 8.195526
340.7876, 6.416458
341.2697, 5.646286
341.7518, 6.882324
342.2339, 8.224564
342.7160, 9.026901
343.1982, 9.344833
343.6803, 9.438431
344.1624, 9.452469
344.6445, 9.391403
345.1266, 9.243881
345.6087, 8.860901
346.0909, 8.655228
346.5730, 8.739563
347.0551, 9.049957
347.5372, 9.617722
348.0193, 10.55417
348.5014, 11.42201
348.9836, 11.24782
349.4657, 9.600250
349.9478, 8.363281
350.4299, 8.477570
350.9120, 8.918854
351.3941, 8.841202
351.8763, 8.101700
352.3584, 7.444458
352.8405, 7.743179
353.3226, 9.028885
353.8047, 10.25954
354.2868, 11.46312
354.7690, 12.34319
355.2511, 12.64310
355.7332, 12.47665
356.2153, 12.27643
356.6974, 12.31306
357.1795, 12.50964
357.6617, 12.68420
358.1438, 12.95580
358.6259, 12.97003
359.1080, 12.34784
359.5901, 11.44290
360.0722, 10.79837
360.5544, 10.69398
361.0365, 10.75378
361.5186, 10.46550
362.0007, 9.804337
362.4828, 9.091629
362.9649, 8.315323
363.4471, 7.713943
363.9292, 7.593262
364.4113, 8.052155
364.8934, 8.463608
365.3755, 8.294754
365.8576, 7.744537
366.3398, 7.502899
366.8219, 7.794403
367.3040, 8.162445
367.7861, 8.117233
368.2682, 7.704926
368.7503, 7.270828
369.2325, 6.866776
369.7146, 6.599167
370.1967, 6.735458
370.6788, 7.352722
371.1609, 7.756729
371.6430, 7.250183
372.1252, 6.092392
372.6073, 5.143463
373.0894, 4.721085
373.5715, 4.370483
374.0536, 3.619064
374.5357, 2.634888
375.0179, 2.045761
375.5000, 2.184311
375.9821, 2.835464
376.4642, 3.607315
376.9463, 4.848679
377.4284, 5.407639
377.9106, 4.312988
378.3927, 2.346100
378.8748, 0.8376160
379.3569, 0.1557460
379.8390, 0.1356350
380.3211, 0.7466430
380.8033, 2.175644
381.2854, 3.060379
381.7675, 3.070969
382.2496, 2.653000
382.7317, 1.860535
383.2138, 0.7768710
383.6960, 4.0222000E-02
384.1781, 0.3037110
384.6602, 1.533081
385.1423, 2.421158
385.6244, 2.880096
386.1065, 3.105209
386.5887, 3.057770
387.0708, 2.818024
387.5529, 2.548782
388.0350, 2.360123
388.5171, 2.185928
388.9992, 1.896805
389.4814, 0.9998470
389.9635, 0.7811580
390.4456, 1.906021
390.9277, 3.270081
391.4098, 4.071411
391.8919, 4.150391
392.3741, 3.673065
392.8562, 2.689697
393.3383, 1.017548
393.8204, 0.2631990
394.3025, 1.258316
394.7846, 2.245438
395.2668, 2.671127
395.7489, 2.641022
396.2310, 2.397186
396.7131, 2.053238
397.1952, 1.716248
397.6773, 1.780487
398.1595, 2.646759
398.6416, 3.227707
399.1237, 3.273819
399.6058, 3.096161
400.0879, 2.901596
400.5700, 2.754898
401.0522, 2.680664
401.5343, 2.750565
402.0164, 3.009460
402.4985, 3.132431
402.9806, 2.786636
403.4627, 2.613602
403.9449, 3.088272
404.4270, 3.977982
404.9091, 4.654999
405.3912, 4.632904
405.8733, 4.167801
406.3554, 4.138123
406.8376, 4.827133
407.3197, 5.213959
407.8018, 4.543808
408.2839, 3.541779
408.7660, 2.928864
409.2481, 2.885391
409.7303, 3.130249
410.2124, 3.464691
410.6945, 3.883102
411.1766, 4.231140
411.6587, 4.447128
412.1408, 4.620407
412.6230, 4.842606
413.1051, 5.103485
413.5872, 5.333313
414.0693, 5.547165
414.5514, 5.696243
415.0335, 5.701431
415.5157, 5.556915
415.9978, 5.268845
416.4799, 4.672485
416.9620, 3.968048
417.4441, 3.745850
417.9262, 4.348312
418.4084, 5.008041
418.8905, 5.179443
419.3726, 5.066864
419.8547, 5.242294
420.3368, 5.946350
420.8189, 6.856277
421.3011, 7.440948
421.7832, 7.616928
422.2653, 7.860489
422.7474, 8.524048
423.2295, 9.069489
423.7116, 8.912964
424.1938, 8.090775
424.6759, 7.160919
425.1580, 6.518478
425.6401, 6.161041
426.1222, 6.029678
426.6043, 6.148987
427.0865, 6.423981
427.5686, 7.063416
428.0507, 7.771133
428.5328, 8.058228
429.0149, 7.749115
429.4970, 7.232529
429.9792, 7.243790
430.4613, 8.295868
430.9434, 8.731949
431.4255, 8.302429
431.9076, 7.596832
432.3897, 6.699677
432.8719, 5.791122
433.3540, 5.270782
433.8361, 5.556488
434.3182, 6.485931
434.8003, 6.793289
435.2824, 5.670639
435.7646, 5.185577
436.2467, 6.553574
436.7288, 8.396896
437.2109, 9.132523
437.6930, 8.265411
438.1751, 6.857803
438.6573, 6.172546
439.1394, 6.243637
439.6215, 6.558426
440.1036, 7.361740
440.5857, 8.039841
441.0678, 8.100952
441.5500, 7.684860
442.0321, 7.340408
442.5142, 7.441528
442.9963, 7.746597
443.4784, 7.807755
443.9605, 7.599686
444.4427, 7.344803
444.9248, 7.170654
445.4069, 7.004730
445.8890, 6.669525
446.3711, 6.005020
446.8532, 5.596085
447.3354, 6.051147
447.8175, 6.962997
448.2996, 7.420425
448.7817, 7.192596
449.2638, 6.665161
449.7459, 6.182480
450.2281, 5.746918
450.7102, 5.473816
451.1923, 5.553650
451.6744, 5.630096
452.1565, 5.404648
452.6386, 4.977646
453.1208, 4.683228
453.6029, 4.701050
454.0850, 4.936249
454.5671, 5.128036
455.0492, 5.242554
455.5313, 5.356094
456.0135, 5.474472
456.4956, 5.589600
456.9777, 5.670319
457.4598, 5.729218
457.9419, 5.842087
458.4240, 6.096161
458.9062, 6.497314
459.3883, 6.771118
459.8704, 7.016251
460.3525, 6.998520
460.8346, 6.407501
461.3167, 5.621445
461.7989, 5.150711
462.2810, 5.190994
462.7631, 5.432648
463.2452, 5.386322
463.7273, 4.998077
464.2094, 4.624023
464.6916, 4.110397
465.1737, 3.824402
465.6558, 4.095551
466.1379, 4.798965
466.6200, 5.481033
467.1021, 5.982559
467.5843, 6.262558
468.0664, 6.198318
468.5485, 5.758362
469.0306, 5.197205
469.5127, 4.456131
469.9948, 3.719254
470.4770, 3.227371
470.9591, 2.992477
471.4412, 2.994797
471.9233, 3.345413
472.4054, 3.898621
472.8875, 4.450012
473.3697, 4.976288
473.8518, 5.305359
474.3339, 5.226883
474.8160, 4.739426
475.2981, 4.375824
475.7802, 4.294083
476.2624, 4.167633
476.7445, 3.621552
477.2266, 2.958603
477.7087, 2.839310
478.1908, 3.554047
478.6729, 4.662476
479.1551, 5.384460
479.6372, 5.628952
480.1193, 5.621048
480.6014, 5.175781
481.0835, 4.717773
481.5656, 4.405502
482.0478, 4.274475
482.5299, 4.284531
483.0120, 4.422989
483.4941, 4.649368
483.9762, 4.811920
484.4583, 4.899048
484.9405, 4.945786
485.4226, 4.886002
485.9047, 4.842667
486.3868, 5.016220
486.8689, 5.405914
487.3510, 5.641907
487.8332, 5.135147
488.3153, 4.126526
488.7974, 3.708786
489.2795, 4.133377
489.7616, 4.676117
490.2437, 5.054901
490.7259, 5.304901
491.2080, 5.352600
491.6901, 5.113464
492.1722, 4.932480
492.6543, 5.069016
493.1364, 5.424530
493.6186, 5.359314
494.1007, 4.605423
494.5828, 3.863983
495.0649, 4.125397
495.5470, 5.525787
496.0291, 6.210419
496.5113, 5.471100
496.9934, 4.561249
497.4755, 4.195755
497.9576, 4.257080
498.4397, 4.359467
498.9218, 4.349976
499.4040, 4.311279
499.8861, 4.477982
500.3682, 5.225067
500.8503, 5.379410
501.3324, 4.199814
501.8145, 3.115707
502.2967, 3.244736
502.7788, 4.304169
503.2609, 5.117188
503.7430, 4.772873
504.2251, 3.629425
504.7072, 3.168396
505.1894, 3.704163
505.6715, 4.266388
506.1536, 4.633087
506.6357, 4.913116
507.1178, 5.243866
507.5999, 5.626251
508.0821, 5.814972
508.5642, 5.604141
509.0463, 5.062927
509.5284, 4.261032
510.0105, 3.075134
510.4926, 2.222244
510.9748, 2.386917
511.4569, 3.149139
511.9390, 3.495544
512.4211, 3.218719
512.9032, 2.805084
513.3853, 2.524445
513.8674, 2.256989
514.3495, 1.647156
514.8317, 0.6121670
515.3138, 0.1765290
515.7959, 7.3638998E-02
516.2780, 1.473068
516.7601, 2.209183
517.2422, 1.909653
517.7244, 1.480698
518.2065, 1.158615
518.6886, 0.9245760
519.1707, 0.6355130
519.6528, 0.2628020
520.1349, 8.0092996E-02
520.6171, 0.6842650
521.0992, 2.493713
521.5813, 3.349258
522.0634, 2.374207
522.5455, 1.288116
523.0276, 0.4934230
523.5098, 6.6666000E-02
523.9919, 0.1892090
524.4740, 1.114670
524.9561, 2.113449
525.4382, 1.834625
525.9203, 0.2456210
526.4025, 0.5553740
526.8846, 0.3247530
527.3667, 1.606613
527.8488, 2.014526
528.3309, 1.678253
528.8130, 1.408966
529.2952, 1.502716
529.7773, 1.717178
530.2594, 1.859665
530.7415, 1.931717
531.2236, 1.983261
531.7057, 2.050995
532.1879, 2.068130
532.6700, 1.895859
533.1521, 1.428665
533.6342, 0.9998630
534.1163, 0.6716310
534.5984, 0.3379520
535.0806, 0.2034760
535.5627, 0.8205570
536.0448, 1.108810
536.5269, 0.7842710
537.0090, 9.5977999E-02
537.4911, 0.1555020
537.9733, 0.3774260
538.4554, 0.5764160
538.9375, 2.1973001E-02
539.4196, 0.6497190
539.9017, 1.125427
540.3839, 1.368179
540.8660, 1.404739
541.3481, 1.102631
541.8302, 0.6898350
542.3123, 0.8361360
542.7944, 1.652374
543.2766, 2.019119
543.7587, 1.158249
544.2408, 9.7701997E-02
544.7229, 0.4322970
545.2050, 0.2831730
545.6871, 0.7239990
546.1693, 0.1383970
546.6514, 1.142578
547.1335, 0.6218720
547.6156, 1.230591
548.0977, 2.440933
548.5798, 1.641388
549.0620, 0.4028930
549.5441, 1.101639
550.0262, 1.368088
550.5083, 2.773483
550.9904, 2.526978
551.4725, 1.640900
551.9547, 0.5851900
552.4368, 0.4195860
552.9189, 1.077484
553.4010, 1.115585
553.8831, 0.6866760
554.3652, 0.4085540
554.8474, 0.3686980
555.3295, 0.2575840
555.8116, 0.3055730
556.2937, 0.7572780
556.7758, 0.4757840
557.2579, 0.4873200
557.7401, 1.181549
558.2222, 0.7612920
558.7043, 0.1724240
559.1864, 0.5513920
559.6685, 0.3439480
560.1506, 4.0725999E-02
560.6328, 0.1918640
561.1149, 0.3077700
561.5970, 0.1587520
562.0791, 0.3457640
562.5612, 0.7633210
563.0433, 0.9451600
563.5255, 1.082703
564.0076, 1.313812
564.4897, 1.588409
564.9718, 1.864136
565.4539, 2.114624
565.9360, 2.295410
566.4182, 2.232361
566.9003, 1.713120
567.3824, 1.353760
567.8645, 1.208466
568.3466, 1.207504
568.8287, 1.356171
569.3109, 1.616943
569.7930, 1.897720
570.2751, 2.180695
570.7572, 2.408371
571.2393, 2.378036
571.7214, 2.052673
572.2036, 1.930389
572.6857, 2.232239
573.1678, 2.739136
573.6499, 3.357712
574.1320, 4.082031
574.6141, 4.285355
575.0963, 3.414200
575.5784, 2.254730
576.0605, 1.360687
576.5426, 0.7593080
577.0247, 0.4012450
577.5068, 0.2636720
577.9890, 0.3913730
578.4711, 0.9225160
578.9532, 2.221329
579.4353, 2.980988
579.9174, 2.911423
580.3995, 2.667480
580.8817, 2.417953
581.3638, 2.254257
581.8459, 2.318542
582.3280, 2.695953
582.8101, 3.183258
583.2922, 3.448944
583.7744, 3.479706
584.2565, 3.478851
584.7386, 3.566177
585.2207, 3.550690
585.7029, 3.146271
586.1850, 2.547653
586.6671, 2.284195
587.1492, 2.730133
587.6313, 3.209930
588.1135, 3.143906
588.5956, 2.746841
589.0777, 2.472733
589.5598, 2.432281
590.0419, 2.665604
590.5240, 3.302444
591.0062, 4.382019
591.4883, 4.976700
591.9704, 4.986465
592.4525, 4.703064
592.9346, 3.810486
593.4167, 2.818863
593.8989, 2.411560
594.3810, 2.733337
594.8631, 3.298798
595.3452, 3.589432
595.8273, 3.592743
596.3094, 3.420944
596.7916, 2.920090
597.2737, 2.711700
597.7558, 3.443222
598.2379, 4.425735
598.7200, 4.926483
599.2021, 4.837921
599.6843, 4.572357
600.1664, 4.163147
600.6485, 3.786377
601.1306, 3.777618
601.6127, 4.114578
602.0948, 4.334305
602.5770, 4.125397
603.0591, 3.761795
603.5412, 3.842484
604.0233, 4.967499
604.5054, 5.438278
604.9875, 4.877411
605.4697, 4.194977
605.9518, 3.864365
606.4339, 3.849396
606.9160, 3.878387
607.3981, 3.833496
607.8802, 3.824249
608.3624, 3.674759
608.8445, 3.340225
609.3266, 3.225540
609.8087, 3.506485
610.2908, 3.841461
610.7729, 4.104324
611.2551, 4.283936
611.7372, 4.235565
612.2193, 3.723129
612.7014, 3.174179
613.1835, 2.835632
613.6656, 2.730255
614.1478, 2.923889
614.6299, 3.422012
615.1120, 3.877579
615.5941, 3.983261
616.0762, 3.804031
616.5583, 3.616287
617.0405, 3.093384
617.5226, 2.851639
618.0047, 3.416534
618.4868, 4.036316
618.9689, 3.934265
619.4510, 3.053772
619.9332, 1.934219
620.4153, 0.8054500
620.8974, 0.1903080
621.3795, 0.3812410
621.8616, 0.3967440
622.3438, 1.110016
622.8259, 1.347870
623.3080, 1.379517
623.7901, 1.629578
624.2722, 2.128571
624.7543, 2.374817
625.2365, 1.774017
625.7186, 1.198349
626.2007, 1.653381
626.6828, 2.753052
627.1649, 3.242935
627.6470, 2.581451
628.1292, 1.570099
628.6113, 1.595703
629.0934, 3.087158
629.5755, 3.812180
630.0576, 2.944046
630.5397, 2.165039
631.0219, 2.048218
631.5040, 2.270584
631.9861, 2.353882
632.4682, 2.154388
632.9503, 1.954407
633.4324, 2.013306
633.9146, 2.275497
634.3967, 2.671036
634.8788, 3.236298
635.3609, 3.491394
635.8430, 3.038971
636.3251, 2.164932
636.8073, 1.666458
637.2894, 1.563095
637.7715, 1.674881
638.2536, 2.282623
638.7357, 2.841812
639.2178, 2.896072
639.7000, 2.533218
640.1821, 2.069885
640.6642, 1.664719
641.1463, 1.354340
641.6284, 1.217194
642.1105, 1.268478
642.5927, 1.424942
643.0748, 1.882690
643.5569, 2.255814
644.0390, 1.983704
644.5211, 1.393204
645.0032, 1.392303
645.4854, 2.505127
645.9675, 3.594391
646.4496, 3.972305
646.9317, 3.771133
647.4138, 2.952454
647.8959, 1.594437
648.3781, 0.7233120
648.8602, 1.225235
649.3423, 2.725693
649.8244, 3.437210
650.3065, 2.727234
650.7886, 2.152634
651.2708, 1.758591
651.7529, 1.511902
652.2350, 1.460602
652.7171, 1.543732
653.1992, 1.599808
653.6813, 1.515121
654.1635, 1.429367
654.6456, 1.626877
655.1277, 2.074356
655.6098, 2.293472
656.0919, 2.096970
656.5740, 1.988861
657.0562, 2.439224
657.5383, 3.305267
658.0204, 3.715515
658.5025, 3.298721
658.9846, 2.889130
659.4667, 2.733887
659.9489, 2.700729
660.4310, 2.669098
660.9131, 2.647369
661.3952, 2.717514
661.8773, 2.808929
662.3594, 2.825775
662.8416, 2.576065
663.3237, 1.943481
663.8058, 1.498520
664.2879, 1.502975
664.7700, 1.557220
665.2521, 1.238861
665.7343, 0.7148440
666.2164, 0.5840760
666.6985, 1.227371
667.1806, 1.959610
667.6627, 2.245255
668.1448, 2.285553
668.6270, 2.506744
669.1091, 2.977158
669.5912, 3.412598
670.0733, 3.576752
670.5554, 3.478683
671.0375, 3.165192
671.5197, 2.393799
672.0018, 1.809570
672.4839, 1.341003
672.9660, 1.179321
673.4481, 1.766663
673.9302, 2.814667
674.4124, 3.386108
674.8945, 2.824875
675.3766, 1.866791
675.8587, 1.389359
676.3408, 1.319214
676.8229, 1.375992
677.3051, 1.532990
677.7872, 1.567596
678.2693, 1.201950
678.7514, 0.4783480
679.2335, 0.1319270
679.7156, 0.5446470
680.1978, 0.8523410
680.6799, 0.8999940
681.1620, 0.8186650
681.6441, 0.3992310
682.1262, 9.0317003E-02
682.6083, 0.2576750
683.0905, 2.235062
683.5726, 4.850769
684.0547, 6.274490
684.5368, 6.508682
685.0189, 6.078735
685.5010, 4.836746
685.9832, 3.507538
686.4653, 2.711304
686.9474, 2.359192
687.4295, 1.958130
687.9116, 1.138947
688.3937, 0.7609860
688.8759, 1.572327
689.3580, 2.614029
689.8401, 2.815720
690.3222, 2.228195
690.8043, 1.637115
691.2864, 1.554626
691.7686, 1.794006
692.2507, 1.863785
692.7328, 1.692429
693.2149, 1.880692
693.6970, 2.974380
694.1791, 3.765503
694.6613, 2.954376
695.1434, 1.277527
695.6255, 0.4120180
696.1076, 0.9604640
696.5897, 1.669373
697.0718, 2.041733
697.5540, 2.137238
698.0361, 1.944740
698.5182, 1.541748
699.0003, 1.221115
699.4824, 1.187195
699.9645, 1.217445
700.4467, 0.6336360
700.9288, 0.9346390
701.4109, 1.707115
701.8930, 1.082008
702.3751, 0.2464830
702.8572, 0.3039020
703.3394, 0.6375430
703.8215, 0.8597950
704.3036, 1.004196
704.7857, 1.053276
705.2678, 1.012024
705.7499, 0.9245300
706.2321, 0.8505710
706.7142, 0.7956850
707.1963, 0.7039490
707.6784, 0.5326770
708.1605, 0.3733370
708.6426, 0.4335400
709.1248, 0.8223650
709.6069, 1.036652
710.0890, 0.9067540
710.5711, 0.8024290
711.0532, 0.8630220
711.5353, 1.030739
712.0175, 1.333481
712.4996, 1.796440
712.9817, 1.921700
713.4638, 0.8568420
713.9459, 0.4123540
714.4280, 0.2402270
714.9102, 1.129700
715.3923, 2.191917
715.8744, 2.299904
716.3565, 1.931396
716.8386, 1.823868
717.3207, 2.095833
717.8029, 1.766289
718.2850, 0.2555690
718.7671, 1.504509
719.2492, 0.9411770
719.7313, 0.3330990
720.2134, 1.305344
720.6956, 1.832970
721.1777, 2.226997
721.6598, 2.944397
722.1419, 3.441330
722.6240, 2.581406
723.1061, 0.7973710
723.5883, 8.1984997E-02
724.0704, 0.5183490
724.5525, 1.620842
725.0346, 2.237434
725.5167, 2.372528
725.9988, 2.340416
726.4810, 1.955017
726.9631, 1.668823
727.4452, 1.476730
727.9273, 1.443398
728.4094, 1.743080
728.8915, 2.259796
729.3737, 2.599518
729.8558, 2.490837
730.3379, 2.283356
730.8200, 2.443527
731.3021, 2.802376
731.7842, 2.827820
732.2664, 2.433777
732.7485, 1.997948
733.2306, 1.803421
733.7127, 1.794182
734.1948, 1.760277
734.6769, 1.732033
735.1591, 1.623466
735.6412, 1.192459
736.1233, 0.9237670
736.6054, 1.185516
737.0875, 1.753471
737.5696, 2.212967
738.0518, 2.415955
738.5339, 2.550179
739.0160, 3.006691
739.4981, 3.400505
739.9802, 2.645416
740.4623, 0.9113920
740.9445, 4.7821000E-02
741.4266, 0.7279210
741.9087, 2.334404
742.3908, 3.164207
742.8729, 3.079735
743.3550, 2.816696
743.8372, 2.135094
744.3193, 1.561737
744.8014, 1.309601
745.2835, 1.194313
745.7656, 0.9852220
746.2477, 0.6606900
746.7299, 0.4354170
747.2120, 0.4856570
747.6941, 0.6421510
748.1762, 0.6480790
748.6583, 0.5935440
749.1404, 0.7975770
749.6226, 1.347618
750.1047, 2.030434
750.5868, 2.674980
751.0689, 3.250877
751.5510, 3.445122
752.0331, 3.242607
752.5153, 2.680550
752.9974, 1.201431
753.4795, 0.1523510
753.9616, 0.6577610
754.4437, 0.4721370
754.9258, 0.1772920
755.4080, 3.3996999E-02
755.8901, 0.3490300
756.3722, 1.082352
756.8543, 1.906906
757.3364, 2.234116
757.8185, 2.094727
758.3007, 2.086952
758.7828, 2.532387
759.2649, 3.087578
759.7470, 3.004089
760.2291, 2.141670
760.7112, 1.298592
761.1934, 4.8799999E-04
761.6755, 0.5703660
762.1576, 1.027527
762.6397, 3.245232
763.1218, 4.027992
763.6039, 3.072716
764.0861, 2.000069
764.5682, 1.163040
765.0503, 0.6058270
765.5324, 0.5622330
766.0145, 0.7787400
766.4966, 0.6489030
766.9788, 6.2720999E-02
767.4609, 0.3005220
767.9430, 0.4170070
768.4251, 1.877434
768.9072, 2.204567
769.3893, 1.106735
769.8715, 0.4190060
770.3536, 0.8060460
770.8357, 1.422684
771.3178, 1.397179
771.7999, 0.8481140
772.2820, 0.6437230
772.7642, 1.248505
773.2463, 1.651611
773.7284, 1.473045
774.2105, 1.070793
774.6926, 0.6474760
775.1747, 0.2934800
775.6569, 0.1432190
776.1390, 0.2415010
776.6211, 0.4020920
777.1032, 0.5600660
777.5853, 0.7592160
778.0674, 1.016205
778.5496, 1.347641
779.0317, 1.610031
779.5138, 1.765297
779.9959, 1.761040
780.4780, 1.439827
780.9601, 0.6193390
781.4423, 0.2182310
781.9244, 0.5279080
782.4065, 0.9369660
782.8886, 1.479912
783.3707, 1.883156
783.8528, 1.778503
784.3350, 1.189331
784.8171, 0.5627980
785.2992, 1.4915000E-02
785.7813, 0.2572100
786.2634, 0.2724760
786.7455, 1.299530
787.2277, 1.769646
787.7098, 1.477913
788.1919, 0.9630430
788.6740, 0.5744250
789.1561, 0.4030300
789.6382, 0.8818970
790.1204, 2.557129
790.6025, 3.549614
791.0846, 3.238235
791.5667, 2.798325
792.0488, 2.731270
792.5309, 2.871590
793.0131, 2.922569
793.4952, 2.809761
793.9773, 2.805428
794.4594, 3.270889
794.9415, 3.704765
795.4236, 3.535934
795.9058, 2.967911
796.3879, 2.465340
796.8700, 2.188637
797.3521, 2.135941
797.8342, 2.349922
798.3163, 2.766884
798.7985, 3.015488
799.2806, 3.058891
799.7627, 3.251312
800.2448, 3.719528
800.7269, 4.293518
801.2090, 5.020859
801.6912, 5.759354
802.1733, 5.819702
802.6554, 4.699600
803.1375, 3.696365
803.6196, 3.039223
804.1017, 2.587013
804.5839, 2.188545
805.0660, 1.928291
805.5481, 2.074867
806.0302, 2.729912
806.5123, 3.436928
806.9944, 3.721230
807.4766, 3.723221
807.9587, 3.743141
808.4408, 3.796700
808.9229, 3.944000
809.4050, 4.225685
809.8871, 4.495834
810.3693, 4.574234
810.8514, 4.462807
811.3335, 4.341644
811.8156, 4.166748
812.2977, 4.041435
812.7798, 4.029358
813.2620, 4.019958
813.7441, 3.983185
814.2262, 3.885254
814.7083, 3.608688
815.1904, 2.981316
815.6725, 2.524940
816.1547, 2.747734
816.6368, 3.144135
817.1189, 3.008430
817.6010, 2.502174
818.0831, 2.340057
818.5652, 2.818047
819.0474, 3.437119
819.5295, 3.542023
820.0116, 3.211792
820.4937, 2.643356
820.9758, 1.741791
821.4579, 1.181694
821.9401, 1.233871
822.4222, 1.619240
822.9043, 2.222710
823.3864, 3.003754
823.8685, 3.101570
824.3506, 1.668678
824.8328, 0.7736360
825.3149, 1.161003
825.7970, 1.803093
826.2791, 1.848557
826.7612, 1.533783
827.2433, 1.620888
827.7255, 2.441574
828.2076, 3.259521
828.6897, 3.428253
829.1718, 3.201546
829.6539, 2.870743
830.1360, 2.519943
830.6182, 2.494476
831.1003, 2.931641
831.5824, 3.298325
832.0645, 2.910866
832.5466, 1.842293
833.0287, 0.9599460
833.5109, 0.1300740
833.9930, 6.2858999E-02
834.4751, 0.9518200
834.9572, 2.096718
835.4393, 2.442596
835.9214, 2.218582
836.4036, 2.067253
836.8857, 2.074951
837.3678, 2.098885
837.8499, 2.056274
838.3320, 2.014244
838.8141, 2.000595
839.2963, 2.023949
839.7784, 2.107971
840.2605, 2.281197
840.7426, 2.468842
841.2247, 2.420891
841.7068, 2.392868
842.1890, 3.154419
842.6711, 4.510391
843.1532, 5.230812
843.6353, 4.977585
844.1174, 4.523170
844.5995, 4.534203
845.0817, 4.896484
845.5638, 5.121490
846.0459, 5.188599
846.5280, 5.299568
847.0101, 5.395744
847.4922, 5.376640
847.9744, 5.016090
848.4565, 4.651405
848.9386, 4.939568
849.4207, 6.078224
849.9028, 6.782082
850.3849, 6.234062
850.8671, 5.667686
851.3492, 5.738220
851.8313, 6.258644
852.3134, 7.175140
852.7955, 8.297188
853.2776, 8.973701
853.7598, 8.586136
854.2419, 7.782875
854.7240, 7.588150
855.2061, 7.876625
855.6882, 8.121696
856.1703, 8.255585
856.6525, 8.300591
857.1346, 8.285645
857.6167, 8.133598
858.0988, 7.670387
858.5809, 6.821831
859.0630, 6.192024
859.5452, 5.941322
860.0273, 5.625732
860.5094, 4.969849
860.9915, 4.309967
861.4736, 3.938690
861.9557, 3.833679
862.4379, 3.829002
862.9200, 3.979660
863.4021, 4.114227
863.8842, 4.216866
864.3663, 4.243507
864.8484, 4.039886
865.3306, 3.777855
865.8127, 3.881943
866.2948, 4.476761
866.7769, 5.038612
867.2590, 4.968369
867.7411, 4.523422
868.2233, 4.245224
868.7054, 4.104179
869.1875, 3.833458
869.6696, 3.354607
870.1517, 2.959366
870.6339, 2.878372
871.1160, 3.030296
871.5981, 2.958344
872.0802, 2.593117
872.5623, 2.286644
873.0444, 2.062866
873.5266, 1.947556
874.0087, 1.880447
874.4908, 1.973351
874.9729, 2.586288
875.4550, 3.949295
875.9371, 4.507339
876.4193, 2.828415
876.9014, 1.765427
877.3835, 3.496834
877.8656, 5.785446
878.3477, 5.928192
878.8298, 4.117592
879.3120, 2.638107
879.7941, 2.702751
880.2762, 3.273270
880.7583, 3.604614
881.2404, 3.638031
881.7225, 3.044350
882.2047, 1.995438
882.6868, 1.327087
883.1689, 1.399216
883.6510, 1.810600
884.1331, 2.095810
884.6152, 2.259247
885.0974, 2.297127
885.5795, 2.205330
886.0616, 2.164726
886.5437, 2.328217
887.0258, 2.358788
887.5079, 1.894028
887.9901, 1.098969
888.4722, 0.6355130
888.9543, 0.7073060
889.4364, 0.7196880
889.9185, 0.5493550
890.4006, 0.4657210
890.8828, 0.6393430
891.3649, 0.9239040
891.8470, 1.206024
892.3291, 1.455811
892.8112, 1.468849
893.2933, 0.9911650
893.7755, 0.4716030
894.2576, 1.7662000E-02
894.7397, 0.2077030
895.2218, 0.2875670
895.7039, 1.217567
896.1860, 1.643089
896.6682, 1.131630
897.1503, 0.2743380
897.6324, 0.3463210
898.1145, 0.7199020
898.5966, 0.7994080
899.0787, 0.5953830
899.5609, 0.1256180
900.0430, 0.6341090
900.5251, 1.217178
901.0072, 1.113777
901.4893, 0.5164950
901.9714, 0.4678800
902.4536, 1.303673
902.9357, 1.377892
903.4178, 9.0095997E-02
903.8999, 1.184456
904.3820, 0.5883710
904.8641, 0.8327330
905.3463, 1.618851
905.8284, 1.719086
906.3105, 1.652481
906.7926, 1.365318
907.2747, 1.030579
907.7568, 0.4989090
908.2390, 0.1044690
908.7211, 0.3604580
909.2032, 1.007523
909.6853, 1.173943
910.1674, 0.4219670
910.6495, 0.3047100
911.1317, 0.4165880
911.6138, 0.1597600
912.0959, 0.4365310
912.5780, 1.122643
913.0601, 1.310226
913.5422, 0.8896790
914.0244, 0.3616030
914.5065, 8.4830999E-02
914.9886, 0.1094970
915.4707, 0.7751620
915.9528, 1.906647
916.4349, 2.337547
916.9171, 1.902519
917.3992, 1.277611
917.8813, 0.7593230
918.3634, 0.5341340
918.8455, 1.043701
919.3276, 2.375298
919.8098, 2.818924
920.2919, 2.029266
920.7740, 1.230537
921.2561, 0.6750110
921.7382, 0.2308730
922.2203, 0.3077320
922.7025, 0.8222660
923.1846, 0.8527220
923.6667, 0.1387710
924.1488, 0.4759670
924.6309, 0.9506230
925.1130, 1.269341
925.5952, 1.497406
926.0773, 1.531616
926.5594, 1.065865
927.0415, 0.1856160
927.5236, 0.3439870
928.0057, 6.4277999E-02
928.4879, 0.5170670
928.9700, 0.2478640
929.4521, 0.1643910
929.9342, 8.7256998E-02
930.4163, 0.8275070
930.8984, 1.382195
931.3806, 1.408798
931.8627, 1.141457
932.3448, 0.7917400
932.8269, 0.4308550
933.3090, 0.1771550
933.7911, 3.5712998E-02
934.2733, 3.8711999E-02
934.7554, 0.1900250
935.2375, 0.5005870
935.7196, 1.009148
936.2017, 1.484772
936.6838, 1.302338
937.1660, 0.3986660
937.6481, 0.2237090
938.1302, 0.9718090
938.6123, 1.608665
939.0944, 1.809387
939.5765, 1.734879
940.0587, 1.486359
940.5408, 1.102257
941.0229, 0.8786540
941.5050, 1.024475
941.9871, 0.9516530
942.4692, 0.1668470
942.9514, 0.3008040
943.4335, 0.1923980
943.9156, 1.102692
944.3977, 1.876060
944.8798, 2.461784
945.3619, 2.539413
945.8441, 1.338547
946.3262, 0.5320050
946.8083, 1.182480
947.2904, 2.072372
947.7725, 2.194206
948.2546, 1.692375
948.7368, 1.033058
949.2189, 0.3451540
949.7010, 9.2018001E-02
950.1831, 7.5286999E-02
950.6652, 0.4129030
951.1473, 0.5498430
951.6295, 0.5064240
952.1116, 9.4504997E-02
952.5937, 0.5100940
953.0758, 0.3745350
953.5579, 1.074150
954.0400, 2.790779
954.5222, 3.291649
955.0043, 2.934677
955.4864, 2.674919
955.9685, 2.555916
956.4506, 2.633743
956.9327, 2.935181
957.4149, 2.981804
957.8970, 2.239693
958.3791, 1.072647
958.8612, 0.7524110
959.3433, 1.366188
959.8254, 1.446434
960.3076, 0.7129590
960.7897, 0.3235170
961.2718, 0.8715590
961.7539, 1.670044
962.2360, 1.987862
962.7181, 1.868484
963.2003, 2.022011
963.6824, 2.804237
964.1645, 3.099747
964.6466, 2.231384
965.1287, 1.564713
965.6108, 2.284721
966.0930, 3.442085
966.5751, 3.560593
967.0572, 2.504112
967.5393, 1.571175
968.0214, 0.6622390
968.5035, 0.1642380
968.9857, 0.5321270
969.4678, 1.098412
969.9499, 1.375839
970.4320, 1.413124
970.9141, 1.488945
971.3962, 1.691376
971.8784, 1.688675
972.3605, 0.9552760
972.8426, 0.3665390
973.3247, 0.6665340
973.8068, 1.382690
974.2889, 2.071655
974.7711, 2.566467
975.2532, 2.618294
975.7353, 2.058762
976.2174, 1.402107
976.6995, 1.070122
977.1816, 0.9566500
977.6638, 0.8704220
978.1459, 0.8790740
978.6280, 1.356567
979.1101, 2.254311
979.5922, 2.707100
980.0743, 2.006348
980.5565, 0.8803560
981.0386, 0.5460430
981.5207, 0.8689730
982.0028, 1.342834
982.4849, 1.859810
982.9670, 1.856438
983.4492, 1.138092
983.9313, 0.3294530
984.4134, 6.5380000E-03
984.8955, 7.0770003E-02
985.3776, 0.2693630
985.8597, 0.6642910
986.3419, 0.8712080
986.8240, 0.8785100
987.3061, 0.4052730
987.7882, 0.8632580
988.2703, 1.926994
988.7524, 1.444275
989.2346, 0.3928760
989.7167, 1.546860
990.1988, 1.800957
990.6809, 2.067177
991.1630, 2.608414
991.6451, 2.798485
992.1273, 2.013550
992.6094, 0.9997940
993.0915, 0.9875340
993.5736, 2.061798
994.0557, 2.537102
994.5378, 1.891312
995.0200, 1.399925
995.5021, 1.199478
995.9842, 1.172363
996.4663, 1.289261
996.9484, 1.520020
997.4305, 1.913841
997.9127, 2.509399
998.3948, 2.689316
998.8769, 1.860252
999.3590, 1.276154
999.8411, 1.547241
1000.323, 1.987709
1000.805, 1.983521
1001.287, 1.777061
1001.770, 1.902451
1002.252, 2.508530
1002.734, 2.882790
1003.216, 2.644928
1003.698, 2.180687
1004.180, 1.311523
1004.662, 0.6399690
1005.144, 1.156303
1005.627, 2.410194
1006.109, 2.998253
1006.591, 2.406799
1007.073, 1.684357
1007.555, 1.476974
1008.037, 1.565567
1008.519, 1.889206
1009.001, 2.247597
1009.483, 2.298492
1009.966, 2.082291
1010.448, 1.907089
1010.930, 1.969810
1011.412, 1.971840
1011.894, 1.398521
1012.376, 0.6696620
1012.858, 0.4601590
1013.340, 0.6344070
1013.823, 0.8550260
1014.305, 1.036484
1014.787, 1.165565
1015.269, 1.232330
1015.751, 1.251671
1016.233, 1.215256
1016.715, 1.163330
1017.197, 1.181229
1017.679, 1.254379
1018.162, 1.360229
1018.644, 1.503494
1019.126, 1.736771
1019.608, 2.107437
1020.090, 2.424957
1020.572, 2.252747
1021.054, 1.702774
1021.536, 1.583542
1022.018, 1.884636
1022.501, 2.283051
1022.983, 2.723007
1023.465, 2.716743
1023.947, 1.780960
1024.429, 0.6239550
1024.911, 0.9876940
1025.393, 2.923172
1025.875, 3.768265
1026.358, 3.395538
1026.840, 2.991348
1027.322, 2.838829
1027.804, 2.817215
1028.286, 2.849541
1028.768, 2.920944
1029.250, 2.963898
1029.732, 2.937782
1030.214, 3.328537
1030.697, 4.463600
1031.179, 4.783539
1031.661, 3.589302
1032.143, 2.141724
1032.625, 1.376213
1033.107, 1.141121
1033.589, 1.017715
1034.071, 1.008850
1034.553, 1.058838
1035.036, 1.042435
1035.518, 1.428658
1036.000, 2.887634
1036.482, 3.946480
1036.964, 3.030319
1037.446, 0.9766620
1037.928, 0.3669280
1038.410, 1.822227
1038.893, 2.523087
1039.375, 1.972198
1039.857, 1.464806
1040.339, 1.391953
1040.821, 1.364601
1041.303, 0.9084090
1041.785, 0.2941820
1042.267, 0.3529510
1042.750, 1.342125
1043.232, 2.144264
1043.714, 2.775131
1044.196, 3.180695
1044.678, 3.402977
1045.160, 3.338318
1045.642, 2.569725
1046.124, 1.468758
1046.606, 1.126549
1047.089, 1.836220
1047.571, 2.375687
1048.053, 2.479256
1048.535, 2.586128
1049.017, 2.841156
1049.499, 3.116341
1049.981, 3.337006
1050.463, 3.487007
1050.945, 3.573914
1051.428, 3.619904
1051.910, 3.515518
1052.392, 3.123932
1052.874, 2.727722
1053.356, 2.446518
1053.838, 2.168770
1054.320, 1.591782
1054.802, 1.024422
1055.285, 1.247643
1055.767, 2.473595
1056.249, 3.177025
1056.731, 2.522324
1057.213, 1.860558
1057.695, 1.598724
1058.177, 1.595047
1058.659, 1.935738
1059.141, 2.370300
1059.624, 2.415016
1060.106, 1.985229
1060.588, 1.667915
1061.070, 1.566048
1061.552, 1.723572
1062.034, 2.457001
1062.516, 3.169373
1062.998, 3.337006
1063.480, 3.183495
1063.963, 3.176636
1064.445, 3.372871
1064.927, 3.320381
1065.409, 2.350159
1065.891, 1.786995
1066.373, 2.745583
1066.855, 3.756401
1067.337, 3.391266
1067.820, 2.447220
1068.302, 2.392952
1068.784, 3.331444
1069.266, 3.970047
1069.748, 3.758827
1070.230, 3.261093
1070.712, 2.382805
1071.194, 1.660767
1071.677, 1.529602
1072.159, 1.794228
1072.641, 2.381508
1073.123, 3.107903
1073.605, 3.140854
1074.087, 1.625130
1074.569, 0.7039570
1075.051, 2.138802
1075.533, 3.704277
1076.016, 3.567993
1076.498, 2.758110
1076.980, 2.796593
1077.462, 3.612595
1077.944, 4.036362
1078.426, 3.557510
1078.908, 3.095222
1079.390, 3.119926
1079.873, 3.271576
1080.355, 3.333130
1080.837, 3.356483
1081.319, 3.438690
1081.801, 3.558929
1082.283, 3.620857
1082.765, 3.606102
1083.247, 3.544777
1083.729, 3.263367
1084.212, 3.148750
1084.694, 3.598000
1085.176, 4.210564
1085.658, 4.718086
1086.140, 4.955070
1086.622, 4.557907
1087.104, 3.424332
1087.586, 2.741531
1088.068, 3.279030
1088.551, 4.088676
1089.033, 4.953903
1089.515, 5.549133
1089.997, 5.453903
1090.479, 4.981094
1090.961, 4.724915
1091.443, 4.788429
1091.925, 4.807159
1092.408, 4.611176
1092.890, 4.386620
1093.372, 3.962532
1093.854, 3.804214
1094.336, 4.591331
1094.818, 5.654938
1095.300, 5.948471
1095.782, 5.454742
1096.265, 5.045715
1096.747, 4.943932
1097.229, 4.985115
1097.711, 5.260521
1098.193, 5.562653
1098.675, 5.677330
1099.157, 5.716385
1099.639, 5.895515
1100.121, 6.169792
1100.604, 6.329308
1101.086, 6.385750
1101.568, 6.377846
1102.050, 6.152702
1102.532, 5.817223
1103.014, 5.358124
1103.496, 5.150253
1103.978, 5.581100
1104.460, 6.263542
1104.943, 6.423485
1105.425, 5.888123
1105.907, 5.526657
1106.389, 5.287933
1106.871, 5.578438
1107.353, 7.303665
1107.835, 8.666023
1108.317, 8.125565
1108.800, 6.623016
1109.282, 5.763062
1109.764, 5.627930
1110.246, 5.675903
1110.728, 6.017502
1111.210, 6.394707
1111.692, 6.574150
1112.174, 6.831116
1112.656, 7.767960
1113.139, 8.571846
1113.621, 7.936890
1114.103, 6.074638
1114.585, 5.175629
1115.067, 6.091743
1115.549, 6.292152
1116.031, 5.212868
1116.513, 4.289986
1116.995, 3.814461
1117.478, 3.839478
1117.960, 4.713097
1118.442, 6.063873
1118.924, 6.688065
1119.406, 6.375504
1119.888, 6.149887
1120.370, 6.159943
1120.852, 6.019104
1121.335, 5.448601
1121.817, 5.005829
1122.299, 5.096634
1122.781, 5.397415
1123.263, 5.406158
1123.745, 5.158371
1124.227, 4.683556
1124.709, 3.760681
1125.192, 3.485664
1125.674, 4.280502
1126.156, 4.800385
1126.638, 4.294067
1127.120, 3.574707
1127.602, 3.647491
1128.084, 4.309402
1128.566, 4.556198
1129.048, 4.344818
1129.531, 4.131424
1130.013, 3.972534
1130.495, 3.549957
1130.977, 2.701401
1131.459, 1.930893
1131.941, 1.627243
1132.423, 1.733063
1132.905, 2.331024
1133.387, 3.343552
1133.870, 3.349396
1134.352, 2.394669
1134.834, 1.943420
1135.316, 2.273499
1135.798, 2.510071
1136.280, 2.169266
1136.762, 1.563660
1137.244, 0.9982300
1137.727, 0.5812530
1138.209, 0.7167360
1138.691, 1.293930
1139.173, 1.955460
1139.655, 2.591736
1140.137, 2.854416
1140.619, 2.628876
1141.101, 2.083237
1141.583, 1.282700
1142.066, 0.4711300
1142.548, 4.1290000E-02
1143.030, 0.2614290
1143.512, 5.2490002E-03
1143.994, 0.4892430
1144.476, 0.5985260
1144.958, 0.2424160
1145.440, 0.3585970
1145.922, 1.122864
1146.405, 1.563385
1146.887, 1.023483
1147.369, 0.1127470
1147.851, 0.6357420
1148.333, 1.194641
1148.815, 1.446304
1149.297, 1.497482
1149.779, 1.650070
1150.262, 1.957611
1150.744, 2.061005
1151.226, 1.560562
1151.708, 1.111618
1152.190, 1.298157
1152.672, 1.555496
1153.154, 1.357285
1153.636, 0.9400480
1154.119, 0.7453310
1154.601, 0.7378540
1155.083, 0.4528960
1155.565, 0.3964080
1156.047, 0.9504850
1156.529, 0.7648470
1157.011, 0.4386440
1157.493, 4.6783000E-02
1157.975, 0.3057560
1158.458, 0.3563230
1158.940, 1.357285
1159.422, 1.261230
1159.904, 0.1766970
1160.386, 0.6875000
1160.868, 1.097427
1161.350, 2.001144
1161.832, 1.071960
1162.314, 1.0700000E-04
1162.797, 0.7472230
1163.279, 1.072708
1163.761, 0.6383820
1164.243, 0.2800290
1164.725, 0.3078310
1165.207, 1.068375
1165.689, 1.484024
1166.171, 0.4661870
1166.654, 4.5531999E-02
1167.136, 0.6712190
1167.618, 1.152313
1168.100, 0.2949220
1168.582, 1.052231
1169.064, 1.457153
1169.546, 1.005859
1170.028, 0.3087770
1170.510, 0.6605530
1170.993, 0.7572480
1171.475, 0.1609800
1171.957, 0.7456510
1172.439, 0.4722440
1172.921, 8.6043999E-02
1173.403, 0.4272920
1173.885, 0.6127320
1174.367, 0.8239590
1174.849, 0.9845120
1175.332, 0.7157290
1175.814, 0.1454010
1176.296, 0.1537630
1176.778, 0.1533810
1177.260, 0.3703000
1177.742, 1.047668
1178.224, 1.767609
1178.706, 2.287323
1179.189, 2.440155
1179.671, 1.836578
1180.153, 0.8424070
1180.635, 0.1580200
1181.117, 1.026001
1181.599, 1.582367
1182.081, 1.788345
1182.563, 1.653717
1183.046, 1.056564
1183.528, 0.5521850
1184.010, 0.5227200
1184.492, 0.6195680
1184.974, 0.4797360
1185.456, 0.4519040
1185.938, 1.233627
1186.420, 2.348862
1186.902, 2.495987
1187.385, 1.397598
1187.867, 0.8062900
1188.349, 1.445496
1188.831, 2.036987
1189.313, 2.496643
1189.795, 2.686081
1190.277, 2.278824
1190.759, 1.790115
1191.241, 1.822342
1191.724, 2.183350
1192.206, 2.115997
1192.688, 1.456055
1193.170, 1.071442
1193.652, 0.8979640
1194.134, 1.272720
1194.616, 2.476929
1195.098, 3.508362
1195.581, 3.814896
1196.063, 3.635239
1196.545, 3.164734
1197.027, 2.597763
1197.509, 3.031693
1197.991, 4.366196
1198.473, 4.770828
1198.955, 4.208923
1199.438, 3.758179
1199.920, 3.695389
1200.402, 3.651108
1200.884, 3.371674
1201.366, 3.224609
1201.848, 3.836929
1202.330, 4.774033
1202.812, 5.226944
1203.294, 5.349548
1203.776, 5.333847
1204.259, 5.366516
1204.741, 6.036957
1205.223, 7.372238
1205.705, 8.234070
1206.187, 7.642670
1206.669, 7.222900
1207.151, 8.657715
1207.633, 10.10712
1208.116, 9.897278
1208.598, 9.058868
1209.080, 8.579651
1209.562, 8.638550
1210.044, 9.515747
1210.526, 11.35645
1211.008, 12.57080
1211.490, 12.48944
1211.973, 12.32623
1212.455, 12.21252
1212.937, 12.16568
1213.419, 12.16302
1213.901, 12.18301
1214.383, 12.13562
1214.865, 12.16766
1215.347, 12.77252
1215.829, 13.97186
1216.312, 15.58606
1216.794, 17.92468
1217.276, 18.73666
1217.758, 17.42300
1218.240, 16.48450
1218.722, 17.12039
1219.204, 18.24069
1219.686, 18.67676
1220.168, 18.85947
1220.651, 20.06967
1221.133, 21.90494
1221.615, 22.76321
1222.097, 22.71341
1222.579, 22.22147
1223.061, 21.65723
1223.543, 22.04230
1224.025, 23.86151
1224.508, 25.93295
1224.990, 27.18143
1225.472, 28.32239
1225.954, 30.25150
1226.436, 32.22934
1226.918, 33.57422
1227.400, 34.48352
1227.882, 35.26599
1228.365, 35.93497
1228.847, 36.34009
1229.329, 36.59009
1229.811, 36.36310
1230.293, 34.38422
1230.775, 33.31088
1231.257, 34.81894
1231.739, 36.57639
1232.221, 36.59830
1232.703, 36.20312
1233.186, 37.76233
1233.668, 40.78879
1234.150, 41.50034
1234.632, 38.83798
1235.114, 38.07703
1235.596, 39.68924
1236.078, 41.25272
1236.560, 42.28003
1237.043, 42.69485
1237.525, 42.43112
1238.007, 41.99420
1238.489, 42.03271
1238.971, 42.40027
1239.453, 42.97299
1239.935, 43.45999
1240.417, 42.46414
1240.900, 40.49069
1241.382, 39.53650
1241.864, 39.86035
1242.346, 40.33231
1242.828, 40.37994
1243.310, 40.26892
1243.792, 39.89603
1244.274, 39.83585
1244.756, 41.12698
1245.239, 42.40213
1245.721, 42.11600
1246.203, 41.03491
1246.685, 40.27020
1247.167, 39.99399
1247.649, 40.31900
1248.131, 41.79428
1248.613, 42.10883
1249.095, 39.36493
1249.578, 37.94763
1250.060, 39.37253
1250.542, 41.08179
1251.024, 42.06854
1251.506, 42.24435
1251.988, 41.30478
1252.470, 39.63217
1252.952, 38.74945
1253.435, 38.67456
1253.917, 38.69934
1254.399, 38.80313
1254.881, 38.51663
1255.363, 37.78375
1255.845, 37.03003
1256.327, 36.46027
1256.809, 36.14529
1257.292, 36.09744
1257.774, 36.44595
1258.256, 37.72452
1258.738, 39.22107
1259.220, 40.08475
1259.702, 40.34836
1260.184, 40.22522
1260.666, 39.64899
1261.148, 38.00113
1261.630, 35.09698
1262.113, 33.35062
1262.595, 34.56900
1263.077, 35.67685
1263.559, 35.79855
1264.041, 35.62311
1264.523, 35.58932
1265.005, 35.30588
1265.487, 34.53589
1265.970, 33.17654
1266.452, 30.69632
1266.934, 27.04288
1267.416, 25.94647
1267.898, 27.92316
1268.380, 28.41885
1268.862, 26.93399
1269.344, 25.27710
1269.827, 24.03586
1270.309, 22.34113
1270.791, 19.43689
1271.273, 16.86292
1271.755, 17.41846
1272.237, 19.33835
1272.719, 19.57101
1273.201, 18.65720
1273.683, 17.19006
1274.166, 15.54858
1274.648, 14.32132
1275.130, 13.57788
1275.612, 12.99734
1276.094, 12.57489
1276.576, 11.79889
1277.058, 10.16174
1277.540, 8.557190
1278.022, 7.053375
1278.505, 5.997101
1278.987, 6.255310
1279.469, 6.570343
1279.951, 5.114288
1280.433, 2.594543
1280.915, 2.192596
1281.397, 4.495697
1281.879, 4.696289
1282.362, 2.564209
1282.844, 1.129913
1283.326, 0.9065550
1283.808, 0.7015990
1284.290, 2.3010001E-02
1284.772, 0.1778260
1285.254, 0.7065120
1285.736, 0.0000000E+00
##END=



