##NAMES=Laurite
##RRUFFID=R060309
##IDEAL CHEMISTRY=RuS_2_
##LOCALITY=Verkhneivinsk, Ural Mountains, Russia
##OWNER=RRUFF
##SOURCE=Michael Scott
##DESCRIPTION=Black colored metallic single crystal in the shape of a distorted pyritohedron
##STATUS=The identification of this mineral has been confirmed by single-crystal X-ray diffraction.
##URL=rruff.info/R060309
101.761, 0.000
102.243, 6.345
102.725, 10.165
103.207, 7.038
103.690, 0.150
104.172, 0.362
104.654, 7.585
105.136, 15.512
105.618, 19.624
106.100, 22.431
106.582, 21.764
107.064, 18.991
107.547, 19.629
108.029, 18.500
108.511, 21.858
108.993, 23.440
109.475, 19.552
109.957, 13.092
110.439, 9.656
110.921, 14.148
111.404, 23.784
111.886, 26.664
112.368, 15.551
112.850, 13.095
113.332, 18.752
113.814, 29.236
114.296, 41.343
114.778, 48.772
115.260, 51.494
115.743, 49.749
116.225, 37.687
116.707, 26.527
117.189, 20.749
117.671, 19.711
118.153, 19.967
118.635, 18.025
119.117, 12.902
119.600, 9.889
120.082, 10.960
120.564, 12.066
121.046, 11.101
121.528, 7.832
122.010, 3.099
122.492, 2.466
122.974, 10.407
123.456, 14.237
123.938, 13.362
124.421, 9.207
124.903, 1.588
125.385, 9.242
125.867, 20.590
126.349, 28.731
126.831, 31.516
127.313, 35.547
127.796, 40.923
128.278, 47.674
128.760, 55.637
129.242, 64.849
129.724, 75.586
130.206, 89.097
130.688, 107.076
131.170, 122.695
131.652, 134.097
132.135, 142.455
132.617, 149.026
133.099, 153.601
133.581, 158.110
134.063, 151.484
134.545, 154.941
135.027, 155.961
135.509, 154.674
135.991, 144.148
136.474, 145.561
136.956, 142.193
137.438, 138.634
137.920, 141.741
138.402, 132.581
138.884, 135.593
139.366, 133.754
139.848, 134.142
140.331, 129.721
140.813, 126.791
141.295, 128.671
141.777, 127.865
142.259, 120.413
142.741, 130.189
143.223, 135.859
143.705, 137.664
144.187, 144.535
144.669, 164.114
145.152, 188.056
145.634, 206.511
146.116, 216.859
146.598, 225.299
147.080, 238.442
147.562, 256.726
148.044, 274.649
148.527, 289.298
149.009, 303.081
149.491, 318.986
149.973, 338.744
150.455, 357.577
150.937, 368.274
151.419, 368.904
151.901, 369.372
152.383, 375.118
152.865, 381.399
153.348, 384.016
153.830, 381.421
154.312, 375.335
154.794, 367.702
155.276, 357.027
155.758, 349.043
156.240, 347.779
156.722, 348.729
157.205, 347.856
157.687, 343.639
158.169, 336.821
158.651, 328.106
159.133, 314.617
159.615, 305.577
160.097, 302.033
160.579, 303.349
161.061, 310.652
161.544, 325.490
162.026, 343.020
162.508, 350.108
162.990, 340.048
163.472, 330.219
163.954, 323.700
164.436, 319.596
164.918, 317.278
165.400, 316.560
165.883, 316.849
166.365, 316.041
166.847, 311.021
167.329, 309.803
167.811, 315.966
168.293, 325.508
168.775, 334.959
169.258, 342.846
169.740, 348.024
170.222, 346.121
170.704, 329.249
171.186, 315.455
171.668, 307.169
172.150, 303.434
172.632, 303.671
173.114, 307.850
173.596, 314.731
174.079, 319.595
174.561, 321.979
175.043, 322.487
175.525, 323.371
176.007, 321.993
176.489, 313.370
176.971, 294.374
177.454, 269.185
177.936, 254.732
178.418, 263.043
178.900, 269.008
179.382, 267.761
179.864, 263.025
180.346, 260.612
180.828, 263.695
181.310, 269.574
181.792, 266.766
182.275, 245.057
182.757, 225.778
183.239, 207.354
183.721, 192.819
184.203, 187.996
184.685, 196.226
185.167, 213.077
185.649, 221.986
186.132, 215.337
186.614, 208.498
187.096, 201.000
187.578, 194.541
188.060, 191.029
188.542, 191.345
189.024, 195.212
189.506, 201.799
189.988, 219.002
190.471, 229.909
190.953, 231.452
191.435, 226.842
191.917, 218.064
192.399, 205.492
192.881, 191.654
193.363, 182.097
193.845, 181.871
194.327, 180.291
194.810, 173.705
195.292, 166.439
195.774, 164.905
196.256, 171.929
196.738, 183.107
197.220, 187.462
197.702, 173.174
198.184, 165.849
198.667, 171.765
199.149, 183.006
199.631, 191.806
200.113, 195.246
200.595, 193.746
201.077, 188.168
201.559, 168.723
202.041, 157.796
202.523, 161.559
203.006, 170.696
203.488, 175.920
203.970, 174.054
204.452, 167.083
204.934, 158.567
205.416, 144.648
205.898, 135.042
206.380, 131.629
206.863, 131.463
207.345, 132.280
207.827, 133.321
208.309, 134.384
208.791, 135.119
209.273, 135.114
209.755, 135.520
210.237, 137.560
210.719, 139.288
211.202, 139.183
211.684, 136.872
212.166, 132.606
212.648, 126.380
213.130, 115.835
213.612, 109.173
214.094, 108.588
214.576, 110.082
215.059, 111.071
215.541, 111.033
216.023, 110.589
216.505, 110.534
216.987, 111.205
217.469, 111.102
217.951, 112.233
218.433, 111.238
218.915, 103.366
219.398, 89.788
219.880, 78.499
220.362, 79.332
220.844, 97.885
221.326, 99.183
221.808, 62.909
222.290, 30.519
222.772, 28.641
223.255, 52.968
223.737, 79.273
224.219, 85.648
224.701, 69.425
225.183, 62.080
225.665, 71.674
226.147, 80.720
226.629, 80.718
227.111, 73.996
227.594, 68.476
228.076, 70.765
228.558, 80.537
229.040, 82.182
229.522, 57.529
230.004, 44.264
230.486, 36.861
230.968, 25.415
231.451, 37.453
231.933, 43.800
232.415, 44.762
232.897, 24.188
233.379, 31.442
233.861, 27.554
234.343, 23.217
234.825, 34.409
235.307, 27.355
235.790, 25.075
236.272, 29.057
236.754, 31.080
237.236, 30.330
237.718, 28.342
238.200, 24.237
238.682, 19.418
239.164, 14.711
239.646, 10.502
240.129, 7.897
240.611, 10.007
241.093, 23.553
241.575, 30.486
242.057, 27.063
242.539, 19.448
243.021, 11.162
243.503, 4.019
243.986, 1.722
244.468, 5.490
244.950, 6.615
245.432, 7.223
245.914, 6.287
246.396, 5.113
246.878, 4.924
247.360, 5.732
247.842, 7.028
248.325, 10.131
248.807, 17.945
249.289, 16.845
249.771, 7.757
250.253, 29.234
250.735, 34.031
251.217, 24.103
251.699, 10.790
252.182, 4.066
252.664, 4.166
253.146, 4.751
253.628, 7.590
254.110, 9.326
254.592, 7.664
255.074, 4.193
255.556, 0.396
256.039, 1.629
256.521, 1.710
257.003, 0.447
257.485, 5.853
257.967, 8.873
258.449, 4.312
258.931, 3.639
259.413, 6.430
259.895, 0.116
260.378, 11.679
260.860, 17.369
261.342, 14.633
261.824, 12.316
262.306, 11.854
262.788, 13.833
263.270, 20.700
263.752, 34.537
264.234, 47.604
264.717, 47.949
265.199, 33.381
265.681, 20.223
266.163, 11.151
266.645, 6.780
267.127, 10.048
267.609, 21.889
268.091, 32.590
268.573, 31.110
269.056, 18.665
269.538, 11.925
270.020, 17.805
270.502, 26.361
270.984, 27.607
271.466, 22.007
271.948, 17.731
272.430, 20.878
272.913, 28.925
273.395, 33.923
273.877, 33.542
274.359, 33.331
274.841, 40.360
275.323, 52.315
275.805, 60.239
276.287, 60.808
276.770, 56.007
277.252, 45.631
277.734, 28.754
278.216, 16.668
278.698, 20.319
279.180, 35.719
279.662, 47.913
280.144, 56.030
280.626, 60.105
281.108, 56.648
281.591, 47.321
282.073, 43.240
282.555, 52.441
283.037, 69.528
283.519, 77.549
284.001, 71.924
284.483, 65.073
284.966, 59.868
285.448, 57.060
285.930, 59.619
286.412, 69.694
286.894, 82.032
287.376, 85.975
287.858, 78.314
288.340, 70.544
288.822, 62.300
289.305, 55.525
289.787, 54.339
290.269, 59.199
290.751, 62.967
291.233, 56.000
291.715, 32.789
292.197, 19.273
292.679, 21.104
293.161, 27.141
293.644, 32.476
294.126, 35.971
294.608, 36.723
295.090, 33.383
295.572, 25.869
296.054, 22.354
296.536, 27.835
297.018, 31.686
297.500, 30.823
297.983, 26.233
298.465, 18.974
298.947, 9.163
299.429, 1.056
299.911, 3.861
300.393, 7.887
300.875, 17.112
301.357, 23.412
301.840, 25.660
302.322, 20.951
302.804, 8.798
303.286, 5.077
303.768, 11.063
304.250, 6.030
304.732, 3.104
305.214, 6.758
305.696, 10.164
306.179, 8.083
306.661, 1.381
307.143, 4.214
307.625, 1.846
308.107, 8.768
308.589, 13.639
309.071, 9.506
309.553, 3.367
310.035, 1.389
310.518, 5.266
311.000, 7.933
311.482, 4.246
311.964, 10.551
312.446, 21.534
312.928, 6.996
313.410, 1.340
313.892, 3.751
314.375, 17.259
314.857, 7.958
315.339, 10.761
315.821, 14.058
316.303, 0.480
316.785, 6.962
317.267, 0.078
317.749, 7.099
318.232, 12.690
318.714, 13.490
319.196, 8.555
319.678, 4.774
320.160, 4.889
320.642, 7.822
321.124, 12.338
321.606, 18.343
322.088, 24.323
322.570, 27.909
323.053, 28.662
323.535, 33.265
324.017, 43.471
324.499, 56.496
324.981, 71.417
325.463, 87.616
325.945, 103.316
326.427, 117.400
326.910, 129.931
327.392, 141.793
327.874, 150.372
328.356, 161.340
328.838, 178.668
329.320, 198.613
329.802, 214.544
330.284, 223.792
330.767, 230.963
331.249, 245.857
331.731, 273.529
332.213, 300.987
332.695, 322.472
333.177, 347.569
333.659, 383.154
334.141, 429.994
334.623, 483.481
335.106, 538.876
335.588, 596.114
336.070, 658.230
336.552, 716.569
337.034, 789.974
337.516, 872.753
337.998, 975.953
338.480, 1125.353
338.962, 1350.785
339.445, 1614.864
339.927, 1794.832
340.409, 1818.610
340.891, 1957.371
341.373, 2478.956
341.855, 3081.216
342.337, 3457.757
342.819, 3507.627
343.302, 3497.892
343.784, 3646.123
344.266, 3945.387
344.748, 4355.717
345.230, 4916.145
345.712, 5521.411
346.194, 6044.635
346.676, 6489.915
347.159, 6967.752
347.641, 7540.070
348.123, 8153.706
348.605, 8742.247
349.087, 9298.350
349.569, 9831.583
350.051, 10356.914
350.533, 10863.770
351.015, 11305.925
351.497, 11695.222
351.980, 12010.399
352.462, 12257.029
352.944, 12421.607
353.426, 12484.221
353.908, 12439.890
354.390, 12268.875
354.872, 11925.424
355.354, 11352.694
355.837, 10659.919
356.319, 9788.641
356.801, 8834.456
357.283, 7829.033
357.765, 6805.933
358.247, 5823.040
358.729, 4949.788
359.211, 4188.000
359.694, 3522.899
360.176, 2969.574
360.658, 2499.513
361.140, 2122.458
361.622, 1823.052
362.104, 1580.548
362.586, 1386.483
363.068, 1234.584
363.550, 1113.261
364.033, 1032.479
364.515, 958.209
364.997, 877.513
365.479, 802.415
365.961, 743.186
366.443, 701.795
366.925, 666.570
367.407, 629.603
367.889, 591.574
368.372, 555.113
368.854, 519.422
369.336, 487.257
369.818, 463.227
370.300, 445.031
370.782, 427.404
371.264, 403.100
371.746, 381.048
372.228, 370.837
372.711, 373.336
373.193, 380.386
373.675, 388.245
374.157, 397.008
374.639, 401.535
375.121, 401.996
375.603, 400.156
376.086, 391.032
376.568, 382.018
377.050, 384.401
377.532, 400.847
378.014, 422.790
378.496, 439.292
378.978, 448.113
379.460, 459.851
379.942, 479.024
380.424, 496.302
380.907, 507.983
381.389, 514.175
381.871, 516.366
382.353, 515.466
382.835, 511.286
383.317, 503.036
383.799, 490.340
384.281, 474.001
384.763, 448.086
385.246, 422.759
385.728, 408.509
386.210, 407.473
386.692, 409.839
387.174, 404.626
387.656, 392.604
388.138, 384.862
388.621, 382.841
389.103, 385.156
389.585, 393.941
390.067, 406.543
390.549, 414.306
391.031, 408.503
391.513, 400.062
391.995, 404.197
392.477, 419.676
392.960, 429.256
393.442, 422.518
393.924, 406.149
394.406, 397.764
394.888, 399.693
395.370, 403.027
395.852, 406.349
396.334, 409.470
396.816, 413.326
397.299, 417.710
397.781, 418.946
398.263, 412.104
398.745, 395.249
399.227, 384.985
399.709, 388.032
400.191, 389.744
400.673, 383.446
401.155, 372.499
401.638, 364.150
402.120, 362.325
402.602, 362.631
403.084, 352.999
403.566, 327.027
404.048, 305.651
404.530, 293.982
405.013, 286.656
405.495, 282.107
405.977, 279.264
406.459, 275.406
406.941, 269.182
407.423, 260.435
407.905, 247.901
408.387, 230.422
408.869, 212.711
409.352, 197.673
409.834, 184.436
410.316, 171.483
410.798, 160.377
411.280, 146.914
411.762, 123.910
412.244, 96.620
412.726, 79.629
413.208, 78.235
413.691, 82.766
414.173, 79.406
414.655, 65.043
415.137, 51.734
415.619, 41.032
416.101, 30.129
416.583, 14.843
417.065, 2.479
417.547, 14.989
418.030, 17.952
418.512, 12.956
418.994, 6.253
419.476, 5.633
419.958, 13.478
420.440, 16.606
420.922, 15.541
421.404, 8.949
421.887, 2.357
422.369, 13.276
422.851, 20.787
423.333, 24.660
423.815, 20.196
424.297, 1.379
424.779, 15.560
425.261, 19.442
425.743, 15.321
426.226, 10.938
426.708, 6.708
427.190, 3.797
427.672, 3.915
428.154, 6.820
428.636, 12.923
429.118, 25.482
429.600, 32.467
430.082, 9.612
430.565, 5.521
431.047, 14.884
431.529, 26.662
432.011, 30.274
432.493, 1.265
432.975, 14.416
433.457, 10.792
433.940, 16.085
434.422, 35.752
434.904, 49.548
435.386, 56.203
435.868, 58.984
436.350, 56.156
436.832, 51.516
437.314, 46.692
437.796, 42.594
438.279, 41.868
438.761, 49.753
439.243, 64.734
439.725, 72.284
440.207, 68.420
440.689, 64.857
441.171, 71.139
441.653, 81.494
442.135, 86.823
442.618, 84.256
443.100, 78.038
443.582, 68.087
444.064, 56.724
444.546, 51.868
445.028, 56.577
445.510, 64.108
445.992, 66.085
446.474, 61.000
446.957, 57.123
447.439, 52.545
447.921, 50.908
448.403, 55.521
448.885, 64.550
449.367, 75.302
449.849, 86.697
450.331, 95.585
450.814, 92.358
451.296, 67.947
451.778, 51.683
452.260, 52.382
452.742, 56.166
453.224, 54.839
453.706, 48.630
454.188, 42.734
454.671, 41.570
455.153, 42.978
455.635, 40.783
456.117, 34.184
456.599, 28.406
457.081, 25.674
457.563, 25.413
458.045, 27.354
458.527, 33.831
459.009, 35.194
459.492, 20.361
459.974, 1.119
460.456, 3.572
460.938, 8.153
461.420, 20.897
461.902, 20.952
462.384, 8.943
462.866, 3.503
463.349, 10.262
463.831, 16.460
464.313, 19.709
464.795, 20.998
465.277, 20.695
465.759, 19.215
466.241, 18.801
466.723, 23.672
467.206, 34.482
467.688, 40.335
468.170, 40.226
468.652, 36.067
469.134, 23.931
469.616, 9.634
470.098, 5.095
470.580, 18.533
471.062, 34.285
471.544, 37.090
472.027, 29.567
472.509, 21.969
472.991, 16.717
473.473, 13.779
473.955, 13.669
474.437, 17.127
474.919, 19.008
475.401, 18.565
475.884, 16.565
476.366, 12.890
476.848, 8.399
477.330, 4.491
477.812, 1.751
478.294, 0.649
478.776, 5.098
479.258, 14.061
479.741, 18.097
480.223, 12.335
480.705, 6.145
481.187, 2.379
481.669, 1.119
482.151, 2.433
482.633, 10.428
483.115, 19.683
483.597, 20.773
484.080, 13.789
484.562, 5.594
485.044, 2.783
485.526, 9.583
486.008, 10.233
486.490, 3.462
486.972, 1.428
487.454, 10.531
487.936, 22.026
488.419, 30.211
488.901, 35.012
489.383, 34.971
489.865, 29.179
490.347, 19.097
490.829, 8.842
491.311, 5.856
491.793, 12.529
492.276, 4.358
492.758, 6.179
493.240, 11.160
493.722, 10.786
494.204, 9.821
494.686, 11.135
495.168, 14.144
495.650, 18.030
496.133, 23.028
496.615, 26.670
497.097, 27.513
497.579, 26.854
498.061, 27.283
498.543, 29.506
499.025, 29.106
499.507, 21.169
499.989, 12.575
500.471, 9.504
500.954, 12.162
501.436, 19.128
501.918, 30.263
502.400, 43.405
502.882, 50.499
503.364, 48.798
503.846, 45.405
504.328, 37.470
504.811, 30.829
505.293, 30.474
505.775, 35.711
506.257, 41.463
506.739, 44.451
507.221, 45.423
507.703, 46.640
508.185, 48.426
508.668, 47.242
509.150, 39.072
509.632, 29.536
510.114, 28.726
510.596, 38.741
511.078, 44.914
511.560, 40.104
512.042, 32.167
512.524, 27.652
513.006, 26.801
513.489, 27.664
513.971, 29.138
514.453, 31.257
514.935, 34.326
515.417, 39.546
515.899, 43.405
516.381, 45.568
516.864, 46.531
517.346, 46.289
517.828, 44.727
518.310, 42.455
518.792, 40.689
519.274, 38.777
519.756, 35.624
520.238, 31.063
520.720, 27.969
521.203, 27.847
521.685, 29.595
522.167, 32.133
522.649, 35.671
523.131, 38.270
523.613, 40.298
524.095, 40.978
524.577, 36.754
525.059, 29.989
525.542, 28.658
526.024, 36.937
526.506, 49.221
526.988, 53.540
527.470, 48.020
527.952, 39.678
528.434, 20.487
528.916, 7.041
529.398, 12.410
529.881, 29.796
530.363, 41.387
530.845, 36.324
531.327, 27.196
531.809, 30.838
532.291, 44.039
532.773, 49.258
533.255, 40.111
533.737, 27.754
534.220, 25.027
534.702, 33.493
535.184, 39.820
535.666, 44.462
536.148, 46.421
536.630, 42.925
537.112, 36.836
537.594, 32.921
538.077, 33.335
538.559, 36.367
539.041, 40.453
539.523, 45.561
540.005, 47.595
540.487, 44.603
540.969, 40.477
541.451, 38.163
541.933, 36.962
542.416, 34.438
542.898, 28.193
543.380, 25.235
543.862, 34.644
544.344, 48.271
544.826, 50.998
545.308, 41.421
545.791, 30.855
546.273, 28.158
546.755, 32.633
547.237, 38.872
547.719, 53.991
548.201, 60.899
548.683, 52.905
549.165, 39.208
549.647, 25.887
550.130, 15.604
550.612, 9.890
551.094, 11.000
551.576, 16.639
552.058, 21.758
552.540, 26.445
553.022, 29.729
553.504, 29.997
553.987, 30.000
554.469, 36.201
554.951, 50.747
555.433, 57.315
555.915, 46.153
556.397, 32.789
556.879, 27.094
557.361, 28.013
557.843, 30.117
558.326, 30.759
558.808, 34.465
559.290, 28.123
559.772, 41.109
560.254, 49.412
560.736, 53.285
561.218, 39.464
561.700, 48.179
562.182, 53.438
562.665, 57.494
563.147, 54.928
563.629, 52.429
564.111, 57.241
564.593, 65.267
565.075, 68.477
565.557, 65.263
566.039, 56.164
566.521, 39.562
567.004, 16.640
567.486, 6.755
567.968, 23.183
568.450, 36.401
568.932, 43.621
569.414, 45.859
569.896, 44.720
570.378, 40.887
570.860, 35.675
571.343, 28.320
571.825, 20.913
572.307, 19.701
572.789, 24.921
573.271, 28.290
573.753, 25.493
574.235, 20.799
574.718, 21.976
575.200, 31.074
575.682, 35.585
576.164, 29.560
576.646, 23.542
577.128, 23.904
577.610, 28.771
578.092, 33.995
578.574, 37.845
579.057, 41.001
579.539, 47.064
580.021, 57.488
580.503, 53.205
580.985, 21.663
581.467, 5.494
581.949, 5.268
582.431, 11.014
582.914, 26.406
583.396, 40.789
583.878, 49.365
584.360, 47.461
584.842, 39.636
585.324, 28.364
585.806, 15.824
586.288, 7.377
586.770, 4.979
587.253, 13.184
587.735, 2.914
588.217, 16.930
588.699, 25.050
589.181, 27.590
589.663, 7.841
590.145, 16.872
590.627, 14.369
591.109, 11.391
591.592, 24.470
592.074, 7.982
592.556, 21.674
593.038, 23.897
593.520, 31.263
594.002, 26.186
594.484, 24.643
594.966, 34.712
595.448, 38.360
595.931, 31.910
596.413, 38.744
596.895, 21.849
597.377, 25.778
597.859, 38.693
598.341, 32.835
598.823, 39.893
599.305, 42.040
599.787, 21.844
600.270, 40.513
600.752, 42.375
601.234, 26.980
601.716, 44.315
602.198, 31.298
602.680, 29.115
603.162, 34.696
603.644, 40.116
604.127, 42.861
604.609, 41.105
605.091, 38.724
605.573, 36.449
606.055, 35.007
606.537, 35.881
607.019, 39.450
607.501, 42.956
607.984, 42.998
608.466, 40.288
608.948, 38.747
609.430, 38.123
609.912, 37.332
610.394, 35.479
610.876, 33.507
611.358, 31.922
611.841, 30.804
612.323, 29.714
612.805, 26.356
613.287, 24.945
613.769, 31.843
614.251, 42.855
614.733, 47.502
615.215, 40.566
615.697, 28.461
616.180, 20.916
616.662, 17.943
617.144, 16.328
617.626, 15.498
618.108, 16.880
618.590, 24.178
619.072, 33.805
619.554, 36.660
620.036, 29.375
620.519, 21.364
621.001, 11.159
621.483, 4.507
621.965, 10.964
622.447, 26.993
622.929, 38.119
623.411, 35.065
623.893, 24.091
624.375, 19.977
624.858, 24.380
625.340, 22.774
625.822, 6.999
626.304, 5.759
626.786, 2.905
627.268, 23.935
627.750, 34.172
628.232, 23.561
628.714, 12.688
629.197, 11.276
629.679, 13.688
630.161, 12.030
630.643, 6.666
631.125, 5.275
631.607, 14.230
632.089, 28.780
632.571, 33.800
633.054, 26.221
633.536, 22.737
634.018, 29.540
634.500, 36.760
634.982, 37.407
635.464, 32.541
635.946, 25.377
636.428, 15.122
636.911, 4.582
637.393, 7.540
637.875, 17.922
638.357, 21.096
638.839, 17.061
639.321, 11.097
639.803, 6.733
640.285, 2.963
640.768, 3.136
641.250, 13.135
641.732, 19.143
642.214, 17.068
642.696, 13.480
643.178, 14.115
643.660, 17.779
644.142, 19.615
644.624, 17.289
645.107, 14.599
645.589, 13.117
646.071, 12.539
646.553, 12.007
647.035, 11.605
647.517, 13.163
647.999, 19.240
648.481, 26.776
648.963, 22.675
649.446, 2.846
649.928, 11.095
650.410, 14.977
650.892, 11.565
651.374, 1.926
651.856, 21.820
652.338, 32.269
652.820, 23.362
653.302, 12.866
653.785, 6.341
654.267, 3.998
654.749, 8.065
655.231, 17.457
655.713, 26.360
656.195, 30.664
656.677, 30.622
657.159, 24.697
657.641, 10.429
658.124, 6.256
658.606, 21.988
659.088, 39.670
659.570, 42.829
660.052, 34.541
660.534, 26.899
661.016, 18.340
661.498, 13.898
661.981, 19.362
662.463, 27.192
662.945, 28.670
663.427, 23.868
663.909, 19.334
664.391, 20.126
664.873, 22.414
665.355, 15.691
665.838, 0.603
666.320, 11.482
666.802, 14.727
667.284, 10.990
667.766, 3.403
668.248, 25.338
668.730, 36.684
669.212, 30.458
669.694, 23.403
670.177, 15.157
670.659, 9.930
671.141, 14.269
671.623, 25.430
672.105, 34.004
672.587, 34.737
673.069, 30.812
673.551, 26.025
674.033, 20.600
674.516, 16.830
674.998, 14.997
675.480, 14.082
675.962, 9.963
676.444, 4.113
676.926, 15.837
677.408, 23.304
677.890, 26.707
678.372, 14.013
678.855, 22.104
679.337, 21.823
679.819, 21.243
680.301, 32.260
680.783, 21.907
681.265, 31.602
681.747, 26.402
682.229, 20.509
682.711, 16.771
683.194, 15.548
683.676, 18.599
684.158, 27.227
684.640, 39.422
685.122, 47.951
685.604, 53.748
686.086, 53.049
686.568, 39.535
687.051, 26.280
687.533, 15.222
688.015, 8.480
688.497, 10.520
688.979, 23.404
689.461, 35.270
689.943, 38.696
690.425, 37.255
690.907, 34.276
691.390, 30.500
691.872, 27.208
692.354, 24.900
692.836, 24.222
693.318, 26.443
693.800, 31.812
694.282, 37.108
694.765, 42.813
695.247, 46.853
695.729, 50.447
696.211, 51.442
696.693, 45.828
697.175, 33.167
697.657, 23.670
698.139, 21.208
698.621, 21.703
699.104, 23.394
699.586, 25.402
700.068, 30.890
700.550, 15.510
701.032, 33.284
701.514, 43.012
701.996, 45.125
702.478, 16.816
702.960, 27.795
703.443, 23.030
703.925, 17.621
704.407, 34.133
704.889, 10.255
705.371, 26.422
705.853, 23.677
706.335, 14.665
706.817, 10.104
707.299, 13.077
707.782, 17.538
708.264, 20.315
708.746, 21.363
709.228, 21.817
709.710, 20.731
710.192, 19.243
710.674, 18.801
711.156, 19.170
711.638, 20.226
712.121, 21.886
712.603, 20.899
713.085, 13.630
713.567, 0.069
714.049, 16.897
714.531, 26.422
715.013, 28.905
715.495, 3.252
715.978, 13.935
716.460, 10.060
716.942, 5.588
717.424, 21.391
717.906, 0.161
718.388, 15.324
718.870, 16.028
719.352, 23.499
719.834, 16.321
720.317, 13.670
720.799, 25.677
721.281, 29.571
721.763, 20.714
722.245, 28.628
722.727, 6.586
723.209, 10.835
723.692, 26.303
724.174, 17.420
724.656, 24.638
725.138, 25.889
725.620, 0.332
726.102, 10.723
726.584, 6.001
727.066, 2.716
727.548, 7.360
728.031, 2.382
728.513, 5.938
728.995, 12.410
729.477, 15.763
729.959, 14.976
730.441, 5.699
730.923, 3.264
731.405, 2.678
731.888, 18.161
732.370, 27.003
732.852, 26.129
733.334, 19.493
733.816, 8.715
734.298, 3.093
734.780, 3.148
735.262, 13.539
735.744, 27.588
736.227, 38.539
736.709, 44.931
737.191, 43.210
737.673, 37.162
738.155, 34.509
738.637, 37.732
739.119, 39.518
739.601, 36.841
740.083, 32.325
740.566, 25.109
741.048, 18.367
741.530, 19.803
742.012, 31.813
742.494, 44.516
742.976, 45.319
743.458, 38.024
743.940, 37.362
744.422, 43.473
744.905, 46.452
745.387, 42.082
745.869, 35.820
746.351, 35.274
746.833, 40.967
747.315, 38.202
747.797, 11.135
748.279, 1.789
748.761, 17.654
749.244, 42.636
749.726, 53.045
750.208, 50.159
750.690, 45.410
751.172, 40.045
751.654, 37.922
752.136, 46.242
752.619, 56.567
753.101, 56.351
753.583, 46.244
754.065, 34.422
754.547, 25.051
755.029, 20.293
755.511, 27.593
755.993, 45.742
756.475, 51.436
756.958, 40.758
757.440, 31.033
757.922, 31.135
758.404, 36.908
758.886, 41.480
759.368, 45.364
759.850, 45.910
760.332, 38.920
760.815, 33.927
761.297, 35.522
761.779, 39.390
762.261, 40.746
762.743, 39.278
763.225, 38.332
763.707, 38.808
764.189, 41.171
764.671, 48.752
765.154, 57.468
765.636, 59.122
766.118, 53.125
766.600, 45.380
767.082, 39.688
767.564, 36.233
768.046, 36.775
768.528, 41.470
769.010, 41.772
769.493, 35.223
769.975, 29.460
770.457, 27.698
770.939, 30.956
771.421, 43.215
771.903, 74.182
772.385, 89.080
772.867, 77.780
773.349, 62.518
773.832, 46.111
774.314, 33.438
774.796, 31.446
775.278, 40.673
775.760, 50.439
776.242, 57.422
776.724, 60.701
777.206, 58.081
777.688, 51.602
778.171, 43.065
778.653, 34.008
779.135, 30.391
779.617, 37.989
780.099, 51.458
780.581, 59.907
781.063, 63.378
781.545, 60.952
782.028, 50.855
782.510, 42.551
782.992, 42.872
783.474, 48.350
783.956, 49.561
784.438, 41.853
784.920, 41.437
785.402, 58.386
785.885, 70.743
786.367, 65.784
786.849, 54.622
787.331, 51.534
787.813, 58.205
788.295, 64.537
788.777, 68.113
789.259, 68.619
789.742, 59.760
790.224, 49.140
790.706, 52.762
791.188, 70.610
791.670, 85.637
792.152, 84.451
792.634, 73.661
793.116, 64.374
793.598, 57.741
794.081, 57.048
794.563, 62.032
795.045, 66.048
795.527, 66.305
796.009, 63.163
796.491, 56.181
796.973, 41.800
797.455, 38.807
797.937, 57.858
798.420, 72.201
798.902, 65.868
799.384, 54.529
799.866, 57.937
800.348, 76.061
800.830, 80.968
801.312, 45.148
801.794, 33.074
802.276, 51.623
802.759, 62.740
803.241, 66.825
803.723, 42.813
804.205, 55.087
804.687, 52.821
805.169, 49.960
805.651, 67.345
806.133, 47.413
806.615, 64.480
807.098, 64.082
807.580, 76.529
808.062, 78.227
808.544, 72.904
809.026, 64.528
809.508, 53.339
809.990, 46.958
810.472, 45.971
810.955, 47.551
811.437, 51.852
811.919, 56.859
812.401, 61.234
812.883, 64.870
813.365, 64.913
813.847, 59.331
814.329, 53.566
814.812, 46.587
815.294, 39.984
815.776, 32.647
816.258, 27.069
816.740, 29.477
817.222, 43.377
817.704, 54.532
818.186, 52.973
818.669, 48.273
819.151, 48.714
819.633, 52.500
820.115, 56.322
820.597, 58.737
821.079, 57.135
821.561, 47.196
822.043, 34.065
822.525, 28.776
823.008, 29.805
823.490, 28.804
823.972, 24.202
824.454, 21.103
824.936, 23.559
825.418, 28.874
825.900, 28.451
826.382, 19.875
826.864, 14.979
827.347, 2.177
827.829, 18.903
828.311, 28.668
828.793, 32.014
829.275, 7.943
829.757, 18.624
830.239, 15.273
830.721, 11.347
831.203, 19.222
831.686, 22.002
832.168, 25.640
832.650, 24.757
833.132, 20.403
833.614, 17.448
834.096, 17.897
834.578, 19.224
835.060, 22.744
835.542, 24.257
836.025, 15.670
836.507, 1.660
836.989, 5.167
837.471, 0.646
837.953, 7.184
838.435, 11.324
838.917, 12.425
839.399, 10.949
839.881, 7.480
840.364, 5.724
840.846, 6.537
841.328, 7.062
841.810, 4.559
842.292, 0.923
842.774, 2.930
843.256, 11.960
843.739, 18.330
844.221, 21.734
844.703, 21.369
845.185, 15.514
845.667, 6.877
846.149, 0.613
846.631, 7.504
847.113, 10.094
847.595, 2.481
848.078, 1.433
848.560, 6.502
849.042, 15.077
849.524, 12.301
850.006, 1.385
850.488, 2.688
850.970, 9.599
851.452, 17.708
851.934, 9.974
852.417, 3.160
852.899, 16.224
853.381, 26.616
853.863, 29.665
854.345, 24.382
854.827, 19.109
855.309, 23.608
855.791, 29.982
856.273, 24.236
856.756, 11.479
857.238, 6.015
857.720, 9.917
858.202, 13.993
858.684, 11.284
859.166, 6.475
859.648, 12.031
860.130, 26.501
860.612, 29.041
861.095, 17.008
861.577, 7.176
862.059, 7.247
862.541, 12.024
863.023, 14.589
863.505, 14.918
863.987, 14.710
864.469, 12.170
864.952, 13.687
865.434, 25.023
865.916, 35.125
866.398, 35.098
866.880, 27.237
867.362, 19.383
867.844, 10.143
868.326, 3.948
868.808, 1.960
869.291, 2.187
869.773, 6.502
870.255, 10.932
870.737, 9.330
871.219, 1.717
871.701, 3.007
872.183, 0.788
872.666, 6.844
873.148, 10.709
873.630, 12.546
874.112, 16.786
874.594, 21.922
875.076, 21.941
875.558, 13.745
876.040, 6.938
876.522, 13.214
877.005, 24.889
877.487, 29.617
877.969, 29.114
878.451, 31.118
878.933, 36.787
879.415, 38.403
879.897, 28.287
880.379, 12.936
880.862, 8.856
881.344, 14.477
881.826, 14.728
882.308, 7.773
882.790, 2.902
883.272, 5.141
883.754, 10.879
884.236, 15.066
884.718, 17.755
885.201, 14.703
885.683, 2.675
886.165, 3.493
886.647, 1.825
887.129, 9.868
887.611, 13.351
888.093, 13.686
888.575, 16.912
889.057, 27.562
889.540, 32.198
890.022, 26.114
890.504, 19.482
890.986, 14.016
891.468, 10.960
891.950, 12.161
892.432, 17.600
892.914, 24.165
893.396, 37.094
893.879, 43.307
894.361, 30.001
894.843, 16.087
895.325, 20.504
895.807, 36.330
896.289, 46.298
896.771, 45.455
897.253, 40.920
897.735, 32.742
898.218, 26.196
898.700, 28.382
899.182, 33.764
899.664, 31.804
900.146, 23.149
900.628, 19.531
901.110, 29.287
901.593, 40.395
902.075, 36.557
902.557, 25.682
903.039, 21.712
903.521, 24.366
904.003, 28.519
904.485, 31.895
904.967, 33.923
905.449, 34.240
905.932, 33.172
906.414, 30.070
906.896, 25.764
907.378, 28.738
907.860, 40.471
908.342, 50.522
908.824, 52.325
909.306, 47.943
909.789, 40.640
910.271, 30.666
910.753, 23.811
911.235, 19.894
911.717, 21.984
912.199, 33.431
912.681, 42.465
913.163, 37.240
913.645, 21.833
914.128, 13.406
914.610, 14.763
915.092, 13.920
915.574, 6.604
916.056, 5.128
916.538, 19.777
917.020, 38.049
917.502, 42.744
917.984, 33.731
918.467, 27.314
918.949, 24.989
919.431, 24.024
919.913, 24.532
920.395, 26.725
920.877, 31.023
921.359, 35.157
921.841, 35.066
922.323, 29.346
922.806, 25.604
923.288, 28.417
923.770, 29.321
924.252, 20.096
924.734, 11.523
925.216, 18.217
925.698, 34.754
926.180, 39.765
926.662, 22.292
927.145, 7.628
927.627, 9.686
928.109, 15.369
928.591, 17.873
929.073, 16.251
929.555, 5.312
930.037, 11.694
930.519, 16.373
931.002, 6.615
931.484, 34.567
931.966, 55.164
932.448, 66.941
932.930, 65.387
933.412, 53.938
933.894, 39.267
934.376, 24.132
934.859, 11.494
935.341, 3.320
935.823, 0.594
936.305, 0.843
936.787, 5.770
937.269, 10.619
937.751, 14.980
938.233, 20.154
938.716, 26.822
939.198, 32.842
939.680, 36.118
940.162, 36.550
940.644, 31.507
941.126, 23.292
941.608, 21.374
942.090, 27.212
942.572, 34.568
943.055, 39.627
943.537, 40.735
944.019, 32.150
944.501, 16.854
944.983, 10.339
945.465, 12.619
945.947, 16.970
946.429, 21.327
946.911, 25.107
947.394, 27.892
947.876, 29.382
948.358, 28.125
948.840, 24.068
949.322, 20.115
949.804, 16.192
950.286, 15.824
950.768, 21.180
951.250, 28.194
951.733, 31.769
952.215, 32.316
952.697, 33.518
953.179, 35.760
953.661, 36.122
954.143, 33.216
954.625, 32.349
955.107, 38.227
955.589, 44.683
956.072, 40.569
956.554, 25.134
957.036, 12.148
957.518, 0.968
958.000, 3.563
958.482, 12.636
958.964, 28.085
959.446, 28.296
959.929, 19.427
960.411, 15.991
960.893, 19.224
961.375, 22.687
961.857, 29.062
962.339, 30.697
962.821, 21.623
963.303, 11.836
963.786, 8.273
964.268, 10.648
964.750, 18.790
965.232, 39.036
965.714, 50.095
966.196, 45.976
966.678, 40.347
967.160, 37.716
967.643, 34.919
968.125, 26.136
968.607, 13.566
969.089, 11.025
969.571, 29.110
970.053, 39.651
970.535, 36.546
971.017, 30.781
971.499, 24.521
971.982, 19.489
972.464, 18.089
972.946, 20.058
973.428, 21.499
973.910, 24.945
974.392, 23.402
974.874, 7.113
975.356, 5.101
975.838, 3.752
976.321, 19.201
976.803, 18.405
977.285, 0.006
977.767, 11.155
978.249, 6.987
978.731, 0.850
979.213, 13.615
979.695, 24.744
980.177, 28.846
980.660, 28.736
981.142, 29.671
981.624, 32.441
982.106, 33.033
982.588, 29.219
983.070, 24.598
983.552, 12.190
984.034, 6.860
984.516, 12.997
984.999, 1.108
985.481, 17.237
985.963, 26.573
986.445, 29.479
986.927, 6.690
987.409, 17.038
987.891, 13.170
988.373, 8.463
988.856, 23.495
989.338, 4.445
989.820, 19.212
990.302, 20.480
990.784, 27.926
991.266, 21.993
991.748, 20.193
992.230, 31.775
992.713, 21.064
993.195, 9.566
993.677, 13.548
994.159, 21.058
994.641, 30.162
995.123, 33.421
995.605, 21.648
996.087, 9.890
996.570, 5.622
997.052, 7.080
997.534, 16.313
998.016, 28.894
998.498, 32.127
998.980, 20.326
999.462, 8.966
999.944, 5.116
1000.426, 3.845
1000.908, 1.418
1001.391, 3.388
1001.873, 13.737
1002.355, 42.126
1002.837, 51.547
1003.319, 27.355
1003.801, 5.918
1004.283, 7.312
1004.765, 13.754
1005.247, 16.047
1005.730, 15.213
1006.212, 11.357
1006.694, 6.152
1007.176, 4.270
1007.658, 7.588
1008.140, 12.937
1008.622, 23.122
1009.104, 30.142
1009.587, 27.230
1010.069, 19.361
1010.551, 9.969
1011.033, 1.522
1011.515, 0.513
1011.997, 10.784
1012.479, 20.977
1012.961, 30.735
1013.443, 34.193
1013.926, 19.125
1014.408, 1.083
1014.890, 0.622
1015.372, 15.014
1015.854, 25.195
1016.336, 24.609
1016.818, 24.205
1017.300, 33.488
1017.783, 38.545
1018.265, 24.135
1018.747, 6.588
1019.229, 7.905
1019.711, 24.457
1020.193, 32.656
1020.675, 22.795
1021.157, 5.453
1021.639, 25.127
1022.122, 35.815
1022.604, 38.002
1023.086, 6.220
1023.568, 18.302
1024.050, 12.806
1024.532, 6.589
1025.014, 24.846
1025.496, 1.963
1025.979, 15.902
1026.461, 15.924
1026.943, 24.113
1027.425, 14.615
1027.907, 10.115
1028.389, 18.974
1028.871, 29.244
1029.353, 41.667
1029.835, 47.731
1030.318, 40.317
1030.800, 33.105
1031.282, 32.514
1031.764, 33.634
1032.246, 32.018
1032.728, 28.069
1033.210, 23.211
1033.692, 17.547
1034.175, 14.909
1034.657, 18.799
1035.139, 22.865
1035.621, 24.817
1036.103, 26.295
1036.585, 28.531
1037.067, 30.550
1037.549, 30.611
1038.031, 28.386
1038.514, 25.085
1038.996, 20.474
1039.478, 15.077
1039.960, 3.778
1040.442, 2.736
1040.924, 9.074
1041.406, 29.699
1041.888, 34.102
1042.370, 16.845
1042.853, 7.394
1043.335, 11.115
1043.817, 12.498
1044.299, 3.907
1044.781, 0.428
1045.263, 13.522
1045.745, 34.636
1046.227, 37.840
1046.710, 19.840
1047.192, 12.826
1047.674, 21.028
1048.156, 3.097
1048.638, 24.137
1049.120, 35.718
1049.602, 38.423
1050.084, 5.516
1050.567, 18.667
1051.049, 13.209
1051.531, 6.993
1052.013, 26.544
1052.495, 15.794
1052.977, 17.686
1053.459, 22.248
1053.941, 25.064
1054.423, 25.713
1054.906, 23.326
1055.388, 18.280
1055.870, 12.173
1056.352, 4.754
1056.834, 4.961
1057.316, 14.298
1057.798, 22.198
1058.280, 24.017
1058.762, 21.097
1059.245, 13.156
1059.727, 4.383
1060.209, 11.994
1060.691, 32.247
1061.173, 34.285
1061.655, 17.577
1062.137, 6.534
1062.619, 9.891
1063.102, 18.091
1063.584, 23.516
1064.066, 25.210
1064.548, 18.026
1065.030, 6.295
1065.512, 3.273
1065.994, 8.002
1066.476, 14.616
1066.958, 20.638
1067.441, 21.435
1067.923, 12.934
1068.405, 1.218
1068.887, 8.999
1069.369, 15.152
1069.851, 10.585
1070.333, 0.771
1070.815, 11.508
1071.297, 19.311
1071.780, 22.531
1072.262, 19.823
1072.744, 15.392
1073.226, 12.663
1073.708, 9.969
1074.190, 1.922
1074.672, 4.903
1075.154, 4.087
1075.637, 23.244
1076.119, 28.253
1076.601, 8.825
1077.083, 3.415
1077.565, 2.366
1078.047, 27.281
1078.529, 9.279
1079.011, 29.054
1079.493, 39.659
1079.976, 41.585
1080.458, 8.849
1080.940, 20.876
1081.422, 14.965
1081.904, 8.319
1082.386, 26.648
1082.868, 1.045
1083.350, 16.812
1083.833, 16.530
1084.315, 24.586
1084.797, 14.593
1085.279, 10.176
1085.761, 23.815
1086.243, 27.456
1086.725, 15.387
1087.207, 5.049
1087.689, 10.332
1088.172, 23.741
1088.654, 34.567
1089.136, 27.645
1089.618, 8.878
1090.100, 4.167
1090.582, 3.420
1091.064, 8.369
1091.546, 10.948
1092.028, 22.714
1092.511, 27.340
1092.993, 3.414
1093.475, 16.355
1093.957, 14.526
1094.439, 12.091
1094.921, 22.090
1095.403, 25.296
1095.885, 12.632
1096.368, 8.690
1096.850, 18.236
1097.332, 27.682
1097.814, 29.296
1098.296, 26.853
1098.778, 24.484
1099.260, 23.052
1099.742, 28.295
1100.224, 36.436
1100.707, 32.014
1101.189, 16.765
1101.671, 7.031
1102.153, 8.691
1102.635, 14.277
1103.117, 19.339
1103.599, 22.101
1104.081, 17.982
1104.563, 11.973
1105.046, 12.900
1105.528, 17.114
1106.010, 14.879
1106.492, 5.573
1106.974, 2.068
1107.456, 4.666
1107.938, 2.631
1108.420, 7.486
1108.903, 18.112
1109.385, 23.959
1109.867, 27.090
1110.349, 31.690
1110.831, 35.982
1111.313, 31.309
1111.795, 11.388
1112.277, 4.085
1112.760, 29.466
1113.242, 48.419
1113.724, 45.719
1114.206, 36.924
1114.688, 29.157
1115.170, 24.167
1115.652, 26.243
1116.134, 35.819
1116.616, 38.268
1117.099, 29.567
1117.581, 24.399
1118.063, 25.061
1118.545, 27.146
1119.027, 29.432
1119.509, 31.383
1119.991, 30.976
1120.473, 29.952
1120.955, 27.176
1121.438, 23.939
1121.920, 22.345
1122.402, 23.290
1122.884, 21.497
1123.366, 17.044
1123.848, 12.036
1124.330, 6.463
1124.812, 5.430
1125.295, 17.707
1125.777, 35.557
1126.259, 34.332
1126.741, 21.298
1127.223, 18.645
1127.705, 26.556
1128.187, 28.751
1128.669, 18.823
1129.151, 10.905
1129.634, 16.960
1130.116, 27.849
1130.598, 40.712
1131.080, 49.676
1131.562, 44.225
1132.044, 32.359
1132.526, 29.481
1133.008, 36.431
1133.490, 38.437
1133.973, 26.907
1134.455, 19.995
1134.937, 28.245
1135.419, 35.739
1135.901, 34.941
1136.383, 30.268
1136.865, 24.819
1137.347, 18.970
1137.830, 12.839
1138.312, 5.634
1138.794, 3.321
1139.276, 8.570
1139.758, 11.993
1140.240, 11.302
1140.722, 11.330
1141.204, 15.225
1141.687, 19.126
1142.169, 17.619
1142.651, 12.581
1143.133, 12.007
1143.615, 15.778
1144.097, 23.376
1144.579, 18.015
1145.061, 25.586
1145.543, 30.019
1146.026, 31.482
1146.508, 21.078
1146.990, 25.998
1147.472, 24.777
1147.954, 23.305
1148.436, 30.383
1148.918, 21.268
1149.400, 28.211
1149.882, 28.920
1150.365, 32.483
1150.847, 28.590
1151.329, 30.542
1151.811, 31.119
1152.293, 32.468
1152.775, 38.586
1153.257, 43.002
1153.739, 36.886
1154.222, 28.412
1154.704, 30.939
1155.186, 42.996
1155.668, 49.676
1156.150, 49.771
1156.632, 42.799
1157.114, 19.205
1157.596, 5.068
1158.078, 8.639
1158.561, 20.173
1159.043, 37.130
1159.525, 52.254
1160.007, 51.254
1160.489, 35.781
1160.971, 27.673
1161.453, 27.047
1161.935, 32.970
1162.417, 45.185
1162.900, 45.139
1163.382, 26.693
1163.864, 8.020
1164.346, 3.700
1164.828, 8.241
1165.310, 15.834
1165.792, 23.403
1166.274, 23.301
1166.757, 18.382
1167.239, 14.347
1167.721, 12.617
1168.203, 13.689
1168.685, 17.764
1169.167, 23.859
1169.649, 33.050
1170.131, 41.913
1170.614, 51.492
1171.096, 57.099
1171.578, 53.342
1172.060, 44.281
1172.542, 35.311
1173.024, 26.838
1173.506, 18.035
1173.988, 5.044
1174.470, 0.975
1174.953, 9.663
1175.435, 19.310
1175.917, 28.098
1176.399, 28.136
1176.881, 6.162
1177.363, 2.218
1177.845, 19.058
1178.327, 3.809
1178.809, 17.022
1179.292, 21.114
1179.774, 11.237
1180.256, 3.465
1180.738, 0.691
1181.220, 5.622
1181.702, 15.700
1182.184, 11.358
1182.666, 9.544
1183.149, 11.302
1183.631, 21.820
1184.113, 13.364
1184.595, 10.771
1185.077, 27.133
1185.559, 32.984
1186.041, 22.318
1186.523, 33.367
1187.005, 5.615
1187.488, 11.909
1187.970, 32.890
1188.452, 16.645
1188.934, 32.562
1189.416, 34.153
1189.898, 30.855
1190.380, 31.769
1190.862, 34.711
1191.344, 31.196
1191.827, 19.164
1192.309, 26.020
1192.791, 54.997
1193.273, 64.156
1193.755, 46.065
1194.237, 29.257
1194.719, 27.023
1195.201, 32.794
1195.684, 41.734
1196.166, 50.117
1196.648, 51.411
1197.130, 47.677
1197.612, 40.674
1198.094, 32.627
1198.576, 26.694
1199.058, 23.815
1199.541, 25.153
1200.023, 31.736
1200.505, 37.039
1200.987, 38.513
1201.469, 37.478
1201.951, 30.388
1202.433, 25.397
1202.915, 32.362
1203.397, 41.640
1203.880, 38.852
1204.362, 26.569
1204.844, 18.996
1205.326, 16.259
1205.808, 19.081
1206.290, 29.508
1206.772, 32.130
1207.254, 22.727
1207.736, 17.752
1208.219, 27.062
1208.701, 36.811
1209.183, 27.864
1209.665, 11.483
1210.147, 12.735
1210.629, 23.050
1211.111, 24.434
1211.593, 19.656
1212.076, 17.006
1212.558, 18.815
1213.040, 27.468
1213.522, 46.333
1214.004, 57.125
1214.486, 45.446
1214.968, 34.352
1215.450, 22.831
1215.932, 18.869
1216.415, 33.190
1216.897, 49.703
1217.379, 46.368
1217.861, 26.488
1218.343, 20.797
1218.825, 34.249
1219.307, 35.939
1219.789, 24.321
1220.271, 10.297
1220.754, 4.199
1221.236, 6.561
1221.718, 10.395
1222.200, 31.584
1222.682, 41.508
1223.164, 41.812
1223.646, 26.442
1224.128, 9.419
1224.611, 20.198
1225.093, 44.997
1225.575, 53.126
1226.057, 43.852
1226.539, 36.794
1227.021, 37.946
1227.503, 42.463
1227.985, 56.692
1228.468, 62.625
1228.950, 47.010
1229.432, 31.711
1229.914, 26.942
1230.396, 28.631
1230.878, 34.466
1231.360, 41.552
1231.842, 38.756
1232.324, 25.864
1232.807, 11.079
1233.289, 4.855
1233.771, 7.291
1234.253, 4.771
1234.735, 18.233
1235.217, 27.329
1235.699, 30.915
1236.181, 21.335
1236.663, 16.339
1237.146, 29.188
1237.628, 43.401
1238.110, 38.439
1238.592, 27.126
1239.074, 28.222
1239.556, 38.545
1240.038, 44.357
1240.520, 43.565
1241.003, 39.470
1241.485, 29.146
1241.967, 22.132
1242.449, 11.837
1242.931, 12.617
1243.413, 19.541
1243.895, 27.938
1244.377, 34.402
1244.859, 37.064
1245.342, 29.318
1245.824, 16.391
1246.306, 16.690
1246.788, 25.537
1247.270, 30.581
1247.752, 31.343
1248.234, 33.814
1248.716, 38.192
1249.198, 34.397
1249.681, 13.595
1250.163, 0.202
1250.645, 0.000
##END=



