##NAMES=Lavinskyite
##RRUFFID=R141115
##IDEAL CHEMISTRY=K(LiCu^2+^)Cu^2+^_6_(Si_4_O_11_)_2_(OH)_4_
##LOCALITY=Wessels mine, South Africa
##OWNER=RRUFF
##SOURCE=Jaco and Tania Janse van Nieuwenhuizen
##DESCRIPTION=Greenish blue or light blue platy crystals, associated with dark blue scottyite (R141116) and blue wesselsite (with cleavage)
##STATUS=The identification of this mineral is confirmed by single-crystal X-ray diffraction and chemical analysis.
##URL=rruff.info/R141115
##MEASURED CHEMISTRY=(K_0.98_Sr_0.01_)_Σ=0.99_(Li_1.25_Cu_0.71_Na_0.08_)_Σ=2.04_Cu_6_(Si_4.03_O_11_)_2_(OH)_4_; (Lavinskyite is the dark grey material in the image, associated with light grey R141116 scottyite)
98.94342, 0.0000000E+00
99.42554, 0.1357420
99.90765, 1.108337
100.3898, 6.473694
100.8719, 15.21991
101.3540, 14.71106
101.8361, 6.963043
102.3182, 0.4800720
102.8004, 1.269714
103.2825, 2.912018
103.7646, 6.267059
104.2467, 8.671539
104.7288, 10.38641
105.2109, 11.77557
105.6931, 11.87405
106.1752, 13.02045
106.6573, 16.37473
107.1394, 23.64087
107.6215, 30.23605
108.1036, 38.18469
108.5858, 46.30078
109.0679, 47.39761
109.5500, 34.97656
110.0321, 20.51913
110.5142, 10.20941
110.9963, 6.536194
111.4785, 4.032898
111.9606, 2.146301
112.4427, 0.8534550
112.9248, 0.5383300
113.4069, 1.605499
113.8890, 3.448486
114.3712, 5.590759
114.8533, 7.096741
115.3354, 9.621063
115.8175, 14.85672
116.2996, 23.34213
116.7817, 29.17822
117.2639, 28.43976
117.7460, 24.46841
118.2281, 21.47513
118.7102, 22.69611
119.1923, 24.10831
119.6744, 22.90887
120.1566, 18.24850
120.6387, 13.41190
121.1208, 9.485687
121.6029, 6.828186
122.0850, 6.250153
122.5671, 7.628998
123.0493, 11.50089
123.5314, 19.98123
124.0135, 36.09610
124.4956, 50.15213
124.9777, 50.75522
125.4598, 40.48965
125.9420, 29.04413
126.4241, 22.20642
126.9062, 18.53040
127.3883, 15.20383
127.8704, 11.05209
128.3525, 7.786621
128.8347, 9.025757
129.3168, 14.54263
129.7989, 20.08270
130.2810, 21.02609
130.7631, 18.74133
131.2452, 19.20453
131.7274, 25.55594
132.2095, 34.85391
132.6916, 38.77704
133.1737, 36.85855
133.6558, 32.88654
134.1379, 29.85034
134.6201, 28.19632
135.1022, 27.74115
135.5843, 28.78067
136.0664, 32.05756
136.5485, 37.19104
137.0306, 43.95163
137.5128, 50.98550
137.9949, 56.50000
138.4770, 59.91333
138.9591, 65.13425
139.4412, 74.91141
139.9233, 90.03943
140.4055, 100.6564
140.8876, 106.2064
141.3697, 108.5618
141.8518, 110.7065
142.3339, 112.6899
142.8160, 114.4084
143.2982, 115.6778
143.7803, 116.1065
144.2624, 117.2948
144.7445, 119.2108
145.2266, 121.9162
145.7087, 125.3221
146.1909, 128.6706
146.6730, 133.7401
147.1551, 141.6776
147.6372, 156.3344
148.1193, 167.1823
148.6014, 172.2682
149.0836, 173.2845
149.5657, 176.2916
150.0478, 183.6032
150.5299, 190.9807
151.0120, 196.6181
151.4941, 198.7116
151.9763, 201.1287
152.4584, 205.0934
152.9405, 209.8937
153.4226, 212.0712
153.9047, 209.9341
154.3868, 206.0317
154.8690, 201.7510
155.3511, 196.7128
155.8332, 191.8761
156.3153, 187.7716
156.7974, 184.4285
157.2795, 180.3516
157.7617, 174.1375
158.2438, 167.7358
158.7259, 162.5387
159.2080, 159.9817
159.6901, 157.6438
160.1722, 154.6628
160.6544, 151.0096
161.1365, 147.8629
161.6186, 147.0709
162.1007, 146.2130
162.5828, 143.0165
163.0649, 136.3570
163.5471, 127.5387
164.0292, 116.5616
164.5113, 103.4276
164.9934, 90.00824
165.4755, 77.12268
165.9576, 64.45081
166.4398, 51.78140
166.9219, 36.54675
167.4040, 22.83386
167.8861, 14.13303
168.3682, 10.74323
168.8503, 8.640442
169.3325, 5.060242
169.8146, 1.069214
170.2967, 1.560974
170.7788, 0.6337280
171.2609, 1.165192
171.7430, 1.288483
172.2252, 0.5525210
172.7073, 2.853577
173.1894, 4.826111
173.6715, 6.396606
174.1536, 7.338806
174.6357, 7.186646
175.1179, 6.532715
175.6000, 6.054199
176.0821, 5.808533
176.5642, 5.730408
177.0463, 6.086670
177.5284, 6.640259
178.0106, 6.655396
178.4927, 5.241333
178.9748, 3.143280
179.4569, 1.827118
179.9390, 1.629303
180.4211, 1.406311
180.9033, 0.4821780
181.3854, 3.737946
181.8675, 6.881897
182.3496, 8.330444
182.8317, 9.072968
183.3138, 11.79666
183.7960, 17.11084
184.2781, 23.45361
184.7602, 28.91791
185.2423, 33.53580
185.7244, 37.17798
186.2065, 38.69989
186.6887, 38.97406
187.1708, 41.65106
187.6529, 47.67670
188.1350, 55.03873
188.6171, 59.90942
189.0992, 62.39459
189.5814, 65.01208
190.0635, 69.42648
190.5456, 75.49811
191.0277, 82.05637
191.5098, 89.37976
191.9919, 96.56116
192.4741, 101.0638
192.9562, 102.7506
193.4383, 104.4313
193.9204, 107.8281
194.4025, 112.8926
194.8846, 119.0107
195.3668, 126.4684
195.8489, 134.5443
196.3310, 141.4035
196.8131, 146.9190
197.2952, 152.1657
197.7773, 158.1188
198.2595, 164.7926
198.7416, 170.5774
199.2237, 174.7845
199.7058, 178.3280
200.1879, 183.7867
200.6700, 191.4696
201.1522, 199.9274
201.6343, 207.8638
202.1164, 215.0556
202.5985, 224.3504
203.0806, 236.7440
203.5627, 251.0207
204.0449, 263.0721
204.5270, 272.5507
205.0091, 280.9350
205.4912, 289.0041
205.9733, 296.6467
206.4554, 304.7590
206.9376, 313.9256
207.4197, 323.4715
207.9018, 331.1406
208.3839, 336.7454
208.8660, 340.9729
209.3481, 344.4767
209.8303, 347.6450
210.3124, 348.3882
210.7945, 346.0353
211.2766, 341.1733
211.7587, 335.9482
212.2408, 330.2009
212.7230, 324.4018
213.2051, 319.0084
213.6872, 314.4633
214.1693, 308.6241
214.6514, 300.8311
215.1335, 291.5529
215.6157, 283.5186
216.0978, 277.2469
216.5799, 271.1021
217.0620, 263.6849
217.5441, 254.0699
218.0262, 245.8226
218.5084, 239.3882
218.9905, 234.5085
219.4726, 230.2982
219.9547, 226.9711
220.4368, 223.8408
220.9189, 220.4532
221.4011, 216.5079
221.8832, 213.0278
222.3653, 210.0016
222.8474, 207.5038
223.3295, 205.7267
223.8116, 204.7797
224.2938, 204.4450
224.7759, 204.8231
225.2580, 206.6793
225.7401, 207.3066
226.2222, 206.0946
226.7043, 203.5059
227.1865, 201.3299
227.6686, 199.5125
228.1507, 198.0542
228.6328, 197.2570
229.1149, 197.3058
229.5970, 197.7563
230.0792, 198.8549
230.5613, 200.2017
231.0434, 200.2122
231.5255, 197.9783
232.0076, 195.9173
232.4897, 195.5494
232.9719, 198.3443
233.4540, 199.3117
233.9361, 197.0498
234.4182, 192.9357
234.9003, 192.0322
235.3824, 196.3748
235.8646, 201.1080
236.3467, 203.8726
236.8288, 204.0252
237.3109, 203.2113
237.7930, 200.7924
238.2751, 197.5404
238.7573, 196.0116
239.2394, 197.2597
239.7215, 198.4001
240.2036, 198.0197
240.6857, 195.0398
241.1678, 193.0912
241.6500, 193.0226
242.1321, 193.7790
242.6142, 192.4581
243.0963, 187.6014
243.5784, 182.7424
244.0605, 179.6674
244.5427, 179.7173
245.0248, 177.9715
245.5069, 173.4682
245.9890, 167.5448
246.4711, 163.3068
246.9532, 161.6839
247.4354, 160.1649
247.9175, 157.9417
248.3996, 155.0989
248.8817, 151.1535
249.3638, 145.3831
249.8459, 138.9291
250.3281, 133.9308
250.8102, 130.8869
251.2923, 128.4401
251.7744, 126.2009
252.2565, 124.2898
252.7386, 122.1948
253.2208, 119.9069
253.7029, 117.4438
254.1850, 114.8265
254.6671, 112.1975
255.1492, 109.0786
255.6313, 105.0596
256.1135, 99.84137
256.5956, 95.85410
257.0777, 93.52966
257.5598, 92.05414
258.0419, 90.35233
258.5240, 88.27087
259.0062, 86.38361
259.4883, 85.20312
259.9704, 84.92252
260.4525, 82.43835
260.9346, 76.44400
261.4167, 69.91052
261.8989, 66.50891
262.3810, 67.43704
262.8631, 68.44879
263.3452, 68.84149
263.8273, 68.60886
264.3094, 66.85892
264.7916, 62.83423
265.2737, 58.47424
265.7558, 55.70837
266.2379, 55.03461
266.7200, 54.41550
267.2021, 53.49075
267.6843, 52.28091
268.1664, 50.86310
268.6485, 49.06522
269.1306, 47.41479
269.6127, 46.70502
270.0948, 47.42667
270.5770, 46.68964
271.0591, 43.24231
271.5412, 38.02347
272.0233, 35.89603
272.5054, 37.81360
272.9875, 40.32132
273.4697, 40.96094
273.9518, 39.51215
274.4339, 37.52164
274.9160, 34.87076
275.3981, 31.98203
275.8802, 30.20279
276.3624, 29.77188
276.8445, 29.64609
277.3266, 29.24216
277.8087, 28.55368
278.2908, 27.71677
278.7729, 26.76822
279.2551, 25.65396
279.7372, 24.15256
280.2193, 22.17297
280.7014, 20.37265
281.1835, 19.32370
281.6656, 19.00677
282.1478, 17.85437
282.6299, 15.51196
283.1120, 12.90366
283.5941, 12.11456
284.0762, 13.27777
284.5583, 13.42575
285.0405, 10.32471
285.5226, 4.472931
286.0047, 0.6123960
286.4868, 0.9940340
286.9689, 1.397766
287.4510, 1.805313
287.9332, 2.216644
288.4153, 2.646133
288.8974, 3.415039
289.3795, 4.222153
289.8616, 3.597153
290.3438, 1.374893
290.8259, 1.134750
291.3080, 2.836853
291.7901, 3.683777
292.2722, 3.353165
292.7543, 0.9143520
293.2365, 2.389282
293.7186, 3.217392
294.2007, 1.525208
294.6828, 0.4271240
295.1649, 0.3547520
295.6470, 1.151550
296.1292, 2.131287
296.6113, 1.907379
297.0934, 1.078079
297.5755, 0.4424130
298.0576, 6.5310001E-03
298.5397, 0.1561430
299.0219, 0.3304900
299.5040, 1.106995
299.9861, 1.376419
300.4682, 0.9198910
300.9503, 4.0130999E-02
301.4324, 0.9795990
301.9146, 2.132797
302.3967, 3.419830
302.8788, 5.059586
303.3609, 6.783020
303.8430, 8.093292
304.3251, 8.832687
304.8073, 9.532227
305.2894, 10.68698
305.7715, 12.18886
306.2536, 13.76692
306.7357, 15.34779
307.2178, 16.91591
307.7000, 18.47606
308.1821, 20.07916
308.6642, 21.64125
309.1463, 22.91626
309.6284, 24.06075
310.1105, 25.37776
310.5927, 26.90416
311.0748, 28.42868
311.5569, 29.61815
312.0390, 30.56403
312.5211, 31.89836
313.0032, 34.95105
313.4854, 38.30214
313.9675, 40.47273
314.4496, 39.68390
314.9317, 38.48087
315.4138, 37.93564
315.8959, 38.00053
316.3781, 38.18573
316.8602, 38.38493
317.3423, 38.72299
317.8244, 39.33109
318.3065, 39.85023
318.7886, 40.80460
319.2708, 42.89890
319.7529, 45.57922
320.2350, 47.44795
320.7171, 47.36311
321.1992, 46.84624
321.6813, 46.59776
322.1635, 46.70370
322.6456, 47.07973
323.1277, 47.24074
323.6098, 47.72894
324.0919, 49.45984
324.5740, 54.78438
325.0562, 59.33101
325.5383, 61.37709
326.0204, 60.02768
326.5025, 59.54393
326.9846, 60.82892
327.4667, 62.85423
327.9489, 64.53766
328.4310, 65.28638
328.9131, 66.36845
329.3952, 68.50227
329.8773, 71.75760
330.3594, 73.14993
330.8416, 70.98233
331.3237, 68.38248
331.8058, 67.57642
332.2879, 69.43637
332.7700, 71.64658
333.2521, 74.18097
333.7343, 76.94832
334.2164, 79.66798
334.6985, 82.93344
335.1806, 85.18253
335.6627, 85.18698
336.1448, 81.71925
336.6270, 79.84271
337.1091, 80.08932
337.5912, 81.70352
338.0733, 83.23010
338.5554, 84.64279
339.0375, 86.01714
339.5197, 87.40294
340.0018, 88.79790
340.4839, 90.15475
340.9660, 91.55481
341.4481, 92.69188
341.9302, 93.09200
342.4124, 92.72153
342.8945, 92.08459
343.3766, 91.36813
343.8587, 90.50375
344.3408, 89.05438
344.8229, 86.99857
345.3051, 84.63385
345.7872, 82.32335
346.2693, 80.00314
346.7514, 77.03531
347.2335, 73.04398
347.7156, 68.77533
348.1978, 65.78778
348.6799, 63.93898
349.1620, 62.18616
349.6441, 60.11166
350.1262, 57.62473
350.6083, 54.31589
351.0905, 49.80728
351.5726, 45.20166
352.0547, 41.68689
352.5368, 39.14394
353.0189, 37.26239
353.5010, 36.46286
353.9832, 35.93036
354.4653, 34.93239
354.9474, 33.46138
355.4295, 31.14336
355.9116, 26.67642
356.3937, 21.34435
356.8759, 17.13763
357.3580, 15.67418
357.8401, 14.77557
358.3222, 12.89352
358.8043, 10.20132
359.2864, 7.759964
359.7686, 6.172440
360.2507, 5.047150
360.7328, 4.092224
361.2149, 3.330338
361.6970, 2.558273
362.1791, 1.602463
362.6613, 0.5707700
363.1434, 0.2856290
363.6255, 0.6299590
364.1076, 0.9913020
364.5897, 1.530426
365.0718, 2.128998
365.5540, 3.351028
366.0361, 6.019775
366.5182, 9.122391
367.0003, 11.44368
367.4824, 13.40050
367.9645, 13.99515
368.4467, 12.29648
368.9288, 8.180466
369.4109, 5.358383
369.8930, 4.213730
370.3751, 4.055832
370.8572, 4.549728
371.3394, 6.754349
371.8215, 7.777802
372.3036, 6.982819
372.7857, 4.867569
373.2678, 3.111557
373.7499, 1.497803
374.2321, 0.6052700
374.7142, 1.064575
375.1963, 3.563156
375.6784, 4.492233
376.1605, 3.677582
376.6426, 1.491745
377.1248, 2.043823
377.6069, 7.443863
378.0890, 11.27716
378.5711, 11.74866
379.0532, 9.468872
379.5353, 9.114822
380.0175, 11.00842
380.4996, 13.20122
380.9817, 13.09390
381.4638, 11.14351
381.9459, 11.49692
382.4280, 15.73903
382.9102, 21.71896
383.3923, 25.15973
383.8744, 26.28130
384.3565, 27.04799
384.8386, 28.66975
385.3207, 30.84006
385.8029, 32.81747
386.2850, 34.48473
386.7671, 36.29939
387.2492, 38.77443
387.7313, 41.77353
388.2134, 44.94275
388.6956, 47.84186
389.1777, 50.97513
389.6598, 55.40013
390.1419, 60.97652
390.6240, 65.55334
391.1061, 66.13364
391.5883, 65.79361
392.0704, 67.98239
392.5525, 76.25763
393.0346, 83.60524
393.5167, 86.07880
393.9988, 85.09517
394.4810, 84.68851
394.9631, 86.31567
395.4452, 88.82263
395.9273, 91.81122
396.4094, 95.51917
396.8915, 98.79446
397.3737, 101.6107
397.8558, 103.8168
398.3379, 105.2262
398.8200, 104.1364
399.3021, 104.0341
399.7842, 106.2145
400.2664, 110.6590
400.7485, 113.4983
401.2306, 113.2063
401.7127, 112.7538
402.1948, 114.0717
402.6769, 117.9858
403.1591, 121.9522
403.6412, 126.1612
404.1233, 130.1789
404.6054, 132.8813
405.0875, 133.8557
405.5696, 134.6499
406.0518, 135.7795
406.5339, 137.2428
407.0160, 139.2042
407.4981, 141.6611
407.9802, 144.5821
408.4623, 148.0026
408.9445, 151.9379
409.4266, 156.0679
409.9087, 160.3263
410.3908, 164.7139
410.8729, 169.3581
411.3550, 174.2631
411.8372, 178.8167
412.3193, 182.2063
412.8014, 184.9927
413.2835, 188.6083
413.7656, 193.3919
414.2477, 198.4974
414.7299, 203.0951
415.2120, 207.2911
415.6941, 211.2150
416.1762, 214.7032
416.6583, 218.1335
417.1404, 221.9819
417.6226, 226.2537
418.1047, 230.2188
418.5868, 232.7465
419.0689, 235.1090
419.5510, 238.6468
420.0331, 244.8629
420.5153, 250.6790
420.9974, 254.2341
421.4795, 256.4586
421.9616, 259.4772
422.4437, 265.7119
422.9258, 271.2869
423.4080, 274.1555
423.8901, 273.1281
424.3722, 272.9818
424.8543, 274.8717
425.3364, 277.5475
425.8185, 279.8207
426.3007, 281.2069
426.7828, 283.4760
427.2649, 286.9193
427.7470, 291.2789
428.2291, 295.6682
428.7112, 300.0336
429.1934, 304.2336
429.6755, 308.4781
430.1576, 312.9446
430.6397, 317.1268
431.1218, 320.8759
431.6039, 324.4563
432.0861, 328.4929
432.5682, 332.9631
433.0503, 336.5428
433.5324, 338.2901
434.0145, 339.1889
434.4966, 342.9250
434.9788, 349.5959
435.4609, 356.2268
435.9430, 360.2256
436.4251, 362.3610
436.9072, 364.9118
437.3893, 368.6332
437.8715, 372.0630
438.3536, 372.9890
438.8357, 372.1812
439.3178, 371.7865
439.7999, 373.6618
440.2820, 375.9719
440.7642, 377.1297
441.2463, 377.0461
441.7284, 376.1520
442.2105, 374.6359
442.6926, 372.4345
443.1747, 369.4638
443.6569, 365.0142
444.1390, 360.5892
444.6211, 357.6101
445.1032, 355.1316
445.5853, 350.5160
446.0674, 340.7347
446.5496, 330.9567
447.0317, 323.5619
447.5138, 320.0273
447.9959, 314.0956
448.4780, 304.5391
448.9601, 293.4359
449.4423, 282.4671
449.9244, 271.2372
450.4065, 261.3086
450.8886, 253.4199
451.3707, 247.0122
451.8528, 239.2760
452.3350, 229.7819
452.8171, 220.0838
453.2992, 210.7552
453.7813, 201.7524
454.2634, 193.0063
454.7455, 184.3310
455.2277, 176.2290
455.7098, 169.6606
456.1919, 164.4065
456.6740, 158.4638
457.1561, 150.9497
457.6382, 142.7168
458.1204, 135.0961
458.6025, 128.0868
459.0846, 122.1969
459.5667, 118.9720
460.0488, 116.5163
460.5309, 112.0106
461.0131, 104.6544
461.4952, 97.25555
461.9773, 92.00771
462.4594, 88.00926
462.9415, 83.86673
463.4236, 79.07016
463.9058, 74.08282
464.3879, 68.61613
464.8700, 62.89580
465.3521, 58.21339
465.8342, 55.19608
466.3163, 53.03671
466.7985, 51.31668
467.2806, 50.32005
467.7627, 49.40492
468.2448, 49.05638
468.7269, 48.41420
469.2090, 46.14331
469.6912, 40.72986
470.1733, 36.63226
470.6554, 35.30165
471.1375, 36.32532
471.6196, 36.02650
472.1017, 34.06271
472.5839, 31.96944
473.0660, 30.94284
473.5481, 31.00079
474.0302, 30.08850
474.5123, 27.74580
474.9944, 25.10020
475.4766, 23.96133
475.9587, 24.08488
476.4408, 24.19112
476.9229, 23.51082
477.4050, 22.94987
477.8871, 23.67618
478.3693, 25.53156
478.8514, 28.01518
479.3335, 32.20163
479.8156, 36.45970
480.2977, 38.29729
480.7798, 36.41702
481.2620, 34.72391
481.7441, 36.38408
482.2262, 39.43710
482.7083, 40.99101
483.1904, 37.84091
483.6725, 35.19832
484.1547, 35.30304
484.6368, 38.00246
485.1189, 40.54543
485.6010, 42.37225
486.0831, 44.09987
486.5652, 46.05472
487.0474, 48.52701
487.5295, 50.55460
488.0116, 51.56863
488.4937, 52.53778
488.9758, 54.97253
489.4579, 59.37697
489.9401, 63.78879
490.4222, 67.98871
490.9043, 71.81259
491.3864, 74.18591
491.8685, 74.82257
492.3506, 76.05692
492.8328, 80.20947
493.3149, 86.49115
493.7970, 91.17874
494.2791, 93.80414
494.7612, 95.85892
495.2433, 99.37025
495.7255, 103.6992
496.2076, 107.1895
496.6897, 108.3575
497.1718, 109.2972
497.6539, 112.2992
498.1360, 116.8740
498.6182, 121.1873
499.1003, 124.7988
499.5824, 127.4249
500.0645, 128.6021
500.5466, 128.0261
501.0287, 127.2859
501.5109, 126.9583
501.9930, 126.6318
502.4751, 125.9053
502.9572, 124.7187
503.4393, 123.1310
503.9214, 121.2277
504.4036, 118.9584
504.8857, 115.9907
505.3678, 111.8269
505.8499, 107.7725
506.3320, 104.5471
506.8141, 102.2723
507.2963, 98.84418
507.7784, 93.84183
508.2605, 88.67297
508.7426, 85.23138
509.2247, 83.31506
509.7068, 79.53014
510.1890, 72.61087
510.6711, 64.76799
511.1532, 60.25037
511.6353, 58.40561
512.1174, 56.23329
512.5995, 51.50227
513.0817, 45.90886
513.5638, 41.79227
514.0459, 39.11298
514.5280, 35.94620
515.0101, 29.61288
515.4922, 22.95393
515.9744, 18.89108
516.4565, 19.32147
516.9386, 19.73877
517.4207, 18.79807
517.9028, 16.89259
518.3849, 14.66580
518.8671, 11.45912
519.3492, 8.759033
519.8313, 6.758179
520.3134, 5.481201
520.7955, 5.165283
521.2776, 6.795792
521.7598, 7.924026
522.2419, 6.840164
522.7240, 2.893738
523.2061, 0.3136900
523.6882, 0.4782870
524.1703, 0.6938320
524.6525, 2.303223
525.1346, 5.169250
525.6167, 6.821136
526.0988, 6.155975
526.5809, 4.378769
527.0630, 3.666168
527.5452, 3.855148
528.0273, 4.008926
528.5094, 3.111908
528.9915, 2.121216
529.4736, 2.280045
529.9557, 3.717072
530.4379, 5.266815
530.9200, 6.603760
531.4021, 7.555695
531.8842, 7.958435
532.3663, 7.665604
532.8484, 6.979523
533.3306, 5.237259
533.8127, 3.194427
534.2948, 2.504501
534.7769, 5.226654
535.2590, 6.979568
535.7411, 6.506866
536.2233, 3.927841
536.7054, 2.370422
537.1875, 2.559647
537.6696, 2.321136
538.1517, 0.3713840
538.6339, 5.848816
539.1160, 8.925125
539.5981, 8.751617
540.0802, 7.724884
540.5623, 9.400711
541.0444, 13.25919
541.5266, 16.25528
542.0087, 16.93182
542.4908, 16.85130
542.9729, 18.26588
543.4550, 20.94594
543.9371, 23.90313
544.4193, 26.82458
544.9014, 29.51848
545.3835, 31.64225
545.8656, 33.16551
546.3477, 35.03615
546.8298, 38.25176
547.3120, 41.68339
547.7941, 44.35890
548.2762, 44.68092
548.7583, 46.39782
549.2404, 51.01629
549.7225, 56.75946
550.2047, 60.46460
550.6868, 61.11568
551.1689, 61.79716
551.6510, 63.50420
552.1331, 65.98803
552.6152, 67.16667
553.0974, 66.75114
553.5795, 66.24501
554.0616, 66.76824
554.5437, 68.06641
555.0258, 68.57713
555.5079, 68.18650
555.9901, 68.07765
556.4722, 70.07396
556.9543, 73.25954
557.4364, 75.61760
557.9185, 76.60133
558.4006, 76.63121
558.8828, 75.43359
559.3649, 73.53474
559.8470, 72.10983
560.3291, 71.58594
560.8112, 71.67461
561.2933, 72.46983
561.7755, 73.97997
562.2576, 75.27139
562.7397, 75.86090
563.2218, 76.45596
563.7039, 77.46119
564.1860, 79.32348
564.6682, 80.47493
565.1503, 80.78391
565.6324, 80.58399
566.1145, 80.12192
566.5966, 79.29925
567.0787, 79.14062
567.5609, 80.18568
568.0430, 81.61749
568.5251, 81.46941
569.0072, 79.91270
569.4893, 78.36272
569.9714, 77.72787
570.4536, 77.50623
570.9357, 76.95927
571.4178, 76.09351
571.8999, 75.19966
572.3820, 74.57681
572.8641, 73.96077
573.3463, 73.17223
573.8284, 72.23143
574.3105, 70.94155
574.7926, 68.53128
575.2747, 65.98843
575.7568, 64.59399
576.2390, 65.91577
576.7211, 66.39475
577.2032, 65.50433
577.6853, 63.49654
578.1674, 61.14319
578.6495, 58.22487
579.1317, 55.63875
579.6138, 54.05325
580.0959, 53.24010
580.5780, 50.98029
581.0601, 47.09159
581.5422, 43.43270
582.0244, 41.89191
582.5065, 41.72213
582.9886, 41.23290
583.4707, 40.26752
583.9528, 38.94708
584.4349, 37.50993
584.9171, 35.67949
585.3992, 33.05542
585.8813, 27.74706
586.3634, 23.56958
586.8455, 23.14751
587.3276, 25.09476
587.8098, 25.74208
588.2919, 22.96272
588.7740, 20.23592
589.2561, 18.75916
589.7382, 18.58900
590.2203, 17.93092
590.7025, 17.01346
591.1846, 15.32693
591.6667, 11.81125
592.1488, 6.082565
592.6309, 2.987183
593.1130, 3.023331
593.5952, 4.681160
594.0773, 6.916725
594.5594, 9.320679
595.0415, 10.27911
595.5236, 9.015053
596.0057, 7.099632
596.4879, 5.952873
596.9700, 5.319107
597.4521, 4.648666
597.9342, 3.479744
598.4163, 2.383430
598.8984, 1.884354
599.3806, 1.879417
599.8627, 1.404053
600.3448, 0.7141110
600.8269, 2.532166
601.3090, 3.104744
601.7911, 2.130089
602.2733, 1.031120
602.7554, 0.3807680
603.2375, 1.652649
603.7196, 2.364349
604.2017, 2.503860
604.6838, 2.235466
605.1660, 1.567108
605.6481, 0.5178150
606.1302, 1.581635
606.6123, 4.264885
607.0944, 5.246647
607.5765, 2.425575
608.0587, 1.239143
608.5408, 2.320518
609.0229, 1.295807
609.5050, 9.1805004E-02
609.9871, 1.631454
610.4692, 2.697681
610.9514, 2.892132
611.4335, 2.175426
611.9156, 0.9204480
612.3977, 2.224686
612.8798, 4.780685
613.3619, 5.076843
613.8441, 1.401493
614.3262, 0.2840230
614.8083, 0.7509190
615.2904, 2.757553
615.7725, 3.441044
616.2546, 2.705936
616.7368, 2.343258
617.2189, 2.757496
617.7010, 3.597649
618.1831, 4.554695
618.6652, 5.473045
619.1473, 5.703480
619.6295, 3.900890
620.1116, 1.954987
620.5937, 2.066883
621.0758, 3.879269
621.5579, 5.603699
622.0400, 6.602173
622.5222, 7.033451
623.0043, 6.777096
623.4864, 5.620510
623.9685, 4.970570
624.4506, 5.158104
624.9327, 5.728477
625.4149, 6.385044
625.8970, 7.036785
626.3791, 8.212372
626.8612, 10.38892
627.3433, 12.31715
627.8254, 11.61781
628.3076, 8.458172
628.7897, 6.516060
629.2718, 6.950645
629.7539, 8.645855
630.2360, 10.35245
630.7181, 11.90930
631.2003, 12.77301
631.6824, 11.95581
632.1645, 10.90336
632.6466, 10.69084
633.1287, 11.25916
633.6108, 12.07957
634.0930, 13.40568
634.5751, 14.57950
635.0572, 15.32752
635.5393, 15.69263
636.0214, 15.29028
636.5035, 13.48779
636.9857, 11.68642
637.4678, 10.83553
637.9499, 10.91467
638.4320, 12.31110
638.9141, 15.37189
639.3962, 18.79353
639.8784, 20.64431
640.3605, 21.26390
640.8426, 22.36826
641.3247, 24.98070
641.8068, 27.22131
642.2889, 26.15232
642.7711, 23.16439
643.2532, 21.39354
643.7353, 23.89011
644.2174, 26.35291
644.6995, 26.23502
645.1816, 23.97830
645.6638, 22.87978
646.1459, 23.91215
646.6280, 25.72675
647.1101, 28.13156
647.5922, 31.16796
648.0743, 33.72338
648.5565, 35.79718
649.0386, 37.32787
649.5207, 37.83668
650.0028, 37.48054
650.4849, 38.17486
650.9670, 40.26576
651.4492, 42.47798
651.9313, 43.00620
652.4134, 42.69244
652.8955, 43.22506
653.3776, 45.47214
653.8597, 47.63419
654.3419, 48.03232
654.8240, 47.76799
655.3061, 48.50985
655.7882, 51.55730
656.2703, 54.65785
656.7524, 57.40167
657.2346, 59.86800
657.7167, 62.15514
658.1988, 63.90729
658.6809, 66.00558
659.1630, 69.03170
659.6451, 72.84531
660.1273, 75.86636
660.6094, 78.10149
661.0915, 80.58450
661.5736, 84.26866
662.0557, 88.61641
662.5378, 92.30063
663.0200, 95.25215
663.5021, 98.97030
663.9842, 105.3745
664.4663, 112.4207
664.9484, 118.0359
665.4305, 121.3209
665.9127, 125.8361
666.3948, 132.9790
666.8769, 141.1394
667.3590, 148.6702
667.8411, 154.7556
668.3232, 161.6661
668.8054, 169.4418
669.2875, 178.3359
669.7696, 189.0817
670.2517, 201.7520
670.7338, 213.9529
671.2159, 224.5513
671.6981, 234.6357
672.1802, 246.4499
672.6623, 259.6043
673.1444, 272.7261
673.6265, 284.1086
674.1086, 295.5593
674.5908, 308.1786
675.0729, 321.9902
675.5550, 336.6492
676.0371, 352.1421
676.5192, 368.4986
677.0013, 386.3360
677.4835, 405.9240
677.9656, 424.2123
678.4477, 441.0527
678.9298, 457.2236
679.4119, 473.6069
679.8940, 490.3929
680.3762, 503.6968
680.8583, 513.4890
681.3404, 520.5841
681.8225, 526.3470
682.3046, 530.2302
682.7867, 530.6710
683.2689, 527.0516
683.7510, 520.7848
684.2331, 513.7792
684.7152, 504.5580
685.1973, 491.3723
685.6794, 471.6895
686.1616, 450.2442
686.6437, 426.8822
687.1258, 402.4566
687.6079, 378.8064
688.0900, 356.6855
688.5721, 333.8888
689.0543, 309.2644
689.5364, 284.3396
690.0185, 263.6174
690.5006, 247.0864
690.9827, 231.6607
691.4648, 215.1697
691.9470, 199.0109
692.4291, 185.3118
692.9112, 173.7492
693.3933, 162.5794
693.8754, 150.2641
694.3575, 138.3272
694.8397, 127.5407
695.3218, 117.9192
695.8039, 109.9060
696.2860, 103.8571
696.7681, 99.08504
697.2502, 95.61465
697.7324, 94.09039
698.2145, 90.41595
698.6966, 83.93671
699.1787, 77.15359
699.6608, 72.62480
700.1429, 69.99847
700.6251, 67.20615
701.1072, 63.84884
701.5893, 61.06850
702.0714, 60.81244
702.5535, 61.61239
703.0356, 61.28856
703.5178, 58.81516
703.9999, 55.84464
704.4820, 52.17105
704.9641, 48.62735
705.4462, 46.55679
705.9283, 47.42283
706.4105, 47.43587
706.8926, 45.77466
707.3747, 43.19603
707.8568, 41.67566
708.3389, 41.32669
708.8210, 40.35663
709.3032, 37.63800
709.7853, 34.41935
710.2674, 33.54401
710.7495, 34.54857
711.2316, 35.51047
711.7137, 35.19812
712.1959, 34.60044
712.6780, 34.68725
713.1601, 35.29126
713.6422, 35.09574
714.1243, 33.71210
714.6064, 31.41489
715.0886, 27.87109
715.5707, 22.97706
716.0528, 19.90672
716.5349, 18.92168
717.0170, 19.03841
717.4991, 20.37995
717.9813, 22.57785
718.4634, 22.32906
718.9455, 19.45702
719.4276, 16.39736
719.9097, 15.58690
720.3918, 15.70747
720.8740, 14.90589
721.3561, 12.74155
721.8382, 10.69024
722.3203, 9.224869
722.8024, 8.300514
723.2845, 7.912346
723.7667, 8.820465
724.2488, 8.878510
724.7309, 7.882065
725.2130, 6.249741
725.6951, 4.216240
726.1772, 1.711082
726.6594, 3.3890001E-02
727.1415, 0.7886120
727.6236, 0.7782140
728.1057, 0.2960890
728.5878, 1.899277
729.0699, 2.626472
729.5521, 1.726761
730.0342, 0.2867130
730.5163, 1.803680
730.9984, 3.778969
731.4805, 4.273331
731.9626, 0.5824050
732.4448, 1.738098
732.9269, 1.173973
733.4090, 1.264427
733.8911, 2.808723
734.3732, 3.231422
734.8553, 3.719795
735.3375, 4.959778
735.8196, 6.256943
736.3017, 5.567787
736.7838, 3.132973
737.2659, 0.4227680
737.7480, 3.059029
738.2302, 5.479637
738.7123, 4.041054
739.1944, 0.3726350
739.6765, 3.372475
740.1586, 2.763077
740.6407, 0.9498060
741.1229, 1.605362
741.6050, 4.811287
742.0871, 6.385223
742.5692, 5.584526
743.0513, 4.938766
743.5334, 6.234863
744.0156, 9.075310
744.4977, 9.614182
744.9798, 7.836258
745.4619, 6.395927
745.9440, 7.651428
746.4261, 10.30620
746.9083, 13.15285
747.3904, 16.09222
747.8725, 17.95863
748.3546, 16.79269
748.8367, 15.37379
749.3188, 15.57635
749.8010, 17.71826
750.2831, 20.86719
750.7652, 26.06152
751.2473, 30.66542
751.7294, 32.09193
752.2115, 30.38561
752.6937, 29.94048
753.1758, 31.07828
753.6579, 33.06306
754.1400, 35.49564
754.6221, 38.07552
755.1042, 40.41510
755.5864, 42.48056
756.0685, 44.03061
756.5506, 43.73986
757.0327, 43.46471
757.5148, 45.09359
757.9969, 51.19299
758.4791, 55.60204
758.9612, 57.76593
759.4433, 58.85576
759.9254, 60.09628
760.4075, 61.49255
760.8896, 63.37506
761.3718, 66.07335
761.8539, 68.36432
762.3360, 67.30742
762.8181, 64.79812
763.3002, 65.22290
763.7823, 72.42005
764.2645, 78.17222
764.7466, 76.10770
765.2287, 70.30110
765.7108, 66.88164
766.1929, 69.52251
766.6750, 70.72901
767.1572, 69.34235
767.6393, 66.61886
768.1214, 64.97650
768.6035, 64.52010
769.0856, 63.60728
769.5677, 61.72105
770.0499, 59.36018
770.5320, 57.47290
771.0141, 55.74000
771.4962, 53.32970
771.9783, 48.05402
772.4604, 43.93414
772.9426, 44.81616
773.4247, 48.31322
773.9068, 48.77989
774.3889, 42.78301
774.8710, 37.69940
775.3531, 35.01713
775.8353, 33.94844
776.3174, 32.37302
776.7995, 30.30157
777.2816, 27.71053
777.7637, 24.08134
778.2458, 20.49677
778.7280, 19.27298
779.2101, 19.72379
779.6922, 19.67097
780.1743, 17.56095
780.6564, 15.16481
781.1385, 13.00214
781.6207, 11.21847
782.1028, 10.42716
782.5849, 10.79295
783.0670, 11.93352
783.5491, 14.39096
784.0313, 17.39128
784.5134, 17.38057
784.9955, 14.29266
785.4776, 11.51870
785.9597, 11.25123
786.4418, 11.80984
786.9240, 9.976143
787.4061, 6.534325
787.8882, 4.387833
788.3703, 5.979568
788.8524, 8.155121
789.3345, 10.05703
789.8167, 11.65953
790.2988, 11.50791
790.7809, 8.226929
791.2630, 5.535767
791.7451, 4.943329
792.2272, 5.967499
792.7094, 6.216934
793.1915, 5.670082
793.6736, 4.907013
794.1557, 3.935143
794.6378, 3.398575
795.1199, 4.761040
795.6021, 7.343819
796.0842, 8.527328
796.5663, 5.661560
797.0484, 2.569412
797.5305, 0.7362820
798.0126, 0.2812580
798.4948, 0.6882320
798.9769, 2.315392
799.4590, 3.804611
799.9411, 4.848587
800.4232, 5.274940
800.9053, 3.767853
801.3875, 0.5568240
801.8696, 2.078156
802.3517, 2.798485
802.8338, 2.277763
803.3159, 0.7287450
803.7980, 1.625107
804.2802, 3.633621
804.7623, 5.777298
805.2444, 6.545830
805.7265, 4.804024
806.2086, 0.9709850
806.6907, 1.192795
807.1729, 1.441925
807.6550, 1.075150
808.1371, 0.6414950
808.6192, 7.2075002E-02
809.1013, 1.277565
809.5834, 3.140167
810.0656, 3.990219
810.5477, 1.246338
811.0298, 1.384895
811.5119, 0.7526930
811.9940, 2.705528
812.4761, 4.957901
812.9583, 4.391121
813.4404, 3.823303
813.9225, 4.152138
814.4046, 5.193016
814.8867, 5.744339
815.3688, 5.766716
815.8510, 6.027245
816.3331, 7.347008
816.8152, 8.904610
817.2973, 9.413597
817.7794, 8.990334
818.2615, 7.878006
818.7437, 4.486588
819.2258, 2.188431
819.7079, 3.375000
820.1900, 7.486191
820.6721, 9.947121
821.1542, 10.32815
821.6364, 9.954552
822.1185, 8.823532
822.6006, 7.476646
823.0827, 7.765053
823.5648, 9.562141
824.0469, 11.85122
824.5291, 14.86756
825.0112, 17.53087
825.4933, 18.92149
825.9754, 19.12990
826.4575, 18.48045
826.9396, 16.12969
827.4218, 13.99566
827.9039, 12.26685
828.3860, 11.15945
828.8681, 11.80658
829.3502, 14.61741
829.8323, 16.75458
830.3145, 17.02339
830.7966, 16.36209
831.2787, 16.55202
831.7608, 17.34028
832.2429, 17.93989
832.7250, 18.29395
833.2072, 18.05077
833.6893, 16.10709
834.1714, 13.43861
834.6535, 12.78722
835.1356, 15.78989
835.6177, 18.00746
836.0999, 18.47391
836.5820, 17.92133
837.0641, 18.23987
837.5462, 19.28368
838.0283, 19.28535
838.5104, 17.25727
838.9926, 14.73551
839.4747, 12.98840
839.9568, 12.04434
840.4389, 11.93656
840.9210, 13.86802
841.4031, 15.20267
841.8853, 15.31961
842.3674, 14.54318
842.8495, 12.88309
843.3316, 9.812363
843.8137, 8.769768
844.2958, 10.80262
844.7780, 13.75633
845.2601, 14.71257
845.7422, 14.06892
846.2243, 12.57168
846.7064, 9.772888
847.1885, 7.812523
847.6707, 8.761604
848.1528, 10.83818
848.6349, 11.95795
849.1170, 11.64655
849.5991, 10.76215
850.0812, 8.910789
850.5634, 7.138374
851.0455, 6.897972
851.5276, 7.945076
852.0097, 8.187813
852.4918, 7.214622
852.9739, 6.479057
853.4561, 7.899986
853.9382, 9.989502
854.4203, 11.03891
854.9024, 10.47248
855.3845, 9.766525
855.8666, 8.927879
856.3488, 8.282692
856.8309, 8.196518
857.3130, 8.818100
857.7951, 8.745491
858.2772, 7.912086
858.7593, 6.823387
859.2415, 5.594780
859.7236, 4.494064
860.2057, 4.114540
860.6878, 4.544159
861.1699, 5.270218
861.6520, 6.747963
862.1342, 7.784363
862.6163, 7.233490
863.0984, 5.017052
863.5805, 4.251343
864.0626, 5.488335
864.5447, 6.545815
865.0269, 5.588852
865.5090, 3.593590
865.9911, 4.614388
866.4732, 8.167313
866.9553, 10.91539
867.4374, 10.07521
867.9196, 8.304970
868.4017, 7.507553
868.8838, 7.528503
869.3659, 6.839569
869.8480, 4.585487
870.3301, 2.829010
870.8123, 2.160919
871.2944, 2.406296
871.7765, 3.240646
872.2586, 4.572044
872.7407, 5.501297
873.2228, 5.782677
873.7050, 5.294891
874.1871, 3.013000
874.6692, 4.6936002E-02
875.1513, 1.704727
875.6334, 0.7418900
876.1155, 1.247810
876.5977, 5.190018
877.0798, 9.128616
877.5619, 8.579842
878.0440, 3.059868
878.5261, 0.2512820
879.0082, 2.331718
879.4904, 6.496834
879.9725, 9.148697
880.4546, 10.50811
880.9367, 11.22459
881.4188, 11.45580
881.9009, 11.24461
882.3831, 10.04604
882.8652, 8.813347
883.3473, 8.780495
883.8294, 10.71897
884.3115, 10.89007
884.7936, 8.452805
885.2758, 6.177658
885.7579, 7.596672
886.2400, 11.28459
886.7221, 14.00522
887.2042, 15.34399
887.6863, 16.22005
888.1685, 17.72195
888.6506, 18.91888
889.1327, 18.65183
889.6148, 16.46169
890.0969, 14.90662
890.5790, 13.86831
891.0612, 13.30466
891.5433, 13.50581
892.0254, 14.29201
892.5075, 14.86994
892.9896, 15.28443
893.4717, 15.58330
893.9539, 15.54450
894.4360, 15.64872
894.9181, 16.79656
895.4002, 18.57929
895.8823, 18.08764
896.3644, 13.00962
896.8466, 9.938927
897.3287, 11.24976
897.8108, 15.22768
898.2929, 17.45877
898.7750, 18.08091
899.2571, 17.99770
899.7393, 17.46407
900.2214, 16.48404
900.7035, 14.27833
901.1856, 11.82178
901.6677, 10.80312
902.1498, 12.79382
902.6320, 14.61561
903.1141, 16.03257
903.5962, 17.25381
904.0783, 18.58816
904.5604, 20.01566
905.0425, 21.16962
905.5247, 21.99672
906.0068, 22.54980
906.4889, 23.07581
906.9710, 23.25111
907.4531, 22.36592
907.9352, 19.56406
908.4174, 18.66503
908.8995, 21.52641
909.3816, 24.79215
909.8637, 26.26556
910.3458, 25.96928
910.8279, 26.71433
911.3101, 28.52196
911.7922, 30.25419
912.2743, 30.53855
912.7564, 30.67754
913.2385, 32.56672
913.7206, 35.92702
914.2028, 38.32034
914.6849, 38.88494
915.1670, 38.38674
915.6491, 36.34061
916.1312, 33.56225
916.6133, 33.97620
917.0955, 37.65886
917.5776, 39.53661
918.0597, 36.54788
918.5418, 32.68765
919.0239, 33.55675
919.5060, 37.12796
919.9882, 39.46304
920.4703, 39.06386
920.9524, 37.52291
921.4345, 34.36020
921.9166, 30.84526
922.3987, 28.56390
922.8809, 27.56766
923.3630, 27.06409
923.8451, 27.09257
924.3272, 26.78892
924.8093, 24.55956
925.2914, 21.76228
925.7736, 20.49224
926.2557, 21.37709
926.7378, 21.61556
927.2199, 19.64824
927.7020, 17.55562
928.1841, 16.60429
928.6663, 16.79476
929.1484, 15.28455
929.6305, 11.97290
930.1126, 8.893028
930.5947, 7.419384
931.0768, 6.822395
931.5590, 6.474937
932.0411, 6.244083
932.5232, 5.711040
933.0053, 3.723995
933.4874, 2.666878
933.9695, 3.517979
934.4517, 5.407646
934.9338, 6.628574
935.4159, 7.198704
935.8980, 5.476627
936.3801, 0.1271100
936.8622, 5.224422
937.3444, 5.852879
937.8265, 3.719589
938.3086, 1.635078
938.7907, 6.4963996E-02
939.2728, 0.8770750
939.7549, 1.390766
940.2371, 1.074661
940.7192, 0.9935300
941.2013, 4.913624
941.6834, 6.546787
942.1655, 5.679523
942.6476, 4.103329
943.1298, 3.280598
943.6119, 2.566746
944.0940, 0.4975740
944.5761, 2.851093
945.0582, 3.615932
945.5403, 1.760948
946.0225, 6.696640
946.5046, 9.432095
946.9867, 10.07789
947.4688, 8.360271
947.9509, 4.479671
948.4330, 1.306042
948.9152, 0.4757000
949.3973, 0.2827490
949.8794, 1.277088
950.3615, 3.288021
950.8436, 4.126534
951.3257, 1.681946
951.8079, 0.5393980
952.2900, 1.417191
952.7721, 3.023415
953.2542, 4.035835
953.7363, 4.435722
954.2184, 3.737461
954.7006, 1.761467
955.1827, 0.2578430
955.6648, 0.9730150
956.1469, 2.549835
956.6290, 3.865845
957.1111, 4.778099
957.5933, 5.575871
958.0754, 5.926376
958.5575, 6.884739
959.0396, 9.231808
959.5217, 12.45469
960.0038, 15.03688
960.4860, 16.94888
960.9681, 18.03930
961.4502, 16.81514
961.9323, 16.17174
962.4144, 18.64268
962.8965, 22.79226
963.3787, 25.30971
963.8608, 25.37410
964.3429, 25.76421
964.8250, 26.98391
965.3071, 28.20840
965.7892, 27.84496
966.2714, 26.65125
966.7535, 26.83190
967.2356, 29.02877
967.7177, 30.53461
968.1998, 29.04985
968.6819, 26.95535
969.1641, 25.62746
969.6462, 24.99088
970.1283, 26.90609
970.6104, 31.97533
971.0925, 36.34356
971.5746, 36.97794
972.0568, 35.93344
972.5389, 37.47524
973.0210, 40.68003
973.5031, 42.45718
973.9852, 39.01234
974.4673, 37.00158
974.9495, 39.26074
975.4316, 43.53941
975.9137, 46.03822
976.3958, 46.66142
976.8779, 47.12889
977.3600, 47.68029
977.8422, 48.35308
978.3243, 49.85115
978.8064, 51.17259
979.2885, 50.85461
979.7706, 48.31710
980.2527, 45.82495
980.7349, 43.25543
981.2170, 41.45246
981.6991, 41.02174
982.1812, 41.81799
982.6633, 42.88040
983.1454, 44.19674
983.6276, 45.63676
984.1097, 47.54166
984.5918, 49.15795
985.0739, 49.90437
985.5560, 49.90504
986.0381, 49.44730
986.5203, 48.52592
987.0024, 47.17889
987.4845, 45.08011
987.9666, 43.20274
988.4487, 43.13565
988.9308, 44.44557
989.4130, 46.10741
989.8951, 48.08710
990.3772, 49.29492
990.8593, 48.47509
991.3414, 47.11174
991.8235, 46.06935
992.3057, 45.31032
992.7878, 46.36602
993.2699, 49.73661
993.7520, 51.86305
994.2341, 49.49788
994.7162, 45.28859
995.1984, 44.85962
995.6805, 47.12108
996.1626, 48.65577
996.6447, 48.32277
997.1268, 46.70798
997.6089, 42.91230
998.0911, 38.73610
998.5732, 36.87068
999.0553, 37.16366
999.5374, 37.27322
1000.020, 37.04297
1000.502, 36.80691
1000.984, 37.09472
1001.466, 37.25525
1001.948, 36.73885
1002.430, 35.44998
1002.912, 33.48915
1003.394, 29.77550
1003.876, 26.96133
1004.359, 26.71389
1004.841, 28.17168
1005.323, 28.56432
1005.805, 28.23537
1006.287, 27.98155
1006.769, 28.40002
1007.251, 28.33538
1007.733, 26.60819
1008.216, 24.38506
1008.698, 23.36565
1009.180, 23.86155
1009.662, 24.40161
1010.144, 25.06981
1010.626, 25.35921
1011.108, 24.24739
1011.590, 22.66782
1012.072, 22.22519
1012.555, 22.94244
1013.037, 23.28933
1013.519, 22.88186
1014.001, 21.92325
1014.483, 20.15775
1014.965, 17.99112
1015.447, 16.93758
1015.929, 16.88994
1016.411, 16.66199
1016.894, 15.48787
1017.376, 14.90628
1017.858, 17.40526
1018.340, 20.76779
1018.822, 22.11864
1019.304, 20.24037
1019.786, 18.49640
1020.268, 16.84672
1020.751, 15.44048
1021.233, 14.25799
1021.715, 13.43423
1022.197, 13.57008
1022.679, 14.51433
1023.161, 15.35836
1023.643, 16.13943
1024.125, 16.16078
1024.607, 14.37646
1025.090, 11.93447
1025.572, 11.27157
1026.054, 12.48388
1026.536, 14.23574
1027.018, 16.41175
1027.500, 18.49552
1027.982, 20.27093
1028.464, 21.45843
1028.947, 21.37928
1029.429, 19.44005
1029.911, 19.07020
1030.393, 21.12156
1030.875, 23.49429
1031.357, 25.13286
1031.839, 26.27269
1032.321, 27.61127
1032.803, 29.14036
1033.286, 30.86526
1033.768, 33.58446
1034.250, 35.56760
1034.732, 35.38868
1035.214, 34.32797
1035.696, 34.08868
1036.178, 34.59570
1036.660, 36.84645
1037.143, 41.31264
1037.625, 44.99244
1038.107, 44.53574
1038.589, 42.10652
1039.071, 39.83485
1039.553, 37.96968
1040.035, 37.61831
1040.517, 40.22514
1041.000, 42.47525
1041.482, 43.34023
1041.964, 43.38416
1042.446, 44.20323
1042.928, 45.42980
1043.410, 45.25257
1043.892, 42.38013
1044.374, 40.29886
1044.856, 41.78283
1045.339, 44.62346
1045.821, 47.02720
1046.303, 49.04498
1046.785, 49.66730
1047.267, 48.75633
1047.749, 47.68020
1048.231, 47.58268
1048.713, 47.69043
1049.195, 47.03026
1049.677, 45.74330
1050.160, 44.27981
1050.642, 42.86769
1051.124, 41.02740
1051.606, 38.32538
1052.088, 35.74390
1052.570, 34.93286
1053.052, 35.41696
1053.534, 35.62292
1054.017, 35.38329
1054.499, 34.18082
1054.981, 30.86036
1055.463, 27.20896
1055.945, 23.94741
1056.427, 21.25456
1056.909, 20.70640
1057.391, 22.50553
1057.874, 24.15811
1058.356, 24.88724
1058.838, 24.94155
1059.320, 24.77430
1059.802, 24.06761
1060.284, 22.20123
1060.766, 17.93255
1061.248, 15.09085
1061.730, 13.81253
1062.213, 13.95481
1062.695, 16.44078
1063.177, 20.19166
1063.659, 20.92787
1064.141, 19.19714
1064.623, 17.60762
1065.105, 17.28363
1065.587, 17.57909
1066.070, 18.79270
1066.552, 20.18651
1067.034, 20.54552
1067.516, 19.88547
1067.998, 19.71428
1068.480, 20.08338
1068.962, 20.33802
1069.444, 19.52530
1069.927, 18.85201
1070.409, 19.61437
1070.891, 21.83558
1071.373, 24.04054
1071.855, 26.51497
1072.337, 27.98637
1072.819, 27.62524
1073.301, 26.71348
1073.783, 27.37378
1074.266, 29.46705
1074.748, 32.92745
1075.230, 38.75727
1075.712, 42.95381
1076.194, 43.28830
1076.676, 42.81957
1077.158, 43.69037
1077.640, 45.77802
1078.122, 46.17693
1078.604, 45.13221
1079.087, 45.30482
1079.569, 49.21863
1080.051, 53.80169
1080.533, 57.01999
1081.015, 59.63300
1081.497, 63.58907
1081.979, 69.81873
1082.461, 72.31886
1082.944, 70.11503
1083.426, 67.80765
1083.908, 71.58770
1084.390, 76.80106
1084.872, 76.55979
1085.354, 70.91369
1085.836, 68.13120
1086.318, 71.14198
1086.801, 74.01028
1087.283, 75.10796
1087.765, 75.37122
1088.247, 77.31483
1088.729, 79.94595
1089.211, 80.00767
1089.693, 76.27685
1090.175, 73.05589
1090.657, 72.37080
1091.140, 72.00082
1091.622, 71.33680
1092.104, 70.21117
1092.586, 66.30102
1093.068, 59.90827
1093.550, 55.07474
1094.032, 54.92772
1094.514, 54.95171
1094.997, 51.21563
1095.479, 45.87554
1095.961, 41.88626
1096.443, 39.83964
1096.925, 37.23652
1097.407, 33.82053
1097.889, 31.24737
1098.371, 31.79180
1098.854, 33.29770
1099.336, 33.11005
1099.818, 31.44025
1100.300, 29.41554
1100.782, 26.85881
1101.264, 24.76280
1101.746, 23.45484
1102.228, 22.31046
1102.710, 20.37679
1103.193, 17.93922
1103.675, 15.22094
1104.157, 12.28397
1104.639, 10.97606
1105.121, 13.98810
1105.603, 16.62101
1106.085, 16.91861
1106.567, 15.65192
1107.049, 15.27588
1107.531, 15.60672
1108.014, 15.23438
1108.496, 13.52198
1108.978, 11.91200
1109.460, 11.87249
1109.942, 12.03199
1110.424, 10.93172
1110.906, 8.456062
1111.388, 7.829453
1111.871, 9.195023
1112.353, 10.06165
1112.835, 8.760921
1113.317, 6.909500
1113.799, 6.342152
1114.281, 6.453678
1114.763, 6.128338
1115.245, 4.352131
1115.728, 4.335213
1116.210, 6.865105
1116.692, 8.585670
1117.174, 4.847733
1117.656, 0.6552620
1118.138, 0.6508060
1118.620, 3.826767
1119.102, 7.932613
1119.584, 11.46983
1120.067, 12.11017
1120.549, 8.482635
1121.031, 3.509075
1121.513, 1.028519
1121.995, 0.5085790
1122.477, 0.3450360
1122.959, 0.3833770
1123.441, 0.3346860
1123.924, 0.1372830
1124.406, 0.3906100
1124.888, 1.806374
1125.370, 3.353657
1125.852, 2.300304
1126.334, 1.021503
1126.816, 2.514004
1127.298, 0.8610120
1127.781, 0.9005740
1128.263, 9.6100003E-02
1128.745, 1.204025
1129.227, 1.098454
1129.709, 0.3407290
1130.191, 0.7820170
1130.673, 0.1394960
1131.155, 0.2063940
1131.637, 0.4637450
1132.120, 1.416870
1132.602, 2.265587
1133.084, 2.742626
1133.566, 2.238155
1134.048, 2.8587000E-02
1134.530, 0.5702900
1135.012, 1.003716
1135.494, 2.728722
1135.976, 3.295246
1136.458, 3.234283
1136.941, 3.548523
1137.423, 3.962013
1137.905, 3.759987
1138.387, 2.463135
1138.869, 0.7247390
1139.351, 1.861286
1139.833, 3.941135
1140.315, 3.998123
1140.798, 2.570663
1141.280, 0.3341450
1141.762, 2.383583
1142.244, 3.835754
1142.726, 1.813683
1143.208, 0.5208660
1143.690, 1.341423
1144.172, 2.761971
1144.655, 2.631241
1145.137, 1.115593
1145.619, 2.001228
1146.101, 6.779572
1146.583, 9.172394
1147.065, 3.750458
1147.547, 1.038681
1148.029, 0.8350830
1148.511, 2.553352
1148.994, 3.887428
1149.476, 3.437706
1149.958, 3.845993
1150.440, 6.051193
1150.922, 7.462234
1151.404, 4.599777
1151.886, 1.632782
1152.368, 2.339165
1152.851, 6.163155
1153.333, 7.210968
1153.815, 5.466072
1154.297, 4.525299
1154.779, 6.216537
1155.261, 8.097725
1155.743, 7.261047
1156.225, 5.746178
1156.708, 6.353149
1157.190, 9.734581
1157.672, 10.64876
1158.154, 8.871475
1158.636, 6.561508
1159.118, 4.185219
1159.600, 2.684143
1160.082, 3.711502
1160.564, 6.254738
1161.047, 8.606972
1161.529, 10.77763
1162.011, 12.12763
1162.493, 12.68040
1162.975, 12.37510
1163.457, 10.34767
1163.939, 7.997345
1164.421, 7.625603
1164.903, 8.622681
1165.385, 9.052986
1165.868, 7.812546
1166.350, 7.456619
1166.832, 8.562302
1167.314, 9.457138
1167.796, 7.505928
1168.278, 4.591141
1168.760, 4.572594
1169.242, 7.116592
1169.725, 8.737381
1170.207, 7.855713
1170.689, 6.560493
1171.171, 4.727509
1171.653, 3.432991
1172.135, 4.894768
1172.617, 7.889160
1173.099, 9.949249
1173.582, 10.76775
1174.064, 10.26499
1174.546, 6.484772
1175.028, 3.883133
1175.510, 3.757652
1175.992, 5.256012
1176.474, 7.220901
1176.956, 9.346764
1177.438, 10.79470
1177.921, 11.42749
1178.403, 11.22124
1178.885, 9.746979
1179.367, 7.774445
1179.849, 5.157372
1180.331, 2.562965
1180.813, 2.404854
1181.295, 4.180817
1181.778, 6.138214
1182.260, 7.988518
1182.742, 9.138023
1183.224, 8.952461
1183.706, 8.459457
1184.188, 8.146141
1184.670, 7.881531
1185.152, 7.302956
1185.635, 6.589180
1186.117, 7.133141
1186.599, 10.61877
1187.081, 12.86802
1187.563, 10.27258
1188.045, 6.903008
1188.527, 5.984756
1189.009, 7.283371
1189.491, 7.994400
1189.974, 8.101433
1190.456, 7.671707
1190.938, 6.198631
1191.420, 5.042397
1191.902, 5.544136
1192.384, 6.225777
1192.866, 5.367096
1193.348, 2.878799
1193.830, 1.718857
1194.313, 1.889023
1194.795, 2.840302
1195.277, 4.840897
1195.759, 6.921707
1196.241, 8.948433
1196.723, 10.58817
1197.205, 11.43371
1197.687, 11.40305
1198.169, 10.04132
1198.652, 7.381302
1199.134, 4.940353
1199.616, 3.475594
1200.098, 2.716675
1200.580, 3.176376
1201.062, 4.179131
1201.544, 4.317314
1202.026, 3.494545
1202.509, 4.693825
1202.991, 8.276176
1203.473, 11.15838
1203.955, 9.969612
1204.437, 8.152596
1204.919, 8.254196
1205.401, 9.116928
1205.883, 8.498177
1206.365, 6.487679
1206.848, 4.624367
1207.330, 3.063232
1207.812, 2.510193
1208.294, 4.401939
1208.776, 6.653694
1209.258, 7.716759
1209.740, 7.951134
1210.222, 8.601517
1210.705, 9.656494
1211.187, 10.01927
1211.669, 9.458519
1212.151, 8.666458
1212.633, 8.329018
1213.115, 7.815674
1213.597, 6.165436
1214.079, 3.899895
1214.562, 3.210625
1215.044, 4.054520
1215.526, 4.041313
1216.008, 2.322250
1216.490, 1.329559
1216.972, 4.621651
1217.454, 7.912041
1217.936, 7.041801
1218.418, 3.240494
1218.901, 3.370346
1219.383, 7.207481
1219.865, 9.973312
1220.347, 10.31566
1220.829, 9.250732
1221.311, 6.084625
1221.793, 3.096695
1222.275, 2.118065
1222.757, 2.862152
1223.240, 2.883354
1223.722, 2.311684
1224.204, 3.242844
1224.686, 7.226250
1225.168, 10.35313
1225.650, 8.676125
1226.132, 6.275299
1226.614, 6.529213
1227.096, 9.061859
1227.579, 10.47047
1228.061, 10.79423
1228.543, 10.24991
1229.025, 8.130814
1229.507, 7.064125
1229.989, 10.41385
1230.471, 13.96425
1230.953, 14.12799
1231.436, 11.38621
1231.918, 10.05575
1232.400, 10.07223
1232.882, 11.24808
1233.364, 14.73031
1233.846, 17.12813
1234.328, 16.28893
1234.810, 14.07561
1235.292, 11.26678
1235.775, 8.175224
1236.257, 7.780991
1236.739, 9.579620
1237.221, 10.86008
1237.703, 9.841057
1238.185, 9.036171
1238.667, 10.42713
1239.149, 11.47064
1239.632, 9.479866
1240.114, 5.380035
1240.596, 5.205055
1241.078, 8.070976
1241.560, 10.24330
1242.042, 9.163292
1242.524, 8.494850
1243.006, 9.884201
1243.489, 10.93411
1243.971, 9.135696
1244.453, 5.442535
1244.935, 3.724602
1245.417, 3.675056
1245.899, 4.514511
1246.381, 7.092079
1246.863, 8.710876
1247.345, 8.926628
1247.828, 8.374329
1248.310, 7.439034
1248.792, 6.362221
1249.274, 4.899864
1249.756, 3.318092
1250.238, 2.653580
1250.720, 4.209244
1251.202, 5.227982
1251.684, 5.451248
1252.167, 5.411217
1252.649, 5.593239
1253.131, 5.847382
1253.613, 6.049263
1254.095, 6.087700
1254.577, 5.570961
1255.059, 3.348007
1255.541, 2.786995
1256.023, 4.485733
1256.506, 6.296066
1256.988, 6.151390
1257.470, 5.106850
1257.952, 4.333031
1258.434, 3.902069
1258.916, 4.189880
1259.398, 5.794586
1259.880, 5.946617
1260.363, 4.040047
1260.845, 2.850426
1261.327, 6.459404
1261.809, 10.50696
1262.291, 9.273697
1262.773, 5.070595
1263.255, 4.474869
1263.737, 9.046280
1264.219, 10.79492
1264.702, 9.069221
1265.184, 6.520927
1265.666, 4.857994
1266.148, 3.511246
1266.630, 1.916878
1267.112, 0.3779750
1267.594, 0.4249880
1268.076, 0.4414980
1268.559, 0.8149190
1269.041, 1.604683
1269.523, 1.548210
1270.005, 0.9521100
1270.487, 3.770470
1270.969, 6.344292
1271.451, 8.037239
1271.933, 7.398979
1272.416, 4.679779
1272.898, 3.157036
1273.380, 2.977379
1273.862, 3.179390
1274.344, 3.376366
1274.826, 3.792297
1275.308, 4.881180
1275.790, 5.798882
1276.272, 5.002937
1276.755, 3.166275
1277.237, 2.653816
1277.719, 3.477684
1278.201, 4.645058
1278.683, 6.232353
1279.165, 7.337006
1279.647, 7.754349
1280.129, 7.820282
1280.611, 8.150032
1281.094, 8.344131
1281.576, 7.305107
1282.058, 5.251602
1282.540, 3.375267
1283.022, 1.772072
1283.504, 0.8097310
1283.986, 0.5818100
1284.468, 0.7877730
1284.950, 1.321220
1285.433, 1.666779
1285.915, 0.4970090
1286.397, 0.4379350
1286.879, 3.0898999E-02
1287.361, 2.020386
1287.843, 4.588394
1288.325, 7.785339
1288.807, 9.831322
1289.290, 8.376755
1289.772, 5.835678
1290.254, 3.868240
1290.736, 2.628021
1291.218, 2.216354
1291.700, 2.697311
1292.182, 3.231125
1292.664, 3.716667
1293.146, 3.723206
1293.629, 2.566521
1294.111, 1.951660
1294.593, 2.919884
1295.075, 4.869942
1295.557, 6.173271
1296.039, 6.800461
1296.521, 6.278618
1297.003, 4.705849
1297.486, 3.107193
1297.968, 0.6026920
1298.450, 0.5655750
1298.932, 5.335854
1299.414, 10.09924
1299.896, 8.410309
1300.378, 2.820717
1300.860, 1.0376000E-02
1301.343, 1.5869001E-02
1301.825, 0.0000000E+00
##END=



