##NAMES=Lemmleinite-Ba
##RRUFFID=R070650
##IDEAL CHEMISTRY=Na_4_K_4_Ba_2+x_Ti_8_(Si_4_O_12_)_4_(O,OH)_8_&#183;8H_2_O
##LOCALITY=Diamond Jo Quarry, Magnet Cove, Hot Spring County, Arkansas, USA
##OWNER=RRUFF
##SOURCE=Michael Scott 
##DESCRIPTION=Orange tabular crystals associated with colorless acicular pectolite
##STATUS=The identification of this mineral is confirmed by single-crystal X-ray diffraction and chemical analysis.
##URL=rruff.info/R070650
##MEASURED CHEMISTRY=(Na_3.92_Ca_0.08_)_Σ=4_(K_3.79_Na_0.21_)_Σ=4_(Ba_1.52_K_0.44_Fe^2+^_0.33_)_Σ=2.29_(Ti_7.80_Fe^3+^_0.20_)_Σ=8_(Si_4.00_O_12_)_4_((OH)_4.18_O_3.82_)_Σ=8_·13.53H_2_O ; = darker phase
156.4129, 0.0000000E+00
156.8950, 2.205078
157.3771, 4.8827998E-02
157.8592, 6.220703
158.3413, 6.292969
158.8235, 0.3183590
159.3056, 1.996094
159.7877, 0.8789060
160.2698, 8.480469
160.7519, 32.08398
161.2340, 94.82031
161.7162, 164.0664
162.1983, 213.8047
162.6804, 219.4883
163.1625, 217.4395
163.6446, 226.8711
164.1267, 251.8457
164.6089, 273.6562
165.0910, 282.4418
165.5731, 319.5918
166.0552, 307.4590
166.5373, 330.7344
167.0194, 351.8457
167.5016, 337.8203
167.9837, 256.3574
168.4658, 207.9551
168.9479, 319.4004
169.4300, 532.8945
169.9121, 674.4395
170.3943, 586.7148
170.8764, 399.4121
171.3585, 247.4277
171.8406, 182.0371
172.3227, 144.8379
172.8048, 78.33398
173.2870, 11.05273
173.7691, 74.64062
174.2512, 57.03320
174.7333, 6.666016
175.2154, 59.60547
175.6975, 66.09375
176.1797, 56.71289
176.6618, 71.15430
177.1439, 110.9512
177.6260, 149.1523
178.1081, 153.4961
178.5902, 135.6172
179.0724, 127.3398
179.5545, 145.5020
180.0366, 182.4180
180.5187, 229.2793
181.0008, 289.2910
181.4829, 346.3672
181.9651, 381.1992
182.4472, 395.5410
182.9293, 402.7676
183.4114, 390.5879
183.8935, 376.2031
184.3756, 414.0371
184.8578, 525.8223
185.3399, 669.1191
185.8220, 781.4395
186.3041, 864.2227
186.7862, 916.6328
187.2683, 920.9121
187.7504, 888.5547
188.2326, 875.2988
188.7147, 898.8242
189.1968, 946.1211
189.6789, 979.7852
190.1610, 996.3047
190.6431, 1027.518
191.1253, 1119.000
191.6074, 1264.080
192.0895, 1394.367
192.5716, 1486.186
193.0537, 1543.340
193.5358, 1579.014
194.0180, 1589.795
194.5001, 1589.518
194.9822, 1589.283
195.4643, 1589.035
195.9464, 1607.434
196.4285, 1658.457
196.9107, 1740.484
197.3928, 1828.258
197.8749, 1926.154
198.3570, 2024.174
198.8391, 2097.320
199.3212, 2140.645
199.8034, 2193.654
200.2855, 2286.691
200.7676, 2420.219
201.2497, 2532.719
201.7318, 2617.953
202.2139, 2679.742
202.6961, 2733.992
203.1782, 2773.912
203.6603, 2821.533
204.1424, 2905.922
204.6245, 3032.971
205.1066, 3136.051
205.5888, 3201.758
206.0709, 3238.480
206.5530, 3293.211
207.0351, 3361.156
207.5172, 3414.338
207.9993, 3429.170
208.4815, 3406.863
208.9636, 3406.713
209.4457, 3449.902
209.9278, 3532.645
210.4099, 3593.301
210.8920, 3629.914
211.3742, 3647.004
211.8563, 3657.957
212.3384, 3678.277
212.8205, 3649.061
213.3026, 3538.605
213.7847, 3340.148
214.2669, 3162.225
214.7490, 2969.229
215.2311, 2785.604
215.7132, 2780.909
216.1953, 2756.848
216.6774, 2714.462
217.1596, 2598.857
217.6417, 2577.798
218.1238, 2518.853
218.6059, 2458.353
219.0880, 2450.597
219.5701, 2345.651
220.0523, 2337.047
220.5344, 2289.993
221.0165, 2260.086
221.4986, 2246.410
221.9807, 2226.240
222.4628, 2198.162
222.9450, 2162.287
223.4271, 2119.982
223.9092, 2071.076
224.3913, 2015.875
224.8734, 1951.645
225.3555, 1867.314
225.8377, 1799.422
226.3198, 1752.521
226.8019, 1724.059
227.2840, 1699.924
227.7661, 1683.676
228.2482, 1667.084
228.7303, 1648.527
229.2125, 1643.838
229.6946, 1602.779
230.1767, 1501.908
230.6588, 1345.434
231.1409, 1236.963
231.6230, 1197.180
232.1052, 1184.164
232.5873, 1159.873
233.0694, 1115.100
233.5515, 1068.643
234.0336, 1020.504
234.5157, 970.0137
234.9979, 941.0723
235.4800, 951.9844
235.9621, 968.7031
236.4442, 951.2715
236.9263, 879.5957
237.4084, 809.7773
237.8906, 754.1230
238.3727, 714.7188
238.8548, 678.9316
239.3369, 648.0332
239.8190, 619.9844
240.3011, 592.0996
240.7833, 564.3691
241.2654, 536.7637
241.7475, 506.9375
242.2296, 470.4043
242.7117, 448.7422
243.1938, 442.6914
243.6760, 450.1211
244.1581, 474.1465
244.6402, 547.9590
245.1223, 585.7891
245.6044, 545.2344
246.0865, 379.6543
246.5687, 266.9160
247.0508, 224.0527
247.5329, 227.3086
248.0150, 224.2246
248.4971, 207.8340
248.9792, 194.7773
249.4614, 196.4805
249.9435, 234.6934
250.4256, 233.4180
250.9077, 173.4980
251.3898, 77.84961
251.8719, 13.29102
252.3541, 9.224609
252.8362, 15.61523
253.3183, 16.60938
253.8004, 7.634766
254.2825, 1.525391
254.7646, 7.734375
255.2468, 14.89062
255.7289, 8.343750
256.2110, 84.72461
256.6931, 156.9941
257.1752, 192.0391
257.6573, 181.7539
258.1395, 151.9766
258.6216, 97.82031
259.1037, 101.0954
259.5858, 40.09766
260.0679, 97.19531
260.5500, 143.4453
261.0322, 172.2461
261.5143, 172.8984
261.9964, 185.5586
262.4785, 220.9297
262.9606, 272.6367
263.4427, 302.6367
263.9249, 300.8984
264.4070, 292.9414
264.8891, 299.7578
265.3712, 327.1914
265.8533, 352.5000
266.3354, 377.8047
266.8176, 400.3750
267.2997, 393.4180
267.7818, 340.1602
268.2639, 288.4258
268.7460, 287.1094
269.2281, 353.6641
269.7103, 407.0000
270.1924, 432.6484
270.6745, 432.5078
271.1566, 414.0586
271.6387, 365.7891
272.1208, 323.2812
272.6030, 329.4766
273.0851, 397.8125
273.5672, 450.5781
274.0493, 459.9023
274.5314, 433.2109
275.0135, 458.1914
275.4957, 552.3555
275.9778, 655.2969
276.4599, 701.0742
276.9420, 683.6992
277.4241, 644.1328
277.9063, 577.4219
278.3884, 490.6914
278.8705, 461.1133
279.3526, 496.7852
279.8347, 566.5664
280.3168, 650.9375
280.7990, 754.0273
281.2811, 824.4023
281.7632, 839.0820
282.2453, 806.0742
282.7274, 772.4258
283.2095, 736.9375
283.6917, 706.7188
284.1738, 690.8945
284.6559, 689.7109
285.1380, 695.0977
285.6201, 712.9883
286.1022, 736.6211
286.5844, 718.3203
287.0665, 645.9727
287.5486, 583.4258
288.0307, 634.7422
288.5128, 791.1680
288.9949, 900.7773
289.4771, 876.6953
289.9592, 759.1211
290.4413, 716.7734
290.9234, 757.6289
291.4055, 825.2617
291.8876, 861.0703
292.3697, 867.6680
292.8518, 864.7812
293.3340, 861.5352
293.8161, 854.1758
294.2982, 826.7734
294.7803, 777.2148
295.2624, 724.6836
295.7445, 689.7539
296.2267, 669.7656
296.7088, 653.1602
297.1909, 639.4453
297.6730, 626.2539
298.1551, 607.3867
298.6372, 583.4180
299.1194, 557.2695
299.6015, 521.9961
300.0836, 485.6680
300.5657, 470.9180
301.0478, 513.1484
301.5299, 574.4102
302.0121, 583.5547
302.4942, 537.1680
302.9763, 499.4180
303.4584, 546.9414
303.9405, 645.0469
304.4226, 722.1758
304.9048, 732.9336
305.3869, 713.1836
305.8690, 697.1250
306.3511, 684.6562
306.8332, 679.5352
307.3153, 696.3945
307.7975, 721.5898
308.2796, 730.0664
308.7617, 700.5156
309.2438, 655.5312
309.7259, 610.1641
310.2080, 565.5391
310.6902, 534.1875
311.1723, 547.3320
311.6544, 581.1289
312.1365, 594.6250
312.6186, 511.5000
313.1007, 437.5039
313.5829, 462.1953
314.0650, 584.4297
314.5471, 678.4375
315.0292, 666.0664
315.5113, 602.7539
315.9934, 548.7383
316.4756, 511.4023
316.9577, 498.2070
317.4398, 522.6562
317.9219, 584.1211
318.4040, 639.6367
318.8861, 656.3125
319.3683, 660.5547
319.8504, 677.1914
320.3325, 732.8906
320.8146, 785.0781
321.2967, 795.4805
321.7788, 769.0586
322.2610, 821.9805
322.7431, 1092.180
323.2252, 1394.926
323.7073, 1578.660
324.1894, 1513.691
324.6715, 1433.523
325.1537, 1372.969
325.6358, 1334.242
326.1179, 1332.254
326.6000, 1397.414
327.0821, 1481.852
327.5642, 1552.777
328.0464, 1576.875
328.5285, 1622.625
329.0106, 1716.113
329.4927, 1850.180
329.9748, 1939.340
330.4569, 1939.770
330.9391, 1932.883
331.4212, 1971.957
331.9033, 2095.133
332.3854, 2200.660
332.8675, 2283.328
333.3496, 2342.871
333.8318, 2369.188
334.3139, 2323.004
334.7960, 2293.625
335.2781, 2345.961
335.7602, 2525.637
336.2423, 2670.570
336.7245, 2753.188
337.2066, 2794.195
337.6887, 2887.859
338.1708, 3068.172
338.6529, 3224.484
339.1350, 3282.645
339.6172, 3220.797
340.0993, 3167.512
340.5814, 3126.180
341.0635, 3103.113
341.5456, 3122.055
342.0277, 3190.535
342.5099, 3266.211
342.9920, 3332.473
343.4741, 3390.406
343.9562, 3415.285
344.4383, 3397.625
344.9204, 3360.711
345.4026, 3355.309
345.8847, 3382.723
346.3668, 3394.953
346.8489, 3340.270
347.3310, 3240.273
347.8131, 3206.922
348.2953, 3257.766
348.7774, 3337.566
349.2595, 3378.082
349.7416, 3382.027
350.2237, 3370.074
350.7058, 3352.203
351.1880, 3325.949
351.6701, 3282.113
352.1522, 3218.109
352.6343, 3154.402
353.1164, 3113.773
353.5985, 3091.000
354.0807, 3071.738
354.5628, 3063.078
355.0449, 3049.668
355.5270, 3023.094
356.0091, 2984.766
356.4912, 2907.188
356.9734, 2742.398
357.4555, 2528.930
357.9376, 2329.984
358.4197, 2150.781
358.9018, 2007.270
359.3839, 1927.184
359.8661, 1908.051
360.3482, 1880.598
360.8303, 1806.070
361.3124, 1705.473
361.7945, 1599.691
362.2766, 1488.258
362.7588, 1377.891
363.2409, 1275.266
363.7230, 1178.062
364.2051, 1069.422
364.6872, 925.9258
365.1693, 779.3242
365.6515, 651.4023
366.1336, 542.2617
366.6157, 458.0508
367.0978, 431.6094
367.5799, 443.8086
368.0620, 398.9375
368.5442, 215.0000
369.0263, 28.32812
369.5084, 95.35156
369.9905, 109.7578
370.4726, 121.9453
370.9547, 125.4570
371.4369, 125.0547
371.9190, 137.6758
372.4011, 182.6484
372.8832, 215.8633
373.3653, 213.9492
373.8474, 150.4102
374.3295, 127.8438
374.8116, 165.5156
375.2938, 229.3438
375.7759, 259.6328
376.2580, 256.7969
376.7401, 220.5000
377.2222, 130.1836
377.7043, 23.33984
378.1865, 87.55469
378.6686, 46.42578
379.1507, 47.62891
379.6328, 148.1406
380.1149, 259.6719
380.5970, 308.0000
381.0792, 235.4531
381.5613, 77.30078
382.0434, 0.8906250
382.5255, 16.20312
383.0076, 55.98438
383.4897, 48.52734
383.9719, 5.808594
384.4540, 19.95703
384.9361, 7.984375
385.4182, 25.66797
385.9003, 55.80859
386.3824, 81.92188
386.8646, 107.0273
387.3467, 130.6836
387.8288, 154.0625
388.3109, 182.5625
388.7930, 225.9844
389.2751, 258.6641
389.7573, 251.1289
390.2394, 209.9219
390.7215, 160.9414
391.2036, 116.6602
391.6857, 70.91797
392.1678, 18.07812
392.6500, 42.66016
393.1321, 109.2578
393.6142, 192.0977
394.0963, 277.1602
394.5784, 339.5547
395.0605, 313.6641
395.5427, 305.5898
396.0248, 383.8125
396.5069, 587.2383
396.9890, 745.7422
397.4711, 795.8125
397.9532, 786.6211
398.4354, 782.8711
398.9175, 785.1211
399.3996, 800.9570
399.8817, 843.8516
400.3638, 920.4414
400.8459, 960.7109
401.3281, 925.5508
401.8102, 883.3750
402.2923, 897.4531
402.7744, 1026.832
403.2565, 1104.234
403.7386, 1091.906
404.2208, 1004.031
404.7029, 937.5820
405.1850, 894.1016
405.6671, 869.9141
406.1492, 873.1602
406.6313, 914.5898
407.1135, 918.2070
407.5956, 870.3477
408.0777, 788.5430
408.5598, 703.2734
409.0419, 612.5742
409.5240, 545.7695
410.0062, 535.7617
410.4883, 571.0742
410.9704, 572.8789
411.4525, 529.4297
411.9346, 480.3750
412.4167, 493.3516
412.8989, 551.9883
413.3810, 586.0938
413.8631, 523.8477
414.3452, 428.7930
414.8273, 408.4570
415.3094, 466.2500
415.7916, 541.0625
416.2737, 594.0586
416.7558, 629.6289
417.2379, 656.8633
417.7200, 682.7383
418.2021, 698.5195
418.6843, 704.5000
419.1664, 698.9648
419.6485, 670.2656
420.1306, 535.0352
420.6127, 418.1641
421.0948, 425.5312
421.5770, 678.4375
422.0591, 913.2812
422.5412, 1054.516
423.0233, 1122.184
423.5054, 1175.098
423.9875, 1190.516
424.4697, 1220.461
424.9518, 1287.297
425.4339, 1404.902
425.9160, 1527.109
426.3981, 1663.168
426.8802, 1794.133
427.3624, 1902.188
427.8445, 1999.133
428.3266, 2073.301
428.8087, 2113.988
429.2908, 2119.793
429.7729, 2157.629
430.2551, 2241.531
430.7372, 2328.941
431.2193, 2363.293
431.7014, 2331.594
432.1835, 2378.449
432.6656, 2557.445
433.1478, 2812.375
433.6299, 2957.637
434.1120, 2985.816
434.5941, 3017.512
435.0762, 3156.848
435.5583, 3380.531
436.0405, 3566.305
436.5226, 3689.695
437.0047, 3783.062
437.4868, 3895.316
437.9689, 4016.988
438.4510, 4118.938
438.9332, 4152.840
439.4153, 4187.008
439.8974, 4314.281
440.3795, 4543.293
440.8616, 4754.875
441.3438, 4853.129
441.8259, 4889.383
442.3080, 4932.078
442.7901, 4994.445
443.2722, 5075.176
443.7543, 5186.672
444.2365, 5322.723
444.7186, 5441.859
445.2007, 5531.805
445.6828, 5598.305
446.1649, 5646.574
446.6470, 5689.809
447.1292, 5696.453
447.6113, 5642.828
448.0934, 5553.773
448.5755, 5493.184
449.0576, 5495.410
449.5397, 5487.324
450.0219, 5442.715
450.5040, 5352.824
450.9861, 5263.863
451.4682, 5187.219
451.9503, 5099.863
452.4324, 4967.637
452.9146, 4780.219
453.3967, 4588.727
453.8788, 4403.234
454.3609, 4224.832
454.8430, 4083.879
455.3251, 3986.543
455.8072, 3875.117
456.2893, 3664.414
456.7715, 3382.195
457.2536, 3190.723
457.7357, 3136.141
458.2178, 3146.984
458.6999, 3126.348
459.1820, 3081.832
459.6642, 3047.168
460.1463, 3077.527
460.6284, 3113.117
461.1105, 3070.242
461.5926, 2932.504
462.0747, 2778.488
462.5569, 2627.297
463.0390, 2500.523
463.5211, 2430.559
464.0032, 2471.641
464.4853, 2532.203
464.9674, 2551.285
465.4496, 2535.098
465.9317, 2590.180
466.4138, 2813.750
466.8959, 3071.188
467.3780, 3281.621
467.8601, 3369.766
468.3423, 3493.461
468.8244, 3660.312
469.3065, 3867.375
469.7886, 4101.234
470.2707, 4391.109
470.7528, 4663.832
471.2350, 4871.637
471.7171, 4990.086
472.1992, 5227.250
472.6813, 5610.578
473.1634, 6061.555
473.6455, 6492.598
474.1277, 6905.555
474.6098, 7284.734
475.0919, 7617.328
475.5740, 7917.801
476.0561, 8213.746
476.5382, 8505.848
477.0204, 8829.840
477.5025, 9236.926
477.9846, 9691.566
478.4667, 10115.71
478.9488, 10498.85
479.4309, 10848.74
479.9131, 11139.96
480.3952, 11402.90
480.8773, 11708.02
481.3594, 12097.85
481.8415, 12530.95
482.3236, 12982.49
482.8058, 13445.90
483.2879, 13926.27
483.7700, 14458.39
484.2521, 14988.43
484.7342, 15470.38
485.2163, 15897.09
485.6985, 16261.41
486.1806, 16559.73
486.6627, 16792.93
487.1448, 16979.84
487.6269, 17165.77
488.1090, 17252.63
488.5912, 17194.99
489.0733, 16967.23
489.5554, 16684.59
490.0375, 16364.33
490.5196, 15966.01
491.0017, 15431.04
491.4839, 14746.62
491.9660, 13983.36
492.4481, 13130.22
492.9302, 12208.12
493.4123, 11336.50
493.8944, 10504.53
494.3766, 9712.492
494.8587, 8940.215
495.3408, 8203.102
495.8229, 7528.340
496.3050, 6927.172
496.7871, 6364.727
497.2693, 5787.297
497.7514, 5207.012
498.2335, 4670.879
498.7156, 4213.352
499.1977, 3794.914
499.6798, 3379.512
500.1620, 2965.891
500.6441, 2577.754
501.1262, 2201.762
501.6083, 1869.113
502.0904, 1603.281
502.5725, 1456.895
503.0547, 1327.906
503.5368, 1213.727
504.0189, 1107.672
504.5010, 978.4180
504.9831, 780.9766
505.4652, 620.9336
505.9474, 547.7344
506.4295, 580.2461
506.9116, 618.5391
507.3937, 668.0547
507.8758, 713.3125
508.3579, 721.1836
508.8401, 684.7812
509.3222, 698.2383
509.8043, 804.1016
510.2864, 963.9414
510.7685, 1060.887
511.2506, 1095.562
511.7328, 1141.594
512.2148, 1266.195
512.6970, 1437.691
513.1791, 1596.320
513.6612, 1725.000
514.1433, 1864.344
514.6254, 2053.160
515.1075, 2272.754
515.5897, 2495.871
516.0718, 2700.859
516.5539, 2928.941
517.0360, 3214.359
517.5181, 3554.727
518.0002, 3871.016
518.4824, 4121.945
518.9645, 4352.703
519.4466, 4591.570
519.9287, 4821.258
520.4108, 5086.156
520.8929, 5397.863
521.3751, 5746.629
521.8572, 6101.148
522.3393, 6457.957
522.8214, 6819.855
523.3035, 7204.133
523.7856, 7605.742
524.2678, 7935.508
524.7499, 8178.820
525.2320, 8399.961
525.7141, 8657.574
526.1962, 8934.727
526.6783, 9176.859
527.1605, 9378.375
527.6426, 9546.992
528.1247, 9692.293
528.6068, 9809.602
529.0889, 9890.250
529.5710, 9910.887
530.0532, 9897.594
530.5353, 9888.109
531.0174, 9884.969
531.4995, 9825.965
531.9816, 9664.711
532.4637, 9439.754
532.9459, 9183.418
533.4280, 8859.496
533.9101, 8561.754
534.3922, 8360.113
534.8743, 8203.629
535.3564, 7935.508
535.8386, 7452.691
536.3207, 6990.719
536.8028, 6624.328
537.2849, 6360.184
537.7670, 6084.738
538.2491, 5797.332
538.7313, 5509.574
539.2134, 5220.199
539.6955, 4930.898
540.1776, 4682.035
540.6597, 4489.020
541.1418, 4327.141
541.6240, 4151.492
542.1061, 3956.734
542.5882, 3751.680
543.0703, 3537.008
543.5524, 3319.270
544.0345, 3090.582
544.5167, 2846.465
544.9988, 2652.117
545.4809, 2607.734
545.9630, 2617.949
546.4451, 2571.211
546.9272, 2381.660
547.4094, 2184.527
547.8915, 2006.023
548.3736, 1852.609
548.8557, 1741.145
549.3378, 1746.805
549.8199, 1726.543
550.3021, 1617.320
550.7842, 1386.957
551.2663, 1224.059
551.7484, 1165.680
552.2305, 1129.480
552.7126, 1013.738
553.1948, 796.1172
553.6769, 654.2227
554.1590, 636.9141
554.6411, 694.2461
555.1232, 721.9961
555.6053, 720.3555
556.0875, 690.1328
556.5696, 624.1992
557.0517, 532.3945
557.5338, 419.5000
558.0159, 283.8867
558.4980, 172.0977
558.9802, 133.7969
559.4623, 135.8242
559.9444, 135.6328
560.4265, 101.5312
560.9086, 89.10156
561.3907, 146.5469
561.8729, 244.8906
562.3550, 304.4219
562.8371, 296.4492
563.3192, 259.7383
563.8013, 186.4922
564.2834, 61.10547
564.7656, 40.09375
565.2477, 181.2656
565.7298, 337.6250
566.2119, 376.8438
566.6940, 277.3828
567.1761, 187.1328
567.6583, 113.7852
568.1404, 61.10547
568.6225, 53.50781
569.1046, 87.73047
569.5867, 95.61719
570.0688, 122.8657
570.5510, 97.40234
571.0331, 173.9492
571.5152, 209.0312
571.9973, 213.4609
572.4794, 156.2930
572.9615, 89.36719
573.4437, 69.83594
573.9258, 131.3359
574.4079, 193.6055
574.8900, 237.2227
575.3721, 260.7305
575.8542, 260.7305
576.3364, 232.7148
576.8185, 188.7930
577.3006, 121.4883
577.7827, 32.69922
578.2648, 1.015625
578.7469, 43.60156
579.2291, 98.09766
579.7112, 114.5234
580.1933, 89.96484
580.6754, 78.20703
581.1575, 83.93359
581.6396, 97.91406
582.1218, 127.8398
582.6039, 160.7500
583.0860, 132.8203
583.5681, 38.39453
584.0502, 226.8047
584.5323, 260.7539
585.0145, 166.1016
585.4966, 57.49219
585.9787, 26.10938
586.4608, 84.21094
586.9429, 114.5625
587.4250, 113.5078
587.9072, 100.4492
588.3893, 68.55859
588.8714, 32.12109
589.3535, 5.355469
589.8356, 14.05859
590.3177, 20.57422
590.7999, 7.191406
591.2820, 17.00000
591.7641, 16.83984
592.2462, 21.55859
592.7283, 33.27344
593.2104, 40.78906
593.6926, 48.35197
594.1747, 38.05821
594.6568, 98.04688
595.1389, 32.34375
595.6210, 123.9297
596.1031, 177.3984
596.5853, 186.1406
597.0674, 134.0547
597.5495, 74.53906
598.0316, 34.10156
598.5137, 19.31250
598.9958, 42.12891
599.4780, 160.0078
599.9601, 265.9844
600.4422, 314.8672
600.9243, 307.4844
601.4064, 297.7656
601.8885, 279.9531
602.3707, 269.3203
602.8528, 270.9961
603.3349, 278.7891
603.8170, 316.9336
604.2991, 395.9844
604.7813, 485.5781
605.2634, 551.1133
605.7455, 591.6055
606.2276, 618.5312
606.7097, 630.4297
607.1918, 636.0781
607.6740, 657.6406
608.1561, 691.1289
608.6382, 718.4922
609.1203, 716.1797
609.6024, 712.2891
610.0845, 744.2852
610.5667, 816.7578
611.0488, 863.2188
611.5309, 817.3906
612.0130, 755.9336
612.4951, 739.9844
612.9772, 828.3477
613.4594, 890.6094
613.9415, 918.3203
614.4236, 916.3867
614.9057, 888.1680
615.3878, 817.1367
615.8699, 761.5859
616.3521, 743.5977
616.8342, 750.8008
617.3163, 723.2734
617.7984, 658.9258
618.2805, 593.7695
618.7626, 567.4961
619.2448, 557.6719
619.7269, 512.6641
620.2090, 427.7422
620.6911, 323.7812
621.1732, 184.2539
621.6553, 48.05859
622.1375, 33.66016
622.6196, 6.195313
623.1017, 41.34375
623.5838, 13.01953
624.0659, 50.37891
624.5480, 76.67188
625.0302, 11.25781
625.5123, 36.26562
625.9944, 30.71875
626.4765, 26.36719
626.9586, 64.48438
627.4407, 82.81641
627.9229, 92.05469
628.4050, 108.6133
628.8871, 130.2227
629.3692, 122.3945
629.8513, 73.66797
630.3334, 23.11719
630.8156, 17.25781
631.2977, 46.01562
631.7798, 86.76562
632.2619, 138.2461
632.7440, 186.6758
633.2261, 228.1992
633.7083, 255.9414
634.1904, 256.4805
634.6725, 182.7500
635.1546, 114.3438
635.6367, 85.02344
636.1188, 102.9492
636.6010, 122.3164
637.0831, 148.0664
637.5652, 167.0781
638.0473, 171.6094
638.5294, 164.0000
639.0115, 133.8438
639.4937, 71.59375
639.9758, 14.22266
640.4579, 29.84766
640.9400, 96.46094
641.4221, 110.0039
641.9042, 113.4617
642.3864, 102.8047
642.8685, 101.9492
643.3506, 21.83984
643.8327, 16.01953
644.3148, 128.9844
644.7969, 270.0547
645.2791, 284.6914
645.7612, 152.6914
646.2433, 69.21484
646.7254, 94.83984
647.2075, 151.8945
647.6896, 195.9531
648.1718, 214.5898
648.6539, 256.9375
649.1360, 338.3281
649.6181, 422.4570
650.1002, 457.9141
650.5823, 445.7109
651.0645, 425.1992
651.5466, 412.8633
652.0287, 391.1328
652.5108, 297.5977
652.9929, 161.5430
653.4750, 83.08594
653.9572, 196.0508
654.4393, 320.7695
654.9214, 306.0508
655.4035, 146.9258
655.8856, 13.42578
656.3677, 32.03125
656.8499, 37.78125
657.3320, 27.29297
657.8141, 7.277344
658.2962, 24.91016
658.7783, 14.23828
659.2604, 2.980469
659.7426, 9.019531
660.2247, 6.199219
660.7067, 40.64453
661.1888, 153.9492
661.6710, 290.3438
662.1531, 389.1133
662.6352, 448.3086
663.1173, 461.2148
663.5994, 341.1367
664.0815, 231.0195
664.5637, 298.5859
665.0458, 522.2344
665.5279, 706.2305
666.0100, 755.3320
666.4921, 751.0508
666.9742, 734.6523
667.4564, 703.3438
667.9385, 678.2422
668.4206, 661.7188
668.9027, 649.6055
669.3848, 633.2148
669.8669, 607.5898
670.3491, 614.0898
670.8312, 665.7773
671.3133, 737.2188
671.7954, 793.7266
672.2775, 835.6055
672.7596, 856.6562
673.2418, 850.6758
673.7239, 828.9180
674.2060, 790.6094
674.6881, 742.7422
675.1702, 714.6719
675.6523, 727.7227
676.1345, 757.1094
676.6166, 794.8828
677.0987, 843.8203
677.5808, 876.7188
678.0629, 885.1719
678.5450, 886.8164
679.0272, 892.8438
679.5093, 903.8164
679.9914, 906.4844
680.4735, 905.2461
680.9556, 904.1484
681.4377, 907.5742
681.9199, 913.1211
682.4020, 917.0352
682.8841, 930.9375
683.3662, 932.5352
683.8483, 870.8789
684.3304, 774.0898
684.8126, 717.0352
685.2947, 766.5469
685.7768, 830.7969
686.2589, 855.0703
686.7410, 842.5000
687.2231, 883.2969
687.7053, 1043.387
688.1874, 1184.273
688.6695, 1238.250
689.1516, 1195.555
689.6337, 1158.609
690.1158, 1125.852
690.5980, 1107.180
691.0801, 1115.031
691.5622, 1147.805
692.0443, 1195.695
692.5264, 1266.055
693.0085, 1332.844
693.4907, 1366.805
693.9728, 1378.492
694.4549, 1388.070
694.9370, 1368.922
695.4191, 1382.062
695.9012, 1485.898
696.3834, 1638.703
696.8655, 1710.867
697.3476, 1617.344
697.8297, 1565.328
698.3118, 1624.523
698.7939, 1775.156
699.2761, 1879.039
699.7582, 1938.555
700.2403, 1955.000
700.7224, 1904.727
701.2045, 1817.898
701.6866, 1774.836
702.1688, 1780.602
702.6509, 1810.055
703.1330, 1873.531
703.6151, 1936.312
704.0972, 1952.195
704.5793, 1868.820
705.0615, 1842.312
705.5436, 1979.602
706.0257, 2168.406
706.5078, 2270.016
706.9899, 2235.570
707.4720, 2206.375
707.9542, 2192.891
708.4363, 2198.742
708.9184, 2240.742
709.4005, 2318.562
709.8826, 2392.094
710.3647, 2447.070
710.8469, 2488.820
711.3290, 2527.242
711.8111, 2560.773
712.2932, 2576.477
712.7753, 2500.875
713.2574, 2455.719
713.7396, 2550.930
714.2217, 2773.859
714.7038, 2868.412
715.1859, 2941.594
715.6680, 2994.448
716.1501, 2972.082
716.6323, 3042.260
717.1144, 3072.533
717.5965, 3099.253
718.0786, 3176.711
718.5607, 3154.973
719.0428, 3227.580
719.5250, 3259.731
720.0071, 3307.469
720.4892, 3315.087
720.9713, 3332.474
721.4534, 3385.986
721.9355, 3416.378
722.4177, 3411.592
722.8998, 3448.420
723.3819, 3405.299
723.8640, 3428.572
724.3461, 3479.351
724.8282, 3466.450
725.3104, 3493.954
725.7925, 3423.352
726.2746, 3416.383
726.7567, 3431.008
727.2388, 3466.852
727.7209, 3511.797
728.2031, 3580.344
728.6852, 3646.766
729.1673, 3632.906
729.6494, 3538.508
730.1315, 3468.547
730.6136, 3531.289
731.0958, 3629.766
731.5779, 3680.117
732.0600, 3656.195
732.5421, 3625.039
733.0242, 3573.484
733.5063, 3536.922
733.9885, 3559.898
734.4706, 3686.711
734.9527, 3713.898
735.4348, 3594.031
735.9169, 3428.289
736.3990, 3378.836
736.8812, 3429.352
737.3633, 3490.203
737.8454, 3548.867
738.3275, 3584.289
738.8096, 3550.898
739.2917, 3477.492
739.7739, 3431.961
740.2560, 3493.406
740.7381, 3534.836
741.2202, 3483.445
741.7023, 3353.281
742.1844, 3277.438
742.6666, 3264.125
743.1487, 3289.773
743.6308, 3365.586
744.1129, 3480.594
744.5950, 3516.117
745.0771, 3468.617
745.5593, 3397.805
746.0414, 3351.000
746.5235, 3311.531
747.0056, 3248.836
747.4877, 3159.320
747.9698, 3074.336
748.4520, 2987.820
748.9341, 2929.391
749.4162, 2933.750
749.8983, 3080.430
750.3804, 3134.578
750.8625, 3034.922
751.3447, 2894.242
751.8268, 2838.914
752.3089, 2882.328
752.7910, 2894.062
753.2731, 2839.234
753.7552, 2784.422
754.2374, 2856.805
754.7195, 3012.180
755.2016, 3129.156
755.6837, 3160.422
756.1658, 3137.523
756.6479, 3044.250
757.1301, 2911.977
757.6122, 2820.102
758.0943, 2813.008
758.5764, 2820.570
759.0585, 2834.672
759.5406, 2851.914
760.0228, 2853.742
760.5049, 2842.758
760.9870, 2813.688
761.4691, 2759.023
761.9512, 2688.016
762.4333, 2621.633
762.9155, 2562.500
763.3976, 2528.297
763.8797, 2577.875
764.3618, 2627.789
764.8439, 2573.594
765.3260, 2397.641
765.8082, 2288.023
766.2903, 2365.078
766.7724, 2469.727
767.2545, 2509.828
767.7366, 2469.648
768.2188, 2413.508
768.7009, 2328.398
769.1830, 2257.500
769.6651, 2250.945
770.1472, 2297.219
770.6293, 2346.633
771.1115, 2397.336
771.5936, 2429.055
772.0757, 2404.695
772.5578, 2356.195
773.0399, 2326.719
773.5220, 2320.984
774.0042, 2342.164
774.4863, 2434.547
774.9684, 2538.906
775.4505, 2557.141
775.9326, 2431.344
776.4147, 2371.750
776.8969, 2437.820
777.3790, 2556.156
777.8611, 2549.156
778.3432, 2440.250
778.8253, 2386.461
779.3074, 2525.500
779.7896, 2668.438
780.2717, 2561.492
780.7538, 2291.484
781.2359, 2110.562
781.7180, 2209.875
782.2001, 2323.148
782.6823, 2322.211
783.1644, 2236.523
783.6465, 2266.102
784.1286, 2475.836
784.6107, 2607.852
785.0928, 2518.078
785.5750, 2269.422
786.0571, 2118.930
786.5392, 2058.211
787.0213, 2016.133
787.5034, 1929.859
787.9855, 1842.711
788.4677, 1800.945
788.9498, 1813.984
789.4319, 1869.719
789.9140, 2045.398
790.3961, 2190.641
790.8782, 2197.453
791.3604, 2014.609
791.8425, 1954.078
792.3246, 2068.773
792.8067, 2198.633
793.2888, 2179.266
793.7709, 2034.266
794.2531, 1916.633
794.7352, 1840.562
795.2173, 1819.625
795.6994, 1919.523
796.1815, 2047.180
796.6636, 2090.695
797.1458, 1985.734
797.6279, 1897.961
798.1100, 1901.977
798.5921, 1918.453
799.0742, 1858.453
799.5563, 1682.055
800.0385, 1561.578
800.5206, 1524.438
801.0027, 1537.141
801.4848, 1558.820
801.9669, 1580.562
802.4490, 1585.547
802.9312, 1581.969
803.4133, 1542.156
803.8954, 1385.672
804.3775, 1192.039
804.8596, 1085.672
805.3417, 1201.180
805.8239, 1285.984
806.3060, 1285.430
806.7881, 1235.219
807.2702, 1217.477
807.7523, 1243.719
808.2344, 1223.305
808.7166, 1112.227
809.1987, 962.5703
809.6808, 858.1953
810.1629, 797.9531
810.6450, 780.5234
811.1271, 860.4453
811.6093, 930.4062
812.0914, 896.6406
812.5735, 791.8438
813.0556, 747.4688
813.5377, 853.0078
814.0198, 927.1484
814.5020, 909.8203
814.9841, 825.9688
815.4662, 807.2266
815.9483, 859.0391
816.4304, 885.4297
816.9125, 810.7422
817.3947, 692.6641
817.8768, 633.2812
818.3589, 623.6719
818.8410, 606.1094
819.3231, 537.8516
819.8052, 467.0000
820.2874, 426.4141
820.7695, 418.0000
821.2516, 380.3594
821.7337, 276.8672
822.2158, 212.2891
822.6979, 259.0234
823.1801, 396.3828
823.6622, 445.7969
824.1443, 407.9375
824.6264, 373.8516
825.1085, 442.4141
825.5906, 530.3516
826.0727, 529.1094
826.5548, 431.2812
827.0369, 344.6875
827.5190, 298.1094
828.0012, 282.9141
828.4833, 308.3438
828.9654, 389.0781
829.4475, 372.7109
829.9296, 222.6172
830.4117, 95.82812
830.8939, 169.7031
831.3760, 362.1484
831.8581, 391.1797
832.3402, 237.0781
832.8223, 84.65625
833.3044, 75.45312
833.7866, 124.8828
834.2687, 172.4766
834.7508, 222.7891
835.2329, 214.6094
835.7150, 98.87500
836.1971, 20.14844
836.6793, 66.55469
837.1614, 34.39844
837.6435, 11.92188
838.1256, 76.96094
838.6077, 116.1641
839.0898, 59.60156
839.5720, 42.65625
840.0541, 119.7266
840.5362, 164.7188
841.0183, 158.6484
841.5004, 13.26562
841.9825, 134.3750
842.4647, 156.3281
842.9468, 27.42188
843.4289, 134.2344
843.9110, 152.0000
844.3931, 122.2891
844.8752, 58.03906
845.3574, 23.53906
845.8395, 28.57031
846.3216, 61.76562
846.8037, 172.8203
847.2858, 260.6328
847.7679, 321.8672
848.2501, 346.5391
848.7322, 302.0703
849.2143, 290.0469
849.6964, 366.3672
850.1785, 439.0469
850.6606, 410.2422
851.1428, 262.3672
851.6249, 170.7344
852.1070, 158.9375
852.5891, 167.0625
853.0712, 120.5703
853.5533, 47.72656
854.0355, 3.070313
854.5176, 6.765625
854.9997, 14.50000
855.4818, 26.73438
855.9639, 20.96094
856.4460, 34.20312
856.9282, 200.1562
857.4103, 266.6250
857.8924, 193.2344
858.3745, 92.96875
858.8566, 115.6719
859.3387, 235.0938
859.8209, 318.2656
860.3030, 336.3203
860.7851, 338.7891
861.2672, 359.7734
861.7493, 398.5312
862.2314, 451.2891
862.7136, 498.9844
863.1957, 596.6328
863.6778, 779.9141
864.1599, 982.9688
864.6420, 1136.297
865.1241, 1233.289
865.6063, 1378.828
866.0884, 1585.773
866.5705, 1798.383
867.0526, 1947.344
867.5347, 2068.961
868.0168, 2222.078
868.4990, 2423.727
868.9811, 2632.023
869.4632, 2844.234
869.9453, 3058.562
870.4274, 3266.531
870.9095, 3445.797
871.3917, 3733.680
871.8738, 4156.914
872.3559, 4596.578
872.8380, 4906.781
873.3201, 5127.719
873.8022, 5379.211
874.2844, 5676.117
874.7665, 6019.648
875.2486, 6484.109
875.7307, 6957.672
876.2128, 7322.406
876.6949, 7443.547
877.1771, 7678.531
877.6592, 8071.867
878.1413, 8505.547
878.6234, 8891.156
879.1055, 9235.039
879.5876, 9511.797
880.0698, 9708.477
880.5519, 9860.094
881.0340, 10000.59
881.5161, 10134.87
881.9982, 10280.47
882.4803, 10468.75
882.9625, 10577.30
883.4446, 10559.11
883.9267, 10480.30
884.4088, 10381.88
884.8909, 10266.10
885.3730, 10110.12
885.8552, 9909.180
886.3373, 9685.133
886.8194, 9444.672
887.3015, 9197.477
887.7836, 8974.328
888.2657, 8783.898
888.7479, 8539.164
889.2300, 8179.914
889.7121, 7768.383
890.1942, 7330.906
890.6763, 6853.453
891.1584, 6463.242
891.6406, 6178.367
892.1227, 5910.680
892.6048, 5590.672
893.0869, 5236.148
893.5690, 4868.656
894.0511, 4488.453
894.5333, 4158.375
895.0154, 3952.469
895.4975, 3783.180
895.9796, 3593.047
896.4617, 3374.297
896.9438, 3145.734
897.4260, 2884.922
897.9081, 2646.906
898.3902, 2473.656
898.8723, 2357.344
899.3544, 2262.086
899.8365, 2181.773
900.3187, 2078.227
900.8008, 1865.172
901.2829, 1656.352
901.7650, 1559.586
902.2471, 1577.727
902.7292, 1602.953
903.2114, 1644.234
903.6935, 1650.625
904.1756, 1573.250
904.6577, 1437.617
905.1398, 1417.344
905.6219, 1505.672
906.1041, 1569.820
906.5862, 1490.914
907.0683, 1385.375
907.5504, 1385.133
908.0325, 1459.641
908.5146, 1483.758
908.9968, 1429.656
909.4789, 1313.656
909.9610, 1086.188
910.4431, 809.9844
910.9252, 751.3906
911.4073, 916.3984
911.8895, 1019.969
912.3716, 919.4531
912.8537, 738.8281
913.3358, 627.6797
913.8179, 565.6797
914.3000, 504.6328
914.7822, 420.7109
915.2643, 349.0000
915.7464, 298.3672
916.2285, 257.3203
916.7106, 205.1016
917.1927, 138.8438
917.6749, 123.0703
918.1570, 185.0000
918.6391, 261.9062
919.1212, 263.3906
919.6033, 217.8594
920.0854, 180.2188
920.5676, 181.5703
921.0497, 167.4375
921.5318, 115.6641
922.0139, 42.12500
922.4960, 44.74219
922.9781, 158.6016
923.4603, 213.3984
923.9424, 190.8516
924.4245, 140.8750
924.9066, 133.4375
925.3887, 141.0000
925.8708, 107.3906
926.3530, 134.7241
926.8351, 75.30469
927.3172, 133.3828
927.7993, 136.9766
928.2814, 48.14062
928.7635, 176.3828
929.2457, 302.2344
929.7278, 317.6641
930.2099, 285.6641
930.6920, 244.4766
931.1741, 199.6250
931.6563, 147.8516
932.1384, 89.50781
932.6205, 70.99219
933.1026, 156.0547
933.5847, 250.8203
934.0668, 302.5000
934.5490, 310.7656
935.0311, 269.0547
935.5132, 157.6484
935.9953, 74.60156
936.4774, 126.1797
936.9595, 229.6719
937.4417, 159.2734
937.9238, 48.11719
938.4059, 219.3672
938.8880, 218.2500
939.3701, 198.1719
939.8522, 234.6250
940.3344, 312.3984
940.8165, 365.2812
941.2986, 380.9141
941.7807, 419.1641
942.2628, 517.1641
942.7449, 629.4922
943.2271, 635.6797
943.7092, 580.2266
944.1913, 582.5391
944.6734, 748.2422
945.1555, 920.3125
945.6376, 1047.852
946.1198, 1137.219
946.6019, 1199.680
947.0840, 1220.211
947.5661, 1258.414
948.0482, 1322.930
948.5303, 1401.992
949.0125, 1486.109
949.4946, 1571.156
949.9767, 1646.055
950.4588, 1703.047
950.9409, 1768.188
951.4230, 1845.852
951.9052, 1946.609
952.3873, 2086.297
952.8694, 2289.820
953.3515, 2438.477
953.8336, 2522.391
954.3157, 2584.219
954.7979, 2648.750
955.2800, 2719.883
955.7621, 2809.227
956.2442, 2916.758
956.7263, 3015.711
957.2084, 3097.219
957.6906, 3160.508
958.1727, 3204.500
958.6548, 3227.977
959.1369, 3242.766
959.6190, 3249.195
960.1011, 3247.086
960.5833, 3239.320
961.0654, 3222.312
961.5475, 3171.672
962.0296, 3104.570
962.5117, 3080.203
962.9938, 3211.461
963.4760, 3288.945
963.9581, 3215.484
964.4402, 3050.641
964.9223, 2931.695
965.4044, 2865.578
965.8865, 2773.453
966.3687, 2624.648
966.8508, 2465.008
967.3329, 2349.547
967.8150, 2266.617
968.2971, 2198.008
968.7792, 2163.367
969.2614, 2101.141
969.7435, 1993.250
970.2256, 1858.672
970.7077, 1704.023
971.1898, 1527.672
971.6719, 1381.008
972.1541, 1267.297
972.6362, 1190.766
973.1183, 1190.984
973.6004, 1209.984
974.0825, 1170.539
974.5646, 1051.023
975.0468, 970.2266
975.5289, 981.3438
976.0110, 999.4062
976.4931, 977.4219
976.9752, 920.8281
977.4573, 913.7188
977.9395, 951.6094
978.4216, 961.6484
978.9037, 873.1641
979.3858, 759.2031
979.8679, 690.9141
980.3500, 652.8672
980.8322, 574.8594
981.3143, 377.4609
981.7964, 289.5703
982.2785, 404.1562
982.7606, 598.9375
983.2427, 597.0391
983.7249, 443.1719
984.2070, 333.9922
984.6891, 339.2812
985.1712, 367.2344
985.6533, 346.8281
986.1354, 309.5703
986.6176, 292.9297
987.0997, 320.0391
987.5818, 343.3906
988.0639, 370.1328
988.5460, 383.4531
989.0281, 353.6406
989.5103, 301.4219
989.9923, 280.5547
990.4744, 294.7422
990.9565, 315.3125
991.4387, 312.7643
991.9208, 347.0833
992.4029, 365.4013
992.8850, 368.7606
993.3671, 302.2769
993.8492, 333.6921
994.3314, 330.5906
994.8135, 329.2986
995.2956, 384.1169
995.7777, 345.1100
996.2598, 405.8234
996.7419, 431.4363
997.2241, 478.0287
997.7062, 489.8574
998.1883, 516.8293
998.6704, 585.2979
999.1525, 636.0188
999.6346, 656.9203
1000.117, 646.0703
1000.599, 793.9219
1001.081, 959.0312
1001.563, 1036.406
1002.045, 1049.500
1002.527, 1012.992
1003.009, 878.7656
1003.492, 849.1797
1003.974, 982.4844
1004.456, 1143.031
1004.938, 1235.969
1005.420, 1268.234
1005.902, 1314.516
1006.384, 1371.984
1006.866, 1414.664
1007.349, 1393.570
1007.831, 1379.047
1008.313, 1447.516
1008.795, 1577.906
1009.277, 1612.281
1009.759, 1507.336
1010.241, 1439.562
1010.723, 1476.680
1011.205, 1558.336
1011.688, 1577.078
1012.170, 1550.555
1012.652, 1514.305
1013.134, 1460.242
1013.616, 1438.016
1014.098, 1475.273
1014.580, 1550.328
1015.062, 1650.367
1015.544, 1782.117
1016.027, 1870.070
1016.509, 1903.969
1016.991, 1941.312
1017.473, 2041.352
1017.955, 2168.672
1018.437, 2277.070
1018.919, 2360.477
1019.401, 2473.031
1019.884, 2658.617
1020.366, 2823.227
1020.848, 2923.781
1021.330, 2980.602
1021.812, 3079.883
1022.294, 3212.422
1022.776, 3319.953
1023.258, 3357.656
1023.740, 3385.234
1024.223, 3461.164
1024.705, 3551.766
1025.187, 3586.367
1025.669, 3520.547
1026.151, 3518.711
1026.633, 3603.344
1027.115, 3733.648
1027.597, 3867.641
1028.080, 4009.547
1028.562, 4171.531
1029.044, 4357.305
1029.526, 4525.961
1030.008, 4662.992
1030.490, 4769.406
1030.972, 4826.914
1031.454, 4809.777
1031.937, 4949.707
1032.419, 5070.052
1032.901, 5172.097
1033.383, 5200.933
1033.865, 5324.277
1034.347, 5409.760
1034.829, 5493.666
1035.311, 5630.338
1035.793, 5669.794
1036.276, 5805.823
1036.758, 5903.194
1037.240, 6018.144
1037.722, 6094.999
1038.204, 6128.367
1038.686, 6172.422
1039.168, 6205.656
1039.650, 6234.539
1040.132, 6260.336
1040.615, 6286.711
1041.097, 6319.367
1041.579, 6357.859
1042.061, 6394.094
1042.543, 6428.734
1043.025, 6447.891
1043.507, 6481.750
1043.989, 6467.680
1044.472, 6246.164
1044.954, 5899.711
1045.436, 5674.492
1045.918, 5782.680
1046.400, 5836.289
1046.882, 5766.312
1047.364, 5627.523
1047.846, 5490.297
1048.328, 5360.602
1048.811, 5287.953
1049.293, 5295.969
1049.775, 5267.445
1050.257, 5054.602
1050.739, 4812.312
1051.221, 4672.992
1051.703, 4643.867
1052.185, 4686.672
1052.667, 4830.617
1053.150, 4902.477
1053.632, 4737.227
1054.114, 4472.969
1054.596, 4344.969
1055.078, 4321.773
1055.560, 4302.805
1056.042, 4240.734
1056.524, 4198.961
1057.007, 4211.578
1057.489, 4230.492
1057.971, 4172.609
1058.453, 4047.930
1058.935, 3926.070
1059.417, 3818.234
1059.899, 3727.719
1060.381, 3661.766
1060.864, 3611.438
1061.346, 3565.375
1061.828, 3519.031
1062.310, 3516.391
1062.792, 3573.617
1063.274, 3593.023
1063.756, 3495.102
1064.238, 3345.461
1064.720, 3262.102
1065.203, 3226.711
1065.685, 3192.195
1066.167, 3154.070
1066.649, 3098.750
1067.131, 3026.758
1067.613, 2938.008
1068.095, 2809.367
1068.577, 2654.320
1069.059, 2607.773
1069.542, 2700.016
1070.024, 2750.461
1070.506, 2536.812
1070.988, 2300.094
1071.470, 2244.750
1071.952, 2376.859
1072.434, 2478.195
1072.916, 2545.055
1073.398, 2594.188
1073.881, 2629.797
1074.363, 2651.758
1074.845, 2636.984
1075.327, 2609.477
1075.809, 2618.086
1076.291, 2752.711
1076.773, 2807.047
1077.255, 2722.266
1077.738, 2600.953
1078.220, 2542.602
1078.702, 2540.523
1079.184, 2585.586
1079.666, 2676.516
1080.148, 2738.930
1080.630, 2733.508
1081.112, 2671.594
1081.594, 2538.016
1082.077, 2358.086
1082.559, 2244.656
1083.041, 2203.969
1083.523, 2134.086
1084.005, 1993.039
1084.487, 1858.312
1084.969, 1862.047
1085.451, 1928.594
1085.933, 1937.891
1086.416, 1770.938
1086.898, 1758.867
1087.380, 1995.625
1087.862, 2219.711
1088.344, 2179.305
1088.826, 1962.195
1089.308, 1862.008
1089.790, 1864.422
1090.273, 1820.117
1090.755, 1517.297
1091.237, 1304.227
1091.719, 1379.938
1092.201, 1609.008
1092.683, 1699.047
1093.165, 1651.867
1093.647, 1575.664
1094.130, 1484.812
1094.612, 1414.555
1095.094, 1430.656
1095.576, 1466.836
1096.058, 1442.477
1096.540, 1329.508
1097.022, 1318.406
1097.504, 1435.641
1097.986, 1501.500
1098.469, 1377.695
1098.951, 1181.445
1099.433, 1128.117
1099.915, 1177.180
1100.397, 1221.828
1100.879, 1177.461
1101.361, 1214.898
1101.843, 1401.523
1102.325, 1587.172
1102.808, 1561.367
1103.290, 1374.102
1103.772, 1256.148
1104.254, 1231.883
1104.736, 1213.555
1105.218, 1146.031
1105.700, 1060.188
1106.182, 983.0469
1106.665, 913.9922
1107.147, 829.9375
1107.629, 731.8438
1108.111, 666.5078
1108.593, 662.8672
1109.075, 671.1328
1109.557, 642.4922
1110.039, 597.3125
1110.521, 562.3828
1111.004, 536.1953
1111.486, 542.4531
1111.968, 597.6484
1112.450, 641.6406
1112.932, 598.6094
1113.414, 513.6094
1113.896, 514.0703
1114.378, 580.7188
1114.860, 604.5234
1115.343, 465.4766
1115.825, 384.6875
1116.307, 429.6562
1116.789, 526.1250
1117.271, 523.6484
1117.753, 455.3906
1118.235, 483.8984
1118.717, 644.5391
1119.200, 794.3438
1119.682, 851.7031
1120.164, 860.6406
1120.646, 853.5078
1121.128, 830.8906
1121.610, 764.9062
1122.092, 653.3203
1122.574, 563.8203
1123.057, 562.9375
1123.539, 553.5781
1124.021, 386.4297
1124.503, 171.5156
1124.985, 96.07031
1125.467, 249.5234
1125.949, 322.2344
1126.431, 303.5312
1126.913, 240.2969
1127.396, 120.0312
1127.878, 14.07031
1128.360, 61.93750
1128.842, 238.4531
1129.324, 360.2031
1129.806, 333.4766
1130.288, 295.9688
1130.770, 276.9688
1131.252, 252.2969
1131.735, 154.9141
1132.217, 19.73438
1132.699, 54.69531
1133.181, 49.17969
1133.663, 4.375000
1134.145, 134.7109
1134.627, 231.7109
1135.109, 194.6641
1135.592, 49.52344
1136.074, 10.40625
1136.556, 5.023438
1137.038, 2.421875
1137.520, 125.9531
1138.002, 213.3672
1138.484, 86.64844
1138.966, 87.42969
1139.448, 61.74219
1139.931, 243.9219
1140.413, 291.6328
1140.895, 45.38281
1141.377, 169.7422
1141.859, 14.57031
1142.341, 225.0703
1142.823, 282.7188
1143.305, 176.7266
1143.787, 68.10156
1144.270, 45.56250
1144.752, 18.56930
1145.234, 95.27344
1145.716, 60.30469
1146.198, 78.61719
1146.680, 127.8750
1147.162, 170.5547
1147.644, 198.9219
1148.127, 224.7578
1148.609, 264.0859
1149.091, 279.1016
1149.573, 252.1016
1150.055, 194.8906
1150.537, 113.2344
1151.019, 26.54688
1151.501, 12.71875
1151.984, 45.27344
1152.466, 99.82812
1152.948, 165.5234
1153.430, 176.4609
1153.912, 18.43750
1154.394, 273.6562
1154.876, 303.3750
1155.358, 94.26562
1155.840, 89.75000
1156.323, 64.54688
1156.805, 6.140625
1157.287, 24.85938
1157.769, 53.06250
1158.251, 60.92969
1158.733, 314.5312
1159.215, 410.1250
1159.697, 293.8516
1160.179, 156.0781
1160.662, 150.5547
1161.144, 186.1328
1161.626, 206.3516
1162.108, 202.0625
1162.590, 202.3260
1163.072, 195.0568
1163.554, 156.8672
1164.036, 154.5859
1164.519, 106.1641
1165.001, 56.89062
1165.483, 22.28906
1165.965, 28.67969
1166.447, 92.39062
1166.929, 141.1016
1167.411, 172.2422
1167.893, 195.2031
1168.375, 233.5859
1168.858, 253.8047
1169.340, 168.3359
1169.822, 26.91406
1170.304, 51.94531
1170.786, 27.82031
1171.268, 75.28906
1171.750, 79.46875
1172.232, 62.33594
1172.714, 41.52344
1173.197, 18.24219
1173.679, 7.414063
1174.161, 34.41406
1174.643, 59.85156
1175.125, 109.6250
1175.607, 125.6016
1176.089, 98.50000
1176.571, 30.44531
1177.054, 114.1172
1177.536, 288.2422
1178.018, 351.2344
1178.500, 266.0391
1178.982, 195.8516
1179.464, 250.1562
1179.946, 289.2734
1180.428, 245.8281
1180.911, 144.1016
1181.393, 58.12500
1181.875, 5.070313
1182.357, 20.51562
1182.839, 44.51562
1183.321, 108.6484
1183.803, 151.3750
1184.285, 160.4297
1184.767, 119.8672
1185.250, 146.8806
1185.732, 47.31250
1186.214, 116.5391
1186.696, 136.3125
1187.178, 59.14062
1187.660, 47.55469
1188.142, 188.1016
1188.624, 314.5234
1189.106, 351.0000
1189.589, 292.4297
1190.071, 247.6797
1190.553, 222.2891
1191.035, 206.1016
1191.517, 172.3359
1191.999, 159.8828
1192.481, 203.1172
1192.963, 289.0625
1193.446, 392.4453
1193.928, 519.7500
1194.410, 580.5234
1194.892, 552.9062
1195.374, 480.8438
1195.856, 367.6719
1196.338, 267.2969
1196.820, 230.9141
1197.302, 259.2344
1197.785, 290.7422
1198.267, 335.2031
1198.749, 355.0000
1199.231, 320.1094
1199.713, 267.5156
1200.195, 221.9688
1200.677, 184.9062
1201.159, 151.0625
1201.641, 101.2266
1202.124, 155.0703
1202.606, 329.6016
1203.088, 464.8281
1203.570, 407.5156
1204.052, 316.8672
1204.534, 405.6797
1205.016, 600.1250
1205.498, 751.0234
1205.981, 855.7891
1206.463, 866.1484
1206.945, 768.0391
1207.427, 646.9141
1207.909, 558.3516
1208.391, 500.9141
1208.873, 485.0234
1209.355, 499.9922
1209.838, 505.1406
1210.320, 479.6250
1210.802, 482.5312
1211.284, 528.2422
1211.766, 573.9609
1212.248, 552.3828
1212.730, 503.0312
1213.212, 469.1797
1213.694, 449.9531
1214.177, 464.1172
1214.659, 529.9531
1215.141, 582.2656
1215.623, 603.3359
1216.105, 606.5234
1216.587, 607.2109
1217.069, 607.2266
1217.551, 622.9688
1218.033, 667.2266
1218.516, 628.0469
1218.998, 467.0703
1219.480, 306.3516
1219.962, 181.9531
1220.444, 113.1953
1220.926, 164.0078
1221.408, 276.9688
1221.890, 354.6797
1222.373, 345.3594
1222.855, 377.6953
1223.337, 478.5859
1223.819, 561.4766
1224.301, 561.2578
1224.783, 514.1406
1225.265, 475.3516
1225.747, 447.4062
1226.229, 435.8359
1226.712, 448.3203
1227.194, 471.3594
1227.676, 507.2578
1228.158, 533.8750
1228.640, 535.2109
1229.122, 525.5547
1229.604, 532.9062
1230.086, 553.5938
1230.568, 574.4297
1231.051, 625.2188
1231.533, 603.9531
1232.015, 473.7500
1232.497, 340.5312
1232.979, 364.5781
1233.461, 448.6641
1233.943, 396.1016
1234.425, 217.0703
1234.908, 181.4844
1235.390, 423.2812
1235.872, 595.4531
1236.354, 618.6797
1236.836, 568.1875
1237.318, 492.4766
1237.800, 448.4531
1238.282, 568.2109
1238.764, 878.1328
1239.247, 1037.734
1239.729, 965.8828
1240.211, 865.3672
1240.693, 780.0391
1241.175, 747.5625
1241.657, 889.1953
1242.139, 1097.570
1242.621, 1210.680
1243.104, 1170.602
1243.586, 1135.312
1244.068, 1129.109
1244.550, 1084.422
1245.032, 952.0469
1245.514, 804.7969
1245.996, 756.0781
1246.478, 769.7188
1246.960, 782.7578
1247.443, 776.2422
1247.925, 801.9922
1248.407, 842.4766
1248.889, 869.4688
1249.371, 850.5703
1249.853, 830.9062
1250.335, 870.5312
1250.817, 938.6641
1251.299, 992.8594
1251.782, 1030.812
1252.264, 1070.266
1252.746, 1104.969
1253.228, 1125.914
1253.710, 1170.195
1254.192, 1190.430
1254.674, 1033.523
1255.156, 782.4688
1255.639, 663.7578
1256.121, 716.7812
1256.603, 764.7031
1257.085, 797.4766
1257.567, 818.9844
1258.049, 830.7578
1258.531, 829.5391
1259.013, 779.0234
1259.495, 701.4844
1259.978, 699.4141
1260.460, 778.2500
1260.942, 936.3594
1261.424, 1195.547
1261.906, 1374.094
1262.388, 1143.938
1262.870, 855.6797
1263.352, 883.3906
1263.834, 1160.953
1264.317, 1284.133
1264.799, 1246.531
1265.281, 1218.352
1265.763, 1247.008
1266.245, 1243.141
1266.727, 1085.133
1267.209, 904.2266
1267.691, 811.4141
1268.174, 795.1406
1268.656, 779.4688
1269.138, 760.9766
1269.620, 764.5078
1270.102, 784.6328
1270.584, 819.7891
1271.066, 886.2656
1271.548, 889.4531
1272.031, 761.2656
1272.513, 536.1250
1272.995, 411.7031
1273.477, 383.8750
1273.959, 413.6172
1274.441, 493.7734
1274.923, 581.6328
1275.405, 593.1562
1275.887, 666.2422
1276.370, 952.0547
1276.852, 1370.172
1277.334, 1441.961
1277.816, 1244.586
1278.298, 1138.008
1278.780, 1367.391
1279.262, 1512.164
1279.744, 1401.336
1280.226, 1251.703
1280.709, 1249.867
1281.191, 1155.400
1281.673, 1074.122
1282.155, 1098.320
1282.637, 978.7656
1283.119, 1017.602
1283.601, 1102.414
1284.083, 1236.094
1284.566, 1342.547
1285.048, 1355.930
1285.530, 1290.453
1286.012, 1159.555
1286.494, 982.4531
1286.976, 839.8984
1287.458, 746.0703
1287.940, 716.4375
1288.422, 763.4297
1288.905, 827.0000
1289.387, 882.7812
1289.869, 910.9766
1290.351, 854.1484
1290.833, 734.3750
1291.315, 654.4219
1291.797, 645.2031
1292.279, 582.8203
1292.761, 440.7266
1293.244, 327.5391
1293.726, 383.8281
1294.208, 487.3281
1294.690, 533.2656
1295.172, 520.5078
1295.654, 470.0156
1296.136, 370.2812
1296.618, 358.3516
1297.101, 459.4062
1297.583, 555.0234
1298.065, 546.0859
1298.547, 495.5391
1299.029, 418.8672
1299.511, 336.6719
1299.993, 333.5156
1300.475, 403.2188
1300.958, 393.6406
1301.440, 268.2344
1301.922, 134.4844
1302.404, 29.29688
1302.886, 17.58594
1303.368, 35.58594
1303.850, 129.1406
1304.332, 82.64844
1304.814, 0.0000000E+00
##END=



