##NAMES=Lenoblite
##RRUFFID=R060761
##IDEAL CHEMISTRY=V^4+^_2_O_4_&#183;2H_2_O
##LOCALITY=Clara mine, Schwarzwald, Germany
##OWNER=RRUFF
##SOURCE=Michael Scott
##DESCRIPTION=Gray granular crust
##STATUS=The identification of this mineral is not yet confirmed.
##URL=rruff.info/R060761
135.0220, 0.0000000E+00
135.5041, 0.9897460
135.9862, 1.105957
136.4683, 21.79102
136.9505, 38.28906
137.4326, 45.71729
137.9147, 45.16943
138.3968, 51.50830
138.8789, 72.54297
139.3610, 96.15186
139.8432, 127.3091
140.3253, 122.0503
140.8074, 101.6323
141.2895, 87.15381
141.7716, 79.91406
142.2537, 72.25537
142.7359, 62.27539
143.2180, 33.79590
143.7001, 9.899414
144.1822, 13.37451
144.6643, 26.49756
145.1464, 24.84912
145.6286, 0.7011720
146.1107, 21.87842
146.5928, 40.10010
147.0749, 53.86279
147.5570, 56.09375
148.0391, 39.91260
148.5213, 18.43652
149.0034, 2.136230
149.4855, 35.51318
149.9676, 51.17676
150.4497, 37.72461
150.9318, 3.386719
151.4140, 31.93311
151.8961, 38.79443
152.3782, 39.50732
152.8603, 45.34717
153.3424, 56.86084
153.8245, 74.89307
154.3067, 102.6323
154.7888, 142.5645
155.2709, 178.8193
155.7530, 211.0391
156.2351, 237.8047
156.7172, 256.9536
157.1993, 237.2603
157.6815, 235.4819
158.1636, 281.7871
158.6457, 401.6870
159.1278, 502.1284
159.6099, 537.1294
160.0920, 535.0840
160.5742, 547.4038
161.0563, 598.4692
161.5384, 663.4907
162.0205, 727.9395
162.5026, 785.6826
162.9847, 847.5210
163.4669, 919.8862
163.9490, 1000.125
164.4311, 1078.608
164.9132, 1137.512
165.3953, 1199.104
165.8774, 1282.476
166.3596, 1398.184
166.8417, 1532.664
167.3238, 1678.849
167.8059, 1836.120
168.2880, 2009.588
168.7701, 2185.819
169.2523, 2383.929
169.7344, 2629.520
170.2165, 2939.489
170.6986, 3293.799
171.1807, 3675.914
171.6628, 4081.720
172.1450, 4524.196
172.6271, 5035.813
173.1092, 5588.493
173.5913, 6137.725
174.0734, 6671.392
174.5555, 7188.125
175.0377, 7676.602
175.5198, 8138.424
176.0019, 8581.971
176.4840, 9008.446
176.9661, 9422.680
177.4482, 9854.685
177.9303, 10313.92
178.4125, 10801.25
178.8946, 11336.65
179.3767, 11944.65
179.8588, 12560.16
180.3409, 13201.44
180.8230, 13842.46
181.3052, 14283.55
181.7873, 14433.99
182.2694, 14285.79
182.7515, 13793.55
183.2336, 12869.69
183.7157, 11683.43
184.1979, 10481.60
184.6800, 9265.867
185.1621, 8146.262
185.6442, 7191.020
186.1263, 6403.144
186.6084, 5756.105
187.0906, 5270.063
187.5727, 4915.130
188.0548, 4632.639
188.5369, 4423.865
189.0190, 4277.115
189.5011, 4196.077
189.9833, 4175.976
190.4654, 4172.643
190.9475, 4176.623
191.4296, 4186.165
191.9117, 4190.057
192.3938, 4186.401
192.8760, 4179.073
193.3581, 4186.548
193.8402, 4209.049
194.3223, 4236.197
194.8044, 4264.616
195.2865, 4294.341
195.7687, 4323.805
196.2508, 4353.153
196.7329, 4383.515
197.2150, 4421.220
197.6971, 4468.054
198.1792, 4507.027
198.6613, 4521.365
199.1435, 4509.694
199.6256, 4525.500
200.1077, 4581.509
200.5898, 4655.174
201.0719, 4692.969
201.5540, 4686.971
202.0362, 4677.648
202.5183, 4693.480
203.0004, 4738.984
203.4825, 4772.708
203.9646, 4786.640
204.4467, 4785.828
204.9289, 4788.792
205.4110, 4797.486
205.8931, 4802.813
206.3752, 4798.917
206.8573, 4785.540
207.3394, 4764.756
207.8216, 4745.163
208.3037, 4720.479
208.7858, 4643.532
209.2679, 4498.121
209.7500, 4333.557
210.2321, 4194.344
210.7143, 4094.164
211.1964, 3974.325
211.6785, 3814.587
212.1606, 3618.947
212.6427, 3460.214
213.1248, 3345.487
213.6070, 3254.666
214.0891, 3173.918
214.5712, 3116.604
215.0533, 3029.368
215.5354, 2890.008
216.0175, 2695.077
216.4997, 2531.701
216.9818, 2407.971
217.4639, 2308.628
217.9460, 2219.780
218.4281, 2147.326
218.9102, 2072.071
219.3923, 1982.360
219.8745, 1872.767
220.3566, 1797.920
220.8387, 1764.101
221.3208, 1760.664
221.8029, 1773.253
222.2850, 1802.862
222.7672, 1846.149
223.2493, 1899.356
223.7314, 1958.680
224.2135, 2042.645
224.6956, 2137.713
225.1777, 2266.856
225.6599, 2474.198
226.1420, 2759.284
226.6241, 3119.978
227.1062, 3561.847
227.5883, 4119.129
228.0704, 4671.685
228.5526, 5241.351
229.0347, 5799.595
229.5168, 6296.138
229.9989, 6703.618
230.4810, 7099.516
230.9632, 7514.471
231.4453, 7962.663
231.9274, 8405.088
232.4095, 8827.172
232.8916, 9246.838
233.3737, 9710.818
233.8559, 10217.99
234.3380, 10768.76
234.8201, 11373.98
235.3022, 12054.76
235.7843, 12753.62
236.2664, 13566.09
236.7486, 14398.27
237.2307, 14907.61
237.7128, 15212.50
238.1949, 15044.92
238.6770, 14206.12
239.1591, 12363.06
239.6412, 10536.74
240.1234, 8670.655
240.6055, 6831.305
241.0876, 5343.703
241.5697, 4275.475
242.0518, 3453.444
242.5339, 2788.847
243.0161, 2313.148
243.4982, 1933.458
243.9803, 1664.228
244.4624, 1490.834
244.9445, 1332.738
245.4266, 1197.058
245.9088, 1069.240
246.3909, 936.0947
246.8730, 775.1260
247.3551, 655.9336
247.8372, 595.7471
248.3193, 587.2246
248.8015, 573.3223
249.2836, 546.4473
249.7657, 524.7373
250.2478, 523.8457
250.7299, 559.4551
251.2120, 582.4414
251.6942, 580.7578
252.1763, 559.0049
252.6584, 557.1729
253.1405, 582.8076
253.6226, 619.3174
254.1047, 655.2725
254.5869, 690.8926
255.0690, 725.6074
255.5511, 760.3184
256.0332, 794.4658
256.5153, 822.7725
256.9974, 839.2227
257.4796, 857.4580
257.9617, 889.4775
258.4438, 940.2344
258.9259, 992.4873
259.4080, 1045.612
259.8901, 1098.989
260.3723, 1144.077
260.8544, 1180.186
261.3365, 1208.875
261.8186, 1234.918
262.3007, 1265.760
262.7828, 1273.441
263.2650, 1254.756
263.7471, 1209.555
264.2292, 1128.610
264.7113, 999.6494
265.1934, 855.0000
265.6755, 724.3438
266.1577, 607.1367
266.6398, 504.7812
267.1219, 420.2119
267.6040, 352.0029
268.0861, 293.0664
268.5682, 245.4014
269.0503, 202.3096
269.5324, 156.0596
270.0146, 102.0527
270.4967, 62.11621
270.9788, 45.57031
271.4609, 48.74512
271.9430, 37.98340
272.4251, 9.254883
272.9073, 23.96191
273.3894, 49.49609
273.8715, 67.40234
274.3536, 78.17773
274.8357, 80.59570
275.3178, 75.79980
275.8000, 70.96094
276.2821, 65.26855
276.7642, 62.20703
277.2463, 66.59473
277.7284, 79.42969
278.2105, 91.17383
278.6927, 100.7236
279.1748, 107.6973
279.6569, 109.7412
280.1390, 106.7402
280.6211, 99.45605
281.1032, 86.89355
281.5854, 69.17969
282.0675, 54.70410
282.5496, 47.38867
283.0317, 44.18750
283.5138, 33.20508
283.9959, 13.78711
284.4781, 11.25879
284.9602, 43.56055
285.4423, 82.72852
285.9244, 112.2266
286.4065, 128.9512
286.8886, 134.6855
287.3708, 128.1133
287.8529, 107.4487
288.3350, 94.19482
288.8171, 109.3950
289.2992, 150.5640
289.7813, 198.0269
290.2635, 251.8374
290.7456, 305.4038
291.2277, 339.6055
291.7098, 354.0723
292.1919, 367.2754
292.6740, 392.7388
293.1562, 429.2622
293.6383, 471.3438
294.1204, 515.6807
294.6025, 567.1011
295.0846, 638.6709
295.5667, 729.6606
296.0489, 824.7769
296.5310, 912.0132
297.0131, 994.0532
297.4952, 1075.722
297.9773, 1152.551
298.4594, 1235.816
298.9416, 1337.205
299.4237, 1457.118
299.9058, 1596.468
300.3879, 1755.824
300.8700, 1935.310
301.3521, 2130.085
301.8343, 2345.494
302.3164, 2569.161
302.7985, 2798.771
303.2806, 3029.183
303.7627, 3247.231
304.2448, 3420.997
304.7270, 3581.241
305.2091, 3771.945
305.6912, 4010.509
306.1733, 4259.927
306.6554, 4493.006
307.1375, 4710.153
307.6197, 4916.613
308.1018, 5130.692
308.5839, 5330.856
309.0660, 5494.622
309.5481, 5614.671
310.0302, 5712.402
310.5123, 5808.039
310.9944, 5893.141
311.4766, 5946.442
311.9587, 5974.084
312.4408, 5956.521
312.9229, 5871.283
313.4050, 5703.391
313.8871, 5509.655
314.3693, 5329.017
314.8514, 5138.840
315.3335, 4897.822
315.8156, 4549.807
316.2977, 4178.063
316.7798, 3818.356
317.2620, 3472.654
317.7441, 3155.627
318.2262, 2875.520
318.7083, 2624.689
319.1904, 2393.015
319.6725, 2158.917
320.1547, 1957.331
320.6368, 1807.430
321.1189, 1717.298
321.6010, 1634.411
322.0831, 1550.692
322.5652, 1466.630
323.0474, 1382.701
323.5295, 1298.541
324.0116, 1213.637
324.4937, 1121.532
324.9758, 1018.703
325.4579, 936.5137
325.9401, 897.7573
326.4222, 875.5776
326.9043, 846.6084
327.3864, 810.2344
327.8685, 766.1748
328.3506, 704.1577
328.8328, 624.6587
329.3149, 573.5889
329.7970, 574.0073
330.2791, 586.3369
330.7612, 582.8027
331.2433, 554.7358
331.7255, 523.2256
332.2076, 489.2822
332.6897, 453.6377
333.1718, 419.1890
333.6539, 384.6582
334.1360, 353.6631
334.6182, 328.8208
335.1003, 313.5625
335.5824, 295.2632
336.0645, 271.5225
336.5466, 244.5239
337.0287, 220.0747
337.5109, 196.6216
337.9930, 179.3794
338.4751, 172.1353
338.9572, 176.8989
339.4393, 182.1299
339.9214, 187.9395
340.4036, 192.4595
340.8857, 189.7480
341.3678, 177.8115
341.8499, 171.5635
342.3320, 178.3091
342.8141, 197.5073
343.2963, 223.5117
343.7784, 257.4688
344.2605, 296.3608
344.7426, 337.1982
345.2247, 379.9985
345.7068, 423.3716
346.1890, 465.4863
346.6711, 507.3350
347.1532, 556.9180
347.6353, 615.7788
348.1174, 671.2534
348.5995, 703.4604
349.0817, 718.2466
349.5638, 740.4604
350.0459, 783.1914
350.5280, 838.0342
351.0101, 887.9795
351.4922, 931.9219
351.9743, 979.0601
352.4565, 1042.135
352.9386, 1113.945
353.4207, 1181.423
353.9028, 1251.564
354.3849, 1306.539
354.8670, 1329.276
355.3492, 1319.563
355.8313, 1279.963
356.3134, 1206.005
356.7955, 1107.042
357.2776, 991.9365
357.7597, 855.9995
358.2419, 717.8306
358.7240, 580.2178
359.2061, 448.3882
359.6882, 338.4209
360.1703, 262.2104
360.6524, 207.7373
361.1346, 169.7017
361.6167, 155.4854
362.0988, 137.9258
362.5809, 98.43945
363.0630, 49.43311
363.5451, 13.69873
364.0273, 1.303711
364.5094, 0.3925780
364.9915, 10.54834
365.4736, 37.91406
365.9557, 52.23096
366.4378, 39.54395
366.9200, 14.53955
367.4021, 5.161621
367.8842, 10.57520
368.3663, 17.80420
368.8484, 32.01514
369.3305, 54.63037
369.8127, 71.45020
370.2948, 84.08154
370.7769, 90.08594
371.2590, 86.66602
371.7411, 67.24463
372.2232, 49.69189
372.7054, 35.83936
373.1875, 25.78076
373.6696, 20.09717
374.1517, 19.76758
374.6338, 22.68457
375.1159, 25.99854
375.5981, 26.87061
376.0802, 42.75195
376.5623, 84.56592
377.0444, 135.6748
377.5265, 145.4629
378.0086, 105.6597
378.4908, 65.15869
378.9729, 54.02051
379.4550, 71.28076
379.9371, 78.65625
380.4192, 73.90674
380.9013, 60.78174
381.3835, 46.05811
381.8656, 29.14014
382.3477, 2.087402
382.8298, 50.56152
383.3119, 116.0308
383.7940, 147.9365
384.2762, 143.5938
384.7583, 137.0625
385.2404, 167.1064
385.7225, 222.0439
386.2046, 270.8843
386.6867, 296.2832
387.1689, 315.6680
387.6510, 347.9443
388.1331, 392.3184
388.6152, 446.0879
389.0973, 515.4570
389.5794, 589.3340
390.0616, 654.4849
390.5437, 704.1304
391.0258, 751.9517
391.5079, 810.5122
391.9900, 874.9990
392.4721, 933.3184
392.9542, 982.1895
393.4363, 1021.479
393.9185, 1049.812
394.4006, 1065.583
394.8827, 1076.180
395.3648, 1084.722
395.8469, 1089.320
396.3290, 1087.235
396.8112, 1077.304
397.2933, 1061.323
397.7754, 1039.585
398.2575, 1011.817
398.7396, 978.5254
399.2217, 937.6890
399.7039, 891.9258
400.1860, 843.6533
400.6681, 794.4722
401.1502, 740.4795
401.6323, 675.0332
402.1144, 601.9175
402.5966, 549.8745
403.0787, 538.3789
403.5608, 519.5771
404.0429, 462.3013
404.5250, 355.0312
405.0071, 246.5801
405.4893, 130.5405
405.9714, 22.77490
406.4535, 41.02588
406.9356, 53.66553
407.4177, 61.50439
407.8998, 92.13721
408.3820, 142.9165
408.8641, 166.1743
409.3462, 158.2295
409.8283, 136.1123
410.3104, 114.2769
410.7925, 94.22266
411.2747, 85.52393
411.7568, 102.4761
412.2389, 126.9883
412.7210, 119.5659
413.2031, 80.77490
413.6852, 36.78857
414.1674, 7.937012
414.6495, 12.87549
415.1316, 39.12891
415.6137, 80.67578
416.0958, 117.0811
416.5779, 120.5708
417.0601, 102.2017
417.5422, 96.08740
418.0243, 122.8945
418.5064, 165.9619
418.9885, 215.2407
419.4706, 270.5405
419.9528, 327.6616
420.4349, 388.5063
420.9170, 447.3325
421.3991, 496.3291
421.8812, 524.6172
422.3633, 554.5430
422.8455, 590.5732
423.3276, 634.1050
423.8097, 692.5566
424.2918, 781.2021
424.7739, 874.3252
425.2560, 954.4175
425.7382, 1003.262
426.2203, 1067.400
426.7024, 1160.054
427.1845, 1270.032
427.6666, 1352.407
428.1487, 1392.988
428.6309, 1430.012
429.1130, 1482.595
429.5951, 1554.139
430.0772, 1627.682
430.5593, 1706.602
431.0414, 1781.240
431.5236, 1830.610
432.0057, 1851.312
432.4878, 1877.271
432.9699, 1926.912
433.4520, 1991.060
433.9341, 2023.079
434.4162, 2019.004
434.8983, 2008.248
435.3805, 2022.631
435.8626, 2058.941
436.3447, 2094.996
436.8268, 2121.818
437.3089, 2146.931
437.7910, 2168.176
438.2732, 2195.061
438.7553, 2262.773
439.2374, 2425.642
439.7195, 2623.175
440.2016, 2781.943
440.6837, 2883.528
441.1659, 3007.810
441.6480, 3209.687
442.1301, 3462.570
442.6122, 3729.010
443.0943, 3992.816
443.5764, 4269.990
444.0586, 4563.101
444.5407, 4873.433
445.0228, 5219.902
445.5049, 5622.134
445.9870, 6050.562
446.4691, 6481.376
446.9513, 6904.641
447.4334, 7344.528
447.9155, 7785.957
448.3976, 8247.157
448.8797, 8770.318
449.3618, 9386.336
449.8440, 10017.27
450.3261, 10631.92
450.8082, 11231.71
451.2903, 11832.30
451.7724, 12439.09
452.2545, 13026.58
452.7367, 13560.83
453.2188, 14034.72
453.7009, 14489.95
454.1830, 14948.36
454.6651, 15390.35
455.1472, 15765.03
455.6294, 16068.18
456.1115, 16340.47
456.5936, 16588.48
457.0757, 16827.27
457.5578, 17087.95
458.0399, 17378.49
458.5221, 17690.92
459.0042, 18049.50
459.4863, 18427.62
459.9684, 18767.56
460.4505, 19025.53
460.9326, 19241.22
461.4148, 19512.32
461.8969, 19830.65
462.3790, 19932.54
462.8611, 19597.29
463.3432, 19011.31
463.8253, 18345.53
464.3075, 17667.53
464.7896, 16879.71
465.2717, 15908.84
465.7538, 14807.81
466.2359, 13738.75
466.7180, 12701.40
467.2002, 11713.51
467.6823, 10773.84
468.1644, 9875.214
468.6465, 9057.005
469.1286, 8332.396
469.6107, 7684.017
470.0929, 7086.722
470.5750, 6546.429
471.0571, 6048.688
471.5392, 5592.263
472.0213, 5178.451
472.5034, 4821.242
472.9856, 4525.467
473.4677, 4261.118
473.9498, 4010.226
474.4319, 3772.640
474.9140, 3540.142
475.3961, 3306.990
475.8782, 3097.361
476.3604, 2954.703
476.8425, 2867.329
477.3246, 2789.033
477.8067, 2706.675
478.2888, 2618.460
478.7709, 2512.069
479.2531, 2390.450
479.7352, 2286.817
480.2173, 2228.980
480.6994, 2198.149
481.1815, 2175.205
481.6636, 2154.335
482.1458, 2142.160
482.6279, 2152.319
483.1100, 2172.127
483.5921, 2176.958
484.0742, 2120.700
484.5563, 2082.835
485.0385, 2100.957
485.5206, 2185.264
486.0027, 2260.305
486.4848, 2305.843
486.9669, 2354.077
487.4490, 2431.144
487.9312, 2559.085
488.4133, 2672.568
488.8954, 2759.091
489.3775, 2829.468
489.8596, 2913.948
490.3417, 3012.283
490.8239, 3124.284
491.3060, 3252.139
491.7881, 3394.561
492.2702, 3543.450
492.7523, 3697.470
493.2344, 3861.721
493.7166, 4040.733
494.1987, 4234.317
494.6808, 4442.115
495.1629, 4668.163
495.6450, 4900.011
496.1271, 5111.125
496.6093, 5307.745
497.0914, 5516.612
497.5735, 5767.061
498.0556, 6029.416
498.5377, 6270.436
499.0198, 6484.571
499.5020, 6700.920
499.9841, 6963.482
500.4662, 7228.807
500.9483, 7443.126
501.4304, 7556.833
501.9125, 7663.656
502.3947, 7788.872
502.8768, 7929.415
503.3589, 8054.608
503.8410, 8175.645
504.3231, 8269.557
504.8052, 8325.808
505.2874, 8345.230
505.7695, 8313.254
506.2516, 8225.310
506.7337, 8094.112
507.2158, 7931.404
507.6979, 7735.046
508.1801, 7516.395
508.6622, 7277.817
509.1443, 7022.425
509.6264, 6754.067
510.1085, 6472.006
510.5906, 6179.241
511.0728, 5876.901
511.5549, 5565.566
512.0370, 5240.001
512.5191, 4899.286
513.0012, 4571.079
513.4833, 4277.661
513.9655, 4013.980
514.4476, 3772.542
514.9297, 3566.074
515.4118, 3366.530
515.8939, 3152.559
516.3760, 2931.381
516.8582, 2726.788
517.3403, 2547.819
517.8224, 2381.489
518.3045, 2223.704
518.7866, 2074.245
519.2687, 1945.942
519.7509, 1845.868
520.2330, 1759.526
520.7151, 1672.373
521.1972, 1579.499
521.6793, 1488.925
522.1614, 1403.069
522.6436, 1321.635
523.1257, 1242.331
523.6078, 1164.576
524.0899, 1094.100
524.5720, 1034.145
525.0541, 983.8735
525.5363, 941.5503
526.0184, 908.4849
526.5005, 878.9521
526.9826, 846.9873
527.4647, 813.1357
527.9468, 779.0259
528.4290, 743.4028
528.9111, 711.5742
529.3932, 694.8491
529.8753, 687.3823
530.3574, 671.0947
530.8395, 623.9629
531.3217, 572.6250
531.8038, 536.0825
532.2859, 518.4595
532.7680, 509.2515
533.2501, 519.5518
533.7322, 531.2031
534.2144, 523.5601
534.6965, 467.3984
535.1786, 427.6836
535.6607, 415.1763
536.1428, 425.0562
536.6249, 437.8086
537.1070, 454.1514
537.5891, 472.4731
538.0712, 493.6895
538.5533, 518.2158
539.0355, 531.7656
539.5176, 531.6592
539.9997, 531.4326
540.4818, 552.4380
540.9639, 588.6006
541.4460, 609.7144
541.9282, 600.5044
542.4103, 583.5840
542.8924, 591.9219
543.3745, 619.4336
543.8566, 644.1401
544.3387, 654.4556
544.8209, 656.4204
545.3030, 655.9297
545.7851, 653.7495
546.2672, 642.1523
546.7493, 611.1284
547.2314, 573.0283
547.7136, 537.8892
548.1957, 498.3086
548.6778, 474.8325
549.1599, 484.8110
549.6420, 508.9585
550.1241, 508.3784
550.6063, 473.7754
551.0884, 431.1636
551.5705, 384.3203
552.0526, 334.4111
552.5347, 292.8315
553.0168, 259.2749
553.4990, 235.4834
553.9811, 230.5181
554.4632, 240.1377
554.9453, 232.3228
555.4274, 201.1348
555.9095, 159.9600
556.3917, 114.4131
556.8738, 70.22314
557.3559, 41.93604
557.8380, 49.45117
558.3201, 65.35254
558.8022, 71.40381
559.2844, 66.98779
559.7665, 49.98926
560.2486, 4.849609
560.7307, 42.66553
561.2128, 79.76416
561.6949, 107.4312
562.1771, 114.8506
562.6592, 77.95020
563.1413, 31.52539
563.6234, 11.56445
564.1055, 33.71973
564.5876, 51.15088
565.0698, 54.01172
565.5519, 49.26758
566.0340, 61.96777
566.5161, 95.72852
566.9982, 126.0801
567.4803, 140.3130
567.9625, 140.6040
568.4446, 135.7759
568.9267, 125.1992
569.4088, 117.1064
569.8909, 123.9834
570.3730, 137.8594
570.8552, 143.1387
571.3373, 134.7886
571.8194, 121.3413
572.3015, 104.4438
572.7836, 87.45166
573.2657, 76.28613
573.7479, 87.94678
574.2300, 91.18701
574.7121, 60.88281
575.1942, 9.7655997E-02
575.6763, 27.25879
576.1584, 14.08936
576.6406, 62.02295
577.1227, 91.22314
577.6048, 99.10156
578.0869, 91.83887
578.5690, 63.83154
579.0511, 28.42627
579.5333, 0.2451170
580.0154, 21.17236
580.4975, 31.61523
580.9796, 25.91699
581.4617, 14.30859
581.9438, 19.16553
582.4260, 38.33203
582.9081, 57.32227
583.3902, 68.15625
583.8723, 74.44043
584.3544, 80.56641
584.8365, 86.52197
585.3187, 89.15967
585.8008, 74.70410
586.2829, 63.09570
586.7650, 73.82422
587.2471, 131.2520
587.7292, 172.0386
588.2114, 173.8398
588.6935, 155.2075
589.1756, 144.5225
589.6577, 144.9688
590.1398, 147.4502
590.6219, 149.4448
591.1041, 152.5195
591.5862, 166.5054
592.0683, 195.1289
592.5504, 217.6924
593.0325, 219.7192
593.5146, 204.5317
593.9968, 188.7124
594.4789, 172.2100
594.9610, 164.7549
595.4431, 168.2266
595.9252, 179.2515
596.4073, 184.2065
596.8895, 179.8633
597.3716, 171.2231
597.8537, 162.4585
598.3358, 157.8281
598.8179, 161.7534
599.3000, 199.3062
599.7822, 225.7373
600.2643, 228.0400
600.7464, 207.1665
601.2285, 195.3208
601.7106, 197.4385
602.1927, 202.6099
602.6749, 205.0112
603.1570, 203.0044
603.6391, 210.1616
604.1212, 230.4399
604.6033, 250.2305
605.0854, 248.2866
605.5676, 228.1934
606.0497, 224.4243
606.5318, 250.2012
607.0139, 282.5352
607.4960, 284.4375
607.9781, 264.1699
608.4603, 249.2427
608.9424, 260.6562
609.4245, 278.4673
609.9066, 289.5239
610.3887, 292.1357
610.8708, 295.3540
611.3530, 317.0996
611.8351, 334.9219
612.3172, 331.9780
612.7993, 290.4019
613.2814, 276.3896
613.7635, 312.0820
614.2457, 355.1318
614.7278, 359.3643
615.2099, 313.7612
615.6920, 279.6992
616.1741, 265.8672
616.6563, 266.8813
617.1384, 273.6587
617.6205, 286.5317
618.1026, 304.5889
618.5847, 332.1382
619.0668, 357.5264
619.5489, 359.3193
620.0310, 341.1597
620.5131, 327.6069
620.9952, 342.2188
621.4774, 360.9741
621.9595, 360.3975
622.4416, 330.9004
622.9237, 314.7197
623.4058, 336.9292
623.8879, 369.6099
624.3701, 387.4189
624.8522, 389.2764
625.3343, 377.3740
625.8164, 347.1221
626.2985, 308.3291
626.7806, 276.6763
627.2628, 251.1382
627.7449, 238.7061
628.2270, 245.2959
628.7091, 264.7178
629.1912, 287.7139
629.6733, 312.8657
630.1555, 318.1616
630.6376, 269.3140
631.1197, 203.5298
631.6018, 167.2563
632.0839, 165.3584
632.5660, 168.0527
633.0482, 152.3833
633.5303, 137.4277
634.0124, 139.7305
634.4945, 186.1079
634.9766, 209.9922
635.4587, 193.3193
635.9409, 158.6616
636.4230, 135.6050
636.9051, 130.0967
637.3872, 120.8262
637.8693, 97.88037
638.3514, 70.62500
638.8336, 76.19238
639.3157, 114.7144
639.7978, 145.0415
640.2799, 138.8276
640.7620, 111.5386
641.2441, 94.50049
641.7263, 87.23584
642.2084, 83.14160
642.6905, 80.96338
643.1726, 77.89307
643.6547, 69.45361
644.1368, 52.68164
644.6190, 40.96582
645.1011, 41.74268
645.5832, 48.50684
646.0653, 55.45020
646.5474, 57.19238
647.0295, 67.90430
647.5117, 95.97852
647.9938, 128.9351
648.4759, 137.8311
648.9580, 118.0195
649.4401, 101.5249
649.9222, 100.1611
650.4044, 108.2236
650.8865, 111.9570
651.3686, 111.6338
651.8507, 110.6104
652.3328, 21.77441
652.8149, 101.8501
653.2971, 171.1294
653.7792, 189.2271
654.2613, 2.471191
654.7434, 80.27930
655.2255, 51.33008
655.7076, 17.74023
656.1898, 131.8535
656.6719, 26.65039
657.1540, 85.67969
657.6361, 90.37109
658.1182, 69.26074
658.6003, 47.18262
659.0825, 34.96582
659.5646, 38.30371
660.0467, 50.04980
660.5288, 56.91650
661.0109, 58.80664
661.4930, 55.11084
661.9752, 42.51514
662.4573, 26.61377
662.9394, 14.20410
663.4215, 4.963379
663.9036, 2.010254
664.3857, 11.98096
664.8679, 15.42871
665.3500, 1.441895
665.8321, 45.80371
666.3142, 63.10596
666.7963, 8.331543
667.2784, 48.43115
667.7606, 62.39258
668.2427, 12.51416
668.7248, 19.81250
669.2069, 30.23975
669.6890, 28.04443
670.1711, 20.16260
670.6533, 7.500977
671.1354, 7.841309
671.6175, 30.70020
672.0996, 58.98438
672.5817, 73.14600
673.0638, 74.28320
673.5460, 65.03564
674.0281, 39.65674
674.5102, 11.86816
674.9923, 13.13184
675.4744, 34.15771
675.9565, 46.91260
676.4387, 49.31885
676.9208, 43.37646
677.4029, 25.61621
677.8850, 5.785156
678.3671, 16.91113
678.8492, 0.6206050
679.3314, 18.68604
679.8135, 17.12451
680.2956, 2.949707
680.7777, 32.56982
681.2598, 73.91553
681.7419, 109.4902
682.2241, 112.2998
682.7062, 98.50342
683.1883, 99.09961
683.6704, 130.0122
684.1525, 159.2222
684.6346, 162.5566
685.1168, 153.6011
685.5989, 153.2231
686.0810, 185.1406
686.5631, 203.4390
687.0452, 189.2822
687.5273, 157.4355
688.0095, 156.8174
688.4916, 197.3120
688.9737, 236.7827
689.4558, 258.3364
689.9379, 267.2607
690.4200, 285.2827
690.9022, 311.8579
691.3843, 336.1421
691.8664, 312.4810
692.3485, 300.9023
692.8306, 302.8296
693.3127, 406.5190
693.7949, 455.7949
694.2770, 453.5698
694.7591, 246.0098
695.2412, 303.5781
695.7233, 254.6260
696.2054, 200.8198
696.6876, 283.8950
697.1697, 307.3979
697.6518, 309.3096
698.1339, 285.2129
698.6160, 259.4438
699.0981, 234.0308
699.5803, 210.2427
700.0624, 189.4224
700.5444, 171.9131
701.0266, 159.0410
701.5087, 149.4746
701.9908, 146.6421
702.4729, 165.6108
702.9550, 195.4458
703.4371, 206.1821
703.9193, 168.0083
704.4014, 125.6216
704.8835, 95.74268
705.3656, 78.59570
705.8477, 63.37598
706.3298, 43.33789
706.8120, 35.66699
707.2941, 55.91406
707.7762, 102.4727
708.2583, 109.2847
708.7404, 71.49756
709.2225, 30.39941
709.7047, 25.24316
710.1868, 35.68896
710.6689, 26.19824
711.1510, 14.00684
711.6331, 42.45068
712.1152, 22.26074
712.5974, 23.32422
713.0795, 65.86133
713.5616, 107.2910
714.0437, 131.4287
714.5258, 117.3037
715.0079, 92.60693
715.4901, 74.53223
715.9722, 64.85352
716.4543, 54.56201
716.9364, 39.68945
717.4185, 27.62305
717.9006, 34.56494
718.3828, 58.51758
718.8649, 84.85938
719.3470, 116.8975
719.8291, 137.6890
720.3112, 110.5918
720.7933, 52.19434
721.2755, 11.77979
721.7576, 26.07129
722.2397, 49.79004
722.7218, 65.53125
723.2039, 73.74316
723.6860, 75.35010
724.1682, 61.44678
724.6503, 50.79980
725.1324, 49.35547
725.6145, 59.37500
726.0966, 68.54150
726.5787, 74.94287
727.0609, 77.92725
727.5430, 75.99023
728.0251, 71.22949
728.5072, 69.05127
728.9893, 70.12061
729.4714, 70.43555
729.9536, 61.90674
730.4357, 54.18359
730.9178, 58.50049
731.3999, 85.51416
731.8820, 101.8687
732.3641, 93.25879
732.8463, 75.76074
733.3284, 61.69971
733.8105, 50.72998
734.2926, 47.36768
734.7747, 53.40186
735.2568, 66.12061
735.7390, 81.41113
736.2211, 98.01660
736.7032, 114.7534
737.1853, 131.6011
737.6674, 147.3335
738.1495, 160.3110
738.6317, 170.7798
739.1138, 179.7861
739.5959, 195.4165
740.0780, 201.7812
740.5601, 181.8931
741.0422, 147.2354
741.5244, 139.5103
742.0065, 172.5747
742.4886, 205.9155
742.9707, 229.8594
743.4528, 244.0703
743.9349, 238.5161
744.4171, 213.1719
744.8992, 203.1528
745.3813, 245.7329
745.8634, 307.3657
746.3455, 336.3589
746.8276, 335.5303
747.3098, 334.9307
747.7919, 347.2852
748.2740, 367.5669
748.7561, 397.0645
749.2382, 438.7866
749.7203, 466.5435
750.2025, 476.1094
750.6846, 477.6802
751.1667, 485.2134
751.6488, 503.3872
752.1309, 449.8350
752.6130, 307.0439
753.0952, 193.2686
753.5773, 251.8999
754.0594, 413.7632
754.5415, 540.8818
755.0236, 608.7832
755.5057, 661.9526
755.9879, 727.9097
756.4700, 793.5049
756.9521, 844.4141
757.4342, 866.5654
757.9163, 892.2456
758.3984, 924.7310
758.8806, 960.3203
759.3627, 992.2925
759.8448, 1018.739
760.3269, 1059.963
760.8090, 1123.502
761.2911, 1192.055
761.7733, 1236.722
762.2554, 1265.112
762.7375, 1297.972
763.2196, 1337.036
763.7017, 1390.752
764.1838, 1478.838
764.6660, 1584.279
765.1481, 1672.525
765.6302, 1712.159
766.1123, 1762.194
766.5944, 1836.532
767.0765, 1926.447
767.5587, 2011.721
768.0408, 2092.405
768.5229, 2165.636
769.0050, 2226.078
769.4871, 2280.381
769.9692, 2342.645
770.4514, 2412.848
770.9335, 2492.845
771.4156, 2603.247
771.8977, 2708.149
772.3798, 2769.564
772.8619, 2797.182
773.3441, 2838.671
773.8262, 2923.341
774.3083, 3006.158
774.7904, 3073.967
775.2725, 3127.809
775.7546, 3174.824
776.2368, 3213.174
776.7189, 3254.650
777.2010, 3318.437
777.6831, 3389.405
778.1652, 3417.033
778.6473, 3404.275
779.1295, 3383.863
779.6116, 3365.518
780.0937, 3357.350
780.5758, 3376.083
781.0579, 3424.740
781.5400, 3445.938
782.0222, 3395.513
782.5043, 3343.631
782.9863, 3330.096
783.4684, 3362.891
783.9506, 3350.154
784.4327, 3283.991
784.9148, 3208.197
785.3969, 3165.108
785.8790, 3139.290
786.3611, 3085.468
786.8433, 2999.346
787.3254, 2912.736
787.8075, 2839.993
788.2896, 2783.134
788.7717, 2749.580
789.2538, 2751.256
789.7360, 2737.010
790.2181, 2696.620
790.7002, 2640.633
791.1823, 2571.606
791.6644, 2486.111
792.1465, 2423.858
792.6287, 2387.353
793.1108, 2363.539
793.5929, 2350.314
794.0750, 2338.088
794.5571, 2301.925
795.0392, 2232.070
795.5214, 2163.534
796.0035, 2114.567
796.4856, 2078.973
796.9677, 2052.768
797.4498, 2046.589
797.9319, 2030.253
798.4141, 1994.970
798.8962, 1955.931
799.3783, 1933.187
799.8604, 1928.389
800.3425, 1912.898
800.8246, 1880.072
801.3068, 1842.761
801.7889, 1813.214
802.2710, 1792.329
802.7531, 1783.657
803.2352, 1793.608
803.7173, 1803.234
804.1995, 1804.053
804.6816, 1799.072
805.1637, 1793.074
805.6458, 1800.195
806.1279, 1779.420
806.6100, 1718.351
807.0922, 1640.688
807.5743, 1580.376
808.0564, 1536.333
808.5385, 1497.821
809.0206, 1466.734
809.5027, 1427.595
809.9849, 1352.278
810.4670, 1259.018
810.9491, 1175.654
811.4312, 1114.704
811.9133, 1060.509
812.3954, 1016.427
812.8776, 973.6230
813.3597, 916.8477
813.8418, 836.6045
814.3239, 769.3574
814.8060, 722.2710
815.2881, 688.7061
815.7703, 658.1567
816.2524, 631.6289
816.7345, 615.8057
817.2166, 620.1787
817.6987, 622.4360
818.1808, 598.2534
818.6630, 560.1313
819.1451, 528.6138
819.6272, 520.7705
820.1093, 505.1011
820.5914, 471.5176
821.0735, 430.9771
821.5557, 403.6729
822.0378, 390.5439
822.5199, 383.5322
823.0020, 384.1812
823.4841, 383.1616
823.9662, 358.1816
824.4484, 319.7715
824.9305, 295.1621
825.4126, 311.4624
825.8947, 321.6680
826.3768, 284.7192
826.8589, 228.3149
827.3411, 208.4810
827.8232, 258.5845
828.3053, 290.9170
828.7874, 293.1079
829.2695, 273.3633
829.7516, 240.2886
830.2338, 196.3398
830.7159, 164.8228
831.1980, 156.9395
831.6801, 156.2812
832.1622, 145.2886
832.6443, 128.0552
833.1265, 112.0044
833.6086, 96.17578
834.0907, 86.15723
834.5728, 91.22705
835.0549, 100.0278
835.5370, 92.47803
836.0192, 61.62939
836.5013, 43.25391
836.9834, 46.87988
837.4655, 59.07422
837.9476, 53.85986
838.4297, 38.14062
838.9119, 34.29150
839.3940, 61.48145
839.8761, 81.99707
840.3582, 63.07812
840.8403, 23.48682
841.3224, 7.015137
841.8046, 25.77393
842.2867, 31.17236
842.7688, 17.27734
843.2509, 4.181641
843.7330, 14.78857
844.2151, 14.66504
844.6973, 9.229004
845.1794, 1.490723
845.6615, 13.75635
846.1436, 27.82520
846.6257, 39.26025
847.1078, 39.62109
847.5900, 10.91309
848.0721, 4.768066
848.5542, 18.99951
849.0363, 54.48779
849.5184, 69.30322
850.0005, 57.67480
850.4827, 45.54297
850.9648, 33.65381
851.4469, 26.48730
851.9290, 35.10547
852.4111, 53.08740
852.8932, 62.77246
853.3754, 57.65625
853.8575, 51.76318
854.3396, 59.25830
854.8217, 68.45801
855.3038, 66.19629
855.7859, 31.21973
856.2681, 18.12109
856.7502, 36.80957
857.2323, 62.97803
857.7144, 71.47705
858.1965, 63.23682
858.6786, 43.60596
859.1608, 11.38232
859.6429, 17.81689
860.1250, 23.53418
860.6071, 19.19678
861.0892, 21.31348
861.5714, 36.32959
862.0535, 46.72559
862.5356, 41.71387
863.0177, 35.68994
863.4998, 38.91357
863.9819, 53.44775
864.4641, 65.81250
864.9462, 76.22852
865.4282, 83.15039
865.9103, 87.86572
866.3925, 87.36035
866.8746, 69.54834
867.3567, 31.65967
867.8388, 8.885254
868.3209, 40.14258
868.8030, 76.86719
869.2852, 81.54834
869.7673, 48.18799
870.2494, 24.69141
870.7315, 7.892578
871.2136, 9.974609
871.6957, 56.60889
872.1779, 130.1763
872.6600, 150.8315
873.1421, 120.8096
873.6242, 91.13672
874.1063, 93.44043
874.5884, 112.4424
875.0706, 145.3613
875.5527, 191.3276
876.0348, 211.5732
876.5169, 184.3462
876.9990, 161.9551
877.4811, 168.0156
877.9633, 196.8096
878.4454, 215.6533
878.9275, 224.6162
879.4096, 224.2959
879.8917, 200.2852
880.3738, 178.3154
880.8560, 194.4448
881.3381, 238.2695
881.8202, 268.0098
882.3023, 224.9863
882.7844, 222.0752
883.2665, 309.3618
883.7487, 452.5640
884.2308, 536.9360
884.7129, 558.7275
885.1950, 569.4590
885.6771, 593.0107
886.1592, 606.5059
886.6414, 562.8286
887.1235, 482.4570
887.6056, 412.0215
888.0877, 363.7163
888.5698, 335.7974
889.0519, 336.7744
889.5341, 354.8481
890.0162, 373.8838
890.4983, 397.6582
890.9804, 404.0410
891.4625, 385.8691
891.9446, 357.2739
892.4268, 333.0996
892.9089, 315.8003
893.3910, 312.1196
893.8731, 325.0820
894.3552, 348.2334
894.8373, 401.2690
895.3195, 450.4321
895.8016, 454.7456
896.2837, 381.1191
896.7658, 342.8872
897.2479, 352.3857
897.7300, 372.0239
898.2122, 356.9878
898.6943, 319.3809
899.1764, 304.5571
899.6585, 318.9077
900.1406, 327.8184
900.6227, 297.9595
901.1049, 260.5503
901.5870, 238.1841
902.0691, 234.3682
902.5512, 245.0020
903.0333, 280.2573
903.5154, 309.3760
903.9976, 310.1440
904.4797, 287.5327
904.9618, 277.2441
905.4439, 279.8022
905.9260, 280.5850
906.4081, 261.7417
906.8903, 239.5527
907.3724, 230.3394
907.8545, 234.6304
908.3366, 238.4839
908.8187, 244.9531
909.3008, 242.5312
909.7830, 223.4834
910.2651, 193.4546
910.7472, 175.3018
911.2293, 168.9160
911.7114, 164.1509
912.1935, 159.0952
912.6757, 148.8779
913.1578, 121.1274
913.6399, 88.36670
914.1220, 71.09814
914.6041, 89.12500
915.0862, 99.91211
915.5684, 97.54248
916.0505, 89.35010
916.5326, 86.53174
917.0147, 89.56250
917.4968, 92.15186
917.9789, 92.40918
918.4611, 89.24512
918.9432, 73.37988
919.4253, 57.06006
919.9074, 58.11084
920.3895, 91.08105
920.8716, 114.5117
921.3538, 119.9014
921.8359, 116.6372
922.3180, 105.4258
922.8001, 84.92822
923.2822, 99.35986
923.7643, 153.0264
924.2465, 198.3877
924.7286, 182.0415
925.2107, 145.2183
925.6928, 141.6304
926.1749, 174.8354
926.6570, 186.7158
927.1392, 139.3403
927.6213, 90.08887
928.1034, 59.09473
928.5855, 44.71436
929.0676, 38.73486
929.5497, 41.35205
930.0319, 49.95312
930.5140, 66.50586
930.9961, 85.68945
931.4782, 103.8364
931.9603, 119.3994
932.4424, 128.9111
932.9246, 122.4531
933.4067, 121.7158
933.8888, 141.1040
934.3709, 161.4922
934.8530, 136.6235
935.3351, 65.17480
935.8173, 18.96436
936.2994, 13.49463
936.7815, 32.24707
937.2636, 72.25342
937.7457, 118.5430
938.2278, 149.8931
938.7100, 158.3901
939.1921, 158.8818
939.6742, 147.0703
940.1563, 135.8398
940.6384, 133.8330
941.1205, 140.9746
941.6027, 166.0142
942.0848, 210.6089
942.5669, 245.0298
943.0490, 232.9766
943.5311, 205.6147
944.0132, 198.0186
944.4954, 211.7129
944.9775, 219.4663
945.4596, 198.4014
945.9417, 191.3789
946.4238, 220.9985
946.9059, 274.6470
947.3881, 287.9595
947.8701, 263.6401
948.3522, 246.5977
948.8344, 258.9038
949.3165, 285.8379
949.7986, 320.7900
950.2807, 358.8657
950.7628, 389.5513
951.2449, 404.7607
951.7271, 420.0366
952.2092, 438.6030
952.6913, 455.6362
953.1734, 462.5562
953.6555, 460.3994
954.1376, 456.8867
954.6198, 451.2070
955.1019, 457.5566
955.5840, 504.2974
956.0661, 559.7788
956.5482, 589.5728
957.0303, 579.1406
957.5125, 582.2148
957.9946, 608.2573
958.4767, 634.9897
958.9588, 645.9438
959.4409, 645.1685
959.9230, 657.7734
960.4052, 682.5605
960.8873, 708.7773
961.3694, 726.4683
961.8515, 746.0767
962.3336, 770.7866
962.8157, 802.9409
963.2979, 854.0308
963.7800, 940.5688
964.2621, 1004.495
964.7442, 1026.177
965.2263, 1028.246
965.7084, 1056.445
966.1906, 1102.580
966.6727, 1140.821
967.1548, 1159.266
967.6369, 1179.058
968.1190, 1204.743
968.6011, 1242.714
969.0833, 1302.500
969.5654, 1392.018
970.0475, 1473.764
970.5296, 1542.643
971.0117, 1621.493
971.4938, 1737.340
971.9760, 1875.481
972.4581, 1997.097
972.9402, 2098.520
973.4223, 2220.254
973.9044, 2400.920
974.3865, 2592.151
974.8687, 2758.570
975.3508, 2914.885
975.8329, 3138.286
976.3150, 3432.839
976.7971, 3776.145
977.2792, 4163.160
977.7614, 4592.554
978.2435, 5046.178
978.7256, 5541.206
979.2077, 6108.640
979.6898, 6794.726
980.1719, 7499.999
980.6541, 8188.163
981.1362, 8894.930
981.6183, 9654.117
982.1004, 10465.88
982.5825, 11311.49
983.0646, 12196.56
983.5468, 13120.36
984.0289, 14049.41
984.5110, 15030.23
984.9931, 16099.75
985.4752, 17261.71
985.9573, 18528.35
986.4395, 19923.48
986.9216, 21375.30
987.4037, 22868.75
987.8858, 24399.93
988.3679, 25910.39
988.8500, 27486.68
989.3322, 28970.19
989.8143, 30689.18
990.2964, 32361.35
990.7785, 34031.11
991.2606, 35495.75
991.7427, 36402.48
992.2249, 36892.89
992.7070, 36507.28
993.1891, 35155.37
993.6712, 33069.20
994.1533, 30186.30
994.6354, 26808.18
995.1176, 23604.37
995.5997, 20622.59
996.0818, 17950.46
996.5639, 15644.56
997.0460, 13617.70
997.5281, 11840.79
998.0103, 10296.40
998.4924, 8929.321
998.9745, 7746.774
999.4566, 6743.225
999.9387, 5933.062
1000.421, 5268.316
1000.903, 4689.191
1001.385, 4192.954
1001.867, 3781.873
1002.349, 3492.455
1002.831, 3237.924
1003.314, 3013.812
1003.796, 2803.467
1004.278, 2573.345
1004.760, 2331.298
1005.242, 2136.307
1005.724, 1997.041
1006.206, 1885.791
1006.688, 1798.764
1007.170, 1720.642
1007.653, 1633.332
1008.135, 1535.602
1008.617, 1471.436
1009.099, 1458.679
1009.581, 1433.567
1010.063, 1361.400
1010.545, 1267.966
1011.027, 1216.879
1011.510, 1193.236
1011.992, 1154.309
1012.474, 1065.652
1012.956, 980.8589
1013.438, 932.9399
1013.920, 889.9937
1014.402, 811.8174
1014.884, 692.0229
1015.366, 584.2192
1015.849, 491.7124
1016.331, 416.7441
1016.813, 368.0674
1017.295, 333.9849
1017.777, 303.9453
1018.259, 276.5894
1018.741, 246.3555
1019.223, 213.2944
1019.706, 174.9805
1020.188, 126.9707
1020.670, 75.91553
1021.152, 36.63770
1021.634, 11.28564
1022.116, 12.71094
1022.598, 64.41260
1023.080, 107.9268
1023.562, 92.54932
1024.045, 52.50293
1024.527, 31.06445
1025.009, 39.63281
1025.491, 37.49414
1025.973, 22.48779
1026.455, 5.019043
1026.937, 5.061035
1027.419, 12.06104
1027.901, 23.31055
1028.384, 38.88379
1028.866, 55.46533
1029.348, 88.93164
1029.830, 100.7671
1030.312, 69.32715
1030.794, 15.40576
1031.276, 8.014648
1031.758, 2.368164
1032.240, 13.99170
1032.723, 40.12988
1033.205, 62.92920
1033.687, 70.47949
1034.169, 68.00781
1034.651, 58.93115
1035.133, 38.74902
1035.615, 33.02197
1036.097, 49.45850
1036.580, 59.97559
1037.062, 39.84277
1037.544, 1.982422
1038.026, 23.42236
1038.508, 37.41699
1038.990, 45.62988
1039.472, 39.48779
1039.954, 41.50049
1040.437, 67.15186
1040.919, 100.1523
1041.401, 110.9546
1041.883, 99.11914
1042.365, 99.83984
1042.847, 119.5405
1043.329, 147.3418
1043.811, 187.8228
1044.293, 223.1738
1044.776, 225.4048
1045.258, 187.2319
1045.740, 184.8203
1046.222, 232.6357
1046.704, 287.8379
1047.186, 334.7778
1047.668, 373.9448
1048.150, 406.8589
1048.632, 434.1611
1049.115, 456.7031
1049.597, 468.5688
1050.079, 481.0864
1050.561, 498.4062
1051.043, 520.5659
1051.525, 548.5029
1052.007, 583.0840
1052.489, 612.7524
1052.972, 637.0078
1053.454, 655.0210
1053.936, 659.5684
1054.418, 663.2036
1054.900, 679.3687
1055.382, 705.9146
1055.864, 729.4868
1056.346, 752.6831
1056.828, 764.8652
1057.311, 760.7290
1057.793, 749.4775
1058.275, 748.5581
1058.757, 752.7939
1059.239, 749.7124
1059.721, 735.1147
1060.203, 718.9668
1060.685, 674.6909
1061.167, 659.0005
1061.650, 673.9229
1062.132, 779.9507
1062.614, 832.6196
1063.096, 833.5308
1063.578, 627.8975
1064.060, 687.1504
1064.542, 639.9941
1065.024, 588.4194
1065.507, 684.8911
1065.989, 505.3052
1066.471, 432.3242
1066.953, 390.8413
1067.435, 394.1128
1067.917, 406.7070
1068.399, 384.8096
1068.881, 347.0815
1069.364, 325.5015
1069.846, 323.0371
1070.328, 330.3848
1070.810, 375.6440
1071.292, 388.2671
1071.774, 328.6689
1072.256, 232.0542
1072.738, 212.7026
1073.220, 259.1440
1073.703, 293.6807
1074.185, 292.1260
1074.667, 279.7612
1075.149, 258.9639
1075.631, 246.3262
1076.113, 262.5601
1076.595, 314.0005
1077.077, 352.0938
1077.559, 378.2544
1078.042, 385.6724
1078.524, 354.5610
1079.006, 313.3140
1079.488, 300.6182
1079.970, 309.4434
1080.452, 321.4316
1080.934, 337.8389
1081.416, 348.5723
1081.898, 355.5122
1082.381, 351.7026
1082.863, 313.3521
1083.345, 258.1040
1083.827, 254.8745
1084.309, 307.6436
1084.791, 340.3945
1085.273, 284.6045
1085.755, 228.2144
1086.238, 216.9863
1086.720, 236.0552
1087.202, 237.5132
1087.684, 222.8623
1088.166, 193.4507
1088.648, 143.9956
1089.130, 100.7812
1089.612, 90.92578
1090.094, 97.21973
1090.577, 103.0742
1091.059, 108.1880
1091.541, 105.9893
1092.023, 94.67822
1092.505, 86.99707
1092.987, 91.59863
1093.469, 103.4189
1093.951, 120.0747
1094.433, 136.7886
1094.916, 142.9097
1095.398, 122.8804
1095.880, 109.3125
1096.362, 106.7876
1096.844, 107.6099
1097.326, 105.7964
1097.808, 100.5317
1098.290, 83.26318
1098.773, 54.58789
1099.255, 36.25879
1099.737, 62.02295
1100.219, 77.21924
1100.701, 40.68945
1101.183, 20.12109
1101.665, 35.86182
1102.147, 5.891113
1102.630, 15.70215
1103.112, 17.17432
1103.594, 10.98340
1104.076, 4.611816
1104.558, 1.196289
1105.040, 5.123535
1105.522, 6.925781
1106.004, 12.37939
1106.486, 24.95117
1106.969, 26.29248
1107.451, 2.939453
1107.933, 28.61377
1108.415, 45.90430
1108.897, 50.89307
1109.379, 46.02075
1109.861, 21.22485
1110.343, 8.332520
1110.825, 15.00757
1111.308, 23.51636
1111.790, 15.27881
1112.272, 2.016602
1112.754, 1.481445
1113.236, 22.48853
1113.718, 41.61548
1114.200, 49.38721
1114.682, 53.21387
1115.165, 52.62354
1115.647, 51.64575
1116.129, 57.80078
1116.611, 70.26440
1117.093, 77.97290
1117.575, 79.85938
1118.057, 73.37329
1118.539, 49.18774
1119.021, 22.63013
1119.504, 4.1260000E-02
1119.986, 15.98560
1120.468, 10.76782
1120.950, 18.96973
1121.432, 45.85254
1121.914, 65.20459
1122.396, 73.08276
1122.878, 43.40991
1123.360, 11.56592
1123.843, 27.56787
1124.325, 115.5608
1124.807, 159.1592
1125.289, 144.0608
1125.771, 124.4673
1126.253, 130.3372
1126.735, 142.8735
1127.217, 113.8503
1127.700, 66.08667
1128.182, 49.70020
1128.664, 108.9602
1129.146, 150.7671
1129.628, 163.2385
1130.110, 161.0698
1130.592, 147.8982
1131.074, 129.6978
1131.557, 135.9329
1132.039, 161.9387
1132.521, 180.0186
1133.003, 164.1558
1133.485, 155.0959
1133.967, 173.9968
1134.449, 200.5193
1134.931, 204.2014
1135.413, 188.2632
1135.896, 178.7397
1136.378, 178.0737
1136.860, 182.8672
1137.342, 198.8413
1137.824, 211.8364
1138.306, 209.6809
1138.788, 197.5840
1139.270, 190.5120
1139.752, 188.7307
1140.235, 187.1213
1140.717, 184.0957
1141.199, 183.9824
1141.681, 197.2412
1142.163, 210.9951
1142.645, 210.0146
1143.127, 192.5420
1143.609, 182.9241
1144.092, 180.3684
1144.574, 190.0566
1145.056, 219.9009
1145.538, 253.3584
1146.020, 268.6099
1146.502, 272.5176
1146.984, 273.8242
1147.466, 268.7766
1147.948, 279.0002
1148.431, 310.1108
1148.913, 344.9690
1149.395, 378.2766
1149.877, 405.1589
1150.359, 403.7732
1150.841, 388.8237
1151.323, 396.6973
1151.805, 465.3462
1152.287, 519.7173
1152.770, 549.4985
1153.252, 570.3772
1153.734, 599.9409
1154.216, 632.1321
1154.698, 641.8250
1155.180, 633.0444
1155.662, 631.7061
1156.144, 653.0603
1156.626, 680.5854
1157.109, 718.6426
1157.591, 751.1714
1158.073, 749.7573
1158.555, 720.6628
1159.037, 691.2942
1159.519, 665.9580
1160.001, 648.1965
1160.483, 646.5083
1160.966, 640.6733
1161.448, 622.4575
1161.930, 593.5039
1162.412, 555.0999
1162.894, 508.0869
1163.376, 458.0115
1163.858, 403.7222
1164.340, 359.3330
1164.823, 350.8235
1165.305, 344.4404
1165.787, 308.2830
1166.269, 248.8667
1166.751, 217.7952
1167.233, 214.5415
1167.715, 209.1619
1168.197, 190.3430
1168.679, 171.2751
1169.161, 164.2915
1169.644, 161.3799
1170.126, 154.1375
1170.608, 142.9614
1171.090, 129.3108
1171.572, 111.9561
1172.054, 103.8682
1172.536, 118.4133
1173.018, 134.9817
1173.501, 133.5513
1173.983, 120.5969
1174.465, 103.7256
1174.947, 79.06177
1175.429, 70.10767
1175.911, 79.26074
1176.393, 89.71484
1176.875, 86.97046
1177.358, 81.56177
1177.840, 94.20508
1178.322, 113.8481
1178.804, 109.7456
1179.286, 56.19507
1179.768, 31.64209
1180.250, 44.45703
1180.732, 65.20044
1181.214, 68.70508
1181.697, 63.88818
1182.179, 62.57104
1182.661, 63.22998
1183.143, 58.86230
1183.625, 44.56812
1184.107, 33.22461
1184.589, 26.52710
1185.071, 22.17773
1185.553, 17.51343
1186.036, 13.61523
1186.518, 13.30713
1187.000, 16.17871
1187.482, 17.21240
1187.964, 14.01758
1188.446, 11.87402
1188.928, 11.61401
1189.410, 13.43164
1189.893, 23.48853
1190.375, 33.64502
1190.857, 22.02002
1191.339, 14.88452
1191.821, 28.92261
1192.303, 6.804932
1192.785, 35.52002
1193.267, 39.39014
1193.750, 30.10791
1194.232, 27.41821
1194.714, 28.96143
1195.196, 31.04321
1195.678, 33.97754
1196.160, 29.48901
1196.642, 4.761475
1197.124, 8.475830
1197.606, 8.361572
1198.089, 37.91162
1198.571, 35.84937
1199.053, 13.75830
1199.535, 1.127686
1200.017, 1.274658
1200.499, 2.124512
1200.981, 8.052246
1201.463, 11.25024
1201.945, 7.308594
1202.428, 36.55103
1202.910, 44.58032
1203.392, 34.85107
1203.874, 17.60596
1204.356, 17.29126
1204.838, 30.28491
1205.320, 4.995850
1205.802, 28.16724
1206.285, 51.80200
1206.767, 66.41089
1207.249, 67.89771
1207.731, 63.69141
1208.213, 68.10620
1208.695, 98.86816
1209.177, 112.7864
1209.659, 94.84106
1210.141, 72.48291
1210.624, 71.87329
1211.106, 85.44067
1211.588, 71.41772
1212.070, 43.26660
1212.552, 58.01538
1213.034, 180.7542
1213.516, 290.1104
1213.998, 341.3137
1214.480, 406.0505
1214.963, 617.8582
1215.445, 895.8860
1215.927, 938.5449
1216.409, 775.3540
1216.891, 633.6787
1217.373, 617.3604
1217.855, 630.9958
1218.337, 673.9404
1218.820, 707.8845
1219.302, 674.2898
1219.784, 595.6382
1220.266, 539.2974
1220.748, 505.5640
1221.230, 465.3240
1221.712, 386.7446
1222.194, 329.6021
1222.677, 313.5000
1223.159, 310.9883
1223.641, 279.2183
1224.123, 231.4067
1224.605, 200.9148
1225.087, 189.5710
1225.569, 179.5620
1226.051, 164.0049
1226.533, 148.7434
1227.016, 133.2227
1227.498, 121.4285
1227.980, 122.7573
1228.462, 131.4014
1228.944, 134.6780
1229.426, 131.1514
1229.908, 127.8181
1230.390, 122.1570
1230.872, 125.3806
1231.355, 143.5706
1231.837, 165.9731
1232.319, 180.0361
1232.801, 183.1299
1233.283, 162.1567
1233.765, 113.2632
1234.247, 89.40137
1234.729, 115.2764
1235.212, 136.5505
1235.694, 136.4280
1236.176, 126.3325
1236.658, 122.0422
1237.140, 122.8323
1237.622, 127.5872
1238.104, 136.6296
1238.586, 153.1201
1239.068, 187.5259
1239.551, 198.9719
1240.033, 165.0034
1240.515, 119.0884
1240.997, 117.1936
1241.479, 136.5608
1241.961, 142.0662
1242.443, 125.2112
1242.925, 113.6113
1243.407, 108.9875
1243.890, 109.1606
1244.372, 114.9624
1244.854, 120.1882
1245.336, 112.1951
1245.818, 99.93286
1246.300, 94.99292
1246.782, 100.4211
1247.264, 105.4856
1247.746, 106.2153
1248.229, 119.8879
1248.711, 163.1396
1249.193, 202.7312
1249.675, 198.6045
1250.157, 170.2385
1250.639, 138.3232
1251.121, 103.5498
1251.603, 91.78394
1252.086, 107.3860
1252.568, 108.9189
1253.050, 65.85059
1253.532, 25.53198
1254.014, 35.69116
1254.496, 65.81519
1254.978, 79.14258
1255.460, 73.09473
1255.943, 85.72021
1256.425, 116.6826
1256.907, 134.5615
1257.389, 122.3435
1257.871, 97.84082
1258.353, 65.78442
1258.835, 34.58862
1259.317, 11.22559
1259.799, 4.303223
1260.281, 7.835449
1260.764, 3.3936001E-02
1261.246, 13.10474
1261.728, 35.81567
1262.210, 51.11206
1262.692, 43.45483
1263.174, 30.27490
1263.656, 28.64185
1264.138, 35.37793
1264.621, 9.083252
1265.103, 40.04932
1265.585, 58.34155
1266.067, 1.300781
1266.549, 52.83130
1267.031, 57.42847
1267.513, 52.38770
1267.995, 61.24707
1268.478, 80.64526
1268.960, 102.1553
1269.442, 122.1357
1269.924, 127.1086
1270.406, 92.17969
1270.888, 80.30249
1271.370, 115.6782
1271.852, 145.3625
1272.334, 120.6211
1272.817, 69.87207
1273.299, 69.86230
1273.781, 102.4873
1274.263, 123.6016
1274.745, 119.5593
1275.227, 97.52832
1275.709, 47.73022
1276.191, 11.84351
1276.673, 26.63257
1277.156, 64.16309
1277.638, 85.14624
1278.120, 93.84839
1278.602, 98.16406
1279.084, 99.39453
1279.566, 96.14966
1280.048, 87.68945
1280.530, 77.16748
1281.013, 61.78931
1281.495, 55.84839
1281.977, 78.96289
1282.459, 111.7822
1282.941, 123.0215
1283.423, 85.03809
1283.905, 75.75562
1284.387, 75.08594
1284.870, 84.34912
1285.352, 124.7783
1285.834, 150.0750
1286.316, 107.4863
1286.798, 48.01440
1287.280, 30.42407
1287.762, 54.77930
1288.244, 71.20264
1288.726, 78.52246
1289.208, 78.04565
1289.691, 62.76270
1290.173, 48.91553
1290.655, 41.12744
1291.137, 40.14771
1291.619, 46.91748
1292.101, 60.31567
1292.583, 89.03857
1293.065, 123.9263
1293.548, 134.3049
1294.030, 90.27515
1294.512, 49.61060
1294.994, 16.10815
1295.476, 3.687012
1295.958, 1.405762
1296.440, 16.23169
1296.922, 45.87451
1297.405, 81.99609
1297.887, 101.0430
1298.369, 90.54614
1298.851, 69.96729
1299.333, 46.27051
1299.815, 21.10718
1300.297, 5.733887
1300.779, 0.0000000E+00
##END=



