##NAMES=Leucophosphite
##RRUFFID=R080126
##IDEAL CHEMISTRY=KFe^3+^_2_(PO_4_)_2_(OH)&#183;2H_2_O
##LOCALITY=Tip Top mine, Custer County, South Dakota, USA
##OWNER=RRUFF
##SOURCE=Thomas A. Loomis
##DESCRIPTION=Violet subhedral crystals on a matrix of rockbridgeite and associated with pale yellow acicular segelerite (R080127).
##STATUS=The identification of this mineral has been confirmed by single-crystal X-ray diffraction.
##URL=rruff.info/R080126
113.0679, 0.0000000E+00
113.5500, 1.648743
114.0321, 3.301331
114.5142, 4.718750
114.9964, 1.967285
115.4785, 0.4882810
115.9606, 0.1854250
116.4427, 2.682251
116.9248, 4.567688
117.4069, 3.635315
117.8891, 1.234070
118.3712, 0.2505490
118.8533, 1.754700
119.3354, 3.968689
119.8175, 4.909973
120.2996, 4.711304
120.7818, 4.943542
121.2639, 6.746460
121.7460, 10.13348
122.2281, 14.27228
122.7102, 21.10675
123.1923, 27.16852
123.6745, 29.48157
124.1566, 27.82416
124.6387, 25.62488
125.1208, 28.52435
125.6029, 40.76172
126.0850, 49.03961
126.5672, 50.12506
127.0493, 48.82635
127.5314, 48.76221
128.0135, 51.47357
128.4956, 56.59454
128.9777, 62.85608
129.4599, 73.29236
129.9420, 81.00232
130.4241, 82.99707
130.9062, 82.29034
131.3883, 83.71228
131.8704, 90.28497
132.3526, 100.6502
132.8347, 107.0312
133.3168, 106.0726
133.7989, 105.4602
134.2810, 109.0423
134.7632, 116.1638
135.2453, 123.0758
135.7274, 126.9400
136.2095, 128.7996
136.6916, 132.5066
137.1737, 139.9720
137.6559, 148.3401
138.1380, 154.8384
138.6201, 159.3180
139.1022, 162.6306
139.5843, 165.0002
140.0664, 166.6595
140.5486, 167.7520
141.0307, 168.5719
141.5128, 170.7878
141.9949, 174.6724
142.4770, 181.8994
142.9591, 188.9550
143.4413, 191.6644
143.9234, 189.7704
144.4055, 187.0878
144.8876, 185.3010
145.3697, 184.0095
145.8518, 183.1320
146.3340, 187.1962
146.8161, 189.1068
147.2982, 186.6017
147.7803, 180.6878
148.2624, 173.9359
148.7445, 168.8316
149.2267, 166.0301
149.7088, 162.2865
150.1909, 156.4331
150.6730, 150.7648
151.1551, 146.3840
151.6372, 143.5062
152.1194, 141.9333
152.6015, 141.5868
153.0836, 143.3340
153.5657, 143.8818
154.0478, 142.9205
154.5299, 140.9166
155.0121, 138.1307
155.4942, 134.5906
155.9763, 130.7149
156.4584, 126.6622
156.9405, 122.0763
157.4226, 119.4461
157.9048, 120.5911
158.3869, 124.1194
158.8690, 127.1320
159.3511, 128.8633
159.8332, 129.8490
160.3153, 131.1142
160.7975, 132.7429
161.2796, 133.3639
161.7617, 131.6640
162.2438, 127.8101
162.7259, 124.2070
163.2081, 122.4403
163.6902, 120.1632
164.1723, 116.5521
164.6544, 111.4388
165.1365, 103.2365
165.6186, 88.35077
166.1008, 64.41034
166.5829, 44.86365
167.0650, 34.80682
167.5471, 27.88071
168.0292, 20.60513
168.5113, 12.06348
168.9935, 9.254055
169.4756, 2.421967
169.9577, 4.826324
170.4398, 6.897980
170.9219, 7.732666
171.4040, 8.780426
171.8862, 11.41425
172.3683, 16.04559
172.8504, 21.26602
173.3325, 23.80518
173.8146, 20.51306
174.2967, 17.84219
174.7789, 16.47391
175.2610, 15.66516
175.7431, 14.59308
176.2252, 12.88129
176.7073, 10.63791
177.1894, 8.189667
177.6716, 4.582581
178.1537, 1.916840
178.6358, 1.480286
179.1179, 2.223480
179.6000, 2.048920
180.0821, 3.550491
180.5643, 3.888885
181.0464, 7.042267
181.5285, 9.718475
182.0106, 11.95639
182.4927, 13.08258
182.9748, 13.51102
183.4570, 15.37006
183.9391, 20.77808
184.4212, 27.55533
184.9033, 30.98111
185.3854, 29.36948
185.8675, 27.07455
186.3497, 27.79599
186.8318, 31.61310
187.3139, 35.64548
187.7960, 38.90601
188.2781, 41.55469
188.7602, 43.64923
189.2424, 45.09302
189.7245, 46.24268
190.2066, 47.51517
190.6887, 48.91321
191.1708, 50.44043
191.6530, 51.94830
192.1351, 53.64319
192.6172, 55.97491
193.0993, 59.24918
193.5814, 62.60397
194.0635, 63.98901
194.5457, 61.84311
195.0278, 60.85953
195.5099, 62.61475
195.9920, 65.54639
196.4741, 68.41135
196.9562, 70.70532
197.4384, 72.20096
197.9205, 72.06516
198.4026, 67.85333
198.8847, 65.38971
199.3668, 66.15619
199.8489, 68.66309
200.3311, 71.27103
200.8132, 73.14609
201.2953, 74.54382
201.7774, 76.46527
202.2595, 80.31802
202.7416, 83.14258
203.2238, 83.64355
203.7059, 83.16919
204.1880, 83.88010
204.6701, 87.04242
205.1522, 91.80576
205.6343, 94.26477
206.1165, 92.64966
206.5986, 91.07410
207.0807, 90.47287
207.5628, 90.50464
208.0449, 90.44775
208.5270, 89.87665
209.0092, 89.01913
209.4913, 88.82846
209.9734, 89.39328
210.4555, 90.33423
210.9376, 91.60059
211.4197, 93.14880
211.9019, 94.94772
212.3840, 97.10809
212.8661, 99.36139
213.3482, 101.0247
213.8303, 102.0425
214.3124, 102.6368
214.7946, 103.2133
215.2767, 103.6043
215.7588, 102.7708
216.2409, 99.73154
216.7230, 95.48016
217.2052, 92.08197
217.6873, 90.07129
218.1694, 87.85159
218.6515, 83.53833
219.1336, 77.24030
219.6157, 72.35510
220.0979, 71.08264
220.5800, 71.34857
221.0621, 71.17389
221.5442, 70.53790
222.0263, 68.68524
222.5084, 64.09430
222.9906, 56.38541
223.4727, 49.89536
223.9548, 46.84320
224.4369, 45.10541
224.9190, 43.22186
225.4011, 40.89877
225.8833, 38.73889
226.3654, 37.66290
226.8475, 37.93427
227.3296, 37.18274
227.8117, 34.03564
228.2938, 30.62302
228.7760, 28.28806
229.2581, 27.28217
229.7402, 27.00632
230.2223, 26.84583
230.7044, 27.02582
231.1865, 26.61542
231.6687, 25.39224
232.1508, 24.23508
232.6329, 22.98389
233.1150, 21.85757
233.5971, 22.09036
234.0792, 26.35754
234.5614, 38.40839
235.0435, 45.08029
235.5256, 41.22635
236.0077, 36.40927
236.4898, 37.13162
236.9719, 44.06262
237.4541, 52.73468
237.9362, 56.89673
238.4183, 53.69678
238.9004, 52.60382
239.3825, 53.47839
239.8646, 56.05505
240.3468, 61.13293
240.8289, 68.32562
241.3110, 75.45972
241.7931, 79.72205
242.2752, 79.42401
242.7573, 81.03094
243.2395, 85.86670
243.7216, 91.29834
244.2037, 95.54742
244.6858, 98.46356
245.1679, 101.2878
245.6501, 105.6519
246.1322, 112.5521
246.6143, 116.4144
247.0964, 115.2571
247.5785, 112.9222
248.0606, 111.2996
248.5428, 110.8290
249.0249, 111.9315
249.5070, 115.5000
249.9891, 122.1864
250.4712, 125.8931
250.9533, 125.2301
251.4355, 122.9061
251.9176, 124.0276
252.3997, 119.1336
252.8818, 120.1678
253.3639, 119.5768
253.8460, 112.4926
254.3282, 113.7927
254.8103, 111.7329
255.2924, 109.5354
255.7745, 112.0158
256.2566, 105.8761
256.7387, 108.2822
257.2209, 107.2769
257.7030, 107.8330
258.1851, 105.0083
258.6672, 103.2278
259.1493, 101.5027
259.6314, 100.5320
260.1136, 100.2243
260.5957, 99.99493
261.0778, 99.68353
261.5599, 99.09146
262.0420, 97.79523
262.5241, 95.05295
263.0063, 92.47479
263.4884, 90.72427
263.9705, 89.88492
264.4526, 90.94891
264.9347, 95.60428
265.4168, 101.7119
265.8990, 105.2526
266.3811, 105.7319
266.8632, 104.6855
267.3453, 102.1363
267.8274, 98.44800
268.3095, 96.58688
268.7917, 98.36865
269.2738, 101.9714
269.7559, 104.8202
270.2380, 106.7909
270.7201, 108.5013
271.2022, 110.1226
271.6844, 111.7331
272.1665, 114.0719
272.6486, 118.2822
273.1307, 122.1680
273.6128, 123.3901
274.0949, 121.9781
274.5771, 120.4305
275.0592, 120.0383
275.5413, 120.7913
276.0234, 122.8312
276.5055, 127.1825
276.9876, 131.5114
277.4698, 133.9917
277.9519, 134.8683
278.4340, 135.4176
278.9161, 136.7595
279.3982, 138.5067
279.8803, 138.7490
280.3625, 136.4689
280.8446, 134.0604
281.3267, 132.9883
281.8088, 132.9051
282.2909, 133.0298
282.7730, 133.2747
283.2552, 133.3931
283.7373, 132.6321
284.2194, 131.1102
284.7015, 128.3547
285.1836, 122.4599
285.6658, 115.8092
286.1479, 112.0453
286.6300, 113.6058
287.1121, 118.1397
287.5942, 120.2449
288.0764, 118.7171
288.5585, 117.4675
289.0406, 117.3573
289.5227, 118.4223
290.0048, 121.1376
290.4869, 125.9894
290.9691, 131.5640
291.4512, 135.2688
291.9333, 136.4426
292.4154, 137.8481
292.8975, 139.4418
293.3796, 142.0332
293.8618, 146.9544
294.3439, 154.5165
294.8260, 162.3900
295.3081, 167.0623
295.7902, 167.4171
296.2723, 168.4702
296.7545, 172.5588
297.2366, 177.0523
297.7187, 180.4650
298.2008, 182.5652
298.6829, 184.0301
299.1650, 185.3978
299.6472, 186.7294
300.1293, 189.0468
300.6114, 194.9804
301.0935, 199.5383
301.5756, 199.3737
302.0577, 195.5480
302.5399, 190.3381
303.0220, 189.8663
303.5041, 188.2524
303.9862, 185.5577
304.4683, 178.5371
304.9504, 177.1087
305.4326, 173.4423
305.9147, 169.6875
306.3968, 169.0541
306.8789, 162.6764
307.3610, 161.9989
307.8431, 159.0496
308.3253, 157.1433
308.8074, 152.9860
309.2895, 149.5878
309.7716, 146.9801
310.2537, 144.4413
310.7358, 142.0742
311.2180, 139.6401
311.7001, 136.3363
312.1822, 130.8940
312.6643, 127.4252
313.1464, 128.4889
313.6285, 130.5175
314.1107, 127.0781
314.5928, 130.8204
315.0749, 132.8452
315.5570, 133.2447
316.0391, 127.1511
316.5212, 129.4420
317.0034, 128.3728
317.4855, 127.1658
317.9676, 130.6368
318.4497, 125.4876
318.9318, 128.8844
319.4139, 128.8698
319.8961, 130.4165
320.3782, 128.5823
320.8603, 125.1159
321.3424, 123.7034
321.8245, 125.2011
322.3066, 128.6340
322.7888, 131.6013
323.2709, 132.2303
323.7530, 130.8522
324.2351, 126.8818
324.7172, 129.9551
325.1993, 131.1871
325.6815, 130.6698
326.1636, 123.5357
326.6457, 124.6624
327.1278, 122.3050
327.6099, 119.6862
328.0920, 121.6215
328.5742, 114.8125
329.0563, 116.4260
329.5384, 114.5044
330.0205, 114.0201
330.5026, 110.0313
330.9847, 106.9628
331.4669, 107.1521
331.9490, 105.3454
332.4311, 103.5119
332.9132, 101.4639
333.3953, 93.32379
333.8774, 92.71585
334.3596, 78.07419
334.8417, 75.35840
335.3238, 77.67001
335.8059, 66.03293
336.2880, 59.93039
336.7701, 53.17303
337.2523, 44.04163
337.7344, 36.27893
338.2165, 32.18652
338.6986, 30.70566
339.1807, 29.27316
339.6628, 26.37744
340.1450, 22.32120
340.6271, 18.17654
341.1092, 13.89850
341.5913, 9.634186
342.0735, 5.347870
342.5556, 5.503850
343.0377, 3.063293
343.5198, 7.404297
344.0019, 11.27097
344.4840, 13.50809
344.9662, 13.87369
345.4483, 13.77988
345.9304, 13.41684
346.4125, 12.85760
346.8946, 12.00043
347.3767, 10.83640
347.8589, 9.809418
348.3410, 9.393829
348.8231, 9.577362
349.3052, 9.805145
349.7873, 9.888519
350.2694, 10.15915
350.7516, 11.01917
351.2337, 12.31091
351.7158, 13.34131
352.1979, 14.40881
352.6800, 14.95557
353.1621, 12.43762
353.6443, 4.997711
354.1264, 1.325836
354.6085, 1.474609
355.0906, 1.487000
355.5727, 2.842957
356.0548, 3.807298
356.5370, 3.285095
357.0191, 7.471863
357.5012, 11.95145
357.9833, 15.29858
358.4654, 15.65155
358.9475, 15.29709
359.4297, 17.19058
359.9118, 22.01654
360.3939, 27.05225
360.8760, 30.36725
361.3581, 32.16913
361.8402, 33.44620
362.3224, 34.06339
362.8045, 34.76761
363.2866, 36.78058
363.7687, 39.91006
364.2508, 42.06079
364.7329, 41.42969
365.2151, 39.60339
365.6972, 39.42978
366.1793, 41.36407
366.6614, 43.57700
367.1435, 44.32956
367.6256, 44.26981
368.1078, 45.41489
368.5899, 48.89337
369.0720, 52.95377
369.5541, 56.57367
370.0362, 59.68701
370.5183, 61.69620
371.0005, 62.05228
371.4826, 61.33835
371.9647, 60.87579
372.4468, 60.63828
372.9289, 60.67542
373.4110, 61.62302
373.8932, 62.74896
374.3753, 62.46237
374.8574, 60.20837
375.3395, 57.38071
375.8216, 55.81274
376.3037, 55.67322
376.7859, 55.27057
377.2680, 53.54501
377.7501, 52.10764
378.2322, 52.57144
378.7143, 54.88126
379.1964, 57.71411
379.6786, 60.30463
380.1607, 62.56277
380.6428, 63.79337
381.1249, 62.01691
381.6070, 61.52042
382.0891, 64.89331
382.5713, 70.49533
383.0534, 75.36484
383.5355, 78.28992
384.0176, 79.54437
384.4997, 79.64374
384.9818, 77.15857
385.4640, 75.95178
385.9461, 75.76331
386.4282, 77.11465
386.9103, 81.16873
387.3924, 87.67947
387.8745, 94.59052
388.3567, 99.75470
388.8388, 102.9450
389.3209, 105.7640
389.8030, 108.2523
390.2851, 110.6075
390.7672, 112.7268
391.2494, 114.9445
391.7315, 117.8457
392.2136, 121.8898
392.6957, 126.6692
393.1778, 129.5569
393.6599, 128.0941
394.1421, 128.2168
394.6242, 130.2337
395.1063, 134.0627
395.5884, 140.8173
396.0706, 150.2848
396.5527, 159.2362
397.0348, 162.6905
397.5169, 158.5432
397.9990, 157.2356
398.4811, 161.6178
398.9633, 166.3388
399.4454, 169.1971
399.9275, 170.6120
400.4096, 172.2569
400.8917, 175.3931
401.3738, 179.2545
401.8560, 180.5363
402.3381, 177.4951
402.8202, 175.5815
403.3023, 177.6065
403.7844, 180.9183
404.2665, 183.2021
404.7487, 183.8733
405.2308, 182.5302
405.7129, 177.3566
406.1950, 167.9204
406.6771, 161.5821
407.1592, 161.9527
407.6414, 163.5464
408.1235, 162.8313
408.6056, 159.8165
409.0877, 155.3385
409.5698, 148.5722
410.0519, 140.9031
410.5341, 135.9124
411.0162, 134.4517
411.4983, 133.9837
411.9804, 132.7738
412.4625, 130.9946
412.9446, 129.3887
413.4268, 128.4704
413.9089, 127.5302
414.3910, 125.8962
414.8731, 123.5161
415.3552, 120.7222
415.8373, 117.3175
416.3195, 114.0661
416.8016, 112.5440
417.2837, 112.9008
417.7658, 112.2505
418.2479, 109.2093
418.7300, 105.0960
419.2122, 101.4427
419.6943, 98.39407
420.1764, 95.08777
420.6585, 90.66934
421.1406, 85.31146
421.6227, 81.11752
422.1049, 78.47342
422.5870, 76.37622
423.0691, 75.06482
423.5512, 73.92505
424.0333, 71.62277
424.5154, 67.59006
424.9976, 62.87222
425.4797, 59.44180
425.9618, 57.83920
426.4439, 56.62640
426.9260, 55.91159
427.4081, 55.48160
427.8903, 55.24298
428.3724, 55.15598
428.8545, 55.22272
429.3366, 55.50870
429.8187, 55.97592
430.3008, 55.80676
430.7830, 54.21515
431.2651, 52.82196
431.7472, 51.57825
432.2293, 50.79053
432.7114, 51.09576
433.1935, 52.68378
433.6757, 54.59683
434.1578, 55.49426
434.6399, 55.62643
435.1220, 53.84735
435.6041, 47.67133
436.0862, 41.56516
436.5684, 38.09256
437.0505, 36.69519
437.5326, 34.95062
438.0147, 30.87320
438.4968, 25.29321
438.9789, 21.41690
439.4611, 20.15875
439.9432, 18.29910
440.4253, 13.50964
440.9074, 7.858521
441.3895, 3.315460
441.8716, 0.2136540
442.3538, 1.451141
442.8359, 0.9921880
443.3180, 1.191010
443.8001, 2.780670
444.2822, 3.449371
444.7643, 3.211517
445.2465, 1.230103
445.7286, 1.973267
446.2107, 3.681580
446.6928, 1.341492
447.1749, 1.602966
447.6570, 0.7872310
448.1392, 3.336578
448.6213, 6.005707
449.1034, 4.400177
449.5855, 5.844841
450.0677, 3.229980
450.5498, 5.302979
451.0319, 6.498718
451.5140, 6.269836
451.9961, 5.475311
452.4782, 5.032471
452.9604, 5.175903
453.4425, 5.960175
453.9246, 7.332184
454.4067, 9.249481
454.8888, 11.66666
455.3709, 14.44244
455.8531, 17.83984
456.3352, 22.80536
456.8173, 28.19843
457.2994, 32.11066
457.7815, 33.64819
458.2636, 33.79639
458.7458, 34.40927
459.2279, 34.70456
459.7100, 37.04694
460.1921, 44.07196
460.6742, 51.04135
461.1563, 54.45291
461.6385, 54.82001
462.1206, 55.21799
462.6027, 58.05267
463.0848, 62.85532
463.5669, 67.42615
464.0490, 71.97885
464.5312, 76.29062
465.0133, 80.11707
465.4954, 83.53958
465.9775, 86.52875
466.4596, 89.08667
466.9417, 91.63120
467.4239, 94.32428
467.9060, 97.24844
468.3881, 100.9042
468.8702, 105.6202
469.3523, 110.4681
469.8344, 114.5872
470.3166, 118.2583
470.7987, 121.6265
471.2808, 125.1491
471.7629, 128.1001
472.2450, 129.5468
472.7271, 129.6939
473.2093, 129.5634
473.6914, 129.5005
474.1735, 129.5423
474.6556, 129.6459
475.1377, 129.5070
475.6198, 130.3555
476.1020, 133.9156
476.5841, 137.4939
477.0662, 138.6034
477.5483, 137.1957
478.0304, 134.6703
478.5125, 131.9351
478.9947, 129.0744
479.4768, 126.9814
479.9589, 126.3710
480.4410, 125.6205
480.9231, 124.7668
481.4052, 123.5334
481.8874, 121.5244
482.3695, 118.7062
482.8516, 115.6500
483.3337, 113.2824
483.8158, 111.8753
484.2979, 108.7428
484.7801, 101.2105
485.2622, 95.00629
485.7443, 93.15039
486.2264, 93.65933
486.7085, 93.35107
487.1906, 90.87875
487.6728, 87.15437
488.1549, 82.94943
488.6370, 78.15662
489.1191, 74.86569
489.6012, 74.40436
490.0833, 74.64067
490.5655, 73.65851
491.0476, 71.60043
491.5297, 69.45508
492.0118, 67.51277
492.4939, 65.75507
492.9760, 64.02383
493.4582, 62.34383
493.9403, 61.47923
494.4224, 62.30814
494.9045, 63.75940
495.3866, 63.01260
495.8687, 59.60735
496.3509, 55.67932
496.8330, 51.32205
497.3151, 46.89787
497.7972, 42.59787
498.2793, 38.55017
498.7614, 35.29543
499.2436, 33.50494
499.7257, 33.04340
500.2078, 31.24466
500.6899, 26.69016
501.1720, 22.73109
501.6541, 19.78784
502.1363, 17.69026
502.6184, 16.36653
503.1005, 15.72937
503.5826, 15.30641
504.0647, 14.88611
504.5468, 14.85498
505.0290, 13.47247
505.5111, 8.788208
505.9932, 4.871704
506.4753, 3.902359
506.9575, 4.872314
507.4396, 5.954529
507.9217, 6.254730
508.4038, 6.010284
508.8859, 5.503845
509.3680, 4.725372
509.8502, 3.460815
510.3323, 2.952025
510.8144, 2.343944
511.2965, 1.832458
511.7786, 2.026611
512.2607, 2.340210
512.7429, 3.307404
513.2250, 4.258392
513.7071, 4.610153
514.1892, 4.433929
514.6713, 4.143250
515.1534, 3.963104
515.6356, 3.623672
516.1177, 2.448151
516.5998, 0.7261660
517.0819, 2.038452
517.5640, 0.2533870
518.0461, 3.088501
518.5283, 4.582535
519.0104, 4.717514
519.4925, 4.027481
519.9746, 2.734161
520.4567, 1.252579
520.9388, 1.305557
521.4210, 4.382782
521.9031, 6.190994
522.3852, 6.182495
522.8673, 4.960129
523.3494, 6.002876
523.8315, 2.099655
524.3137, 5.032059
524.7958, 4.412949
525.2779, 1.267822
525.7600, 1.151367
526.2421, 3.152390
526.7242, 3.188614
527.2064, 1.643585
527.6885, 7.635300
528.1706, 9.619003
528.6527, 6.452103
529.1348, 3.677338
529.6169, 4.949799
530.0991, 8.136597
530.5812, 9.525757
531.0633, 8.690506
531.5454, 7.771362
532.0275, 8.299896
532.5096, 10.10323
532.9918, 11.98143
533.4739, 14.82089
533.9560, 16.59842
534.4381, 16.39464
534.9202, 15.19252
535.4023, 13.83598
535.8845, 12.60004
536.3666, 11.57602
536.8487, 10.78795
537.3308, 10.23396
537.8129, 10.63956
538.2950, 11.87349
538.7772, 14.38002
539.2593, 19.77594
539.7414, 25.63336
540.2235, 29.23141
540.7056, 29.89201
541.1877, 29.40866
541.6699, 29.33347
542.1520, 29.63531
542.6341, 30.11284
543.1162, 30.76945
543.5983, 31.55678
544.0804, 32.26770
544.5626, 33.12575
545.0447, 34.68021
545.5268, 37.47672
546.0089, 40.06723
546.4910, 42.13744
546.9731, 43.31311
547.4553, 42.32144
547.9374, 38.86786
548.4195, 35.32559
548.9016, 34.07295
549.3837, 35.16740
549.8658, 35.61661
550.3480, 35.75594
550.8301, 34.98810
551.3122, 32.10675
551.7943, 28.69447
552.2764, 26.80186
552.7585, 26.90346
553.2407, 27.76567
553.7228, 28.01363
554.2049, 27.63208
554.6870, 26.86241
555.1691, 25.25020
555.6512, 23.90154
556.1334, 23.68617
556.6155, 23.74979
557.0976, 22.87148
557.5797, 20.63907
558.0618, 18.15677
558.5439, 15.82431
559.0261, 13.99440
559.5082, 14.60213
559.9903, 18.59720
560.4724, 21.87045
560.9545, 20.48349
561.4366, 15.55923
561.9188, 13.15645
562.4009, 14.56021
562.8830, 16.94377
563.3651, 20.44617
563.8472, 23.80139
564.3293, 24.94414
564.8115, 23.61531
565.2936, 21.61705
565.7757, 20.72023
566.2578, 20.92120
566.7399, 21.09033
567.2220, 21.66428
567.7042, 21.63071
568.1863, 19.77029
568.6684, 17.69606
569.1505, 17.36659
569.6326, 19.14758
570.1147, 21.53778
570.5969, 23.24960
571.0790, 24.31471
571.5611, 24.86131
572.0432, 24.78484
572.5253, 24.64236
573.0074, 24.94073
573.4896, 25.22874
573.9717, 24.79124
574.4538, 23.47333
574.9359, 22.17415
575.4180, 21.22418
575.9001, 20.39616
576.3823, 19.05627
576.8644, 17.41371
577.3465, 17.66774
577.8286, 21.87920
578.3107, 28.90346
578.7928, 32.93637
579.2750, 30.73901
579.7571, 29.36208
580.2392, 30.18167
580.7213, 31.45384
581.2034, 31.54993
581.6855, 30.66760
582.1677, 30.29597
582.6498, 31.72290
583.1319, 34.43204
583.6140, 36.79156
584.0961, 38.91669
584.5782, 40.42674
585.0604, 41.41164
585.5425, 41.76070
586.0246, 40.79814
586.5067, 38.74333
586.9889, 38.26517
587.4710, 41.33397
587.9531, 46.11095
588.4352, 50.90144
588.9174, 55.54218
589.3995, 59.44585
589.8816, 62.19846
590.3637, 64.54742
590.8458, 67.78452
591.3279, 72.14186
591.8101, 76.86118
592.2922, 81.50229
592.7743, 86.91525
593.2564, 94.82477
593.7385, 103.5934
594.2206, 109.7477
594.7028, 111.6507
595.1849, 111.9959
595.6670, 115.5042
596.1491, 122.7105
596.6312, 129.0853
597.1133, 133.8960
597.5955, 138.4518
598.0776, 143.7111
598.5597, 149.2168
599.0418, 153.8839
599.5239, 156.8011
600.0060, 160.3210
600.4882, 167.0349
600.9703, 175.6977
601.4524, 183.1899
601.9345, 188.8618
602.4166, 194.2784
602.8987, 200.7841
603.3809, 208.2976
603.8630, 215.2460
604.3451, 222.5177
604.8272, 228.2100
605.3093, 230.3538
605.7914, 231.7461
606.2736, 235.8091
606.7557, 242.4716
607.2378, 248.3293
607.7199, 250.1966
608.2020, 248.9935
608.6841, 249.5628
609.1663, 253.0244
609.6484, 255.0251
610.1305, 253.3904
610.6126, 250.5228
611.0947, 247.8734
611.5768, 245.6810
612.0590, 243.2172
612.5411, 240.1146
613.0232, 236.5720
613.5053, 232.8622
613.9874, 229.1608
614.4695, 225.9010
614.9517, 223.5034
615.4338, 221.4706
615.9159, 219.8008
616.3980, 218.7706
616.8801, 217.1436
617.3622, 213.9709
617.8444, 211.2531
618.3265, 210.2540
618.8086, 210.1311
619.2907, 209.5163
619.7728, 207.9238
620.2549, 205.9477
620.7371, 204.0943
621.2192, 202.4021
621.7013, 202.2844
622.1834, 204.9590
622.6655, 206.6936
623.1476, 203.6180
623.6298, 198.4863
624.1119, 195.7722
624.5940, 196.5963
625.0761, 197.5236
625.5582, 198.1463
626.0403, 197.4101
626.5225, 193.3006
627.0046, 186.1038
627.4867, 178.5054
627.9688, 172.0608
628.4509, 166.6756
628.9330, 161.9681
629.4152, 158.4982
629.8973, 154.9040
630.3794, 151.7076
630.8615, 147.5304
631.3436, 141.3425
631.8257, 133.8097
632.3079, 126.3647
632.7900, 119.7086
633.2721, 113.4697
633.7542, 107.1491
634.2363, 100.7928
634.7184, 94.44539
635.2006, 87.75034
635.6827, 81.29016
636.1648, 76.17029
636.6469, 72.27184
637.1290, 67.68045
637.6111, 61.28253
638.0933, 55.73079
638.5754, 52.63777
639.0575, 50.07571
639.5396, 45.62888
640.0217, 39.42989
640.5038, 34.54755
640.9860, 33.82309
641.4681, 36.15250
641.9502, 36.40652
642.4323, 33.79916
642.9144, 31.25212
643.3965, 29.53648
643.8787, 27.93933
644.3608, 25.60800
644.8429, 22.83350
645.3250, 21.10481
645.8071, 21.65314
646.2892, 23.07826
646.7714, 24.53821
647.2535, 25.37560
647.7356, 23.77080
648.2177, 19.04507
648.6998, 13.87372
649.1819, 11.24611
649.6641, 11.21748
650.1462, 11.55531
650.6283, 13.29095
651.1104, 14.10129
651.5925, 12.22208
652.0746, 9.988907
652.5568, 10.44937
653.0389, 13.54875
653.5210, 15.95430
654.0031, 14.56873
654.4852, 10.74126
654.9673, 8.172287
655.4495, 6.980621
655.9316, 5.755768
656.4137, 3.776077
656.8958, 1.879395
657.3779, 1.262527
657.8600, 1.863373
658.3422, 2.765945
658.8243, 4.324005
659.3064, 5.641876
659.7885, 5.878967
660.2706, 5.685349
660.7527, 6.631622
661.2349, 8.961761
661.7170, 10.51028
662.1991, 8.254684
662.6812, 2.469574
663.1633, 5.9921000E-02
663.6454, 3.117310
664.1276, 5.392075
664.6097, 3.568115
665.0918, 0.8844910
665.5739, 1.026703
666.0560, 4.079636
666.5381, 6.307205
667.0203, 5.173401
667.5024, 2.945541
667.9845, 4.182953
668.4666, 3.693924
668.9487, 3.258186
669.4308, 3.252222
669.9130, 2.372192
670.3951, 2.600586
670.8772, 0.8529660
671.3593, 1.170380
671.8414, 1.316405
672.3235, 3.746536
672.8057, 3.435303
673.2878, 3.794296
673.7699, 7.276245
674.2520, 3.995743
674.7341, 2.803589
675.2162, 8.375168
675.6984, 10.20138
676.1805, 6.142151
676.6626, 9.828445
677.1447, 0.3189700
677.6268, 1.666153
678.1089, 8.885849
678.5911, 5.165497
679.0732, 8.967209
679.5553, 9.903870
680.0374, 2.179504
680.5195, 8.378540
681.0016, 9.144119
681.4838, 0.8917240
681.9659, 0.5670170
682.4480, 2.222107
682.9301, 4.046677
683.4122, 4.313751
683.8943, 3.375183
684.3765, 2.550842
684.8586, 1.813538
685.3407, 1.469131
685.8228, 2.086258
686.3049, 2.629791
686.7870, 1.128555
687.2692, 2.336655
687.7513, 3.973389
688.2334, 1.424042
688.7155, 1.186081
689.1976, 1.726273
689.6797, 0.8577120
690.1619, 0.4168550
690.6440, 1.787643
691.1261, 3.380417
691.6082, 5.633347
692.0903, 8.192154
692.5724, 8.167358
693.0546, 4.444702
693.5367, 1.388275
694.0188, 0.2766110
694.5009, 0.2620540
694.9830, 1.238144
695.4651, 2.905319
695.9473, 3.076508
696.4294, 0.9455110
696.9116, 4.618469
697.3937, 4.012573
697.8758, 1.080460
698.3579, 0.6092990
698.8400, 0.2383270
699.3221, 0.9544680
699.8043, 1.871933
700.2864, 2.530273
700.7685, 3.071091
701.2506, 3.582199
701.7327, 3.783600
702.2148, 3.766220
702.6970, 3.284515
703.1791, 1.435425
703.6612, 1.171768
704.1433, 2.192749
704.6254, 0.4877320
705.1075, 3.384506
705.5897, 2.902740
706.0718, 0.7038420
706.5539, 0.4598540
707.0360, 2.780594
707.5181, 5.709976
708.0002, 7.890961
708.4824, 9.123306
708.9645, 8.217957
709.4466, 3.202667
709.9287, 0.1759490
710.4108, 0.8323210
710.8929, 0.3485870
711.3751, 0.7498020
711.8572, 2.272324
712.3393, 4.005234
712.8214, 6.091812
713.3035, 7.804688
713.7856, 8.730316
714.2678, 8.768051
714.7499, 7.152023
715.2320, 3.946411
715.7141, 1.382248
716.1962, 0.9806520
716.6783, 2.196335
717.1605, 3.445633
717.6426, 4.696167
718.1247, 6.038315
718.6068, 7.713715
719.0889, 9.219681
719.5710, 10.98096
720.0532, 10.11679
720.5353, 11.12531
721.0174, 6.762070
721.4995, 3.200500
721.9816, 0.9935610
722.4637, 6.925308
722.9459, 11.40845
723.4280, 12.64049
723.9101, 0.8856960
724.3922, 5.898911
724.8743, 4.191391
725.3564, 2.207550
725.8386, 9.396576
726.3207, 0.4729460
726.8028, 6.748123
727.2849, 7.145706
727.7670, 10.57645
728.2491, 7.333801
728.7313, 6.180084
729.2134, 11.75180
729.6955, 13.61447
730.1776, 9.412399
730.6597, 13.12689
731.1418, 3.014420
731.6240, 5.034332
732.1061, 12.28838
732.5882, 8.601944
733.0703, 12.43726
733.5524, 13.47498
734.0345, 1.424545
734.5167, 12.01607
734.9988, 12.79831
735.4809, 3.541718
735.9630, 13.35576
736.4451, 5.484421
736.9272, 3.931351
737.4094, 7.121689
737.8915, 5.242889
738.3736, 11.28775
738.8557, 9.810364
739.3378, 7.655121
739.8199, 8.430664
740.3021, 6.507614
740.7842, 8.790207
741.2663, 6.146378
741.7484, 8.737259
742.2305, 12.51411
742.7126, 7.201935
743.1948, 11.50652
743.6769, 0.8962710
744.1590, 2.768951
744.6411, 3.290573
745.1232, 11.63722
745.6053, 0.8363190
746.0875, 2.254608
746.5696, 8.906845
747.0517, 8.374756
747.5338, 10.84282
748.0159, 4.372238
748.4980, 6.171356
748.9802, 5.565170
749.4623, 12.77426
749.9444, 13.53754
750.4265, 6.723099
750.9086, 0.1728820
751.3907, 8.214020
751.8729, 2.672836
752.3550, 3.460175
752.8371, 1.896118
753.3192, 1.664932
753.8013, 2.261124
754.2834, 3.650375
754.7656, 5.523666
755.2477, 6.467590
755.7298, 4.689850
756.2119, 2.551620
756.6940, 2.875702
757.1761, 4.757507
757.6583, 5.702484
758.1404, 5.077225
758.6225, 4.141968
759.1046, 4.165695
759.5867, 4.975067
760.0688, 5.399567
760.5510, 5.361008
761.0331, 5.121689
761.5152, 4.482925
761.9973, 3.733734
762.4794, 2.842682
762.9615, 2.044647
763.4437, 2.672806
763.9258, 6.606949
764.4079, 9.105072
764.8900, 5.857651
765.3721, 1.289063
765.8542, 1.297333
766.3364, 5.167511
766.8185, 7.928665
767.3006, 6.834488
767.7827, 3.736084
768.2648, 1.763367
768.7469, 1.000580
769.2291, 1.521606
769.7112, 3.952698
770.1933, 5.822525
770.6754, 5.381149
771.1575, 4.043335
771.6396, 4.443802
772.1218, 6.950943
772.6039, 8.440628
773.0860, 7.657837
773.5681, 6.546982
774.0502, 6.098679
774.5323, 6.013275
775.0145, 5.809601
775.4966, 5.360886
775.9787, 4.722443
776.4608, 3.797531
776.9429, 2.854568
777.4250, 2.867172
777.9072, 3.788391
778.3893, 3.223282
778.8714, 6.6253997E-02
779.3535, 2.264847
779.8356, 0.6658940
780.3177, 7.855316
780.7999, 11.31821
781.2820, 7.790192
781.7641, 5.305573
782.2462, 4.618210
782.7283, 4.807922
783.2104, 5.970764
783.6926, 7.444519
784.1747, 7.967926
784.6568, 7.321747
785.1389, 5.859756
785.6210, 2.884079
786.1031, 0.2071690
786.5853, 7.5836003E-02
787.0674, 2.989502
787.5495, 5.608231
788.0316, 6.296463
788.5137, 6.101318
788.9958, 6.701965
789.4780, 8.312057
789.9601, 7.433578
790.4422, 0.7929080
790.9243, 3.028473
791.4064, 0.7916870
791.8885, 5.904831
792.3707, 7.241074
792.8528, 5.084137
793.3349, 2.756897
793.8170, 0.3693850
794.2991, 0.6494750
794.7813, 1.751938
795.2634, 5.450195
795.7455, 7.645355
796.2276, 8.052002
796.7097, 7.410278
797.1918, 6.061066
797.6740, 4.694138
798.1561, 4.847260
798.6382, 6.593399
799.1203, 8.048080
799.6024, 9.403748
800.0845, 9.501816
800.5667, 6.864395
801.0488, 3.252655
801.5309, 2.065857
802.0130, 3.646759
802.4951, 4.953140
802.9772, 5.506531
803.4594, 5.976120
803.9415, 6.537643
804.4236, 7.252441
804.9057, 8.580872
805.3878, 10.29271
805.8699, 10.99265
806.3521, 9.433380
806.8342, 6.809204
807.3163, 4.162384
807.7985, 1.937195
808.2806, 2.927689
808.7627, 7.711166
809.2448, 11.12614
809.7269, 9.028763
810.2090, 3.642700
810.6912, 2.134903
811.1733, 7.575333
811.6554, 9.529510
812.1375, 3.703018
812.6196, 0.7013550
813.1017, 1.291855
813.5839, 5.960480
814.0660, 8.420944
814.5481, 7.973755
815.0302, 6.781433
815.5123, 4.961990
815.9944, 3.499115
816.4766, 3.615234
816.9587, 4.517334
817.4408, 4.599884
817.9229, 3.622040
818.4050, 2.717529
818.8871, 2.899979
819.3693, 3.691833
819.8514, 3.726624
820.3335, 2.962677
820.8156, 2.295227
821.2977, 1.648422
821.7798, 1.798492
822.2620, 3.380768
822.7441, 6.103653
823.2262, 9.343079
823.7083, 14.80968
824.1904, 16.81409
824.6725, 11.18433
825.1547, 6.510849
825.6368, 8.224976
826.1189, 12.45875
826.6010, 13.68378
827.0831, 11.02643
827.5652, 8.181107
828.0474, 7.223953
828.5295, 7.594360
829.0116, 9.027084
829.4937, 11.19611
829.9758, 13.71980
830.4579, 16.37297
830.9401, 17.54326
831.4222, 15.70753
831.9043, 12.21074
832.3864, 11.49255
832.8685, 14.51703
833.3506, 15.22276
833.8328, 11.54021
834.3149, 8.542175
834.7970, 9.655441
835.2791, 12.88696
835.7612, 14.92802
836.2433, 15.90421
836.7255, 14.94524
837.2076, 8.499908
837.6897, 3.911484
838.1718, 6.160156
838.6539, 11.32928
839.1360, 14.92073
839.6182, 16.14005
840.1003, 16.27034
840.5824, 15.90286
841.0645, 15.27032
841.5466, 14.46616
842.0287, 13.66034
842.5109, 13.76697
842.9930, 14.82207
843.4751, 14.99788
843.9572, 12.93430
844.4393, 9.960129
844.9214, 9.331833
845.4036, 11.69635
845.8857, 13.09705
846.3678, 12.72273
846.8499, 12.95135
847.3320, 15.95482
847.8141, 18.84152
848.2963, 18.12209
848.7784, 13.93378
849.2605, 10.88904
849.7426, 10.48448
850.2247, 10.39607
850.7068, 9.137970
851.1890, 8.208618
851.6711, 9.841385
852.1532, 13.24275
852.6353, 15.49794
853.1174, 15.13780
853.5995, 13.85126
854.0817, 13.82275
854.5638, 14.29771
855.0459, 11.80450
855.5280, 6.713074
856.0101, 5.287674
856.4922, 10.18454
856.9744, 16.44568
857.4565, 17.45827
857.9386, 13.41617
858.4207, 12.40485
858.9028, 16.53604
859.3849, 18.80595
859.8671, 16.28778
860.3492, 13.10732
860.8313, 12.23305
861.3134, 13.12396
861.7955, 14.40344
862.2776, 16.37788
862.7598, 17.64008
863.2419, 17.45087
863.7240, 16.67821
864.2061, 15.59599
864.6882, 14.32285
865.1703, 13.13890
865.6525, 12.15488
866.1346, 11.21286
866.6167, 9.463943
867.0988, 8.241241
867.5809, 10.88019
868.0630, 16.09918
868.5452, 18.47052
869.0273, 16.86606
869.5094, 14.41216
869.9915, 13.35815
870.4736, 13.27707
870.9557, 12.54459
871.4379, 10.71298
871.9200, 10.76097
872.4021, 14.29823
872.8842, 16.34560
873.3663, 13.40547
873.8484, 8.661346
874.3306, 7.024719
874.8127, 8.579849
875.2948, 10.03816
875.7769, 10.74635
876.2590, 11.90955
876.7411, 15.67911
877.2233, 18.61147
877.7054, 16.40512
878.1875, 10.73154
878.6696, 6.792526
879.1517, 7.120789
879.6339, 9.016785
880.1160, 10.96153
880.5981, 12.66644
881.0802, 13.42874
881.5623, 13.34671
882.0444, 12.61496
882.5266, 11.42075
883.0087, 10.97330
883.4908, 12.83554
883.9729, 16.03848
884.4550, 16.61946
884.9371, 14.46298
885.4193, 11.42242
885.9014, 7.351440
886.3835, 4.190140
886.8656, 3.504669
887.3477, 4.535202
887.8298, 5.200821
888.3120, 5.285965
888.7941, 5.574692
889.2762, 5.714081
889.7583, 6.490204
890.2404, 8.981964
890.7225, 11.65079
891.2047, 12.98715
891.6868, 12.93376
892.1689, 12.22349
892.6510, 10.58371
893.1331, 9.016357
893.6152, 7.862259
894.0974, 7.151413
894.5795, 7.227066
895.0616, 7.751465
895.5437, 7.766769
896.0258, 6.879028
896.5079, 5.905396
896.9901, 5.810028
897.4722, 6.245834
897.9543, 6.302444
898.4364, 6.090240
898.9185, 6.669037
899.4006, 8.340454
899.8828, 9.088135
900.3649, 6.805511
900.8470, 2.772324
901.3291, 2.005753
901.8112, 5.490555
902.2933, 7.319260
902.7755, 6.653549
903.2576, 5.152588
903.7397, 2.959946
904.2218, 0.9344330
904.7039, 0.6900630
905.1860, 2.539185
905.6682, 3.825302
906.1503, 4.283951
906.6324, 4.478790
907.1145, 4.702850
907.5966, 4.588867
908.0787, 3.577026
908.5609, 1.983047
909.0430, 0.6964260
909.5251, 5.8749998E-03
910.0072, 0.3908690
910.4893, 1.323929
910.9714, 1.416962
911.4536, 2.579544
911.9357, 2.485796
912.4178, 2.472590
912.8999, 3.649734
913.3820, 2.201736
913.8641, 5.160950
914.3463, 5.876160
914.8284, 4.831802
915.3105, 2.513931
915.7926, 1.376450
916.2748, 1.706665
916.7569, 1.408386
917.2390, 0.8391570
917.7211, 0.7918903
918.2032, 0.6904365
918.6854, 0.9709930
919.1675, 1.197830
919.6496, 3.110474
920.1317, 4.347488
920.6138, 4.881821
921.0959, 4.574066
921.5781, 2.924316
922.0602, 3.157632
922.5423, 1.567780
923.0244, 2.508698
923.5065, 2.998795
923.9886, 3.402634
924.4708, 2.966888
924.9529, 3.8451999E-02
925.4350, 3.159302
925.9171, 3.238693
926.3992, 0.1756740
926.8813, 1.749100
927.3635, 0.3121190
927.8456, 2.555191
928.3277, 2.572388
928.8098, 1.793030
929.2919, 1.972748
929.7740, 2.817520
930.2562, 2.965866
930.7383, 1.865417
931.2204, 2.574219
931.7025, 1.198654
932.1846, 2.407364
932.6667, 2.496689
933.1489, 1.690186
933.6310, 0.6528780
934.1131, 0.3972320
934.5952, 0.7299960
935.0773, 0.4089970
935.5594, 0.7021696
936.0416, 0.4706880
936.5237, 1.216374
937.0058, 1.775164
937.4879, 2.122040
937.9700, 2.566772
938.4521, 3.973694
938.9343, 3.297501
939.4164, 3.497743
939.8985, 1.124069
940.3806, 2.308151
940.8627, 1.581497
941.3448, 0.1362760
941.8270, 3.114227
942.3091, 5.662994
942.7912, 5.620255
943.2733, 4.290726
943.7554, 3.643921
944.2375, 3.781128
944.7197, 4.383911
945.2018, 5.946793
945.6839, 7.338226
946.1660, 7.971512
946.6481, 8.361633
947.1302, 8.960892
947.6124, 9.754959
948.0945, 10.56448
948.5766, 11.36775
949.0587, 11.93735
949.5408, 11.94930
950.0229, 11.82860
950.5051, 11.83772
950.9872, 12.09795
951.4693, 12.85655
951.9514, 14.10367
952.4335, 15.43181
952.9156, 16.48932
953.3978, 17.70358
953.8799, 19.93137
954.3620, 22.75044
954.8441, 25.13283
955.3262, 26.98918
955.8083, 28.35179
956.2905, 29.23378
956.7726, 29.90604
957.2547, 30.50299
957.7368, 31.28702
958.2189, 33.76938
958.7010, 38.02774
959.1832, 41.54375
959.6653, 44.01558
960.1474, 45.83820
960.6295, 47.04326
961.1116, 48.18887
961.5938, 50.30524
962.0759, 53.43423
962.5580, 56.92220
963.0401, 61.46844
963.5222, 65.08096
964.0043, 67.20140
964.4865, 68.39095
964.9686, 68.97578
965.4507, 68.94751
965.9328, 67.94572
966.4149, 64.20897
966.8970, 64.16875
967.3792, 71.08087
967.8613, 78.34634
968.3434, 84.90739
968.8255, 89.69913
969.3076, 90.64398
969.7897, 88.65514
970.2719, 88.76208
970.7540, 93.15387
971.2361, 97.75034
971.7182, 102.0369
972.2003, 105.1826
972.6824, 104.8617
973.1646, 103.7958
973.6467, 106.1902
974.1288, 112.5944
974.6109, 120.5757
975.0930, 130.2682
975.5751, 138.5365
976.0573, 141.5260
976.5394, 141.7771
977.0215, 142.2662
977.5036, 143.6457
977.9857, 146.5750
978.4678, 151.2775
978.9500, 156.8826
979.4321, 162.7890
979.9142, 168.9084
980.3963, 174.8038
980.8784, 180.4452
981.3605, 185.8478
981.8427, 191.0607
982.3248, 196.3229
982.8069, 201.6998
983.2890, 207.1797
983.7711, 213.4444
984.2532, 220.4582
984.7354, 226.2302
985.2175, 230.5827
985.6996, 235.9740
986.1817, 243.3128
986.6638, 250.8130
987.1459, 257.4324
987.6281, 262.4931
988.1102, 264.1479
988.5923, 261.8145
989.0744, 261.5161
989.5565, 264.5313
990.0386, 265.2482
990.5208, 260.8843
991.0029, 255.9680
991.4850, 254.9015
991.9671, 256.3911
992.4492, 255.4165
992.9313, 250.9551
993.4135, 246.5900
993.8956, 242.5659
994.3777, 237.9639
994.8598, 232.3264
995.3419, 227.1403
995.8240, 223.8770
996.3062, 221.8671
996.7883, 217.5380
997.2704, 208.8772
997.7525, 200.9728
998.2346, 195.2474
998.7167, 189.5913
999.1989, 182.7108
999.6810, 175.3246
1000.163, 168.3838
1000.645, 161.9230
1001.127, 155.6475
1001.609, 148.7426
1002.092, 143.1267
1002.574, 140.5928
1003.056, 138.6515
1003.538, 135.0327
1004.020, 130.7940
1004.502, 128.2441
1004.984, 127.5982
1005.466, 126.3365
1005.948, 122.4912
1006.431, 118.5102
1006.913, 116.4869
1007.395, 115.0971
1007.877, 112.6050
1008.359, 109.4352
1008.841, 106.8981
1009.323, 105.4057
1009.805, 104.6363
1010.288, 104.4010
1010.770, 104.7121
1011.252, 106.5311
1011.734, 108.4816
1012.216, 107.5469
1012.698, 104.1574
1013.180, 100.7065
1013.662, 98.26682
1014.144, 97.52013
1014.627, 100.3268
1015.109, 104.2875
1015.591, 104.0806
1016.073, 100.9151
1016.555, 98.42592
1017.037, 97.19144
1017.519, 96.97847
1018.001, 97.69211
1018.484, 98.89397
1018.966, 100.3327
1019.448, 101.6785
1019.930, 101.2888
1020.412, 99.53197
1020.894, 98.89886
1021.376, 99.64384
1021.858, 101.4985
1022.340, 104.6377
1022.823, 107.4278
1023.305, 106.7486
1023.787, 103.1063
1024.269, 101.6672
1024.751, 102.6111
1025.233, 104.0455
1025.715, 105.6750
1026.197, 106.3551
1026.680, 105.1239
1027.162, 102.9113
1027.644, 101.8608
1028.126, 102.2172
1028.608, 100.8218
1029.090, 96.49678
1029.572, 95.31644
1030.054, 99.85968
1030.536, 104.2524
1031.019, 104.3843
1031.501, 102.0483
1031.983, 100.7460
1032.465, 100.4111
1032.947, 99.89389
1033.429, 98.78622
1033.911, 98.53870
1034.393, 99.43411
1034.875, 101.3192
1035.358, 104.1380
1035.840, 107.8370
1036.322, 112.3129
1036.804, 117.6562
1037.286, 123.4766
1037.768, 130.4283
1038.250, 136.6583
1038.732, 141.4230
1039.215, 145.7605
1039.697, 150.0830
1040.179, 154.6281
1040.661, 159.7804
1041.143, 165.0804
1041.625, 172.7323
1042.107, 185.7780
1042.589, 197.0046
1043.072, 204.5786
1043.554, 210.3192
1044.036, 213.4791
1044.518, 216.0721
1045.000, 223.3771
1045.482, 237.1058
1045.964, 249.2308
1046.446, 258.4525
1046.928, 267.0148
1047.411, 275.2076
1047.893, 283.1852
1048.375, 290.6779
1048.857, 298.1593
1049.339, 307.2257
1049.821, 318.9530
1050.303, 327.5320
1050.785, 330.8626
1051.267, 332.5297
1051.750, 332.1771
1052.232, 331.9272
1052.714, 334.9241
1053.196, 338.9120
1053.678, 338.3707
1054.160, 331.8368
1054.642, 325.4467
1055.124, 322.6781
1055.607, 317.6050
1056.089, 305.7622
1056.571, 292.8276
1057.053, 284.7719
1057.535, 278.9371
1058.017, 268.2221
1058.499, 250.7901
1058.981, 235.5386
1059.464, 227.0634
1059.946, 219.0084
1060.428, 208.8927
1060.910, 197.7377
1061.392, 186.3558
1061.874, 174.7909
1062.356, 162.4064
1062.838, 148.9857
1063.320, 137.1035
1063.802, 129.2585
1064.285, 121.0865
1064.767, 109.9888
1065.249, 98.39874
1065.731, 88.46220
1066.213, 79.68742
1066.695, 70.20865
1067.177, 59.74446
1067.659, 51.95822
1068.142, 51.05342
1068.624, 49.62239
1069.106, 43.61139
1069.588, 36.23119
1070.070, 29.08049
1070.552, 23.02130
1071.034, 19.18449
1071.516, 17.70444
1071.999, 16.97325
1072.481, 17.24300
1072.963, 16.90509
1073.445, 15.46480
1073.927, 12.86781
1074.409, 7.490250
1074.891, 1.671326
1075.373, 0.3146060
1075.855, 1.802475
1076.338, 3.354599
1076.820, 2.468750
1077.302, 0.6444400
1077.784, 2.837753
1078.266, 5.537918
1078.748, 4.688370
1079.230, 2.226822
1079.712, 1.080917
1080.194, 1.585205
1080.677, 2.451782
1081.159, 3.148972
1081.641, 4.228180
1082.123, 6.804291
1082.605, 8.954636
1083.087, 9.474762
1083.569, 8.569275
1084.052, 5.595657
1084.534, 1.392624
1085.016, 0.3116000
1085.498, 2.863373
1085.980, 5.307175
1086.462, 3.682144
1086.944, 1.496307
1087.426, 0.5303800
1087.908, 0.6537630
1088.391, 2.745605
1088.873, 5.620438
1089.355, 4.913559
1089.837, 6.628610
1090.319, 6.575302
1090.801, 7.297394
1091.283, 6.865143
1091.765, 6.394806
1092.247, 6.126831
1092.730, 6.411713
1093.212, 7.080902
1093.694, 7.583328
1094.176, 7.697830
1094.658, 8.712143
1095.140, 12.38400
1095.622, 15.28661
1096.104, 15.00699
1096.587, 14.16099
1097.069, 15.28409
1097.551, 17.56976
1098.033, 18.98282
1098.515, 19.08920
1098.997, 19.09872
1099.479, 19.61906
1099.961, 19.72552
1100.443, 18.99055
1100.926, 17.85239
1101.408, 15.67645
1101.890, 13.78044
1102.372, 15.01593
1102.854, 19.39819
1103.336, 21.46100
1103.818, 17.72157
1104.300, 14.91592
1104.782, 15.80029
1105.265, 16.52190
1105.747, 14.37367
1106.229, 11.27463
1106.711, 9.574997
1107.193, 9.311111
1107.675, 9.466599
1108.157, 9.943863
1108.639, 10.77246
1109.122, 13.39349
1109.604, 14.57730
1110.086, 11.67735
1110.568, 7.896713
1111.050, 6.150467
1111.532, 6.167480
1112.014, 6.637802
1112.496, 8.003845
1112.979, 8.444748
1113.461, 6.863235
1113.943, 5.756958
1114.425, 6.530106
1114.907, 7.158447
1115.389, 6.074234
1115.871, 3.856277
1116.353, 1.521439
1116.835, 1.285934
1117.318, 2.079147
1117.800, 0.2091980
1118.282, 2.562500
1118.764, 6.969681
1119.246, 10.76334
1119.728, 12.90981
1120.210, 13.47980
1120.692, 12.05409
1121.174, 8.711639
1121.657, 7.726181
1122.139, 9.395462
1122.621, 12.96759
1123.103, 20.03996
1123.585, 24.84174
1124.067, 24.25777
1124.549, 21.57526
1125.031, 20.02011
1125.514, 19.69791
1125.996, 21.51714
1126.478, 26.25531
1126.960, 28.65488
1127.442, 28.01035
1127.924, 27.51701
1128.406, 28.04227
1128.888, 27.43439
1129.370, 29.70787
1129.853, 30.83482
1130.335, 30.87930
1130.817, 26.59473
1131.299, 27.89957
1131.781, 26.96400
1132.263, 25.93636
1132.745, 28.02699
1133.227, 24.36353
1133.709, 27.82803
1134.192, 29.74887
1134.674, 30.05441
1135.156, 28.93604
1135.638, 26.43234
1136.120, 22.81602
1136.602, 21.58553
1137.084, 22.84061
1137.566, 22.29686
1138.049, 18.27553
1138.531, 13.59796
1139.013, 10.68359
1139.495, 9.541962
1139.977, 11.42778
1140.459, 14.71953
1140.941, 14.45724
1141.423, 11.31171
1141.906, 8.585342
1142.388, 7.258896
1142.870, 7.062241
1143.352, 7.871841
1143.834, 8.240845
1144.316, 5.647217
1144.798, 2.528885
1145.280, 3.782578
1145.762, 6.693710
1146.245, 4.285873
1146.727, 2.265182
1147.209, 4.853195
1147.691, 0.2016910
1148.173, 4.999252
1148.655, 6.387573
1149.137, 5.566925
1149.619, 2.495712
1150.101, 0.8233180
1150.584, 1.899780
1151.066, 1.380096
1151.548, 1.016647
1152.030, 1.092316
1152.512, 0.8804780
1152.994, 0.2062990
1153.476, 1.366684
1153.958, 2.442413
1154.441, 3.110382
1154.923, 2.191223
1155.405, 1.316101
1155.887, 3.208786
1156.369, 7.075592
1156.851, 8.644943
1157.333, 6.322464
1157.815, 5.580322
1158.297, 9.150391
1158.780, 12.60796
1159.262, 14.29811
1159.744, 15.36682
1160.226, 16.27579
1160.708, 17.36548
1161.190, 19.46765
1161.672, 22.70003
1162.154, 25.02711
1162.636, 26.35098
1163.119, 26.89540
1163.601, 25.78586
1164.083, 25.71516
1164.565, 28.59566
1165.047, 31.60587
1165.529, 30.90692
1166.011, 34.19557
1166.493, 35.04276
1166.976, 37.97003
1167.458, 40.10596
1167.940, 41.50365
1168.422, 43.56210
1168.904, 43.41132
1169.386, 45.61899
1169.868, 47.06343
1170.350, 46.07658
1170.833, 47.59660
1171.315, 47.72423
1171.797, 47.54140
1172.279, 48.64748
1172.761, 46.61548
1173.243, 47.16962
1173.725, 46.32448
1174.207, 45.68298
1174.689, 43.50810
1175.172, 42.47816
1175.654, 41.48434
1176.136, 39.17897
1176.618, 39.85109
1177.100, 39.60779
1177.582, 38.54620
1178.064, 37.26006
1178.546, 35.83052
1179.028, 33.99716
1179.511, 31.63104
1179.993, 29.13789
1180.475, 26.20065
1180.957, 23.92973
1181.439, 24.08237
1181.921, 25.05159
1182.403, 24.98333
1182.885, 23.96049
1183.368, 22.63826
1183.850, 21.15565
1184.332, 19.20010
1184.814, 15.77996
1185.296, 13.45293
1185.778, 14.80320
1186.260, 15.79388
1186.742, 12.69812
1187.224, 8.979080
1187.707, 8.672546
1188.189, 11.14188
1188.671, 13.65325
1189.153, 16.77708
1189.635, 16.71062
1190.117, 8.998260
1190.599, 4.564140
1191.081, 7.798874
1191.564, 10.65199
1192.046, 7.983009
1192.528, 3.497604
1193.010, 2.409637
1193.492, 4.264832
1193.974, 5.182686
1194.456, 4.931740
1194.938, 4.950508
1195.421, 5.345558
1195.903, 5.805862
1196.385, 6.247765
1196.867, 6.625740
1197.349, 6.927582
1197.831, 6.984924
1198.313, 6.544174
1198.795, 5.601891
1199.277, 3.647926
1199.760, 1.107605
1200.242, 0.5349200
1200.724, 1.965546
1201.206, 3.648804
1201.688, 4.848030
1202.170, 5.201904
1202.652, 3.931351
1203.134, 2.911232
1203.616, 5.902679
1204.099, 4.138649
1204.581, 7.830116
1205.063, 3.314850
1205.545, 1.188431
1206.027, 1.628777
1206.509, 2.679306
1206.991, 3.774040
1207.473, 4.134254
1207.956, 1.976395
1208.438, 0.5548780
1208.920, 3.361244
1209.402, 5.888725
1209.884, 2.972137
1210.366, 1.726555
1210.848, 1.830246
1211.330, 2.527222
1211.813, 5.293663
1212.295, 5.636208
1212.777, 4.678207
1213.259, 0.4968720
1213.741, 1.607452
1214.223, 1.353149
1214.705, 3.900993
1215.187, 1.622978
1215.669, 2.625648
1216.151, 3.518044
1216.634, 1.273430
1217.116, 0.5065610
1217.598, 1.771225
1218.080, 3.286308
1218.562, 5.178192
1219.044, 6.208115
1219.526, 5.950188
1220.008, 4.353127
1220.491, 1.092064
1220.973, 2.076485
1221.455, 1.833374
1221.937, 0.7498090
1222.419, 3.790604
1222.901, 6.586403
1223.383, 7.078636
1223.865, 5.525856
1224.348, 3.553772
1224.830, 1.850922
1225.312, 1.319809
1225.794, 3.578400
1226.276, 5.370377
1226.758, 2.939735
1227.240, 5.6030001E-02
1227.722, 0.2161100
1228.204, 1.862091
1228.687, 2.717873
1229.169, 2.947655
1229.651, 4.298653
1230.133, 7.686005
1230.615, 9.211555
1231.097, 6.609390
1231.579, 4.460449
1232.061, 3.635773
1232.543, 3.486809
1233.026, 4.192787
1233.508, 4.893333
1233.990, 4.580872
1234.472, 3.468285
1234.954, 2.290482
1235.436, 0.8526540
1235.918, 0.9731750
1236.400, 2.866287
1236.883, 3.797867
1237.365, 3.144447
1237.847, 3.142044
1238.329, 5.019958
1238.811, 7.083496
1239.293, 7.338959
1239.775, 6.518776
1240.257, 5.786263
1240.740, 5.357338
1241.222, 5.576195
1241.704, 6.294731
1242.186, 7.198555
1242.668, 8.136879
1243.150, 8.828735
1243.632, 9.044922
1244.114, 9.277214
1244.596, 10.73968
1245.078, 11.46688
1245.561, 9.105629
1246.043, 6.681839
1246.525, 7.301384
1247.007, 9.151390
1247.489, 9.323936
1247.971, 7.631966
1248.453, 5.843361
1248.935, 2.709541
1249.418, 2.136589
1249.900, 6.055069
1250.382, 9.436707
1250.864, 11.68488
1251.346, 12.23180
1251.828, 8.761475
1252.310, 5.372108
1252.792, 5.947151
1253.275, 3.522560
1253.757, 7.840340
1254.239, 2.869812
1254.721, 2.391235
1255.203, 6.399696
1255.685, 8.422997
1256.167, 7.274551
1256.649, 5.880432
1257.131, 5.791702
1257.614, 6.794151
1258.096, 10.38557
1258.578, 13.74568
1259.060, 12.77984
1259.542, 14.53446
1260.024, 10.93887
1260.506, 12.48152
1260.988, 10.50334
1261.470, 5.541199
1261.953, 2.927231
1262.435, 4.467094
1262.917, 6.597023
1263.399, 9.797165
1263.881, 11.54148
1264.363, 10.20030
1264.845, 8.333824
1265.327, 6.368118
1265.810, 5.542297
1266.292, 7.800171
1266.774, 12.08903
1267.256, 14.29142
1267.738, 14.34645
1268.220, 12.49982
1268.702, 8.727386
1269.184, 4.701889
1269.667, 0.7843860
1270.149, 0.7820280
1270.631, 6.352127
1271.113, 11.78523
1271.595, 11.57346
1272.077, 8.588661
1272.559, 5.995987
1273.041, 4.390114
1273.523, 5.338051
1274.005, 7.566071
1274.488, 9.307709
1274.970, 10.05157
1275.452, 8.869110
1275.934, 5.489517
1276.416, 4.277649
1276.898, 9.240677
1277.380, 12.97893
1277.862, 12.50783
1278.345, 11.62065
1278.827, 12.69363
1279.309, 13.40181
1279.791, 10.62538
1280.273, 10.79722
1280.755, 9.907295
1281.237, 7.699623
1281.719, 7.805046
1282.202, 5.578880
1282.684, 2.983192
1283.166, 0.2326810
1283.648, 0.4886400
1284.130, 1.445015
1284.612, 4.109016
1285.094, 6.094566
1285.576, 4.125557
1286.058, 2.746872
1286.541, 1.038490
1287.023, 0.0000000E+00
##END=



