##NAMES=Leucophosphite
##RRUFFID=R060338
##IDEAL CHEMISTRY=KFe^3+^_2_(PO_4_)_2_(OH)&#183;2H_2_O
##LOCALITY=Gunheath pit, St. Austell, Cornwall, England
##OWNER=RRUFF
##SOURCE=Michael Scott
##DESCRIPTION=White to pale pink spherical aggregates associated with green chalcosiderite, R060339, and orange cyrilovite, R060504
##STATUS=The identification of this mineral is confirmed by single-crystal X-ray diffraction and chemical analysis.
##URL=rruff.info/R060338
##MEASURED CHEMISTRY=K_1.00_(Fe^3+^_1.90_Al_0.10_)_Σ=2_(P_1.00_O_4_)_2_(OH)·2.75H_2_O; H_2_O estimated by difference; (OH) by charge balance
103.5861, 0.0000000E+00
104.0682, 1.410706
104.5504, 2.927979
105.0325, 4.127319
105.5146, 4.975677
105.9967, 5.360901
106.4788, 4.787445
106.9609, 4.523468
107.4431, 4.929016
107.9252, 5.495148
108.4073, 5.060394
108.8894, 3.547791
109.3715, 1.747833
109.8536, 0.5486450
110.3358, 4.0833000E-02
110.8179, 0.3595890
111.3000, 0.2482150
111.7821, 0.2055210
112.2642, 0.2245480
112.7463, 1.561554
113.2285, 3.258118
113.7106, 4.008438
114.1927, 3.731720
114.6748, 3.088440
115.1569, 2.928116
115.6390, 3.427643
116.1212, 3.929581
116.6033, 4.629959
117.0854, 5.092529
117.5675, 4.698990
118.0496, 3.004898
118.5317, 0.4251560
119.0139, 1.016296
119.4960, 0.1788940
119.9781, 0.7156830
120.4602, 1.341156
120.9423, 1.762863
121.4244, 2.133118
121.9066, 2.474014
122.3887, 2.680450
122.8708, 3.975266
123.3529, 6.626038
123.8350, 9.670563
124.3171, 12.88234
124.7993, 16.16608
125.2814, 19.26157
125.7635, 21.77699
126.2456, 23.49152
126.7277, 26.19397
127.2098, 30.62189
127.6920, 35.73192
128.1741, 40.53587
128.6562, 44.82986
129.1383, 48.76627
129.6204, 52.30606
130.1025, 55.49280
130.5847, 58.94460
131.0668, 62.97836
131.5489, 67.49040
132.0310, 72.11502
132.5131, 76.86917
132.9952, 81.71225
133.4774, 86.32306
133.9595, 90.71826
134.4416, 95.73517
134.9237, 102.5114
135.4058, 111.4308
135.8879, 119.6581
136.3701, 125.5994
136.8522, 131.3407
137.3343, 138.0815
137.8164, 146.4871
138.2985, 156.5714
138.7806, 167.5217
139.2628, 179.3806
139.7449, 190.9021
140.2270, 202.0747
140.7091, 211.9997
141.1912, 220.3538
141.6733, 226.6460
142.1555, 230.9192
142.6376, 233.9011
143.1197, 235.7090
143.6018, 236.5294
144.0839, 236.1339
144.5660, 235.0003
145.0482, 233.9102
145.5303, 233.3884
146.0124, 233.2322
146.4945, 231.8948
146.9766, 229.0678
147.4587, 225.6808
147.9409, 222.1750
148.4230, 218.4783
148.9051, 214.1589
149.3872, 208.6286
149.8693, 202.1438
150.3514, 196.2971
150.8336, 191.2881
151.3157, 186.8231
151.7978, 182.6787
152.2799, 178.8421
152.7620, 175.2271
153.2441, 171.4049
153.7263, 167.7596
154.2084, 165.0945
154.6905, 164.3633
155.1726, 164.7213
155.6547, 164.2586
156.1368, 162.6269
156.6190, 160.7572
157.1011, 159.4473
157.5832, 158.3217
158.0653, 156.5677
158.5474, 153.1226
159.0295, 148.2206
159.5117, 145.0184
159.9938, 144.5724
160.4759, 144.9936
160.9580, 145.9351
161.4401, 147.5601
161.9222, 149.2823
162.4044, 151.0803
162.8865, 153.2135
163.3686, 153.8255
163.8507, 153.5799
164.3328, 151.4360
164.8149, 146.7421
165.2971, 139.5253
165.7792, 130.3539
166.2613, 119.6674
166.7434, 106.8466
167.2255, 94.28378
167.7076, 81.66776
168.1898, 69.40561
168.6719, 57.59216
169.1540, 46.27554
169.6361, 35.92616
170.1182, 27.26105
170.6003, 20.82831
171.0825, 15.06125
171.5646, 9.916977
172.0467, 5.415512
172.5288, 1.648865
173.0109, 1.326706
173.4930, 3.725784
173.9752, 5.834900
174.4573, 7.720535
174.9394, 9.251846
175.4215, 10.49408
175.9036, 11.37112
176.3857, 11.63820
176.8679, 11.08139
177.3500, 10.04985
177.8321, 9.345993
178.3142, 9.040390
178.7963, 8.523422
179.2784, 7.357513
179.7606, 5.604309
180.2427, 3.822479
180.7248, 2.270798
181.2069, 0.6015170
181.6890, 1.496063
182.1711, 4.068085
182.6533, 6.788574
183.1354, 9.412170
183.6175, 11.95085
184.0996, 14.30296
184.5817, 15.88159
185.0638, 17.62198
185.5460, 20.29688
186.0281, 24.04053
186.5102, 28.02147
186.9923, 31.06790
187.4744, 32.90866
187.9565, 34.47589
188.4387, 35.71211
188.9208, 36.87021
189.4029, 38.16295
189.8850, 39.65283
190.3671, 41.16591
190.8492, 42.35345
191.3314, 42.72227
191.8135, 43.57730
192.2956, 45.35229
192.7777, 47.40187
193.2598, 49.15909
193.7419, 50.39731
194.2241, 51.29529
194.7062, 52.28038
195.1883, 53.31177
195.6704, 54.50943
196.1525, 55.85985
196.6346, 57.36932
197.1168, 58.99185
197.5989, 60.69720
198.0810, 62.60364
198.5631, 65.10413
199.0452, 68.83640
199.5273, 72.28769
200.0095, 75.29025
200.4916, 77.85037
200.9737, 79.98224
201.4558, 81.68784
201.9379, 82.99319
202.4200, 84.00204
202.9022, 84.84035
203.3843, 85.28522
203.8664, 85.29578
204.3485, 84.85760
204.8306, 83.90105
205.3127, 82.33063
205.7949, 80.25702
206.2770, 77.98331
206.7591, 75.39685
207.2412, 72.85190
207.7233, 70.42145
208.2054, 68.13919
208.6876, 66.22702
209.1697, 64.55841
209.6518, 63.57382
210.1339, 63.77194
210.6160, 65.37119
211.0981, 67.57892
211.5803, 70.00464
212.0624, 72.64589
212.5445, 74.91026
213.0266, 75.95999
213.5087, 76.91214
213.9908, 79.01346
214.4730, 82.60951
214.9551, 86.37691
215.4372, 88.76630
215.9193, 89.60309
216.4014, 90.21915
216.8836, 91.47847
217.3657, 92.35754
217.8478, 91.84329
218.3299, 89.66788
218.8120, 87.01700
219.2941, 85.60429
219.7763, 85.86545
220.2584, 85.93436
220.7405, 85.65039
221.2226, 84.96545
221.7047, 83.92067
222.1868, 82.50778
222.6690, 80.49280
223.1511, 77.33687
223.6332, 72.29642
224.1153, 67.76282
224.5974, 64.43127
225.0795, 61.32806
225.5617, 57.75444
226.0438, 53.51779
226.5259, 48.91454
227.0080, 44.34747
227.4901, 39.31828
227.9722, 35.39821
228.4544, 33.12169
228.9365, 31.49057
229.4186, 29.91446
229.9007, 28.12985
230.3828, 25.96002
230.8649, 23.15491
231.3471, 19.17822
231.8292, 15.50119
232.3113, 12.27539
232.7934, 9.264252
233.2755, 6.069794
233.7576, 2.666840
234.2398, 0.3606260
234.7219, 1.977783
235.2040, 0.9465330
235.6861, 0.5873410
236.1682, 1.585236
236.6503, 2.893585
237.1325, 3.618317
237.6146, 3.487701
238.0967, 2.678558
238.5788, 1.426239
239.0609, 0.4271240
239.5430, 2.428406
240.0252, 4.587341
240.5073, 6.798492
240.9894, 8.861633
241.4715, 10.73047
241.9536, 12.67062
242.4357, 15.07849
242.9179, 17.98984
243.4000, 21.23953
243.8821, 24.92648
244.3642, 28.88684
244.8463, 32.88416
245.3284, 36.87912
245.8106, 41.10941
246.2927, 45.97220
246.7748, 51.49426
247.2569, 56.94666
247.7390, 62.31241
248.2211, 67.53714
248.7033, 72.55533
249.1854, 77.35974
249.6675, 81.99899
250.1496, 86.42178
250.6317, 90.70560
251.1138, 95.19199
251.5960, 100.3152
252.0781, 105.5398
252.5602, 110.0984
253.0423, 113.7907
253.5244, 117.4289
254.0065, 121.9925
254.4887, 127.0702
254.9708, 131.4629
255.4529, 134.3833
255.9350, 136.6375
256.4171, 139.4300
256.8992, 142.9586
257.3813, 146.2730
257.8635, 148.5862
258.3456, 150.2279
258.8277, 151.6664
259.3098, 153.0159
259.7919, 154.2221
260.2740, 155.2606
260.7562, 156.1809
261.2383, 156.7051
261.7204, 156.6039
262.2025, 156.0151
262.6846, 154.9447
263.1667, 153.1043
263.6489, 151.1334
264.1310, 150.0934
264.6131, 150.2512
265.0952, 150.1722
265.5773, 148.8985
266.0594, 147.1904
266.5416, 145.7062
267.0237, 144.6159
267.5058, 143.8235
267.9879, 143.1136
268.4700, 142.3943
268.9521, 142.2166
269.4343, 143.0354
269.9164, 144.3594
270.3985, 145.9673
270.8806, 147.8353
271.3627, 149.7094
271.8448, 151.0461
272.3270, 151.5916
272.8091, 152.9561
273.2912, 156.0824
273.7733, 159.8311
274.2554, 163.7056
274.7375, 167.6141
275.2197, 171.3942
275.7018, 174.9290
276.1839, 178.2082
276.6660, 181.2081
277.1481, 183.7772
277.6302, 186.1348
278.1124, 188.5340
278.5945, 190.9100
279.0766, 192.7432
279.5587, 193.3642
280.0408, 192.6394
280.5229, 191.9560
281.0051, 191.5147
281.4872, 190.9959
281.9693, 190.5664
282.4514, 190.0210
282.9335, 188.7902
283.4156, 186.3736
283.8978, 182.7601
284.3799, 178.4851
284.8620, 173.0123
285.3441, 167.3520
285.8262, 161.8758
286.3083, 156.4888
286.7905, 150.8715
287.2726, 144.6834
287.7547, 138.0448
288.2368, 132.2678
288.7189, 127.8967
289.2010, 123.8235
289.6832, 119.9077
290.1653, 116.0712
290.6474, 112.0965
291.1295, 107.7857
291.6116, 103.5037
292.0938, 100.6055
292.5759, 100.2654
293.0580, 99.59467
293.5401, 97.01971
294.0222, 94.15900
294.5043, 93.00607
294.9865, 94.48953
295.4686, 97.64801
295.9507, 100.1503
296.4328, 101.5821
296.9149, 103.0563
297.3970, 104.0399
297.8792, 105.4045
298.3613, 108.1030
298.8434, 112.3717
299.3255, 117.3795
299.8076, 121.7604
300.2897, 125.2785
300.7719, 128.6120
301.2540, 131.5128
301.7361, 134.5608
302.2182, 138.4592
302.7003, 143.0884
303.1824, 147.4574
303.6646, 150.4662
304.1467, 152.0098
304.6288, 152.7537
305.1109, 151.6812
305.5930, 150.7444
306.0751, 151.1253
306.5573, 152.5912
307.0394, 154.0085
307.5215, 154.3060
308.0036, 153.3921
308.4857, 152.6646
308.9678, 152.2256
309.4500, 151.8791
309.9321, 151.7513
310.4142, 151.6681
310.8963, 151.2551
311.3784, 150.1792
311.8605, 148.5872
312.3427, 147.6833
312.8248, 148.5544
313.3069, 148.8400
313.7890, 147.6730
314.2711, 145.8156
314.7532, 144.1550
315.2354, 143.1216
315.7175, 142.7096
316.1996, 143.0156
316.6817, 144.9509
317.1638, 146.1422
317.6459, 145.9510
318.1281, 145.2007
318.6102, 144.4961
319.0923, 144.0632
319.5744, 143.9545
320.0565, 144.3118
320.5386, 145.3820
321.0208, 146.3577
321.5029, 147.5635
321.9850, 148.4183
322.4671, 148.1727
322.9492, 146.9654
323.4313, 145.9159
323.9135, 146.4337
324.3956, 148.9958
324.8777, 150.6859
325.3598, 150.6829
325.8419, 150.5672
326.3240, 150.8923
326.8062, 151.6230
327.2883, 152.4174
327.7704, 152.8953
328.2525, 153.1314
328.7346, 154.4720
329.2167, 158.3324
329.6989, 161.7501
330.1810, 163.9079
330.6631, 165.2042
331.1452, 166.2631
331.6273, 167.4282
332.1094, 168.5597
332.5916, 169.2572
333.0737, 169.6836
333.5558, 169.3029
334.0379, 168.1901
334.5200, 166.2957
335.0021, 163.5711
335.4843, 159.9972
335.9664, 155.6400
336.4485, 150.6194
336.9306, 144.8970
337.4127, 138.5457
337.8948, 131.2497
338.3770, 123.5863
338.8591, 115.7961
339.3412, 107.9124
339.8233, 100.0108
340.3055, 92.10571
340.7876, 84.23393
341.2697, 76.29903
341.7518, 67.96210
342.2339, 59.96837
342.7160, 52.53065
343.1982, 45.64822
343.6803, 39.21555
344.1624, 33.13531
344.6445, 27.45215
345.1266, 22.41245
345.6087, 18.18459
346.0909, 14.39534
346.5730, 10.77228
347.0551, 7.470322
347.5372, 4.801895
348.0193, 2.943802
348.5014, 1.477524
348.9836, 0.5055850
349.4657, 3.291885
349.9478, 5.593338
350.4299, 6.864929
350.9120, 7.657455
351.3941, 8.272003
351.8763, 8.771774
352.3584, 9.174561
352.8405, 9.484222
353.3226, 9.703522
353.8047, 9.873047
354.2868, 10.17491
354.7690, 10.21701
355.2511, 9.686676
355.7332, 8.671829
356.2153, 7.560577
356.6974, 6.613754
357.1795, 5.773483
357.6617, 4.733810
358.1438, 3.249817
358.6259, 2.089890
359.1080, 2.197678
359.5901, 2.810120
360.0722, 2.671951
360.5544, 1.184830
361.0365, 1.068283
361.5186, 3.541611
362.0007, 6.326248
362.4828, 8.495850
362.9649, 9.164795
363.4471, 9.291290
363.9292, 10.01035
364.4113, 11.54211
364.8934, 13.18759
365.3755, 14.34474
365.8576, 15.11790
366.3398, 16.08195
366.8219, 17.38997
367.3040, 18.91074
367.7861, 20.65672
368.2682, 22.59048
368.7503, 24.17943
369.2325, 24.83162
369.7146, 25.12096
370.1967, 26.14252
370.6788, 28.09943
371.1609, 30.12759
371.6430, 31.62158
372.1252, 32.64635
372.6073, 33.40402
373.0894, 33.63911
373.5715, 33.83511
374.0536, 34.54990
374.5357, 35.65845
375.0179, 36.33716
375.5000, 35.98622
375.9821, 35.14172
376.4642, 35.14938
376.9463, 36.45975
377.4284, 37.47191
377.9106, 37.28246
378.3927, 36.47829
378.8748, 36.11739
379.3569, 36.51126
379.8390, 37.14336
380.3211, 37.29089
380.8033, 36.80505
381.2854, 36.75194
381.7675, 37.20941
382.2496, 38.12439
382.7317, 39.72221
383.2138, 41.88074
383.6960, 43.85478
384.1781, 45.02179
384.6602, 45.45953
385.1423, 46.40860
385.6244, 47.72588
386.1065, 49.59264
386.5887, 52.66418
387.0708, 56.21262
387.5529, 58.83000
388.0350, 59.85254
388.5171, 60.20743
388.9992, 61.94754
389.4814, 66.23314
389.9635, 70.35318
390.4456, 74.43622
390.9277, 78.21320
391.4098, 81.17963
391.8919, 83.42557
392.3741, 85.80524
392.8562, 89.22250
393.3383, 93.80969
393.8204, 98.47881
394.3025, 103.1921
394.7846, 108.0328
395.2668, 113.3829
395.7489, 118.8658
396.2310, 123.6805
396.7131, 127.2871
397.1952, 130.1916
397.6773, 134.2216
398.1595, 140.2199
398.6416, 146.0110
399.1237, 151.7363
399.6058, 156.9185
400.0879, 160.8847
400.5700, 163.5896
401.0522, 165.9886
401.5343, 169.4365
402.0164, 174.2093
402.4985, 178.2933
402.9806, 181.0035
403.4627, 183.5601
403.9449, 186.9173
404.4270, 190.5808
404.9091, 193.2345
405.3912, 193.8559
405.8733, 192.9804
406.3554, 192.3480
406.8376, 192.1891
407.3197, 191.3177
407.8018, 188.7281
408.2839, 185.5501
408.7660, 182.9616
409.2481, 181.2970
409.7303, 179.8321
410.2124, 177.8940
410.6945, 175.5043
411.1766, 172.8353
411.6587, 169.8249
412.1408, 166.6431
412.6230, 163.4263
413.1051, 160.2260
413.5872, 157.2074
414.0693, 154.8078
414.5514, 152.4797
415.0335, 149.1752
415.5157, 144.7508
415.9978, 140.4552
416.4799, 137.0951
416.9620, 134.3869
417.4441, 131.5592
417.9262, 128.6782
418.4084, 125.7129
418.8905, 122.6699
419.3726, 119.4938
419.8547, 116.0784
420.3368, 112.3739
420.8189, 108.5377
421.3011, 104.8722
421.7832, 101.4711
422.2653, 97.85934
422.7474, 93.55559
423.2295, 89.31638
423.7116, 85.99826
424.1938, 83.52768
424.6759, 80.86615
425.1580, 77.06862
425.6401, 72.25128
426.1222, 68.46568
426.6043, 66.34398
427.0865, 64.34436
427.5686, 62.25621
428.0507, 59.99626
428.5328, 57.18085
429.0149, 53.69449
429.4970, 50.41309
429.9792, 49.01971
430.4613, 50.99605
430.9434, 51.60152
431.4255, 49.60156
431.9076, 47.56070
432.3897, 47.10991
432.8719, 47.99951
433.3540, 48.92235
433.8361, 48.86621
434.3182, 47.95253
434.8003, 47.01277
435.2824, 45.93965
435.7646, 45.02866
436.2467, 44.93211
436.7288, 44.75038
437.2109, 43.45343
437.6930, 40.71185
438.1751, 37.24712
438.6573, 33.76915
439.1394, 30.25407
439.6215, 27.11079
440.1036, 24.62988
440.5857, 22.27539
441.0678, 19.68330
441.5500, 16.89740
442.0321, 14.11650
442.5142, 11.15756
442.9963, 8.365784
443.4784, 6.454269
443.9605, 5.513779
444.4427, 4.759338
444.9248, 3.949707
445.4069, 3.017593
445.8890, 1.815399
446.3711, 0.1560970
446.8532, 1.280777
447.3354, 2.130371
447.8175, 2.481583
448.2996, 2.428848
448.7817, 1.947708
449.2638, 1.383575
449.7459, 1.123459
450.2281, 1.186462
450.7102, 1.107925
451.1923, 0.8016970
451.6744, 0.4355770
452.1565, 0.1151430
452.6386, 0.2029110
453.1208, 0.6414180
453.6029, 1.256378
454.0850, 1.943405
454.5671, 2.469879
455.0492, 2.215302
455.5313, 2.747269
456.0135, 4.590530
456.4956, 6.816635
456.9777, 8.774452
457.4598, 10.39014
457.9419, 11.89441
458.4240, 13.41963
458.9062, 14.92867
459.3883, 16.94058
459.8704, 20.28689
460.3525, 23.23442
460.8346, 25.11060
461.3167, 26.52480
461.7989, 28.20175
462.2810, 30.39750
462.7631, 32.89422
463.2452, 35.42210
463.7273, 38.01343
464.2094, 40.73009
464.6916, 43.73222
465.1737, 46.63254
465.6558, 49.00133
466.1379, 51.02890
466.6200, 53.43292
467.1021, 56.90430
467.5843, 60.88470
468.0664, 64.16602
468.5485, 66.67459
469.0306, 69.22239
469.5127, 72.16248
469.9948, 75.28347
470.4770, 78.25063
470.9591, 81.03845
471.4412, 83.87738
471.9233, 86.84279
472.4054, 89.90692
472.8875, 93.08025
473.3697, 96.39495
473.8518, 99.62940
474.3339, 102.5997
474.8160, 105.2799
475.2981, 107.6803
475.7802, 109.7438
476.2624, 111.5857
476.7445, 112.9754
477.2266, 114.2305
477.7087, 116.1300
478.1908, 119.0108
478.6729, 122.0363
479.1551, 123.6744
479.6372, 123.3763
480.1193, 122.8794
480.6014, 122.1233
481.0835, 121.2453
481.5656, 120.4078
482.0478, 119.5211
482.5299, 118.3705
483.0120, 116.8417
483.4941, 114.9073
483.9762, 112.4739
484.4583, 109.3533
484.9405, 106.1061
485.4226, 102.7318
485.9047, 99.34869
486.3868, 96.03547
486.8689, 92.81226
487.3510, 89.77937
487.8332, 87.14650
488.3153, 84.82255
488.7974, 82.17480
489.2795, 78.97195
489.7616, 75.97444
490.2437, 73.56108
490.7259, 71.67477
491.2080, 70.35864
491.6901, 69.95562
492.1722, 69.49226
492.6543, 68.26528
493.1364, 66.42367
493.6186, 64.29495
494.1007, 61.85333
494.5828, 59.52153
495.0649, 57.82722
495.5470, 56.84222
496.0291, 55.78169
496.5113, 54.89125
496.9934, 53.65968
497.4755, 51.57990
497.9576, 48.92000
498.4397, 46.39423
498.9218, 44.38343
499.4040, 42.50688
499.8861, 39.88738
500.3682, 35.67563
500.8503, 32.33741
501.3324, 30.43924
501.8145, 28.80818
502.2967, 26.67957
502.7788, 24.13627
503.2609, 21.70427
503.7430, 19.75843
504.2251, 18.17069
504.7072, 16.34245
505.1894, 13.93519
505.6715, 12.10620
506.1536, 11.90138
506.6357, 11.93185
507.1178, 10.83407
507.5999, 8.503235
508.0821, 6.482635
508.5642, 6.514587
509.0463, 7.752235
509.5284, 7.369720
510.0105, 4.804451
510.4926, 2.393799
510.9748, 1.812309
511.4569, 2.364265
511.9390, 2.324051
512.4211, 1.236908
512.9032, 0.2338490
513.3853, 4.7531001E-02
513.8674, 0.2680280
514.3495, 0.1398930
514.8317, 0.5090710
515.3138, 1.209984
515.7959, 1.470932
516.2780, 1.255104
516.7601, 1.167534
517.2422, 1.165443
517.7244, 1.318039
518.2065, 1.860741
518.6886, 2.502647
519.1707, 2.759502
519.6528, 2.478439
520.1349, 2.043793
520.6171, 2.099247
521.0992, 2.848591
521.5813, 3.254364
522.0634, 3.038597
522.5455, 2.733967
523.0276, 2.457035
523.5098, 2.239578
523.9919, 2.106274
524.4740, 2.059753
524.9561, 2.125645
525.4382, 2.490269
525.9203, 3.162777
526.4025, 3.364517
526.8846, 2.641624
527.3667, 1.750942
527.8488, 1.513306
528.3309, 1.816429
528.8130, 1.931679
529.2952, 1.623173
529.7773, 1.055950
530.2594, 0.2357830
530.7415, 0.7517170
531.2236, 1.530014
531.7057, 1.900013
532.1879, 2.069031
532.6700, 2.438953
533.1521, 3.141983
533.6342, 3.755165
534.1163, 4.184639
534.5984, 4.594433
535.0806, 5.100555
535.5627, 5.682266
536.0448, 6.254700
536.5269, 6.763515
537.0090, 7.226795
537.4911, 7.652744
537.9733, 7.857441
538.4554, 8.449627
538.9375, 9.850063
539.4196, 11.35004
539.9017, 12.62665
540.3839, 13.62272
540.8660, 14.28838
541.3481, 14.28809
541.8302, 14.10535
542.3123, 15.00574
542.7944, 17.13369
543.2766, 19.05131
543.7587, 20.08182
544.2408, 20.69874
544.7229, 21.66158
545.2050, 23.03815
545.6871, 24.15852
546.1693, 24.59923
546.6514, 24.78600
547.1335, 25.12772
547.6156, 25.66077
548.0977, 26.35659
548.5798, 27.21726
549.0620, 28.19763
549.5441, 29.13982
550.0262, 30.46281
550.5083, 31.14710
550.9904, 30.48067
551.4725, 29.70849
551.9547, 30.00820
552.4368, 31.17786
552.9189, 32.05588
553.4010, 31.72853
553.8831, 30.49202
554.3652, 29.57591
554.8474, 29.21857
555.3295, 28.59152
555.8116, 26.95428
556.2937, 25.33960
556.7758, 24.61703
557.2579, 24.78610
557.7401, 25.00376
558.2222, 24.76456
558.7043, 24.26472
559.1864, 23.80399
559.6685, 23.39337
560.1506, 23.07153
560.6328, 22.92272
561.1149, 22.81572
561.5970, 22.37699
562.0791, 21.40086
562.5612, 20.80578
563.0433, 21.10265
563.5255, 21.58647
564.0076, 21.58702
564.4897, 21.18611
564.9718, 20.93729
565.4539, 21.20108
565.9360, 21.84350
566.4182, 22.44403
566.9003, 23.15260
567.3824, 23.53705
567.8645, 23.32968
568.3466, 22.99445
568.8287, 22.73270
569.3109, 22.63563
569.7930, 22.83153
570.2751, 23.52975
570.7572, 24.39012
571.2393, 24.57667
571.7214, 24.01732
572.2036, 24.01009
572.6857, 25.34594
573.1678, 26.92561
573.6499, 27.31528
574.1320, 26.58008
574.6141, 26.25049
575.0963, 27.11329
575.5784, 28.23711
576.0605, 28.79513
576.5426, 28.88078
577.0247, 28.94361
577.5068, 29.19464
577.9890, 29.65598
578.4711, 30.35140
578.9532, 31.44358
579.4353, 32.21421
579.9174, 32.41260
580.3995, 32.66369
580.8817, 33.20007
581.3638, 34.01417
581.8459, 35.15987
582.3280, 36.71341
582.8101, 38.16953
583.2922, 38.39764
583.7744, 37.22912
584.2565, 37.13142
584.7386, 39.18572
585.2207, 41.44755
585.7029, 42.27220
586.1850, 42.15934
586.6671, 42.48627
587.1492, 43.82786
587.6313, 45.44909
588.1135, 46.85514
588.5956, 48.12676
589.0777, 49.45582
589.5598, 50.88765
590.0419, 52.32327
590.5240, 53.61575
591.0062, 54.74155
591.4883, 56.23643
591.9704, 58.40290
592.4525, 60.52470
592.9346, 62.30752
593.4167, 64.01458
593.8989, 65.95030
594.3810, 68.17874
594.8631, 70.59129
595.3452, 73.04510
595.8273, 75.55896
596.3094, 78.37267
596.7916, 81.44412
597.2737, 84.95068
597.7558, 89.59824
598.2379, 94.42833
598.7200, 98.20402
599.2021, 100.6503
599.6843, 103.4697
600.1664, 107.9086
600.6485, 113.0665
601.1306, 117.5444
601.6127, 121.3243
602.0948, 125.4736
602.5770, 130.6423
603.0591, 136.5169
603.5412, 142.2141
604.0233, 147.0096
604.5054, 152.8868
604.9875, 160.7690
605.4697, 168.9317
605.9518, 176.2533
606.4339, 182.9091
606.9160, 189.6101
607.3981, 196.7927
607.8802, 204.0334
608.3624, 210.4943
608.8445, 216.1229
609.3266, 221.3054
609.8087, 226.2945
610.2908, 230.5560
610.7729, 233.8738
611.2551, 236.2426
611.7372, 237.5680
612.2193, 237.4268
612.7014, 236.7346
613.1835, 236.1860
613.6656, 235.5642
614.1478, 234.2620
614.6299, 232.1403
615.1120, 229.8299
615.5941, 227.9212
616.0762, 226.3955
616.5583, 225.3623
617.0405, 225.5086
617.5226, 225.2937
618.0047, 224.0464
618.4868, 222.5742
618.9689, 221.4960
619.4510, 221.0066
619.9332, 221.2462
620.4153, 222.6062
620.8974, 224.7243
621.3795, 226.2721
621.8616, 227.1707
622.3438, 227.9524
622.8259, 228.7358
623.3080, 229.5744
623.7901, 230.3756
624.2722, 231.0837
624.7543, 232.4426
625.2365, 235.1215
625.7186, 238.1460
626.2007, 240.9752
626.6828, 243.4736
627.1649, 245.3348
627.6470, 246.4252
628.1292, 246.9860
628.6113, 247.4087
629.0934, 247.7033
629.5755, 247.7236
630.0576, 248.6089
630.5397, 247.9298
631.0219, 244.6628
631.5040, 239.5202
631.9861, 233.4185
632.4682, 226.5988
632.9503, 218.9334
633.4324, 209.9821
633.9146, 200.1129
634.3967, 190.5308
634.8788, 181.3637
635.3609, 172.3678
635.8430, 163.5576
636.3251, 154.6871
636.8073, 145.2018
637.2894, 134.5485
637.7715, 124.7246
638.2536, 116.2396
638.7357, 108.5011
639.2178, 100.9450
639.7000, 93.65749
640.1821, 87.18304
640.6642, 81.86675
641.1463, 77.28482
641.6284, 72.37904
642.1105, 66.96980
642.5927, 61.97631
643.0748, 57.64102
643.5569, 53.69260
644.0390, 49.76826
644.5211, 46.07913
645.0032, 43.09618
645.4854, 41.10460
645.9675, 39.17399
646.4496, 36.62187
646.9317, 33.81673
647.4138, 31.37058
647.8959, 29.33617
648.3781, 27.63130
648.8602, 26.27970
649.3423, 25.19005
649.8244, 23.95910
650.3065, 22.49261
650.7886, 21.01938
651.2708, 19.20691
651.7529, 17.67185
652.2350, 17.18348
652.7171, 17.34184
653.1992, 16.89454
653.6813, 14.95951
654.1635, 12.58799
654.6456, 11.53130
655.1277, 11.66976
655.6098, 11.41777
656.0919, 10.35075
656.5740, 9.203579
657.0562, 8.678909
657.5383, 8.668633
658.0204, 8.321796
658.5025, 7.151218
658.9846, 6.294281
659.4667, 6.230091
659.9489, 6.458347
660.4310, 6.587612
660.9131, 6.539566
661.3952, 6.385090
661.8773, 6.179302
662.3594, 5.891125
662.8416, 5.366310
663.3237, 4.487816
663.8058, 3.803600
664.2879, 3.539852
664.7700, 3.364494
665.2521, 3.007980
665.7343, 2.537029
666.2164, 2.169590
666.6985, 1.898216
667.1806, 1.824184
667.6627, 2.235249
668.1448, 2.840916
668.6270, 3.035332
669.1091, 2.722260
669.5912, 2.305172
670.0733, 2.095253
670.5554, 2.057659
671.0375, 1.807766
671.5197, 1.228073
672.0018, 0.6240460
672.4839, 0.1982690
672.9660, 0.8398630
673.4481, 0.9011270
673.9302, 0.5153470
674.4124, 0.1891480
674.8945, 0.2161330
675.3766, 0.3607140
675.8587, 0.2877390
676.3408, 5.8853000E-02
676.8229, 6.9800002E-04
677.3051, 0.2057190
677.7872, 0.4115910
678.2693, 0.3591920
678.7514, 7.8991003E-02
679.2335, 7.4669003E-02
679.7156, 4.2018998E-02
680.1978, 2.2159999E-02
680.6799, 0.2775420
681.1620, 0.4206660
681.6441, 4.2000000E-04
682.1262, 0.8138120
682.6083, 1.329338
683.0905, 1.076622
683.5726, 0.3789060
684.0547, 0.2223280
684.5368, 0.7248990
685.0189, 1.083794
685.5010, 1.294102
685.9832, 1.343365
686.4653, 1.151115
686.9474, 0.7697070
687.4295, 0.4801480
687.9116, 0.2085690
688.3937, 0.1400030
688.8759, 0.5245090
689.3580, 1.007267
689.8401, 1.178524
690.3222, 1.067699
690.8043, 1.022110
691.2864, 1.287601
691.7686, 1.693981
692.2507, 1.847675
692.7328, 1.739189
693.2149, 1.398769
693.6970, 0.5847360
694.1791, 0.1057740
694.6613, 0.1993060
695.1434, 0.1252560
695.6255, 0.5259320
696.1076, 1.105968
696.5897, 1.443085
697.0718, 1.045776
697.5540, 0.4772420
698.0361, 0.5623590
698.5182, 1.222794
699.0003, 1.653515
699.4824, 1.334366
699.9645, 0.6201100
700.4467, 0.4008900
700.9288, 0.8304790
701.4109, 1.201839
701.8930, 1.697475
702.3751, 1.841934
702.8572, 1.058689
703.3394, 0.1015130
703.8215, 0.6417270
704.3036, 0.2125930
704.7857, 0.2383840
705.2678, 6.6013001E-02
705.7499, 0.3542370
706.2321, 0.5316010
706.7142, 0.4494060
707.1963, 0.2741850
707.6784, 8.3828002E-02
708.1605, 0.1045230
708.6426, 0.2649960
709.1248, 0.4138570
709.6069, 0.4797780
710.0890, 0.5419650
710.5711, 0.4172480
711.0532, 0.1796490
711.5353, 0.8921090
712.0175, 1.205357
712.4996, 1.004627
712.9817, 0.7987250
713.4638, 0.9727400
713.9459, 1.287109
714.4280, 1.468830
714.9102, 1.489845
715.3923, 1.208668
715.8744, 0.5265620
716.3565, 0.1371540
716.8386, 0.1115380
717.3207, 0.7432330
717.8029, 1.269451
718.2850, 1.167130
718.7671, 1.094685
719.2492, 1.238125
719.7313, 1.456020
720.2134, 1.605888
720.6956, 1.672798
721.1777, 1.734489
721.6598, 1.959831
722.1419, 2.121277
722.6240, 1.745621
723.1061, 1.013752
723.5883, 0.6996960
724.0704, 1.049011
724.5525, 1.608276
725.0346, 1.944141
725.5167, 2.053303
725.9988, 1.849525
726.4810, 0.7171290
726.9631, 0.1724820
727.4452, 0.8978460
727.9273, 1.838898
728.4094, 2.171993
728.8915, 1.975079
729.3737, 1.836800
729.8558, 2.137238
730.3379, 2.418976
730.8200, 2.013065
731.3021, 1.213573
731.7842, 0.8145750
732.2664, 0.9466670
732.7485, 1.339527
733.2306, 1.840466
733.7127, 2.395546
734.1948, 2.772404
734.6769, 2.911827
735.1591, 2.960327
735.6412, 2.829407
736.1233, 2.711964
736.6054, 2.753368
737.0875, 2.865906
737.5696, 2.889584
738.0518, 2.772923
738.5339, 2.565132
739.0160, 2.178619
739.4981, 1.798492
739.9802, 1.769779
740.4623, 2.080303
740.9445, 2.453178
741.4266, 2.759743
741.9087, 2.994030
742.3908, 3.147045
742.8729, 3.221912
743.3550, 3.224895
743.8372, 3.140663
744.3193, 3.032009
744.8014, 2.815285
745.2835, 2.646957
745.7656, 2.731773
746.2477, 3.077477
746.7299, 3.439217
747.2120, 3.841141
747.6941, 4.089783
748.1762, 3.773964
748.6583, 3.103966
749.1404, 2.808395
749.6226, 3.083344
750.1047, 3.391800
750.5868, 3.172821
751.0689, 2.491676
751.5510, 1.881905
752.0331, 1.074032
752.5153, 0.7968100
752.9974, 1.671055
753.4795, 2.634930
753.9616, 3.022987
754.4437, 2.944668
754.9258, 2.851608
755.4080, 2.914852
755.8901, 2.885445
756.3722, 2.343918
756.8543, 1.712463
757.3364, 1.807938
757.8185, 2.595394
758.3007, 3.237125
758.7828, 3.187084
759.2649, 2.782661
759.7470, 2.825245
760.2291, 3.556747
760.7112, 3.711956
761.1934, 2.825600
761.6755, 2.040634
762.1576, 1.914124
762.6397, 2.154297
763.1218, 2.539043
763.6039, 3.090111
764.0861, 3.487484
764.5682, 3.582058
765.0503, 3.506836
765.5324, 3.300205
766.0145, 3.016235
766.4966, 2.737793
766.9788, 2.491974
767.4609, 2.261066
767.9430, 1.950920
768.4251, 1.676189
768.9072, 2.184875
769.3893, 3.736012
769.8715, 4.515911
770.3536, 3.629940
770.8357, 2.482990
771.3178, 2.453762
771.7999, 3.333500
772.2820, 4.045208
772.7642, 4.561684
773.2463, 4.856014
773.7284, 4.851025
774.2105, 4.640129
774.6926, 4.273685
775.1747, 3.865650
775.6569, 3.558849
776.1390, 3.442383
776.6211, 3.407360
777.1032, 3.275425
777.5853, 3.082951
778.0674, 3.090122
778.5496, 3.350830
779.0317, 3.472206
779.5138, 3.197647
779.9959, 2.774323
780.4780, 2.664532
780.9601, 3.000576
781.4423, 3.096737
781.9244, 2.570599
782.4065, 2.288929
782.8886, 2.789730
783.3707, 3.509884
783.8528, 3.898888
784.3350, 3.858559
784.8171, 3.496136
785.2992, 2.675434
785.7813, 1.871166
786.2634, 1.865166
786.7455, 2.414326
787.2277, 2.736816
787.7098, 2.675018
788.1919, 2.389553
788.6740, 1.924137
789.1561, 1.457039
789.6382, 1.731983
790.1204, 3.248531
790.6025, 4.303047
791.0846, 4.655151
791.5667, 4.685268
792.0488, 4.255875
792.5309, 3.732525
793.0131, 3.822300
793.4952, 4.775063
793.9773, 5.318386
794.4594, 4.415493
794.9415, 3.214813
795.4236, 2.799110
795.9058, 2.962345
796.3879, 3.125858
796.8700, 3.100391
797.3521, 2.989441
797.8342, 2.886734
798.3163, 2.795979
798.7985, 2.719513
799.2806, 2.638405
799.7627, 2.693672
800.2448, 2.992741
800.7269, 3.315327
801.2090, 3.525642
801.6912, 3.601048
802.1733, 3.460674
802.6554, 2.845528
803.1375, 2.425289
803.6196, 2.315136
804.1017, 2.447884
804.5839, 3.071564
805.0660, 3.838455
805.5481, 3.975758
806.0302, 3.194618
806.5123, 2.301163
806.9944, 2.215576
807.4766, 1.781399
807.9587, 1.556931
808.4408, 1.863098
808.9229, 1.721859
809.4050, 2.424042
809.8871, 3.361305
810.3693, 3.833828
810.8514, 3.843159
811.3335, 3.631405
811.8156, 2.738846
812.2977, 2.399986
812.7798, 3.479759
813.2620, 4.530838
813.7441, 4.336613
814.2262, 3.335995
814.7083, 2.906498
815.1904, 3.621956
815.6725, 4.427948
816.1547, 4.840809
816.6368, 4.960445
817.1189, 4.751358
817.6010, 4.354378
818.0831, 4.175972
818.5652, 4.383278
819.0474, 4.659428
819.5295, 4.465275
820.0116, 4.865498
820.4937, 4.113098
820.9758, 5.260967
821.4579, 6.068375
821.9401, 6.020813
822.4222, 5.675186
822.9043, 5.602165
823.3864, 5.791233
823.8685, 5.917870
824.3506, 5.887043
824.8328, 5.930008
825.3149, 6.230602
825.7970, 6.484959
826.2791, 6.334553
826.7612, 5.980186
827.2433, 5.930351
827.7255, 6.393261
828.2076, 6.993603
828.6897, 7.492153
829.1718, 7.868950
829.6539, 8.128632
830.1360, 8.256119
830.6182, 8.088741
831.1003, 7.561611
831.5824, 7.090939
832.0645, 7.200325
832.5466, 7.844425
833.0287, 8.427353
833.5109, 8.875862
833.9930, 9.497616
834.4751, 10.66673
834.9572, 11.64732
835.4393, 11.70454
835.9214, 11.09882
836.4036, 10.50888
836.8857, 9.745991
837.3678, 9.448399
837.8499, 10.26355
838.3320, 11.15277
838.8141, 11.15390
839.2963, 10.72775
839.7784, 10.87872
840.2605, 11.89243
840.7426, 13.03450
841.2247, 13.84746
841.7068, 14.25254
842.1890, 13.87637
842.6711, 12.87929
843.1532, 12.10995
843.6353, 11.77610
844.1174, 11.86491
844.5995, 12.45216
845.0817, 13.37589
845.5638, 13.86407
846.0459, 13.78986
846.5280, 13.65458
847.0101, 13.52708
847.4922, 13.28402
847.9744, 12.56557
848.4565, 11.80732
848.9386, 11.87494
849.4207, 13.02877
849.9028, 13.57512
850.3849, 12.42975
850.8671, 11.27687
851.3492, 11.28537
851.8313, 11.71025
852.3134, 11.43349
852.7955, 10.40384
853.2776, 9.510914
853.7598, 9.404854
854.2419, 9.636009
854.7240, 9.448696
855.2061, 8.989010
855.6882, 8.944122
856.1703, 9.383022
856.6525, 9.660275
857.1346, 9.388046
857.6167, 8.844677
858.0988, 8.568245
858.5809, 8.618233
859.0630, 8.711327
859.5452, 8.924404
860.0273, 8.935944
860.5094, 8.492294
860.9915, 7.958759
861.4736, 7.676353
861.9557, 7.609459
862.4379, 7.490711
862.9200, 7.110752
863.4021, 6.931629
863.8842, 7.352131
864.3663, 7.803940
864.8484, 7.703701
865.3306, 7.273056
865.8127, 7.148811
866.2948, 7.560078
866.7769, 7.853760
867.2590, 7.207909
867.7411, 6.041962
868.2233, 5.043530
868.7054, 4.313217
869.1875, 4.448936
869.6696, 5.643070
870.1517, 6.869900
870.6339, 7.106323
871.1160, 6.593964
871.5981, 6.399948
872.0802, 6.721493
872.5623, 6.725235
873.0444, 6.103931
873.5266, 5.511158
874.0087, 5.261211
874.4908, 5.283802
874.9729, 5.495823
875.4550, 5.951527
875.9371, 6.168907
876.4193, 6.014278
876.9014, 5.766449
877.3835, 5.450085
877.8656, 5.238174
878.3477, 5.282402
878.8298, 5.531265
879.3120, 5.844131
879.7941, 6.114208
880.2762, 6.397285
880.7583, 6.384377
881.2404, 6.216076
881.7225, 6.204041
882.2047, 6.358826
882.6868, 6.431652
883.1689, 6.313076
883.6510, 6.233261
884.1331, 6.582443
884.6152, 7.237545
885.0974, 6.945671
885.5795, 5.471272
886.0616, 4.924549
886.5437, 6.120102
887.0258, 7.504036
887.5079, 7.812366
887.9901, 7.286289
888.4722, 6.891075
888.9543, 6.784592
889.4364, 6.506496
889.9185, 5.770275
890.4006, 5.236870
890.8828, 5.268681
891.3649, 5.586182
891.8470, 5.988609
892.3291, 6.399746
892.8112, 6.388023
893.2933, 5.146255
893.7755, 4.149803
894.2576, 4.697216
894.7397, 5.782600
895.2218, 6.137993
895.7039, 5.782337
896.1860, 5.378948
896.6682, 5.240906
897.1503, 5.248894
897.6324, 5.301037
898.1145, 5.373405
898.5966, 5.448845
899.0787, 5.504341
899.5609, 5.253754
900.0430, 4.577709
900.5251, 4.016739
901.0072, 4.154472
901.4893, 4.787426
901.9714, 4.919067
902.4536, 4.448120
902.9357, 3.816307
903.4178, 2.901165
903.8999, 2.114014
904.3820, 1.674416
904.8641, 1.497932
905.3463, 1.482151
905.8284, 1.654018
906.3105, 1.753414
906.7926, 1.862408
907.2747, 1.768452
907.7568, 0.9756740
908.2390, 0.3015370
908.7211, 0.6882100
909.2032, 1.824631
909.6853, 2.628380
910.1674, 2.695915
910.6495, 2.459160
911.1317, 2.047894
911.6138, 1.602997
912.0959, 1.250755
912.5780, 1.005920
913.0601, 0.8969080
913.5422, 0.9182240
914.0244, 0.9964750
914.5065, 1.116302
914.9886, 1.169579
915.4707, 0.7758830
915.9528, 5.4813001E-02
916.4349, 0.1728320
916.9171, 0.2085150
917.3992, 0.6965680
917.8813, 1.042866
918.3634, 1.258816
918.8455, 1.371624
919.3276, 1.384689
919.8098, 1.202419
920.2919, 0.6838910
920.7740, 0.3461110
921.2561, 0.4773180
921.7382, 0.6101380
922.2203, 0.2835270
922.7025, 0.3614810
923.1846, 0.7760010
923.6667, 0.9417380
924.1488, 0.9213100
924.6309, 0.5712200
925.1130, 0.2052120
925.5952, 0.1148830
926.0773, 0.3245890
926.5594, 0.2540820
927.0415, 4.8301999E-02
927.5236, 0.1440200
928.0057, 0.4000510
928.4879, 0.8322530
928.9700, 0.5646060
929.4521, 1.5106000E-02
929.9342, 0.5335500
930.4163, 0.9392550
930.8984, 1.292141
931.3806, 1.606293
931.8627, 1.720932
932.3448, 1.371799
932.8269, 0.7706600
933.3090, 0.1453510
933.7911, 0.3680730
934.2733, 3.9710999E-02
934.7554, 1.464836
935.2375, 2.728153
935.7196, 3.007584
936.2017, 2.773441
936.6838, 3.176781
937.1660, 2.826736
937.6481, 4.178036
938.1302, 2.410690
938.6123, 1.174126
939.0944, 1.279217
939.5765, 1.996742
940.0587, 2.735279
940.5408, 3.441547
941.0229, 3.686459
941.5050, 3.098007
941.9871, 2.730427
942.4692, 2.758438
942.9514, 2.849377
943.4335, 3.031601
943.9156, 3.121159
944.3977, 2.817917
944.8798, 2.117725
945.3619, 1.484600
945.8441, 1.141895
946.3262, 0.7190900
946.8083, 0.1511540
947.2904, 0.9488410
947.7725, 1.162674
948.2546, 0.9667660
948.7368, 0.7464900
949.2189, 0.6126100
949.7010, 0.7748340
950.1831, 1.377857
950.6652, 2.340855
951.1473, 3.820576
951.6295, 5.497055
952.1116, 6.900845
952.5937, 7.921700
953.0758, 8.429203
953.5579, 8.294247
954.0400, 8.144989
954.5222, 8.774345
955.0043, 10.08770
955.4864, 12.15795
955.9685, 14.78373
956.4506, 16.54421
956.9327, 17.01671
957.4149, 17.31533
957.8970, 18.43688
958.3791, 20.12794
958.8612, 21.61547
959.3433, 22.86162
959.8254, 24.48208
960.3076, 26.64034
960.7897, 28.57605
961.2718, 29.86944
961.7539, 30.94887
962.2360, 32.30453
962.7181, 33.94847
963.2003, 35.94619
963.6824, 38.84611
964.1645, 40.96807
964.6466, 41.64870
965.1287, 42.15036
965.6108, 42.91695
966.0930, 43.97983
966.5751, 45.53985
967.0572, 47.66140
967.5393, 49.72597
968.0214, 51.47743
968.5035, 53.38318
968.9857, 55.43468
969.4678, 57.80536
969.9499, 60.98099
970.4320, 64.51500
970.9141, 67.37305
971.3962, 69.19283
971.8784, 71.33286
972.3605, 74.78226
972.8426, 78.32835
973.3247, 81.24384
973.8068, 83.63532
974.2889, 85.49019
974.7711, 87.09148
975.2532, 89.22467
975.7353, 92.31206
976.2174, 95.48283
976.6995, 98.00275
977.1816, 100.0925
977.6638, 101.5559
978.1459, 102.9395
978.6280, 105.8123
979.1101, 110.3335
979.5922, 114.8919
980.0743, 118.3076
980.5565, 121.1739
981.0386, 124.1826
981.5207, 127.5098
982.0028, 131.6992
982.4849, 136.7860
982.9670, 142.9148
983.4492, 150.1223
983.9313, 157.5544
984.4134, 164.3664
984.8955, 170.8893
985.3776, 178.3164
985.8597, 186.7065
986.3419, 195.4616
986.8240, 204.6825
987.3061, 213.3109
987.7882, 220.8043
988.2703, 227.8764
988.7524, 235.5266
989.2346, 243.6487
989.7167, 250.7152
990.1988, 256.8611
990.6809, 261.7373
991.1630, 265.2502
991.6451, 267.5992
992.1273, 268.5113
992.6094, 268.4690
993.0915, 268.0801
993.5736, 267.3408
994.0557, 267.5538
994.5378, 270.2011
995.0200, 271.5518
995.5021, 271.1151
995.9842, 269.4294
996.4663, 266.2040
996.9484, 261.9135
997.4305, 257.4076
997.9127, 252.7903
998.3948, 247.5957
998.8769, 242.4391
999.3590, 235.8521
999.8411, 227.2546
1000.323, 217.0656
1000.805, 204.5204
1001.287, 190.9823
1001.770, 179.3834
1002.252, 170.4736
1002.734, 161.7667
1003.216, 151.6176
1003.698, 142.1092
1004.180, 134.4021
1004.662, 128.0812
1005.144, 123.1002
1005.627, 119.0251
1006.109, 114.8548
1006.591, 110.1945
1007.073, 106.3886
1007.555, 104.7802
1008.037, 104.0831
1008.519, 103.3914
1009.001, 102.6097
1009.483, 101.3934
1009.966, 99.97300
1010.448, 99.26518
1010.930, 99.72762
1011.412, 100.5193
1011.894, 100.7771
1012.376, 100.8390
1012.858, 101.4630
1013.340, 102.2826
1013.823, 102.2658
1014.305, 101.3456
1014.787, 100.1409
1015.269, 98.97016
1015.751, 98.24625
1016.233, 98.95754
1016.715, 100.4443
1017.197, 100.7565
1017.679, 100.0809
1018.162, 99.28133
1018.644, 98.60606
1019.126, 98.55666
1019.608, 99.51679
1020.090, 100.8948
1020.572, 101.5553
1021.054, 101.6590
1021.536, 102.3436
1022.018, 103.6146
1022.501, 105.5613
1022.983, 108.2647
1023.465, 110.7170
1023.947, 112.0960
1024.429, 113.0891
1024.911, 115.2847
1025.393, 118.7203
1025.875, 121.8355
1026.358, 124.6559
1026.840, 126.8348
1027.322, 128.2181
1027.804, 129.2398
1028.286, 130.2418
1028.768, 131.2072
1029.250, 132.0695
1029.732, 132.8578
1030.214, 132.9097
1030.697, 132.1901
1031.179, 130.9141
1031.661, 128.8903
1032.143, 126.7057
1032.625, 124.8321
1033.107, 123.2320
1033.589, 121.6934
1034.071, 120.1273
1034.553, 118.7721
1035.036, 117.5540
1035.518, 116.8524
1036.000, 116.9009
1036.482, 117.1874
1036.964, 117.2297
1037.446, 117.2681
1037.928, 117.9961
1038.410, 119.5491
1038.893, 121.3462
1039.375, 123.1730
1039.857, 125.5899
1040.339, 128.7983
1040.821, 132.5770
1041.303, 136.7331
1041.785, 141.3348
1042.267, 146.5991
1042.750, 152.9010
1043.232, 158.5852
1043.714, 162.6264
1044.196, 167.3880
1044.678, 173.5537
1045.160, 180.4533
1045.642, 188.0808
1046.124, 195.9271
1046.606, 202.6620
1047.089, 207.6715
1047.571, 213.8220
1048.053, 222.4090
1048.535, 230.7602
1049.017, 237.4826
1049.499, 244.3784
1049.981, 253.0725
1050.463, 262.9069
1050.945, 272.4408
1051.428, 281.6042
1051.910, 289.8890
1052.392, 296.4390
1052.874, 303.0686
1053.356, 311.1107
1053.838, 318.7881
1054.320, 325.1609
1054.802, 329.9601
1055.285, 332.8836
1055.767, 333.8531
1056.249, 333.2356
1056.731, 330.9460
1057.213, 327.3142
1057.695, 322.6078
1058.177, 316.4647
1058.659, 307.7341
1059.141, 297.7000
1059.624, 288.8293
1060.106, 281.5542
1060.588, 273.5135
1061.070, 263.6756
1061.552, 253.2705
1062.034, 242.6732
1062.516, 231.8838
1062.998, 220.8797
1063.480, 209.7686
1063.963, 198.6478
1064.445, 187.5635
1064.927, 176.7086
1065.409, 166.5306
1065.891, 156.1375
1066.373, 144.9882
1066.855, 133.7140
1067.337, 122.4358
1067.820, 111.5664
1068.302, 101.7427
1068.784, 92.97647
1069.266, 84.29832
1069.748, 75.09590
1070.230, 66.44627
1070.712, 58.45301
1071.194, 51.52512
1071.677, 46.31768
1072.159, 42.11230
1072.641, 38.01287
1073.123, 33.83366
1073.605, 29.66558
1074.087, 25.33222
1074.569, 21.52206
1075.051, 18.57928
1075.533, 16.25049
1076.016, 14.72777
1076.498, 13.46419
1076.980, 11.69643
1077.462, 9.497200
1077.944, 7.563828
1078.426, 6.115639
1078.908, 4.993362
1079.390, 4.319435
1079.873, 3.715218
1080.355, 2.740189
1080.837, 1.843361
1081.319, 1.860680
1081.801, 2.430817
1082.283, 2.212280
1082.765, 0.6596680
1083.247, 0.6809160
1083.729, 0.9523700
1084.212, 0.9985580
1084.694, 1.039352
1085.176, 1.318054
1085.658, 2.359619
1086.140, 3.761292
1086.622, 4.506653
1087.104, 4.332779
1087.586, 4.147469
1088.068, 4.580406
1088.551, 4.778221
1089.033, 3.917694
1089.515, 3.001801
1089.997, 3.159851
1090.479, 3.830688
1090.961, 3.738205
1091.443, 2.702721
1091.925, 1.926506
1092.408, 2.231918
1092.890, 2.376564
1093.372, 1.678108
1093.854, 0.8248060
1094.336, 0.3690800
1094.818, 7.2182000E-02
1095.300, 0.4836200
1095.782, 1.319138
1096.265, 2.138588
1096.747, 2.801765
1097.229, 3.553284
1097.711, 4.491768
1098.193, 5.524094
1098.675, 6.679321
1099.157, 7.850548
1099.639, 8.910965
1100.121, 9.876236
1100.604, 10.87891
1101.086, 12.04929
1101.568, 12.94291
1102.050, 13.37830
1102.532, 13.59344
1103.014, 13.52826
1103.496, 13.42970
1103.978, 13.53712
1104.460, 13.78490
1104.943, 14.02493
1105.425, 14.29937
1105.907, 14.18800
1106.389, 13.27682
1106.871, 12.43281
1107.353, 11.88570
1107.835, 11.50686
1108.317, 11.46152
1108.800, 11.41143
1109.282, 10.73534
1109.764, 9.367439
1110.246, 8.036583
1110.728, 6.649605
1111.210, 5.532425
1111.692, 5.067390
1112.174, 4.483154
1112.656, 3.177879
1113.139, 1.698059
1113.621, 0.6845090
1114.103, 0.1276780
1114.585, 0.1944730
1115.067, 7.1594000E-02
1115.549, 6.9122002E-02
1116.031, 0.9285050
1116.513, 1.762543
1116.995, 2.635323
1117.478, 3.073616
1117.960, 2.422607
1118.442, 1.063576
1118.924, 0.2426450
1119.406, 0.1720960
1119.888, 0.2314450
1120.370, 1.306618
1120.852, 1.949661
1121.335, 1.463020
1121.817, 1.348091
1122.299, 2.827660
1122.781, 5.013229
1123.263, 6.263062
1123.745, 6.552292
1124.227, 7.067223
1124.709, 7.891304
1125.192, 8.564491
1125.674, 8.801338
1126.156, 9.670639
1126.638, 11.91259
1127.120, 14.37423
1127.602, 15.61903
1128.084, 15.94999
1128.566, 16.88403
1129.048, 18.49764
1129.531, 20.09482
1130.013, 21.69109
1130.495, 22.95707
1130.977, 23.76920
1131.459, 24.31820
1131.941, 24.71872
1132.423, 25.07861
1132.905, 25.73922
1133.387, 26.64884
1133.870, 26.85456
1134.352, 26.39277
1134.834, 26.38546
1135.316, 27.03868
1135.798, 27.47315
1136.280, 27.20905
1136.762, 26.52714
1137.244, 25.76672
1137.727, 24.88403
1138.209, 23.59084
1138.691, 22.85489
1139.173, 21.18124
1139.655, 20.89732
1140.137, 20.29724
1140.619, 19.05024
1141.101, 17.16049
1141.583, 14.40184
1142.066, 11.81986
1142.548, 11.60883
1143.030, 12.43777
1143.512, 11.42350
1143.994, 9.055611
1144.476, 6.944347
1144.958, 5.512836
1145.440, 4.708763
1145.922, 4.502747
1146.405, 4.404812
1146.887, 4.080780
1147.369, 3.574902
1147.851, 2.729160
1148.333, 1.761002
1148.815, 1.064190
1149.297, 0.6657070
1149.779, 0.4067190
1150.262, 0.1957860
1150.744, 1.5060000E-02
1151.226, 0.2454610
1151.708, 0.3746150
1152.190, 0.3407630
1152.672, 0.1779520
1153.154, 3.5461001E-02
1153.636, 0.3192710
1154.119, 0.6743700
1154.601, 1.137054
1155.083, 1.899063
1155.565, 3.208858
1156.047, 4.176865
1156.529, 4.379211
1157.011, 4.362507
1157.493, 4.077679
1157.975, 3.968704
1158.458, 4.311600
1158.940, 5.125080
1159.422, 6.349560
1159.904, 8.099590
1160.386, 9.324219
1160.868, 9.253468
1161.350, 9.732273
1161.832, 11.15445
1162.314, 12.92968
1162.797, 15.17624
1163.279, 17.21725
1163.761, 18.13293
1164.243, 18.30266
1164.725, 19.52084
1165.207, 22.36116
1165.689, 24.06364
1166.171, 23.90683
1166.654, 24.96391
1167.136, 28.48580
1167.618, 31.72430
1168.100, 32.73364
1168.582, 32.69683
1169.064, 33.61091
1169.546, 35.34308
1170.028, 36.70228
1170.510, 37.68003
1170.993, 38.97544
1171.475, 40.66021
1171.957, 42.31201
1172.439, 43.80076
1172.921, 44.74109
1173.403, 44.66354
1173.885, 44.15290
1174.367, 44.69890
1174.849, 45.79211
1175.332, 45.63288
1175.814, 44.47965
1176.296, 43.35509
1176.778, 42.39838
1177.260, 41.30747
1177.742, 39.97803
1178.224, 38.62373
1178.706, 37.31263
1179.189, 36.12526
1179.671, 35.39999
1180.153, 34.77514
1180.635, 33.46212
1181.117, 31.82838
1181.599, 30.89400
1182.081, 30.74368
1182.563, 30.52610
1183.046, 29.92908
1183.528, 28.92503
1184.010, 27.06051
1184.492, 25.28506
1184.974, 24.29274
1185.456, 23.68642
1185.938, 23.15502
1186.420, 22.59846
1186.902, 21.93501
1187.385, 21.16108
1187.867, 20.11790
1188.349, 18.41796
1188.831, 16.97501
1189.313, 16.06443
1189.795, 15.30848
1190.277, 14.52680
1190.759, 13.82317
1191.241, 13.39389
1191.724, 13.12589
1192.206, 12.55064
1192.688, 11.56653
1193.170, 10.72117
1193.652, 10.07374
1194.134, 9.330048
1194.616, 8.352211
1195.098, 7.574963
1195.581, 7.287220
1196.063, 7.174568
1196.545, 6.811207
1197.027, 6.253109
1197.509, 5.705601
1197.991, 5.170303
1198.473, 4.756432
1198.955, 4.454758
1199.438, 4.027920
1199.920, 3.431740
1200.402, 2.981602
1200.884, 2.904686
1201.366, 2.928291
1201.848, 2.720940
1202.330, 2.339642
1202.812, 1.825417
1203.294, 1.254627
1203.776, 0.6807820
1204.259, 0.2134170
1204.741, 0.1936040
1205.223, 0.6434590
1205.705, 0.9564670
1206.187, 0.6542970
1206.669, 0.4384350
1207.151, 1.016487
1207.633, 1.637882
1208.116, 1.823505
1208.598, 1.630337
1209.080, 0.9362180
1209.562, 8.3689997E-03
1210.044, 0.5214040
1210.526, 0.5138170
1211.008, 0.4317280
1211.490, 0.3500600
1211.973, 0.2170140
1212.455, 7.5816996E-02
1212.937, 0.2975460
1213.419, 0.3615650
1213.901, 0.2727740
1214.383, 5.1500002E-04
1214.865, 0.4042430
1215.347, 0.8127750
1215.829, 0.5244260
1216.312, 1.055706
1216.794, 0.2142640
1217.276, 1.233910
1217.758, 1.827621
1218.240, 1.814716
1218.722, 1.036129
1219.204, 9.9209003E-02
1219.686, 0.3843420
1220.168, 0.4266850
1220.651, 0.1705700
1221.133, 1.144806
1221.615, 1.282078
1222.097, 0.7743190
1222.579, 0.6591150
1223.061, 1.055725
1223.543, 1.334934
1224.025, 1.201355
1224.508, 0.9871900
1224.990, 0.9937740
1225.472, 1.057648
1225.954, 0.8902890
1226.436, 0.7962570
1226.918, 1.267338
1227.400, 1.991409
1227.882, 2.547497
1228.365, 2.801048
1228.847, 2.558929
1229.329, 1.436264
1229.811, 0.8576470
1230.293, 1.792072
1230.775, 2.528690
1231.257, 2.368370
1231.739, 1.988152
1232.221, 1.577236
1232.703, 1.382870
1233.186, 1.889187
1233.668, 1.821136
1234.150, 2.070683
1234.632, 2.644489
1235.114, 2.697453
1235.596, 3.657181
1236.078, 4.354452
1236.560, 4.502405
1237.043, 4.471313
1237.525, 4.459555
1238.007, 4.476215
1238.489, 4.547466
1238.971, 4.631147
1239.453, 4.636665
1239.935, 4.550127
1240.417, 4.197126
1240.900, 3.719791
1241.382, 3.670746
1241.864, 4.088654
1242.346, 4.533821
1242.828, 4.795637
1243.310, 4.968706
1243.792, 5.083195
1244.274, 5.196674
1244.756, 5.367285
1245.239, 5.476755
1245.721, 5.606909
1246.203, 5.644245
1246.685, 5.223818
1247.167, 4.516777
1247.649, 4.098068
1248.131, 4.021921
1248.613, 4.026913
1249.095, 4.570322
1249.578, 4.600279
1250.060, 3.224747
1250.542, 2.242989
1251.024, 2.909790
1251.506, 3.983042
1251.988, 3.919098
1252.470, 2.913904
1252.952, 2.395128
1253.435, 2.502975
1253.917, 2.743942
1254.399, 2.954439
1254.881, 3.112682
1255.363, 3.175524
1255.845, 3.218660
1256.327, 3.269791
1256.809, 3.389908
1257.292, 3.606142
1257.774, 3.768721
1258.256, 3.795429
1258.738, 3.743380
1259.220, 3.300421
1259.702, 2.813076
1260.184, 3.030472
1260.666, 3.743971
1261.148, 4.040234
1261.630, 3.644516
1262.113, 3.133699
1262.595, 2.562534
1263.077, 2.142344
1263.559, 1.799673
1264.041, 1.767654
1264.523, 2.595537
1265.005, 3.381361
1265.487, 3.295038
1265.970, 2.641836
1266.452, 2.052975
1266.934, 1.517771
1267.416, 1.475292
1267.898, 2.050631
1268.380, 2.073046
1268.862, 1.449465
1269.344, 0.8844260
1269.827, 0.5997540
1270.309, 0.7368300
1270.791, 1.408899
1271.273, 2.180374
1271.755, 2.447235
1272.237, 2.379482
1272.719, 2.086681
1273.201, 1.810810
1273.683, 2.152668
1274.166, 2.819977
1274.648, 3.154022
1275.130, 2.992611
1275.612, 2.307880
1276.094, 0.8155100
1276.576, 4.0385999E-02
1277.058, 0.8622630
1277.540, 1.755390
1278.022, 1.992443
1278.505, 1.935474
1278.987, 1.689182
1279.469, 1.322903
1279.951, 0.8716930
1280.433, 0.3884620
1280.915, 8.5876003E-02
1281.397, 9.0557002E-02
1281.879, 3.2646000E-02
1282.362, 0.2193640
1282.844, 0.5401800
1283.326, 0.8938140
1283.808, 0.8111040
1284.290, 0.4293100
1284.772, 0.1184770
1285.254, 7.4310000E-03
1285.736, 0.0000000E+00
##END=



