##NAMES=Leucite
##RRUFFID=R060300
##IDEAL CHEMISTRY=K(Si_2_Al)O_6_
##LOCALITY=Alban Hills, Rome Province, Latium, Italy
##OWNER=RRUFF
##SOURCE=Herb Obodda
##DESCRIPTION=Colorless complete pseudocubic crystal showing trapezohedral faces
##STATUS=The identification of this mineral has been confirmed by X-ray diffraction and chemical analysis
##URL=rruff.info/R060300
##MEASURED CHEMISTRY=(K_0.98_Na_0.02_)_Î£=1_Al_1.00_Si_2.00_O_6_
131.9542, 0.0000000E+00
132.4363, 0.1406300
132.9185, 0.3742640
133.4006, 0.8836200
133.8827, 0.7734280
134.3648, 0.5275750
134.8469, 0.7834150
135.3290, 0.7962340
135.8112, 0.5864370
136.2933, 0.2513900
136.7754, 0.2353500
137.2575, 0.5493910
137.7396, 0.7551990
138.2217, 0.8526900
138.7039, 0.1271060
139.1860, 2.466320
139.6681, 5.431349
140.1502, 7.895735
140.6323, 9.591377
141.1144, 11.55960
141.5966, 14.38435
142.0787, 18.38836
142.5608, 21.64858
143.0429, 23.87493
143.5250, 25.51136
144.0071, 27.56314
144.4893, 30.19976
144.9714, 32.93588
145.4535, 35.48617
145.9356, 37.64839
146.4177, 40.09114
146.8998, 42.88337
147.3820, 45.97449
147.8641, 49.31571
148.3462, 52.96468
148.8283, 56.75916
149.3104, 60.65585
149.7925, 64.50253
150.2747, 68.61125
150.7568, 72.52013
151.2389, 76.34970
151.7210, 81.74284
152.2031, 90.84182
152.6852, 100.1391
153.1674, 107.5590
153.6495, 111.2502
154.1316, 114.8271
154.6137, 118.8894
155.0958, 123.4625
155.5779, 127.6240
156.0601, 132.0338
156.5422, 135.6568
157.0243, 137.5446
157.5064, 135.6623
157.9885, 133.7648
158.4706, 133.2218
158.9528, 134.3424
159.4349, 134.6308
159.9170, 132.4620
160.3991, 129.4154
160.8812, 127.3149
161.3633, 127.7303
161.8455, 128.3569
162.3276, 127.8989
162.8097, 125.8601
163.2918, 124.6363
163.7739, 125.6207
164.2560, 127.7974
164.7382, 128.7760
165.2203, 129.0962
165.7024, 129.2733
166.1845, 129.2699
166.6666, 128.9144
167.1487, 128.9392
167.6309, 129.7209
168.1130, 131.1625
168.5951, 133.0451
169.0772, 135.6718
169.5593, 138.4800
170.0414, 141.0078
170.5236, 143.1812
171.0057, 145.0833
171.4878, 146.6749
171.9699, 148.0490
172.4520, 149.4470
172.9341, 150.7314
173.4163, 152.2236
173.8984, 154.4181
174.3805, 157.8449
174.8626, 161.3019
175.3447, 163.6471
175.8268, 165.0476
176.3090, 166.2759
176.7911, 167.8167
177.2732, 169.5222
177.7553, 171.1378
178.2374, 172.5602
178.7195, 173.9112
179.2017, 175.4533
179.6838, 177.1627
180.1659, 178.6531
180.6480, 179.7416
181.1301, 180.4044
181.6122, 180.6274
182.0944, 180.5108
182.5765, 179.8840
183.0586, 178.1080
183.5407, 175.2265
184.0228, 172.3730
184.5049, 171.0814
184.9871, 170.8176
185.4692, 169.6719
185.9513, 166.6607
186.4334, 162.5253
186.9155, 158.9142
187.3976, 155.8798
187.8798, 152.9828
188.3619, 149.7598
188.8440, 146.2519
189.3261, 143.0256
189.8082, 140.2796
190.2903, 137.9453
190.7725, 135.2740
191.2546, 132.2476
191.7367, 128.9087
192.2188, 125.0666
192.7009, 120.7003
193.1830, 116.4543
193.6652, 112.5646
194.1473, 109.0088
194.6294, 105.7317
195.1115, 102.7131
195.5936, 100.0470
196.0757, 97.92686
196.5579, 96.37681
197.0400, 95.03046
197.5221, 94.01111
198.0042, 93.23428
198.4863, 91.23927
198.9684, 87.65490
199.4506, 83.82741
199.9327, 82.02203
200.4148, 82.44434
200.8969, 82.87670
201.3790, 82.35606
201.8611, 80.84356
202.3433, 79.45454
202.8254, 78.13818
203.3075, 77.01450
203.7896, 76.33562
204.2717, 76.08120
204.7538, 76.12358
205.2360, 76.62328
205.7181, 77.69700
206.2002, 78.33353
206.6823, 78.51730
207.1644, 78.28651
207.6465, 77.56583
208.1287, 76.17280
208.6108, 74.95464
209.0929, 74.35585
209.5750, 74.48537
210.0571, 74.55310
210.5392, 74.53892
211.0214, 74.52541
211.5035, 74.72251
211.9856, 75.24522
212.4677, 75.54027
212.9498, 75.41524
213.4319, 74.85878
213.9140, 73.93199
214.3962, 72.49533
214.8783, 70.78175
215.3604, 69.38785
215.8425, 68.43645
216.3246, 67.48371
216.8067, 66.29280
217.2889, 64.78068
217.7710, 63.42308
218.2531, 62.31123
218.7352, 61.26978
219.2173, 59.86522
219.6994, 57.94504
220.1816, 55.99391
220.6637, 54.23750
221.1458, 52.84592
221.6279, 51.05900
222.1100, 48.71752
222.5921, 46.06671
223.0743, 43.56847
223.5564, 41.09040
224.0385, 38.92789
224.5206, 37.40535
225.0027, 36.91314
225.4848, 35.96872
225.9670, 34.40535
226.4491, 32.43751
226.9312, 30.56875
227.4133, 28.78852
227.8954, 27.14078
228.3775, 25.70743
228.8597, 24.58603
229.3418, 23.36680
229.8239, 21.97401
230.3060, 20.49164
230.7881, 19.20788
231.2702, 18.20255
231.7524, 17.24453
232.2345, 16.21786
232.7166, 14.97665
233.1987, 13.99593
233.6808, 13.47382
234.1629, 13.16578
234.6451, 12.35450
235.1272, 10.68566
235.6093, 9.053349
236.0914, 7.862782
236.5735, 7.296837
237.0556, 6.757610
237.5378, 6.215267
238.0199, 5.710571
238.5020, 5.383884
238.9841, 5.454556
239.4662, 5.377193
239.9483, 4.893593
240.4305, 3.826336
240.9126, 2.742653
241.3947, 1.427254
241.8768, 0.1590920
242.3589, 0.2598230
242.8410, 0.8514180
243.3232, 1.763847
243.8053, 1.632347
244.2874, 0.2636600
244.7695, 1.429737
245.2516, 1.559551
245.7337, 1.089355
246.2159, 1.023354
246.6980, 1.672989
247.1801, 2.235691
247.6622, 2.353924
248.1443, 1.779457
248.6264, 1.481293
249.1086, 1.639931
249.5907, 1.983456
250.0728, 1.898659
250.5549, 1.050442
251.0370, 0.3386310
251.5191, 0.1458740
252.0013, 0.6639400
252.4834, 1.075600
252.9655, 1.373650
253.4476, 1.569199
253.9297, 1.698193
254.4118, 1.838570
254.8940, 1.765221
255.3761, 1.316017
255.8582, 0.3098680
256.3403, 0.3408280
256.8224, 0.5380170
257.3046, 0.4580610
257.7867, 0.3525390
258.2688, 0.1403810
258.7509, 8.3724998E-02
259.2330, 0.3873980
259.7151, 1.213799
260.1973, 1.376335
260.6794, 0.5025860
261.1615, 0.6734310
261.6436, 1.009705
262.1257, 0.1938860
262.6078, 0.7007600
263.0900, 1.404808
263.5721, 1.935501
264.0542, 2.140533
264.5363, 1.937164
265.0184, 1.508453
265.5005, 1.028442
265.9827, 0.4176100
266.4648, 4.1120001E-03
266.9469, 4.1161001E-02
267.4290, 0.2935560
267.9111, 0.3602290
268.3932, 1.0643000E-02
268.8754, 0.3792950
269.3575, 0.3000950
269.8396, 0.4371800
270.3217, 0.9456100
270.8038, 0.9434890
271.2859, 0.4631580
271.7681, 0.1295010
272.2502, 3.0586001E-02
272.7323, 9.9808000E-02
273.2144, 0.1295010
273.6965, 9.6809000E-02
274.1786, 0.1583180
274.6608, 0.4091800
275.1429, 0.7974470
275.6250, 0.9119340
276.1071, 0.6782380
276.5892, 0.3839870
277.0714, 0.3313900
277.5535, 0.5565640
278.0356, 0.6699830
278.5177, 0.5558930
278.9998, 0.2857820
279.4819, 0.2291560
279.9641, 0.4670180
280.4462, 0.5731510
280.9283, 0.1157380
281.4104, 0.9220120
281.8925, 1.892853
282.3746, 2.756050
282.8568, 3.446434
283.3389, 3.687805
283.8210, 3.428780
284.3031, 3.115097
284.7852, 2.873779
285.2673, 2.735382
285.7495, 3.327324
286.2316, 4.896217
286.7137, 6.984901
287.1958, 8.729805
287.6779, 10.12771
288.1600, 11.24301
288.6422, 12.04118
289.1243, 12.56051
289.6064, 12.93343
290.0885, 13.05725
290.5706, 13.33464
291.0527, 14.51443
291.5349, 16.55270
292.0170, 18.80822
292.4991, 21.02174
292.9812, 23.18429
293.4633, 25.24784
293.9454, 27.27662
294.4276, 28.99606
294.9097, 29.59277
295.3918, 29.34061
295.8739, 29.67862
296.3560, 31.84109
296.8381, 35.03870
297.3203, 37.39541
297.8024, 38.84163
298.2845, 39.74987
298.7666, 40.23379
299.2487, 40.44773
299.7308, 40.86258
300.2130, 41.94524
300.6951, 43.24755
301.1772, 44.06248
301.6593, 44.39082
302.1414, 44.35999
302.6235, 43.94824
303.1057, 43.25896
303.5878, 42.45110
304.0699, 41.38204
304.5520, 40.28642
305.0341, 39.56904
305.5162, 39.20652
305.9984, 38.81126
306.4805, 38.08814
306.9626, 37.09850
307.4447, 35.94122
307.9268, 34.54391
308.4089, 33.19742
308.8911, 32.16740
309.3732, 31.35868
309.8553, 30.46420
310.3374, 29.22117
310.8195, 27.85598
311.3016, 26.57662
311.7838, 25.36063
312.2659, 24.38919
312.7480, 24.04023
313.2301, 24.09524
313.7122, 23.98228
314.1943, 23.07814
314.6765, 22.05057
315.1586, 21.42947
315.6407, 21.41306
316.1228, 21.37383
316.6049, 21.10574
317.0870, 20.60715
317.5692, 19.88019
318.0513, 18.18283
318.5334, 16.85242
319.0155, 16.75313
319.4976, 18.19282
319.9797, 19.35110
320.4619, 19.30521
320.9440, 18.70528
321.4261, 18.30151
321.9082, 18.65360
322.3903, 18.85793
322.8724, 18.48667
323.3546, 17.51591
323.8367, 16.84287
324.3188, 16.72752
324.8009, 16.91481
325.2830, 17.21871
325.7651, 17.92545
326.2473, 18.36228
326.7294, 18.24639
327.2115, 17.69646
327.6936, 17.47247
328.1757, 17.67481
328.6578, 18.11889
329.1400, 18.72022
329.6221, 19.79377
330.1042, 20.56504
330.5863, 20.72010
331.0684, 20.56863
331.5505, 21.04663
332.0327, 22.80754
332.5148, 24.40918
332.9969, 25.25874
333.4790, 25.07662
333.9611, 24.92439
334.4432, 24.74632
334.9254, 24.62086
335.4075, 24.76762
335.8896, 25.52357
336.3717, 25.89150
336.8538, 25.37862
337.3359, 23.82200
337.8180, 23.02737
338.3001, 23.27165
338.7823, 23.90777
339.2644, 24.25820
339.7465, 24.32464
340.2286, 23.91405
340.7107, 22.85445
341.1928, 21.24326
341.6750, 19.86616
342.1571, 18.72153
342.6392, 17.73914
343.1213, 16.93751
343.6034, 16.32836
344.0855, 15.45377
344.5677, 14.11442
345.0498, 12.60250
345.5319, 11.83392
346.0140, 11.84215
346.4961, 11.71622
346.9782, 10.77763
347.4604, 9.220985
347.9425, 7.949173
348.4246, 7.019012
348.9067, 6.307625
349.3888, 5.770096
349.8709, 5.382004
350.3531, 4.977310
350.8352, 4.354980
351.3173, 3.702621
351.7994, 3.346886
352.2815, 3.283592
352.7636, 3.407646
353.2458, 3.878433
353.7279, 4.504951
354.2100, 4.827499
354.6921, 4.149925
355.1742, 3.398705
355.6563, 3.779877
356.1385, 5.169884
356.6206, 6.425392
357.1027, 6.619774
357.5848, 6.354973
358.0669, 6.324112
358.5490, 6.827843
359.0312, 7.393883
359.5133, 7.779129
359.9954, 7.953209
360.4775, 7.912323
360.9596, 7.349533
361.4417, 6.806786
361.9239, 6.668022
362.4060, 7.068634
362.8881, 7.639099
363.3702, 8.466034
363.8523, 9.333420
364.3344, 9.910309
364.8166, 9.884071
365.2987, 9.749115
365.7808, 9.674202
366.2629, 9.674362
366.7450, 9.694244
367.2271, 9.747360
367.7093, 9.807289
368.1914, 9.851006
368.6735, 9.822319
369.1556, 9.840248
369.6377, 9.956688
370.1198, 10.15541
370.6020, 10.27768
371.0841, 10.22696
371.5662, 10.18957
372.0483, 10.27983
372.5304, 10.65957
373.0125, 10.84858
373.4947, 10.70812
373.9768, 10.41492
374.4589, 10.40949
374.9410, 10.83302
375.4231, 11.25443
375.9052, 11.49704
376.3874, 11.53092
376.8695, 11.64793
377.3516, 11.89920
377.8337, 12.15086
378.3158, 12.16855
378.7979, 11.89376
379.2801, 11.85165
379.7622, 12.29025
380.2443, 13.06169
380.7264, 13.53327
381.2085, 13.68895
381.6906, 13.62925
382.1728, 13.23923
382.6549, 12.61726
383.1370, 12.45293
383.6191, 12.95776
384.1012, 13.79602
384.5833, 14.55512
385.0655, 15.20721
385.5476, 15.59390
386.0297, 15.35200
386.5118, 14.90462
386.9939, 15.05202
387.4760, 15.86028
387.9582, 16.68370
388.4403, 16.84844
388.9224, 16.63592
389.4045, 16.55836
389.8866, 17.02996
390.3687, 17.51922
390.8509, 17.59521
391.3330, 17.28314
391.8151, 16.77307
392.2972, 15.88477
392.7793, 14.98814
393.2614, 14.45351
393.7436, 14.57447
394.2257, 14.81034
394.7078, 15.13259
395.1899, 15.41157
395.6720, 15.29599
396.1541, 14.01205
396.6363, 12.83527
397.1184, 12.56167
397.6005, 13.79932
398.0826, 14.27505
398.5647, 13.19178
399.0468, 11.32306
399.5290, 9.606194
400.0111, 7.793785
400.4932, 6.486084
400.9753, 6.101341
401.4574, 6.631111
401.9395, 6.332870
402.4217, 4.477448
402.9038, 2.559380
403.3859, 1.683937
403.8680, 2.569351
404.3501, 2.732086
404.8322, 1.710869
405.3144, 2.1970000E-03
405.7965, 1.022629
406.2786, 1.214073
406.7607, 1.242332
407.2428, 1.371483
407.7249, 1.603905
408.2071, 1.931053
408.6892, 2.405304
409.1713, 2.827858
409.6534, 2.866386
410.1355, 2.544113
410.6176, 2.342987
411.0998, 2.472816
411.5819, 2.767921
412.0640, 2.846214
412.5461, 2.711662
413.0282, 2.452690
413.5103, 1.936035
413.9925, 1.346672
414.4746, 1.131531
414.9567, 1.449287
415.4388, 1.895218
415.9209, 2.201012
416.4030, 2.317924
416.8852, 2.128891
417.3673, 1.413071
417.8494, 0.4762120
418.3315, 0.5601040
418.8136, 1.682686
419.2957, 2.532654
419.7779, 2.592216
420.2600, 2.403244
420.7421, 2.506042
421.2242, 3.457481
421.7063, 4.308105
422.1884, 4.649620
422.6706, 4.620758
423.1527, 4.763458
423.6348, 5.148247
424.1169, 5.771103
424.5990, 6.687683
425.0811, 8.112213
425.5633, 9.336487
426.0454, 10.39138
426.5275, 11.21270
427.0096, 11.69463
427.4917, 11.47302
427.9738, 11.47153
428.4560, 12.00297
428.9381, 13.03247
429.4202, 13.59703
429.9023, 13.49812
430.3844, 13.28655
430.8665, 13.47799
431.3487, 14.23268
431.8308, 14.29046
432.3129, 13.27715
432.7950, 11.86255
433.2771, 11.71311
433.7592, 12.89545
434.2414, 13.64043
434.7235, 12.84788
435.2056, 10.91254
435.6877, 9.424187
436.1698, 8.408974
436.6519, 7.562973
437.1341, 6.630020
437.6162, 5.644951
438.0983, 4.657433
438.5804, 3.606583
439.0625, 2.669113
439.5446, 2.152946
440.0268, 1.956184
440.5089, 1.705223
440.9910, 0.9929960
441.4731, 0.2430420
441.9552, 5.3116001E-02
442.4373, 0.2870640
442.9195, 0.3723070
443.4016, 0.7142330
443.8837, 2.160339
444.3658, 2.978821
444.8479, 2.103218
445.3300, 1.336441
445.8122, 1.471886
446.2943, 2.376236
446.7764, 2.784248
447.2585, 2.013733
447.7406, 1.086151
448.2227, 0.5094150
448.7049, 0.4820180
449.1870, 0.4427110
449.6691, 0.3430330
450.1512, 0.2562790
450.6333, 0.3702850
451.1154, 0.9816970
451.5976, 1.139656
452.0797, 0.4575200
452.5618, 0.9930340
453.0439, 2.090927
453.5260, 2.713470
454.0081, 3.295906
454.4903, 4.186646
454.9724, 5.373795
455.4545, 6.608368
455.9366, 7.845650
456.4187, 9.125107
456.9008, 10.54467
457.3830, 12.09418
457.8651, 13.52761
458.3472, 14.51360
458.8293, 15.39704
459.3114, 16.86889
459.7935, 18.91898
460.2757, 21.22417
460.7578, 23.58311
461.2399, 25.97033
461.7220, 28.40213
462.2041, 30.93712
462.6862, 33.37482
463.1684, 35.22639
463.6505, 36.86006
464.1326, 39.09766
464.6147, 42.76102
465.0968, 46.71375
465.5789, 50.18019
466.0611, 52.97270
466.5432, 56.30603
467.0253, 60.51920
467.5074, 65.32255
467.9895, 70.45695
468.4716, 76.10168
468.9538, 81.88393
469.4359, 87.48206
469.9180, 93.15366
470.4001, 99.75758
470.8822, 107.3221
471.3643, 115.7410
471.8465, 125.0786
472.3286, 135.3811
472.8107, 145.8574
473.2928, 156.2832
473.7749, 167.0947
474.2570, 178.2679
474.7392, 189.8320
475.2213, 203.2514
475.7034, 219.3569
476.1855, 236.9001
476.6676, 253.0584
477.1497, 268.0563
477.6319, 283.4662
478.1140, 300.5707
478.5961, 318.7486
479.0782, 337.1924
479.5603, 355.8892
480.0424, 374.2163
480.5246, 391.4170
481.0067, 408.0105
481.4888, 424.7748
481.9709, 442.3425
482.4530, 459.8764
482.9352, 477.2230
483.4173, 494.2351
483.8994, 510.4519
484.3815, 525.7001
484.8636, 540.1736
485.3457, 553.7419
485.8279, 566.1393
486.3100, 578.9376
486.7921, 592.4576
487.2742, 606.3116
487.7563, 620.3111
488.2384, 634.5270
488.7206, 648.8592
489.2027, 663.1620
489.6848, 677.5916
490.1669, 692.5083
490.6490, 707.7269
491.1311, 723.6434
491.6133, 740.4182
492.0954, 758.1090
492.5775, 776.1895
493.0596, 794.9096
493.5417, 812.5790
494.0238, 827.3040
494.5060, 839.3825
494.9881, 850.1247
495.4702, 860.4858
495.9523, 868.4825
496.4344, 871.1345
496.9165, 868.8178
497.3987, 862.9754
497.8808, 852.9709
498.3629, 840.6104
498.8450, 827.2774
499.3271, 812.9235
499.8092, 798.4885
500.2914, 783.9845
500.7735, 769.7818
501.2556, 755.8028
501.7377, 741.6692
502.2198, 728.3719
502.7019, 715.5264
503.1841, 703.6337
503.6662, 693.9502
504.1483, 687.1331
504.6304, 681.7810
505.1125, 678.1104
505.5946, 676.3523
506.0768, 673.2686
506.5589, 668.5359
507.0410, 662.9755
507.5231, 657.5090
508.0052, 652.4655
508.4873, 645.5779
508.9695, 636.7370
509.4516, 625.9348
509.9337, 612.7526
510.4158, 597.2723
510.8979, 581.2124
511.3800, 564.7421
511.8622, 548.2462
512.3443, 532.1414
512.8264, 516.5869
513.3085, 502.0727
513.7906, 488.8745
514.2728, 477.0316
514.7549, 466.6248
515.2370, 457.7202
515.7191, 450.0713
516.2012, 443.7521
516.6833, 438.6221
517.1655, 434.2958
517.6476, 430.2261
518.1297, 427.2720
518.6118, 425.6252
519.0939, 425.3328
519.5760, 426.6157
520.0582, 429.7174
520.5403, 434.2323
521.0224, 439.9939
521.5045, 447.0771
521.9866, 455.3723
522.4688, 465.0807
522.9509, 475.6777
523.4330, 486.8085
523.9151, 498.5723
524.3972, 510.4602
524.8793, 522.4832
525.3615, 534.3957
525.8436, 545.7855
526.3257, 556.6268
526.8078, 566.4651
527.2899, 576.1762
527.7720, 584.7163
528.2542, 589.3317
528.7363, 589.8445
529.2184, 587.8660
529.7005, 585.7617
530.1826, 581.7186
530.6647, 573.0544
531.1469, 558.1274
531.6290, 540.0042
532.1111, 519.3018
532.5932, 496.8012
533.0753, 474.1803
533.5574, 452.5047
534.0396, 430.0671
534.5217, 405.0892
535.0038, 377.5073
535.4859, 352.4019
535.9680, 331.2473
536.4501, 311.4766
536.9323, 291.6269
537.4144, 270.9255
537.8965, 251.7834
538.3786, 234.3719
538.8607, 218.3746
539.3428, 203.8318
539.8250, 190.6928
540.3071, 178.1708
540.7892, 166.0321
541.2713, 154.4771
541.7534, 144.6410
542.2355, 136.4186
542.7177, 128.7325
543.1998, 120.5427
543.6819, 112.5429
544.1640, 106.0131
544.6461, 101.0624
545.1282, 96.28350
545.6104, 90.24912
546.0925, 84.10058
546.5746, 79.15722
547.0567, 76.59031
547.5388, 74.16682
548.0209, 71.24975
548.5031, 67.99024
548.9852, 64.63207
549.4673, 60.67019
549.9494, 57.16930
550.4315, 54.54554
550.9136, 52.79639
551.3958, 50.78142
551.8779, 48.28788
552.3600, 45.88836
552.8421, 44.04774
553.3242, 42.87425
553.8063, 41.18537
554.2885, 38.82610
554.7706, 36.24512
555.2527, 34.04500
555.7348, 32.17329
556.2169, 30.26031
556.6990, 28.10043
557.1812, 26.00249
557.6633, 24.53239
558.1454, 23.55108
558.6275, 22.52578
559.1096, 21.05452
559.5917, 19.49580
560.0739, 18.16565
560.5560, 17.08228
561.0381, 16.06680
561.5202, 15.05189
562.0023, 14.08822
562.4844, 13.21639
562.9666, 12.43523
563.4487, 11.75665
563.9308, 11.34819
564.4129, 10.96817
564.8950, 10.20354
565.3771, 8.821030
565.8593, 7.609634
566.3414, 6.797276
566.8235, 6.288685
567.3056, 5.555519
567.7877, 4.557678
568.2698, 3.676460
568.7520, 3.309074
569.2341, 3.265343
569.7162, 2.670132
570.1983, 1.470642
570.6804, 0.2834360
571.1625, 0.3177570
571.6447, 0.5043720
572.1268, 0.4902420
572.6089, 0.1428570
573.0910, 1.1490000E-02
573.5731, 0.7345010
574.0552, 1.868179
574.5374, 2.658470
575.0195, 2.510117
575.5016, 2.321503
575.9837, 2.422623
576.4658, 2.788025
576.9479, 3.014648
577.4301, 2.922070
577.9122, 2.895367
578.3943, 3.183506
578.8764, 3.922264
579.3585, 4.143936
579.8406, 3.720932
580.3228, 3.064663
580.8049, 2.468021
581.2870, 1.948994
581.7691, 1.958782
582.2512, 2.786682
582.7333, 3.664444
583.2155, 3.202171
583.6975, 1.798824
584.1796, 0.6576920
584.6617, 0.6175650
585.1439, 0.8650670
585.6260, 0.5880390
586.1081, 0.1169590
586.5902, 0.6425970
587.0723, 0.4379620
587.5544, 9.5675997E-02
588.0366, 2.4490000E-03
588.5187, 0.2864340
589.0008, 0.6324650
589.4829, 1.197628
589.9650, 1.593788
590.4471, 1.494915
590.9293, 0.5309300
591.4114, 8.8698998E-02
591.8935, 0.4346580
592.3756, 1.149830
592.8577, 1.430096
593.3398, 1.240963
593.8220, 1.169029
594.3041, 1.467735
594.7862, 1.962521
595.2683, 2.311878
595.7504, 2.501820
596.2325, 2.466747
596.7147, 1.827534
597.1968, 1.128811
597.6789, 1.117443
598.1610, 1.856518
598.6431, 2.490017
599.1252, 2.666843
599.6074, 2.463089
600.0895, 1.878139
600.5716, 0.4033470
601.0537, 0.5620960
601.5358, 0.5382460
602.0179, 9.0870000E-03
602.5001, 0.5260350
602.9822, 1.080639
603.4643, 1.465328
603.9464, 1.650528
604.4285, 1.641129
604.9106, 1.348125
605.3928, 0.7228780
605.8749, 0.2847400
606.3570, 0.3743740
606.8391, 0.8444330
607.3212, 1.227364
607.8033, 1.525055
608.2855, 1.805840
608.7676, 2.154144
609.2497, 2.501389
609.7318, 2.762581
610.2139, 2.927158
610.6960, 2.999817
611.1782, 2.919449
611.6603, 2.777924
612.1424, 2.669899
612.6245, 2.741215
613.1066, 2.699215
613.5887, 2.314926
614.0709, 1.829594
614.5530, 1.744492
615.0351, 2.235786
615.5172, 2.761341
615.9993, 3.187038
616.4814, 3.530682
616.9636, 3.929638
617.4457, 4.398743
617.9278, 4.753956
618.4099, 4.814457
618.8920, 4.675217
619.3741, 4.554905
619.8563, 4.458015
620.3384, 4.473839
620.8205, 4.704391
621.3026, 5.075840
621.7847, 5.535561
622.2668, 6.164013
622.7490, 6.635990
623.2311, 6.831024
623.7132, 6.784824
624.1953, 6.543049
624.6774, 5.663357
625.1595, 5.154984
625.6417, 5.356194
626.1238, 5.969944
626.6059, 6.094040
627.0880, 5.499092
627.5701, 5.121403
628.0522, 5.402176
628.5344, 6.168873
629.0165, 6.552509
629.4986, 6.550907
629.9807, 6.373848
630.4628, 6.041313
630.9449, 5.674145
631.4271, 5.531849
631.9092, 5.612476
632.3913, 5.619591
632.8734, 5.343044
633.3555, 4.956333
633.8376, 4.596329
634.3198, 4.211102
634.8019, 3.996498
635.2840, 4.191330
635.7661, 4.541618
636.2482, 4.680611
636.7303, 4.504803
637.2125, 4.244308
637.6946, 3.963299
638.1767, 3.570679
638.6588, 3.240013
639.1409, 2.675930
639.6230, 2.098217
640.1052, 1.413071
640.5873, 0.7401660
641.0694, 0.7349740
641.5515, 1.388069
642.0336, 1.883896
642.5157, 1.396374
642.9979, 0.4901430
643.4800, 0.2201120
643.9621, 0.6727910
644.4442, 0.7841990
644.9263, 7.2921999E-02
645.4084, 0.6930540
645.8906, 0.8634640
646.3727, 0.2802090
646.8548, 0.7974360
647.3369, 0.3409540
647.8190, 0.5695800
648.3011, 1.367016
648.7833, 2.098377
649.2654, 2.441811
649.7475, 2.274147
650.2296, 1.896416
650.7117, 2.001564
651.1938, 2.528309
651.6760, 2.785458
652.1581, 2.224182
652.6402, 1.453060
653.1223, 1.537342
653.6044, 2.282097
654.0865, 2.864120
654.5687, 2.557152
655.0508, 2.122162
655.5329, 2.089886
656.0150, 2.530579
656.4971, 3.032051
656.9792, 3.671581
657.4614, 4.204342
657.9435, 4.496693
658.4256, 4.474796
658.9077, 4.189724
659.3898, 3.560886
659.8719, 3.010567
660.3541, 2.986057
660.8362, 3.467403
661.3183, 4.005707
661.8004, 4.560081
662.2825, 5.017082
662.7646, 5.054405
663.2468, 4.854324
663.7289, 4.938663
664.2110, 5.899040
664.6931, 6.776066
665.1752, 6.663769
665.6573, 5.934437
666.1395, 5.478859
666.6216, 5.916027
667.1037, 6.305492
667.5858, 6.234905
668.0679, 5.793633
668.5500, 5.642349
669.0322, 5.882809
669.5143, 6.202087
669.9964, 6.461571
670.4785, 6.672588
670.9606, 7.026211
671.4427, 7.542557
671.9249, 7.911221
672.4070, 7.844204
672.8891, 7.494553
673.3712, 7.063339
673.8533, 6.537807
674.3354, 6.240742
674.8176, 6.729691
675.2997, 7.409523
675.7818, 7.600880
676.2639, 6.732769
676.7460, 6.167088
677.2281, 6.382717
677.7103, 7.000797
678.1924, 7.591343
678.6745, 8.231110
679.1566, 8.659855
679.6387, 8.803089
680.1208, 8.751831
680.6030, 8.745064
681.0851, 8.781979
681.5672, 8.590908
682.0493, 7.932236
682.5314, 7.124962
683.0135, 6.750153
683.4957, 6.729549
683.9778, 6.761101
684.4599, 6.842403
684.9420, 6.778885
685.4241, 6.328899
685.9063, 5.531704
686.3884, 4.883190
686.8705, 4.675083
687.3526, 4.498775
687.8347, 4.098728
688.3168, 3.383476
688.7990, 3.177418
689.2811, 3.686607
689.7632, 4.241932
690.2453, 4.314533
690.7274, 3.932991
691.2095, 3.448967
691.6917, 2.876350
692.1738, 2.281006
692.6559, 1.739414
693.1380, 1.239288
693.6201, 0.7062490
694.1022, 1.7200000E-04
694.5844, 0.3955840
695.0665, 0.1031800
695.5486, 0.9715000
696.0307, 1.538548
696.5128, 1.464382
696.9949, 1.314747
697.4771, 1.101810
697.9592, 0.8634570
698.4413, 0.6989060
698.9234, 0.6617240
699.4055, 0.5484730
699.8876, 0.2378880
700.3698, 0.1498990
700.8519, 0.2623710
701.3340, 0.1531180
701.8161, 3.5114001E-02
702.2982, 8.9405000E-02
702.7803, 0.1770670
703.2625, 6.9847003E-02
703.7446, 0.5590020
704.2267, 0.7351380
704.7088, 0.2197990
705.1909, 1.152687
705.6730, 1.274658
706.1552, 0.4123000
706.6373, 0.2093730
707.1194, 1.148262
707.6015, 2.070320
708.0836, 2.238636
708.5657, 1.597210
709.0479, 1.453499
709.5300, 1.878113
710.0121, 2.349106
710.4942, 2.386444
710.9763, 2.114666
711.4584, 1.748112
711.9406, 1.281006
712.4227, 0.9857480
712.9048, 1.130852
713.3869, 1.517227
713.8690, 1.962482
714.3511, 2.572887
714.8333, 2.961765
715.3154, 2.901943
715.7975, 2.663895
716.2796, 2.536705
716.7617, 2.595032
717.2438, 2.528004
717.7260, 2.233829
718.2081, 1.903301
718.6902, 1.852238
719.1723, 2.070156
719.6544, 2.513031
720.1365, 3.299122
720.6187, 4.094162
721.1008, 4.619923
721.5829, 4.847496
722.0650, 4.721104
722.5471, 3.807537
723.0292, 2.940414
723.5114, 2.418480
723.9935, 2.240097
724.4756, 2.399216
724.9577, 3.310383
725.4398, 3.868042
725.9219, 3.592381
726.4041, 2.682838
726.8862, 2.384136
727.3683, 2.751167
727.8504, 3.058155
728.3325, 2.713047
728.8146, 2.076702
729.2968, 1.963326
729.7789, 2.330227
730.2610, 2.749050
730.7431, 3.008820
731.2252, 3.174343
731.7073, 3.287083
732.1895, 3.350681
732.6716, 3.364258
733.1537, 3.228725
733.6358, 3.134418
734.1179, 3.222956
734.6000, 3.573660
735.0822, 3.554073
735.5643, 3.034706
736.0464, 2.584867
736.5285, 2.937477
737.0106, 3.818176
737.4927, 4.097878
737.9749, 3.613951
738.4570, 3.040195
738.9391, 3.005518
739.4212, 3.195713
739.9033, 3.246948
740.3854, 3.014729
740.8676, 2.811712
741.3497, 2.828152
741.8318, 2.857094
742.3139, 2.648460
742.7960, 1.963598
743.2781, 1.679823
743.7603, 1.959476
744.2424, 2.476067
744.7245, 2.791698
745.2066, 2.918077
745.6887, 2.989103
746.1708, 3.061743
746.6530, 3.016647
747.1351, 2.667990
747.6172, 2.114380
748.0993, 1.529615
748.5814, 0.8667030
749.0635, 0.3113840
749.5457, 0.1125970
750.0278, 0.3817410
750.5099, 0.4517520
750.9920, 0.3449290
751.4741, 3.6591999E-02
751.9562, 0.9113600
752.4384, 1.913195
752.9205, 1.942114
753.4026, 1.024740
753.8847, 0.3231950
754.3668, 0.4345820
754.8489, 0.8402460
755.3311, 0.7860390
755.8132, 0.3963280
756.2953, 3.8504001E-02
756.7774, 0.1919670
757.2595, 0.2797030
757.7416, 0.1643430
758.2238, 0.1168000
758.7059, 0.3699460
759.1880, 0.5854450
759.6701, 0.7789060
760.1522, 0.9685270
760.6343, 1.138884
761.1165, 1.108351
761.5986, 0.8481980
762.0807, 0.8738480
762.5628, 1.859573
763.0449, 3.154148
763.5270, 3.595028
764.0092, 3.296019
764.4913, 2.863140
764.9734, 2.292212
765.4555, 1.972300
765.9376, 2.320179
766.4197, 3.347324
766.9019, 3.968752
767.3840, 4.014824
767.8661, 3.817394
768.3482, 3.426067
768.8303, 2.855902
769.3124, 2.631418
769.7946, 2.777140
770.2767, 2.994207
770.7588, 2.936922
771.2409, 2.859327
771.7230, 3.298986
772.2051, 4.264778
772.6873, 5.247921
773.1694, 6.091288
773.6515, 6.716522
774.1336, 7.008453
774.6157, 6.875393
775.0978, 6.963169
775.5800, 7.538660
776.0621, 8.007040
776.5442, 7.831196
777.0263, 6.946272
777.5084, 7.170050
777.9905, 8.614258
778.4727, 10.00348
778.9548, 9.953424
779.4369, 9.201223
779.9190, 9.167339
780.4011, 10.03550
780.8832, 10.62663
781.3654, 9.933165
781.8475, 8.933117
782.3296, 8.297878
782.8117, 8.119402
783.2938, 8.406033
783.7759, 9.521793
784.2581, 10.60368
784.7402, 10.93439
785.2223, 10.51405
785.7044, 10.10291
786.1865, 9.726158
786.6686, 9.401894
787.1508, 8.894421
787.6329, 8.549316
788.1150, 9.157461
788.5971, 11.06393
789.0792, 12.39374
789.5613, 11.77759
790.0435, 10.53454
790.5256, 9.724545
791.0077, 9.578903
791.4898, 9.413965
791.9719, 9.253187
792.4540, 9.052639
792.9362, 8.770350
793.4183, 8.408085
793.9004, 8.018635
794.3825, 7.597212
794.8646, 7.202234
795.3467, 6.750912
795.8289, 6.410494
796.3110, 6.546680
796.7931, 7.433403
797.2752, 7.863401
797.7573, 7.004772
798.2394, 5.772287
798.7216, 4.938576
799.2037, 4.673710
799.6858, 4.301069
800.1679, 3.667183
800.6500, 3.270182
801.1321, 3.936810
801.6143, 5.356476
802.0964, 5.849447
802.5785, 5.143764
803.0606, 4.345007
803.5427, 4.708038
804.0248, 5.376347
804.5070, 5.295771
804.9891, 3.918125
805.4712, 2.876127
805.9533, 2.667244
806.4354, 2.813597
806.9175, 3.050228
807.3997, 3.471313
807.8818, 3.492733
808.3639, 2.997557
808.8460, 2.511209
809.3281, 2.802486
809.8102, 3.499987
810.2924, 3.568073
810.7745, 2.806856
811.2566, 2.032755
811.7387, 1.894093
812.2208, 1.964705
812.7029, 1.826778
813.1851, 1.227367
813.6672, 0.9864350
814.1493, 1.395386
814.6314, 1.859093
815.1135, 1.844942
815.5956, 1.319305
816.0778, 1.027250
816.5599, 1.012583
817.0420, 1.110775
817.5241, 1.250189
818.0062, 1.363829
818.4883, 1.346107
818.9705, 1.177345
819.4526, 0.9216540
819.9347, 0.4985790
820.4168, 8.1995003E-02
820.8989, 0.2162170
821.3810, 0.4220310
821.8632, 0.4155250
822.3453, 0.1380500
822.8274, 0.2462370
823.3095, 0.6959320
823.7916, 1.148510
824.2737, 1.224989
824.7559, 0.9101600
825.2380, 0.5709760
825.7201, 0.4932000
826.2022, 0.5480690
826.6843, 0.6476060
827.1664, 0.7896460
827.6486, 0.8147740
828.1307, 0.6285250
828.6128, 0.3676130
829.0949, 4.9132999E-02
829.5770, 0.3371940
830.0591, 0.4408250
830.5413, 0.2212680
831.0234, 2.7527001E-02
831.5055, 1.8820001E-02
831.9876, 9.2456996E-02
832.4697, 9.4783999E-02
832.9518, 0.5654140
833.4340, 0.8709490
833.9161, 0.5383240
834.3982, 0.1159880
834.8803, 5.0505001E-02
835.3624, 8.8154003E-02
835.8445, 0.2405530
836.3267, 0.4132400
836.8088, 0.5572780
837.2909, 0.6435570
837.7730, 0.6922550
838.2551, 0.7273240
838.7372, 0.7528320
839.2194, 0.9280890
839.7015, 1.678471
840.1836, 2.446354
840.6657, 2.605177
841.1478, 2.202587
841.6299, 1.735556
842.1121, 1.116898
842.5942, 0.7312320
843.0763, 0.7667750
843.5584, 1.153656
844.0405, 1.520819
844.5226, 1.906763
845.0048, 2.079493
845.4869, 1.840788
845.9690, 1.390545
846.4511, 1.069693
846.9332, 0.8362510
847.4153, 0.6345840
847.8975, 0.2673530
848.3796, 0.1438790
848.8617, 0.6581460
849.3438, 1.583622
849.8259, 2.156954
850.3080, 2.259835
850.7902, 2.253623
851.2723, 2.185543
851.7544, 2.104071
852.2365, 2.041295
852.7186, 1.981363
853.2007, 2.053586
853.6829, 2.373260
854.1650, 2.773783
854.6471, 3.244677
855.1292, 3.653091
855.6113, 3.790975
856.0934, 3.468573
856.5756, 3.131838
857.0577, 2.585869
857.5398, 2.047093
858.0219, 2.045933
858.5040, 2.657850
858.9861, 3.322067
859.4683, 4.041685
859.9504, 4.442527
860.4325, 3.692480
860.9146, 2.370367
861.3967, 1.492849
861.8788, 1.391685
862.3610, 1.562382
862.8431, 2.056755
863.3252, 2.647362
863.8073, 3.080717
864.2894, 3.265829
864.7715, 3.359587
865.2537, 3.399900
865.7358, 3.393385
866.2179, 3.181664
866.7000, 2.834684
867.1821, 2.779638
867.6642, 3.096991
868.1464, 3.327868
868.6285, 2.955740
869.1106, 2.488084
869.5927, 2.327679
870.0748, 2.576159
870.5569, 2.728598
871.0391, 2.784457
871.5212, 2.763601
872.0033, 2.595881
872.4854, 2.349058
872.9675, 2.475719
873.4496, 2.930420
873.9318, 3.367479
874.4139, 3.546635
874.8960, 3.601882
875.3781, 3.649204
875.8602, 3.686206
876.3423, 3.647599
876.8245, 3.471065
877.3066, 3.260002
877.7887, 2.972858
878.2708, 2.681746
878.7529, 2.813519
879.2350, 3.367478
879.7172, 3.618378
880.1993, 3.009754
880.6814, 2.224108
881.1635, 2.266162
881.6456, 2.830952
882.1277, 3.205226
882.6099, 3.016788
883.0920, 2.724418
883.5741, 2.319921
884.0562, 1.945677
884.5383, 1.852449
885.0204, 2.085911
885.5026, 2.338518
885.9847, 2.593042
886.4668, 2.735987
886.9489, 2.503889
887.4310, 2.050381
887.9131, 1.725060
888.3953, 1.653084
888.8774, 1.661674
889.3595, 1.756403
889.8416, 1.828302
890.3237, 1.774305
890.8058, 1.512253
891.2880, 1.368349
891.7701, 1.371857
892.2522, 1.390356
892.7343, 1.251125
893.2164, 1.047544
893.6985, 1.049076
894.1807, 1.273470
894.6628, 1.467142
895.1449, 1.397444
895.6270, 1.293909
896.1091, 1.399307
896.5912, 1.754436
897.0734, 1.631557
897.5555, 0.7851830
898.0376, 5.0182000E-02
898.5197, 0.1665360
899.0018, 2.8114000E-02
899.4839, 0.3731770
899.9661, 0.8297270
900.4482, 1.176992
900.9303, 1.348288
901.4124, 1.332830
901.8945, 1.007664
902.3766, 0.4794460
902.8588, 8.5845999E-02
903.3409, 0.2050320
903.8230, 0.2301460
904.3051, 0.1354120
904.7872, 0.6720890
905.2693, 0.9286920
905.7515, 0.9447480
906.2336, 1.020468
906.7157, 1.281342
907.1978, 1.577187
907.6799, 1.941936
908.1620, 2.182613
908.6442, 2.042427
909.1263, 0.9488490
909.6084, 0.4415110
910.0905, 0.8582440
910.5726, 1.445995
911.0547, 1.494814
911.5369, 1.055864
912.0190, 0.7752610
912.5011, 0.7003120
912.9832, 0.5093250
913.4653, 0.5056340
913.9474, 1.466457
914.4296, 1.309998
914.9117, 0.1129880
915.3938, 0.9919850
915.8759, 0.7797570
916.3580, 0.3867950
916.8401, 8.5179999E-02
917.3223, 0.1021250
917.8044, 5.2570000E-02
918.2865, 0.5187570
918.7686, 0.8957710
919.2507, 1.047720
919.7328, 0.9509750
920.2150, 0.3352260
920.6971, 0.5387840
921.1792, 1.045460
921.6613, 0.5607070
922.1434, 0.3324740
922.6255, 0.7470930
923.1077, 1.310453
923.5898, 0.9663980
924.0719, 0.2042260
924.5540, 0.7879620
925.0361, 0.4105030
925.5182, 0.2081780
926.0004, 0.5480020
926.4825, 0.6236340
926.9646, 0.3993260
927.4467, 0.3106080
927.9288, 0.8259510
928.4109, 1.106094
928.8931, 1.145931
929.3752, 0.7930790
929.8573, 6.1399002E-02
930.3394, 7.8010999E-02
930.8215, 0.3803460
931.3036, 0.8908790
931.7858, 0.9908080
932.2679, 0.9845280
932.7500, 1.302782
933.2321, 1.866779
933.7142, 2.039623
934.1964, 1.211891
934.6785, 0.6043110
935.1606, 0.5941960
935.6427, 0.9690690
936.1248, 1.107679
936.6069, 1.033550
937.0891, 0.9235590
937.5712, 0.8168330
938.0533, 0.7189810
938.5354, 0.5843700
939.0175, 0.4911420
939.4996, 0.5415730
939.9818, 0.8291930
940.4639, 1.155354
940.9460, 1.517334
941.4281, 1.888702
941.9102, 2.327251
942.3923, 2.795090
942.8745, 2.715839
943.3566, 2.023350
943.8387, 1.607880
944.3208, 2.443363
944.8029, 3.679207
945.2850, 4.724609
945.7672, 5.516197
946.2493, 5.818607
946.7314, 5.290108
947.2135, 4.924423
947.6956, 5.173450
948.1777, 5.849697
948.6599, 6.325565
949.1420, 6.607460
949.6241, 6.689266
950.1062, 6.352844
950.5883, 6.065407
951.0704, 5.989948
951.5526, 6.233582
952.0347, 7.071362
952.5168, 9.105595
952.9989, 10.44825
953.4810, 10.88630
953.9631, 10.77011
954.4453, 10.30847
954.9274, 9.634460
955.4095, 9.229385
955.8916, 9.159122
956.3737, 9.301781
956.8558, 9.883793
957.3380, 10.45429
957.8201, 10.61404
958.3022, 10.30179
958.7843, 10.08109
959.2664, 9.926830
959.7485, 9.915367
960.2307, 10.12843
960.7128, 10.46830
961.1949, 10.81911
961.6770, 11.12966
962.1591, 11.18068
962.6412, 10.45781
963.1234, 9.907925
963.6055, 10.06268
964.0876, 10.57801
964.5697, 10.90108
965.0518, 11.01772
965.5339, 10.96673
966.0161, 10.72664
966.4982, 10.40756
966.9803, 10.01296
967.4624, 9.651108
967.9445, 9.646011
968.4266, 10.10830
968.9088, 10.30222
969.3909, 9.628361
969.8730, 8.910351
970.3551, 8.555984
970.8372, 8.550064
971.3193, 8.762707
971.8015, 9.203472
972.2836, 9.382244
972.7657, 8.822277
973.2478, 8.065453
973.7299, 7.868805
974.2120, 7.984291
974.6942, 7.816685
975.1763, 6.776176
975.6584, 6.007336
976.1405, 5.546318
976.6226, 5.534874
977.1047, 6.517780
977.5869, 8.343338
978.0690, 9.191036
978.5511, 8.714081
979.0332, 7.828796
979.5153, 7.224369
979.9974, 6.685280
980.4796, 5.848610
980.9617, 4.569477
981.4438, 4.176910
981.9259, 5.290867
982.4080, 6.114700
982.8901, 5.687778
983.3723, 4.409138
983.8544, 3.382206
984.3365, 2.660332
984.8186, 2.421471
985.3007, 3.215710
985.7828, 4.010689
986.2650, 4.288223
986.7471, 4.254219
987.2292, 4.294239
987.7113, 4.468929
988.1934, 4.432148
988.6755, 4.162186
989.1577, 3.741684
989.6398, 3.183960
990.1219, 2.583935
990.6040, 2.086243
991.0861, 1.707314
991.5682, 1.471497
992.0504, 1.374218
992.5325, 1.459087
993.0146, 1.848343
993.4967, 2.432140
993.9788, 2.577847
994.4609, 2.287975
994.9431, 2.040558
995.4252, 2.151516
995.9073, 2.211899
996.3894, 1.482201
996.8715, 0.4818380
997.3536, 5.3188000E-02
997.8358, 1.134155
998.3179, 1.719662
998.8000, 1.616402
999.2821, 1.236092
999.7642, 0.9205630
1000.246, 0.6683810
1000.728, 0.4180410
1001.211, 0.1752090
1001.693, 0.1972390
1002.175, 1.211960
1002.657, 2.048969
1003.139, 1.631523
1003.621, 0.1903880
1004.103, 0.3892440
1004.585, 0.1188810
1005.068, 0.6472590
1005.550, 0.9264560
1006.032, 1.041653
1006.514, 1.114849
1006.996, 1.137592
1007.478, 1.114090
1007.960, 1.107700
1008.442, 0.8916630
1008.924, 2.1004001E-02
1009.407, 0.7553630
1009.889, 0.8794590
1010.371, 0.3219030
1010.853, 2.8000001E-02
1011.335, 0.1733740
1011.817, 0.3014370
1012.299, 0.7495540
1012.781, 1.067165
1013.263, 0.6638720
1013.746, 0.2399440
1014.228, 0.8672410
1014.710, 1.250557
1015.192, 1.013191
1015.674, 0.1821400
1016.156, 1.549587
1016.638, 1.860500
1017.120, 1.365978
1017.603, 0.7679600
1018.085, 0.1479990
1018.567, 0.2729230
1019.049, 0.3274840
1019.531, 0.1633760
1020.013, 0.1657560
1020.495, 0.6439170
1020.977, 1.087257
1021.459, 1.523270
1021.942, 1.660820
1022.424, 1.188557
1022.906, 0.5492250
1023.388, 0.3359180
1023.870, 0.4131090
1024.352, 0.5153050
1024.834, 0.5033300
1025.316, 0.6253850
1025.799, 1.062263
1026.281, 1.422916
1026.763, 1.155449
1027.245, 0.3999520
1027.727, 7.7137001E-02
1028.209, 0.2284050
1028.691, 0.5378420
1029.173, 0.9662510
1029.656, 1.321716
1030.138, 1.348614
1030.620, 1.152748
1031.102, 1.361343
1031.584, 2.153763
1032.066, 2.591957
1032.548, 2.362999
1033.030, 1.885120
1033.512, 1.649166
1033.995, 1.641464
1034.477, 1.882179
1034.959, 2.452312
1035.441, 2.974678
1035.923, 3.460728
1036.405, 3.753613
1036.887, 3.692455
1037.369, 3.334793
1037.851, 3.233475
1038.334, 3.360722
1038.816, 3.435852
1039.298, 3.060841
1039.780, 2.823647
1040.262, 3.376232
1040.744, 4.279690
1041.226, 4.610001
1041.708, 4.017681
1042.191, 3.839214
1042.673, 4.227776
1043.155, 4.807232
1043.637, 5.221039
1044.119, 5.547474
1044.601, 5.873871
1045.083, 6.221848
1045.565, 6.736732
1046.047, 7.839600
1046.530, 8.665482
1047.012, 8.871212
1047.494, 8.659027
1047.976, 8.577137
1048.458, 8.602840
1048.940, 8.517937
1049.422, 8.164959
1049.904, 8.002388
1050.386, 8.498795
1050.869, 9.284290
1051.351, 10.00795
1051.833, 10.64532
1052.315, 11.25149
1052.797, 11.85683
1053.279, 12.29121
1053.761, 12.36686
1054.243, 12.27643
1054.726, 12.27387
1055.208, 12.38158
1055.690, 12.65965
1056.172, 13.15185
1056.654, 13.83552
1057.136, 14.95941
1057.618, 15.94621
1058.100, 15.93964
1058.583, 15.12263
1059.065, 14.69544
1059.547, 14.74469
1060.029, 14.93346
1060.511, 15.44671
1060.993, 15.63647
1061.475, 14.69184
1061.957, 13.01859
1062.439, 12.46332
1062.922, 13.23577
1063.404, 13.75926
1063.886, 13.56301
1064.368, 13.19982
1064.850, 13.57399
1065.332, 14.10445
1065.814, 13.89972
1066.296, 12.55750
1066.778, 11.56989
1067.261, 11.11732
1067.743, 10.93994
1068.225, 11.04485
1068.707, 11.26407
1069.189, 10.90050
1069.671, 10.14539
1070.153, 9.697876
1070.635, 10.14736
1071.118, 10.58956
1071.600, 10.77924
1072.082, 10.68390
1072.564, 10.09543
1073.046, 8.926010
1073.528, 8.769493
1074.010, 9.693665
1074.492, 10.60231
1074.974, 10.77364
1075.457, 10.44879
1075.939, 9.516285
1076.421, 8.228977
1076.903, 7.585629
1077.385, 7.945538
1077.867, 8.090023
1078.349, 7.766117
1078.831, 7.312565
1079.313, 7.199768
1079.796, 7.266804
1080.278, 7.173996
1080.760, 6.856003
1081.242, 6.748940
1081.724, 7.100002
1082.206, 7.621590
1082.688, 8.446594
1083.170, 9.238964
1083.652, 8.448380
1084.135, 6.479153
1084.617, 5.530933
1085.099, 6.700352
1085.581, 8.038292
1086.063, 8.716755
1086.545, 8.717075
1087.027, 7.832806
1087.509, 5.876953
1087.992, 5.320259
1088.474, 6.246902
1088.956, 7.285740
1089.438, 7.661888
1089.920, 7.680054
1090.402, 7.506905
1090.884, 7.248459
1091.366, 7.137707
1091.849, 7.311928
1092.331, 7.377060
1092.813, 7.203449
1093.295, 7.214664
1093.777, 8.188160
1094.259, 9.519737
1094.741, 9.789795
1095.223, 9.093178
1095.705, 8.649883
1096.188, 9.417904
1096.670, 9.880051
1097.152, 9.426094
1097.634, 8.698891
1098.116, 9.067841
1098.598, 10.28438
1099.080, 10.91689
1099.562, 10.69936
1100.044, 10.31797
1100.527, 10.04186
1101.009, 9.922825
1101.491, 10.07421
1101.973, 10.42419
1102.455, 10.52559
1102.937, 10.36557
1103.419, 10.32999
1103.901, 10.59900
1104.384, 10.91353
1104.866, 11.01707
1105.348, 11.00427
1105.830, 10.95156
1106.312, 10.80768
1106.794, 10.95604
1107.276, 11.50287
1107.758, 11.96353
1108.240, 12.02481
1108.723, 11.85785
1109.205, 11.65835
1109.687, 11.50287
1110.169, 11.50127
1110.651, 11.90655
1111.133, 12.08947
1111.615, 11.86863
1112.097, 11.69789
1112.579, 12.22127
1113.062, 13.09064
1113.544, 12.77493
1114.026, 11.45387
1114.508, 10.52960
1114.990, 11.09141
1115.472, 11.75610
1115.954, 12.01655
1116.436, 12.08106
1116.919, 12.35670
1117.401, 12.81573
1117.883, 12.84293
1118.365, 12.32848
1118.847, 11.82627
1119.329, 11.78695
1119.811, 11.90549
1120.293, 12.00859
1120.776, 12.10073
1121.258, 12.19173
1121.740, 12.30791
1122.222, 12.23211
1122.704, 11.90243
1123.186, 11.49192
1123.668, 10.94780
1124.150, 10.55372
1124.632, 10.73915
1125.115, 11.66081
1125.597, 12.19403
1126.079, 12.27704
1126.561, 12.06105
1127.043, 11.49810
1127.525, 10.79992
1128.007, 10.09983
1128.489, 9.578136
1128.971, 9.644093
1129.454, 10.80572
1129.936, 11.40680
1130.418, 11.08274
1130.900, 10.61438
1131.382, 10.43141
1131.864, 10.47553
1132.346, 10.55033
1132.828, 10.64988
1133.311, 10.77649
1133.793, 11.37426
1134.275, 11.40705
1134.757, 10.19517
1135.239, 8.883091
1135.721, 8.493729
1136.203, 8.916897
1136.685, 9.390450
1137.167, 9.882671
1137.650, 10.23008
1138.132, 10.44932
1138.614, 10.38231
1139.096, 9.726833
1139.578, 8.861156
1140.060, 8.326637
1140.542, 8.126293
1141.024, 7.739788
1141.506, 7.110741
1141.989, 6.808380
1142.471, 7.820305
1142.953, 8.807652
1143.435, 8.618805
1143.917, 7.622421
1144.399, 7.194576
1144.881, 7.445881
1145.363, 7.530489
1145.846, 7.285524
1146.328, 6.874195
1146.810, 6.234577
1147.292, 5.774832
1147.774, 6.089672
1148.256, 7.170822
1148.738, 7.574841
1149.220, 7.131945
1149.703, 6.644026
1150.185, 6.385054
1150.667, 5.981304
1151.149, 4.412184
1151.631, 2.656481
1152.113, 2.212753
1152.595, 3.547434
1153.077, 4.586626
1153.559, 5.313761
1154.042, 5.340155
1154.524, 4.183241
1155.006, 2.718498
1155.488, 2.852022
1155.970, 3.817825
1156.452, 4.084148
1156.934, 3.004574
1157.416, 1.988605
1157.898, 0.9885730
1158.381, 0.5190600
1158.863, 1.164255
1159.345, 2.362595
1159.827, 2.341461
1160.309, 1.533680
1160.791, 1.139496
1161.273, 2.042667
1161.755, 2.534300
1162.238, 2.058550
1162.720, 1.386581
1163.202, 1.071680
1163.684, 1.047913
1164.166, 0.9348160
1164.648, 0.7593000
1165.130, 0.6598910
1165.612, 0.9328860
1166.094, 0.9806480
1166.577, 0.3958990
1167.059, 0.2831730
1167.541, 0.4336620
1168.023, 0.1451110
1168.505, 0.3059140
1168.987, 0.8757360
1169.469, 1.268230
1169.951, 1.083364
1170.433, 0.7118680
1170.916, 0.1172010
1171.398, 0.4251400
1171.880, 0.4680770
1172.362, 4.7520000E-02
1172.844, 4.3062001E-02
1173.326, 0.2441900
1173.808, 0.3379330
1174.290, 0.5153690
1174.773, 1.309103
1175.255, 1.425100
1175.737, 1.075218
1176.219, 0.4881210
1176.701, 0.3424030
1177.183, 0.5743180
1177.665, 6.5486997E-02
1178.147, 0.3971940
1178.630, 3.7785999E-02
1179.112, 0.5298440
1179.594, 0.3205170
1180.076, 0.3119910
1180.558, 0.3659630
1181.040, 0.1904410
1181.522, 0.4715560
1182.004, 0.2961600
1182.486, 7.2034001E-02
1182.969, 0.6454170
1183.451, 1.109860
1183.933, 1.136421
1184.415, 0.7767200
1184.897, 0.4796720
1185.379, 0.2908800
1185.861, 7.5919002E-02
1186.343, 0.2329980
1186.825, 0.4601260
1187.308, 0.3036540
1187.790, 6.8861999E-02
1188.272, 0.1304330
1188.754, 0.4843870
1189.236, 0.4129340
1189.718, 0.1619970
1190.200, 0.3485960
1190.682, 0.2761620
1191.165, 0.9940740
1191.647, 1.020103
1192.129, 0.7444950
1192.611, 0.5297930
1193.093, 0.4116420
1193.575, 0.5475310
1194.057, 0.9697210
1194.539, 1.421682
1195.021, 1.823981
1195.504, 2.171713
1195.986, 2.511906
1196.468, 2.766119
1196.950, 2.820784
1197.432, 2.655958
1197.914, 2.296070
1198.396, 1.664136
1198.878, 1.369571
1199.360, 1.850060
1199.843, 2.586639
1200.325, 3.170266
1200.807, 3.519930
1201.289, 3.474857
1201.771, 2.964302
1202.253, 2.239793
1202.735, 1.184294
1203.217, 0.7005590
1203.700, 1.707988
1204.182, 3.051184
1204.664, 3.452430
1205.146, 3.259336
1205.628, 3.004512
1206.110, 2.733527
1206.592, 2.426615
1207.074, 2.037702
1207.557, 1.891520
1208.039, 2.304018
1208.521, 2.960921
1209.003, 3.828644
1209.485, 4.599385
1209.967, 4.599304
1210.449, 3.305350
1210.931, 2.733534
1211.413, 2.954846
1211.896, 3.437677
1212.378, 4.054771
1212.860, 4.529219
1213.342, 4.387476
1213.824, 3.919773
1214.306, 3.747929
1214.788, 4.046376
1215.270, 4.147588
1215.752, 4.006094
1216.235, 3.900820
1216.717, 4.221792
1217.199, 4.518497
1217.681, 4.136100
1218.163, 3.428305
1218.645, 3.231847
1219.127, 3.706752
1219.609, 4.188614
1220.092, 4.666051
1220.574, 5.016780
1221.056, 4.983926
1221.538, 4.926172
1222.020, 5.396654
1222.502, 5.089698
1222.984, 5.965943
1223.466, 4.908694
1223.948, 4.392092
1224.431, 4.531373
1224.913, 4.855311
1225.395, 5.218141
1225.877, 5.460219
1226.359, 5.298926
1226.841, 4.877814
1227.323, 4.601625
1227.805, 4.502886
1228.287, 4.704649
1228.770, 5.246760
1229.252, 5.666854
1229.734, 5.414867
1230.216, 5.032031
1230.698, 4.897040
1231.180, 4.982117
1231.662, 5.167629
1232.144, 5.423242
1232.627, 5.436807
1233.109, 5.217006
1233.591, 5.045296
1234.073, 5.094243
1234.555, 5.309472
1235.037, 5.819883
1235.519, 6.315547
1236.001, 6.233527
1236.484, 5.628376
1236.966, 4.870922
1237.448, 3.973999
1237.930, 3.412569
1238.412, 3.883655
1238.894, 4.510435
1239.376, 4.691061
1239.858, 4.684339
1240.340, 5.170486
1240.823, 6.002136
1241.305, 5.336508
1241.787, 3.103545
1242.269, 1.561133
1242.751, 3.004956
1243.233, 4.391137
1243.715, 4.282552
1244.197, 3.473674
1244.679, 3.073314
1245.162, 3.021689
1245.644, 3.150987
1246.126, 3.451832
1246.608, 3.739965
1247.090, 4.150198
1247.572, 4.354159
1248.054, 4.010458
1248.536, 3.434812
1249.019, 3.000407
1249.501, 2.793139
1249.983, 3.358603
1250.465, 4.619399
1250.947, 5.341103
1251.429, 4.498660
1251.911, 3.840336
1252.393, 3.685808
1252.875, 3.763018
1253.358, 3.817268
1253.840, 3.930328
1254.322, 3.751534
1254.804, 3.260828
1255.286, 2.959862
1255.768, 3.296382
1256.250, 3.381515
1256.732, 2.950792
1257.214, 2.388955
1257.697, 2.301569
1258.179, 2.519567
1258.661, 2.757249
1259.143, 2.979053
1259.625, 3.132822
1260.107, 3.260322
1260.589, 3.108895
1261.071, 2.487416
1261.554, 2.088401
1262.036, 3.077707
1262.518, 4.306924
1263.000, 4.330471
1263.482, 3.341509
1263.964, 2.644876
1264.446, 2.315630
1264.928, 2.476309
1265.411, 3.206920
1265.893, 3.803244
1266.375, 3.468314
1266.857, 2.870731
1267.339, 2.558352
1267.821, 2.484790
1268.303, 2.338119
1268.785, 2.082152
1269.267, 2.271977
1269.750, 2.982379
1270.232, 3.552597
1270.714, 3.485944
1271.196, 3.120130
1271.678, 2.361702
1272.160, 1.559120
1272.642, 1.309315
1273.124, 1.539435
1273.606, 1.874388
1274.089, 2.181882
1274.571, 2.295202
1275.053, 1.883831
1275.535, 1.564118
1276.017, 1.614416
1276.499, 1.792169
1276.981, 1.746848
1277.463, 1.572915
1277.946, 1.782042
1278.428, 2.320754
1278.910, 2.592966
1279.392, 1.938703
1279.874, 1.583957
1280.356, 1.875154
1280.838, 2.235209
1281.320, 1.886490
1281.802, 1.212182
1282.285, 1.018399
1282.767, 1.259373
1283.249, 1.607323
1283.731, 2.178553
1284.213, 2.406496
1284.695, 2.194683
1285.177, 1.848106
1285.659, 1.658212
1286.141, 1.488354
1286.624, 1.078966
1287.106, 0.5579610
1287.588, 0.2940870
1288.070, 0.3089320
1288.552, 0.5904420
1289.034, 1.164448
1289.516, 1.576003
1289.998, 1.291820
1290.481, 0.8908620
1290.963, 0.9204840
1291.445, 0.6186890
1291.927, 0.3891000
1292.409, 0.3438050
1292.891, 4.1428000E-02
1293.373, 2.6219999E-02
1293.855, 0.1587770
1294.338, 0.5109010
1294.820, 0.8039820
1295.302, 0.7804230
1295.784, 0.7239320
1296.266, 1.027453
1296.748, 1.574885
1297.230, 1.676595
1297.712, 1.397591
1298.194, 1.022834
1298.677, 0.5242390
1299.159, 0.2641910
1299.641, 0.3568070
1300.123, 0.4722430
1300.605, 0.2911500
1301.087, 6.8460000E-03
1301.569, 1.6620999E-02
1302.051, 0.1950930
1302.533, 0.1246170
1303.016, 0.0000000E+00
##END=



