##NAMES=Leucophosphite
##RRUFFID=R080126
##IDEAL CHEMISTRY=KFe^3+^_2_(PO_4_)_2_(OH)&#183;2H_2_O
##LOCALITY=Tip Top mine, Custer County, South Dakota, USA
##OWNER=RRUFF
##SOURCE=Thomas A. Loomis
##DESCRIPTION=Violet subhedral crystals on a matrix of rockbridgeite and associated with pale yellow acicular segelerite (R080127).
##STATUS=The identification of this mineral has been confirmed by single-crystal X-ray diffraction.
##URL=rruff.info/R080126
128.6129, 0.0000000E+00
129.0950, 1.782471
129.5771, 0.6894530
130.0593, 11.47266
130.5414, 24.77319
131.0235, 53.11133
131.5056, 75.75635
131.9877, 114.5195
132.4698, 149.7036
132.9520, 184.7407
133.4341, 219.4084
133.9162, 260.7788
134.3983, 314.1997
134.8804, 377.9792
135.3625, 435.5691
135.8447, 484.7261
136.3268, 531.9492
136.8089, 589.2334
137.2910, 658.8569
137.7731, 724.9963
138.2552, 784.3042
138.7374, 837.5413
139.2195, 876.9922
139.7016, 905.2358
140.1837, 922.9277
140.6658, 925.6663
141.1479, 904.8972
141.6301, 883.9939
142.1122, 873.9924
142.5943, 879.7695
143.0764, 881.3691
143.5585, 877.3804
144.0406, 869.1025
144.5228, 860.5625
145.0049, 853.0388
145.4870, 844.0542
145.9691, 832.2305
146.4512, 814.7053
146.9333, 799.1384
147.4155, 787.9087
147.8976, 780.1018
148.3797, 767.3262
148.8618, 742.9668
149.3439, 719.4207
149.8260, 712.5205
150.3082, 732.3594
150.7903, 766.4402
151.2724, 803.6560
151.7545, 840.0408
152.2366, 876.2354
152.7188, 909.9514
153.2009, 935.3262
153.6830, 949.5583
154.1651, 950.8591
154.6472, 949.6829
155.1293, 945.2158
155.6115, 941.4766
156.0936, 942.4280
156.5757, 950.9077
157.0578, 963.1826
157.5399, 974.9778
158.0220, 978.7966
158.5042, 987.8728
158.9863, 1006.831
159.4684, 1036.468
159.9505, 1073.666
160.4326, 1129.419
160.9147, 1190.037
161.3969, 1235.083
161.8790, 1263.863
162.3611, 1271.030
162.8432, 1252.124
163.3253, 1203.660
163.8074, 1138.928
164.2896, 1058.245
164.7717, 965.5125
165.2538, 868.5571
165.7359, 765.1951
166.2180, 662.0676
166.7001, 562.8018
167.1823, 467.0232
167.6644, 379.6614
168.1465, 305.2280
168.6286, 242.0593
169.1107, 185.5781
169.5928, 133.1519
170.0750, 86.26685
170.5571, 46.06250
171.0392, 14.46973
171.5213, 12.42017
172.0034, 38.76392
172.4855, 63.65112
172.9677, 82.65039
173.4498, 89.60425
173.9319, 89.89136
174.4140, 91.23999
174.8961, 96.57056
175.3782, 102.7019
175.8604, 107.6301
176.3425, 111.0098
176.8246, 110.1235
177.3067, 100.8958
177.7888, 85.92114
178.2709, 70.60938
178.7531, 55.44482
179.2352, 41.43213
179.7173, 31.47705
180.1994, 25.33374
180.6815, 17.80469
181.1636, 4.097900
181.6458, 14.72778
182.1279, 34.93945
182.6100, 56.57910
183.0921, 78.55542
183.5742, 99.31836
184.0563, 118.3782
184.5385, 137.0200
185.0206, 157.5828
185.5027, 179.1931
185.9848, 196.1741
186.4669, 206.3896
186.9490, 210.9033
187.4312, 220.7395
187.9133, 235.9287
188.3954, 253.2932
188.8775, 268.7493
189.3596, 282.4663
189.8417, 297.3191
190.3239, 316.0154
190.8060, 337.2026
191.2881, 351.5588
191.7702, 357.5066
192.2523, 362.1343
192.7344, 375.8684
193.2166, 398.6450
193.6987, 420.4595
194.1808, 437.7612
194.6629, 450.6965
195.1450, 461.1467
195.6271, 468.3005
196.1093, 475.0586
196.5914, 485.7417
197.0735, 500.5288
197.5556, 516.7400
198.0377, 532.8848
198.5198, 549.0918
199.0020, 568.4368
199.4841, 592.6602
199.9662, 616.9458
200.4483, 633.7371
200.9304, 642.3552
201.4125, 647.5735
201.8947, 651.2571
202.3768, 653.4468
202.8589, 653.7107
203.3410, 652.1270
203.8231, 648.5654
204.3052, 642.4910
204.7874, 633.5911
205.2695, 623.6484
205.7516, 612.0430
206.2337, 597.6328
206.7158, 589.4595
207.1979, 588.0579
207.6801, 592.4634
208.1622, 601.2122
208.6443, 615.1628
209.1264, 630.7612
209.6085, 646.1672
210.0906, 660.7891
210.5728, 678.6663
211.0549, 701.7163
211.5370, 726.6858
212.0191, 744.8430
212.5012, 754.3159
212.9833, 762.3047
213.4655, 773.1853
213.9476, 789.9070
214.4297, 798.9695
214.9118, 799.1069
215.3939, 791.9988
215.8760, 780.9736
216.3581, 764.1167
216.8403, 747.3464
217.3224, 733.2078
217.8045, 721.2847
218.2866, 713.3193
218.7687, 711.1460
219.2508, 712.1909
219.7330, 709.4290
220.2151, 701.6416
220.6972, 692.0974
221.1793, 682.3430
221.6614, 672.5955
222.1435, 661.8218
222.6257, 650.4236
223.1078, 637.8271
223.5899, 621.8115
224.0720, 600.1179
224.5541, 578.6365
225.0362, 560.6338
225.5184, 550.0835
226.0005, 533.1443
226.4826, 506.4207
226.9647, 474.0874
227.4468, 447.7231
227.9289, 431.7302
228.4111, 413.7617
228.8932, 387.2612
229.3753, 346.6638
229.8574, 309.8516
230.3395, 276.1604
230.8216, 247.3176
231.3038, 228.9270
231.7859, 228.5364
232.2680, 228.4995
232.7501, 219.4573
233.2322, 193.0964
233.7143, 176.6948
234.1965, 174.4255
234.6786, 181.7051
235.1607, 185.2563
235.6428, 181.2983
236.1249, 179.9055
236.6070, 185.4727
237.0892, 199.3940
237.5713, 216.9055
238.0534, 239.6973
238.5355, 265.3579
239.0176, 287.0569
239.4997, 299.9844
239.9819, 315.9690
240.4640, 340.6418
240.9461, 379.5325
241.4282, 413.9402
241.9103, 440.2400
242.3924, 463.2207
242.8746, 495.0095
243.3567, 541.0647
243.8388, 587.7073
244.3209, 629.5156
244.8030, 664.0007
245.2851, 699.2861
245.7673, 735.9026
246.2494, 773.1763
246.7315, 809.7632
247.2136, 846.2061
247.6957, 881.2056
248.1778, 915.0796
248.6600, 949.4746
249.1421, 976.8469
249.6242, 996.0464
250.1063, 1009.067
250.5884, 1020.105
251.0705, 1031.290
251.5527, 1036.790
252.0348, 1034.125
252.5169, 1022.083
252.9990, 1006.110
253.4811, 986.1587
253.9632, 962.0884
254.4454, 933.9626
254.9275, 901.3171
255.4096, 865.1587
255.8917, 825.3296
256.3738, 781.5049
256.8560, 736.0483
257.3381, 686.6062
257.8202, 637.2202
258.3023, 594.0181
258.7844, 561.1265
259.2665, 526.3647
259.7487, 485.1426
260.2308, 436.3787
260.7129, 389.4797
261.1950, 343.3945
261.6771, 300.4373
262.1592, 264.5972
262.6414, 238.4753
263.1235, 213.7024
263.6056, 188.8328
264.0877, 163.8022
264.5698, 134.8909
265.0519, 97.11646
265.5341, 62.34131
266.0162, 45.84082
266.4983, 52.94849
266.9804, 62.34204
267.4625, 68.91626
267.9446, 72.67773
268.4268, 78.49487
268.9089, 86.29346
269.3910, 96.01514
269.8731, 107.8325
270.3552, 121.8513
270.8373, 137.1851
271.3195, 153.8469
271.8016, 171.7285
272.2837, 189.8516
272.7658, 207.1716
273.2479, 227.6326
273.7300, 256.8438
274.2122, 296.4395
274.6943, 333.8933
275.1764, 366.2358
275.6585, 394.3206
276.1406, 422.5881
276.6227, 451.3513
277.1049, 479.4004
277.5870, 505.4421
278.0691, 529.3052
278.5512, 553.6367
279.0333, 579.6089
279.5154, 605.9758
279.9976, 628.0610
280.4797, 645.3550
280.9618, 661.2451
281.4439, 680.2222
281.9260, 702.2634
282.4081, 716.2532
282.8903, 717.9934
283.3724, 713.9053
283.8545, 719.9438
284.3366, 736.8132
284.8187, 756.3218
285.3008, 773.3447
285.7830, 788.2397
286.2651, 802.2319
286.7472, 813.8210
287.2293, 827.8022
287.7114, 853.4836
288.1935, 891.6111
288.6757, 936.6162
289.1578, 986.6521
289.6399, 1040.976
290.1220, 1091.906
290.6041, 1137.128
291.0862, 1185.724
291.5684, 1254.368
292.0505, 1341.273
292.5326, 1427.092
293.0147, 1498.498
293.4968, 1561.119
293.9789, 1634.541
294.4611, 1719.037
294.9432, 1811.137
295.4253, 1909.611
295.9074, 2013.467
296.3895, 2115.769
296.8716, 2217.868
297.3538, 2316.073
297.8359, 2402.573
298.3180, 2477.770
298.8001, 2546.177
299.2822, 2617.273
299.7643, 2686.697
300.2465, 2741.979
300.7286, 2779.487
301.2107, 2800.084
301.6928, 2802.578
302.1749, 2787.480
302.6570, 2762.329
303.1392, 2731.696
303.6213, 2695.333
304.1034, 2653.470
304.5855, 2604.806
305.0676, 2551.733
305.5497, 2495.687
306.0319, 2436.732
306.5140, 2372.178
306.9961, 2294.569
307.4782, 2213.384
307.9603, 2139.402
308.4424, 2078.047
308.9246, 2019.951
309.4067, 1955.841
309.8888, 1888.932
310.3709, 1827.219
310.8530, 1778.576
311.3351, 1735.737
311.8173, 1692.216
312.2994, 1645.195
312.7815, 1601.344
313.2636, 1566.518
313.7457, 1537.856
314.2278, 1509.974
314.7100, 1476.438
315.1921, 1446.472
315.6742, 1426.565
316.1563, 1418.540
316.6384, 1413.635
317.1205, 1412.332
317.6027, 1411.072
318.0848, 1405.338
318.5669, 1391.002
319.0490, 1374.330
319.5311, 1356.383
320.0132, 1337.084
320.4954, 1320.794
320.9775, 1310.425
321.4596, 1302.847
321.9417, 1295.625
322.4238, 1287.909
322.9059, 1280.813
323.3881, 1273.021
323.8702, 1265.098
324.3523, 1262.308
324.8344, 1267.381
325.3165, 1276.569
325.7986, 1287.660
326.2808, 1303.160
326.7629, 1317.490
327.2450, 1329.497
327.7271, 1339.884
328.2092, 1351.435
328.6913, 1367.112
329.1735, 1381.369
329.6556, 1392.586
330.1377, 1402.958
330.6198, 1406.012
331.1019, 1400.469
331.5840, 1387.936
332.0662, 1371.474
332.5483, 1353.148
333.0304, 1327.476
333.5125, 1293.057
333.9946, 1248.917
334.4767, 1198.379
334.9589, 1138.674
335.4410, 1075.944
335.9231, 1019.466
336.4052, 974.9097
336.8873, 922.8044
337.3694, 856.6750
337.8516, 777.8545
338.3336, 703.3196
338.8158, 633.1865
339.2979, 566.9121
339.7800, 502.9229
340.2621, 441.7751
340.7442, 383.0967
341.2263, 328.1960
341.7085, 276.0266
342.1906, 224.7712
342.6727, 173.1108
343.1548, 127.6633
343.6369, 94.75122
344.1190, 73.83691
344.6012, 50.61792
345.0833, 22.61938
345.5654, 6.089355
346.0475, 28.16724
346.5296, 43.80493
347.0117, 57.05127
347.4939, 69.05664
347.9760, 80.13013
348.4581, 92.34131
348.9402, 106.2959
349.4223, 118.2815
349.9044, 125.1196
350.3866, 126.9231
350.8687, 124.2634
351.3508, 114.4136
351.8329, 101.5398
352.3150, 92.40186
352.7971, 86.87622
353.2793, 81.67773
353.7614, 75.87793
354.2435, 68.30762
354.7256, 56.82739
355.2077, 38.97534
355.6898, 19.38428
356.1720, 1.913086
356.6541, 13.92188
357.1362, 30.08618
357.6183, 48.89233
358.1004, 68.04907
358.5826, 85.01855
359.0647, 98.01538
359.5468, 112.1677
360.0289, 129.8403
360.5110, 150.6213
360.9931, 173.8191
361.4753, 204.2764
361.9574, 232.7590
362.4395, 253.5369
362.9216, 264.9268
363.4037, 276.2590
363.8858, 288.4231
364.3680, 302.6921
364.8501, 320.4707
365.3322, 343.1357
365.8143, 368.1069
366.2964, 395.7461
366.7785, 426.0803
367.2607, 455.4788
367.7428, 488.0176
368.2249, 516.8901
368.7070, 537.8459
369.1891, 542.3047
369.6712, 550.1328
370.1534, 562.9822
370.6355, 579.6050
371.1176, 596.6016
371.5997, 617.4946
372.0818, 634.0342
372.5639, 642.2993
373.0461, 639.4656
373.5282, 637.1062
374.0103, 635.0996
374.4924, 633.4324
374.9745, 632.6238
375.4566, 633.5242
375.9388, 632.3699
376.4209, 627.0935
376.9030, 618.0767
377.3851, 614.0088
377.8672, 616.5642
378.3493, 618.7742
378.8315, 612.5339
379.3136, 597.6182
379.7957, 585.9504
380.2778, 580.1455
380.7599, 578.4143
381.2420, 576.2305
381.7242, 573.6904
382.2063, 571.8499
382.6884, 571.3933
383.1705, 572.1628
383.6526, 573.5547
384.1347, 575.1787
384.6169, 578.4231
385.0990, 585.3513
385.5811, 595.4172
386.0632, 606.8706
386.5453, 618.2278
387.0274, 630.8020
387.5096, 646.4609
387.9917, 665.1616
388.4738, 685.7007
388.9559, 707.9744
389.4380, 731.4919
389.9201, 755.0942
390.4023, 775.8787
390.8844, 798.7766
391.3665, 827.3384
391.8486, 860.8384
392.3307, 896.3489
392.8128, 932.8391
393.2950, 970.8198
393.7771, 1011.682
394.2592, 1057.719
394.7413, 1100.486
395.2234, 1131.989
395.7055, 1159.244
396.1877, 1193.134
396.6698, 1247.016
397.1519, 1297.364
397.6340, 1335.364
398.1161, 1359.008
398.5982, 1386.152
399.0804, 1423.390
399.5625, 1461.351
400.0446, 1493.097
400.5267, 1512.715
401.0088, 1535.341
401.4909, 1565.525
401.9731, 1600.016
402.4552, 1624.952
402.9373, 1638.622
403.4194, 1644.835
403.9015, 1644.417
404.3836, 1636.068
404.8658, 1627.603
405.3479, 1619.178
405.8300, 1610.642
406.3121, 1603.406
406.7942, 1598.602
407.2763, 1585.770
407.7585, 1559.903
408.2406, 1523.325
408.7227, 1487.979
409.2048, 1454.368
409.6869, 1422.582
410.1690, 1392.848
410.6512, 1364.847
411.1333, 1336.462
411.6154, 1306.677
412.0975, 1277.696
412.5796, 1252.615
413.0617, 1231.493
413.5439, 1212.443
414.0260, 1195.100
414.5081, 1178.253
414.9902, 1160.511
415.4723, 1141.309
415.9544, 1120.901
416.4366, 1098.834
416.9187, 1076.104
417.4008, 1054.299
417.8829, 1036.542
418.3650, 1017.467
418.8471, 992.3188
419.3293, 962.3115
419.8114, 933.0500
420.2935, 910.7441
420.7756, 887.6953
421.2577, 858.8774
421.7398, 818.8105
422.2220, 781.0361
422.7041, 747.8645
423.1862, 718.6631
423.6683, 692.0898
424.1504, 667.0042
424.6325, 645.0271
425.1147, 626.5300
425.5968, 611.0647
426.0789, 600.3960
426.5610, 597.5886
427.0431, 596.7854
427.5252, 593.0334
428.0074, 584.0222
428.4895, 577.3347
428.9716, 573.7175
429.4537, 573.0847
429.9358, 576.3679
430.4179, 584.9731
430.9001, 592.4590
431.3822, 595.1809
431.8643, 593.0696
432.3464, 591.2700
432.8285, 590.3357
433.3106, 587.9751
433.7928, 582.4480
434.2749, 573.4771
434.7570, 558.4749
435.2391, 535.5693
435.7212, 507.0247
436.2033, 477.3196
436.6855, 446.5249
437.1676, 412.1719
437.6497, 369.8372
438.1318, 323.7136
438.6139, 279.4453
439.0960, 237.2390
439.5782, 199.5225
440.0603, 169.7244
440.5424, 145.5842
441.0245, 123.3867
441.5066, 99.42529
441.9887, 78.29712
442.4709, 64.43750
442.9530, 57.59766
443.4351, 49.28979
443.9172, 32.86084
444.3993, 15.82764
444.8814, 4.047363
445.3636, 3.296631
445.8457, 1.112305
446.3278, 6.376221
446.8099, 16.44849
447.2920, 22.65845
447.7741, 23.28833
448.2563, 21.79150
448.7384, 18.39233
449.2205, 12.55054
449.7026, 8.806885
450.1847, 8.599365
450.6668, 8.613770
451.1490, 6.015381
451.6311, 0.7272950
452.1132, 7.416748
452.5953, 19.81201
453.0774, 34.16187
453.5595, 42.78540
454.0417, 44.76392
454.5238, 50.24146
455.0059, 67.18408
455.4880, 93.06226
455.9701, 115.2756
456.4522, 132.9902
456.9344, 149.7046
457.4165, 167.6553
457.8986, 187.1753
458.3807, 209.4836
458.8628, 237.0664
459.3449, 266.4204
459.8271, 292.3198
460.3092, 315.6497
460.7913, 341.0664
461.2734, 372.8601
461.7555, 406.9697
462.2376, 440.2793
462.7198, 472.0693
463.2019, 505.0972
463.6840, 539.7810
464.1661, 575.6079
464.6482, 612.0693
465.1303, 648.1960
465.6125, 686.1526
466.0946, 727.4427
466.5767, 772.2488
467.0588, 816.7830
467.5409, 859.5553
468.0230, 902.1261
468.5052, 945.2500
468.9873, 989.6123
469.4694, 1031.550
469.9515, 1069.787
470.4336, 1107.778
470.9157, 1151.200
471.3979, 1201.887
471.8800, 1250.999
472.3621, 1297.296
472.8442, 1340.051
473.3263, 1376.040
473.8084, 1404.476
474.2906, 1432.224
474.7727, 1466.889
475.2548, 1505.845
475.7369, 1536.485
476.2190, 1557.141
476.7011, 1571.089
477.1833, 1582.466
477.6654, 1590.572
478.1475, 1593.483
478.6296, 1590.568
479.1117, 1581.961
479.5938, 1567.035
480.0760, 1546.022
480.5581, 1521.389
481.0402, 1493.925
481.5223, 1463.554
482.0044, 1429.631
482.4865, 1391.115
482.9687, 1352.693
483.4508, 1314.142
483.9329, 1276.990
484.4150, 1243.987
484.8971, 1221.665
485.3792, 1196.725
485.8614, 1163.069
486.3435, 1121.644
486.8256, 1087.330
487.3077, 1062.536
487.7898, 1042.497
488.2719, 1025.283
488.7541, 1012.629
489.2362, 998.1489
489.7183, 980.4884
490.2004, 962.7206
490.6825, 950.1471
491.1646, 943.3892
491.6468, 934.6825
492.1289, 920.7942
492.6110, 903.7700
493.0931, 889.7048
493.5752, 878.4360
494.0573, 864.5183
494.5395, 843.4594
495.0216, 816.9324
495.5037, 787.0802
495.9858, 754.4348
496.4679, 720.4069
496.9500, 687.1473
497.4322, 653.6270
497.9143, 618.7858
498.3964, 580.6230
498.8785, 542.3896
499.3606, 506.4672
499.8427, 472.0994
500.3249, 438.4619
500.8070, 404.3683
501.2891, 371.1428
501.7712, 339.6433
502.2533, 309.8260
502.7354, 282.3303
503.2176, 258.3286
503.6997, 236.2410
504.1818, 214.1708
504.6639, 190.8590
505.1460, 169.4429
505.6281, 151.2013
506.1103, 135.3995
506.5924, 119.2183
507.0745, 102.0295
507.5566, 87.07214
508.0387, 76.61133
508.5208, 70.38831
509.0030, 63.83667
509.4851, 57.06555
509.9672, 49.65942
510.4493, 40.95642
510.9314, 31.28796
511.4135, 21.45044
511.8957, 11.09265
512.3778, 1.946777
512.8599, 3.089233
513.3420, 5.033936
513.8242, 6.880371
514.3063, 11.30469
514.7884, 15.50122
515.2705, 16.08496
515.7526, 12.79028
516.2347, 12.10364
516.7169, 19.97327
517.1990, 29.50977
517.6811, 35.47485
518.1632, 34.92371
518.6453, 33.66492
519.1274, 30.66602
519.6096, 27.65613
520.0917, 28.22461
520.5738, 36.29602
521.0559, 41.38135
521.5380, 39.90637
522.0201, 32.33350
522.5023, 26.39929
522.9844, 21.75781
523.4665, 19.71179
523.9486, 23.15601
524.4307, 31.64136
524.9128, 35.09192
525.3950, 32.37000
525.8771, 25.60168
526.3592, 14.72144
526.8413, 1.552612
527.3234, 7.410156
527.8055, 7.482056
528.2877, 4.283203
528.7698, 3.645386
529.2519, 5.260742
529.7340, 7.750122
530.2161, 10.54431
530.6982, 13.79126
531.1804, 17.40125
531.6625, 21.14417
532.1446, 26.46667
532.6267, 35.21533
533.1088, 45.10522
533.5909, 53.90955
534.0731, 61.61572
534.5552, 67.96948
535.0373, 72.26160
535.5194, 75.32825
536.0015, 79.16980
536.4836, 82.92041
536.9658, 89.14636
537.4479, 98.69019
537.9300, 111.4489
538.4121, 127.9021
538.8942, 149.1238
539.3763, 169.0753
539.8585, 181.2402
540.3406, 187.0691
540.8227, 194.7501
541.3048, 205.3478
541.7869, 218.1307
542.2690, 233.3173
542.7512, 250.0493
543.2333, 266.1791
543.7154, 280.1177
544.1975, 293.6741
544.6796, 308.5945
545.1617, 324.6039
545.6439, 339.8994
546.1260, 354.4574
546.6081, 367.4824
547.0902, 378.3301
547.5723, 386.4633
548.0544, 394.0107
548.5366, 402.4403
549.0187, 409.7914
549.5008, 414.5247
549.9829, 417.1467
550.4650, 416.0438
550.9471, 409.8121
551.4293, 400.4849
551.9114, 393.5188
552.3935, 390.1744
552.8756, 383.1083
553.3577, 368.8774
553.8398, 348.6738
554.3220, 326.4104
554.8041, 301.8467
555.2862, 279.9773
555.7683, 266.9171
556.2504, 258.7432
556.7325, 246.3307
557.2147, 227.5336
557.6968, 209.7543
558.1789, 199.7775
558.6610, 194.6376
559.1431, 190.0538
559.6252, 184.9464
560.1074, 179.6138
560.5895, 173.2947
561.0716, 166.6564
561.5537, 162.0601
562.0358, 160.4843
562.5179, 160.5045
563.0001, 162.1863
563.4822, 165.8123
563.9643, 167.7950
564.4464, 167.2961
564.9285, 166.2014
565.4106, 165.9463
565.8928, 166.6682
566.3749, 167.5071
566.8570, 168.6837
567.3391, 169.3490
567.8212, 167.2543
568.3033, 162.8906
568.7855, 160.3005
569.2676, 161.1281
569.7497, 163.9956
570.2318, 167.4597
570.7139, 171.3538
571.1960, 175.1725
571.6782, 178.4698
572.1603, 181.3141
572.6424, 183.9064
573.1245, 186.5676
573.6066, 188.9874
574.0887, 190.3285
574.5709, 190.9822
575.0530, 191.6229
575.5351, 193.4462
576.0172, 194.6377
576.4993, 193.5399
576.9814, 192.7278
577.4636, 196.7743
577.9457, 208.0195
578.4278, 216.4623
578.9099, 219.0541
579.3920, 217.8732
579.8741, 219.4938
580.3563, 223.8802
580.8384, 229.7122
581.3205, 235.8826
581.8026, 242.5054
582.2847, 249.9418
582.7668, 258.5569
583.2490, 269.1150
583.7311, 283.7922
584.2132, 300.4371
584.6953, 316.1793
585.1774, 329.1860
585.6595, 341.7780
586.1416, 352.9606
586.6237, 365.1503
587.1058, 382.1604
587.5880, 407.4191
588.0701, 434.8062
588.5522, 463.5880
589.0343, 493.5342
589.5164, 523.6198
589.9985, 552.7822
590.4807, 583.9592
590.9628, 617.7417
591.4449, 654.0222
591.9270, 697.8188
592.4091, 750.0876
592.8912, 805.5787
593.3734, 859.2961
593.8555, 912.2581
594.3376, 967.7412
594.8197, 1025.817
595.3018, 1087.173
595.7839, 1153.193
596.2661, 1222.803
596.7482, 1293.883
597.2303, 1364.954
597.7124, 1438.233
598.1945, 1514.599
598.6766, 1594.352
599.1588, 1677.768
599.6409, 1761.249
600.1230, 1850.855
600.6051, 1950.053
601.0872, 2058.408
601.5693, 2171.130
602.0515, 2291.052
602.5336, 2409.933
603.0157, 2522.324
603.4978, 2626.811
603.9799, 2737.419
604.4620, 2857.616
604.9442, 2977.380
605.4263, 3082.563
605.9084, 3175.655
606.3905, 3263.130
606.8726, 3349.982
607.3547, 3428.601
607.8369, 3493.186
608.3190, 3542.900
608.8011, 3577.421
609.2832, 3592.861
609.7653, 3595.547
610.2474, 3592.296
610.7296, 3581.520
611.2117, 3550.696
611.6938, 3484.036
612.1759, 3406.418
612.6580, 3328.331
613.1401, 3248.346
613.6223, 3172.256
614.1044, 3100.901
614.5865, 3033.529
615.0686, 2971.310
615.5507, 2915.040
616.0328, 2858.353
616.5150, 2799.680
616.9971, 2743.969
617.4792, 2698.832
617.9613, 2663.162
618.4434, 2632.610
618.9255, 2607.394
619.4077, 2584.712
619.8898, 2558.347
620.3719, 2531.174
620.8540, 2511.787
621.3361, 2508.263
621.8182, 2510.553
622.3004, 2515.398
622.7825, 2522.418
623.2646, 2525.970
623.7467, 2522.862
624.2288, 2517.602
624.7109, 2512.598
625.1931, 2508.682
625.6752, 2502.846
626.1573, 2496.706
626.6394, 2484.865
627.1215, 2462.270
627.6036, 2428.900
628.0858, 2386.111
628.5679, 2333.249
629.0500, 2273.015
629.5321, 2210.446
630.0142, 2144.222
630.4963, 2072.326
630.9785, 1993.390
631.4606, 1908.301
631.9427, 1814.361
632.4248, 1714.127
632.9069, 1615.735
633.3890, 1524.051
633.8712, 1435.294
634.3533, 1346.428
634.8354, 1257.085
635.3175, 1172.941
635.7996, 1093.045
636.2817, 1019.870
636.7639, 954.0342
637.2460, 896.4875
637.7281, 841.4255
638.2102, 788.7274
638.6923, 739.3127
639.1744, 694.4714
639.6566, 654.0879
640.1387, 614.1792
640.6208, 573.6233
641.1029, 535.8518
641.5850, 506.8340
642.0671, 484.5471
642.5493, 463.4917
643.0314, 443.3953
643.5135, 422.2493
643.9956, 397.3544
644.4777, 370.2910
644.9598, 345.8568
645.4420, 325.4894
645.9241, 307.8678
646.4062, 292.7228
646.8883, 280.0597
647.3704, 269.2058
647.8525, 261.4319
648.3347, 253.4154
648.8168, 243.4298
649.2989, 231.3876
649.7810, 218.2358
650.2631, 203.4910
650.7452, 190.0291
651.2274, 182.1880
651.7095, 177.7545
652.1916, 171.1936
652.6737, 160.8881
653.1558, 151.9340
653.6379, 150.5568
654.1201, 151.8647
654.6022, 149.4144
655.0843, 137.1707
655.5664, 125.8564
656.0485, 118.7301
656.5306, 114.1394
657.0128, 108.0120
657.4949, 99.20288
657.9770, 91.08374
658.4591, 84.54163
658.9412, 79.35327
659.4233, 74.65442
659.9055, 70.46741
660.3876, 66.47290
660.8697, 61.29102
661.3518, 56.35217
661.8339, 57.15662
662.3160, 63.21082
662.7982, 66.52246
663.2803, 57.82764
663.7624, 45.72656
664.2445, 39.25500
664.7266, 40.58557
665.2087, 40.87598
665.6909, 34.98584
666.1730, 28.32532
666.6551, 25.01123
667.1372, 29.15552
667.6193, 30.00903
668.1014, 26.15820
668.5836, 20.43921
669.0657, 17.09814
669.5478, 16.35498
670.0299, 15.72278
670.5120, 14.91479
670.9941, 13.87134
671.4763, 13.28711
671.9584, 12.91309
672.4405, 11.80505
672.9226, 9.314575
673.4047, 6.067383
673.8868, 1.183960
674.3690, 4.250244
674.8511, 6.578369
675.3332, 1.225708
675.8153, 4.625488
676.2974, 8.538086
676.7795, 10.37488
677.2617, 9.193970
677.7438, 2.339233
678.2259, 3.489868
678.7080, 4.448853
679.1901, 0.1207280
679.6722, 2.720093
680.1544, 3.840210
680.6365, 4.713623
681.1186, 8.469116
681.6007, 12.87000
682.0828, 10.87720
682.5649, 0.2507320
683.0471, 9.386230
683.5292, 8.185059
684.0113, 2.022705
684.4934, 2.112549
684.9755, 1.477417
685.4576, 8.4716998E-02
685.9398, 1.491943
686.4219, 3.125854
686.9040, 4.622559
687.3861, 5.924927
687.8682, 7.236450
688.3503, 8.951904
688.8325, 10.49023
689.3146, 9.715088
689.7967, 6.521484
690.2788, 4.431763
690.7609, 5.228027
691.2430, 7.697388
691.7252, 9.725098
692.2073, 11.50964
692.6894, 13.83472
693.1715, 19.38208
693.6536, 23.90430
694.1357, 23.08606
694.6179, 17.07764
695.1000, 13.33289
695.5821, 15.81311
696.0642, 19.19177
696.5463, 21.60693
697.0284, 23.44849
697.5106, 20.74890
697.9927, 11.29297
698.4748, 2.332031
698.9569, 0.7595210
699.4390, 5.616333
699.9211, 9.418335
700.4033, 11.64246
700.8854, 12.46790
701.3675, 11.23914
701.8496, 8.958984
702.3317, 7.335083
702.8138, 7.182983
703.2960, 6.622559
703.7781, 3.699829
704.2602, 0.2401120
704.7423, 1.514893
705.2244, 3.4423999E-02
705.7065, 1.920288
706.1887, 4.835693
706.6708, 7.515747
707.1529, 7.273804
707.6350, 3.543457
708.1171, 0.5972900
708.5992, 0.1658940
709.0814, 0.4039310
709.5635, 3.973389
710.0456, 11.73096
710.5277, 16.92065
711.0098, 14.89600
711.4919, 10.40479
711.9741, 6.848755
712.4562, 4.243408
712.9383, 2.379883
713.4204, 0.2613530
713.9025, 0.2253420
714.3846, 2.668701
714.8668, 8.703735
715.3489, 13.10132
715.8310, 15.89709
716.3131, 17.01611
716.7952, 15.57837
717.2773, 11.91980
717.7595, 11.16711
718.2416, 13.48840
718.7237, 15.95959
719.2058, 15.94971
719.6879, 14.65613
720.1700, 13.87036
720.6522, 13.76868
721.1343, 14.14160
721.6164, 15.49158
722.0985, 16.86938
722.5806, 17.41724
723.0627, 16.32300
723.5449, 4.868652
724.0270, 19.12805
724.5091, 27.34241
724.9912, 29.83594
725.4733, 9.485474
725.9554, 18.62317
726.4376, 15.93762
726.9197, 12.76282
727.4018, 26.03870
727.8839, 8.988770
728.3660, 21.99438
728.8481, 22.99597
729.3303, 29.48560
729.8124, 24.07898
730.2945, 22.34155
730.7766, 32.49695
731.2587, 36.06042
731.7408, 29.26807
732.2230, 36.02808
732.7051, 18.42188
733.1872, 22.23438
733.6693, 35.26404
734.1514, 29.04993
734.6335, 36.06177
735.1157, 38.03052
735.5978, 17.09631
736.0799, 35.93188
736.5620, 37.52063
737.0441, 21.48486
737.5262, 38.99316
738.0084, 25.39465
738.4905, 22.89392
738.9726, 28.74316
739.4547, 25.87939
739.9368, 36.74377
740.4189, 34.37012
740.9011, 30.55017
741.3832, 31.92529
741.8653, 28.72510
742.3474, 32.95801
742.8295, 28.52307
743.3116, 33.28394
743.7938, 40.10181
744.2759, 30.88684
744.7580, 38.52698
745.2401, 19.86658
745.7222, 23.08752
746.2043, 23.85083
746.6865, 38.55127
747.1686, 19.78345
747.6507, 22.37000
748.1328, 34.07166
748.6149, 33.08301
749.0970, 37.24573
749.5792, 25.64453
750.0613, 28.62598
750.5434, 27.41199
751.0255, 39.83923
751.5076, 40.91138
751.9897, 28.68750
752.4719, 16.87659
752.9540, 30.60559
753.4361, 20.15845
753.9182, 22.43042
754.4003, 11.15784
754.8824, 19.03467
755.3646, 15.03223
755.8467, 11.89636
756.3288, 10.45093
756.8109, 11.40784
757.2930, 16.39197
757.7751, 19.73230
758.2573, 20.28784
758.7394, 20.16687
759.2215, 21.69104
759.7036, 25.36536
760.1857, 27.79321
760.6678, 28.52454
761.1500, 28.00671
761.6321, 26.75415
762.1142, 24.80981
762.5963, 21.59900
763.0784, 15.72986
763.5605, 11.58496
764.0427, 14.53345
764.5248, 20.05139
765.0069, 22.65308
765.4890, 16.48975
765.9711, 14.02051
766.4532, 18.21680
766.9354, 24.73804
767.4175, 27.09619
767.8996, 24.25232
768.3817, 23.56567
768.8638, 27.07788
769.3459, 31.44775
769.8281, 31.11890
770.3102, 27.14600
770.7923, 22.45898
771.2744, 16.13049
771.7565, 12.45081
772.2386, 17.73694
772.7208, 27.16003
773.2029, 32.07629
773.6850, 24.30762
774.1671, 19.78418
774.6492, 22.44202
775.1313, 28.71423
775.6135, 30.66516
776.0956, 27.56580
776.5777, 25.45703
777.0598, 26.46301
777.5419, 28.46533
778.0240, 27.02466
778.5062, 23.28540
778.9883, 20.80872
779.4704, 21.92139
779.9525, 24.09021
780.4346, 27.05566
780.9167, 29.86987
781.3989, 30.07507
781.8810, 22.48181
782.3631, 19.10693
782.8452, 24.38318
783.3273, 34.43835
783.8094, 37.69556
784.2916, 33.38000
784.7737, 29.26172
785.2558, 28.18860
785.7379, 28.74072
786.2200, 29.55457
786.7021, 30.26465
787.1843, 29.96045
787.6664, 27.81775
788.1485, 24.90356
788.6306, 20.58167
789.1127, 15.75256
789.5948, 14.02271
790.0770, 17.40662
790.5591, 21.41809
791.0412, 25.75293
791.5233, 29.77490
792.0054, 31.27454
792.4875, 30.21228
792.9697, 26.81873
793.4518, 17.83972
793.9339, 9.513794
794.4160, 15.28821
794.8981, 30.78271
795.3802, 41.55701
795.8624, 37.00098
796.3445, 29.75574
796.8266, 24.42957
797.3087, 21.26917
797.7908, 20.47852
798.2729, 24.09167
798.7551, 26.02197
799.2372, 23.52185
799.7193, 18.49963
800.2014, 18.55249
800.6835, 23.32300
801.1656, 27.69714
801.6478, 28.40100
802.1299, 27.82214
802.6120, 29.74805
803.0941, 32.88989
803.5762, 33.29590
804.0583, 24.13281
804.5405, 17.26086
805.0226, 18.80054
805.5047, 26.55762
805.9868, 32.33484
806.4689, 35.91724
806.9510, 37.77283
807.4332, 37.50830
807.9153, 36.00024
808.3974, 35.96838
808.8795, 37.12854
809.3616, 37.81555
809.8438, 37.53503
810.3259, 36.12341
810.8080, 31.16260
811.2901, 24.70032
811.7722, 23.24390
812.2543, 37.37195
812.7365, 46.10876
813.2186, 41.23669
813.7007, 27.60254
814.1828, 23.96460
814.6649, 31.73828
815.1470, 37.97546
815.6292, 36.81775
816.1113, 32.31213
816.5934, 31.99097
817.0755, 34.82678
817.5576, 37.43616
818.0397, 37.94666
818.5219, 38.03418
819.0040, 38.38770
819.4861, 39.01538
819.9682, 39.82983
820.4503, 40.39282
820.9324, 42.12109
821.4146, 45.82727
821.8967, 50.31885
822.3788, 52.22229
822.8609, 51.58020
823.3430, 50.15527
823.8251, 48.35388
824.3073, 46.42615
824.7894, 43.32349
825.2715, 40.43469
825.7536, 40.61633
826.2357, 45.89148
826.7178, 53.22729
827.2000, 65.61523
827.6821, 78.51282
828.1642, 81.73645
828.6463, 71.22021
829.1284, 66.17456
829.6105, 72.39795
830.0927, 82.76257
830.5748, 82.97986
831.0569, 76.03491
831.5390, 72.34338
832.0211, 76.67590
832.5032, 83.40601
832.9854, 89.69141
833.4675, 95.39734
833.9496, 100.2056
834.4317, 104.7660
834.9138, 107.1854
835.3959, 106.3635
835.8781, 104.2948
836.3602, 104.2120
836.8423, 106.1079
837.3244, 107.0239
837.8065, 106.0596
838.2886, 104.8226
838.7708, 105.1533
839.2529, 106.7294
839.7350, 109.1941
840.2171, 113.5875
840.6992, 116.4207
841.1813, 115.2341
841.6635, 112.7196
842.1456, 111.5668
842.6277, 111.7706
843.1098, 113.9393
843.5919, 119.0253
844.0740, 123.5566
844.5562, 122.1234
845.0383, 116.8239
845.5204, 114.3354
846.0025, 116.1501
846.4846, 117.4718
846.9667, 114.2726
847.4489, 109.2800
847.9310, 105.0881
848.4131, 102.4380
848.8952, 99.84534
849.3773, 96.59375
849.8594, 93.96301
850.3416, 92.94397
850.8237, 93.59424
851.3058, 96.78796
851.7879, 102.9186
852.2700, 106.9623
852.7521, 101.5083
853.2343, 93.02820
853.7164, 90.16199
854.1985, 94.05151
854.6806, 96.34851
855.1627, 90.71179
855.6448, 86.52197
856.1270, 89.76111
856.6091, 100.6173
857.0912, 104.2736
857.5733, 99.87512
858.0554, 95.52612
858.5375, 96.94946
859.0197, 100.8492
859.5018, 99.01587
859.9839, 92.65649
860.4660, 90.08350
860.9481, 104.2943
861.4302, 116.9849
861.9124, 114.2240
862.3945, 97.26489
862.8766, 90.54919
863.3587, 99.30444
863.8408, 107.1239
864.3229, 107.9220
864.8051, 104.1022
865.2872, 102.6589
865.7693, 103.1725
866.2514, 95.90454
866.7335, 109.8993
867.2156, 118.2754
867.6978, 121.2809
868.1799, 101.6985
868.6620, 111.6965
869.1441, 109.6453
869.6262, 106.8556
870.1083, 120.3610
870.5905, 103.4349
871.0726, 116.3038
871.5547, 116.7251
872.0368, 122.3994
872.5189, 116.3209
873.0010, 114.2028
873.4832, 124.2164
873.9653, 127.7704
874.4474, 120.8588
874.9295, 126.9341
875.4116, 108.2595
875.8937, 110.9434
876.3759, 122.9628
876.8580, 115.6604
877.3401, 121.3032
877.8222, 121.7217
878.3043, 99.13562
878.7864, 116.3105
879.2686, 116.2716
879.7507, 98.56226
880.2328, 100.8499
880.7149, 103.4106
881.1970, 105.1835
881.6791, 105.1760
882.1613, 103.5238
882.6434, 99.50000
883.1255, 92.38330
883.6076, 89.64355
884.0897, 92.85779
884.5718, 95.42590
885.0540, 91.09119
885.5361, 82.75952
886.0182, 80.45642
886.5003, 83.54810
886.9824, 86.57251
887.4645, 85.16797
887.9467, 83.56140
888.4288, 86.05762
888.9109, 91.76514
889.3930, 90.96973
889.8751, 79.71667
890.3572, 69.97778
890.8394, 65.72717
891.3215, 65.43665
891.8036, 65.96851
892.2857, 66.95154
892.7678, 66.41516
893.2499, 62.47009
893.7321, 57.93933
894.2142, 53.70569
894.6963, 50.60852
895.1784, 50.32898
895.6605, 57.31665
896.1426, 60.93970
896.6248, 59.31360
897.1069, 55.18799
897.5890, 52.75684
898.0711, 51.78528
898.5532, 49.89880
899.0353, 46.50879
899.5175, 42.86450
899.9996, 39.63538
900.4817, 37.05042
900.9638, 35.50049
901.4459, 35.48364
901.9280, 35.19507
902.4102, 34.29077
902.8923, 33.22791
903.3744, 32.36243
903.8565, 31.70740
904.3386, 30.99475
904.8207, 30.24268
905.3029, 28.38330
905.7850, 22.98938
906.2671, 17.06519
906.7492, 14.34985
907.2313, 14.79297
907.7134, 14.67224
908.1956, 12.73657
908.6777, 10.13672
909.1598, 6.620117
909.6419, 2.767578
910.1240, 1.756470
910.6061, 3.620728
911.0883, 6.039307
911.5704, 8.685425
912.0525, 10.53320
912.5346, 9.993530
913.0167, 7.717285
913.4988, 5.116333
913.9810, 4.260254
914.4631, 0.9548340
914.9452, 8.408203
915.4273, 18.75635
915.9094, 22.41370
916.3915, 18.92542
916.8737, 13.91479
917.3558, 7.404297
917.8379, 3.031128
918.3200, 7.782837
918.8021, 16.20850
919.2842, 19.88000
919.7664, 16.14075
920.2485, 12.68140
920.7306, 12.06299
921.2127, 12.30054
921.6948, 12.33264
922.1769, 12.14392
922.6591, 11.49402
923.1412, 10.15881
923.6233, 10.66968
924.1054, 16.21777
924.5875, 23.84192
925.0696, 30.28162
925.5518, 35.19971
926.0339, 37.54932
926.5160, 34.82800
926.9981, 31.74426
927.4802, 30.19031
927.9623, 29.42517
928.4445, 26.21204
928.9266, 20.08167
929.4087, 17.30591
929.8908, 20.57690
930.3729, 26.18616
930.8550, 31.01782
931.3372, 34.10168
931.8193, 33.37695
932.3014, 24.27368
932.7835, 17.90442
933.2656, 19.27209
933.7477, 22.50476
934.2299, 22.09973
934.7120, 17.56091
935.1941, 14.12378
935.6762, 12.06335
936.1583, 11.08923
936.6404, 12.23438
937.1226, 13.49829
937.6047, 12.01770
938.0868, 7.463501
938.5689, 2.454834
939.0510, 3.431763
939.5331, 8.064941
940.0153, 9.981079
940.4974, 9.788818
940.9795, 12.81409
941.4616, 19.18970
941.9437, 23.63501
942.4258, 21.46228
942.9080, 18.54077
943.3901, 22.40051
943.8722, 30.84790
944.3543, 39.17126
944.8364, 46.50500
945.3185, 52.62988
945.8007, 56.50916
946.2828, 60.16150
946.7649, 66.83740
947.2470, 76.42700
947.7291, 85.04858
948.2112, 92.11279
948.6934, 98.60229
949.1755, 103.5598
949.6576, 109.6575
950.1397, 120.6251
950.6218, 137.8048
951.1039, 154.2151
951.5861, 168.8082
952.0682, 182.6372
952.5503, 196.0123
953.0324, 209.0876
953.5145, 221.8353
953.9966, 234.4485
954.4788, 250.3903
954.9609, 275.0745
955.4430, 300.9801
955.9251, 321.6079
956.4072, 338.7374
956.8893, 357.1876
957.3715, 375.8743
957.8536, 399.1309
958.3357, 428.6801
958.8178, 460.8285
959.2999, 488.7532
959.7820, 513.8663
960.2642, 541.9623
960.7463, 574.6721
961.2284, 608.9233
961.7105, 643.8979
962.1926, 678.8552
962.6747, 713.8337
963.1569, 749.3716
963.6390, 781.5667
964.1211, 808.1263
964.6032, 838.3191
965.0853, 879.7964
965.5674, 928.1980
966.0496, 969.0658
966.5317, 1003.688
967.0138, 1040.310
967.4959, 1083.494
967.9780, 1129.292
968.4601, 1175.085
968.9423, 1222.022
969.4244, 1271.035
969.9065, 1323.191
970.3886, 1375.099
970.8707, 1427.626
971.3528, 1476.725
971.8350, 1515.668
972.3171, 1548.414
972.7992, 1582.922
973.2813, 1621.340
973.7634, 1660.667
974.2455, 1700.098
974.7277, 1740.749
975.2098, 1783.957
975.6919, 1829.679
976.1740, 1867.076
976.6561, 1895.436
977.1382, 1925.591
977.6204, 1964.474
978.1025, 2009.701
978.5846, 2059.248
979.0667, 2112.482
979.5488, 2169.154
980.0309, 2226.854
980.5131, 2289.727
980.9952, 2358.053
981.4773, 2431.798
981.9594, 2511.287
982.4415, 2595.736
982.9236, 2684.493
983.4058, 2776.525
983.8879, 2870.407
984.3700, 2969.913
984.8521, 3067.484
985.3342, 3155.394
985.8163, 3230.753
986.2985, 3305.893
986.7806, 3386.774
987.2627, 3454.760
987.7448, 3499.796
988.2269, 3525.114
988.7090, 3539.631
989.1912, 3543.644
989.6733, 3537.852
990.1554, 3518.966
990.6375, 3495.109
991.1196, 3470.673
991.6017, 3443.022
992.0839, 3407.597
992.5660, 3362.236
993.0481, 3319.305
993.5302, 3279.716
994.0123, 3243.503
994.4944, 3214.138
994.9766, 3186.358
995.4587, 3151.753
995.9408, 3109.164
996.4229, 3065.180
996.9050, 3025.216
997.3871, 2980.075
997.8693, 2926.069
998.3514, 2863.687
998.8335, 2797.841
999.3156, 2728.938
999.7977, 2657.932
1000.280, 2582.838
1000.762, 2510.717
1001.244, 2446.624
1001.726, 2390.793
1002.208, 2343.379
1002.690, 2308.833
1003.173, 2275.644
1003.655, 2244.151
1004.137, 2213.359
1004.619, 2181.195
1005.101, 2148.959
1005.583, 2123.638
1006.065, 2105.062
1006.547, 2088.093
1007.029, 2071.352
1007.512, 2053.264
1007.994, 2033.216
1008.476, 2010.856
1008.958, 1984.865
1009.440, 1954.718
1009.922, 1924.625
1010.404, 1897.795
1010.886, 1867.520
1011.369, 1820.860
1011.851, 1764.920
1012.333, 1712.311
1012.815, 1669.999
1013.297, 1620.281
1013.779, 1554.185
1014.261, 1486.802
1014.743, 1429.431
1015.225, 1381.056
1015.708, 1328.400
1016.190, 1271.937
1016.672, 1219.108
1017.154, 1175.838
1017.636, 1137.675
1018.118, 1100.455
1018.600, 1066.015
1019.082, 1039.852
1019.565, 1024.199
1020.047, 1011.182
1020.529, 999.6575
1021.011, 989.8718
1021.493, 980.2461
1021.975, 973.3037
1022.457, 975.9246
1022.939, 990.3691
1023.421, 1003.106
1023.904, 1003.984
1024.386, 1005.507
1024.868, 1014.516
1025.350, 1030.324
1025.832, 1046.259
1026.314, 1062.394
1026.796, 1074.084
1027.278, 1076.561
1027.760, 1076.769
1028.243, 1081.738
1028.725, 1089.026
1029.207, 1094.595
1029.689, 1099.685
1030.171, 1100.303
1030.653, 1094.971
1031.135, 1087.998
1031.617, 1081.645
1032.100, 1077.375
1032.582, 1079.990
1033.064, 1089.513
1033.546, 1101.598
1034.028, 1113.520
1034.510, 1127.854
1034.992, 1144.828
1035.474, 1165.578
1035.957, 1193.917
1036.439, 1230.647
1036.921, 1265.187
1037.403, 1292.889
1037.885, 1326.165
1038.367, 1384.083
1038.849, 1453.206
1039.331, 1514.319
1039.813, 1561.743
1040.296, 1615.921
1040.778, 1679.178
1041.260, 1746.290
1041.742, 1813.181
1042.224, 1881.650
1042.706, 1955.470
1043.188, 2033.812
1043.670, 2117.870
1044.152, 2207.677
1044.635, 2302.526
1045.117, 2402.229
1045.599, 2506.100
1046.081, 2613.579
1046.563, 2726.700
1047.045, 2836.704
1047.527, 2942.960
1048.009, 3049.072
1048.492, 3158.796
1048.974, 3268.157
1049.456, 3374.669
1049.938, 3478.106
1050.420, 3572.674
1050.902, 3663.138
1051.384, 3739.996
1051.866, 3802.550
1052.349, 3848.120
1052.831, 3869.231
1053.313, 3869.185
1053.795, 3858.155
1054.277, 3840.770
1054.759, 3803.472
1055.241, 3734.408
1055.723, 3646.698
1056.205, 3549.115
1056.688, 3441.661
1057.170, 3324.788
1057.652, 3197.998
1058.134, 3066.259
1058.616, 2928.534
1059.098, 2789.244
1059.580, 2651.757
1060.062, 2515.864
1060.544, 2381.038
1061.027, 2243.169
1061.509, 2113.984
1061.991, 1996.257
1062.473, 1881.870
1062.955, 1763.203
1063.437, 1642.463
1063.919, 1523.823
1064.401, 1408.348
1064.884, 1293.778
1065.366, 1173.637
1065.848, 1063.317
1066.330, 970.7751
1066.812, 889.1597
1067.294, 802.1140
1067.776, 711.7412
1068.258, 633.0054
1068.740, 570.3818
1069.223, 515.2532
1069.705, 461.1790
1070.187, 410.7043
1070.669, 366.2061
1071.151, 327.6733
1071.633, 290.2871
1072.115, 253.2722
1072.597, 219.5503
1073.079, 190.4453
1073.562, 165.2549
1074.044, 144.6113
1074.526, 126.4670
1075.008, 106.3171
1075.490, 79.11572
1075.972, 57.20312
1076.454, 42.46191
1076.936, 31.38721
1077.419, 22.02490
1077.901, 13.95923
1078.383, 5.153564
1078.865, 4.468506
1079.347, 14.54150
1079.829, 27.11841
1080.311, 37.69043
1080.793, 43.99976
1081.275, 47.07764
1081.758, 47.12109
1082.240, 43.81372
1082.722, 44.43286
1083.204, 50.15601
1083.686, 57.22266
1084.168, 64.53125
1084.650, 70.14624
1085.132, 72.29688
1085.615, 70.71948
1086.097, 66.03540
1086.579, 56.04492
1087.061, 50.43677
1087.543, 53.73975
1088.025, 58.90430
1088.507, 54.55859
1088.989, 43.89429
1089.471, 32.01685
1089.953, 19.05688
1090.436, 8.783203
1090.918, 3.641602
1091.400, 0.8745120
1091.882, 6.734375
1092.364, 14.58179
1092.846, 25.02979
1093.328, 37.50439
1093.810, 52.57227
1094.293, 75.87964
1094.775, 95.38550
1095.257, 100.4507
1095.739, 101.9546
1096.221, 112.2378
1096.703, 132.7004
1097.185, 150.9534
1097.667, 166.7344
1098.150, 178.4211
1098.632, 179.6514
1099.114, 180.9873
1099.596, 193.7861
1100.078, 214.1724
1100.560, 229.1079
1101.042, 237.2212
1101.524, 241.9614
1102.006, 243.4500
1102.489, 242.3826
1102.971, 238.7766
1103.453, 233.3352
1103.935, 226.4292
1104.417, 218.1799
1104.899, 212.1631
1105.381, 213.2878
1105.863, 210.2288
1106.345, 198.5969
1106.828, 182.8860
1107.310, 173.9348
1107.792, 169.1467
1108.274, 160.2883
1108.756, 144.2085
1109.238, 129.3357
1109.720, 120.5398
1110.202, 113.5989
1110.685, 106.2529
1111.167, 98.64038
1111.649, 92.09302
1112.131, 86.72241
1112.613, 83.65186
1113.095, 85.21655
1113.577, 86.22388
1114.059, 80.79834
1114.542, 74.07153
1115.024, 72.19617
1115.506, 76.05457
1115.988, 80.44983
1116.470, 85.30981
1116.952, 91.37988
1117.434, 99.53210
1117.916, 108.8564
1118.398, 118.2607
1118.880, 128.0647
1119.363, 139.0919
1119.845, 151.8198
1120.327, 165.1157
1120.809, 178.7488
1121.291, 193.1300
1121.773, 208.3027
1122.255, 224.6313
1122.737, 243.9843
1123.220, 265.6646
1123.702, 284.9124
1124.184, 297.0055
1124.666, 310.2205
1125.148, 325.2357
1125.630, 343.1063
1126.112, 368.1841
1126.594, 397.3726
1127.077, 420.3970
1127.559, 435.7015
1128.041, 450.7957
1128.523, 469.8210
1129.005, 489.2804
1129.487, 508.3826
1129.969, 526.3704
1130.451, 542.2998
1130.933, 555.7561
1131.416, 562.5426
1131.898, 560.2120
1132.380, 556.7567
1132.862, 559.1997
1133.344, 561.2866
1133.826, 558.9240
1134.308, 552.0983
1134.790, 537.6245
1135.272, 515.2172
1135.755, 489.9783
1136.237, 462.1782
1136.719, 434.4500
1137.201, 409.9104
1137.683, 386.7961
1138.165, 363.5308
1138.647, 340.7197
1139.129, 314.8959
1139.612, 285.6923
1140.094, 258.4683
1140.576, 238.6432
1141.058, 220.5203
1141.540, 195.8145
1142.022, 167.9193
1142.504, 144.1057
1142.986, 129.5253
1143.469, 111.8188
1143.951, 88.98926
1144.433, 68.43042
1144.915, 57.34546
1145.397, 51.33289
1145.879, 43.22302
1146.361, 33.81934
1146.843, 25.71948
1147.325, 19.94226
1147.807, 15.67065
1148.290, 13.54309
1148.772, 10.71960
1149.254, 1.188965
1149.736, 10.75244
1150.218, 13.10938
1150.700, 5.931274
1151.182, 0.3758540
1151.664, 2.469604
1152.147, 4.745850
1152.629, 5.093506
1153.111, 4.498779
1153.593, 5.056641
1154.075, 6.096924
1154.557, 4.682617
1155.039, 0.3880620
1155.521, 3.292969
1156.004, 2.239380
1156.486, 2.701294
1156.968, 9.189697
1157.450, 18.71558
1157.932, 19.21533
1158.414, 12.66040
1158.896, 14.33447
1159.378, 29.61230
1159.860, 44.69348
1160.343, 50.38123
1160.825, 52.95361
1161.307, 56.43933
1161.789, 60.45337
1162.271, 66.54248
1162.753, 74.85693
1163.235, 83.21533
1163.717, 90.47412
1164.199, 98.93176
1164.682, 109.1066
1165.164, 120.7142
1165.646, 135.0757
1166.128, 152.5026
1166.610, 167.6254
1167.092, 180.2599
1167.574, 191.7579
1168.056, 201.5009
1168.539, 212.2170
1169.021, 229.7667
1169.503, 248.4684
1169.985, 259.4142
1170.467, 259.8518
1170.949, 264.8057
1171.431, 274.9518
1171.913, 284.1118
1172.396, 287.7565
1172.878, 288.8022
1173.360, 289.7399
1173.842, 290.4331
1174.324, 291.0516
1174.806, 294.3899
1175.288, 288.7312
1175.770, 272.1342
1176.252, 255.5255
1176.734, 250.3866
1177.217, 247.9977
1177.699, 235.0475
1178.181, 230.2266
1178.663, 204.2052
1179.145, 209.4575
1179.627, 204.2020
1180.109, 184.7870
1180.591, 161.8990
1181.074, 143.5870
1181.556, 129.8864
1182.038, 122.6365
1182.520, 120.3876
1183.002, 116.3695
1183.484, 109.8750
1183.966, 99.93665
1184.448, 84.70129
1184.931, 71.07324
1185.413, 70.15369
1185.895, 74.39783
1186.377, 70.77673
1186.859, 59.43787
1187.341, 50.02600
1187.823, 44.65405
1188.305, 40.88635
1188.787, 38.77161
1189.270, 36.90808
1189.752, 31.93982
1190.234, 26.50928
1190.716, 26.38904
1191.198, 31.89136
1191.680, 34.21350
1192.162, 30.54309
1192.644, 25.10229
1193.126, 17.56604
1193.609, 11.26318
1194.091, 14.22180
1194.573, 21.43420
1195.055, 22.64722
1195.537, 15.97595
1196.019, 12.67883
1196.501, 18.29260
1196.983, 21.59155
1197.466, 17.96045
1197.948, 12.22839
1198.430, 14.89648
1198.912, 21.55212
1199.394, 22.78210
1199.876, 15.97839
1200.358, 10.15649
1200.840, 6.252441
1201.323, 5.331177
1201.805, 9.067871
1202.287, 14.23718
1202.769, 13.18469
1203.251, 8.685303
1203.733, 6.987793
1204.215, 10.38794
1204.697, 12.06152
1205.179, 9.590332
1205.661, 7.886353
1206.144, 10.10535
1206.626, 13.36804
1207.108, 9.193848
1207.590, 0.6811520
1208.072, 3.800415
1208.554, 3.3936001E-02
1209.036, 3.090942
1209.518, 3.448975
1210.001, 3.267456
1210.483, 4.302734
1210.965, 5.180176
1211.447, 1.051392
1211.929, 5.777466
1212.411, 10.14014
1212.893, 9.856812
1213.375, 8.148438
1213.858, 4.860474
1214.340, 2.279541
1214.822, 1.804199
1215.304, 2.508301
1215.786, 3.043579
1216.268, 3.024658
1216.750, 0.7161870
1217.232, 8.134888
1217.714, 10.18713
1218.197, 1.016602
1218.679, 6.873413
1219.161, 3.920410
1219.643, 4.641479
1220.125, 9.125488
1220.607, 9.872314
1221.089, 7.335938
1221.571, 4.670532
1222.053, 6.368042
1222.536, 7.758301
1223.018, 19.92383
1223.500, 15.22144
1223.982, 2.497803
1224.464, 2.311768
1224.946, 0.9888920
1225.428, 2.448853
1225.910, 9.635376
1226.393, 14.06775
1226.875, 15.02063
1227.357, 15.14697
1227.839, 17.46875
1228.321, 19.51025
1228.803, 15.84338
1229.285, 8.806274
1229.767, 3.761353
1230.250, 1.962524
1230.732, 2.448730
1231.214, 5.479004
1231.696, 9.757568
1232.178, 15.43201
1232.660, 20.90063
1233.142, 24.75977
1233.624, 26.54053
1234.106, 24.53699
1234.589, 14.79956
1235.071, 12.22437
1235.553, 18.34888
1236.035, 25.70630
1236.517, 29.36890
1236.999, 30.42285
1237.481, 28.86450
1237.963, 25.84973
1238.445, 23.86572
1238.928, 22.95667
1239.410, 24.03064
1239.892, 27.55542
1240.374, 28.97620
1240.856, 21.32581
1241.338, 13.24927
1241.820, 14.03113
1242.302, 19.86829
1242.785, 22.28503
1243.267, 19.97351
1243.749, 20.28735
1244.231, 23.65393
1244.713, 26.35046
1245.195, 24.90747
1245.677, 23.05530
1246.159, 23.46509
1246.641, 25.90503
1247.124, 30.57825
1247.606, 37.87048
1248.088, 40.25012
1248.570, 37.90125
1249.052, 34.30200
1249.534, 28.84827
1250.016, 25.94458
1250.498, 30.23120
1250.980, 37.21545
1251.463, 39.54639
1251.945, 37.24976
1252.427, 36.64734
1252.909, 37.46057
1253.391, 37.16003
1253.873, 31.94482
1254.355, 28.38611
1254.837, 31.65002
1255.320, 35.55554
1255.802, 35.04565
1256.284, 30.88623
1256.766, 29.36487
1257.248, 29.81519
1257.730, 30.42444
1258.212, 34.23657
1258.694, 37.24231
1259.177, 38.19934
1259.659, 36.53345
1260.141, 29.12097
1260.623, 17.56116
1261.105, 15.76282
1261.587, 22.47852
1262.069, 27.19775
1262.551, 26.51550
1263.033, 24.77722
1263.516, 19.36963
1263.998, 14.75598
1264.480, 15.77185
1264.962, 19.69788
1265.444, 22.59045
1265.926, 23.84485
1266.408, 22.60791
1266.890, 15.18469
1267.372, 14.38330
1267.855, 22.79089
1268.337, 30.96240
1268.819, 29.50549
1269.301, 23.92590
1269.783, 20.17554
1270.265, 17.79907
1270.747, 15.47266
1271.229, 12.66956
1271.712, 11.43115
1272.194, 11.56104
1272.676, 13.37805
1273.158, 18.32263
1273.640, 22.99390
1274.122, 23.26050
1274.604, 20.84070
1275.086, 19.70471
1275.568, 20.52637
1276.051, 16.31226
1276.533, 6.788208
1277.015, 1.002319
1277.497, 7.740112
1277.979, 16.37695
1278.461, 22.24072
1278.943, 25.02917
1279.425, 23.54651
1279.907, 17.89612
1280.390, 14.89331
1280.872, 14.48767
1281.354, 15.44336
1281.836, 18.16614
1282.318, 20.74976
1282.800, 22.90271
1283.282, 23.93848
1283.764, 23.38452
1284.247, 21.15417
1284.729, 15.37231
1285.211, 7.467896
1285.693, 2.942993
1286.175, 7.406982
1286.657, 10.30566
1287.139, 10.06287
1287.621, 8.780029
1288.104, 7.001709
1288.586, 5.863037
1289.068, 9.225464
1289.550, 14.93018
1290.032, 17.95630
1290.514, 16.96326
1290.996, 12.39429
1291.478, 2.294312
1291.960, 3.027466
1292.443, 8.111084
1292.925, 22.10583
1293.407, 19.66028
1293.889, 9.566650
1294.371, 7.305786
1294.853, 16.12024
1295.335, 17.31189
1295.817, 10.64990
1296.299, 5.421997
1296.782, 8.156006
1297.264, 10.27344
1297.746, 5.421387
1298.228, 0.4367680
1298.710, 0.1652830
1299.192, 6.748291
1299.674, 9.506226
1300.156, 9.051636
1300.639, 7.247925
1301.121, 3.357544
1301.603, 3.897461
1302.085, 0.0000000E+00
##END=



