##NAMES=Liebenbergite
##RRUFFID=R150037
##IDEAL CHEMISTRY=Ni^2+^_2_SiO_4_
##LOCALITY=Agios Konstantinos, Lavrion District slag localities, Attik√≠ Prefecture, Greece
##OWNER=RRUFF
##SOURCE=Gunnar Farber
##DESCRIPTION=Euhedral vitreous green crystals, associated with R150038 black octahedral trevorite
##STATUS=The identification of this mineral has been confirmed only by single crystal X-ray diffraction.
##URL=rruff.info/R150037
119.6744, 13.97388
120.1566, 11.03343
120.6387, 8.186646
121.1208, 6.144363
121.6029, 4.933121
122.0850, 4.647491
122.5671, 4.982086
123.0493, 6.406403
123.5314, 10.20181
124.0135, 17.96297
124.4956, 24.65395
124.9777, 24.24776
125.4598, 18.15276
125.9420, 11.66347
126.4241, 7.953598
126.9062, 6.221939
127.3883, 4.998398
127.8704, 3.901566
128.3525, 3.281067
128.8347, 4.074051
129.3168, 6.204575
129.7989, 8.205063
130.2810, 8.566330
130.7631, 7.703522
131.2452, 7.462143
131.7274, 8.869431
132.2095, 10.93369
132.6916, 10.61932
133.1737, 7.653152
133.6558, 4.162415
134.1379, 2.159424
134.6201, 1.627274
135.1022, 1.412460
135.5843, 1.223679
136.0664, 1.076447
136.5485, 1.089111
137.0306, 1.271805
137.5128, 1.596939
137.9949, 1.775375
138.4770, 1.557693
138.9591, 2.532822
139.4412, 6.064026
139.9233, 12.52409
140.4055, 15.76595
140.8876, 14.99646
141.3697, 11.79265
141.8518, 8.480286
142.3339, 4.706497
142.8160, 1.639252
143.2982, 0.1604610
143.7803, 0.2226100
144.2624, 0.4978330
144.7445, 1.183014
145.2266, 2.017105
145.7087, 2.396423
146.1909, 2.271973
146.6730, 1.762375
147.1551, 0.8150940
147.6372, 1.598557
148.1193, 3.030350
148.6014, 3.033173
149.0836, 1.999207
149.5657, 1.284103
150.0478, 1.080994
150.5299, 1.055313
151.0120, 1.063202
151.4941, 0.8724670
151.9763, 0.9770970
152.4584, 1.635010
152.9405, 2.695999
153.4226, 3.411652
153.9047, 2.851303
154.3868, 2.490219
154.8690, 3.129257
155.3511, 6.970520
155.8332, 9.558182
156.3153, 9.567993
156.7974, 7.323410
157.2795, 5.452423
157.7617, 4.594818
158.2438, 4.285355
158.7259, 4.184052
159.2080, 4.622574
159.6901, 4.841049
160.1722, 4.424271
160.6544, 3.408234
161.1365, 2.613571
161.6186, 2.266968
162.1007, 2.248489
162.5828, 2.496719
163.0649, 3.709290
163.5471, 4.806335
164.0292, 5.185547
164.5113, 4.796310
164.9934, 4.104904
165.4755, 2.895752
165.9576, 1.592804
166.4398, 0.7315060
166.9219, 0.8457340
167.4040, 1.225677
167.8861, 1.380402
168.3682, 1.265305
168.8503, 1.193253
169.3325, 1.248245
169.8146, 1.480392
170.2967, 1.959488
170.7788, 3.371918
171.2609, 4.807816
171.7430, 5.245697
172.2252, 4.518738
172.7073, 3.542694
173.1894, 3.017334
173.6715, 2.793610
174.1536, 2.552994
174.6357, 1.819305
175.1179, 1.092590
175.6000, 1.171402
176.0821, 2.264420
176.5642, 3.344543
177.0463, 3.144135
177.5284, 2.038040
178.0106, 1.179001
178.4927, 1.344330
178.9748, 2.109894
179.4569, 2.771317
179.9390, 3.260101
180.4211, 3.704849
180.9033, 4.249542
181.3854, 4.894836
181.8675, 5.593231
182.3496, 6.450668
182.8317, 7.341110
183.3138, 7.936111
183.7960, 8.099762
184.2781, 8.229004
184.7602, 8.979538
185.2423, 10.28821
185.7244, 11.55867
186.2065, 12.36293
186.6887, 12.83018
187.1708, 13.52330
187.6529, 14.60066
188.1350, 15.67883
188.6171, 15.94055
189.0992, 15.40903
189.5814, 14.86726
190.0635, 14.85504
190.5456, 15.30331
191.0277, 15.75381
191.5098, 16.20442
191.9919, 16.55405
192.4741, 16.42821
192.9562, 15.79596
193.4383, 15.38213
193.9204, 15.91856
194.4025, 17.32860
194.8846, 18.26688
195.3668, 18.52557
195.8489, 18.28520
196.3310, 17.88307
196.8131, 17.29567
197.2952, 16.76097
197.7773, 16.48232
198.2595, 16.46985
198.7416, 16.33563
199.2237, 15.91508
199.7058, 15.44281
200.1879, 15.68846
200.6700, 16.79813
201.1522, 17.98079
201.6343, 18.60689
202.1164, 18.58295
202.5985, 18.93228
203.0806, 19.89714
203.5627, 21.24423
204.0449, 22.15787
204.5270, 22.61180
205.0091, 22.88525
205.4912, 22.96776
205.9733, 22.69891
206.4554, 23.08420
206.9376, 24.45685
207.4197, 26.55092
207.9018, 28.27054
208.3839, 29.46188
208.8660, 30.49811
209.3481, 31.58557
209.8303, 32.68134
210.3124, 34.30295
210.7945, 36.76578
211.2766, 39.69482
211.7587, 41.65826
212.2408, 42.35602
212.7230, 42.84003
213.2051, 43.80571
213.6872, 45.39783
214.1693, 46.81874
214.6514, 48.00465
215.1335, 48.97957
215.6157, 49.68648
216.0978, 49.96608
216.5799, 50.29196
217.0620, 51.03232
217.5441, 52.41013
218.0262, 53.52211
218.5084, 54.32373
218.9905, 54.81374
219.4726, 54.85443
219.9547, 54.25592
220.4368, 53.54337
220.9189, 53.07127
221.4011, 52.95166
221.8832, 52.77309
222.3653, 52.46341
222.8474, 52.07303
223.3295, 51.86688
223.8116, 52.08603
224.2938, 52.12119
224.7759, 51.56738
225.2580, 50.20592
225.7401, 48.77507
226.2222, 47.25150
226.7043, 45.69368
227.1865, 44.28622
227.6686, 43.07913
228.1507, 41.98393
228.6328, 40.98433
229.1149, 40.15485
229.5970, 39.23859
230.0792, 38.15392
230.5613, 36.97353
231.0434, 36.03952
231.5255, 35.52284
232.0076, 35.02475
232.4897, 34.34625
232.9719, 33.45892
233.4540, 32.45110
233.9361, 31.20459
234.4182, 29.84630
234.9003, 28.78862
235.3824, 28.03986
235.8646, 27.57910
236.3467, 27.44789
236.8288, 27.88675
237.3109, 28.10292
237.7930, 27.97977
238.2751, 27.63110
238.7573, 27.38803
239.2394, 27.18037
239.7215, 27.17154
240.2036, 27.46094
240.6857, 28.20352
241.1678, 28.89427
241.6500, 29.56192
242.1321, 30.16382
242.6142, 30.57744
243.0963, 30.64316
243.5784, 30.75273
244.0605, 31.09221
244.5427, 31.80237
245.0248, 32.37334
245.5069, 32.69495
245.9890, 32.92648
246.4711, 33.46745
246.9532, 34.66425
247.4354, 35.61510
247.9175, 35.96155
248.3996, 35.59404
248.8817, 35.02975
249.3638, 34.41782
249.8459, 33.53206
250.3281, 31.83717
250.8102, 28.73120
251.2923, 25.86856
251.7744, 23.90454
252.2565, 23.18719
252.7386, 21.96759
253.2208, 20.08636
253.7029, 17.82130
254.1850, 15.49579
254.6671, 12.87199
255.1492, 10.64456
255.6313, 9.129013
256.1135, 8.452728
256.5956, 7.627731
257.0777, 6.584305
257.5598, 5.462784
258.0419, 4.420868
258.5240, 3.395493
259.0062, 2.621658
259.4883, 2.270050
259.9704, 2.396530
260.4525, 2.133545
260.9346, 1.297791
261.4167, 0.3069920
261.8989, 0.3441470
262.3810, 0.5357210
262.8631, 0.6734770
263.3452, 0.7791290
263.8273, 0.8549500
264.3094, 1.308060
264.7916, 2.402649
265.2737, 3.457626
265.7558, 3.713943
266.2379, 2.857361
266.7200, 2.240372
267.2021, 2.236328
267.6843, 2.752609
268.1664, 2.802719
268.6485, 2.194611
269.1306, 1.524078
269.6127, 1.405411
270.0948, 2.042786
270.5770, 2.303604
271.0591, 1.882050
271.5412, 0.9537200
272.0233, 0.3359380
272.5054, 8.1786998E-02
272.9875, 3.0121000E-02
273.4697, 0.1410060
273.9518, 0.4684450
274.4339, 0.6205900
274.9160, 0.5571750
275.3981, 0.2861330
275.8802, 0.2519230
276.3624, 1.131271
276.8445, 1.962921
277.3266, 2.481689
277.8087, 2.670486
278.2908, 2.795532
278.7729, 2.828995
279.2551, 2.871155
279.7372, 3.241150
280.2193, 4.012344
280.7014, 4.643814
281.1835, 4.645020
281.6656, 4.033112
282.1478, 4.070297
282.6299, 4.933594
283.1120, 6.205978
283.5941, 7.184189
284.0762, 7.855652
284.5583, 8.561218
285.0405, 9.438324
285.5226, 10.48363
286.0047, 11.73737
286.4868, 13.26337
286.9689, 14.78304
287.4510, 15.90443
287.9332, 16.63956
288.4153, 17.24742
288.8974, 17.65085
289.3795, 17.98944
289.8616, 18.87071
290.3438, 20.34656
290.8259, 22.00040
291.3080, 23.29642
291.7901, 24.31247
292.2722, 25.61775
292.7543, 27.58823
293.2365, 29.86638
293.7186, 31.44891
294.2007, 32.31029
294.6828, 33.23843
295.1649, 35.02988
295.6470, 37.46852
296.1292, 39.89357
296.6113, 42.05975
297.0934, 44.17456
297.5755, 46.66199
298.0576, 49.49963
298.5397, 52.31578
299.0219, 54.72496
299.5040, 56.95781
299.9861, 59.49179
300.4682, 62.46735
300.9503, 65.67099
301.4324, 68.88953
301.9146, 72.12613
302.3967, 75.52570
302.8788, 79.03940
303.3609, 82.79413
303.8430, 87.03738
304.3251, 91.94156
304.8073, 96.79742
305.2894, 100.8203
305.7715, 104.2781
306.2536, 107.9397
306.7357, 112.0495
307.2178, 116.5998
307.7000, 121.6738
308.1821, 127.3295
308.6642, 132.9580
309.1463, 138.2174
309.6284, 143.1124
310.1105, 147.7254
310.5927, 151.7132
311.0748, 155.6279
311.5569, 160.1473
312.0390, 165.2660
312.5211, 169.8442
313.0032, 172.8260
313.4854, 175.1477
313.9675, 177.7647
314.4496, 181.5681
314.9317, 185.2262
315.4138, 188.2391
315.8959, 190.6108
316.3781, 192.4561
316.8602, 194.1038
317.3423, 195.0731
317.8244, 194.9677
318.3065, 193.2656
318.7886, 191.1100
319.2708, 188.5148
319.7529, 185.6907
320.2350, 183.2739
320.7171, 182.1619
321.1992, 180.9960
321.6813, 179.1028
322.1635, 176.2148
322.6456, 172.9166
323.1277, 169.0480
323.6098, 164.9145
324.0919, 161.0047
324.5740, 157.8030
325.0562, 154.4497
325.5383, 150.7940
326.0204, 146.9885
326.5025, 142.3637
326.9846, 136.6315
327.4667, 130.1542
327.9489, 123.2304
328.4310, 114.9474
328.9131, 107.3152
329.3952, 100.8260
329.8773, 95.49870
330.3594, 89.86447
330.8416, 83.79041
331.3237, 77.57117
331.8058, 71.33568
332.2879, 64.31366
332.7700, 58.59001
333.2521, 54.43184
333.7343, 51.68289
334.2164, 49.65236
334.6985, 48.74638
335.1806, 47.97337
335.6627, 46.72319
336.1448, 44.67709
336.6270, 43.22147
337.1091, 42.46146
337.5912, 42.25931
338.0733, 42.41719
338.5554, 43.05644
339.0375, 43.52473
339.5197, 43.46400
340.0018, 42.84279
340.4839, 42.65576
340.9660, 42.98953
341.4481, 43.64348
341.9302, 44.43523
342.4124, 45.37376
342.8945, 45.97244
343.3766, 46.05334
343.8587, 45.70074
344.3408, 45.21658
344.8229, 44.59219
345.3051, 43.98602
345.7872, 43.64268
346.2693, 43.48587
346.7514, 42.94606
347.2335, 41.70844
347.7156, 40.32037
348.1978, 40.07355
348.6799, 40.87515
349.1620, 41.58153
349.6441, 41.38219
350.1262, 40.53133
350.6083, 39.53101
351.0905, 38.34846
351.5726, 37.33118
352.0547, 37.03613
352.5368, 37.26471
353.0189, 37.41554
353.5010, 37.10603
353.9832, 36.58836
354.4653, 36.14746
354.9474, 35.78999
355.4295, 35.49332
355.9116, 35.20027
356.3937, 34.96002
356.8759, 34.85478
357.3580, 35.18240
357.8401, 35.42734
358.3222, 35.10020
358.8043, 34.29771
359.2864, 33.62450
359.7686, 33.65172
360.2507, 33.81268
360.7328, 33.58784
361.2149, 32.55840
361.6970, 31.63670
362.1791, 31.10535
362.6613, 30.94348
363.1434, 31.10481
363.6255, 32.16438
364.1076, 33.06903
364.5897, 33.19719
365.0718, 32.16570
365.5540, 31.46124
366.0361, 31.41071
366.5182, 31.80266
367.0003, 32.38412
367.4824, 33.71490
367.9645, 34.63161
368.4467, 34.58891
368.9288, 33.52147
369.4109, 33.20570
369.8930, 34.49788
370.3751, 35.88847
370.8572, 36.32532
371.3394, 35.04344
371.8215, 34.11180
372.3036, 33.84564
372.7857, 34.02890
373.2678, 33.85143
373.7499, 33.08803
374.2321, 32.35190
374.7142, 32.00052
375.1963, 32.19920
375.6784, 32.04041
376.1605, 31.45596
376.6426, 30.59502
377.1248, 29.72099
377.6069, 28.84239
378.0890, 27.82658
378.5711, 26.59250
379.0532, 25.16965
379.5353, 23.78180
380.0175, 22.35506
380.4996, 21.24254
380.9817, 21.27675
381.4638, 22.21776
381.9459, 21.87515
382.4280, 19.40627
382.9102, 15.94708
383.3923, 13.65680
383.8744, 12.44824
384.3565, 11.63637
384.8386, 11.03180
385.3207, 10.47475
385.8029, 9.598328
386.2850, 8.299301
386.7671, 6.942642
387.2492, 5.874283
387.7313, 5.030045
388.2134, 4.284363
388.6956, 3.631165
389.1777, 3.025131
389.6598, 2.413040
390.1419, 1.821167
390.6240, 1.312164
391.1061, 0.9326320
391.5883, 0.5983890
392.0704, 0.2386320
392.5525, 0.1353760
393.0346, 0.5730440
393.5167, 1.163269
393.9988, 1.783157
394.4810, 2.262650
394.9631, 2.732513
395.4452, 3.004089
395.9273, 2.862320
396.4094, 2.077637
396.8915, 1.357025
397.3737, 0.8536830
397.8558, 0.5535430
398.3379, 0.4041440
398.8200, 0.7187350
399.3021, 0.8306270
399.7842, 0.5658420
400.2664, 7.3563002E-02
400.7485, 0.7080840
401.2306, 1.425354
401.7127, 2.076660
402.1948, 2.484909
402.6769, 2.452606
403.1591, 2.580338
403.6412, 3.044418
404.1233, 3.692627
404.6054, 4.094421
405.0875, 4.139053
405.5696, 4.189804
406.0518, 4.398453
406.5339, 4.809540
407.0160, 5.157928
407.4981, 5.395477
407.9802, 5.705887
408.4623, 6.378906
408.9445, 7.410507
409.4266, 8.344864
409.9087, 9.042740
410.3908, 9.589539
410.8729, 10.07585
411.3550, 10.51486
411.8372, 11.17802
412.3193, 12.56427
412.8014, 14.30203
413.2835, 15.47820
413.7656, 15.90726
414.2477, 16.06143
414.7299, 16.51782
415.2120, 17.09628
415.6941, 17.35675
416.1762, 16.86201
416.6583, 16.10326
417.1404, 15.42921
417.6226, 14.84885
418.1047, 14.48428
418.5868, 14.63217
419.0689, 14.91487
419.5510, 14.96335
420.0331, 14.50632
420.5153, 14.03206
420.9974, 13.65408
421.4795, 13.39648
421.9616, 13.33958
422.4437, 13.50574
422.9258, 13.87729
423.4080, 14.53252
423.8901, 15.64012
424.3722, 16.45961
424.8543, 16.84267
425.3364, 16.96021
425.8185, 16.95709
426.3007, 16.57849
426.7828, 16.46284
427.2649, 16.82060
427.7470, 17.55450
428.2291, 18.04343
428.7112, 18.25319
429.1934, 18.26656
429.6755, 18.04668
430.1576, 17.49081
430.6397, 17.29782
431.1218, 17.65111
431.6039, 18.10277
432.0861, 17.86873
432.5682, 16.90187
433.0503, 15.94450
433.5324, 15.37793
434.0145, 14.99004
434.4966, 13.94882
434.9788, 12.23923
435.4609, 10.39073
435.9430, 8.446121
436.4251, 6.682220
436.9072, 6.063324
437.3893, 7.123093
437.8715, 8.420166
438.3536, 8.080750
438.8357, 6.603622
439.3178, 5.379684
439.7999, 5.173798
440.2820, 5.511581
440.7642, 6.234741
441.2463, 7.336456
441.7284, 7.922592
442.2105, 6.908127
442.6926, 5.419952
443.1747, 4.557892
443.6569, 5.303329
444.1390, 5.883774
444.6211, 5.587296
445.1032, 4.686417
445.5853, 3.979675
446.0674, 3.963577
446.5496, 3.858215
447.0317, 3.278900
447.5138, 1.931946
447.9959, 1.062408
448.4780, 0.8916630
448.9601, 1.030548
449.4423, 1.148209
449.9244, 1.401855
450.4065, 1.252426
450.8886, 0.3782040
451.3707, 0.9577330
451.8528, 1.485062
452.3350, 0.8958740
452.8171, 0.4060520
453.2992, 0.8337250
453.7813, 2.174850
454.2634, 2.862747
454.7455, 2.785568
455.2277, 2.369446
455.7098, 2.114014
456.1919, 2.010468
456.6740, 1.916672
457.1561, 1.691391
457.6382, 1.476501
458.1204, 1.714996
458.6025, 2.326492
459.0846, 2.687302
459.5667, 2.048813
460.0488, 1.050888
460.5309, 0.5844120
461.0131, 0.8628690
461.4952, 1.215363
461.9773, 1.292908
462.4594, 1.127975
462.9415, 0.7627110
463.4236, 0.1484680
463.9058, 0.9212950
464.3879, 1.091522
464.8700, 0.7379150
465.3521, 0.6894530
465.8342, 1.580521
466.3163, 2.516434
466.7985, 2.988968
467.2806, 2.693192
467.7627, 2.404266
468.2448, 1.948715
468.7269, 1.589172
469.2090, 1.757935
469.6912, 2.943970
470.1733, 3.749939
470.6554, 3.696838
471.1375, 2.910980
471.6196, 2.685989
472.1017, 3.194229
472.5839, 3.778137
473.0660, 4.008423
473.5481, 3.880585
474.0302, 3.626678
474.5123, 3.221039
474.9944, 2.816345
475.4766, 2.608047
475.9587, 2.594696
476.4408, 2.769394
476.9229, 3.263748
477.4050, 3.863770
477.8871, 4.267670
478.3693, 4.472855
478.8514, 4.443726
479.3335, 3.840591
479.8156, 3.122208
480.2977, 2.840012
480.7798, 3.127487
481.2620, 3.721283
481.7441, 4.975937
482.2262, 6.324768
482.7083, 6.932587
483.1904, 5.542984
483.6725, 4.308014
484.1547, 4.223541
484.6368, 5.204788
485.1189, 5.841064
485.6010, 5.528900
486.0831, 5.143494
486.5652, 5.116638
487.0474, 5.553391
487.5295, 6.164230
488.0116, 7.217697
488.4937, 8.238251
488.9758, 8.460144
489.4579, 7.554688
489.9401, 6.852982
490.4222, 6.681946
490.9043, 6.958878
491.3864, 7.374924
491.8685, 7.966248
492.3506, 8.457596
492.8328, 8.535751
493.3149, 8.322372
493.7970, 8.439423
494.2791, 8.987595
494.7612, 9.590836
495.2433, 9.831207
495.7255, 9.801575
496.2076, 9.751556
496.6897, 9.822678
497.1718, 9.860535
497.6539, 9.662476
498.1360, 9.294540
498.6182, 9.001297
499.1003, 8.631638
499.5824, 8.572662
500.0645, 9.230286
500.5466, 10.84663
501.0287, 12.27162
501.5109, 13.24133
501.9930, 13.83878
502.4751, 14.12776
502.9572, 13.71371
503.4393, 13.46359
503.9214, 13.52757
504.4036, 13.82765
504.8857, 14.08304
505.3678, 14.18871
505.8499, 14.38924
506.3320, 14.89366
506.8141, 15.76089
507.2963, 16.19383
507.7784, 16.04480
508.2605, 15.87946
508.7426, 16.47113
509.2247, 17.69785
509.7068, 18.27856
510.1890, 17.83615
510.6711, 17.08435
511.1532, 17.35394
511.6353, 18.35774
512.1174, 19.02133
512.5995, 18.42920
513.0817, 17.46034
513.5638, 17.16367
514.0459, 17.53160
514.5280, 18.03360
515.0101, 18.48817
515.4922, 18.85490
515.9744, 19.02199
516.4565, 18.76193
516.9386, 18.67572
517.4207, 19.14342
517.9028, 19.96843
518.3849, 20.75691
518.8671, 21.77060
519.3492, 22.28426
519.8313, 21.94431
520.3134, 20.84778
520.7955, 20.19214
521.2776, 19.98149
521.7598, 20.21184
522.2419, 21.01785
522.7240, 22.57161
523.2061, 23.78586
523.6882, 24.60391
524.1703, 25.17421
524.6525, 25.69650
525.1346, 26.16805
525.6167, 26.45490
526.0988, 26.41968
526.5809, 26.29782
527.0630, 26.41141
527.5452, 26.78583
528.0273, 27.54716
528.5094, 29.06331
528.9915, 30.85724
529.4736, 32.44887
529.9557, 33.80788
530.4379, 34.97083
530.9200, 35.77037
531.4021, 36.48915
531.8842, 37.40108
532.3663, 38.51414
532.8484, 39.90126
533.3306, 42.00183
533.8127, 44.35608
534.2948, 45.93030
534.7769, 45.93726
535.2590, 46.00098
535.7411, 46.55846
536.2233, 47.58626
536.7054, 48.40791
537.1875, 49.27621
537.6696, 49.44406
538.1517, 48.27475
538.6339, 45.69206
539.1160, 42.95901
539.5981, 40.14380
540.0802, 37.21008
540.5623, 33.91406
541.0444, 30.34196
541.5266, 26.88560
542.0087, 23.59013
542.4908, 20.55919
542.9729, 18.08891
543.4550, 16.10481
543.9371, 14.22885
544.4193, 12.14096
544.9014, 10.12224
545.3835, 8.427994
545.8656, 7.090134
546.3477, 5.847290
546.8298, 4.358170
547.3120, 3.031860
547.7941, 2.222717
548.2762, 2.468292
548.7583, 2.559128
549.2404, 2.388763
549.7225, 2.015335
550.2047, 1.489105
550.6868, 0.5801240
551.1689, 2.9479999E-02
551.6510, 9.9059999E-02
552.1331, 0.2883300
552.6152, 0.5742650
553.0974, 0.7225800
553.5795, 0.9585570
554.0616, 1.497360
554.5437, 2.280380
555.0258, 2.809082
555.5079, 2.978241
555.9901, 3.492905
556.4722, 5.529388
556.9543, 8.423019
557.4364, 10.75160
557.9185, 11.85670
558.4006, 12.67885
558.8828, 13.72679
559.3649, 15.06714
559.8470, 16.87744
560.3291, 19.60797
560.8112, 22.47113
561.2933, 25.24014
561.7755, 27.89651
562.2576, 30.22633
562.7397, 31.38922
563.2218, 32.85277
563.7039, 35.45799
564.1860, 39.93745
564.6682, 43.59329
565.1503, 46.02647
565.6324, 48.18625
566.1145, 51.32373
566.5966, 55.57147
567.0787, 59.84108
567.5609, 63.88002
568.0430, 67.84451
568.5251, 71.97546
569.0072, 76.29008
569.4893, 80.60614
569.9714, 84.87679
570.4536, 89.11942
570.9357, 93.35085
571.4178, 97.56357
571.8999, 101.8871
572.3820, 106.6668
572.8641, 111.4019
573.3463, 115.5916
573.8284, 119.1845
574.3105, 122.2564
574.7926, 124.6785
575.2747, 126.6486
575.7568, 128.4090
576.2390, 130.3648
576.7211, 131.6243
577.2032, 131.9195
577.6853, 131.4352
578.1674, 130.9286
578.6495, 130.6571
579.1317, 129.7601
579.6138, 127.6402
580.0959, 124.4286
580.5780, 121.6931
581.0601, 119.4857
581.5422, 117.2699
582.0244, 114.8167
582.5065, 111.9651
582.9886, 108.2328
583.4707, 103.3751
583.9528, 98.33582
584.4349, 94.00922
584.9171, 90.01604
585.3992, 85.79279
585.8813, 80.66943
586.3634, 75.77310
586.8455, 71.49107
587.3276, 67.78152
587.8098, 64.72147
588.2919, 62.78201
588.7740, 61.03024
589.2561, 59.22520
589.7382, 57.36636
590.2203, 55.47336
590.7025, 53.49669
591.1846, 51.62129
591.6667, 49.98854
592.1488, 48.60336
592.6309, 47.25883
593.1130, 45.92261
593.5952, 44.70305
594.0773, 43.80086
594.5594, 43.14001
595.0415, 42.40884
595.5236, 41.41023
596.0057, 40.52621
596.4879, 40.59154
596.9700, 41.12074
597.4521, 40.97208
597.9342, 39.03790
598.4163, 36.79309
598.8984, 34.93021
599.3806, 33.45164
599.8627, 32.24310
600.3448, 31.60945
600.8269, 30.95277
601.3090, 29.87941
601.7911, 28.10947
602.2733, 27.08203
602.7554, 27.22113
603.2375, 27.51192
603.7196, 26.81944
604.2017, 24.97400
604.6838, 23.91287
605.1660, 24.03488
605.6481, 24.60213
606.1302, 24.45670
606.6123, 23.70638
607.0944, 22.84766
607.5765, 21.94437
608.0587, 21.12650
608.5408, 20.57539
609.0229, 20.25037
609.5050, 19.97507
609.9871, 19.81505
610.4692, 19.55359
610.9514, 18.93750
611.4335, 17.91234
611.9156, 17.20927
612.3977, 17.30617
612.8798, 17.52023
613.3619, 17.45764
613.8441, 17.01825
614.3262, 16.50450
614.8083, 15.82637
615.2904, 15.19211
615.7725, 14.96419
616.2546, 15.17940
616.7368, 15.15657
617.2189, 14.69122
617.7010, 14.04982
618.1831, 13.78609
618.6652, 13.79585
619.1473, 13.65457
619.6295, 13.08794
620.1116, 12.32045
620.5937, 11.47116
621.0758, 10.58696
621.5579, 9.869034
622.0400, 9.632462
622.5222, 9.441635
623.0043, 9.029144
623.4864, 8.323105
623.9685, 7.668396
624.4506, 7.280960
624.9327, 6.801407
625.4149, 5.915863
625.8970, 4.343399
626.3791, 3.278152
626.8612, 2.880249
627.3433, 2.794022
627.8254, 2.591782
628.3076, 2.271729
628.7897, 1.746750
629.2718, 0.8743440
629.7539, 1.7990001E-02
630.2360, 0.3080750
630.7181, 0.1532750
631.2003, 4.5821998E-02
631.6824, 0.2988890
632.1645, 0.6434170
632.6466, 0.8738860
633.1287, 1.005005
633.6108, 1.140060
634.0930, 1.497681
634.5751, 1.719208
635.0572, 1.475677
635.5393, 0.5461430
636.0214, 0.3340760
636.5035, 1.428329
636.9857, 2.524445
637.4678, 2.518738
637.9499, 1.225388
638.4320, 0.1743470
638.9141, 0.5252840
639.3962, 0.9912570
639.8784, 1.313873
640.3605, 1.517334
640.8426, 1.700119
641.3247, 1.830719
641.8068, 2.057297
642.2889, 2.727325
642.7711, 3.620377
643.2532, 4.247604
643.7353, 4.128204
644.2174, 3.951431
644.6995, 3.927917
645.1816, 4.086868
645.6638, 4.557419
646.1459, 5.737061
646.6280, 6.859299
647.1101, 7.724762
647.5922, 8.332611
648.0743, 8.418076
648.5565, 7.814514
649.0386, 7.201141
649.5207, 7.200470
650.0028, 7.718231
650.4849, 7.966888
650.9670, 7.854294
651.4492, 7.629990
651.9313, 7.556549
652.4134, 7.595322
652.8955, 7.639481
653.3776, 7.645126
653.8597, 7.620285
654.3419, 7.639282
654.8240, 7.606186
655.3061, 7.389877
655.7882, 6.634811
656.2703, 6.125046
656.7524, 6.117981
657.2346, 6.498344
657.7167, 6.968231
658.1988, 7.472183
658.6809, 7.983269
659.1630, 8.566452
659.6451, 9.207291
660.1273, 9.685303
660.6094, 9.998154
661.0915, 10.31308
661.5736, 10.69996
662.0557, 11.14913
662.5378, 11.62704
663.0200, 12.13275
663.5021, 12.80420
663.9842, 13.71288
664.4663, 14.85547
664.9484, 16.26069
665.4305, 18.13068
665.9127, 19.73826
666.3948, 20.83214
666.8769, 21.68474
667.3590, 22.54612
667.8411, 23.37320
668.3232, 24.26281
668.8054, 25.23309
669.2875, 26.33083
669.7696, 27.78173
670.2517, 29.59798
670.7338, 30.98659
671.2159, 31.50281
671.6981, 31.74302
672.1802, 32.78664
672.6623, 34.45928
673.1444, 36.15598
673.6265, 37.64992
674.1086, 38.97286
674.5908, 39.89545
675.0729, 40.56366
675.5550, 41.84546
676.0371, 45.23823
676.5192, 48.19991
677.0013, 49.31921
677.4835, 48.33993
677.9656, 48.51100
678.4477, 50.28719
678.9298, 52.46881
679.4119, 54.22701
679.8940, 55.56149
680.3762, 56.98157
680.8583, 58.53853
681.3404, 59.86879
681.8225, 60.40967
682.3046, 60.52333
682.7867, 61.06210
683.2689, 62.30638
683.7510, 63.53651
684.2331, 64.24559
684.7152, 64.61090
685.1973, 64.83763
685.6794, 64.98208
686.1616, 64.95035
686.6437, 64.71865
687.1258, 64.30556
687.6079, 63.69466
688.0900, 62.86425
688.5721, 61.93224
689.0543, 60.91172
689.5364, 59.77718
690.0185, 58.58090
690.5006, 57.32782
690.9827, 55.76140
691.4648, 53.51421
691.9470, 50.94829
692.4291, 48.59755
692.9112, 46.46205
693.3933, 44.40648
693.8754, 42.24763
694.3575, 40.08069
694.8397, 38.02504
695.3218, 36.16536
695.8039, 34.28223
696.2860, 32.34769
696.7681, 30.28139
697.2502, 27.92078
697.7324, 25.08766
698.2145, 22.96307
698.6966, 21.69081
699.1787, 20.72244
699.6608, 19.58173
700.1429, 18.29614
700.6251, 16.89476
701.1072, 15.33531
701.5893, 13.91127
702.0714, 13.02862
702.5535, 12.43513
703.0356, 11.73953
703.5178, 10.65106
703.9999, 9.767715
704.4820, 9.651611
704.9641, 9.783890
705.4462, 9.331985
705.9283, 7.759903
706.4105, 6.383194
706.8926, 5.337967
707.3747, 4.601807
707.8568, 4.224487
708.3389, 4.247955
708.8210, 4.044846
709.3032, 3.269089
709.7853, 2.265839
710.2674, 1.711090
710.7495, 1.549698
711.2316, 1.546753
711.7137, 1.869858
712.1959, 2.056763
712.6780, 1.737122
713.1601, 0.9431920
713.6422, 1.7395001E-02
714.1243, 1.712799
714.6064, 2.896790
715.0886, 2.876450
715.5707, 1.595413
716.0528, 0.9454650
716.5349, 1.037781
717.0170, 1.443680
717.4991, 2.031738
717.9813, 2.747177
718.4634, 3.092407
718.9455, 3.047623
719.4276, 2.850601
719.9097, 2.606781
720.3918, 2.374176
720.8740, 2.303894
721.3561, 2.455154
721.8382, 2.461578
722.3203, 1.812225
722.8024, 1.123886
723.2845, 0.9640960
723.7667, 2.121262
724.2488, 2.461655
724.7309, 1.545181
725.2130, 0.2758480
725.6951, 0.1980900
726.1772, 0.2015380
726.6594, 0.2104640
727.1415, 0.4270940
727.6236, 1.275787
728.1057, 1.873627
728.5878, 2.210388
729.0699, 2.240646
729.5521, 1.716171
730.0342, 1.259048
730.5163, 1.555908
730.9984, 2.164032
731.4805, 2.293564
731.9626, 0.9358370
732.4448, 8.3159998E-02
732.9269, 0.3485870
733.4090, 1.288101
733.8911, 1.663773
734.3732, 1.372025
734.8553, 0.8957210
735.3375, 0.3761750
735.8196, 0.2232060
736.3017, 1.152649
736.7838, 2.324692
737.2659, 3.203812
737.7480, 3.494904
738.2302, 3.361526
738.7123, 2.640686
739.1944, 1.518829
739.6765, 0.8740390
740.1586, 1.561295
740.6407, 2.287933
741.1229, 2.395172
741.6050, 1.911774
742.0871, 1.815231
742.5692, 2.304962
743.0513, 2.692139
743.5334, 2.485596
744.0156, 1.791641
744.4977, 1.597260
744.9798, 1.895508
745.4619, 2.331024
745.9440, 2.872314
746.4261, 3.275955
746.9083, 3.083038
747.3904, 2.244537
747.8725, 1.582260
748.3546, 1.801529
748.8367, 2.117081
749.3188, 1.929825
749.8010, 0.9948580
750.2831, 0.4523930
750.7652, 0.5143130
751.2473, 0.6460570
751.7294, 0.4393770
752.2115, 9.4116002E-02
752.6937, 1.005356
753.1758, 2.400085
753.6579, 3.529663
754.1400, 3.224960
754.6221, 2.269257
755.1042, 2.019272
755.5864, 2.874359
756.0685, 3.847229
756.5506, 4.548981
757.0327, 5.040237
757.5148, 5.321976
757.9969, 5.116699
758.4791, 5.173645
758.9612, 5.472839
759.4433, 6.039780
759.9254, 7.085388
760.4075, 8.675110
760.8896, 9.475067
761.3718, 9.070740
761.8539, 8.472748
762.3360, 9.098541
762.8181, 10.53618
763.3002, 11.91827
763.7823, 13.05920
764.2645, 13.94238
764.7466, 14.41389
765.2287, 14.67256
765.7108, 15.07001
766.1929, 15.63888
766.6750, 16.41672
767.1572, 17.53061
767.6393, 18.70682
768.1214, 19.50165
768.6035, 19.91489
769.0856, 20.19980
769.5677, 20.44022
770.0499, 20.60590
770.5320, 20.50967
771.0141, 20.25525
771.4962, 20.16400
771.9783, 20.52716
772.4604, 20.86639
772.9426, 20.85083
773.4247, 20.76703
773.9068, 21.06964
774.3889, 22.50897
774.8710, 23.19632
775.3531, 22.65268
775.8353, 21.20224
776.3174, 19.66794
776.7995, 18.05844
777.2816, 16.83368
777.7637, 16.33792
778.2458, 16.13489
778.7280, 15.23740
779.2101, 13.94910
779.6922, 13.27283
780.1743, 14.81781
780.6564, 16.08469
781.1385, 15.30542
781.6207, 12.93542
782.1028, 11.47717
782.5849, 11.61716
783.0670, 12.04178
783.5491, 12.38141
784.0313, 12.62933
784.5134, 13.09854
784.9955, 13.84451
785.4776, 14.42813
785.9597, 14.26151
786.4418, 14.04959
786.9240, 15.00946
787.4061, 16.91006
787.8882, 18.96198
788.3703, 20.68311
788.8524, 22.52518
789.3345, 24.71567
789.8167, 27.20322
790.2988, 29.52036
790.7809, 31.40808
791.2630, 33.84015
791.7451, 37.34311
792.2272, 41.56668
792.7094, 45.21539
793.1915, 48.28534
793.6736, 51.69699
794.1557, 56.07974
794.6378, 60.95630
795.1199, 65.59848
795.6021, 70.10651
796.0842, 75.20438
796.5663, 81.40082
797.0484, 88.05792
797.5305, 94.60287
798.0126, 101.0541
798.4948, 108.6904
798.9769, 117.8875
799.4590, 127.3867
799.9411, 136.1827
800.4232, 144.8733
800.9053, 155.5810
801.3875, 168.2153
801.8696, 181.5175
802.3517, 194.2102
802.8338, 207.7516
803.3159, 223.3912
803.7980, 241.1183
804.2802, 260.3408
804.7623, 280.8107
805.2444, 302.9059
805.7265, 326.1285
806.2086, 350.6493
806.6907, 378.3931
807.1729, 409.6082
807.6550, 443.4763
808.1371, 479.9825
808.6192, 518.9724
809.1013, 559.7062
809.5834, 602.4116
810.0656, 648.3843
810.5477, 699.5560
811.0298, 753.2438
811.5119, 807.8641
811.9940, 863.6149
812.4761, 922.3881
812.9583, 984.4568
813.4404, 1049.662
813.9225, 1117.718
814.4046, 1188.595
814.8867, 1266.088
815.3688, 1349.642
815.8510, 1438.316
816.3331, 1531.333
816.8152, 1629.545
817.2973, 1734.148
817.7794, 1844.538
818.2615, 1957.191
818.7437, 2071.473
819.2258, 2184.851
819.7079, 2300.040
820.1900, 2415.440
820.6721, 2519.409
821.1542, 2616.038
821.6364, 2693.997
822.1185, 2751.452
822.6006, 2786.253
823.0827, 2794.339
823.5648, 2775.978
824.0469, 2733.598
824.5291, 2662.056
825.0112, 2572.183
825.4933, 2469.003
825.9754, 2354.946
826.4575, 2236.401
826.9396, 2107.960
827.4218, 1983.973
827.9039, 1868.066
828.3860, 1759.422
828.8681, 1659.211
829.3502, 1566.804
829.8323, 1481.699
830.3145, 1403.880
830.7966, 1332.732
831.2787, 1267.305
831.7608, 1207.308
832.2429, 1153.961
832.7250, 1108.358
833.2072, 1068.085
833.6893, 1032.403
834.1714, 1000.934
834.6535, 972.9611
835.1356, 947.8221
835.6177, 926.6636
836.0999, 909.7026
836.5820, 896.6588
837.0641, 886.9662
837.5462, 880.4756
838.0283, 875.8086
838.5104, 871.8659
838.9926, 870.8355
839.4747, 875.6412
839.9568, 884.9442
840.4389, 896.5052
840.9210, 907.0273
841.4031, 922.8380
841.8853, 947.6379
842.3674, 977.2256
842.8495, 1005.566
843.3316, 1031.753
843.8137, 1061.189
844.2958, 1094.848
844.7780, 1131.719
845.2601, 1171.084
845.7422, 1212.291
846.2243, 1254.739
846.7064, 1298.341
847.1885, 1342.831
847.6707, 1388.470
848.1528, 1434.728
848.6349, 1481.317
849.1170, 1530.586
849.5991, 1575.317
850.0812, 1616.023
850.5634, 1651.322
851.0455, 1681.144
851.5276, 1705.081
852.0097, 1719.633
852.4918, 1724.249
852.9739, 1720.381
853.4561, 1711.763
853.9382, 1694.317
854.4203, 1662.666
854.9024, 1613.461
855.3845, 1557.589
855.8666, 1495.148
856.3488, 1427.370
856.8309, 1355.644
857.3130, 1278.793
857.7951, 1201.073
858.2772, 1122.803
858.7593, 1045.999
859.2415, 971.6362
859.7236, 900.7162
860.2057, 833.2848
860.6878, 769.7000
861.1699, 710.2549
861.6520, 655.2715
862.1342, 603.7881
862.6163, 554.3437
863.0984, 506.9797
863.5805, 464.5959
864.0626, 427.9545
864.5447, 394.8591
865.0269, 364.7252
865.5090, 336.9826
865.9911, 310.3053
866.4732, 284.9820
866.9553, 262.1520
867.4374, 244.0807
867.9196, 227.6503
868.4017, 210.9148
868.8838, 194.0560
869.3659, 179.0938
869.8480, 166.9364
870.3301, 155.4300
870.8123, 143.6829
871.2944, 132.1461
871.7765, 122.3160
872.2586, 114.2072
872.7407, 106.6526
873.2228, 99.13864
873.7050, 92.09921
874.1871, 86.08502
874.6692, 80.90561
875.1513, 76.04425
875.6334, 71.79584
876.1155, 67.34821
876.5977, 62.35236
877.0798, 57.19165
877.5619, 52.47546
878.0440, 48.19513
878.5261, 44.59506
879.0082, 41.78314
879.4904, 39.36008
879.9725, 36.73221
880.4546, 34.06735
880.9367, 31.70193
881.4188, 29.94507
881.9009, 28.00781
882.3831, 25.59131
882.8652, 22.83578
883.3473, 19.94235
883.8294, 16.79663
884.3115, 13.86243
884.7936, 11.20963
885.2758, 8.579651
885.7579, 5.536804
886.2400, 2.353180
886.7221, 0.4071350
887.2042, 2.659210
887.6863, 4.445648
888.1685, 5.509369
888.6506, 6.361786
889.1327, 7.355652
889.6148, 8.542511
890.0969, 9.778809
890.5790, 11.24002
891.0612, 12.36539
891.5433, 12.79605
892.0254, 12.63779
892.5075, 12.04819
892.9896, 11.10355
893.4717, 10.38263
893.9539, 10.76001
894.4360, 11.02188
894.9181, 10.23047
895.4002, 8.515289
895.8823, 6.908875
896.3644, 5.482147
896.8466, 4.184174
897.3287, 3.187592
897.8108, 2.139008
898.2929, 4.8278999E-02
898.7750, 3.239166
899.2571, 6.595886
899.7393, 9.952515
900.2214, 13.12000
900.7035, 15.23300
901.1856, 17.19583
901.6677, 20.49588
902.1498, 27.17743
902.6320, 32.80963
903.1141, 36.61218
903.5962, 39.89996
904.0783, 44.31363
904.5604, 49.83432
905.0425, 55.92206
905.5247, 62.56024
906.0068, 69.37329
906.4889, 76.24673
906.9710, 82.97089
907.4531, 89.17029
907.9352, 94.57227
908.4174, 100.4966
908.8995, 107.0567
909.3816, 114.3048
909.8637, 122.5575
910.3458, 131.8989
910.8279, 139.7071
911.3101, 145.9621
911.7922, 151.6607
912.2743, 157.5367
912.7564, 163.2267
913.2385, 168.6426
913.7206, 173.6340
914.2028, 177.2992
914.6849, 179.3538
915.1670, 179.9692
915.6491, 179.2624
916.1312, 177.1850
916.6133, 173.3770
917.0955, 167.8034
917.5776, 161.4079
918.0597, 154.5446
918.5418, 146.9329
919.0239, 138.1252
919.5060, 128.2831
919.9882, 117.8804
920.4703, 105.6605
920.9524, 94.60706
921.4345, 85.53256
921.9166, 77.65109
922.3987, 70.22540
922.8809, 63.25043
923.3630, 56.03632
923.8451, 48.30515
924.3272, 41.14896
924.8093, 35.84744
925.2914, 31.86752
925.7736, 28.79001
926.2557, 26.63574
926.7378, 24.52264
927.2199, 21.69998
927.7020, 19.34225
928.1841, 18.23233
928.6663, 18.42542
929.1484, 18.06827
929.6305, 17.05203
930.1126, 16.30807
930.5947, 16.72647
931.0768, 17.65921
931.5590, 18.26398
932.0411, 18.55627
932.5232, 18.83704
933.0053, 18.64972
933.4874, 19.13846
933.9695, 20.77679
934.4517, 23.19102
934.9338, 25.53635
935.4159, 27.75676
935.8980, 29.60397
936.3801, 30.89500
936.8622, 32.27811
937.3444, 34.57025
937.8265, 37.39444
938.3086, 40.17999
938.7907, 42.44604
939.2728, 45.28998
939.7549, 49.00624
940.2371, 53.24120
940.7192, 57.88551
941.2013, 62.93834
941.6834, 67.80273
942.1655, 72.42351
942.6476, 77.25436
943.1298, 82.49968
943.6119, 88.20038
944.0940, 94.67723
944.5761, 101.9148
945.0582, 108.7144
945.5403, 114.2910
946.0225, 120.0739
946.5046, 126.4051
946.9867, 133.2597
947.4688, 140.9617
947.9509, 149.3731
948.4330, 157.7444
948.9152, 165.7639
949.3973, 173.7060
949.8794, 181.9278
950.3615, 190.2178
950.8436, 198.2365
951.3257, 205.5716
951.8079, 212.9105
952.2900, 220.3929
952.7721, 227.8209
953.2542, 235.3379
953.7363, 242.7173
954.2184, 248.3463
954.7006, 252.0369
955.1827, 254.2676
955.6648, 255.5266
956.1469, 255.4951
956.6290, 253.8176
957.1111, 250.3415
957.5933, 245.5520
958.0754, 239.5281
958.5575, 232.1147
959.0396, 222.9508
959.5217, 212.5381
960.0038, 202.3380
960.4860, 192.3106
960.9681, 182.2191
961.4502, 172.1653
961.9323, 161.9081
962.4144, 151.1454
962.8965, 140.1431
963.3787, 129.7278
963.8608, 119.7065
964.3429, 110.6478
964.8250, 102.6660
965.3071, 95.33615
965.7892, 88.09476
966.2714, 81.16266
966.7535, 75.02197
967.2356, 69.88225
967.7177, 65.05669
968.1998, 60.49872
968.6819, 55.92728
969.1641, 51.02750
969.6462, 45.63742
970.1283, 41.52234
970.6104, 38.80760
971.0925, 36.30655
971.5746, 33.15651
972.0568, 29.81146
972.5389, 27.17435
973.0210, 25.03435
973.5031, 22.80244
973.9852, 19.95845
974.4673, 17.31168
974.9495, 15.09175
975.4316, 13.19315
975.9137, 11.55875
976.3958, 10.21481
976.8779, 8.857056
977.3600, 7.447693
977.8422, 5.994217
978.3243, 4.292297
978.8064, 2.618790
979.2885, 1.379181
979.7706, 0.6959840
980.2527, 0.1709140
980.7349, 0.2308650
981.2170, 0.5444640
981.6991, 0.7005160
982.1812, 0.7521060
982.6633, 1.149826
983.1454, 1.859772
983.6276, 2.481155
984.1097, 2.889389
984.5918, 3.023575
985.0739, 2.496674
985.5560, 1.665497
986.0381, 1.562042
986.5203, 2.941605
987.0024, 3.479477
987.4845, 2.580658
987.9666, 1.329239
988.4487, 1.552383
988.9308, 2.700775
989.4130, 3.155731
989.8951, 2.586121
990.3772, 1.769165
990.8593, 0.8240660
991.3414, 6.7276001E-02
991.8235, 0.1122890
992.3057, 0.3341220
992.7878, 3.0762000E-02
993.2699, 1.419022
993.7520, 2.309662
994.2341, 1.477066
994.7162, 6.9641002E-02
995.1984, 0.6714780
995.6805, 0.5372160
996.1626, 0.2014310
996.6447, 0.3592070
997.1268, 0.7994230
997.6089, 1.015839
998.0911, 1.108765
998.5732, 1.206863
999.0553, 1.305466
999.5374, 1.378387
1000.020, 1.422455
1000.502, 1.538467
1000.984, 1.914566
1001.466, 2.354568
1001.948, 2.689423
1002.430, 2.903625
1002.912, 2.957474
1003.394, 2.658127
1003.876, 2.579422
1004.359, 2.988373
1004.841, 3.772469
1005.323, 4.894173
1005.805, 6.165108
1006.287, 6.743927
1006.769, 5.607971
1007.251, 4.536194
1007.733, 4.546524
1008.216, 5.149406
1008.698, 5.672462
1009.180, 6.114777
1009.662, 6.395355
1010.144, 6.454948
1010.626, 6.621040
1011.108, 7.437469
1011.590, 8.468994
1012.072, 8.893661
1012.555, 8.711929
1013.037, 8.968437
1013.519, 10.76097
1014.001, 12.17587
1014.483, 12.47959
1014.965, 12.00087
1015.447, 11.77287
1015.929, 11.79204
1016.411, 12.07548
1016.894, 12.69355
1017.376, 13.42056
1017.858, 14.29591
1018.340, 15.04818
1018.822, 15.26089
1019.304, 14.37725
1019.786, 14.35616
1020.268, 15.49078
1020.751, 16.70499
1021.233, 17.02592
1021.715, 16.82420
1022.197, 17.18086
1022.679, 17.99902
1023.161, 18.60162
1023.643, 18.36547
1024.125, 18.15507
1024.607, 18.20619
1025.090, 18.55288
1025.572, 19.40025
1026.054, 20.80344
1026.536, 21.94553
1027.018, 22.69958
1027.500, 23.08613
1027.982, 22.74994
1028.464, 22.26645
1028.947, 22.38712
1029.429, 23.40018
1029.911, 24.09238
1030.393, 24.29506
1030.875, 24.33970
1031.357, 24.32603
1031.839, 24.31207
1032.321, 24.56657
1032.803, 25.02717
1033.286, 25.41786
1033.768, 25.51468
1034.250, 25.61399
1034.732, 25.97762
1035.214, 26.34946
1035.696, 26.26431
1036.178, 25.50135
1036.660, 25.44792
1037.143, 26.28828
1037.625, 27.22048
1038.107, 27.54265
1038.589, 27.49846
1039.071, 27.34307
1039.553, 27.11129
1040.035, 26.85746
1040.517, 26.63351
1041.000, 26.24165
1041.482, 25.60286
1041.964, 24.82854
1042.446, 24.17936
1042.928, 23.66757
1043.410, 23.22438
1043.892, 22.79776
1044.374, 22.24999
1044.856, 21.41517
1045.339, 20.75093
1045.821, 20.73508
1046.303, 21.46128
1046.785, 21.12908
1047.267, 19.66263
1047.749, 18.32001
1048.231, 18.28676
1048.713, 18.60289
1049.195, 17.94887
1049.677, 16.55689
1050.160, 15.19273
1050.642, 13.92361
1051.124, 13.12560
1051.606, 12.92828
1052.088, 12.92657
1052.570, 12.59985
1053.052, 12.05401
1053.534, 11.71039
1054.017, 11.63500
1054.499, 11.36063
1054.981, 10.21343
1055.463, 9.073219
1055.945, 8.590111
1056.427, 8.630585
1056.909, 8.429131
1057.391, 7.960220
1057.874, 7.601730
1058.356, 7.558380
1058.838, 7.541229
1059.320, 7.033859
1059.802, 6.375999
1060.284, 6.069771
1060.766, 6.435181
1061.248, 6.671227
1061.730, 6.847290
1062.213, 6.728584
1062.695, 5.856079
1063.177, 4.579315
1063.659, 4.261246
1064.141, 4.711586
1064.623, 5.069206
1065.105, 4.833496
1065.587, 4.530579
1066.070, 4.320839
1066.552, 4.190361
1067.034, 4.126991
1067.516, 4.126427
1067.998, 4.258629
1068.480, 4.558716
1068.962, 4.753532
1069.444, 4.507500
1069.927, 4.086990
1070.409, 3.661369
1070.891, 3.275131
1071.373, 3.165909
1071.855, 3.448219
1072.337, 3.666725
1072.819, 3.695816
1073.301, 3.552559
1073.783, 3.041039
1074.266, 2.423706
1074.748, 2.315910
1075.230, 3.165825
1075.712, 3.726601
1076.194, 3.393806
1076.676, 2.990105
1077.158, 3.089180
1077.640, 3.606773
1078.122, 3.493034
1078.604, 2.826126
1079.087, 2.259644
1079.569, 2.310890
1080.051, 2.420410
1080.533, 2.070671
1081.015, 1.638039
1081.497, 1.850037
1081.979, 2.933907
1082.461, 3.562881
1082.944, 3.594193
1083.426, 3.482635
1083.908, 3.827980
1084.390, 4.163422
1084.872, 3.769470
1085.354, 2.691711
1085.836, 1.972847
1086.318, 1.824844
1086.801, 1.912827
1087.283, 2.240334
1087.765, 2.636108
1088.247, 2.708969
1088.729, 2.603050
1089.211, 2.751190
1089.693, 3.327179
1090.175, 3.717056
1090.657, 3.518959
1091.140, 3.188530
1091.622, 2.943581
1092.104, 2.782532
1092.586, 2.771111
1093.068, 2.882263
1093.550, 2.787628
1094.032, 2.145103
1094.514, 1.537514
1094.997, 1.434090
1095.479, 1.603142
1095.961, 1.770241
1096.443, 2.066360
1096.925, 1.736092
1097.407, 0.6664510
1097.889, 0.2621460
1098.371, 0.2176590
1098.854, 0.2059630
1099.336, 0.2577820
1099.818, 4.1809000E-02
1100.300, 3.2439999E-02
1100.782, 0.5117950
1101.264, 0.9039230
1101.746, 1.130325
1102.228, 1.258133
1102.710, 1.394630
1103.193, 1.505211
1103.675, 1.498634
1104.157, 1.374992
1104.639, 1.166473
1105.121, 0.6140670
1105.603, 0.3239820
1106.085, 0.6825260
1106.567, 1.367851
1107.049, 1.201614
1107.531, 0.3001100
1108.014, 0.2265850
1108.496, 1.2146000E-02
1108.978, 0.3905260
1109.460, 0.8094330
1109.942, 1.114105
1110.424, 1.048325
1110.906, 0.5658950
1111.388, 0.4694820
1111.871, 0.7767410
1112.353, 1.145370
1112.835, 1.399239
1113.317, 1.690094
1113.799, 2.352196
1114.281, 3.075752
1114.763, 3.357109
1115.245, 2.857742
1115.728, 2.431145
1116.210, 2.012833
1116.692, 1.897430
1117.174, 2.600540
1117.656, 3.640556
1118.138, 4.211487
1118.620, 4.339127
1119.102, 4.207726
1119.584, 3.506332
1120.067, 3.089508
1120.549, 3.141029
1121.031, 3.367378
1121.513, 3.351494
1121.995, 3.186035
1122.477, 3.259506
1122.959, 3.591942
1123.441, 3.664795
1123.924, 2.757729
1124.406, 2.038109
1124.888, 2.033630
1125.370, 2.544250
1125.852, 3.107727
1126.334, 3.712753
1126.816, 4.185081
1127.298, 4.479866
1127.781, 4.640808
1128.263, 4.630867
1128.745, 4.556000
1129.227, 4.511551
1129.709, 4.500160
1130.191, 4.393616
1130.673, 4.178001
1131.155, 4.049576
1131.637, 4.146309
1132.120, 4.245071
1132.602, 4.044922
1133.084, 3.738762
1133.566, 3.613777
1134.048, 3.802269
1134.530, 3.767189
1135.012, 3.471046
1135.494, 3.120506
1135.976, 2.771011
1136.458, 2.481354
1136.941, 2.358017
1137.423, 2.386902
1137.905, 2.520874
1138.387, 2.965958
1138.869, 3.133423
1139.351, 2.881004
1139.833, 2.617348
1140.315, 2.930573
1140.798, 3.464821
1141.280, 3.207573
1141.762, 2.271049
1142.244, 1.606819
1142.726, 1.723663
1143.208, 2.015343
1143.690, 2.440056
1144.172, 2.840714
1144.655, 2.956581
1145.137, 2.839272
1145.619, 2.687866
1146.101, 2.527031
1146.583, 2.309929
1147.065, 1.896103
1147.547, 1.550598
1148.029, 1.398125
1148.511, 1.389000
1148.994, 1.429222
1149.476, 1.505272
1149.958, 1.466415
1150.440, 1.248390
1150.922, 1.061569
1151.404, 1.134933
1151.886, 1.226036
1152.368, 1.124847
1152.851, 0.8594890
1153.333, 0.7575680
1153.815, 0.8197940
1154.297, 0.6245650
1154.779, 0.1817250
1155.261, 0.8745570
1155.743, 0.6409910
1156.225, 9.2930002E-03
1156.708, 0.5504610
1157.190, 0.9893420
1157.672, 0.9667050
1158.154, 0.4305040
1158.636, 9.2841998E-02
1159.118, 0.2797240
1159.600, 0.3342130
1160.082, 0.4463120
1160.564, 0.5943450
1161.047, 0.7666930
1161.529, 1.224350
1162.011, 0.9376220
1162.493, 0.3346020
1162.975, 1.366310
1163.457, 0.8555300
1163.939, 0.2130050
1164.421, 0.5357820
1164.903, 0.2461780
1165.385, 0.2265090
1165.868, 1.315018
1166.350, 1.480759
1166.832, 0.3511350
1167.314, 1.005318
1167.796, 1.512840
1168.278, 1.450371
1168.760, 1.095383
1169.242, 0.5586400
1169.725, 0.3796230
1170.207, 1.278603
1170.689, 1.685890
1171.171, 1.236191
1171.653, 0.4484630
1172.135, 8.1409998E-03
1172.617, 0.2162480
1173.099, 0.3073880
1173.582, 0.3021090
1174.064, 0.4472350
1174.546, 1.005142
1175.028, 1.542366
1175.510, 2.059425
1175.992, 2.342590
1176.474, 1.616150
1176.956, 0.3207470
1177.438, 0.1766130
1177.921, 0.4557340
1178.403, 1.172264
1178.885, 1.638725
1179.367, 1.990463
1179.849, 2.261497
1180.331, 2.473122
1180.813, 2.704453
1181.295, 2.931534
1181.778, 3.033119
1182.260, 2.908615
1182.742, 2.899307
1183.224, 3.216934
1183.706, 3.650093
1184.188, 4.120415
1184.670, 4.602135
1185.152, 4.839462
1185.635, 4.911934
1186.117, 5.273941
1186.599, 6.355576
1187.081, 7.194107
1187.563, 7.210854
1188.045, 6.860756
1188.527, 6.374603
1189.009, 5.795555
1189.491, 5.704292
1189.974, 6.046951
1190.456, 6.431526
1190.938, 6.593163
1191.420, 6.843979
1191.902, 7.786247
1192.384, 8.554306
1192.866, 8.058441
1193.348, 6.235764
1193.830, 5.745361
1194.313, 6.495636
1194.795, 7.294342
1195.277, 7.438141
1195.759, 7.440254
1196.241, 7.589012
1196.723, 7.721176
1197.205, 7.540108
1197.687, 7.022270
1198.169, 7.141014
1198.652, 7.907715
1199.134, 8.423775
1199.616, 7.824249
1200.098, 7.076065
1200.580, 6.609833
1201.062, 6.449631
1201.544, 6.722794
1202.026, 7.438049
1202.509, 7.738167
1202.991, 7.543129
1203.473, 7.313515
1203.955, 7.392838
1204.437, 7.532257
1204.919, 7.606186
1205.401, 7.608650
1205.883, 7.504951
1206.365, 7.288445
1206.848, 7.154533
1207.330, 7.129639
1207.812, 7.215889
1208.294, 7.588326
1208.776, 7.883949
1209.258, 7.751923
1209.740, 7.347862
1210.222, 7.081215
1210.705, 6.948715
1211.187, 6.924950
1211.669, 7.025841
1212.151, 7.050850
1212.633, 6.697685
1213.115, 6.311050
1213.597, 6.186119
1214.079, 6.290176
1214.562, 6.540154
1215.044, 6.927486
1215.526, 7.114990
1216.008, 7.009342
1216.490, 6.776581
1216.972, 6.419201
1217.454, 6.105915
1217.936, 6.059219
1218.418, 6.176239
1218.901, 5.784664
1219.383, 4.911522
1219.865, 4.642979
1220.347, 5.498295
1220.829, 6.205193
1221.311, 5.440727
1221.793, 4.508190
1222.275, 4.498844
1222.757, 5.261539
1223.240, 5.418522
1223.722, 5.016064
1224.204, 4.757206
1224.686, 4.930435
1225.168, 5.110527
1225.650, 5.113869
1226.132, 5.004192
1226.614, 4.894100
1227.096, 4.749802
1227.579, 3.935963
1228.061, 2.545769
1228.543, 1.809643
1229.025, 2.538338
1229.507, 3.337429
1229.989, 3.414650
1230.471, 3.157291
1230.953, 2.753769
1231.436, 2.282120
1231.918, 2.633804
1232.400, 3.636719
1232.882, 4.073421
1233.364, 3.029369
1233.846, 2.104465
1234.328, 2.298382
1234.810, 2.706146
1235.292, 2.621765
1235.775, 2.156242
1236.257, 2.060593
1236.739, 2.257835
1237.221, 2.333050
1237.703, 2.053215
1238.185, 1.699013
1238.667, 1.239784
1239.149, 0.8856620
1239.632, 0.7927470
1240.114, 0.9443970
1240.596, 1.383118
1241.078, 1.994232
1241.560, 2.305412
1242.042, 1.921467
1242.524, 1.447517
1243.006, 0.8333130
1243.489, 0.4429440
1243.971, 0.7330550
1244.453, 1.487785
1244.935, 1.862370
1245.417, 1.890579
1245.899, 1.786106
1246.381, 1.380295
1246.863, 1.260246
1247.345, 1.647163
1247.828, 2.050514
1248.310, 2.052895
1248.792, 1.750404
1249.274, 1.224178
1249.756, 0.6043660
1250.238, 0.3099940
1250.720, 0.8663860
1251.202, 1.190105
1251.684, 1.176838
1252.167, 0.9755740
1252.649, 0.5887220
1253.131, 0.1660960
1253.613, 2.2469001E-02
1254.095, 5.7179998E-03
1254.577, 0.1866070
1255.059, 0.6546590
1255.541, 1.012684
1256.023, 1.271206
1256.506, 1.305351
1256.988, 0.8540230
1257.470, 0.2143550
1257.952, 0.2494510
1258.434, 0.5391620
1258.916, 0.6672400
1259.398, 0.6109090
1259.880, 0.5087050
1260.363, 0.3753280
1260.845, 0.1501580
1261.327, 0.3505130
1261.809, 0.8562430
1262.291, 1.060215
1262.773, 1.048256
1263.255, 1.089989
1263.737, 1.246704
1264.219, 1.126770
1264.702, 0.6682050
1265.184, 0.4701040
1265.666, 1.414478
1266.148, 2.393394
1266.630, 2.431431
1267.112, 1.905769
1267.594, 1.640198
1268.076, 1.640244
1268.559, 1.860542
1269.041, 2.294975
1269.523, 2.602467
1270.005, 2.450668
1270.487, 2.211597
1270.969, 1.958115
1271.451, 1.838341
1271.933, 2.162083
1272.416, 2.871922
1272.898, 3.224205
1273.380, 3.212479
1273.862, 3.113972
1274.344, 3.113056
1274.826, 2.999233
1275.308, 2.593925
1275.790, 2.165905
1276.272, 2.071327
1276.755, 2.265888
1277.237, 2.384590
1277.719, 2.371761
1278.201, 2.258881
1278.683, 2.208572
1279.165, 2.178921
1279.647, 2.077599
1280.129, 1.897038
1280.611, 1.798912
1281.094, 1.853874
1281.576, 1.971481
1282.058, 2.226341
1282.540, 2.226841
1283.022, 1.611832
1283.504, 1.239227
1283.986, 1.236671
1284.468, 1.380455
1284.950, 1.354244
1285.433, 1.245537
1285.915, 1.218437
1286.397, 1.213898
1286.879, 0.9371260
1287.361, 0.1546130
1287.843, 0.1087910
1288.325, 0.9954800
1288.807, 1.898430
1289.290, 1.911270
1289.772, 1.705956
1290.254, 1.999470
1290.736, 2.456478
1291.218, 2.174835
1291.700, 1.098614
1292.182, 0.7317500
1292.664, 1.150463
1293.146, 1.612976
1293.629, 1.612915
1294.111, 1.513302
1294.593, 1.531754
1295.075, 1.329906
1295.557, 1.226620
1296.039, 1.023022
1296.521, 0.8988840
1297.003, 0.8676530
1297.486, 0.9280470
1297.968, 1.389332
1298.450, 1.545105
1298.932, 1.181263
1299.414, 0.6353570
1299.896, 0.2235980
1300.378, 1.6220000E-02
1300.860, 5.1688999E-02
1301.343, 0.1421430
1301.825, 0.0000000E+00
##END=



