##NAMES=Linarite
##RRUFFID=R060130
##IDEAL CHEMISTRY=PbCuSO_4_(OH)_2_
##LOCALITY=Graham County, Arizona, USA
##OWNER=RRUFF
##SOURCE=University of Arizona Mineral Museum
##DESCRIPTION=Azure-blue fragments in quartz
##STATUS=The identification of this mineral has been confirmed by X-ray diffraction and chemical analysis
##URL=rruff.info/R060130
##MEASURED CHEMISTRY=Pb_1.00_Cu_1.00_(S_1.00_O_4_)(OH)_2_
136.0648, 0.0000000E+00
136.5469, 0.3794440
137.0291, 0.1980480
137.5112, 0.1377330
137.9933, 0.8261110
138.4754, 1.517540
138.9575, 2.075165
139.4396, 2.804543
139.9218, 3.662094
140.4039, 4.654686
140.8860, 5.901131
141.3681, 7.389717
141.8502, 9.088379
142.3323, 10.87632
142.8145, 12.63768
143.2966, 14.83963
143.7787, 17.67083
144.2608, 21.13762
144.7429, 24.24496
145.2250, 26.65204
145.7072, 29.04259
146.1893, 32.11678
146.6714, 36.40356
147.1535, 40.56010
147.6356, 44.20476
148.1178, 47.18967
148.5999, 50.55197
149.0820, 54.14542
149.5641, 58.16607
150.0462, 62.82053
150.5283, 68.72140
151.0105, 74.58567
151.4926, 78.68388
151.9747, 81.88284
152.4568, 85.36136
152.9389, 89.34433
153.4210, 93.57024
153.9032, 97.71786
154.3853, 101.7417
154.8674, 105.5823
155.3495, 109.1877
155.8316, 112.5147
156.3137, 115.8078
156.7959, 119.4043
157.2780, 122.9827
157.7601, 125.9193
158.2422, 127.9578
158.7243, 129.4590
159.2065, 130.6477
159.6886, 131.7366
160.1707, 132.2162
160.6528, 131.9744
161.1349, 131.0296
161.6170, 129.4173
162.0992, 127.1187
162.5813, 124.1913
163.0634, 120.6627
163.5455, 116.4437
164.0276, 111.7699
164.5097, 106.6216
164.9919, 101.0584
165.4740, 95.36829
165.9561, 89.46986
166.4382, 83.63689
166.9203, 78.01578
167.4024, 72.63424
167.8846, 67.56631
168.3667, 62.90283
168.8488, 58.68274
169.3309, 54.64377
169.8130, 50.63244
170.2952, 46.97856
170.7773, 43.60324
171.2594, 40.41194
171.7415, 37.35381
172.2236, 34.24949
172.7057, 31.34507
173.1879, 28.77087
173.6700, 26.70760
174.1521, 24.98454
174.6342, 23.30441
175.1163, 21.49637
175.5984, 19.67467
176.0806, 17.96539
176.5627, 16.35735
177.0448, 14.91412
177.5269, 13.79544
178.0090, 12.89980
178.4911, 11.94740
178.9733, 10.74121
179.4554, 9.446007
179.9375, 8.250862
180.4196, 7.159271
180.9017, 6.281223
181.3838, 5.911850
181.8660, 5.913414
182.3481, 5.771168
182.8302, 5.083168
183.3123, 4.103951
183.7944, 3.474392
184.2766, 3.252979
184.7587, 3.117447
185.2408, 2.559490
185.7229, 1.669758
186.2050, 0.9561610
186.6871, 0.7620010
187.1693, 0.9616550
187.6514, 1.136860
188.1335, 1.273785
188.6156, 1.369301
189.0977, 1.418854
189.5798, 1.422031
190.0620, 1.373810
190.5441, 1.269714
191.0262, 1.107727
191.5083, 0.8449630
191.9904, 0.4170610
192.4725, 9.2430003E-03
192.9547, 2.7373999E-02
193.4368, 0.4843250
193.9189, 0.8148190
194.4010, 0.7448460
194.8831, 0.3125650
195.3652, 2.8609999E-03
195.8474, 0.1874310
196.3295, 0.2330210
196.8116, 4.0447000E-02
197.2937, 0.4221080
197.7758, 0.7959400
198.2579, 0.8325350
198.7401, 0.5253330
199.2222, 0.2597430
199.7043, 8.4236003E-02
200.1864, 5.5659998E-02
200.6685, 0.3061260
201.1507, 0.6932530
201.6328, 1.048847
202.1149, 1.199627
202.5970, 1.102272
203.0791, 1.309895
203.5612, 1.987152
204.0434, 2.893211
204.5255, 3.351875
205.0076, 3.296013
205.4897, 3.061169
205.9718, 2.870525
206.4539, 2.768299
206.9361, 2.384609
207.4182, 1.581253
207.9003, 0.5225680
208.3824, 0.2373890
208.8645, 0.5861820
209.3466, 0.9365310
209.8288, 1.555943
210.3109, 2.499836
210.7930, 3.465626
211.2751, 4.432205
211.7572, 5.398457
212.2393, 6.396698
212.7215, 7.443031
213.2036, 8.450783
213.6857, 9.374660
214.1678, 10.22359
214.6499, 10.93971
215.1320, 11.42591
215.6142, 11.79666
216.0963, 12.53448
216.5784, 13.71398
217.0605, 15.08247
217.5426, 16.52625
218.0247, 18.09801
218.5069, 19.56179
218.9890, 20.88326
219.4711, 22.08662
219.9532, 23.26470
220.4353, 24.35815
220.9175, 25.51880
221.3996, 26.90216
221.8817, 28.65895
222.3638, 30.19397
222.8459, 31.33207
223.3280, 32.20255
223.8102, 33.40810
224.2923, 35.16306
224.7744, 36.96084
225.2565, 38.46670
225.7386, 39.58026
226.2207, 40.61191
226.7029, 41.64144
227.1850, 42.62164
227.6671, 43.28726
228.1492, 43.71089
228.6313, 43.72272
229.1134, 43.17843
229.5956, 41.85270
230.0777, 40.45169
230.5598, 38.99776
231.0419, 37.50890
231.5240, 36.02716
232.0062, 34.60889
232.4883, 33.08742
232.9704, 31.32770
233.4525, 29.12143
233.9346, 27.17240
234.4167, 25.63325
234.8989, 24.41187
235.3810, 23.06251
235.8631, 21.39686
236.3452, 19.82343
236.8273, 18.59193
237.3094, 17.94100
237.7916, 17.10259
238.2737, 15.89773
238.7558, 14.45056
239.2379, 13.28469
239.7200, 12.50186
240.2021, 11.88922
240.6843, 11.32951
241.1664, 10.85142
241.6485, 10.33574
242.1306, 9.766022
242.6127, 9.161627
243.0948, 8.599766
243.5770, 8.041973
244.0591, 7.570877
244.5412, 7.251011
245.0233, 7.172684
245.5054, 7.032829
245.9876, 6.799475
246.4697, 6.506083
246.9518, 6.244141
247.4339, 6.035173
247.9160, 5.819580
248.3981, 5.561914
248.8803, 5.198870
249.3624, 4.951885
249.8445, 4.889605
250.3266, 4.922543
250.8087, 4.797203
251.2908, 4.413498
251.7730, 4.039610
252.2551, 3.820204
252.7372, 3.857592
253.2193, 3.756826
253.7014, 3.410128
254.1835, 2.973511
254.6657, 2.850882
255.1478, 3.263021
255.6299, 3.590578
256.1120, 3.525454
256.5941, 2.865707
257.0763, 2.473888
257.5584, 2.436853
258.0405, 2.601433
258.5226, 2.664837
259.0047, 2.576416
259.4868, 2.468813
259.9690, 2.423601
260.4511, 2.495871
260.9332, 2.408995
261.4153, 2.034983
261.8974, 1.543047
262.3795, 1.320669
262.8617, 1.546366
263.3438, 1.729700
263.8259, 1.687771
264.3080, 1.382063
264.7901, 1.090059
265.2722, 0.8337520
265.7544, 0.6298690
266.2365, 0.4714370
266.7186, 0.3253840
267.2007, 0.2039360
267.6828, 0.1174200
268.1649, 6.4804003E-02
268.6471, 2.1280000E-02
269.1292, 2.7245000E-02
269.6113, 4.9011000E-02
270.0934, 1.1000000E-05
270.5755, 0.1318610
271.0576, 0.2924540
271.5398, 0.5011040
272.0219, 0.7533660
272.5040, 0.8168510
272.9861, 0.6221120
273.4682, 0.3901810
273.9503, 0.3778710
274.4325, 0.6313290
274.9146, 0.8556100
275.3967, 1.001694
275.8788, 1.064617
276.3610, 0.9589560
276.8431, 0.6331080
277.3252, 0.3013500
277.8073, 0.1580920
278.2894, 0.2116170
278.7715, 0.3713090
279.2537, 0.6726440
279.7358, 1.055132
280.2179, 1.274157
280.7000, 1.323324
281.1821, 1.238581
281.6642, 0.9654920
282.1464, 0.5019130
282.6285, 0.2233220
283.1106, 0.2328620
283.5927, 0.4296930
284.0748, 0.5607300
284.5569, 0.6248820
285.0391, 0.6311590
285.5212, 0.5515580
286.0033, 0.3968390
286.4854, 0.3077870
286.9675, 0.3233910
287.4496, 0.3792860
287.9318, 0.3102360
288.4139, 0.1127910
288.8960, 2.0607000E-02
289.3781, 9.4981998E-02
289.8602, 0.3960490
290.3423, 0.5501710
290.8245, 0.5099560
291.3066, 0.3653980
291.7887, 0.2377360
292.2708, 0.1263350
292.7529, 3.0819001E-02
293.2350, 4.5605000E-02
293.7172, 0.1059020
294.1993, 0.1612030
294.6814, 0.2168940
295.1635, 0.2477260
295.6456, 0.1851220
296.1277, 5.6116000E-02
296.6099, 2.2890000E-02
297.0920, 6.0265001E-02
297.5741, 0.2184890
298.0562, 0.2645550
298.5383, 0.1884400
299.0204, 9.1311999E-02
299.5026, 8.0565996E-02
299.9847, 0.1289840
300.4668, 0.1649070
300.9489, 0.1637540
301.4311, 0.1314330
301.9132, 6.2159002E-02
302.3953, 4.3030001E-02
302.8774, 0.1425360
303.3595, 0.1823860
303.8416, 0.1969490
304.3238, 0.2523210
304.8059, 0.4150450
305.2880, 0.5815750
305.7701, 0.6006300
306.2522, 0.5008090
306.7343, 0.4558090
307.2165, 0.6297260
307.6986, 0.9077780
308.1807, 1.144554
308.6628, 1.288355
309.1449, 1.410086
309.6270, 1.575010
310.1092, 1.769447
310.5913, 1.943130
311.0734, 2.087410
311.5555, 2.186909
312.0376, 2.192583
312.5197, 2.028385
313.0019, 1.965620
313.4840, 2.256960
313.9661, 2.752443
314.4482, 3.146879
314.9303, 3.304655
315.4124, 3.331032
315.8946, 3.224297
316.3767, 2.925472
316.8588, 2.783302
317.3409, 3.117599
317.8230, 3.647362
318.3051, 4.000715
318.7873, 3.772474
319.2694, 3.597630
319.7515, 3.824234
320.2336, 4.512890
320.7157, 5.059847
321.1978, 5.029234
321.6800, 4.887308
322.1621, 5.055059
322.6442, 6.177250
323.1263, 7.036741
323.6084, 7.158382
324.0905, 6.599876
324.5727, 6.331064
325.0548, 6.894983
325.5369, 7.533360
326.0190, 7.787642
326.5012, 7.088028
326.9833, 6.627485
327.4654, 6.596708
327.9475, 6.907146
328.4296, 7.188354
328.9117, 7.417492
329.3939, 7.635614
329.8760, 7.856796
330.3581, 8.050343
330.8402, 8.280989
331.3223, 8.509661
331.8044, 8.789902
332.2866, 9.248652
332.7687, 10.05147
333.2508, 10.77169
333.7329, 11.25166
334.2150, 11.42405
334.6971, 11.65601
335.1793, 11.92730
335.6614, 12.27912
336.1435, 12.77850
336.6256, 13.48449
337.1077, 14.20458
337.5898, 14.83403
338.0720, 15.39275
338.5541, 16.21912
339.0362, 17.40495
339.5183, 18.66339
340.0004, 19.70768
340.4825, 20.52149
340.9647, 21.31943
341.4468, 22.11285
341.9289, 22.92975
342.4110, 23.95847
342.8931, 25.23390
343.3752, 26.42034
343.8574, 27.21001
344.3395, 27.63739
344.8216, 28.06407
345.3037, 28.45049
345.7858, 28.99898
346.2679, 30.29597
346.7501, 32.28941
347.2322, 34.00367
347.7143, 34.70350
348.1964, 34.71673
348.6785, 35.14301
349.1607, 36.06557
349.6428, 37.22850
350.1249, 38.29132
350.6070, 39.31325
351.0891, 40.56551
351.5713, 42.40370
352.0534, 44.42955
352.5355, 45.98346
353.0176, 47.06699
353.4997, 48.20785
353.9818, 49.95736
354.4640, 51.98864
354.9461, 53.80728
355.4282, 55.14259
355.9103, 56.36393
356.3924, 57.75682
356.8745, 59.29910
357.3567, 60.89679
357.8388, 62.55584
358.3209, 64.24572
358.8030, 65.97290
359.2851, 67.75517
359.7672, 69.50168
360.2494, 71.16589
360.7315, 72.76572
361.2136, 74.31057
361.6957, 75.97997
362.1778, 77.47184
362.6599, 78.69257
363.1421, 79.65366
363.6242, 80.15739
364.1063, 80.10062
364.5884, 79.57130
365.0705, 78.66212
365.5526, 77.44638
366.0348, 75.80166
366.5169, 73.62093
366.9990, 70.92348
367.4811, 68.04073
367.9632, 65.08559
368.4453, 61.88443
368.9275, 58.34385
369.4096, 54.10566
369.8917, 50.04684
370.3738, 46.14333
370.8559, 42.41526
371.3380, 38.98664
371.8202, 35.85017
372.3023, 32.97889
372.7844, 30.42355
373.2665, 28.27972
373.7487, 26.08005
374.2308, 23.70792
374.7129, 21.39818
375.1950, 19.42397
375.6771, 17.79677
376.1592, 16.47280
376.6414, 15.52013
377.1235, 14.89230
377.6056, 14.04971
378.0877, 12.92691
378.5698, 11.78320
379.0519, 10.79374
379.5341, 9.965746
380.0162, 9.342640
380.4983, 8.986202
380.9804, 8.780708
381.4625, 8.457424
381.9446, 8.016386
382.4268, 7.632580
382.9089, 7.492901
383.3910, 7.501505
383.8731, 7.295795
384.3552, 6.808165
384.8373, 6.302799
385.3195, 6.133488
385.8016, 6.208082
386.2837, 6.253218
386.7658, 6.076111
387.2479, 5.837873
387.7300, 5.806242
388.2122, 5.968731
388.6943, 6.031197
389.1764, 5.630243
389.6585, 5.049103
390.1406, 4.662552
390.6227, 4.681391
391.1049, 4.767143
391.5870, 4.707706
392.0691, 4.537148
392.5512, 4.358135
393.0333, 4.220690
393.5154, 4.087959
393.9976, 3.942211
394.4797, 3.788109
394.9618, 3.595779
395.4439, 3.267578
395.9260, 2.920269
396.4081, 2.709753
396.8903, 2.822161
397.3724, 2.921028
397.8545, 2.959326
398.3366, 2.938522
398.8188, 2.725353
399.3009, 2.041306
399.7830, 1.340549
400.2651, 0.9144740
400.7472, 0.9679740
401.2293, 0.9939350
401.7115, 1.000027
402.1936, 0.9595300
402.6757, 0.7627350
403.1578, 0.2662960
403.6399, 0.1391260
404.1220, 0.2371480
404.6042, 5.8262002E-02
405.0863, 0.1493240
405.5684, 1.2910001E-03
406.0505, 0.2965220
406.5326, 0.7077540
407.0147, 1.278687
407.4969, 1.598944
407.9790, 1.478924
408.4611, 1.044044
408.9432, 0.7967910
409.4253, 0.7490540
409.9074, 0.7799420
410.3896, 0.8192140
410.8717, 0.8624130
411.3538, 0.8891940
411.8359, 0.8953000
412.3180, 0.8875310
412.8001, 0.9160610
413.2823, 0.9525510
413.7644, 0.8834740
414.2465, 0.5407350
414.7286, 0.1055530
415.2107, 0.1283990
415.6928, 0.1374870
416.1750, 0.2388650
416.6571, 0.6835100
417.1392, 1.361996
417.6213, 2.143021
418.1034, 2.963123
418.5855, 3.886284
419.0677, 5.020187
419.5498, 6.309677
420.0319, 7.502213
420.5140, 8.407583
420.9961, 9.262737
421.4782, 10.24084
421.9604, 11.45851
422.4425, 12.54091
422.9246, 13.36603
423.4067, 14.01027
423.8889, 14.58898
424.3710, 14.71212
424.8531, 15.19196
425.3352, 16.29616
425.8173, 18.02298
426.2994, 19.67554
426.7816, 21.13858
427.2637, 22.63032
427.7458, 24.28689
428.2279, 26.16637
428.7100, 28.08612
429.1921, 29.87293
429.6743, 31.77925
430.1564, 34.42504
430.6385, 37.97389
431.1206, 41.63239
431.6027, 45.09800
432.0848, 48.40297
432.5670, 51.60867
433.0491, 54.73031
433.5312, 57.73103
434.0133, 61.01436
434.4954, 64.37758
434.9775, 66.50541
435.4597, 67.23426
435.9418, 66.36882
436.4239, 63.17169
436.9060, 57.86011
437.3881, 51.64360
437.8702, 44.62982
438.3524, 37.42555
438.8345, 30.76884
439.3166, 24.68391
439.7987, 19.51040
440.2808, 15.55050
440.7629, 12.66067
441.2451, 10.65425
441.7272, 9.789221
442.2093, 9.483131
442.6914, 9.491629
443.1735, 9.810940
443.6556, 10.44722
444.1378, 11.62125
444.6199, 12.96951
445.1020, 14.26408
445.5841, 15.45493
446.0662, 16.61834
446.5483, 17.85297
447.0305, 19.04804
447.5126, 20.01539
447.9947, 20.45197
448.4768, 21.01589
448.9590, 21.89105
449.4411, 23.08148
449.9232, 24.19461
450.4053, 25.15054
450.8874, 26.15880
451.3695, 27.30129
451.8517, 28.50930
452.3338, 30.21407
452.8159, 32.54747
453.2980, 35.26297
453.7801, 37.89333
454.2622, 40.40118
454.7444, 43.04509
455.2265, 45.90233
455.7086, 48.98296
456.1907, 52.25989
456.6728, 55.78890
457.1549, 59.30985
457.6371, 62.78599
458.1192, 66.12273
458.6013, 69.30764
459.0834, 72.64207
459.5655, 75.19235
460.0476, 76.31750
460.5298, 75.86757
461.0119, 73.38947
461.4940, 67.75900
461.9761, 60.57973
462.4582, 52.70724
462.9403, 44.05235
463.4225, 36.01386
463.9046, 28.94635
464.3867, 22.85411
464.8688, 17.90582
465.3509, 14.68235
465.8330, 11.95556
466.3152, 9.609375
466.7973, 7.611904
467.2794, 5.888103
467.7615, 4.299196
468.2436, 3.085516
468.7257, 2.399935
469.2079, 2.390814
469.6900, 2.253405
470.1721, 1.906044
470.6542, 1.520119
471.1363, 1.277512
471.6184, 1.206293
472.1006, 1.208605
472.5827, 1.293007
473.0648, 1.411924
473.5469, 1.404531
474.0291, 1.251608
474.5112, 1.199120
474.9933, 1.455715
475.4754, 1.945564
475.9575, 2.328730
476.4396, 2.582369
476.9218, 2.815989
477.4039, 3.136858
477.8860, 3.525051
478.3681, 3.939281
478.8502, 4.409863
479.3323, 4.846964
479.8145, 5.106703
480.2966, 5.243258
480.7787, 5.445967
481.2608, 5.835117
481.7429, 6.312828
482.2250, 6.829491
482.7072, 7.390015
483.1893, 7.923330
483.6714, 8.365829
484.1535, 8.787094
484.6356, 9.257301
485.1177, 9.710022
485.5999, 10.30507
486.0820, 11.10386
486.5641, 12.06744
487.0462, 13.09012
487.5283, 14.21377
488.0104, 15.34102
488.4926, 16.40850
488.9747, 17.35976
489.4568, 18.57377
489.9389, 20.06297
490.4210, 21.77410
490.9031, 23.60511
491.3853, 25.54822
491.8674, 27.74338
492.3495, 30.24127
492.8316, 32.97101
493.3137, 35.66608
493.7958, 38.36761
494.2780, 41.46088
494.7601, 45.20937
495.2422, 49.48796
495.7243, 54.06443
496.2064, 58.99574
496.6885, 63.90020
497.1707, 68.52287
497.6528, 73.00187
498.1349, 77.55656
498.6170, 82.28651
499.0992, 87.11784
499.5813, 92.15788
500.0634, 97.28402
500.5455, 102.2942
501.0276, 106.9176
501.5097, 111.5841
501.9919, 116.4744
502.4740, 121.5712
502.9561, 126.9913
503.4382, 133.0013
503.9203, 139.1771
504.4024, 145.2586
504.8846, 150.9393
505.3667, 157.0288
505.8488, 163.6419
506.3309, 170.6134
506.8130, 177.6542
507.2951, 184.8092
507.7773, 191.7866
508.2594, 198.6827
508.7415, 205.2429
509.2236, 210.4612
509.7057, 214.3442
510.1878, 217.0944
510.6700, 219.1328
511.1521, 220.1840
511.6342, 219.5696
512.1163, 217.2750
512.5984, 212.9938
513.0806, 206.0691
513.5627, 196.9272
514.0448, 186.4616
514.5269, 174.2972
515.0090, 161.5868
515.4911, 148.7931
515.9733, 135.9448
516.4554, 123.6095
516.9375, 111.5132
517.4196, 100.2201
517.9017, 90.08617
518.3839, 81.30490
518.8660, 73.27386
519.3481, 66.15993
519.8302, 59.71227
520.3123, 53.80318
520.7944, 48.30952
521.2766, 43.52912
521.7587, 39.65366
522.2408, 36.52184
522.7229, 33.32536
523.2050, 29.96922
523.6871, 26.90138
524.1693, 24.36765
524.6514, 22.38272
525.1335, 20.63558
525.6156, 19.14472
526.0977, 17.73081
526.5798, 16.07983
527.0620, 14.32453
527.5441, 12.92081
528.0262, 12.08147
528.5083, 11.41035
528.9904, 10.45090
529.4725, 9.334530
529.9547, 8.389503
530.4368, 7.886505
530.9189, 7.529163
531.4010, 7.170370
531.8831, 6.794815
532.3652, 6.387699
532.8474, 5.902195
533.3295, 5.404507
533.8116, 4.929462
534.2937, 4.498352
534.7758, 4.068487
535.2579, 3.614639
535.7401, 3.174475
536.2222, 2.819632
536.7043, 2.562157
537.1864, 2.346390
537.6685, 2.159044
538.1506, 2.003550
538.6328, 1.939285
539.1149, 1.989883
539.5970, 1.976698
540.0791, 1.724930
540.5612, 1.299940
541.0433, 1.045256
541.5255, 0.9846710
542.0076, 0.9799750
542.4897, 0.9184970
542.9718, 0.8092020
543.4539, 0.6601680
543.9360, 0.4422820
544.4182, 0.2450900
544.9003, 0.1703050
545.3824, 0.1719260
545.8645, 0.1479660
546.3466, 2.1850999E-02
546.8287, 0.1077080
547.3109, 0.2090890
547.7930, 0.2789440
548.2751, 0.2890820
548.7572, 0.1710050
549.2393, 4.1462000E-02
549.7214, 3.4747999E-02
550.2036, 2.4351001E-02
550.6857, 4.2371999E-02
551.1678, 0.1215530
551.6499, 0.1959460
552.1320, 0.1583040
552.6141, 1.2381000E-02
553.0963, 0.1697460
553.5784, 0.3109050
554.0605, 0.3907010
554.5426, 0.1986050
555.0247, 0.2449550
555.5068, 0.5667170
555.9890, 0.3962760
556.4711, 2.4720000E-03
556.9532, 9.7434998E-02
557.4353, 0.1150890
557.9174, 0.3210390
558.3995, 0.2922870
558.8817, 0.1223760
559.3638, 0.1096380
559.8459, 0.4615550
560.3281, 0.7111260
560.8102, 0.6995600
561.2923, 0.5421780
561.7744, 0.4191130
562.2565, 0.3506720
562.7386, 0.3346630
563.2208, 0.3877530
563.7029, 0.4984160
564.1850, 0.6088910
564.6671, 0.7733520
565.1492, 0.8372230
565.6313, 0.6613720
566.1135, 0.2120290
566.5956, 2.2981999E-02
567.0777, 0.1426840
567.5598, 0.3552930
568.0419, 0.4615780
568.5240, 0.4698100
569.0062, 0.4249730
569.4883, 0.3293570
569.9704, 0.1988680
570.4525, 3.0670001E-03
570.9346, 0.2158770
571.4167, 0.3436080
571.8989, 0.1565010
572.3810, 3.6160001E-03
572.8631, 0.2098320
573.3452, 0.7140160
573.8273, 1.098320
574.3094, 1.123762
574.7916, 1.049067
575.2737, 0.9864180
575.7558, 0.9048440
576.2379, 0.9751440
576.7200, 1.270895
577.2021, 1.658715
577.6843, 2.023075
578.1664, 2.338132
578.6485, 2.717525
579.1306, 3.229597
579.6127, 3.752577
580.0948, 3.997942
580.5770, 3.964348
581.0591, 4.000368
581.5412, 4.263235
582.0233, 4.674529
582.5054, 5.084438
582.9875, 5.488239
583.4697, 5.888184
583.9518, 6.314261
584.4339, 6.716687
584.9160, 6.990324
585.3981, 7.098312
585.8802, 7.334197
586.3624, 7.937687
586.8445, 8.691999
587.3266, 9.396379
587.8087, 9.839005
588.2908, 10.44955
588.7729, 11.45199
589.2551, 12.60580
589.7372, 13.47785
590.2193, 13.84134
590.7014, 14.38151
591.1835, 15.31575
591.6656, 16.55536
592.1478, 17.61596
592.6299, 18.46724
593.1120, 19.29784
593.5941, 20.32757
594.0762, 21.43657
594.5583, 22.20275
595.0405, 22.60646
595.5226, 22.69449
596.0047, 22.40086
596.4868, 21.85019
596.9689, 21.16225
597.4510, 20.23506
597.9332, 19.51384
598.4153, 19.35546
598.8974, 19.54279
599.3795, 19.74096
599.8616, 19.62006
600.3438, 19.77196
600.8259, 20.33855
601.3080, 21.29119
601.7901, 22.56981
602.2722, 24.35460
602.7543, 26.14347
603.2365, 27.73721
603.7186, 29.12913
604.2007, 30.66688
604.6828, 32.31266
605.1649, 34.18024
605.6470, 36.51123
606.1292, 39.16358
606.6113, 41.60217
607.0934, 43.69051
607.5755, 45.76123
608.0576, 48.47937
608.5398, 51.32111
609.0219, 53.36614
609.5040, 54.47362
609.9861, 54.54068
610.4683, 52.97314
610.9504, 50.35952
611.4325, 47.94624
611.9146, 45.61423
612.3967, 44.03479
612.8788, 43.27974
613.3610, 43.34327
613.8431, 44.65050
614.3252, 47.38622
614.8073, 51.02731
615.2894, 55.45783
615.7715, 60.67028
616.2537, 66.53387
616.7358, 73.13199
617.2179, 79.86919
617.7000, 86.05578
618.1821, 91.83739
618.6642, 97.57176
619.1464, 103.4261
619.6285, 109.2380
620.1106, 114.6520
620.5927, 119.9524
621.0748, 125.6102
621.5569, 131.3672
622.0391, 138.0435
622.5212, 146.3368
623.0033, 155.9172
623.4854, 165.7718
623.9675, 175.4088
624.4496, 185.6644
624.9318, 196.7762
625.4139, 208.7295
625.8960, 221.2177
626.3781, 234.3039
626.8602, 247.5392
627.3423, 260.6500
627.8245, 273.6368
628.3066, 286.9882
628.7887, 300.9778
629.2708, 313.6111
629.7529, 324.2684
630.2350, 331.8188
630.7172, 334.1909
631.1993, 331.3096
631.6814, 322.0192
632.1635, 303.3261
632.6456, 278.0950
633.1277, 250.5790
633.6099, 218.6841
634.0920, 188.5139
634.5741, 160.9097
635.0562, 136.4311
635.5383, 115.8079
636.0204, 99.95778
636.5026, 86.59582
636.9847, 75.19507
637.4668, 65.76778
637.9489, 57.94598
638.4310, 51.81945
638.9131, 46.59120
639.3953, 41.67185
639.8774, 37.11959
640.3595, 33.34222
640.8416, 30.34743
641.3237, 27.90090
641.8058, 26.13613
642.2880, 24.70657
642.7701, 23.13216
643.2522, 21.16496
643.7343, 19.39602
644.2164, 18.19258
644.6985, 17.31900
645.1807, 16.47474
645.6628, 15.58547
646.1449, 14.73558
646.6270, 13.88598
647.1091, 13.08838
647.5912, 12.53372
648.0734, 12.33885
648.5555, 12.04273
649.0376, 11.40878
649.5197, 10.56353
650.0018, 10.11796
650.4839, 10.08057
650.9661, 10.06711
651.4482, 9.789106
651.9303, 9.362677
652.4124, 8.989256
652.8945, 8.679661
653.3766, 8.441063
653.8588, 8.335557
654.3409, 8.269415
654.8230, 8.165427
655.3051, 8.013428
655.7872, 7.816976
656.2693, 7.509033
656.7515, 7.194899
657.2336, 6.979288
657.7158, 6.914435
658.1979, 6.843113
658.6800, 6.779340
659.1621, 6.674548
659.6442, 6.396844
660.1263, 5.945297
660.6085, 5.586875
661.0906, 5.420351
661.5727, 5.361183
662.0548, 5.337433
662.5369, 5.317554
663.0190, 5.180913
663.5012, 4.787580
663.9833, 4.311828
664.4654, 3.821370
664.9475, 3.348951
665.4296, 3.034816
665.9117, 3.101345
666.3939, 3.173975
666.8760, 3.033417
667.3581, 2.628295
667.8402, 2.341578
668.3223, 2.167961
668.8044, 2.117064
669.2866, 2.278935
669.7687, 2.673932
670.2508, 2.756491
670.7329, 2.452507
671.2150, 2.036806
671.6971, 1.819043
672.1793, 1.730368
672.6614, 1.588787
673.1435, 1.326114
673.6256, 1.065305
674.1077, 0.8838790
674.5898, 0.7704080
675.0720, 0.7105470
675.5541, 0.7815600
676.0362, 0.8126640
676.5183, 0.6882220
677.0004, 0.4893940
677.4825, 0.4475110
677.9647, 0.6956110
678.4468, 0.8399880
678.9289, 0.7370780
679.4110, 0.4493130
679.8931, 0.2726400
680.3752, 0.2134380
680.8574, 0.1766910
681.3395, 8.9787997E-02
681.8216, 8.4499996E-03
682.3037, 7.7820001E-03
682.7858, 8.3568998E-02
683.2679, 0.1458750
683.7501, 5.6614000E-02
684.2322, 6.8437003E-02
684.7143, 0.1337840
685.1964, 0.1186750
685.6785, 8.9966998E-02
686.1606, 3.9064001E-02
686.6428, 4.7470001E-03
687.1249, 1.3032000E-02
687.6070, 3.9423000E-02
688.0891, 4.2548001E-02
688.5712, 3.7436999E-02
689.0533, 0.1137280
689.5355, 4.4286001E-02
690.0176, 0.1638460
690.4997, 0.2606720
690.9818, 0.1726590
691.4639, 2.8303999E-02
691.9460, 1.8606000E-02
692.4282, 1.1411000E-02
692.9103, 8.3880998E-02
693.3924, 0.2487410
693.8745, 0.3733350
694.3566, 0.3708070
694.8387, 0.2697750
695.3209, 0.1373530
695.8030, 0.1178200
696.2851, 0.2818350
696.7672, 0.2716280
697.2493, 0.1294030
697.7314, 7.1818002E-02
698.2136, 0.1214340
698.6957, 0.1630440
699.1778, 0.1532990
699.6599, 0.1033700
700.1420, 5.5438999E-02
700.6241, 1.2059000E-02
701.1063, 1.6457999E-02
701.5884, 1.2087000E-02
702.0705, 6.8060001E-03
702.5526, 1.4681000E-02
703.0347, 9.7599998E-03
703.5168, 1.0141000E-02
703.9990, 4.4817999E-02
704.4811, 7.3873997E-02
704.9632, 6.1926000E-02
705.4453, 2.6151000E-02
705.9274, 5.7020001E-02
706.4095, 3.5316002E-02
706.8917, 0.1111230
707.3738, 3.0399999E-04
707.8560, 0.3367860
708.3381, 0.4443530
708.8202, 0.2492770
709.3023, 4.1864000E-02
709.7844, 0.1945010
710.2665, 0.2323880
710.7487, 0.2102270
711.2308, 0.1059060
711.7129, 3.6885001E-02
712.1950, 0.1182520
712.6771, 0.2889340
713.1592, 0.4572570
713.6414, 0.6405760
714.1235, 0.7643600
714.6056, 0.7671880
715.0877, 0.7068110
715.5698, 0.7133770
716.0519, 0.8630580
716.5341, 0.8646030
717.0162, 0.5872200
717.4983, 0.1593790
717.9804, 6.6529997E-02
718.4625, 9.6322000E-02
718.9446, 1.6934000E-02
719.4268, 0.3975040
719.9089, 0.8039960
720.3910, 0.9097350
720.8731, 0.7567300
721.3552, 0.5278300
721.8373, 0.1708810
722.3195, 0.1101580
722.8016, 0.1765480
723.2837, 1.9099001E-02
723.7658, 0.1386650
724.2479, 0.3027880
724.7300, 0.4410770
725.2122, 0.5331110
725.6943, 0.5783350
726.1764, 0.6317830
726.6585, 0.7015710
727.1406, 0.7307380
727.6227, 0.6534510
728.1049, 0.5062240
728.5870, 0.3445870
729.0691, 0.1699510
729.5512, 9.0930000E-02
730.0333, 0.2904060
730.5154, 0.5614020
730.9976, 0.7132680
731.4797, 0.7056430
731.9618, 0.6102910
732.4439, 0.2921130
732.9260, 1.9340001E-03
733.4081, 5.5803999E-02
733.8903, 0.2445570
734.3724, 0.3858900
734.8545, 0.3027910
735.3366, 0.1528640
735.8187, 0.1602830
736.3008, 0.2836110
736.7830, 0.3141460
737.2651, 0.1762240
737.7472, 4.1267000E-02
738.2293, 0.1088930
738.7114, 0.2836490
739.1935, 0.4234400
739.6757, 0.4899480
740.1578, 0.5054110
740.6399, 0.4185110
741.1220, 0.3008360
741.6041, 0.2929720
742.0862, 0.5070620
742.5684, 0.5443580
743.0505, 0.2652960
743.5326, 0.1367570
744.0147, 0.1743810
744.4968, 0.1211580
744.9789, 0.3422460
745.4611, 0.3054910
745.9432, 0.1571420
746.4253, 2.0367000E-02
746.9074, 7.8403004E-02
747.3895, 6.0532000E-02
747.8716, 0.3121810
748.3538, 0.5885870
748.8359, 0.4940960
749.3180, 0.1198090
749.8001, 6.7028001E-02
750.2822, 5.9383001E-02
750.7643, 0.1605810
751.2465, 0.1087990
751.7286, 5.0110999E-02
752.2107, 7.3517002E-02
752.6928, 4.7993001E-02
753.1749, 0.1427780
753.6570, 8.1529997E-02
754.1392, 6.0316999E-02
754.6213, 0.1770640
755.1034, 0.2607750
755.5855, 0.2565920
756.0676, 7.4270000E-03
756.5498, 0.2468230
757.0319, 0.2524210
757.5140, 5.1770001E-03
757.9962, 0.1302510
758.4783, 0.1184280
758.9604, 1.9154999E-02
759.4425, 0.1706360
759.9246, 0.4464140
760.4067, 0.6686340
760.8889, 0.8359720
761.3710, 0.9418420
761.8531, 0.9753610
762.3352, 0.9464730
762.8173, 0.8414290
763.2994, 0.6619560
763.7816, 0.5364700
764.2637, 0.6357840
764.7458, 0.7611950
765.2279, 0.7396340
765.7100, 0.4848540
766.1921, 0.3491980
766.6743, 0.4565410
767.1564, 0.6020480
767.6385, 0.6274880
768.1206, 0.5131710
768.6027, 0.4578500
769.0848, 0.4657900
769.5670, 0.5080430
770.0491, 0.5632850
770.5312, 0.6340270
771.0133, 0.7435390
771.4954, 0.9014650
771.9775, 1.012072
772.4597, 0.9832220
772.9418, 0.8990160
773.4239, 0.8236560
773.9060, 0.7480560
774.3881, 0.7343670
774.8702, 0.8110690
775.3524, 0.9154380
775.8345, 1.007071
776.3166, 1.093718
776.7987, 1.106794
777.2808, 1.025605
777.7629, 0.9342990
778.2451, 0.9322920
778.7272, 0.9834130
779.2093, 1.014355
779.6914, 1.006465
780.1735, 0.9902000
780.6556, 0.9979100
781.1378, 1.016188
781.6199, 1.016415
782.1020, 0.9988940
782.5841, 0.9451340
783.0662, 0.8167890
783.5483, 0.6942630
784.0305, 0.6733240
784.5126, 0.7568480
784.9947, 0.8612190
785.4768, 0.9861670
785.9589, 1.084654
786.4410, 1.091241
786.9232, 1.034609
787.4053, 0.9588780
787.8874, 0.8557930
788.3695, 0.7922250
788.8516, 0.7909910
789.3337, 0.8481730
789.8159, 0.9696490
790.2980, 1.290041
790.7801, 1.408884
791.2622, 1.223269
791.7443, 0.9580940
792.2264, 0.9195620
792.7086, 1.092235
793.1907, 1.237517
793.6728, 1.316092
794.1549, 1.368801
794.6370, 1.432693
795.1191, 1.504040
795.6013, 1.581733
796.0834, 1.683170
796.5655, 1.757765
797.0476, 1.769291
797.5297, 1.752722
798.0118, 1.752305
798.4940, 1.779419
798.9761, 1.789504
799.4582, 1.761113
799.9403, 1.749373
800.4224, 1.838361
800.9045, 2.014262
801.3867, 2.195042
801.8688, 2.366418
802.3509, 2.556362
802.8330, 2.833361
803.3151, 3.115459
803.7972, 3.280251
804.2794, 3.206726
804.7615, 3.165092
805.2436, 3.196851
805.7258, 3.303467
806.2079, 3.514063
806.6900, 3.892930
807.1721, 4.100901
807.6542, 4.061432
808.1364, 3.954477
808.6185, 3.997540
809.1006, 4.163543
809.5827, 4.395679
810.0648, 4.717800
810.5469, 4.983676
811.0291, 5.056843
811.5112, 5.021424
811.9933, 4.975982
812.4754, 4.954483
812.9575, 4.891435
813.4396, 4.738337
813.9218, 4.599384
814.4039, 4.622734
814.8860, 4.827898
815.3681, 4.842844
815.8502, 4.589124
816.3323, 4.299670
816.8145, 4.326773
817.2966, 4.488237
817.7787, 4.440617
818.2608, 4.047657
818.7429, 3.643159
819.2250, 3.364520
819.7072, 3.164002
820.1893, 3.001061
820.6714, 2.897900
821.1535, 2.774112
821.6356, 2.617003
822.1177, 2.461334
822.5999, 2.355015
823.0820, 2.289019
823.5641, 2.204492
824.0462, 2.093780
824.5283, 1.967051
825.0104, 1.767632
825.4926, 1.591025
825.9747, 1.575624
826.4568, 1.813721
826.9389, 1.981820
827.4210, 1.977564
827.9031, 1.899948
828.3853, 1.794331
828.8674, 1.638793
829.3495, 1.589082
829.8316, 1.673827
830.3137, 1.744405
830.7958, 1.618477
831.2780, 1.381310
831.7601, 1.185740
832.2422, 1.046791
832.7243, 1.033895
833.2064, 1.402029
833.6885, 1.764500
834.1707, 1.779133
834.6528, 1.277920
835.1349, 1.014675
835.6170, 1.084369
836.0991, 1.218092
836.5812, 1.231788
837.0634, 1.139773
837.5455, 1.195725
838.0276, 1.406852
838.5097, 1.552342
838.9918, 1.344816
839.4739, 1.045676
839.9561, 0.9695600
840.4382, 1.135797
840.9203, 1.281504
841.4024, 1.284915
841.8845, 1.290799
842.3666, 1.370923
842.8488, 1.514287
843.3309, 1.642963
843.8130, 1.760337
844.2951, 1.804379
844.7772, 1.704290
845.2593, 1.536547
845.7415, 1.442758
846.2236, 1.429911
846.7057, 1.503505
847.1878, 1.707755
847.6699, 1.900702
848.1520, 2.031248
848.6342, 2.116816
849.1163, 2.163345
849.5984, 2.111232
850.0805, 2.096030
850.5626, 2.188389
851.0447, 2.362412
851.5269, 2.465389
852.0090, 2.490173
852.4911, 2.490318
852.9732, 2.493309
853.4553, 2.504795
853.9374, 2.522901
854.4196, 2.583053
854.9017, 2.707311
855.3839, 2.965726
855.8660, 3.116446
856.3481, 3.101450
856.8302, 2.982807
857.3123, 2.855924
857.7944, 2.715332
858.2766, 2.642159
858.7587, 2.674606
859.2408, 2.761189
859.7229, 2.795831
860.2050, 2.807275
860.6871, 2.870811
861.1693, 3.088546
861.6514, 3.248155
862.1335, 3.225716
862.6156, 3.114230
863.0977, 3.032323
863.5798, 2.957701
864.0620, 2.995203
864.5441, 3.194478
865.0262, 3.410223
865.5083, 3.447921
865.9904, 3.351590
866.4725, 3.257542
866.9547, 3.186380
867.4368, 3.135488
867.9189, 3.086537
868.4010, 3.068133
868.8831, 3.124624
869.3652, 3.352739
869.8474, 3.397805
870.3295, 3.159255
870.8116, 2.898660
871.2937, 2.833405
871.7758, 2.945795
872.2579, 3.042479
872.7401, 3.118972
873.2222, 3.163698
873.7043, 3.152297
874.1864, 3.115219
874.6685, 3.097343
875.1506, 3.102426
875.6328, 3.038318
876.1149, 2.787030
876.5970, 2.567440
877.0791, 2.481919
877.5612, 2.510925
878.0433, 2.431108
878.5255, 2.236960
879.0076, 2.083489
879.4897, 2.126695
879.9718, 2.223237
880.4539, 2.129278
880.9360, 1.905932
881.4182, 1.764286
881.9003, 1.924793
882.3824, 2.033786
882.8645, 1.917112
883.3466, 1.668305
883.8287, 1.526761
884.3109, 1.510934
884.7930, 1.490630
885.2751, 1.418813
885.7572, 1.349489
886.2393, 1.413881
886.7214, 1.551078
887.2036, 1.608761
887.6857, 1.503230
888.1678, 1.361385
888.6499, 1.200247
889.1320, 1.052125
889.6141, 0.9593550
890.0963, 0.9381620
890.5784, 0.9494650
891.0605, 1.028845
891.5426, 1.046900
892.0247, 0.7476130
892.5068, 0.2684590
892.9890, 3.4942001E-02
893.4711, 0.1235820
893.9532, 0.3058320
894.4353, 0.5408310
894.9174, 0.7242740
895.3995, 0.7371480
895.8817, 0.4984640
896.3638, 0.4383820
896.8459, 0.6528510
897.3280, 0.8462980
897.8101, 0.8231830
898.2922, 0.6154650
898.7744, 0.3565230
899.2565, 5.6534000E-02
899.7386, 0.1733780
900.2207, 0.2500930
900.7028, 0.2421110
901.1849, 0.1464350
901.6671, 9.3470002E-03
902.1492, 5.3339001E-02
902.6313, 6.1283000E-02
903.1134, 0.2453580
903.5955, 0.5397920
904.0776, 0.8436960
904.5598, 0.8027150
905.0419, 0.4668050
905.5240, 0.2429600
906.0062, 0.3525870
906.4883, 0.5168400
906.9704, 0.4580550
907.4525, 0.2921640
907.9346, 0.2052690
908.4167, 0.3925190
908.8989, 0.4432290
909.3810, 0.2682310
909.8631, 2.2399999E-02
910.3452, 0.1426770
910.8273, 0.2206810
911.3094, 4.1177001E-02
911.7916, 0.4573240
912.2737, 0.8720590
912.7558, 0.7370410
913.2379, 0.3707750
913.7200, 0.1092360
914.2021, 1.8796001E-02
914.6843, 6.0913999E-02
915.1664, 0.2038510
915.6485, 0.2802660
916.1306, 0.1816570
916.6127, 7.4251004E-02
917.0948, 0.1920800
917.5770, 0.1715390
918.0591, 3.6718000E-02
918.5412, 0.3270450
919.0233, 0.7022950
919.5054, 0.8446580
919.9875, 0.7884780
920.4697, 0.7094830
920.9518, 0.6728320
921.4339, 0.5910210
921.9160, 0.4144540
922.3981, 0.1985530
922.8802, 8.4930003E-02
923.3624, 7.1906999E-02
923.8445, 8.8492997E-02
924.3266, 0.1048000
924.8087, 0.1675040
925.2908, 0.3915310
925.7729, 0.6741170
926.2551, 0.8652860
926.7372, 0.8737700
927.2193, 0.8785910
927.7014, 0.8602000
928.1835, 0.8908800
928.6656, 1.070043
929.1478, 1.396811
929.6299, 1.607066
930.1120, 1.680041
930.5941, 1.745929
931.0762, 1.944230
931.5583, 2.175837
932.0405, 2.316182
932.5226, 2.353169
933.0047, 2.457009
933.4868, 2.707574
933.9689, 2.979689
934.4510, 3.229360
934.9332, 3.465246
935.4153, 3.681286
935.8974, 3.886232
936.3795, 4.233959
936.8616, 4.934451
937.3438, 5.648335
937.8259, 5.949413
938.3080, 6.021416
938.7901, 6.222938
939.2722, 6.748543
939.7543, 7.280124
940.2365, 7.737556
940.7186, 8.229439
941.2007, 8.933486
941.6828, 9.828061
942.1649, 10.62900
942.6470, 11.28884
943.1292, 11.99010
943.6113, 12.90148
944.0934, 13.93358
944.5755, 14.99562
945.0576, 16.03791
945.5397, 17.33275
946.0219, 18.99628
946.5040, 20.72330
946.9861, 22.24771
947.4682, 23.70436
947.9503, 25.75451
948.4324, 28.38241
948.9146, 31.40300
949.3967, 34.50401
949.8788, 38.14034
950.3609, 42.56185
950.8430, 47.80287
951.3251, 53.88983
951.8073, 60.63287
952.2894, 68.50756
952.7715, 77.52927
953.2536, 87.78880
953.7357, 99.66180
954.2179, 112.9419
954.7000, 126.9686
955.1821, 141.5924
955.6642, 156.3295
956.1464, 170.8696
956.6285, 185.2850
957.1106, 199.8008
957.5927, 214.4697
958.0748, 228.8985
958.5569, 242.6333
959.0391, 257.5465
959.5212, 274.7148
960.0033, 294.0376
960.4854, 314.9200
960.9675, 337.5573
961.4496, 362.3822
961.9318, 390.3160
962.4139, 420.2130
962.8960, 452.1715
963.3781, 485.3455
963.8602, 518.5894
964.3423, 552.5424
964.8245, 583.3477
965.3066, 611.5046
965.7887, 633.1094
966.2708, 645.2423
966.7529, 646.3060
967.2350, 632.3919
967.7172, 601.1102
968.1993, 560.1187
968.6814, 505.0565
969.1635, 446.6883
969.6456, 390.7357
970.1277, 337.1722
970.6099, 289.6414
971.0920, 248.3297
971.5741, 212.5659
972.0562, 182.9735
972.5383, 158.5919
973.0204, 138.7651
973.5026, 123.0432
973.9847, 109.3888
974.4668, 97.63361
974.9489, 87.46401
975.4310, 78.89631
975.9131, 71.65153
976.3953, 65.18723
976.8774, 59.43703
977.3595, 54.32114
977.8416, 49.87885
978.3237, 46.02305
978.8058, 42.84182
979.2880, 40.08496
979.7701, 37.47058
980.2522, 34.94186
980.7343, 32.64968
981.2164, 30.63590
981.6985, 28.73729
982.1807, 26.78254
982.6628, 24.83803
983.1449, 23.21292
983.6270, 21.88444
984.1091, 20.71263
984.5912, 19.61485
985.0734, 18.65416
985.5555, 17.92805
986.0376, 17.35471
986.5197, 16.69428
987.0018, 15.88891
987.4839, 15.19894
987.9661, 14.68528
988.4482, 14.23739
988.9303, 13.72315
989.4124, 13.16653
989.8945, 12.60394
990.3766, 12.03397
990.8588, 11.51652
991.3409, 11.07014
991.8230, 10.69473
992.3051, 10.39516
992.7872, 10.17274
993.2693, 9.956381
993.7515, 9.746143
994.2336, 9.538174
994.7157, 9.370661
995.1978, 9.167446
995.6799, 8.733845
996.1620, 8.200006
996.6442, 7.874100
997.1263, 8.064249
997.6084, 8.165499
998.0905, 8.137592
998.5726, 7.976954
999.0547, 7.599503
999.5369, 7.056732
1000.019, 6.707476
1000.501, 6.600733
1000.983, 6.524166
1001.465, 6.328030
1001.947, 6.096750
1002.430, 5.909845
1002.912, 5.769480
1003.394, 5.528625
1003.876, 5.116535
1004.358, 4.836309
1004.840, 4.866333
1005.322, 5.027248
1005.804, 4.944321
1006.287, 4.702358
1006.769, 4.512747
1007.251, 4.526453
1007.733, 4.489994
1008.215, 4.193501
1008.697, 3.908453
1009.179, 3.911852
1009.661, 4.243328
1010.143, 4.442719
1010.626, 4.497152
1011.108, 4.464113
1011.590, 4.365257
1012.072, 4.226099
1012.554, 3.989971
1013.036, 3.698711
1013.518, 3.675617
1014.000, 4.257090
1014.483, 4.590202
1014.965, 4.394310
1015.447, 3.939861
1015.929, 3.771072
1016.411, 3.821518
1016.893, 3.866625
1017.375, 3.876223
1017.857, 3.775030
1018.339, 3.392986
1018.822, 2.967913
1019.304, 2.725233
1019.786, 2.702461
1020.268, 2.554956
1020.750, 2.259386
1021.232, 1.985889
1021.714, 1.888756
1022.196, 1.850597
1022.679, 1.670343
1023.161, 1.395639
1023.643, 1.165356
1024.125, 1.040258
1024.607, 0.9495030
1025.089, 0.8818300
1025.571, 0.8392240
1026.053, 0.8516270
1026.535, 0.9038370
1027.018, 0.8510970
1027.500, 0.6697730
1027.982, 0.5102460
1028.464, 0.5255490
1028.946, 0.5790920
1029.428, 0.5428580
1029.910, 0.4138530
1030.392, 0.4144990
1030.875, 0.6090580
1031.357, 0.6820390
1031.839, 0.4526500
1032.321, 0.1446250
1032.803, 0.2128830
1033.285, 0.5006980
1033.767, 0.6720100
1034.249, 0.5540010
1034.731, 0.4498790
1035.214, 0.4250510
1035.696, 0.4473510
1036.178, 0.5213970
1036.660, 0.6453380
1037.142, 0.6112860
1037.624, 0.4294820
1038.106, 0.3630730
1038.588, 0.7503510
1039.071, 1.174444
1039.553, 1.287031
1040.035, 1.173038
1040.517, 1.155006
1040.999, 1.275362
1041.481, 1.413799
1041.963, 1.547794
1042.445, 1.712017
1042.927, 2.060751
1043.410, 2.442556
1043.892, 2.491196
1044.374, 2.113991
1044.856, 1.895090
1045.338, 2.261356
1045.820, 2.612452
1046.302, 2.670010
1046.784, 2.496023
1047.266, 2.397322
1047.749, 2.370104
1048.231, 2.388414
1048.713, 2.478271
1049.195, 2.544764
1049.677, 2.498318
1050.159, 2.389662
1050.641, 2.286572
1051.123, 2.201618
1051.606, 2.106091
1052.088, 1.997618
1052.570, 1.887758
1053.052, 1.807093
1053.534, 1.718880
1054.016, 1.533928
1054.498, 1.271040
1054.980, 1.024321
1055.463, 0.8650890
1055.945, 0.6755540
1056.427, 0.3941400
1056.909, 0.1053500
1057.391, 3.4715999E-02
1057.873, 4.3093000E-02
1058.355, 5.3915001E-02
1058.837, 8.7076001E-02
1059.319, 0.1279090
1059.802, 0.1826550
1060.284, 0.2247560
1060.766, 0.2019290
1061.248, 0.1240690
1061.730, 0.1810550
1062.212, 0.4006840
1062.694, 0.6159930
1063.176, 0.7786250
1063.658, 0.8803620
1064.141, 0.8783820
1064.623, 0.8182300
1065.105, 0.7878490
1065.587, 0.8916030
1066.069, 0.8238540
1066.551, 0.4528450
1067.033, 7.8153998E-02
1067.515, 5.4683998E-02
1067.998, 3.5000001E-03
1068.480, 7.5911999E-02
1068.962, 0.2528000
1069.444, 0.4285280
1069.926, 0.5025220
1070.408, 0.6081350
1070.890, 0.8675590
1071.372, 1.168076
1071.854, 1.310749
1072.337, 1.266760
1072.819, 1.380795
1073.301, 1.707233
1073.783, 1.995918
1074.265, 1.950983
1074.747, 1.794197
1075.229, 1.683638
1075.711, 1.648550
1076.193, 1.871731
1076.676, 2.518188
1077.158, 3.005058
1077.640, 3.138256
1078.122, 3.104328
1078.604, 3.216497
1079.086, 3.410910
1079.568, 3.565994
1080.051, 3.669653
1080.533, 3.672543
1081.015, 3.334929
1081.497, 3.133566
1081.979, 3.410250
1082.461, 4.042076
1082.943, 4.165117
1083.425, 3.851009
1083.907, 3.633101
1084.390, 3.855221
1084.872, 4.117199
1085.354, 4.196558
1085.836, 4.149940
1086.318, 4.069521
1086.800, 3.987480
1087.282, 3.690887
1087.764, 3.136761
1088.246, 2.684214
1088.729, 2.734632
1089.211, 2.956848
1089.693, 3.006086
1090.175, 2.889563
1090.657, 2.676615
1091.139, 2.288671
1091.621, 1.987177
1092.103, 1.832453
1092.586, 1.720102
1093.068, 1.446491
1093.550, 1.122845
1094.032, 1.058372
1094.514, 1.289455
1094.996, 1.425283
1095.478, 1.188343
1095.960, 0.9407410
1096.443, 0.8042870
1096.925, 0.7651290
1097.407, 0.8224510
1097.889, 0.9536930
1098.371, 0.9864880
1098.853, 0.8548450
1099.335, 0.6888870
1099.817, 0.5077920
1100.299, 0.4045070
1100.781, 0.4679620
1101.264, 0.6903590
1101.746, 0.7400020
1102.228, 0.6013950
1102.710, 0.5097100
1103.192, 0.6264950
1103.674, 0.8038770
1104.156, 0.8810830
1104.638, 0.8672520
1105.121, 0.7829630
1105.603, 0.5514280
1106.085, 0.4211900
1106.567, 0.4024160
1107.049, 0.4643590
1107.531, 0.6283450
1108.013, 0.8271200
1108.495, 0.9327010
1108.978, 0.9589790
1109.460, 0.9527820
1109.942, 0.8634700
1110.424, 0.8313980
1110.906, 0.8842790
1111.388, 1.000578
1111.870, 1.183310
1112.352, 1.409756
1112.834, 1.565731
1113.317, 1.640270
1113.799, 1.727932
1114.281, 1.936199
1114.763, 2.114155
1115.245, 2.135906
1115.727, 2.089050
1116.209, 2.205805
1116.691, 2.485353
1117.173, 2.789606
1117.656, 3.087459
1118.138, 3.369265
1118.620, 3.580083
1119.102, 3.819704
1119.584, 4.196568
1120.066, 4.703109
1120.548, 5.152133
1121.030, 5.560274
1121.513, 5.931953
1121.995, 6.234108
1122.477, 6.538423
1122.959, 6.849781
1123.441, 7.256363
1123.923, 7.934223
1124.405, 9.092115
1124.887, 10.00433
1125.370, 10.54213
1125.852, 11.11575
1126.334, 11.97962
1126.816, 13.04112
1127.298, 14.16746
1127.780, 15.33414
1128.262, 16.46474
1128.744, 17.42129
1129.226, 18.50791
1129.709, 19.80716
1130.191, 21.15209
1130.673, 22.37737
1131.155, 23.53442
1131.637, 24.84875
1132.119, 26.32195
1132.601, 27.92885
1133.083, 29.86584
1133.566, 31.67757
1134.048, 33.13026
1134.530, 34.45547
1135.012, 36.00348
1135.494, 37.73639
1135.976, 39.28955
1136.458, 40.62851
1136.940, 41.77233
1137.422, 42.76896
1137.905, 43.55675
1138.387, 44.12675
1138.869, 44.46021
1139.351, 44.48526
1139.833, 44.20369
1140.315, 43.52953
1140.797, 42.45359
1141.279, 40.94607
1141.761, 38.71723
1142.244, 36.23892
1142.726, 33.89961
1143.208, 31.71672
1143.690, 29.29316
1144.172, 26.57957
1144.654, 24.04750
1145.136, 21.90849
1145.618, 19.95107
1146.101, 17.94783
1146.583, 16.01432
1147.065, 14.26918
1147.547, 12.76583
1148.029, 11.39942
1148.511, 10.18726
1148.993, 9.050878
1149.475, 7.913897
1149.958, 6.887217
1150.440, 6.180770
1150.922, 5.714873
1151.404, 5.351891
1151.886, 5.146090
1152.368, 4.813948
1152.850, 4.306226
1153.332, 3.747756
1153.814, 3.198350
1154.297, 2.663605
1154.779, 2.130140
1155.261, 1.618825
1155.743, 1.213424
1156.225, 1.072618
1156.707, 0.8248890
1157.189, 0.2959080
1157.671, 0.1514890
1158.153, 0.1331510
1158.636, 0.2257090
1159.118, 0.4619920
1159.600, 0.5653270
1160.082, 0.5310840
1160.564, 0.1630330
1161.046, 8.7865002E-02
1161.528, 4.9299002E-02
1162.010, 0.1030170
1162.493, 0.1916360
1162.975, 0.2187500
1163.457, 0.1797180
1163.939, 8.1706002E-02
1164.421, 9.2120003E-03
1164.903, 5.9443001E-02
1165.385, 8.9987002E-02
1165.867, 7.6799998E-03
1166.349, 0.1339520
1166.832, 9.2593998E-02
1167.314, 9.8112002E-02
1167.796, 0.1946040
1168.278, 0.1699170
1168.760, 9.4071999E-02
1169.242, 7.8463003E-02
1169.724, 0.1971480
1170.206, 0.1096800
1170.688, 8.5262001E-02
1171.171, 0.1349980
1171.653, 4.3637000E-02
1172.135, 9.2150001E-03
1172.617, 7.8403004E-02
1173.099, 0.1204580
1173.581, 4.8893999E-02
1174.063, 0.2246240
1174.545, 0.2297800
1175.028, 9.5390998E-02
1175.510, 4.3586001E-02
1175.992, 0.1899790
1176.474, 0.3350120
1176.956, 0.5043160
1177.438, 0.5484130
1177.920, 0.1305100
1178.402, 0.3291710
1178.885, 0.3931710
1179.367, 6.4828999E-02
1179.849, 0.1949980
1180.331, 0.3908240
1180.813, 0.4674460
1181.295, 0.3681400
1181.777, 0.2428060
1182.259, 0.2345270
1182.741, 0.2936990
1183.224, 0.3959280
1183.706, 0.5529850
1184.188, 0.5339820
1184.670, 0.3048280
1185.152, 0.1226270
1185.634, 0.1049250
1186.116, 0.1865350
1186.598, 0.3445080
1187.081, 0.5318090
1187.563, 0.6907810
1188.045, 0.8277240
1188.527, 0.8564430
1189.009, 0.7552460
1189.491, 0.6731590
1189.973, 0.6758000
1190.455, 0.7586070
1190.938, 1.082158
1191.420, 1.422256
1191.902, 1.375183
1192.384, 0.6786450
1192.866, 0.1824540
1193.348, 0.1110420
1193.830, 0.2174700
1194.312, 7.5280003E-02
1194.794, 0.1842260
1195.276, 0.4760400
1195.759, 0.7379600
1196.241, 0.8241350
1196.723, 0.5831980
1197.205, 0.4860820
1197.687, 0.5589640
1198.169, 0.6828430
1198.651, 0.8318770
1199.133, 0.9290950
1199.616, 0.7868130
1200.098, 0.5173130
1200.580, 0.4174030
1201.062, 0.6581460
1201.544, 0.7582110
1202.026, 0.6730590
1202.508, 0.5406420
1202.990, 0.4503920
1203.473, 0.4067470
1203.955, 0.4269940
1204.437, 0.4983850
1204.919, 0.5875950
1205.401, 0.7515940
1205.883, 0.7487680
1206.365, 0.5082820
1206.847, 0.3145080
1207.329, 0.5107980
1207.812, 0.8604240
1208.294, 1.090844
1208.776, 1.205849
1209.258, 1.265001
1209.740, 1.256562
1210.222, 1.251291
1210.704, 1.246876
1211.186, 1.285058
1211.668, 1.394036
1212.151, 1.579268
1212.633, 1.979934
1213.115, 2.503297
1213.597, 2.568505
1214.079, 1.928254
1214.561, 1.496757
1215.043, 1.417760
1215.525, 1.477355
1216.008, 1.578547
1216.490, 1.660326
1216.972, 1.549746
1217.454, 1.290280
1217.936, 1.247572
1218.418, 1.504810
1218.900, 1.725306
1219.382, 1.869947
1219.865, 1.982847
1220.347, 2.153161
1220.829, 2.273760
1221.311, 2.196571
1221.793, 1.929457
1222.275, 1.654326
1222.757, 1.356056
1223.239, 1.184587
1223.721, 1.175345
1224.203, 1.235672
1224.686, 1.398575
1225.168, 1.508687
1225.650, 1.314220
1226.132, 0.8391920
1226.614, 0.5759790
1227.096, 0.5506130
1227.578, 0.5919540
1228.061, 0.6956650
1228.543, 0.7782480
1229.025, 0.7021330
1229.507, 0.5784340
1229.989, 0.4990910
1230.471, 0.4827400
1230.953, 0.5701740
1231.435, 0.7724010
1231.917, 0.8905850
1232.400, 0.8881950
1232.882, 0.8222840
1233.364, 0.6655850
1233.846, 0.5217040
1234.328, 0.5041490
1234.810, 0.5925870
1235.292, 0.6457020
1235.774, 0.6612220
1236.256, 0.6452290
1236.739, 0.6308470
1237.221, 0.6598140
1237.703, 0.7909840
1238.185, 0.9082880
1238.667, 0.8947900
1239.149, 0.7831560
1239.631, 0.7252880
1240.113, 0.7217430
1240.596, 0.6775560
1241.078, 0.5507860
1241.560, 0.4947820
1242.042, 0.6784530
1242.524, 0.9180960
1243.006, 1.126019
1243.488, 1.282439
1243.970, 1.267948
1244.453, 1.105792
1244.935, 0.9747060
1245.417, 0.8943260
1245.899, 0.8798090
1246.381, 1.015329
1246.863, 1.144376
1247.345, 1.162462
1247.827, 1.077725
1248.309, 1.069787
1248.792, 1.172721
1249.274, 1.225869
1249.756, 1.159059
1250.238, 1.120592
1250.720, 1.223196
1251.202, 1.314377
1251.684, 1.357864
1252.166, 1.345553
1252.648, 1.143300
1253.131, 0.8387780
1253.613, 0.7066830
1254.095, 0.8322990
1254.577, 0.9194620
1255.059, 0.8974470
1255.541, 0.8545660
1256.023, 0.7955350
1256.505, 0.7429400
1256.988, 0.7809260
1257.470, 0.8509850
1257.952, 0.8079470
1258.434, 0.6031490
1258.916, 0.4807860
1259.398, 0.5077930
1259.880, 0.5415390
1260.362, 0.5271020
1260.844, 0.5114160
1261.327, 0.5841960
1261.809, 0.7010230
1262.291, 0.8219000
1262.773, 0.9477040
1263.255, 0.8976470
1263.737, 0.5938280
1264.219, 0.3714000
1264.701, 0.3358730
1265.183, 0.4145360
1265.666, 0.5898080
1266.148, 0.7413560
1266.630, 0.6965710
1267.112, 0.4478420
1267.594, 0.4319930
1268.076, 0.6851690
1268.558, 0.7922440
1269.040, 0.5987220
1269.523, 0.3723850
1270.005, 0.4200970
1270.487, 0.5269460
1270.969, 0.4463530
1271.451, 0.2244800
1271.933, 0.1441180
1272.415, 0.2172820
1272.897, 0.3782140
1273.380, 0.6416860
1273.862, 0.7942600
1274.344, 0.5222060
1274.826, 0.2449660
1275.308, 0.2670510
1275.790, 0.4778440
1276.272, 0.5045620
1276.754, 0.3797850
1277.236, 0.2746830
1277.719, 0.2258360
1278.201, 0.1952860
1278.683, 0.1486830
1279.165, 0.1410800
1279.647, 0.2036760
1280.129, 0.3051860
1280.611, 0.3883300
1281.093, 0.4545740
1281.576, 0.5104660
1282.058, 0.5617430
1282.540, 0.5474080
1283.022, 0.3782540
1283.504, 0.2599810
1283.986, 0.2837550
1284.468, 0.3415120
1284.950, 0.1842850
1285.432, 1.1834000E-02
1285.915, 9.8737001E-02
1286.397, 0.5407640
1286.879, 0.7228190
1287.361, 0.5016450
1287.843, 0.3662120
1288.325, 0.4231160
1288.807, 0.5266460
1289.289, 0.5478890
1289.771, 0.5233940
1290.254, 0.4887950
1290.736, 0.4514940
1291.218, 0.4633200
1291.700, 0.5398380
1292.182, 0.4514700
1292.664, 0.1374810
1293.146, 0.1091220
1293.628, 1.0074000E-02
1294.111, 0.2221580
1294.593, 0.4862890
1295.075, 0.7050680
1295.557, 0.6918970
1296.039, 0.4707380
1296.521, 0.2897250
1297.003, 0.1794380
1297.485, 0.1263640
1297.968, 1.3425000E-02
1298.450, 7.7884004E-02
1298.932, 0.2072930
1299.414, 0.3230020
1299.896, 0.2559700
1300.378, 9.6957996E-02
1300.860, 2.1462999E-02
1301.342, 2.3200000E-02
1301.824, 0.0000000E+00
##END=



