##NAMES=Lindgrenite
##RRUFFID=R060241
##IDEAL CHEMISTRY=Cu_3_(Mo^6+^O_4_)_2_(OH)_2_
##LOCALITY=San Samuel mine, Carrera Pinto, Chile
##OWNER=RRUFF
##SOURCE=Rock Currier
##DESCRIPTION=Dark green tabular crystals associated with antlerite, pseudomalachite, albite, dravite and monazite
##STATUS=The identification of this mineral is confirmed by single-crystal X-ray diffraction and chemical analysis.
##URL=rruff.info/R060241
##MEASURED CHEMISTRY=Cu_3.00_(Mo^6+^_1.00_O_4_)_2_((OH)_1.98_Cl_0.02_)_Î£=2_
89.60352, 0.0000000E+00
90.08563, 0.5379490
90.56775, 0.1793820
91.04987, 3.768188
91.53198, 8.284073
92.01410, 8.660492
92.49622, 5.399857
92.97833, 5.117783
93.46045, 19.60474
93.94257, 42.42223
94.42468, 59.90710
94.90680, 67.99794
95.38892, 68.72734
95.87103, 65.82693
96.35315, 58.97308
96.83527, 53.36293
97.31738, 59.28740
97.79950, 74.02171
98.28162, 89.75864
98.76373, 103.9548
99.24585, 117.4835
99.72797, 131.2560
100.2101, 146.9874
100.6922, 160.3660
101.1743, 163.3804
101.6564, 146.2794
102.1385, 131.6421
102.6207, 151.6110
103.1028, 188.0949
103.5849, 216.3419
104.0670, 239.2201
104.5491, 246.2135
105.0313, 234.3966
105.5134, 219.5114
105.9955, 209.6447
106.4776, 201.1987
106.9597, 195.8654
107.4418, 188.8149
107.9240, 180.3170
108.4061, 170.9010
108.8882, 155.7514
109.3703, 128.1682
109.8524, 97.33621
110.3345, 73.05180
110.8167, 60.11855
111.2988, 49.46799
111.7809, 38.31104
112.2630, 24.61258
112.7451, 16.18187
113.2272, 22.04955
113.7094, 32.93018
114.1915, 33.71848
114.6736, 5.659332
115.1557, 22.72699
115.6378, 36.24039
116.1199, 21.99313
116.6021, 10.81937
117.0842, 16.77518
117.5663, 34.88788
118.0484, 50.18683
118.5305, 60.46173
119.0126, 63.21552
119.4948, 55.74088
119.9769, 26.40271
120.4590, 2.489990
120.9411, 13.14740
121.4232, 8.014587
121.9053, 4.474823
122.3875, 6.478882
122.8696, 18.24030
123.3517, 45.61618
123.8338, 99.78177
124.3159, 166.3784
124.7980, 226.8532
125.2802, 280.9517
125.7623, 342.4275
126.2444, 430.7138
126.7265, 537.3273
127.2086, 639.6712
127.6907, 740.2565
128.1729, 827.6328
128.6550, 878.0325
129.1371, 888.8309
129.6192, 868.4272
130.1013, 814.0891
130.5834, 730.4705
131.0656, 652.0452
131.5477, 600.1168
132.0298, 570.8358
132.5119, 543.9125
132.9940, 515.9547
133.4761, 492.0626
133.9583, 484.9832
134.4404, 496.1571
134.9225, 509.2245
135.4046, 506.2527
135.8867, 486.5386
136.3688, 488.6599
136.8510, 523.5985
137.3331, 582.2166
137.8152, 633.6206
138.2973, 676.5765
138.7794, 715.7004
139.2615, 754.6672
139.7437, 792.3450
140.2258, 831.3003
140.7079, 867.3026
141.1900, 901.4274
141.6721, 965.7012
142.1542, 1072.527
142.6364, 1192.788
143.1185, 1293.928
143.6006, 1363.058
144.0827, 1437.373
144.5648, 1529.224
145.0469, 1647.041
145.5291, 1739.611
146.0112, 1796.186
146.4933, 1834.928
146.9754, 1882.712
147.4575, 1945.191
147.9396, 2010.888
148.4218, 2075.171
148.9039, 2126.377
149.3860, 2203.451
149.8681, 2314.735
150.3502, 2449.763
150.8323, 2588.989
151.3145, 2714.711
151.7966, 2857.582
152.2787, 3027.983
152.7608, 3219.119
153.2429, 3447.468
153.7250, 3712.313
154.2072, 4014.848
154.6893, 4358.400
155.1714, 4722.122
155.6535, 5088.934
156.1356, 5487.563
156.6177, 5926.398
157.0999, 6392.464
157.5820, 6900.535
158.0641, 7439.636
158.5462, 7963.288
159.0283, 8475.127
159.5104, 8960.297
159.9926, 9409.315
160.4747, 9859.473
160.9568, 10238.07
161.4389, 10534.47
161.9210, 10744.60
162.4031, 10857.84
162.8853, 10834.96
163.3674, 10727.94
163.8495, 10584.29
164.3316, 10342.73
164.8137, 10131.58
165.2958, 10000.09
165.7780, 9948.396
166.2601, 9989.472
166.7422, 10123.84
167.2243, 10354.42
167.7064, 10682.05
168.1885, 11090.78
168.6707, 11606.89
169.1528, 12246.39
169.6349, 13012.17
170.1170, 13895.64
170.5991, 14943.43
171.0812, 16111.68
171.5634, 17306.23
172.0455, 18591.98
172.5276, 19841.16
173.0097, 20986.73
173.4918, 22063.20
173.9739, 22848.13
174.4561, 23255.99
174.9382, 23259.88
175.4203, 22786.85
175.9024, 21641.62
176.3845, 20062.66
176.8666, 18313.40
177.3488, 16365.10
177.8309, 14431.96
178.3130, 12690.57
178.7951, 11126.07
179.2772, 9763.007
179.7593, 8611.991
180.2415, 7659.462
180.7236, 6867.909
181.2057, 6245.167
181.6878, 5747.746
182.1699, 5317.458
182.6520, 4959.291
183.1342, 4658.951
183.6163, 4425.324
184.0984, 4245.608
184.5805, 4090.647
185.0626, 3951.583
185.5447, 3839.728
186.0269, 3777.932
186.5090, 3764.272
186.9911, 3768.990
187.4732, 3762.477
187.9553, 3752.692
188.4374, 3781.931
188.9196, 3865.523
189.4017, 3986.623
189.8838, 4110.613
190.3659, 4239.502
190.8480, 4367.257
191.3301, 4493.775
191.8123, 4619.429
192.2944, 4737.039
192.7765, 4852.559
193.2586, 4955.447
193.7407, 5010.479
194.2228, 5016.676
194.7050, 4984.346
195.1871, 4908.957
195.6692, 4791.036
196.1513, 4680.859
196.6334, 4588.462
197.1155, 4511.905
197.5977, 4435.202
198.0798, 4351.981
198.5619, 4295.264
199.0440, 4299.524
199.5261, 4366.671
200.0082, 4459.543
200.4904, 4570.585
200.9725, 4700.662
201.4546, 4861.511
201.9367, 5057.055
202.4188, 5272.812
202.9009, 5493.744
203.3831, 5720.558
203.8652, 5964.710
204.3473, 6238.151
204.8294, 6534.974
205.3115, 6798.422
205.7936, 7029.013
206.2758, 7223.796
206.7579, 7382.892
207.2400, 7507.578
207.7221, 7579.796
208.2042, 7582.878
208.6863, 7518.460
209.1685, 7462.435
209.6506, 7408.768
210.1327, 7372.784
210.6148, 7368.224
211.0969, 7390.352
211.5790, 7460.944
212.0612, 7589.383
212.5433, 7774.683
213.0254, 8000.850
213.5075, 8281.394
213.9896, 8585.659
214.4717, 8886.215
214.9538, 9211.816
215.4360, 9464.178
215.9181, 9628.282
216.4002, 9704.767
216.8823, 9665.523
217.3644, 9508.235
217.8465, 9237.815
218.3287, 8846.845
218.8108, 8298.272
219.2929, 7706.382
219.7750, 7078.697
220.2571, 6403.485
220.7392, 5777.653
221.2214, 5198.673
221.7035, 4665.964
222.1856, 4167.647
222.6677, 3703.329
223.1498, 3281.275
223.6319, 2913.839
224.1141, 2600.020
224.5962, 2318.118
225.0783, 2074.119
225.5604, 1859.654
226.0425, 1662.641
226.5246, 1488.843
227.0068, 1323.407
227.4889, 1163.711
227.9710, 1005.799
228.4531, 867.6567
228.9352, 756.1746
229.4173, 658.4858
229.8995, 557.5835
230.3816, 441.9712
230.8637, 342.4497
231.3458, 271.4954
231.8279, 233.5181
232.3100, 190.8950
232.7922, 142.4778
233.2743, 90.49561
233.7564, 36.05908
234.2385, 26.76904
234.7206, 81.10034
235.2027, 121.0991
235.6849, 144.6147
236.1670, 168.6521
236.6491, 197.5117
237.1312, 223.4624
237.6133, 235.0540
238.0954, 221.2253
238.5776, 212.2886
239.0597, 218.4954
239.5418, 243.6921
240.0239, 258.2053
240.5060, 260.4534
240.9881, 253.3743
241.4703, 239.6548
241.9524, 215.5398
242.4345, 191.9954
242.9166, 175.1418
243.3987, 167.8611
243.8808, 142.9485
244.3630, 95.05151
244.8451, 33.79028
245.3272, 29.65942
245.8093, 94.59717
246.2914, 163.1931
246.7735, 233.4700
247.2557, 304.0486
247.7378, 396.7742
248.2199, 520.0972
248.7020, 658.1855
249.1841, 793.8723
249.6662, 924.6980
250.1484, 1058.520
250.6305, 1204.150
251.1126, 1362.386
251.5947, 1489.715
252.0768, 1580.637
252.5589, 1644.486
253.0411, 1692.815
253.5232, 1735.269
254.0053, 1739.597
254.4874, 1696.462
254.9695, 1605.212
255.4516, 1489.785
255.9338, 1346.130
256.4159, 1183.872
256.8980, 1011.294
257.3801, 819.9243
257.8622, 635.9561
258.3444, 463.5337
258.8265, 302.2578
259.3086, 158.2729
259.7907, 34.01953
260.2728, 73.26025
260.7549, 163.9912
261.2371, 238.0874
261.7192, 297.3208
262.2013, 340.6206
262.6834, 368.7295
263.1655, 387.9580
263.6476, 398.8501
264.1298, 399.8950
264.6119, 388.2012
265.0940, 361.8242
265.5761, 330.5220
266.0582, 296.0688
266.5403, 258.4585
267.0225, 214.8320
267.5046, 164.5234
267.9867, 110.5688
268.4688, 52.83740
268.9509, 13.02246
269.4330, 66.17529
269.9152, 99.02588
270.3973, 118.7539
270.8794, 152.3447
271.3615, 202.3496
271.8436, 258.8486
272.3257, 312.2925
272.8079, 361.2388
273.2900, 418.3975
273.7721, 484.9814
274.2542, 561.5156
274.7363, 650.8491
275.2184, 752.9639
275.7006, 867.0664
276.1827, 983.8892
276.6648, 1101.363
277.1469, 1256.946
277.6290, 1458.425
278.1111, 1693.560
278.5933, 1928.091
279.0754, 2158.606
279.5575, 2423.429
280.0396, 2744.656
280.5217, 3119.264
281.0038, 3536.445
281.4860, 3995.515
281.9681, 4496.846
282.4502, 5037.568
282.9323, 5616.575
283.4144, 6248.559
283.8965, 6954.991
284.3787, 7725.125
284.8608, 8517.357
285.3429, 9338.347
285.8250, 10160.14
286.3071, 10966.65
286.7892, 11756.49
287.2714, 12459.78
287.7535, 13066.39
288.2356, 13569.96
288.7177, 13908.22
289.1998, 14083.66
289.6819, 14115.55
290.1641, 13981.68
290.6462, 13698.11
291.1283, 13392.29
291.6104, 13086.65
292.0925, 12797.20
292.5746, 12570.99
293.0568, 12405.60
293.5389, 12326.46
294.0210, 12351.04
294.5031, 12480.32
294.9852, 12722.52
295.4673, 13076.76
295.9495, 13549.11
296.4316, 14131.96
296.9137, 14821.58
297.3958, 15644.09
297.8779, 16629.62
298.3600, 17761.37
298.8422, 19023.20
299.3243, 20418.72
299.8064, 21940.54
300.2885, 23624.53
300.7706, 25446.45
301.2527, 27309.72
301.7349, 29220.08
302.2170, 31102.30
302.6991, 32826.89
303.1812, 34484.57
303.6633, 35791.46
304.1454, 36547.24
304.6276, 36728.73
305.1097, 36256.97
305.5918, 34858.47
306.0739, 32865.03
306.5560, 30611.41
307.0381, 28023.21
307.5203, 25503.02
308.0024, 23287.63
308.4845, 21382.31
308.9666, 19799.82
309.4487, 18617.06
309.9308, 17714.96
310.4130, 17038.75
310.8951, 16601.30
311.3772, 16276.88
311.8593, 16063.38
312.3414, 15904.82
312.8235, 15709.66
313.3057, 15485.17
313.7878, 15177.11
314.2699, 14756.84
314.7520, 14224.89
315.2341, 13577.21
315.7162, 12780.33
316.1984, 11878.00
316.6805, 10930.35
317.1626, 9882.694
317.6447, 8851.679
318.1268, 7864.247
318.6089, 6914.811
319.0911, 6049.961
319.5732, 5273.676
320.0553, 4591.805
320.5374, 4016.832
321.0195, 3568.350
321.5016, 3202.237
321.9838, 2920.012
322.4659, 2717.227
322.9480, 2570.005
323.4301, 2483.118
323.9122, 2444.088
324.3943, 2446.768
324.8765, 2491.048
325.3586, 2575.665
325.8407, 2705.378
326.3228, 2874.941
326.8049, 3072.337
327.2870, 3289.416
327.7692, 3536.896
328.2513, 3818.392
328.7334, 4127.565
329.2155, 4477.759
329.6976, 4876.573
330.1797, 5315.735
330.6619, 5774.673
331.1440, 6240.477
331.6261, 6747.772
332.1082, 7317.529
332.5903, 7947.696
333.0724, 8580.032
333.5546, 9206.677
334.0367, 9845.410
334.5188, 10512.29
335.0009, 11233.33
335.4830, 11937.03
335.9651, 12611.04
336.4473, 13258.75
336.9294, 13855.05
337.4115, 14408.95
337.8936, 14892.50
338.3757, 15282.99
338.8578, 15587.60
339.3399, 15775.16
339.8221, 15829.11
340.3042, 15768.84
340.7863, 15641.83
341.2684, 15437.86
341.7505, 15211.60
342.2326, 14989.98
342.7148, 14774.83
343.1969, 14552.59
343.6790, 14317.57
344.1611, 14088.10
344.6432, 13904.96
345.1253, 13767.46
345.6075, 13641.74
346.0896, 13518.97
346.5717, 13394.77
347.0538, 13254.11
347.5359, 13092.77
348.0180, 12927.50
348.5002, 12782.13
348.9823, 12650.64
349.4644, 12507.72
349.9465, 12334.36
350.4286, 12150.31
350.9107, 11974.52
351.3929, 11809.30
351.8750, 11683.71
352.3571, 11615.09
352.8392, 11604.20
353.3213, 11650.79
353.8034, 11749.33
354.2856, 11913.29
354.7677, 12171.18
355.2498, 12512.45
355.7319, 12896.41
356.2140, 13301.65
356.6961, 13734.93
357.1783, 14215.44
357.6604, 14760.11
358.1425, 15306.96
358.6246, 15846.46
359.1067, 16361.84
359.5888, 16825.74
360.0710, 17267.18
360.5531, 17621.02
361.0352, 17865.39
361.5173, 18001.97
361.9994, 17991.92
362.4815, 17831.25
362.9637, 17512.64
363.4458, 17028.29
363.9279, 16298.92
364.4100, 15474.44
364.8921, 14593.96
365.3742, 13655.29
365.8564, 12699.38
366.3385, 11686.85
366.8206, 10689.46
367.3027, 9750.412
367.7848, 8879.245
368.2669, 8053.180
368.7491, 7280.601
369.2312, 6558.436
369.7133, 5899.634
370.1954, 5315.573
370.6775, 4780.370
371.1596, 4289.928
371.6418, 3840.043
372.1239, 3437.775
372.6060, 3095.400
373.0881, 2796.409
373.5702, 2513.641
374.0523, 2242.121
374.5345, 1997.983
375.0166, 1785.295
375.4987, 1602.979
375.9808, 1441.498
376.4629, 1302.668
376.9450, 1176.798
377.4272, 1046.747
377.9093, 908.4771
378.3914, 790.9551
378.8735, 701.0605
379.3556, 633.6875
379.8377, 564.7817
380.3199, 492.4297
380.8020, 441.0986
381.2841, 432.4902
381.7662, 461.3428
382.2483, 498.6792
382.7304, 540.1865
383.2126, 594.9048
383.6947, 677.4463
384.1768, 784.5186
384.6589, 902.1304
385.1410, 1018.936
385.6231, 1146.150
386.1053, 1305.449
386.5874, 1496.743
387.0695, 1706.061
387.5516, 1925.111
388.0337, 2155.190
388.5158, 2397.305
388.9980, 2652.267
389.4801, 2921.320
389.9622, 3201.687
390.4443, 3493.059
390.9264, 3801.622
391.4085, 4121.505
391.8907, 4462.887
392.3728, 4838.620
392.8549, 5255.575
393.3370, 5684.861
393.8191, 6097.954
394.3012, 6512.500
394.7834, 6960.185
395.2655, 7468.446
395.7476, 7996.745
396.2297, 8536.936
396.7118, 9091.401
397.1939, 9630.247
397.6761, 10141.86
398.1582, 10639.59
398.6403, 11133.86
399.1224, 11678.28
399.6045, 12156.17
400.0866, 12552.62
400.5688, 12874.15
401.0509, 13148.17
401.5330, 13381.41
402.0151, 13561.86
402.4972, 13685.54
402.9793, 13755.68
403.4615, 13758.41
403.9436, 13680.26
404.4257, 13545.95
404.9078, 13396.56
405.3899, 13228.83
405.8720, 13054.63
406.3542, 12872.82
406.8363, 12683.97
407.3184, 12515.68
407.8005, 12369.43
408.2826, 12231.07
408.7647, 12088.59
409.2469, 11942.59
409.7290, 11794.21
410.2111, 11646.67
410.6932, 11490.77
411.1753, 11312.93
411.6574, 11114.14
412.1396, 10883.74
412.6217, 10622.54
413.1038, 10327.57
413.5859, 9985.710
414.0680, 9591.761
414.5501, 9167.777
415.0323, 8717.835
415.5144, 8251.318
415.9965, 7774.479
416.4786, 7291.031
416.9607, 6805.064
417.4428, 6306.726
417.9250, 5802.770
418.4071, 5310.292
418.8892, 4831.432
419.3713, 4376.409
419.8534, 3962.138
420.3355, 3592.376
420.8177, 3254.627
421.2998, 2942.740
421.7819, 2656.296
422.2640, 2385.114
422.7461, 2130.933
423.2282, 1892.693
423.7104, 1664.256
424.1925, 1441.935
424.6746, 1251.477
425.1567, 1108.106
425.6388, 988.1589
426.1209, 868.7500
426.6031, 743.4072
427.0852, 631.0396
427.5673, 537.6892
428.0494, 459.1729
428.5315, 377.8462
429.0136, 291.2219
429.4958, 209.7390
429.9779, 140.7646
430.4600, 85.29907
430.9421, 35.50024
431.4242, 8.227051
431.9063, 47.21167
432.3885, 81.54932
432.8706, 110.6318
433.3527, 138.3201
433.8348, 168.1101
434.3169, 196.7612
434.7990, 211.8638
435.2812, 213.1624
435.7633, 213.0986
436.2454, 224.4094
436.7275, 241.6211
437.2096, 252.1467
437.6917, 251.4810
438.1739, 248.5540
438.6560, 253.6899
439.1381, 264.3315
439.6202, 273.7035
440.1023, 282.2836
440.5844, 285.4998
441.0666, 276.5847
441.5487, 254.4004
442.0308, 236.2367
442.5129, 234.7129
442.9950, 239.6005
443.4771, 241.1373
443.9593, 237.2036
444.4414, 229.0948
444.9235, 215.2389
445.4056, 197.1124
445.8877, 180.4443
446.3698, 167.8875
446.8520, 155.4027
447.3341, 141.1439
447.8162, 123.7291
448.2983, 108.3936
448.7804, 94.61035
449.2625, 83.24377
449.7447, 76.51355
450.2268, 80.45520
450.7089, 74.80676
451.1910, 52.14941
451.6731, 16.61938
452.1552, 9.954468
452.6374, 26.19910
453.1195, 38.63477
453.6016, 51.02710
454.0837, 63.44714
454.5658, 72.77417
455.0479, 77.16174
455.5301, 83.90698
456.0122, 108.0602
456.4943, 146.3606
456.9764, 178.7448
457.4585, 192.8616
457.9406, 199.4475
458.4228, 218.2448
458.9049, 247.9672
459.3870, 275.7435
459.8691, 286.4901
460.3512, 292.0664
460.8333, 309.0876
461.3155, 345.3602
461.7976, 380.3036
462.2797, 398.5221
462.7618, 406.6250
463.2439, 416.1577
463.7260, 427.4158
464.2082, 444.6199
464.6903, 473.7760
465.1724, 514.8533
465.6545, 549.1045
466.1366, 566.6782
466.6187, 579.9695
467.1009, 597.0007
467.5830, 618.6768
468.0651, 643.6833
468.5472, 673.9704
469.0293, 706.8987
469.5114, 736.2905
469.9936, 757.1624
470.4757, 784.3185
470.9578, 825.0181
471.4399, 879.0554
471.9220, 923.4105
472.4041, 954.8987
472.8863, 985.2001
473.3684, 1026.535
473.8505, 1078.497
474.3326, 1123.954
474.8147, 1158.231
475.2968, 1189.023
475.7790, 1228.716
476.2611, 1276.929
476.7432, 1329.984
477.2253, 1388.684
477.7074, 1450.349
478.1895, 1511.125
478.6717, 1570.890
479.1538, 1629.884
479.6359, 1684.511
480.1180, 1740.084
480.6001, 1803.610
481.0822, 1880.334
481.5644, 1960.125
482.0465, 2038.921
482.5286, 2117.031
483.0107, 2195.027
483.4928, 2268.090
483.9749, 2345.657
484.4571, 2434.821
484.9392, 2538.917
485.4213, 2633.731
485.9034, 2700.979
486.3855, 2768.820
486.8676, 2857.392
487.3498, 2979.312
487.8319, 3100.023
488.3140, 3217.033
488.7961, 3331.531
489.2782, 3446.535
489.7603, 3562.542
490.2425, 3671.162
490.7246, 3766.199
491.2067, 3849.098
491.6888, 3932.515
492.1709, 4015.979
492.6530, 4099.993
493.1352, 4189.767
493.6173, 4282.209
494.0994, 4361.138
494.5815, 4421.358
495.0636, 4470.396
495.5457, 4519.868
496.0279, 4566.156
496.5100, 4597.449
496.9921, 4606.421
497.4742, 4599.107
497.9563, 4581.530
498.4384, 4553.987
498.9206, 4512.862
499.4027, 4453.096
499.8848, 4381.317
500.3669, 4300.552
500.8490, 4209.682
501.3311, 4113.289
501.8133, 4015.220
502.2954, 3911.986
502.7775, 3796.671
503.2596, 3656.133
503.7417, 3515.920
504.2238, 3382.840
504.7060, 3256.714
505.1881, 3128.235
505.6702, 2998.840
506.1523, 2866.416
506.6344, 2726.354
507.1165, 2576.266
507.5987, 2439.267
508.0808, 2319.418
508.5629, 2209.885
509.0450, 2099.065
509.5271, 1988.836
510.0092, 1893.514
510.4914, 1823.115
510.9735, 1766.185
511.4556, 1696.697
511.9377, 1616.535
512.4199, 1539.834
512.9020, 1478.806
513.3841, 1426.279
513.8662, 1372.704
514.3483, 1315.475
514.8304, 1262.885
515.3126, 1222.292
515.7947, 1187.899
516.2768, 1152.476
516.7589, 1115.633
517.2410, 1076.036
517.7231, 1030.999
518.2053, 981.6136
518.6874, 933.8300
519.1695, 881.5674
519.6516, 838.6064
520.1337, 812.3225
520.6158, 807.8084
521.0980, 795.0606
521.5801, 770.8124
522.0622, 742.7852
522.5443, 718.1564
523.0264, 697.4077
523.5085, 678.0386
523.9907, 659.4961
524.4728, 642.1292
524.9549, 627.5904
525.4370, 615.7208
525.9191, 602.7200
526.4012, 586.2503
526.8834, 567.2429
527.3655, 546.1641
527.8476, 523.1434
528.3297, 503.3560
528.8118, 493.0273
529.2939, 487.6730
529.7761, 481.6183
530.2582, 473.3674
530.7403, 465.0407
531.2224, 458.1154
531.7045, 451.8910
532.1866, 445.2543
532.6688, 437.9801
533.1509, 430.0755
533.6330, 422.7736
534.1151, 415.8584
534.5972, 403.1660
535.0793, 375.8271
535.5615, 352.2262
536.0436, 342.8889
536.5257, 354.0503
537.0078, 356.5656
537.4899, 348.0143
537.9720, 334.7318
538.4542, 325.7076
538.9363, 321.3965
539.4184, 311.5958
539.9005, 291.3231
540.3826, 267.6122
540.8647, 258.0258
541.3469, 260.8617
541.8290, 263.0746
542.3111, 256.7560
542.7932, 245.4340
543.2753, 233.3416
543.7574, 220.7087
544.2396, 209.4647
544.7217, 202.4902
545.2038, 196.9237
545.6859, 189.4801
546.1680, 176.8546
546.6501, 167.0040
547.1323, 166.3915
547.6144, 169.7197
548.0965, 167.7828
548.5786, 150.6912
549.0607, 137.8284
549.5428, 135.5215
550.0250, 142.3392
550.5071, 142.7352
550.9892, 134.5530
551.4713, 124.0163
551.9534, 112.9280
552.4355, 100.8008
552.9177, 94.94440
553.3998, 97.07330
553.8819, 100.1335
554.3640, 95.42969
554.8461, 84.03156
555.3282, 71.52954
555.8104, 58.71088
556.2925, 46.67114
556.7746, 36.70837
557.2567, 28.79730
557.7388, 22.81860
558.2209, 20.62549
558.7031, 19.44250
559.1852, 16.69928
559.6673, 12.54120
560.1494, 9.706970
560.6315, 10.45648
561.1136, 12.14685
561.5958, 13.13715
562.0779, 13.71606
562.5600, 12.74896
563.0421, 10.20166
563.5242, 6.088562
564.0063, 0.2989500
564.4885, 11.54529
564.9706, 18.15619
565.4527, 17.31787
565.9348, 11.12329
566.4169, 5.448608
566.8990, 3.4058001E-02
567.3812, 2.026978
567.8633, 5.400757
568.3454, 18.03131
568.8275, 16.99438
569.3096, 1.802124
569.7917, 10.81042
570.2739, 7.7820003E-02
570.7560, 20.83313
571.2381, 31.27966
571.7202, 24.89008
572.2023, 14.07690
572.6844, 2.739502
573.1666, 6.985291
573.6487, 12.02545
574.1308, 7.917358
574.6129, 2.784668
575.0950, 3.124573
575.5771, 8.813904
576.0593, 8.542297
576.5414, 3.289917
577.0235, 14.19281
577.5056, 19.43988
577.9877, 18.48523
578.4698, 16.25409
578.9520, 11.92474
579.4341, 8.307068
579.9162, 8.689453
580.3983, 12.74164
580.8804, 15.55432
581.3625, 16.32947
581.8447, 16.09137
582.3268, 16.79706
582.8089, 17.65668
583.2910, 16.35315
583.7731, 8.783569
584.2552, 1.617737
584.7373, 0.7698360
585.2194, 5.378418
585.7015, 12.28442
586.1837, 21.79327
586.6658, 31.79205
587.1479, 42.09357
587.6300, 53.13605
588.1121, 60.82184
588.5942, 64.58521
589.0764, 64.79810
589.5585, 60.99762
590.0406, 49.89539
590.5227, 43.05200
591.0048, 42.30524
591.4869, 43.86865
591.9691, 40.14655
592.4512, 30.70691
592.9333, 28.08752
593.4154, 39.20520
593.8975, 55.64380
594.3796, 57.59015
594.8618, 47.17841
595.3439, 37.86920
595.8260, 39.96423
596.3081, 45.95392
596.7902, 47.14941
597.2723, 43.32556
597.7545, 39.75848
598.2366, 39.60779
598.7187, 40.63812
599.2008, 41.41541
599.6829, 42.42413
600.1650, 41.69257
600.6472, 34.73578
601.1293, 27.75684
601.6114, 28.55682
602.0935, 43.43829
602.5756, 52.93463
603.0577, 53.21198
603.5399, 47.40063
604.0220, 43.69214
604.5041, 42.34723
604.9862, 39.71735
605.4683, 32.03400
605.9504, 22.49213
606.4326, 23.66431
606.9147, 34.53143
607.3968, 40.83209
607.8789, 24.71393
608.3610, 1.473511
608.8431, 8.704895
609.3253, 1.935791
609.8074, 6.286377
610.2895, 6.484375
610.7716, 4.602112
611.2537, 6.385437
611.7358, 20.73456
612.2180, 29.01007
612.7001, 26.72974
613.1822, 17.99091
613.6643, 7.838562
614.1464, 8.972900
614.6285, 14.17694
615.1107, 2.537048
615.5928, 32.92847
616.0749, 38.03717
616.5570, 15.87457
617.0391, 4.934753
617.5212, 3.529297
618.0034, 11.54150
618.4855, 17.71863
618.9676, 14.71802
619.4497, 7.807251
619.9318, 5.337585
620.4139, 17.13049
620.8961, 16.91644
621.3782, 1.395569
621.8603, 17.43024
622.3424, 18.54065
622.8245, 14.02686
623.3066, 14.66736
623.7888, 29.87085
624.2709, 41.09180
624.7530, 46.99255
625.2351, 47.67969
625.7172, 42.36389
626.1993, 28.36310
626.6815, 16.39325
627.1636, 9.156799
627.6457, 6.594177
628.1278, 13.48907
628.6099, 29.53461
629.0920, 39.22131
629.5742, 23.62592
630.0563, 1.960632
630.5384, 7.619629
631.0205, 8.171448
631.5026, 25.82892
631.9847, 32.49536
632.4669, 33.74927
632.9490, 34.97803
633.4311, 37.81281
633.9132, 39.36176
634.3953, 37.87427
634.8774, 35.18317
635.3596, 33.62286
635.8417, 33.10962
636.3238, 33.95135
636.8059, 36.55725
637.2880, 40.38971
637.7701, 44.65686
638.2523, 49.62585
638.7344, 52.19171
639.2165, 49.04144
639.6986, 43.79321
640.1807, 48.71246
640.6628, 62.66260
641.1450, 74.83716
641.6271, 74.82605
642.1092, 70.98383
642.5913, 73.68494
643.0734, 83.79645
643.5555, 93.14111
644.0377, 97.99475
644.5198, 100.4313
645.0019, 101.5746
645.4840, 100.0825
645.9661, 100.5986
646.4482, 106.0432
646.9304, 111.4427
647.4125, 109.6946
647.8946, 95.58740
648.3767, 93.72882
648.8588, 112.0427
649.3409, 137.8419
649.8231, 146.7913
650.3052, 139.9614
650.7873, 128.6343
651.2694, 112.8712
651.7515, 98.80267
652.2336, 96.85059
652.7158, 104.7911
653.1979, 114.3159
653.6800, 124.5759
654.1621, 132.0516
654.6442, 131.7142
655.1263, 123.4210
655.6085, 121.0514
656.0906, 135.4483
656.5727, 150.0262
657.0548, 155.4075
657.5369, 147.9086
658.0190, 147.0872
658.5012, 155.3135
658.9833, 165.9791
659.4654, 174.8725
659.9475, 181.7774
660.4296, 177.7111
660.9117, 158.3977
661.3939, 139.2304
661.8760, 142.9235
662.3581, 161.8275
662.8402, 178.1703
663.3223, 186.2447
663.8044, 189.6008
664.2866, 188.0767
664.7687, 183.7804
665.2508, 181.0662
665.7329, 179.9705
666.2150, 181.9612
666.6971, 189.9222
667.1793, 202.4443
667.6614, 211.1073
668.1435, 215.1651
668.6256, 216.5186
669.1077, 215.3100
669.5898, 211.7915
670.0720, 207.3967
670.5541, 201.7441
671.0362, 200.1162
671.5183, 210.5632
672.0004, 226.9243
672.4825, 236.0917
672.9647, 236.9489
673.4468, 236.2410
673.9289, 237.4420
674.4110, 240.0945
674.8931, 244.1698
675.3752, 251.6629
675.8574, 256.7423
676.3395, 255.5349
676.8216, 252.3120
677.3037, 251.8694
677.7858, 254.5900
678.2679, 259.6413
678.7501, 267.5769
679.2322, 276.9467
679.7143, 284.5812
680.1964, 290.4538
680.6785, 294.9456
681.1606, 296.8721
681.6428, 298.7817
682.1249, 307.3561
682.6070, 320.2601
683.0891, 328.8337
683.5712, 320.8202
684.0533, 313.4846
684.5355, 321.1089
685.0176, 341.9818
685.4997, 358.1251
685.9818, 360.1783
686.4639, 360.4309
686.9460, 364.3030
687.4282, 372.8779
687.9103, 379.6565
688.3924, 384.5715
688.8745, 387.6902
689.3566, 387.3617
689.8387, 384.3477
690.3209, 387.4288
690.8030, 397.3368
691.2851, 410.7706
691.7672, 426.3903
692.2493, 441.8437
692.7314, 453.2743
693.2136, 460.7869
693.6957, 464.6284
694.1778, 459.4134
694.6599, 452.2155
695.1420, 451.8676
695.6241, 471.8427
696.1063, 484.3843
696.5884, 484.3918
697.0705, 476.2834
697.5526, 467.6143
698.0347, 457.1359
698.5168, 453.9441
698.9990, 464.1353
699.4811, 479.7855
699.9632, 480.8130
700.4453, 469.0333
700.9274, 454.6714
701.4095, 440.6194
701.8917, 428.0648
702.3738, 417.6433
702.8559, 409.6478
703.3380, 405.4130
703.8201, 408.5491
704.3022, 412.9602
704.7844, 417.3347
705.2665, 421.7585
705.7486, 417.9596
706.2307, 399.2656
706.7128, 382.1594
707.1949, 376.4173
707.6771, 382.3431
708.1592, 385.2329
708.6413, 384.9263
709.1234, 382.2767
709.6055, 378.6928
710.0876, 373.2956
710.5698, 362.2694
711.0519, 344.2520
711.5340, 329.1407
712.0161, 326.6680
712.4982, 329.4106
712.9803, 329.7242
713.4625, 324.0299
713.9446, 319.5529
714.4267, 320.0506
714.9088, 320.9151
715.3909, 317.4518
715.8730, 308.6984
716.3552, 297.6927
716.8373, 282.9409
717.3194, 269.0513
717.8015, 266.3157
718.2836, 273.0503
718.7657, 276.2321
719.2479, 271.7886
719.7300, 262.4588
720.2121, 248.7042
720.6942, 232.6347
721.1763, 218.9037
721.6584, 208.8679
722.1406, 202.2060
722.6227, 202.5281
723.1048, 206.7958
723.5869, 202.9837
724.0690, 185.3155
724.5511, 167.9927
725.0333, 154.2548
725.5154, 144.1082
725.9975, 138.8660
726.4796, 139.0795
726.9617, 138.6160
727.4438, 132.7933
727.9260, 124.4602
728.4081, 121.0551
728.8902, 121.6833
729.3723, 118.9596
729.8544, 102.9944
730.3365, 85.91357
730.8187, 77.81622
731.3008, 80.28107
731.7829, 79.91449
732.2650, 71.43298
732.7471, 62.18030
733.2292, 56.57135
733.7114, 56.17847
734.1935, 47.99109
734.6756, 29.84070
735.1577, 11.49170
735.6398, 2.608398
736.1219, 0.9321290
736.6041, 1.739014
737.0862, 6.161621
737.5683, 11.70557
738.0504, 19.45227
738.5325, 27.35461
739.0146, 32.79785
739.4968, 33.94946
739.9789, 36.06921
740.4610, 40.58826
740.9431, 46.81689
741.4252, 54.33423
741.9073, 65.41699
742.3895, 72.02368
742.8716, 72.96045
743.3537, 70.40625
743.8358, 65.02625
744.3179, 57.93457
744.8000, 57.83252
745.2822, 69.07703
745.7643, 81.38843
746.2464, 80.83997
746.7285, 73.49805
747.2106, 69.99182
747.6927, 77.60193
748.1749, 85.53247
748.6570, 92.97986
749.1391, 97.42053
749.6212, 93.67322
750.1033, 74.00061
750.5854, 61.12683
751.0676, 61.97815
751.5497, 69.89368
752.0318, 68.35413
752.5139, 57.55200
752.9960, 46.76721
753.4781, 41.97058
753.9603, 36.47681
754.4424, 20.12646
754.9245, 5.210449
755.4066, 32.94421
755.8887, 63.78125
756.3708, 93.20203
756.8530, 118.5876
757.3351, 140.2936
757.8172, 164.3857
758.2993, 186.0009
758.7814, 217.4984
759.2635, 266.2123
759.7457, 327.7098
760.2278, 382.8174
760.7099, 431.0892
761.1920, 475.1936
761.6741, 509.7068
762.1563, 544.0811
762.6384, 595.1416
763.1205, 661.1157
763.6026, 734.8354
764.0847, 813.1555
764.5668, 896.5374
765.0490, 985.7634
765.5311, 1082.210
766.0132, 1175.639
766.4953, 1261.711
766.9774, 1349.996
767.4595, 1443.867
767.9417, 1544.220
768.4238, 1648.571
768.9059, 1755.583
769.3880, 1869.270
769.8701, 1995.938
770.3522, 2129.705
770.8344, 2262.392
771.3165, 2393.160
771.7986, 2516.817
772.2807, 2618.290
772.7628, 2720.601
773.2449, 2843.750
773.7271, 2994.383
774.2092, 3133.676
774.6913, 3255.894
775.1734, 3372.253
775.6555, 3490.145
776.1376, 3610.721
776.6198, 3719.325
777.1019, 3814.821
777.5840, 3915.125
778.0661, 4034.227
778.5482, 4169.140
779.0303, 4316.047
779.5125, 4473.317
779.9946, 4641.538
780.4767, 4806.380
780.9588, 4990.068
781.4409, 5210.190
781.9230, 5473.367
782.4052, 5754.170
782.8873, 6048.135
783.3694, 6367.003
783.8515, 6716.343
784.3336, 7094.438
784.8157, 7506.336
785.2979, 7949.306
785.7800, 8415.901
786.2621, 8896.428
786.7442, 9394.155
787.2263, 9921.457
787.7084, 10484.16
788.1906, 11073.44
788.6727, 11701.48
789.1548, 12355.94
789.6369, 13038.22
790.1190, 13747.92
790.6011, 14471.77
791.0833, 15210.35
791.5654, 15955.78
792.0475, 16685.78
792.5296, 17407.50
793.0117, 18104.48
793.4938, 18785.90
793.9760, 19408.33
794.4581, 19960.73
794.9402, 20426.21
795.4223, 20786.48
795.9044, 21056.09
796.3865, 21175.15
796.8687, 21135.83
797.3508, 20924.83
797.8329, 20540.54
798.3150, 19959.65
798.7971, 19266.37
799.2792, 18448.64
799.7614, 17545.09
800.2435, 16543.81
800.7256, 15467.93
801.2077, 14404.15
801.6898, 13362.95
802.1719, 12361.20
802.6541, 11412.49
803.1362, 10525.45
803.6183, 9698.126
804.1004, 8932.242
804.5825, 8227.254
805.0646, 7591.896
805.5468, 7003.064
806.0289, 6442.987
806.5110, 5905.184
806.9931, 5419.971
807.4752, 4997.018
807.9573, 4614.782
808.4395, 4255.197
808.9216, 3918.407
809.4037, 3607.681
809.8858, 3324.813
810.3679, 3062.680
810.8500, 2818.621
811.3322, 2593.428
811.8143, 2390.389
812.2964, 2216.960
812.7785, 2052.024
813.2606, 1892.700
813.7427, 1742.036
814.2249, 1603.381
814.7070, 1475.562
815.1891, 1360.223
815.6712, 1257.211
816.1533, 1163.726
816.6354, 1079.826
817.1176, 1002.807
817.5997, 925.3555
818.0818, 844.8008
818.5639, 775.7256
819.0460, 728.7021
819.5281, 693.1387
820.0103, 661.7998
820.4924, 633.9292
820.9745, 610.0166
821.4566, 587.8438
821.9387, 574.3569
822.4208, 576.2588
822.9030, 592.1816
823.3851, 612.9160
823.8672, 638.0220
824.3493, 671.1099
824.8314, 716.4956
825.3135, 770.0547
825.7957, 823.6870
826.2778, 874.0479
826.7599, 944.5771
827.2420, 1042.263
827.7241, 1161.937
828.2062, 1306.684
828.6884, 1477.362
829.1705, 1645.922
829.6526, 1809.770
830.1347, 1982.609
830.6168, 2174.626
831.0989, 2382.314
831.5811, 2603.313
832.0632, 2835.366
832.5453, 3078.221
833.0274, 3325.302
833.5095, 3585.178
833.9916, 3865.363
834.4738, 4168.096
834.9559, 4474.392
835.4380, 4780.274
835.9201, 5095.791
836.4022, 5430.143
836.8843, 5777.332
837.3665, 6098.527
837.8486, 6394.345
838.3307, 6675.883
838.8128, 6962.284
839.2949, 7229.736
839.7770, 7463.114
840.2592, 7660.480
840.7413, 7800.448
841.2234, 7878.514
841.7055, 7892.633
842.1876, 7849.278
842.6697, 7730.005
843.1519, 7564.798
843.6340, 7302.000
844.1161, 6982.150
844.5982, 6605.159
845.0803, 6184.628
845.5624, 5740.980
846.0446, 5279.358
846.5267, 4823.921
847.0088, 4381.303
847.4909, 3953.427
847.9730, 3537.863
848.4551, 3137.007
848.9373, 2763.380
849.4194, 2417.089
849.9015, 2091.130
850.3836, 1784.741
850.8657, 1501.136
851.3478, 1253.705
851.8300, 1040.088
852.3121, 845.7480
852.7942, 669.4678
853.2763, 507.0693
853.7584, 349.3813
854.2405, 202.7681
854.7227, 77.97949
855.2048, 7.933105
855.6869, 87.83105
856.1690, 168.3862
856.6511, 243.3623
857.1332, 306.0645
857.6154, 356.6211
858.0975, 394.2529
858.5796, 417.8579
859.0617, 432.8457
859.5438, 447.7729
860.0259, 458.3457
860.5081, 456.2998
860.9902, 436.3320
861.4723, 411.5493
861.9544, 388.7593
862.4365, 362.1904
862.9186, 328.5815
863.4008, 291.7349
863.8829, 232.6069
864.3650, 146.6465
864.8471, 51.20703
865.3292, 36.41553
865.8113, 120.0337
866.2935, 209.6177
866.7756, 306.9326
867.2577, 413.9419
867.7398, 537.7544
868.2219, 669.3765
868.7040, 800.6821
869.1862, 928.1025
869.6683, 1076.708
870.1504, 1250.958
870.6325, 1437.531
871.1146, 1624.282
871.5967, 1814.174
872.0789, 2027.549
872.5610, 2265.959
873.0431, 2508.429
873.5252, 2736.133
874.0073, 2965.041
874.4894, 3210.341
874.9716, 3473.196
875.4537, 3738.253
875.9358, 3998.366
876.4179, 4261.346
876.9000, 4529.014
877.3821, 4801.187
877.8643, 5082.285
878.3464, 5371.473
878.8285, 5646.847
879.3106, 5885.479
879.7927, 6110.160
880.2748, 6354.217
880.7570, 6607.496
881.2391, 6844.533
881.7212, 7058.129
882.2033, 7251.050
882.6854, 7432.258
883.1675, 7589.430
883.6497, 7703.975
884.1318, 7773.510
884.6139, 7816.181
885.0960, 7837.596
885.5781, 7827.753
886.0602, 7765.091
886.5424, 7660.876
887.0245, 7537.791
887.5066, 7396.441
887.9887, 7252.217
888.4708, 7105.635
888.9529, 6963.487
889.4351, 6829.397
889.9172, 6695.072
890.3993, 6594.055
890.8814, 6527.072
891.3635, 6494.368
891.8456, 6501.054
892.3278, 6541.353
892.8099, 6594.247
893.2920, 6657.331
893.7741, 6760.375
894.2562, 6940.952
894.7383, 7152.766
895.2205, 7366.199
895.7026, 7576.476
896.1847, 7807.981
896.6668, 8068.242
897.1489, 8329.406
897.6310, 8578.826
898.1132, 8816.355
898.5953, 9037.251
899.0774, 9239.572
899.5595, 9410.121
900.0416, 9557.831
900.5237, 9657.327
901.0059, 9686.622
901.4880, 9652.686
901.9701, 9581.746
902.4522, 9478.359
902.9343, 9340.078
903.4164, 9158.168
903.8986, 8948.142
904.3807, 8732.519
904.8628, 8513.754
905.3449, 8299.745
905.8270, 8087.186
906.3091, 7894.077
906.7913, 7722.825
907.2734, 7586.562
907.7555, 7500.577
908.2376, 7482.719
908.7197, 7497.547
909.2018, 7536.089
909.6840, 7615.938
910.1661, 7751.208
910.6482, 7942.654
911.1303, 8199.540
911.6124, 8522.188
912.0945, 8917.994
912.5767, 9378.937
913.0588, 9924.397
913.5409, 10560.30
914.0230, 11283.52
914.5051, 12158.26
914.9872, 13159.61
915.4694, 14350.19
915.9515, 15737.07
916.4336, 17334.80
916.9157, 19237.19
917.3978, 21431.37
917.8799, 23975.30
918.3621, 26871.94
918.8442, 30153.90
919.3263, 33939.16
919.8084, 38125.27
920.2905, 42516.79
920.7726, 47119.91
921.2548, 51858.48
921.7369, 56708.64
922.2190, 61729.07
922.7011, 66935.98
923.1832, 72310.53
923.6653, 78310.74
924.1475, 84982.23
924.6296, 92561.12
925.1117, 101241.1
925.5938, 111074.9
926.0759, 122251.5
926.5580, 134899.0
927.0402, 148818.3
927.5223, 164229.3
928.0044, 180669.9
928.4865, 197945.1
928.9686, 215973.7
929.4507, 234332.2
929.9329, 252907.7
930.4150, 269199.2
930.8971, 284407.5
931.3792, 294084.5
931.8613, 293764.8
932.3434, 283469.2
932.8256, 266256.3
933.3077, 238530.7
933.7898, 209182.5
934.2719, 179712.3
934.7540, 150890.2
935.2361, 126322.6
935.7183, 105681.5
936.2004, 88466.81
936.6825, 74532.38
937.1646, 63113.98
937.6467, 53960.94
938.1288, 46570.21
938.6110, 40330.19
939.0931, 35384.29
939.5752, 31123.71
940.0573, 27639.85
940.5394, 24685.47
941.0215, 22098.50
941.5037, 19869.05
941.9858, 17925.53
942.4679, 16248.97
942.9500, 14771.15
943.4321, 13490.76
943.9142, 12360.59
944.3964, 11342.21
944.8785, 10440.43
945.3606, 9609.249
945.8427, 8839.304
946.3248, 8142.984
946.8069, 7533.885
947.2891, 6993.105
947.7712, 6490.058
948.2533, 6023.185
948.7354, 5590.757
949.2175, 5193.856
949.6996, 4829.202
950.1818, 4498.205
950.6639, 4193.200
951.1460, 3908.914
951.6281, 3644.436
952.1102, 3400.803
952.5923, 3179.641
953.0745, 2969.863
953.5566, 2755.902
954.0387, 2544.194
954.5208, 2351.524
955.0029, 2181.839
955.4850, 2024.780
955.9672, 1878.565
956.4493, 1741.138
956.9314, 1608.652
957.4135, 1480.231
957.8956, 1359.991
958.3777, 1248.666
958.8599, 1141.802
959.3420, 1036.238
959.8241, 933.7671
960.3062, 838.7932
960.7883, 751.1663
961.2704, 673.3879
961.7526, 609.9302
962.2347, 551.3689
962.7168, 494.3948
963.1989, 439.3999
963.6810, 384.1294
964.1631, 327.6252
964.6453, 275.4365
965.1274, 227.7302
965.6095, 186.5281
966.0916, 156.0139
966.5737, 132.9563
967.0558, 113.4346
967.5380, 96.91992
968.0201, 79.92920
968.5022, 52.58838
968.9843, 31.53467
969.4664, 24.53931
969.9485, 32.10791
970.4307, 55.17358
970.9128, 94.36499
971.3949, 139.2402
971.8770, 177.5117
972.3591, 222.1843
972.8412, 291.1489
973.3234, 380.0444
973.8055, 476.3459
974.2876, 579.0664
974.7697, 684.6631
975.2518, 790.2175
975.7339, 901.3157
976.2161, 1027.104
976.6982, 1167.938
977.1803, 1316.613
977.6624, 1469.656
978.1445, 1638.190
978.6266, 1832.706
979.1088, 2048.240
979.5909, 2281.231
980.0730, 2532.472
980.5551, 2796.797
981.0372, 3076.923
981.5193, 3370.544
982.0015, 3689.943
982.4836, 4020.330
982.9657, 4322.818
983.4478, 4592.816
983.9299, 4809.088
984.4120, 4999.868
984.8942, 5091.894
985.3763, 5049.466
985.8584, 4876.397
986.3405, 4593.448
986.8226, 4176.049
987.3047, 3729.170
987.7869, 3254.953
988.2690, 2783.998
988.7511, 2345.588
989.2332, 1944.490
989.7153, 1593.592
990.1974, 1295.129
990.6796, 1037.939
991.1617, 826.5334
991.6438, 648.9451
992.1259, 498.8616
992.6080, 377.6873
993.0901, 275.2632
993.5723, 191.6062
994.0544, 122.5139
994.5365, 69.70605
995.0186, 25.81738
995.5007, 20.13623
995.9828, 63.30994
996.4650, 96.55481
996.9471, 111.3374
997.4292, 124.0168
997.9113, 135.4844
998.3934, 145.0546
998.8755, 152.7501
999.3577, 158.6051
999.8398, 159.7197
1000.322, 156.3135
1000.804, 154.7166
1001.286, 165.9694
1001.768, 175.2056
1002.250, 167.5122
1002.732, 144.8756
1003.215, 137.2074
1003.697, 150.9463
1004.179, 154.9360
1004.661, 135.2952
1005.143, 107.8140
1005.625, 99.71594
1006.107, 105.1106
1006.589, 112.8667
1007.072, 125.3451
1007.554, 127.2083
1008.036, 99.14893
1008.518, 70.85071
1009.000, 68.85620
1009.482, 96.71326
1009.964, 97.88599
1010.446, 71.56177
1010.928, 46.53979
1011.411, 50.48840
1011.893, 60.29651
1012.375, 52.31128
1012.857, 29.85461
1013.339, 12.52124
1013.821, 6.029419
1014.303, 0.1335450
1014.785, 7.633545
1015.268, 15.99500
1015.750, 24.70728
1016.232, 33.45544
1016.714, 40.82227
1017.196, 46.01831
1017.678, 52.28247
1018.160, 61.79700
1018.642, 72.96118
1019.124, 85.68518
1019.607, 100.2474
1020.089, 106.3090
1020.571, 102.2051
1021.053, 102.7205
1021.535, 118.2720
1022.017, 140.5081
1022.499, 160.9800
1022.981, 178.3564
1023.464, 189.6163
1023.946, 188.8777
1024.428, 188.1461
1024.910, 186.6046
1025.392, 188.2679
1025.874, 199.1824
1026.356, 218.1462
1026.838, 237.0386
1027.320, 255.1938
1027.803, 270.5083
1028.285, 280.4540
1028.767, 287.8908
1029.249, 294.7833
1029.731, 301.0433
1030.213, 304.8491
1030.695, 304.7953
1031.177, 308.0347
1031.660, 317.2923
1032.142, 329.1407
1032.624, 339.9794
1033.106, 349.0850
1033.588, 354.8631
1034.070, 355.9055
1034.552, 356.6407
1035.034, 355.5453
1035.516, 357.2178
1035.999, 363.9854
1036.481, 375.9298
1036.963, 397.8663
1037.445, 428.2690
1037.927, 450.2847
1038.409, 445.6211
1038.891, 436.8284
1039.373, 438.2242
1039.855, 447.6122
1040.338, 459.4998
1040.820, 476.1717
1041.302, 487.2242
1041.784, 490.6470
1042.266, 491.3101
1042.748, 494.5172
1043.230, 499.0284
1043.712, 501.4810
1044.195, 501.4663
1044.677, 505.4383
1045.159, 523.5769
1045.641, 536.4946
1046.123, 534.7990
1046.605, 523.9301
1047.087, 522.1694
1047.569, 528.7425
1048.052, 538.2065
1048.534, 550.5804
1049.016, 560.4626
1049.498, 561.9541
1049.980, 559.7684
1050.462, 558.6785
1050.944, 558.2125
1051.426, 562.9580
1051.908, 574.5900
1052.391, 584.4025
1052.873, 582.3325
1053.355, 575.2367
1053.837, 580.5113
1054.319, 593.6279
1054.801, 599.6384
1055.283, 588.6656
1055.765, 575.1411
1056.247, 559.2726
1056.730, 544.9873
1057.212, 539.5510
1057.694, 541.6511
1058.176, 540.5841
1058.658, 535.0574
1059.140, 525.7744
1059.622, 511.2261
1060.104, 496.9879
1060.587, 487.6100
1061.069, 481.5860
1061.551, 473.7160
1062.033, 464.7108
1062.515, 454.9483
1062.997, 443.5323
1063.479, 433.1900
1063.961, 430.9409
1064.443, 431.0503
1064.926, 424.1537
1065.408, 405.7580
1065.890, 394.1222
1066.372, 394.0657
1066.854, 393.6245
1067.336, 385.2848
1067.818, 371.3394
1068.300, 351.7141
1068.782, 329.6383
1069.265, 317.4657
1069.747, 337.7104
1070.229, 351.6725
1070.711, 336.0588
1071.193, 310.1568
1071.675, 295.7229
1072.157, 293.8196
1072.639, 293.3430
1073.122, 293.9482
1073.604, 291.6427
1074.086, 280.4595
1074.568, 266.7692
1075.050, 253.8560
1075.532, 243.2266
1076.014, 242.7423
1076.496, 261.5673
1076.979, 265.3272
1077.461, 242.2689
1077.943, 212.6519
1078.425, 206.6377
1078.907, 216.0345
1079.389, 227.3742
1079.871, 239.3350
1080.353, 246.3696
1080.835, 242.3284
1081.318, 237.3019
1081.800, 235.4254
1082.282, 235.3805
1082.764, 231.6663
1083.246, 224.8277
1083.728, 217.9507
1084.210, 212.2171
1084.692, 206.8843
1085.174, 202.1792
1085.656, 197.1274
1086.139, 189.1646
1086.621, 175.9464
1087.103, 176.5725
1087.585, 192.3369
1088.067, 206.7229
1088.549, 205.0803
1089.031, 199.1272
1089.513, 202.7469
1089.996, 212.3519
1090.478, 218.3865
1090.960, 219.7048
1091.442, 215.7890
1091.924, 204.8308
1092.406, 192.7884
1092.888, 186.8917
1093.370, 184.6499
1093.853, 179.1277
1094.335, 170.5695
1094.817, 167.4780
1095.299, 181.1493
1095.781, 191.0360
1096.263, 188.8885
1096.745, 180.6794
1097.227, 181.0185
1097.709, 188.1076
1098.192, 189.1904
1098.674, 180.3938
1099.156, 174.4399
1099.638, 185.4658
1100.120, 197.9425
1100.602, 200.1842
1101.084, 192.9093
1101.566, 181.5416
1102.048, 165.4227
1102.531, 158.0740
1103.013, 169.3487
1103.495, 183.2616
1103.977, 182.9142
1104.459, 174.0375
1104.941, 163.2110
1105.423, 147.5701
1105.905, 144.6483
1106.388, 159.0863
1106.870, 171.2533
1107.352, 164.9828
1107.834, 149.7235
1108.316, 142.6531
1108.798, 141.6888
1109.280, 140.9257
1109.762, 136.7660
1110.245, 135.3733
1110.727, 138.4574
1111.209, 142.5544
1111.691, 145.5309
1112.173, 146.6208
1112.655, 139.0921
1113.137, 124.1898
1113.619, 116.7173
1114.101, 136.5114
1114.583, 151.6916
1115.066, 146.4805
1115.548, 130.4049
1116.030, 118.9460
1116.512, 111.9683
1116.994, 109.3740
1117.476, 111.4315
1117.958, 114.9555
1118.440, 119.4214
1118.923, 122.4542
1119.405, 120.8943
1119.887, 115.7911
1120.369, 115.0755
1120.851, 120.1209
1121.333, 118.4799
1121.815, 104.1326
1122.297, 89.95657
1122.780, 96.26324
1123.262, 107.3187
1123.744, 100.8897
1124.226, 67.47885
1124.708, 55.01404
1125.190, 69.69604
1125.672, 88.32959
1126.154, 102.0342
1126.636, 110.4480
1127.119, 111.9449
1127.601, 108.0120
1128.083, 101.9781
1128.565, 90.84061
1129.047, 85.72141
1129.529, 91.85077
1130.011, 97.60651
1130.493, 92.43997
1130.975, 81.42426
1131.458, 81.71573
1131.940, 90.43793
1132.422, 97.32205
1132.904, 97.61398
1133.386, 95.39627
1133.868, 89.87823
1134.350, 84.77167
1134.832, 83.46301
1135.315, 85.71255
1135.797, 91.39859
1136.279, 100.3132
1136.761, 107.8725
1137.243, 112.5610
1137.725, 113.2666
1138.207, 105.9012
1138.689, 95.38354
1139.172, 90.92685
1139.654, 92.93521
1140.136, 92.57721
1140.618, 89.13705
1141.100, 81.76950
1141.582, 61.55573
1142.064, 44.77097
1142.546, 49.65997
1143.028, 69.87585
1143.510, 71.21091
1143.993, 49.74173
1144.475, 39.49438
1144.957, 49.87769
1145.439, 63.89459
1145.921, 62.93661
1146.403, 55.99634
1146.885, 52.35779
1147.367, 53.33423
1147.850, 54.93268
1148.332, 58.15314
1148.814, 57.17340
1149.296, 48.49222
1149.778, 38.37680
1150.260, 36.76797
1150.742, 39.23257
1151.224, 37.76016
1151.707, 28.21866
1152.189, 29.26996
1152.671, 47.83508
1153.153, 62.11362
1153.635, 61.18860
1154.117, 50.98203
1154.599, 42.21777
1155.081, 34.99725
1155.563, 29.86969
1156.046, 28.17749
1156.528, 25.38995
1157.010, 19.21530
1157.492, 15.06458
1157.974, 18.00531
1158.456, 25.12549
1158.938, 25.75595
1159.420, 22.02008
1159.902, 20.68124
1160.385, 27.72391
1160.867, 33.02472
1161.349, 33.92734
1161.831, 33.19543
1162.313, 34.45575
1162.795, 36.39188
1163.277, 28.96365
1163.759, 13.99969
1164.242, 2.545319
1164.724, 0.3641970
1165.206, 2.773682
1165.688, 11.91605
1166.170, 21.48883
1166.652, 23.82855
1167.134, 19.46210
1167.616, 12.54633
1168.099, 3.647705
1168.581, 2.776337
1169.063, 3.516693
1169.545, 1.539825
1170.027, 4.713837
1170.509, 11.13400
1170.991, 8.682678
1171.473, 1.969055
1171.955, 0.7147830
1172.438, 19.23819
1172.920, 32.52054
1173.402, 20.79953
1173.884, 2.732941
1174.366, 13.08014
1174.848, 25.30374
1175.330, 29.46310
1175.812, 25.44843
1176.294, 22.63214
1176.777, 22.88156
1177.259, 21.25714
1177.741, 9.112457
1178.223, 2.608337
1178.705, 3.990356
1179.187, 2.799225
1179.669, 7.537506
1180.151, 10.26886
1180.634, 10.37323
1181.116, 7.216888
1181.598, 3.814789
1182.080, 0.5237730
1182.562, 0.2427060
1183.044, 9.368134
1183.526, 6.526581
1184.008, 5.428864
1184.490, 11.74460
1184.973, 2.067505
1185.455, 9.169861
1185.937, 16.80829
1186.419, 1.975677
1186.901, 17.13275
1187.383, 18.55450
1187.865, 0.3485410
1188.347, 13.19916
1188.829, 19.73795
1189.312, 21.14923
1189.794, 16.53143
1190.276, 9.854584
1190.758, 3.772369
1191.240, 0.7416990
1191.722, 2.092010
1192.204, 0.3755190
1192.686, 2.290466
1193.169, 3.398376
1193.651, 5.971954
1194.133, 12.87698
1194.615, 19.00034
1195.097, 18.03354
1195.579, 12.46527
1196.061, 4.710815
1196.543, 7.283234
1197.026, 9.418793
1197.508, 0.2039790
1197.990, 8.408722
1198.472, 5.872467
1198.954, 0.1396480
1199.436, 1.621033
1199.918, 5.873444
1200.400, 5.340790
1200.882, 2.679840
1201.365, 10.38550
1201.847, 17.99750
1202.329, 22.99377
1202.811, 24.11484
1203.293, 21.26703
1203.775, 10.62531
1204.257, 3.048828
1204.739, 10.60556
1205.221, 9.049072
1205.704, 6.508728
1206.186, 2.842651
1206.668, 0.8772580
1207.150, 4.119751
1207.632, 6.797546
1208.114, 7.477478
1208.596, 7.783020
1209.078, 12.44742
1209.561, 28.29901
1210.043, 27.82367
1210.525, 7.147064
1211.007, 12.43173
1211.489, 12.47479
1211.971, 4.360779
1212.453, 1.193604
1212.935, 4.530182
1213.417, 6.854523
1213.900, 8.374664
1214.382, 11.28983
1214.864, 15.34134
1215.346, 20.11981
1215.828, 26.58823
1216.310, 31.91769
1216.792, 31.55405
1217.274, 27.68594
1217.756, 27.35767
1218.239, 32.67197
1218.721, 34.08548
1219.203, 30.41110
1219.685, 26.69568
1220.167, 27.43491
1220.649, 30.16370
1221.131, 34.85806
1221.613, 39.24988
1222.096, 36.62521
1222.578, 25.04929
1223.060, 16.73993
1223.542, 12.32626
1224.024, 13.00333
1224.506, 22.46805
1224.988, 34.95667
1225.470, 49.12128
1225.953, 61.53278
1226.435, 61.63861
1226.917, 46.17276
1227.399, 41.40341
1227.881, 51.23361
1228.363, 62.69879
1228.845, 65.86411
1229.327, 64.72830
1229.809, 60.01578
1230.292, 53.98755
1230.774, 53.48364
1231.256, 59.32208
1231.738, 59.91483
1232.220, 53.31927
1232.702, 45.95108
1233.184, 42.98801
1233.666, 41.93344
1234.148, 40.19083
1234.631, 38.85229
1235.113, 42.45001
1235.595, 51.39581
1236.077, 53.52997
1236.559, 46.87811
1237.041, 40.30023
1237.523, 42.90854
1238.005, 44.85477
1238.488, 36.54410
1238.970, 39.70004
1239.452, 39.78580
1239.934, 37.19415
1240.416, 42.40079
1240.898, 38.58322
1241.380, 36.38037
1241.862, 48.50909
1242.344, 56.67010
1242.827, 49.43671
1243.309, 35.24329
1243.791, 31.88834
1244.273, 37.94199
1244.755, 39.31717
1245.237, 34.57953
1245.719, 32.21448
1246.201, 45.90768
1246.683, 55.19443
1247.166, 48.64188
1247.648, 57.33154
1248.130, 40.06863
1248.612, 53.44223
1249.094, 55.83511
1249.576, 46.04272
1250.058, 39.52484
1250.540, 49.41125
1251.023, 54.39493
1251.505, 45.72812
1251.987, 33.14023
1252.469, 29.29239
1252.951, 31.71362
1253.433, 35.63379
1253.915, 39.62994
1254.397, 40.82761
1254.880, 35.62073
1255.362, 31.01688
1255.844, 27.35010
1256.326, 26.74521
1256.808, 37.25348
1257.290, 49.42560
1257.772, 43.57516
1258.254, 19.42126
1258.736, 6.791199
1259.219, 11.89456
1259.701, 23.14429
1260.183, 41.13791
1260.665, 55.16241
1261.147, 45.64853
1261.629, 29.32822
1262.111, 28.73734
1262.593, 42.92151
1263.075, 49.85226
1263.558, 46.63541
1264.040, 45.35226
1264.522, 48.61160
1265.004, 50.06995
1265.486, 37.95224
1265.968, 25.69516
1266.450, 30.38342
1266.932, 23.59708
1267.415, 19.86166
1267.897, 26.38251
1268.379, 17.17242
1268.861, 23.18433
1269.343, 31.34872
1269.825, 36.16034
1270.307, 34.66180
1270.789, 15.97095
1271.271, 7.312866
1271.754, 5.315674
1272.236, 19.91766
1272.718, 30.10205
1273.200, 21.11392
1273.682, 13.04532
1274.164, 21.94589
1274.646, 30.58704
1275.128, 31.43005
1275.610, 27.90179
1276.093, 23.16074
1276.575, 18.75388
1277.057, 24.45261
1277.539, 39.68237
1278.021, 48.04266
1278.503, 37.41858
1278.985, 23.83368
1279.467, 7.888916
1279.950, 4.101501
1280.432, 2.299652
1280.914, 8.142670
1281.396, 19.75513
1281.878, 30.68204
1282.360, 34.96664
1282.842, 27.33725
1283.324, 19.02258
1283.807, 9.861511
1284.289, 4.906097
1284.771, 13.87796
1285.253, 27.12552
1285.735, 31.32828
1286.217, 28.08807
1286.699, 25.55475
1287.181, 18.54785
1287.663, 20.18292
1288.146, 25.92886
1288.628, 30.65433
1289.110, 29.09305
1289.592, 25.55835
1290.074, 22.04831
1290.556, 19.98453
1291.038, 21.72531
1291.520, 21.87204
1292.002, 24.74979
1292.485, 24.52982
1292.967, 23.24652
1293.449, 20.07617
1293.931, 18.49570
1294.413, 15.00436
1294.895, 11.71048
1295.377, 10.66150
1295.859, 11.63559
1296.342, 15.98184
1296.824, 22.66403
1297.306, 26.63596
1297.788, 23.46771
1298.270, 17.73788
1298.752, 7.401733
1299.234, 0.1094060
1299.716, 5.377136
1300.198, 17.41623
1300.681, 18.20074
1301.163, 8.008270
1301.645, 1.422638
1302.127, 0.0000000E+00
##END=



