##NAMES=Litharge
##RRUFFID=R060959
##IDEAL CHEMISTRY=PbO
##LOCALITY=Langban, Filipstad, Varmland, Sweden
##OWNER=RRUFF
##SOURCE=Michael Scott
##DESCRIPTION=Red to red-orange crusts associated with black jacobsite and calcite
##STATUS=The identification of this mineral is not yet confirmed.
##URL=rruff.info/R060959
122.9694, 0.0000000E+00
123.4515, 63.55103
123.9336, 45.20288
124.4157, 15.03076
124.8979, 27.13867
125.3800, 1.039063
125.8621, 66.00195
126.3442, 153.2314
126.8263, 240.6450
127.3084, 327.1699
127.7905, 439.2065
128.2727, 580.9824
128.7548, 758.7041
129.2369, 988.0410
129.7190, 1262.968
130.2011, 1595.908
130.6832, 2006.244
131.1654, 2494.194
131.6475, 3078.844
132.1296, 3752.195
132.6117, 4523.140
133.0938, 5465.840
133.5759, 6624.079
134.0581, 7990.697
134.5402, 9454.172
135.0223, 11011.97
135.5044, 12697.96
135.9865, 14551.50
136.4686, 16568.42
136.9508, 18708.09
137.4329, 20972.90
137.9150, 23348.68
138.3971, 25782.57
138.8792, 28289.75
139.3613, 30850.54
139.8434, 33420.62
140.3256, 36000.12
140.8077, 38645.56
141.2898, 41403.13
141.7719, 44207.06
142.2540, 47271.80
142.7361, 50661.11
143.2183, 54347.61
143.7004, 58056.66
144.1825, 62266.97
144.6646, 65925.06
145.1467, 68313.42
145.6288, 69933.52
146.1110, 69432.20
146.5931, 66237.48
147.0752, 60176.59
147.5573, 53783.17
148.0394, 46443.15
148.5215, 39154.21
149.0037, 32822.45
149.4858, 27681.87
149.9679, 23334.44
150.4500, 19727.59
150.9321, 16977.56
151.4142, 14667.05
151.8964, 12948.94
152.3785, 11632.06
152.8606, 10456.99
153.3427, 9431.112
153.8248, 8511.988
154.3069, 7690.476
154.7890, 6962.791
155.2712, 6318.549
155.7533, 5772.450
156.2354, 5311.276
156.7175, 4894.077
157.1996, 4511.559
157.6817, 4171.000
158.1639, 3873.216
158.6460, 3639.571
159.1281, 3430.211
159.6102, 3231.896
160.0923, 3041.337
160.5744, 2867.455
161.0566, 2706.784
161.5387, 2551.233
162.0208, 2400.972
162.5029, 2244.190
162.9850, 2099.232
163.4671, 1975.761
163.9493, 1869.707
164.4314, 1764.756
164.9135, 1654.839
165.3956, 1548.719
165.8777, 1455.342
166.3598, 1374.114
166.8420, 1296.748
167.3241, 1223.064
167.8062, 1155.578
168.2883, 1086.603
168.7704, 1013.125
169.2525, 942.9058
169.7346, 880.8398
170.2168, 833.5220
170.6989, 796.3408
171.1810, 766.3696
171.6631, 739.7520
172.1452, 710.4121
172.6273, 660.4277
173.1095, 598.6416
173.5916, 548.0220
174.0737, 523.0659
174.5558, 512.6187
175.0379, 508.1343
175.5201, 515.4341
176.0022, 521.2329
176.4843, 511.0894
176.9664, 488.0107
177.4485, 462.1963
177.9306, 435.4600
178.4128, 408.2603
178.8949, 382.8745
179.3770, 362.3994
179.8591, 347.2959
180.3412, 333.9712
180.8233, 307.9165
181.3055, 279.5405
181.7876, 241.4990
182.2697, 199.9321
182.7518, 171.3569
183.2339, 162.8550
183.7160, 164.8179
184.1982, 164.6392
184.6803, 162.0981
185.1624, 152.7686
185.6445, 128.0190
186.1266, 91.65771
186.6087, 59.26514
187.0908, 34.68457
187.5730, 16.97949
188.0551, 5.991211
188.5372, 1.817871
189.0193, 9.6680000E-02
189.5014, 0.9453130
189.9835, 1.918457
190.4657, 9.432129
190.9478, 29.79785
191.4299, 58.12988
191.9120, 71.69238
192.3941, 67.99902
192.8762, 61.20801
193.3584, 70.07422
193.8405, 94.27051
194.3226, 114.7134
194.8047, 125.5938
195.2868, 127.0327
195.7689, 116.1230
196.2511, 88.09912
196.7332, 59.90332
197.2153, 60.33398
197.6974, 91.96973
198.1795, 118.9165
198.6616, 124.0181
199.1438, 107.2588
199.6259, 97.77393
200.1080, 97.56055
200.5901, 101.2090
201.0722, 98.85449
201.5543, 89.32471
202.0364, 80.88477
202.5186, 79.24561
203.0007, 85.76709
203.4828, 85.44824
203.9649, 77.22656
204.4470, 63.38135
204.9291, 47.25635
205.4113, 27.64551
205.8934, 10.66992
206.3755, 1.324219
206.8576, 8.599609
207.3397, 7.227051
207.8218, 7.444824
208.3040, 27.79932
208.7861, 32.25488
209.2682, 15.09424
209.7503, 3.323242
210.2324, 12.49170
210.7145, 11.69531
211.1967, 4.361816
211.6788, 13.43896
212.1609, 36.00732
212.6430, 42.66016
213.1251, 26.58203
213.6072, 8.226074
214.0894, 0.6245120
214.5715, 7.815430
215.0536, 12.61670
215.5357, 12.98584
216.0178, 9.980957
216.4999, 7.789551
216.9820, 6.330566
217.4642, 6.334961
217.9463, 9.932129
218.4284, 21.49072
218.9105, 24.28613
219.3926, 12.25977
219.8747, 10.99219
220.3569, 22.24365
220.8390, 15.93701
221.3211, 5.476563
221.8032, 0.6796880
222.2853, 4.398438
222.7674, 7.460449
223.2496, 8.434082
223.7317, 7.672363
224.2138, 8.199707
224.6959, 9.949219
225.1780, 13.33008
225.6601, 20.07568
226.1423, 35.79199
226.6244, 42.10791
227.1065, 31.95654
227.5886, 6.253906
228.0707, 7.878906
228.5528, 8.125977
229.0350, 0.2998050
229.5171, 14.59424
229.9992, 42.53955
230.4813, 60.74805
230.9634, 63.36133
231.4455, 50.36035
231.9276, 36.74316
232.4098, 18.46191
232.8919, 3.672852
233.3740, 1.288574
233.8561, 17.83154
234.3382, 34.52686
234.8203, 50.89502
235.3025, 67.28906
235.7846, 69.06055
236.2667, 46.17383
236.7488, 18.33643
237.2309, 6.134277
237.7130, 17.70166
238.1952, 30.11816
238.6773, 38.32715
239.1594, 41.81885
239.6415, 51.17139
240.1236, 71.06543
240.6057, 92.83984
241.0879, 107.2866
241.5700, 110.7393
242.0521, 113.2939
242.5342, 116.8188
243.0163, 121.3784
243.4984, 125.9395
243.9806, 132.2690
244.4627, 136.7881
244.9448, 134.1401
245.4269, 115.6538
245.9090, 105.3193
246.3911, 109.9517
246.8732, 130.8516
247.3554, 149.4248
247.8375, 166.4009
248.3196, 180.0649
248.8017, 187.5000
249.2838, 183.7778
249.7659, 182.2979
250.2481, 188.3643
250.7302, 203.4106
251.2123, 211.2959
251.6944, 210.3262
252.1765, 203.0410
252.6586, 191.0161
253.1408, 168.5508
253.6229, 155.2842
254.1050, 157.9482
254.5871, 177.4121
255.0692, 198.4878
255.5513, 224.8037
256.0334, 246.3940
256.5156, 251.8037
256.9977, 233.6162
257.4798, 217.7905
257.9619, 208.2378
258.4440, 204.4429
258.9261, 212.1108
259.4083, 236.6133
259.8904, 266.9580
260.3725, 290.2080
260.8546, 304.2974
261.3367, 315.1265
261.8188, 323.4014
262.3010, 329.3398
262.7831, 337.6465
263.2652, 349.5942
263.7473, 362.4097
264.2294, 372.0879
264.7115, 375.2354
265.1937, 383.5015
265.6758, 401.0918
266.1579, 427.1191
266.6400, 448.2100
267.1221, 466.5713
267.6042, 479.3906
268.0864, 479.3975
268.5685, 459.6338
269.0506, 449.6504
269.5327, 458.8936
270.0148, 485.7202
270.4969, 504.3779
270.9791, 513.8105
271.4612, 521.4292
271.9433, 535.2744
272.4254, 556.8169
272.9075, 572.9683
273.3896, 579.0234
273.8718, 576.6743
274.3539, 579.7451
274.8360, 589.4561
275.3181, 601.4961
275.8002, 612.4331
276.2823, 622.0205
276.7645, 628.4507
277.2466, 631.7515
277.7287, 632.8750
278.2108, 633.1250
278.6929, 631.3584
279.1750, 628.5103
279.6572, 624.4424
280.1393, 619.1992
280.6214, 620.3970
281.1035, 633.7114
281.5856, 653.2695
282.0677, 652.4854
282.5499, 627.6958
283.0320, 601.5864
283.5141, 595.9648
283.9962, 610.9160
284.4783, 623.7173
284.9604, 630.5063
285.4425, 630.4272
285.9247, 620.5220
286.4068, 600.6802
286.8889, 583.2915
287.3710, 577.0112
287.8531, 581.9712
288.3352, 596.7642
288.8174, 624.2476
289.2995, 656.8906
289.7816, 681.8560
290.2637, 698.4106
290.7458, 702.0361
291.2279, 678.1294
291.7101, 635.9844
292.1922, 616.6191
292.6743, 632.0679
293.1564, 663.9985
293.6385, 681.3340
294.1206, 684.1045
294.6028, 682.9033
295.0849, 686.3066
295.5670, 693.3330
296.0491, 697.3027
296.5312, 696.4956
297.0133, 693.5532
297.4955, 690.2559
297.9776, 687.7793
298.4597, 690.7632
298.9418, 704.9561
299.4239, 725.8008
299.9060, 743.7104
300.3882, 755.9341
300.8703, 769.7520
301.3524, 795.5933
301.8345, 830.3887
302.3166, 863.7349
302.7987, 891.1196
303.2809, 912.7236
303.7630, 926.1719
304.2451, 928.5444
304.7272, 936.3975
305.2093, 972.6265
305.6914, 1026.676
306.1736, 1071.845
306.6557, 1087.008
307.1378, 1092.018
307.6199, 1106.416
308.1020, 1132.110
308.5841, 1164.342
309.0663, 1206.422
309.5484, 1252.481
310.0305, 1291.087
310.5126, 1312.126
310.9947, 1328.447
311.4768, 1347.123
311.9590, 1368.395
312.4411, 1395.664
312.9232, 1428.105
313.4053, 1468.476
313.8874, 1519.395
314.3695, 1600.154
314.8517, 1677.427
315.3337, 1729.137
315.8159, 1756.135
316.2980, 1786.530
316.7801, 1829.416
317.2622, 1883.121
317.7443, 1946.490
318.2264, 2020.039
318.7086, 2101.693
319.1907, 2195.679
319.6728, 2299.944
320.1549, 2399.271
320.6370, 2478.633
321.1191, 2557.764
321.6013, 2650.266
322.0834, 2767.694
322.5655, 2887.270
323.0476, 2999.869
323.5297, 3109.560
324.0118, 3233.267
324.4940, 3379.322
324.9761, 3535.736
325.4582, 3696.890
325.9403, 3865.591
326.4224, 4034.345
326.9045, 4200.003
327.3867, 4365.690
327.8688, 4540.059
328.3509, 4744.501
328.8330, 4938.824
329.3151, 5108.876
329.7972, 5239.279
330.2794, 5378.795
330.7615, 5534.857
331.2436, 5699.265
331.7257, 5856.896
332.2078, 6021.134
332.6899, 6161.659
333.1721, 6264.719
333.6542, 6319.777
334.1363, 6386.195
334.6184, 6477.915
335.1005, 6569.524
335.5826, 6630.137
336.0648, 6656.116
336.5469, 6659.928
337.0290, 6642.589
337.5111, 6603.867
337.9932, 6557.308
338.4753, 6508.233
338.9575, 6440.498
339.4396, 6337.847
339.9217, 6197.838
340.4038, 6026.642
340.8859, 5814.381
341.3680, 5574.059
341.8502, 5357.126
342.3323, 5171.707
342.8144, 4985.810
343.2965, 4776.179
343.7786, 4542.562
344.2607, 4313.712
344.7429, 4091.041
345.2250, 3873.146
345.7071, 3653.733
346.1892, 3430.769
346.6713, 3221.621
347.1534, 3031.062
347.6355, 2859.393
348.1176, 2706.984
348.5998, 2575.208
349.0819, 2454.824
349.5640, 2335.950
350.0461, 2216.887
350.5282, 2097.680
351.0103, 1968.331
351.4925, 1840.257
351.9746, 1735.193
352.4567, 1657.188
352.9388, 1586.247
353.4209, 1500.751
353.9030, 1407.088
354.3852, 1320.066
354.8673, 1251.825
355.3494, 1191.922
355.8315, 1129.126
356.3136, 1063.358
356.7957, 1002.366
357.2779, 959.3442
357.7600, 923.5088
358.2421, 880.7148
358.7242, 815.8120
359.2063, 748.8228
359.6884, 691.7100
360.1706, 643.6914
360.6527, 600.0835
361.1348, 553.1895
361.6169, 512.6680
362.0990, 487.7769
362.5811, 494.7451
363.0633, 496.0215
363.5454, 476.6943
364.0275, 442.2515
364.5096, 408.4453
364.9917, 376.3262
365.4738, 347.9736
365.9560, 324.3477
366.4381, 306.3091
366.9202, 292.0645
367.4023, 285.6685
367.8844, 282.2046
368.3665, 273.6304
368.8487, 259.0220
369.3308, 239.7100
369.8129, 212.4834
370.2950, 173.2354
370.7771, 149.4565
371.2592, 148.3003
371.7414, 157.4727
372.2235, 165.5146
372.7056, 175.1724
373.1877, 178.1255
373.6698, 171.1660
374.1519, 155.1177
374.6341, 139.9258
375.1162, 124.8618
375.5983, 110.5664
376.0804, 97.59961
376.5625, 85.06592
377.0446, 79.89746
377.5267, 85.88672
378.0089, 97.76904
378.4910, 100.1562
378.9731, 92.18359
379.4552, 81.41260
379.9373, 71.54492
380.4194, 62.61768
380.9016, 55.86865
381.3837, 52.24072
381.8658, 48.63379
382.3479, 38.28564
382.8300, 22.48438
383.3121, 10.21045
383.7943, 5.482422
384.2764, 7.336914
384.7585, 16.03857
385.2406, 31.91260
385.7227, 46.41016
386.2048, 50.50391
386.6870, 46.79834
387.1691, 40.45215
387.6512, 29.93799
388.1333, 20.31885
388.6154, 17.45557
389.0975, 20.59326
389.5797, 25.16846
390.0618, 30.24414
390.5439, 34.32520
391.0260, 36.13428
391.5081, 36.31641
391.9902, 32.71533
392.4724, 21.48535
392.9545, 5.625977
393.4366, 8.061523
393.9187, 14.55371
394.4008, 19.60449
394.8829, 26.90967
395.3651, 37.87451
395.8472, 46.42529
396.3293, 52.09668
396.8114, 54.15381
397.2935, 51.73340
397.7756, 35.00732
398.2578, 23.81543
398.7399, 26.99414
399.2220, 46.16553
399.7041, 53.96875
400.1862, 38.55225
400.6683, 20.65771
401.1505, 15.37549
401.6326, 36.61133
402.1147, 46.08154
402.5968, 36.58447
403.0789, 13.53271
403.5610, 4.690430
404.0432, 19.51221
404.5253, 26.85303
405.0074, 21.62842
405.4895, 0.5546880
405.9716, 11.23291
406.4537, 6.627441
406.9359, 3.734863
407.4180, 4.457031
407.9001, 5.284668
408.3822, 15.74805
408.8643, 24.71826
409.3464, 31.74365
409.8285, 34.45264
410.3106, 32.71729
410.7928, 27.38574
411.2749, 15.24463
411.7570, 0.8647460
412.2391, 9.069336
412.7212, 3.591797
413.2033, 7.250977
413.6855, 11.12305
414.1676, 9.114746
414.6497, 6.917969
415.1318, 15.17627
415.6139, 22.71973
416.0960, 10.68604
416.5782, 29.76807
417.0603, 65.49072
417.5424, 66.03662
418.0245, 44.98438
418.5066, 26.37109
418.9887, 14.08203
419.4709, 11.69922
419.9530, 28.51611
420.4351, 65.30469
420.9172, 89.18066
421.3993, 77.54395
421.8814, 53.58984
422.3636, 36.54004
422.8457, 35.75391
423.3278, 35.98633
423.8099, 34.98730
424.2920, 33.11279
424.7741, 32.02930
425.2563, 31.17188
425.7384, 31.79590
426.2205, 34.68848
426.7026, 41.16016
427.1847, 46.59766
427.6668, 50.74170
428.1490, 53.88525
428.6311, 56.25293
429.1132, 57.24365
429.5953, 59.08984
430.0774, 64.61914
430.5595, 72.81543
431.0417, 66.37207
431.5238, 40.20850
432.0059, 15.30127
432.4880, 12.81152
432.9701, 32.16016
433.4522, 51.51123
433.9344, 68.54980
434.4165, 82.10693
434.8986, 89.44775
435.3807, 90.94971
435.8628, 90.39111
436.3449, 86.56299
436.8271, 82.95312
437.3092, 89.50439
437.7913, 108.4668
438.2734, 125.5591
438.7555, 122.9214
439.2376, 109.2920
439.7197, 100.8721
440.2018, 107.5508
440.6840, 119.2891
441.1661, 132.9312
441.6482, 146.9956
442.1303, 152.0664
442.6124, 134.5234
443.0945, 111.1431
443.5767, 94.26709
444.0588, 82.93994
444.5409, 83.84277
445.0230, 111.6333
445.5051, 152.2290
445.9872, 176.1753
446.4694, 168.2363
446.9515, 153.5908
447.4336, 136.7578
447.9157, 115.6040
448.3978, 105.0298
448.8799, 110.8301
449.3621, 122.6221
449.8442, 131.0459
450.3263, 133.8037
450.8084, 137.7168
451.2905, 143.5757
451.7726, 151.2544
452.2548, 162.1450
452.7369, 178.0259
453.2190, 189.6377
453.7011, 189.2129
454.1832, 177.4355
454.6653, 173.2295
455.1475, 178.4883
455.6296, 188.4058
456.1117, 196.3755
456.5938, 201.7183
457.0759, 204.7393
457.5580, 207.3037
458.0402, 209.5234
458.5223, 209.8442
459.0044, 207.1699
459.4865, 200.0161
459.9686, 182.8555
460.4507, 166.0327
460.9329, 164.9233
461.4150, 190.6172
461.8971, 210.8242
462.3792, 196.9917
462.8613, 163.7661
463.3434, 139.6660
463.8256, 142.6821
464.3077, 151.7505
464.7898, 157.9736
465.2719, 160.2852
465.7540, 160.0591
466.2361, 157.3701
466.7183, 152.1260
467.2004, 144.1621
467.6825, 121.4233
468.1646, 112.6719
468.6467, 128.1826
469.1288, 159.4282
469.6110, 178.2681
470.0930, 181.5356
470.5752, 176.2061
471.0573, 162.6265
471.5394, 139.5352
472.0215, 120.4219
472.5036, 105.1089
472.9857, 93.53516
473.4679, 87.33154
473.9500, 87.63086
474.4321, 89.77832
474.9142, 90.97217
475.3963, 93.27734
475.8784, 104.9907
476.3606, 125.2607
476.8427, 140.3379
477.3248, 135.4155
477.8069, 120.1211
478.2890, 113.7266
478.7711, 121.2173
479.2533, 124.9590
479.7354, 100.2842
480.2175, 62.80420
480.6996, 41.11084
481.1817, 55.26221
481.6638, 75.58008
482.1460, 88.02832
482.6281, 93.57080
483.1102, 94.73242
483.5923, 86.37500
484.0744, 77.59326
484.5565, 74.33838
485.0387, 79.84082
485.5208, 86.24561
486.0029, 97.51025
486.4850, 107.4556
486.9671, 105.4038
487.4492, 79.59277
487.9314, 60.49463
488.4135, 57.94238
488.8956, 71.47070
489.3777, 79.19971
489.8598, 79.97266
490.3419, 77.36279
490.8241, 71.45215
491.3062, 60.95850
491.7883, 63.76611
492.2704, 86.89209
492.7525, 114.7236
493.2346, 118.3745
493.7168, 99.94482
494.1989, 80.19434
494.6810, 67.31152
495.1631, 61.17773
495.6452, 63.97656
496.1273, 75.31201
496.6095, 84.18066
497.0916, 80.50684
497.5737, 69.79248
498.0558, 58.12305
498.5379, 45.41699
499.0201, 35.21045
499.5022, 31.15137
499.9843, 31.00146
500.4664, 30.35059
500.9485, 26.57812
501.4306, 23.42041
501.9127, 20.95654
502.3948, 18.56494
502.8770, 23.18115
503.3591, 45.12842
503.8412, 67.23242
504.3233, 77.69873
504.8054, 69.96094
505.2875, 62.76514
505.7697, 56.77637
506.2518, 51.73193
506.7339, 42.11670
507.2160, 20.39941
507.6981, 25.89453
508.1802, 96.04004
508.6624, 216.1660
509.1445, 258.6963
509.6266, 217.0342
510.1087, 146.8223
510.5908, 89.56689
511.0729, 45.64062
511.5551, 17.30518
512.0372, 8.046875
512.5193, 8.327148
513.0014, 11.72021
513.4835, 16.09473
513.9656, 16.50195
514.4478, 4.311523
514.9299, 8.264648
515.4120, 13.11377
515.8941, 9.824219
516.3762, 0.6821290
516.8583, 18.46094
517.3405, 39.94287
517.8226, 58.07471
518.3047, 75.46338
518.7868, 84.46729
519.2689, 80.43652
519.7510, 67.94775
520.2332, 54.83252
520.7153, 34.27490
521.1974, 24.95459
521.6795, 37.88184
522.1616, 72.90967
522.6437, 85.87744
523.1259, 70.89600
523.6080, 49.71533
524.0901, 41.87891
524.5722, 46.93799
525.0543, 42.59766
525.5364, 22.50439
526.0186, 1.617676
526.5007, 8.895508
526.9828, 37.66992
527.4649, 59.13477
527.9470, 53.17822
528.4291, 36.15234
528.9113, 28.21240
529.3934, 28.55029
529.8755, 28.03809
530.3576, 16.16064
530.8397, 3.642090
531.3218, 1.002930
531.8040, 15.34863
532.2861, 27.75635
532.7682, 31.80664
533.2503, 30.15967
533.7324, 26.51855
534.2145, 13.25586
534.6967, 7.524414
535.1788, 17.63818
535.6609, 41.09619
536.1430, 51.93555
536.6251, 48.33594
537.1072, 35.04004
537.5894, 8.569824
538.0715, 36.17334
538.5536, 53.24609
539.0357, 36.14990
539.5178, 4.586426
539.9999, 21.52881
540.4821, 41.03857
540.9642, 45.91357
541.4463, 26.52588
541.9284, 1.387695
542.4105, 14.08594
542.8926, 12.61328
543.3748, 1.864746
543.8569, 28.36133
544.3390, 58.66602
544.8211, 67.31689
545.3032, 50.01318
545.7853, 31.76807
546.2675, 25.20020
546.7495, 23.82861
547.2316, 21.27344
547.7137, 9.768555
548.1959, 4.474121
548.6780, 15.93555
549.1601, 35.84375
549.6422, 38.99463
550.1243, 10.63281
550.6064, 12.84473
551.0886, 18.96240
551.5707, 7.219238
552.0528, 5.474609
552.5349, 20.49609
553.0170, 32.36377
553.4991, 34.88818
553.9813, 28.63281
554.4634, 22.34521
554.9455, 16.76367
555.4276, 12.60547
555.9097, 9.693848
556.3918, 8.837402
556.8740, 12.81494
557.3561, 31.30615
557.8382, 49.72705
558.3203, 50.84180
558.8024, 36.97412
559.2845, 23.98926
559.7667, 17.73779
560.2488, 16.90186
560.7309, 22.65088
561.2130, 40.29150
561.6951, 49.53125
562.1772, 35.62012
562.6594, 15.94189
563.1415, 11.35693
563.6236, 37.93311
564.1057, 53.54053
564.5878, 49.57129
565.0699, 31.17627
565.5521, 15.69238
566.0342, 1.802246
566.5163, 3.877441
566.9984, 6.210938
567.4805, 29.40869
567.9626, 44.04639
568.4448, 50.19727
568.9269, 48.42773
569.4090, 31.36914
569.8911, 7.487793
570.3732, 3.464355
570.8553, 5.489746
571.3375, 21.84131
571.8196, 38.90332
572.3017, 54.47021
572.7838, 63.98193
573.2659, 66.65381
573.7480, 63.64990
574.2302, 51.77441
574.7123, 32.23730
575.1944, 19.20605
575.6765, 19.22266
576.1586, 22.89307
576.6407, 26.23340
577.1229, 29.51221
577.6050, 32.12158
578.0871, 34.25928
578.5692, 35.54395
579.0513, 36.09961
579.5334, 36.42188
580.0156, 31.96777
580.4977, 17.81738
580.9798, 3.568359
581.4619, 15.28027
581.9440, 48.96143
582.4261, 76.25586
582.9083, 72.18994
583.3904, 56.61865
583.8725, 60.45166
584.3546, 83.66113
584.8367, 101.5454
585.3188, 93.11816
585.8010, 75.33496
586.2831, 63.30518
586.7652, 62.26904
587.2473, 61.88477
587.7294, 58.37012
588.2115, 54.20264
588.6937, 53.17236
589.1758, 61.78760
589.6579, 64.60254
590.1400, 55.52246
590.6221, 38.55078
591.1042, 31.94580
591.5864, 38.19580
592.0685, 46.07324
592.5506, 50.22705
593.0327, 51.34033
593.5148, 53.26221
593.9969, 55.85156
594.4791, 60.18359
594.9612, 69.63037
595.4433, 81.05518
595.9254, 85.89600
596.4075, 83.91260
596.8896, 80.19336
597.3718, 77.23633
597.8539, 73.88623
598.3360, 69.82373
598.8181, 63.83447
599.3002, 58.20361
599.7823, 51.98193
600.2645, 45.48145
600.7466, 44.18652
601.2287, 54.86084
601.7108, 64.45117
602.1929, 66.48096
602.6750, 58.91162
603.1572, 58.20850
603.6393, 67.35303
604.1214, 76.73047
604.6035, 74.24756
605.0856, 60.68506
605.5677, 56.68408
606.0499, 66.72656
606.5320, 83.36426
607.0141, 99.49756
607.4962, 113.6455
607.9783, 121.9126
608.4604, 117.0103
608.9425, 108.9751
609.4246, 106.8066
609.9067, 109.2681
610.3889, 111.6128
610.8710, 110.4688
611.3531, 109.8057
611.8352, 113.3525
612.3173, 124.0894
612.7994, 126.0835
613.2816, 111.2383
613.7637, 94.43652
614.2458, 88.08008
614.7279, 97.13232
615.2100, 99.45020
615.6921, 90.78662
616.1743, 79.23975
616.6564, 80.76025
617.1385, 94.55078
617.6206, 104.5542
618.1027, 102.2046
618.5848, 96.30615
619.0670, 102.9521
619.5491, 119.8813
620.0312, 136.9233
620.5133, 153.7524
620.9954, 164.5073
621.4775, 160.4678
621.9597, 140.0322
622.4418, 125.2388
622.9239, 128.0601
623.4060, 136.1484
623.8881, 141.1538
624.3702, 142.9951
624.8524, 140.2012
625.3345, 128.6938
625.8166, 115.5195
626.2987, 111.2939
626.7808, 117.7832
627.2629, 125.4043
627.7451, 134.0356
628.2272, 139.3052
628.7093, 132.8564
629.1914, 116.2334
629.6735, 101.4551
630.1556, 99.12842
630.6378, 100.6157
631.1199, 90.69824
631.6020, 70.72852
632.0841, 58.08789
632.5662, 69.07617
633.0483, 87.63184
633.5305, 103.5527
634.0126, 117.9058
634.4947, 120.3350
634.9768, 95.25537
635.4589, 64.62012
635.9410, 50.10010
636.4232, 59.20898
636.9053, 68.05518
637.3874, 73.76562
637.8695, 78.46387
638.3516, 90.95410
638.8337, 112.4600
639.3159, 118.0923
639.7980, 88.40576
640.2801, 43.62598
640.7622, 32.65381
641.2443, 51.45459
641.7264, 72.62109
642.2086, 80.42480
642.6907, 81.16309
643.1728, 79.96240
643.6549, 77.33789
644.1370, 73.87061
644.6191, 69.33105
645.1013, 64.45508
645.5834, 59.35547
646.0655, 47.48047
646.5476, 47.34326
647.0297, 66.87158
647.5118, 91.96680
647.9940, 102.1665
648.4761, 93.24072
648.9582, 88.42480
649.4403, 93.59473
649.9224, 103.5786
650.4045, 107.6157
650.8867, 106.1367
651.3688, 102.5059
651.8509, 97.13477
652.3330, 91.20312
652.8151, 84.62842
653.2972, 78.17090
653.7794, 76.36865
654.2615, 90.57910
654.7436, 103.1826
655.2257, 98.41797
655.7078, 67.69678
656.1899, 53.33691
656.6721, 80.52441
657.1542, 113.8105
657.6363, 125.2407
658.1184, 105.2715
658.6005, 85.54883
659.0826, 65.52686
659.5648, 49.91943
660.0469, 47.88623
660.5290, 58.50635
661.0111, 68.70947
661.4932, 75.66016
661.9753, 79.30029
662.4575, 79.02881
662.9396, 75.22998
663.4217, 69.06348
663.9038, 57.18311
664.3859, 46.93066
664.8680, 45.34668
665.3502, 51.43848
665.8323, 53.36328
666.3144, 37.26367
666.7965, 25.57178
667.2786, 31.09424
667.7607, 59.28418
668.2429, 73.15039
668.7250, 66.75000
669.2071, 55.95117
669.6892, 55.60596
670.1713, 65.06152
670.6534, 68.49658
671.1355, 62.66406
671.6176, 56.38965
672.0997, 65.90967
672.5818, 83.13086
673.0640, 89.59375
673.5461, 74.57520
674.0282, 54.95752
674.5103, 35.53857
674.9924, 21.10498
675.4745, 21.07568
675.9567, 61.35596
676.4388, 92.18994
676.9209, 94.87744
677.4030, 74.37354
677.8851, 54.90723
678.3672, 32.12744
678.8494, 19.07715
679.3315, 26.55908
679.8136, 51.94141
680.2957, 62.36670
680.7778, 56.55322
681.2599, 47.14844
681.7421, 44.38379
682.2242, 45.22412
682.7063, 45.40381
683.1884, 44.91455
683.6705, 39.21191
684.1526, 14.63867
684.6348, 12.37744
685.1169, 25.01855
685.5990, 10.65625
686.0811, 5.846680
686.5632, 26.95264
687.0453, 45.93213
687.5275, 52.35303
688.0096, 39.96533
688.4917, 30.99023
688.9738, 29.10889
689.4559, 33.45459
689.9380, 46.79053
690.4202, 68.05908
690.9023, 77.88086
691.3844, 54.23389
691.8665, 20.84912
692.3486, 17.51172
692.8307, 39.01123
693.3129, 57.78906
693.7950, 57.25537
694.2771, 49.44434
694.7592, 40.19482
695.2413, 27.72412
695.7234, 26.39209
696.2056, 54.52832
696.6877, 82.04004
697.1698, 90.36230
697.6519, 72.64307
698.1340, 62.68311
698.6161, 61.99854
699.0983, 65.71387
699.5804, 69.33154
700.0625, 72.92969
700.5446, 77.31201
701.0267, 83.38428
701.5089, 87.76318
701.9910, 86.35889
702.4731, 80.82812
702.9552, 74.03516
703.4373, 67.90039
703.9194, 59.51709
704.4016, 43.07812
704.8837, 23.68945
705.3658, 14.99609
705.8479, 27.92578
706.3300, 36.78955
706.8121, 34.57568
707.2943, 23.81885
707.7764, 14.41504
708.2585, 5.497559
708.7406, 4.332031
709.2227, 24.24609
709.7048, 53.14990
710.1870, 52.58398
710.6691, 24.82373
711.1512, 0.5703130
711.6333, 4.753418
712.1154, 18.88525
712.5975, 28.61914
713.0797, 32.89697
713.5618, 28.23682
714.0439, 0.3037110
714.5260, 27.42969
715.0081, 38.52881
715.4902, 26.47461
715.9724, 14.04248
716.4545, 0.4721680
716.9366, 11.79102
717.4187, 20.38379
717.9008, 25.27100
718.3829, 24.16016
718.8651, 15.19629
719.3472, 4.728027
719.8293, 2.015137
720.3114, 4.380859
720.7935, 0.8295900
721.2756, 18.08301
721.7578, 32.45898
722.2399, 28.25293
722.7220, 12.36426
723.2041, 2.322754
723.6862, 3.278320
724.1683, 6.860840
724.6505, 12.90918
725.1326, 20.25195
725.6147, 24.01025
726.0968, 23.66260
726.5789, 22.45898
727.0610, 21.63916
727.5432, 21.13867
728.0253, 20.38037
728.5074, 19.55859
728.9895, 20.14697
729.4716, 27.28076
729.9537, 33.48096
730.4359, 31.28467
730.9180, 20.01904
731.4001, 8.308105
731.8822, 9.081055
732.3643, 19.68604
732.8464, 14.24268
733.3285, 14.75439
733.8106, 27.43555
734.2927, 18.42920
734.7748, 4.645020
735.2570, 0.4804690
735.7391, 5.191406
736.2212, 14.66943
736.7033, 29.10107
737.1854, 44.43799
737.6675, 60.95410
738.1497, 74.30176
738.6318, 77.84326
739.1139, 66.80225
739.5960, 51.90088
740.0781, 30.86768
740.5602, 10.74658
741.0424, 2.413086
741.5245, 13.08545
742.0066, 23.41992
742.4887, 30.30322
742.9708, 35.19092
743.4529, 45.29150
743.9351, 60.11084
744.4172, 67.83154
744.8993, 60.90088
745.3814, 49.12939
745.8635, 47.87695
746.3456, 54.89697
746.8278, 63.86914
747.3099, 78.87012
747.7920, 87.91504
748.2741, 78.77686
748.7562, 55.36865
749.2383, 42.37744
749.7205, 56.05762
750.2026, 64.41748
750.6847, 57.25293
751.1668, 35.94775
751.6489, 9.166504
752.1310, 26.15186
752.6132, 45.33350
753.0953, 20.61816
753.5774, 29.99072
754.0595, 55.14746
754.5416, 56.06689
755.0237, 64.31055
755.5059, 127.8916
755.9880, 188.8574
756.4701, 191.3276
756.9522, 115.8120
757.4343, 62.08057
757.9164, 66.59180
758.3986, 80.45752
758.8807, 74.57422
759.3628, 42.42725
759.8449, 19.59814
760.3270, 6.531250
760.8091, 2.573730
761.2913, 14.88379
761.7734, 36.31055
762.2555, 41.46045
762.7376, 24.28955
763.2197, 5.486328
763.7018, 1.832520
764.1840, 6.379395
764.6661, 11.33643
765.1482, 15.91113
765.6303, 18.50586
766.1124, 11.93262
766.5945, 6.864746
767.0767, 19.71875
767.5588, 60.81982
768.0409, 76.82715
768.5230, 52.05908
769.0051, 15.28857
769.4872, 19.87402
769.9694, 55.25244
770.4515, 77.26074
770.9336, 65.86816
771.4157, 46.27100
771.8978, 40.73730
772.3799, 41.38086
772.8621, 36.92480
773.3442, 16.18262
773.8263, 2.093262
774.3084, 2.320313
774.7905, 12.07910
775.2726, 22.38379
775.7548, 35.45703
776.2369, 40.95557
776.7190, 32.52051
777.2011, 17.58984
777.6832, 18.15479
778.1653, 30.93164
778.6475, 38.13721
779.1296, 16.34082
779.6117, 3.944824
780.0938, 9.620117
780.5759, 49.15039
781.0580, 82.07715
781.5402, 99.93848
782.0223, 108.1729
782.5044, 105.4551
782.9865, 93.50977
783.4686, 88.57471
783.9507, 93.32910
784.4329, 94.83594
784.9150, 83.99023
785.3971, 65.62109
785.8792, 53.88672
786.3613, 48.91992
786.8434, 51.93262
787.3256, 71.47070
787.8077, 93.71582
788.2898, 108.9395
788.7719, 116.3232
789.2540, 116.9785
789.7361, 100.8813
790.2183, 86.45410
790.7004, 83.33105
791.1825, 93.08447
791.6646, 99.62988
792.1467, 102.0576
792.6288, 104.6045
793.1110, 112.1172
793.5930, 122.2461
794.0751, 126.7544
794.5573, 125.1260
795.0394, 124.0034
795.5215, 133.0547
796.0036, 142.0117
796.4857, 140.9258
796.9678, 128.4561
797.4500, 113.9907
797.9321, 90.76953
798.4142, 74.33545
798.8963, 77.39648
799.3784, 105.5801
799.8605, 119.3809
800.3427, 116.7622
800.8248, 107.9941
801.3069, 95.72119
801.7890, 85.37695
802.2711, 90.90186
802.7532, 115.7134
803.2354, 139.3535
803.7175, 148.4307
804.1996, 152.1411
804.6817, 159.2739
805.1638, 177.8882
805.6459, 181.9282
806.1281, 164.9775
806.6102, 141.7017
807.0923, 119.1567
807.5744, 97.49658
808.0565, 110.1436
808.5386, 164.7783
809.0208, 217.1919
809.5029, 212.1323
809.9850, 175.2515
810.4671, 150.1621
810.9492, 150.5791
811.4313, 156.3906
811.9135, 163.3042
812.3956, 166.8159
812.8777, 161.4927
813.3598, 136.6851
813.8419, 129.6162
814.3240, 148.4600
814.8062, 169.9731
815.2883, 161.7681
815.7704, 130.8447
816.2525, 118.3564
816.7346, 133.1538
817.2167, 151.6929
817.6989, 150.9590
818.1810, 141.2827
818.6631, 135.3618
819.1452, 136.7344
819.6273, 141.4961
820.1094, 153.7993
820.5916, 166.0435
821.0737, 170.6353
821.5558, 165.0342
822.0379, 164.8110
822.5200, 172.0913
823.0021, 180.2202
823.4843, 179.6313
823.9664, 173.5781
824.4485, 170.2134
824.9306, 171.0698
825.4127, 175.4517
825.8948, 187.7339
826.3770, 200.7402
826.8591, 206.8164
827.3412, 198.7407
827.8233, 191.3867
828.3054, 183.5049
828.7875, 177.7744
829.2697, 177.9580
829.7518, 184.1289
830.2339, 192.7163
830.7160, 204.6348
831.1981, 213.6416
831.6802, 214.1479
832.1624, 206.8994
832.6445, 190.6733
833.1266, 159.0215
833.6087, 134.5039
834.0908, 123.0059
834.5729, 124.4536
835.0551, 140.1851
835.5372, 181.8911
836.0193, 205.7344
836.5014, 209.2441
836.9835, 195.7754
837.4656, 155.0728
837.9478, 99.51611
838.4299, 75.16553
838.9120, 94.71338
839.3941, 122.9434
839.8762, 140.1279
840.3583, 146.4917
840.8405, 140.7368
841.3226, 109.2480
841.8047, 92.35938
842.2868, 98.84180
842.7689, 113.4321
843.2510, 122.0117
843.7332, 124.3428
844.2153, 123.6787
844.6974, 120.1123
845.1795, 114.1631
845.6616, 105.8428
846.1437, 95.70068
846.6259, 83.19287
847.1080, 65.99512
847.5901, 55.37500
848.0722, 64.30762
848.5543, 76.54443
849.0364, 77.60254
849.5186, 62.63281
850.0007, 50.80518
850.4828, 43.08350
850.9649, 36.31592
851.4470, 27.77686
851.9291, 17.72510
852.4113, 3.398438
852.8934, 16.48242
853.3755, 25.50684
853.8576, 1.770020
854.3397, 37.56982
854.8218, 57.59521
855.3040, 55.94531
855.7860, 44.94873
856.2681, 15.93750
856.7502, 9.133789
857.2324, 14.99365
857.7145, 1.518066
858.1966, 20.34814
858.6787, 51.20557
859.1608, 80.85156
859.6429, 107.7744
860.1251, 124.6182
860.6072, 118.6396
861.0893, 87.36182
861.5714, 56.74072
862.0535, 24.21338
862.5356, 6.290527
863.0178, 17.58301
863.4999, 62.94287
863.9820, 75.50977
864.4641, 48.22314
864.9462, 18.90283
865.4283, 19.47510
865.9105, 36.33936
866.3926, 33.88184
866.8747, 13.27734
867.3568, 2.312012
867.8389, 7.081543
868.3210, 21.31250
868.8032, 29.93945
869.2853, 31.88379
869.7674, 27.91406
870.2495, 15.48389
870.7316, 2.265625
871.2137, 10.73682
871.6959, 21.42920
872.1780, 19.93799
872.6601, 6.769043
873.1422, 13.05371
873.6243, 53.56494
874.1064, 85.97070
874.5886, 75.32959
875.0707, 30.25977
875.5528, 0.3833010
876.0349, 4.976074
876.5170, 13.41357
876.9991, 19.92383
877.4813, 22.93994
877.9634, 12.50391
878.4455, 11.61377
878.9276, 27.69727
879.4097, 24.98682
879.8918, 11.22705
880.3740, 10.52246
880.8561, 35.33936
881.3382, 51.01660
881.8203, 37.27539
882.3024, 32.16943
882.7845, 58.89697
883.2667, 97.27148
883.7488, 106.8232
884.2309, 82.38672
884.7130, 54.71826
885.1951, 25.67578
885.6772, 6.655762
886.1594, 24.72412
886.6415, 65.71729
887.1236, 98.51904
887.6057, 118.6187
888.0878, 118.7251
888.5699, 67.10205
889.0521, 5.925293
889.5342, 4.446289
890.0163, 67.91162
890.4984, 109.2349
890.9805, 105.6113
891.4626, 84.87500
891.9448, 83.45703
892.4269, 94.34961
892.9090, 90.34131
893.3911, 61.06982
893.8732, 45.26074
894.3553, 90.53760
894.8375, 149.8608
895.3196, 176.5112
895.8017, 147.0010
896.2838, 132.9341
896.7659, 144.2568
897.2480, 153.0317
897.7302, 125.4834
898.2123, 71.86328
898.6944, 62.68848
899.1765, 101.1870
899.6586, 136.7715
900.1407, 120.8325
900.6229, 91.55225
901.1050, 84.65039
901.5871, 105.2544
902.0692, 115.9937
902.5513, 109.0864
903.0334, 97.93408
903.5156, 86.56006
903.9977, 75.50781
904.4798, 69.29639
904.9619, 67.86084
905.4440, 71.98584
905.9261, 91.47510
906.4083, 109.4917
906.8904, 103.2456
907.3725, 79.07275
907.8546, 65.63525
908.3367, 85.22705
908.8188, 99.25830
909.3010, 95.89600
909.7831, 81.64355
910.2652, 76.14355
910.7473, 78.76562
911.2294, 81.06445
911.7115, 81.30811
912.1937, 80.96191
912.6758, 83.60303
913.1579, 87.82080
913.6400, 91.06201
914.1221, 91.37500
914.6042, 91.42041
915.0864, 88.51953
915.5685, 88.67627
916.0506, 101.7808
916.5327, 129.9204
917.0148, 146.0737
917.4969, 146.0635
917.9790, 137.7539
918.4611, 120.9897
918.9432, 105.3301
919.4254, 108.2349
919.9075, 140.1221
920.3896, 164.5317
920.8717, 166.1924
921.3538, 158.6445
921.8359, 149.5747
922.3181, 138.3530
922.8002, 127.2573
923.2823, 115.0464
923.7644, 110.6802
924.2465, 126.6118
924.7286, 152.2178
925.2108, 173.9429
925.6929, 191.4326
926.1750, 202.8882
926.6571, 211.9077
927.1392, 209.8804
927.6213, 183.0205
928.1035, 139.2651
928.5856, 141.5122
929.0677, 196.9189
929.5498, 235.8145
930.0319, 219.6782
930.5140, 179.0239
930.9962, 158.9429
931.4783, 153.5757
931.9604, 145.9697
932.4425, 118.5708
932.9246, 101.6196
933.4067, 112.4443
933.8889, 135.4204
934.3710, 146.3721
934.8531, 144.3828
935.3352, 133.5449
935.8173, 111.4302
936.2994, 90.79883
936.7816, 89.54736
937.2637, 102.8442
937.7458, 121.2339
938.2279, 145.9097
938.7100, 163.5557
939.1921, 165.4814
939.6743, 161.4766
940.1564, 158.1621
940.6385, 155.2075
941.1206, 157.5957
941.6027, 167.0396
942.0848, 170.2671
942.5670, 146.5264
943.0491, 114.3882
943.5312, 101.9629
944.0133, 110.1323
944.4954, 117.8613
944.9775, 116.5562
945.4597, 113.9321
945.9418, 111.8047
946.4239, 111.2314
946.9060, 121.7065
947.3881, 144.7700
947.8702, 155.9272
948.3524, 135.1084
948.8345, 104.7139
949.3166, 98.17871
949.7987, 107.6079
950.2808, 114.3076
950.7629, 107.5308
951.2451, 102.8198
951.7272, 106.3877
952.2093, 112.1606
952.6914, 111.1572
953.1735, 105.1855
953.6556, 111.7310
954.1378, 136.7720
954.6199, 159.3369
955.1020, 153.4248
955.5841, 133.5225
956.0662, 120.4126
956.5483, 119.8276
957.0305, 120.2646
957.5126, 119.1089
957.9947, 119.3042
958.4768, 124.9722
958.9589, 135.5771
959.4410, 133.1709
959.9232, 117.8442
960.4053, 104.4482
960.8874, 105.3257
961.3695, 111.2969
961.8516, 112.2075
962.3337, 109.2983
962.8159, 113.0840
963.2980, 134.2656
963.7801, 149.3071
964.2622, 152.3955
964.7443, 145.4863
965.2264, 137.2319
965.7086, 128.1943
966.1907, 120.5723
966.6728, 116.9131
967.1549, 111.0708
967.6370, 92.22021
968.1191, 70.52686
968.6013, 60.63965
969.0834, 79.99170
969.5655, 82.52344
970.0476, 61.02148
970.5297, 36.58984
971.0118, 29.96533
971.4940, 38.13721
971.9761, 54.31055
972.4582, 78.17188
972.9403, 90.40674
973.4224, 64.49854
973.9045, 34.56592
974.3867, 23.31396
974.8688, 31.80566
975.3509, 49.78516
975.8330, 82.66504
976.3151, 105.9521
976.7972, 105.1289
977.2794, 90.66309
977.7615, 84.06396
978.2436, 83.10547
978.7257, 80.90576
979.2078, 75.40137
979.6899, 66.75000
980.1720, 51.43555
980.6541, 34.38086
981.1362, 23.29492
981.6183, 19.61572
982.1005, 12.33008
982.5826, 1.110352
983.0647, 12.04150
983.5468, 8.520996
984.0289, 3.376953
984.5110, 16.47559
984.9932, 30.94873
985.4753, 37.47998
985.9574, 23.33057
986.4395, 10.69873
986.9216, 12.45215
987.4037, 26.75684
987.8859, 25.22754
988.3680, 8.286133
988.8501, 4.338867
989.3322, 1.851563
989.8143, 15.16016
990.2964, 29.62988
990.7786, 42.13672
991.2607, 44.14893
991.7428, 20.96240
992.2249, 8.477539
992.7070, 16.03564
993.1891, 29.81006
993.6713, 23.92188
994.1534, 3.417480
994.6355, 8.467773
995.1176, 6.130859
995.5997, 0.1406250
996.0818, 2.174316
996.5640, 4.492188
997.0461, 11.60840
997.5282, 25.92383
998.0103, 29.83105
998.4924, 19.81348
998.9745, 10.69141
999.4567, 13.43604
999.9388, 23.31055
1000.421, 32.48730
1000.903, 39.65820
1001.385, 39.08008
1001.867, 16.03613
1002.349, 1.888672
1002.831, 0.4521480
1003.314, 12.82764
1003.796, 15.08105
1004.278, 6.289063
1004.760, 1.668945
1005.242, 7.587402
1005.724, 7.924316
1006.206, 6.287598
1006.688, 26.33838
1007.171, 43.60254
1007.653, 61.86768
1008.135, 55.18213
1008.617, 2.003906
1009.099, 49.99316
1009.581, 47.32471
1010.063, 1.721191
1010.545, 29.90820
1011.027, 47.53711
1011.510, 50.64014
1011.992, 18.44971
1012.474, 9.335938
1012.956, 2.262207
1013.438, 39.74512
1013.920, 57.73535
1014.402, 49.00439
1014.884, 35.99316
1015.367, 19.69092
1015.849, 6.915527
1016.331, 13.18652
1016.813, 29.28662
1017.295, 34.13574
1017.777, 20.88916
1018.259, 9.826660
1018.741, 9.486328
1019.223, 13.78613
1019.706, 21.76855
1020.188, 35.11719
1020.670, 30.69141
1021.152, 7.354492
1021.634, 8.888672
1022.116, 4.658203
1022.598, 29.34033
1023.080, 41.09619
1023.563, 43.65527
1024.045, 51.07275
1024.527, 72.37988
1025.009, 89.71191
1025.491, 101.9053
1025.973, 107.3442
1026.455, 99.38574
1026.937, 82.30566
1027.419, 72.28174
1027.901, 72.82861
1028.384, 73.75049
1028.866, 66.58447
1029.348, 59.34180
1029.830, 58.93213
1030.312, 65.43213
1030.794, 69.34619
1031.276, 70.99658
1031.758, 69.94775
1032.241, 64.44141
1032.723, 57.57031
1033.205, 50.50244
1033.687, 47.50098
1034.169, 57.03174
1034.651, 102.9155
1035.133, 131.1987
1035.615, 126.7817
1036.098, 112.4487
1036.580, 116.3804
1037.062, 136.1294
1037.544, 157.2017
1038.026, 178.1450
1038.508, 197.2031
1038.990, 209.7378
1039.472, 222.8164
1039.954, 243.5210
1040.437, 271.4819
1040.919, 292.9990
1041.401, 307.5781
1041.883, 323.6294
1042.365, 343.5581
1042.847, 367.0630
1043.329, 392.1890
1043.811, 420.9194
1044.293, 457.8340
1044.776, 515.2510
1045.258, 562.4399
1045.740, 586.1074
1046.222, 605.6489
1046.704, 640.1655
1047.186, 689.1670
1047.668, 728.5391
1048.150, 757.4927
1048.633, 776.9521
1049.115, 780.6113
1049.597, 780.5581
1050.079, 781.3472
1050.561, 785.5830
1051.043, 807.0679
1051.525, 857.5391
1052.007, 884.0015
1052.490, 868.2222
1052.972, 834.7251
1053.454, 821.6748
1053.936, 816.6191
1054.418, 797.9844
1054.900, 761.5190
1055.382, 707.8896
1055.864, 623.9746
1056.346, 536.6113
1056.828, 458.7642
1057.311, 390.3477
1057.793, 329.4185
1058.275, 276.2754
1058.757, 236.9209
1059.239, 223.2856
1059.721, 216.0537
1060.203, 207.4092
1060.685, 193.2549
1061.168, 171.9551
1061.650, 138.2900
1062.132, 117.9736
1062.614, 116.2759
1063.096, 119.0854
1063.578, 110.4438
1064.060, 96.59961
1064.542, 84.21973
1065.025, 74.08350
1065.507, 69.01953
1065.989, 78.88428
1066.471, 81.63721
1066.953, 62.23389
1067.435, 33.04443
1067.917, 32.59912
1068.399, 53.96777
1068.881, 71.59717
1069.364, 77.42236
1069.846, 74.88428
1070.328, 57.17822
1070.810, 37.49219
1071.292, 29.22217
1071.774, 35.76562
1072.256, 36.42822
1072.738, 29.44727
1073.220, 27.53320
1073.703, 51.10693
1074.185, 78.52393
1074.667, 77.38965
1075.149, 53.30762
1075.631, 36.47998
1076.113, 46.49219
1076.595, 42.80127
1077.077, 10.74365
1077.559, 25.24316
1078.042, 13.40576
1078.524, 27.91260
1079.006, 37.73828
1079.488, 0.5834960
1079.970, 31.57715
1080.452, 22.45459
1080.934, 1.923828
1081.416, 14.30566
1081.899, 26.00049
1082.381, 27.26221
1082.863, 18.05859
1083.345, 20.66943
1083.827, 56.02588
1084.309, 91.51953
1084.791, 90.86768
1085.273, 72.79004
1085.755, 68.81641
1086.238, 94.81299
1086.720, 107.0923
1087.202, 104.2124
1087.684, 90.50098
1088.166, 61.82520
1088.648, 28.32324
1089.130, 4.369629
1089.612, 8.091797
1090.094, 2.369629
1090.577, 50.85205
1091.059, 89.37988
1091.541, 94.23779
1092.023, 77.92969
1092.505, 61.94434
1092.987, 47.34521
1093.469, 39.40479
1093.951, 39.74756
1094.434, 42.43701
1094.916, 42.14990
1095.398, 43.74121
1095.880, 51.21631
1096.362, 64.27295
1096.844, 79.13525
1097.326, 96.24854
1097.808, 108.0581
1098.291, 110.4136
1098.773, 106.8779
1099.255, 98.59717
1099.737, 88.21973
1100.219, 79.90820
1100.701, 72.26367
1101.183, 72.17871
1101.665, 82.18555
1102.147, 93.10303
1102.630, 94.60889
1103.112, 92.01660
1103.594, 101.9624
1104.076, 120.4727
1104.558, 124.0293
1105.040, 80.38770
1105.522, 49.76660
1106.004, 49.14746
1106.486, 65.32861
1106.969, 78.10889
1107.451, 87.80469
1107.933, 97.45508
1108.415, 106.6074
1108.897, 107.1812
1109.379, 83.82764
1109.861, 58.53711
1110.343, 46.86084
1110.826, 47.16357
1111.308, 45.27734
1111.790, 41.08447
1112.272, 41.08350
1112.754, 49.73877
1113.236, 59.51416
1113.718, 65.93799
1114.200, 67.17090
1114.682, 59.01807
1115.165, 33.93848
1115.647, 22.59229
1116.129, 29.41016
1116.611, 33.70264
1117.093, 4.568848
1117.575, 28.23779
1118.057, 5.201172
1118.539, 81.86035
1119.021, 126.6211
1119.504, 86.05420
1119.986, 50.19727
1120.468, 26.84033
1120.950, 17.21094
1121.432, 34.34082
1121.914, 65.98633
1122.396, 65.71631
1122.878, 30.42383
1123.361, 0.6518550
1123.843, 2.130859
1124.325, 6.087891
1124.807, 22.21338
1125.289, 41.47021
1125.771, 47.60791
1126.253, 42.64600
1126.735, 51.10693
1127.218, 83.59424
1127.700, 111.7871
1128.182, 104.0156
1128.664, 88.93945
1129.146, 98.46973
1129.628, 133.5610
1130.110, 128.0283
1130.592, 76.70996
1131.074, 44.82031
1131.557, 78.81104
1132.039, 127.9834
1132.521, 136.1602
1133.003, 119.3242
1133.485, 102.0688
1133.967, 86.81348
1134.449, 75.55225
1134.931, 68.38672
1135.413, 63.40625
1135.896, 66.84229
1136.378, 73.62549
1136.860, 68.68799
1137.342, 56.08203
1137.824, 52.72607
1138.306, 85.78369
1138.788, 104.0381
1139.270, 95.91797
1139.752, 76.24951
1140.235, 60.27734
1140.717, 49.79395
1141.199, 52.46777
1141.681, 68.90332
1142.163, 85.72070
1142.645, 107.6421
1143.127, 116.0737
1143.609, 97.59521
1144.092, 65.45264
1144.574, 48.32080
1145.056, 45.36963
1145.538, 55.40234
1146.020, 84.51807
1146.502, 100.0776
1146.984, 68.47314
1147.466, 26.59570
1147.948, 1.029785
1148.431, 13.94531
1148.913, 12.60596
1149.395, 2.802246
1149.877, 28.20312
1150.359, 74.69775
1150.841, 109.6646
1151.323, 96.07178
1151.805, 62.06396
1152.287, 45.89600
1152.770, 53.81885
1153.252, 55.13623
1153.734, 48.80078
1154.216, 44.58154
1154.698, 50.38916
1155.180, 61.10693
1155.662, 75.30664
1156.144, 90.12256
1156.627, 96.73828
1157.109, 90.69336
1157.591, 90.03613
1158.073, 98.57373
1158.555, 104.3521
1159.037, 90.64795
1159.519, 69.57666
1160.001, 54.56152
1160.484, 47.24414
1160.966, 54.39307
1161.448, 96.26221
1161.930, 112.1260
1162.412, 81.56592
1162.894, 36.23682
1163.376, 27.16357
1163.858, 37.69531
1164.340, 30.90088
1164.823, 0.9189450
1165.305, 12.39551
1165.787, 28.56299
1166.269, 63.23779
1166.751, 68.40137
1167.233, 56.39990
1167.715, 58.23926
1168.197, 68.46094
1168.679, 69.84521
1169.162, 53.22363
1169.644, 40.53564
1170.126, 43.66406
1170.608, 47.81934
1171.090, 44.50049
1171.572, 35.22656
1172.054, 21.41406
1172.536, 7.557129
1173.019, 16.11963
1173.501, 83.82959
1173.983, 137.4243
1174.465, 139.5527
1174.947, 120.5288
1175.429, 100.1738
1175.911, 82.55615
1176.393, 73.34766
1176.875, 72.24707
1177.358, 75.71045
1177.840, 87.42236
1178.322, 96.93945
1178.804, 97.45654
1179.286, 93.19092
1179.768, 88.27979
1180.250, 82.57227
1180.732, 85.47656
1181.214, 97.66943
1181.697, 111.0737
1182.179, 127.7021
1182.661, 136.5972
1183.143, 125.5562
1183.625, 100.9746
1184.107, 78.60791
1184.589, 57.90723
1185.071, 52.29883
1185.554, 65.99414
1186.036, 80.02832
1186.518, 73.16943
1187.000, 62.15869
1187.482, 65.57227
1187.964, 80.72266
1188.446, 77.78662
1188.928, 53.65430
1189.411, 44.49072
1189.893, 65.75977
1190.375, 88.44629
1190.857, 79.73389
1191.339, 57.62109
1191.821, 39.78564
1192.303, 28.06885
1192.785, 20.03271
1193.267, 12.53418
1193.750, 11.79004
1194.232, 23.74902
1194.714, 36.56348
1195.196, 33.38770
1195.678, 24.04248
1196.160, 22.49414
1196.642, 32.60840
1197.124, 42.62598
1197.606, 53.83789
1198.089, 57.74609
1198.571, 47.12158
1199.053, 28.68213
1199.535, 0.9609380
1200.017, 25.76855
1200.499, 30.43799
1200.981, 7.011230
1201.463, 22.51709
1201.945, 10.71875
1202.428, 1.512207
1202.910, 11.05518
1203.392, 31.94971
1203.874, 39.33057
1204.356, 37.31445
1204.838, 39.26660
1205.320, 49.63525
1205.802, 57.89551
1206.285, 63.28955
1206.767, 66.23145
1207.249, 65.79785
1207.731, 63.42383
1208.213, 60.44238
1208.695, 57.09521
1209.177, 57.03711
1209.659, 62.49463
1210.141, 67.04541
1210.624, 70.84912
1211.106, 69.71045
1211.588, 50.07861
1212.070, 27.52197
1212.552, 25.70752
1213.034, 45.23242
1213.516, 61.02881
1213.998, 70.42334
1214.480, 76.39941
1214.963, 79.83936
1215.445, 79.70850
1215.927, 70.33643
1216.409, 58.88281
1216.891, 60.01953
1217.373, 76.83691
1217.855, 70.56982
1218.337, 27.17480
1218.820, 3.945313
1219.302, 5.500977
1219.784, 8.848633
1220.266, 30.71484
1220.748, 49.17578
1221.230, 42.68896
1221.712, 0.2573240
1222.194, 18.01025
1222.677, 3.668457
1223.159, 11.44043
1223.641, 14.54980
1224.123, 14.09375
1224.605, 23.93359
1225.087, 39.88770
1225.569, 56.32422
1226.051, 74.43896
1226.533, 83.53320
1227.016, 81.94092
1227.498, 76.55762
1227.980, 69.17041
1228.462, 62.39697
1228.944, 58.84082
1229.426, 59.07129
1229.908, 65.14014
1230.390, 84.52051
1230.872, 91.00977
1231.355, 83.07568
1231.837, 69.22461
1232.319, 50.67432
1232.801, 33.37305
1233.283, 24.78125
1233.765, 23.50586
1234.247, 27.12402
1234.729, 34.84912
1235.212, 49.43359
1235.694, 73.17627
1236.176, 90.91943
1236.658, 89.66113
1237.140, 76.87109
1237.622, 49.08545
1238.104, 18.27588
1238.586, 17.57715
1239.068, 66.28857
1239.551, 78.93213
1240.033, 46.13281
1240.515, 13.32275
1240.997, 20.54492
1241.479, 44.29443
1241.961, 73.54297
1242.443, 98.32910
1242.925, 88.99072
1243.407, 31.40625
1243.890, 12.47070
1244.372, 43.40869
1244.854, 79.88232
1245.336, 78.53174
1245.818, 69.06885
1246.300, 81.45947
1246.782, 106.1006
1247.264, 104.8848
1247.747, 73.32764
1248.229, 51.04541
1248.711, 46.58447
1249.193, 44.26221
1249.675, 8.523438
1250.157, 17.35107
1250.639, 17.05029
1251.121, 85.60889
1251.604, 106.0483
1252.086, 76.95508
1252.568, 55.87305
1253.050, 50.49707
1253.532, 74.52686
1254.014, 198.0146
1254.496, 296.8555
1254.978, 260.2935
1255.460, 140.8945
1255.943, 82.22900
1256.425, 79.65283
1256.907, 76.19629
1257.389, 60.11035
1257.871, 44.17725
1258.353, 43.03564
1258.835, 45.37598
1259.317, 42.46680
1259.799, 39.60107
1260.281, 38.57129
1260.764, 38.65576
1261.246, 39.54688
1261.728, 42.25977
1262.210, 39.01123
1262.692, 19.62598
1263.174, 0.9067380
1263.656, 9.676270
1264.138, 13.68457
1264.621, 15.36816
1265.103, 14.46777
1265.585, 9.209473
1266.067, 1.558105
1266.549, 12.62842
1267.031, 22.66406
1267.513, 31.63623
1267.995, 40.09717
1268.478, 47.61670
1268.960, 55.33154
1269.442, 62.86768
1269.924, 69.41553
1270.406, 75.12891
1270.888, 75.66309
1271.370, 62.54102
1271.852, 61.51660
1272.334, 91.92188
1272.817, 129.8926
1273.299, 122.4834
1273.781, 95.88281
1274.263, 80.93896
1274.745, 91.32178
1275.227, 86.47510
1275.709, 60.60449
1276.191, 36.33740
1276.673, 21.20703
1277.156, 18.06787
1277.638, 48.20215
1278.120, 84.82324
1278.602, 81.91504
1279.084, 20.99463
1279.566, 2.391113
1280.048, 26.89014
1280.530, 51.91602
1281.013, 70.67139
1281.495, 81.18750
1281.977, 52.04785
1282.459, 15.30273
1282.941, 17.36621
1283.423, 62.66650
1283.905, 71.81934
1284.387, 45.48242
1284.870, 25.39355
1285.352, 37.80762
1285.834, 52.08740
1286.316, 43.92725
1286.798, 31.04492
1287.280, 31.93945
1287.762, 45.28662
1288.244, 57.63574
1288.726, 71.48926
1289.208, 76.18213
1289.691, 59.25928
1290.173, 46.01465
1290.655, 50.27588
1291.137, 59.01807
1291.619, 65.84863
1292.101, 69.36816
1292.583, 62.99707
1293.065, 50.26709
1293.548, 38.86035
1294.030, 32.84961
1294.512, 24.51465
1294.994, 9.664063
1295.476, 0.3867190
1295.958, 0.0000000E+00
##END=



