##NAMES=Lithiophilite
##RRUFFID=R070303
##IDEAL CHEMISTRY=LiMn^2+^PO_4_
##LOCALITY=Vittaniemi, Erajarvi, Orivesi, Etela-Suomen Laani, Finland
##OWNER=RRUFF
##SOURCE=James Shigley
##DESCRIPTION=Yellowish brown massive associated with muscovite
##STATUS=The identification of this mineral is confirmed by single-crystal X-ray diffraction and chemical analysis.
##URL=rruff.info/R070303
##MEASURED CHEMISTRY=Li_1.00_(Mn^2+^_0.67_Fe^2+^_0.33_)_Î£=1_P_1.00_O_4_; trace amounts of Ca and Mg; Li estimated by difference and charge balance
143.1968, 0.0000000E+00
143.6789, 6.1400998E-02
144.1610, 9.735840
144.6431, 24.63171
145.1252, 41.99524
145.6074, 59.87329
146.0895, 77.90094
146.5716, 97.84485
147.0537, 122.4495
147.5358, 150.8220
148.0179, 172.3347
148.5001, 186.3033
148.9822, 194.0203
149.4643, 196.2089
149.9464, 194.3307
150.4285, 187.2189
150.9106, 169.7354
151.3928, 145.3833
151.8749, 126.8843
152.3570, 121.1830
152.8391, 118.5400
153.3212, 110.3614
153.8033, 95.98273
154.2855, 78.36414
154.7676, 57.50836
155.2497, 34.71588
155.7318, 15.85480
156.2139, 0.6201170
156.6960, 9.638489
157.1782, 11.21295
157.6603, 2.724854
158.1424, 6.150085
158.6245, 4.972778
159.1066, 1.876404
159.5887, 3.430359
160.0709, 6.623596
160.5530, 22.17950
161.0351, 35.00916
161.5172, 44.85968
161.9993, 51.93988
162.4814, 54.04401
162.9636, 53.46881
163.4457, 54.49731
163.9278, 58.94489
164.4099, 65.77386
164.8920, 74.12585
165.3741, 85.56244
165.8563, 93.95197
166.3384, 91.97046
166.8205, 84.74036
167.3026, 80.97681
167.7847, 85.81165
168.2668, 95.83398
168.7490, 104.4727
169.2311, 112.9591
169.7132, 117.0092
170.1953, 111.9162
170.6774, 101.7014
171.1595, 92.14191
171.6417, 84.17426
172.1238, 79.24042
172.6059, 82.85773
173.0880, 101.3889
173.5701, 115.5397
174.0522, 113.6071
174.5344, 103.0847
175.0165, 94.58545
175.4986, 93.81824
175.9807, 98.04395
176.4628, 98.98804
176.9449, 92.78766
177.4271, 90.75360
177.9092, 100.8256
178.3913, 116.1685
178.8734, 127.6558
179.3555, 130.8243
179.8376, 127.3574
180.3197, 121.3018
180.8019, 108.3577
181.2840, 100.8995
181.7661, 104.3597
182.2482, 114.0360
182.7303, 124.9908
183.2124, 135.7451
183.6946, 144.7854
184.1767, 147.0066
184.6588, 137.6378
185.1409, 129.5353
185.6230, 127.1626
186.1051, 127.3829
186.5873, 125.9268
187.0694, 120.2324
187.5515, 113.3767
188.0336, 113.9258
188.5157, 125.8708
188.9978, 138.8512
189.4800, 154.4778
189.9621, 168.1819
190.4442, 174.1387
190.9263, 169.1637
191.4084, 158.2866
191.8905, 153.6283
192.3727, 157.5078
192.8548, 164.1088
193.3369, 176.1150
193.8190, 188.1947
194.3011, 193.5955
194.7832, 189.4905
195.2654, 182.0884
195.7475, 185.5222
196.2296, 207.4138
196.7117, 226.2693
197.1938, 239.6635
197.6759, 249.2482
198.1581, 256.2732
198.6402, 261.2177
199.1223, 263.8563
199.6044, 263.5812
200.0865, 259.3358
200.5686, 254.0015
201.0508, 247.6107
201.5329, 240.0953
202.0150, 231.1979
202.4971, 220.5785
202.9792, 206.8217
203.4613, 186.2231
203.9435, 152.6052
204.4256, 127.2031
204.9077, 113.0229
205.3898, 103.9957
205.8719, 96.61707
206.3540, 89.89697
206.8362, 84.30676
207.3183, 80.72412
207.8004, 80.17212
208.2825, 79.06921
208.7646, 78.72278
209.2467, 76.93274
209.7289, 71.91882
210.2110, 63.92639
210.6931, 54.62854
211.1752, 45.19006
211.6573, 34.02087
212.1395, 30.71155
212.6216, 42.07043
213.1037, 54.87012
213.5858, 63.75195
214.0679, 69.10571
214.5500, 71.75684
215.0322, 72.61877
215.5143, 72.53857
215.9964, 70.83752
216.4785, 64.71606
216.9606, 59.50793
217.4427, 57.17639
217.9249, 57.99023
218.4070, 60.62219
218.8891, 64.48999
219.3712, 70.03760
219.8533, 75.46191
220.3354, 82.63831
220.8176, 87.78418
221.2997, 88.71533
221.7818, 87.21948
222.2639, 85.01013
222.7460, 83.58069
223.2281, 83.46252
223.7103, 88.63574
224.1924, 106.7825
224.6745, 122.3265
225.1566, 129.4375
225.6387, 132.3723
226.1208, 138.6813
226.6030, 154.0448
227.0851, 173.6561
227.5672, 178.3220
228.0493, 153.1029
228.5314, 133.1510
229.0135, 125.3962
229.4957, 125.4247
229.9778, 128.7461
230.4599, 133.5287
230.9420, 138.9064
231.4241, 142.5314
231.9062, 142.1733
232.3884, 143.9675
232.8705, 152.4343
233.3526, 161.0730
233.8347, 163.8420
234.3168, 158.8339
234.7989, 149.3175
235.2811, 139.8297
235.7632, 127.4796
236.2453, 122.4600
236.7274, 127.4038
237.2095, 137.5961
237.6916, 153.0724
238.1738, 172.5238
238.6559, 189.8175
239.1380, 195.2014
239.6201, 183.3792
240.1022, 179.4438
240.5843, 194.2552
241.0665, 208.9434
241.5486, 214.5455
242.0307, 210.8679
242.5128, 202.9252
242.9949, 194.3490
243.4770, 184.4628
243.9592, 178.3177
244.4413, 181.4089
244.9234, 183.1146
245.4055, 180.3162
245.8876, 172.9349
246.3697, 161.3688
246.8519, 143.9923
247.3340, 121.9601
247.8161, 106.8726
248.2982, 103.3151
248.7803, 101.0023
249.2624, 96.98547
249.7446, 91.55029
250.2267, 85.01965
250.7088, 76.88269
251.1909, 68.46667
251.6730, 64.48853
252.1551, 68.91797
252.6373, 69.52905
253.1194, 58.18347
253.6015, 43.16199
254.0836, 34.02466
254.5657, 34.98853
255.0478, 40.04846
255.5300, 39.20703
256.0121, 30.66968
256.4942, 23.02014
256.9763, 18.44543
257.4584, 15.87769
257.9406, 15.11243
258.4227, 16.17102
258.9048, 17.73926
259.3869, 19.55579
259.8690, 21.79370
260.3511, 19.58923
260.8333, 5.785522
261.3154, 7.165161
261.7975, 9.380005
262.2796, 1.027222
262.7617, 9.036133
263.2438, 14.87659
263.7260, 17.10291
264.2081, 19.52588
264.6902, 23.98279
265.1723, 26.22815
265.6544, 22.25208
266.1365, 13.56543
266.6187, 5.095093
267.1008, 3.473022
267.5829, 9.791748
268.0650, 6.886719
268.5471, 8.428223
269.0292, 23.04590
269.5114, 29.42456
269.9935, 28.76587
270.4756, 20.91077
270.9577, 3.081787
271.4398, 27.00659
271.9219, 29.12659
272.4041, 8.760620
272.8862, 10.49951
273.3683, 17.72485
273.8504, 15.73865
274.3325, 10.34912
274.8146, 1.832886
275.2968, 10.78394
275.7789, 6.897705
276.2610, 6.733887
276.7431, 17.85535
277.2252, 22.79175
277.7073, 22.24072
278.1895, 15.36047
278.6716, 0.4110110
279.1537, 10.00037
279.6358, 1.156372
280.1179, 16.21985
280.6000, 22.91028
281.0822, 13.04675
281.5643, 0.5908200
282.0464, 1.762817
282.5285, 11.00439
283.0106, 17.44189
283.4927, 7.223145
283.9749, 4.880981
284.4570, 2.549561
284.9391, 14.47900
285.4212, 30.35437
285.9033, 30.65625
286.3854, 15.02722
286.8676, 6.333496
287.3497, 8.685791
287.8318, 13.59656
288.3139, 19.14587
288.7960, 24.13550
289.2781, 25.10474
289.7603, 19.28918
290.2424, 9.545166
290.7245, 7.919312
291.2066, 24.20129
291.6887, 35.89050
292.1708, 36.49988
292.6530, 31.79260
293.1351, 29.28418
293.6172, 31.57300
294.0993, 35.42688
294.5814, 34.94080
295.0635, 26.33740
295.5457, 20.59863
296.0278, 17.60303
296.5099, 17.01990
296.9920, 20.05542
297.4741, 26.08081
297.9562, 32.21729
298.4384, 35.90381
298.9205, 37.41345
299.4026, 34.46643
299.8847, 15.99158
300.3668, 4.367188
300.8489, 11.26025
301.3310, 30.81335
301.8131, 50.35205
302.2953, 61.85718
302.7774, 66.10559
303.2595, 66.51782
303.7416, 59.14246
304.2237, 53.65137
304.7058, 52.16138
305.1880, 53.46851
305.6701, 56.61072
306.1522, 61.08447
306.6343, 66.00854
307.1164, 69.69702
307.5985, 72.02234
308.0807, 74.99341
308.5628, 80.36707
309.0449, 85.76929
309.5270, 89.08179
310.0091, 90.07373
310.4912, 90.76892
310.9734, 93.42029
311.4555, 97.72461
311.9376, 100.1877
312.4197, 100.4481
312.9018, 98.98120
313.3839, 95.62402
313.8661, 90.79553
314.3482, 85.37158
314.8303, 78.76062
315.3124, 72.20728
315.7945, 68.79443
316.2766, 69.32043
316.7588, 68.24329
317.2409, 60.84839
317.7230, 50.51331
318.2051, 42.83069
318.6872, 38.99829
319.1693, 36.71558
319.6515, 35.62354
320.1336, 35.74329
320.6157, 34.86792
321.0978, 31.85205
321.5799, 28.12341
322.0620, 25.70203
322.5442, 24.39673
323.0263, 24.67737
323.5084, 29.04993
323.9905, 34.08264
324.4726, 34.49463
324.9547, 29.23950
325.4369, 22.91455
325.9190, 20.40454
326.4011, 22.38623
326.8832, 23.79102
327.3653, 24.55884
327.8474, 24.83984
328.3296, 23.81201
328.8117, 22.04126
329.2938, 21.10840
329.7759, 23.82751
330.2580, 29.97388
330.7401, 32.91431
331.2223, 29.63403
331.7044, 25.83679
332.1865, 20.05884
332.6686, 14.79700
333.1507, 13.50354
333.6328, 17.60229
334.1150, 23.91040
334.5971, 27.06750
335.0792, 26.34167
335.5613, 24.21985
336.0434, 20.05310
336.5255, 15.12476
337.0077, 7.117065
337.4898, 0.9609380
337.9719, 2.871338
338.4540, 8.953735
338.9361, 31.78638
339.4182, 39.97083
339.9004, 23.17993
340.3825, 6.897339
340.8646, 1.965332
341.3467, 6.231934
341.8288, 10.46143
342.3109, 16.22302
342.7931, 19.67395
343.2752, 13.75769
343.7573, 3.335083
344.2394, 17.04993
344.7215, 23.42859
345.2036, 25.31836
345.6858, 24.15466
346.1679, 20.13904
346.6500, 15.67517
347.1321, 10.48914
347.6142, 6.025513
348.0963, 7.299683
348.5785, 16.38904
349.0606, 26.29419
349.5427, 31.82373
350.0248, 33.76233
350.5069, 33.94080
350.9890, 32.98401
351.4712, 30.12488
351.9533, 22.55640
352.4354, 11.60974
352.9175, 4.565552
353.3996, 5.669312
353.8817, 11.84387
354.3639, 15.18286
354.8460, 15.27673
355.3281, 14.20923
355.8102, 11.85962
356.2923, 8.843506
356.7744, 4.689575
357.2566, 0.3912350
357.7387, 2.681519
358.2208, 2.889771
358.7029, 19.54248
359.1850, 27.55688
359.6671, 20.25293
360.1493, 12.29480
360.6314, 11.26697
361.1135, 14.70679
361.5956, 16.01233
362.0777, 11.06934
362.5598, 1.901978
363.0420, 4.282593
363.5241, 7.564209
364.0062, 7.285156
364.4883, 0.7204590
364.9704, 9.344482
365.4525, 11.38379
365.9347, 5.845459
366.4168, 0.7523190
366.8989, 0.7930910
367.3810, 6.130859
367.8631, 13.24158
368.3452, 23.79590
368.8274, 29.98206
369.3095, 23.94958
369.7916, 10.85510
370.2737, 3.270264
370.7558, 9.747559
371.2379, 22.88330
371.7201, 30.74365
372.2022, 33.07751
372.6843, 32.28320
373.1664, 27.18359
373.6485, 20.74670
374.1306, 17.77942
374.6128, 19.46082
375.0949, 20.87878
375.5770, 18.36841
376.0591, 13.98865
376.5412, 11.83459
377.0233, 12.79041
377.5055, 15.73669
377.9876, 20.63733
378.4697, 27.81177
378.9518, 30.13281
379.4339, 21.82153
379.9160, 13.74060
380.3982, 13.29468
380.8803, 18.57935
381.3624, 23.31055
381.8445, 23.93140
382.3266, 22.21191
382.8087, 23.61401
383.2909, 33.77588
383.7730, 39.57812
384.2551, 39.26990
384.7372, 35.52844
385.2193, 28.91467
385.7014, 20.45349
386.1836, 13.20605
386.6657, 10.23096
387.1478, 11.60437
387.6299, 16.27173
388.1120, 29.55054
388.5941, 39.93018
389.0763, 42.55054
389.5584, 40.19641
390.0405, 37.09399
390.5226, 34.82861
391.0047, 33.18225
391.4868, 31.44519
391.9690, 29.41052
392.4511, 29.40491
392.9332, 33.79529
393.4153, 38.90564
393.8974, 41.09888
394.3795, 40.36340
394.8617, 39.19238
395.3438, 37.21838
395.8259, 36.09045
396.3080, 40.87769
396.7901, 52.07715
397.2722, 59.47412
397.7544, 53.44604
398.2365, 37.37964
398.7186, 30.06555
399.2007, 38.20996
399.6828, 47.59277
400.1649, 53.97009
400.6471, 57.69348
401.1292, 58.87427
401.6113, 57.94336
402.0934, 56.99377
402.5755, 60.66040
403.0576, 72.62830
403.5398, 77.55518
404.0219, 69.98230
404.5040, 61.50757
404.9861, 56.85205
405.4682, 56.23108
405.9503, 59.50427
406.4325, 67.29321
406.9146, 77.17834
407.3967, 79.83911
407.8788, 69.62610
408.3609, 63.85815
408.8430, 68.07727
409.3252, 76.17578
409.8073, 85.57507
410.2894, 95.21155
410.7715, 100.5732
411.2536, 92.71936
411.7357, 75.82422
412.2179, 72.66943
412.7000, 89.83069
413.1821, 108.3817
413.6642, 114.3892
414.1463, 112.4877
414.6284, 110.7311
415.1106, 108.4335
415.5927, 108.9960
416.0748, 118.1504
416.5569, 132.7932
417.0390, 142.7692
417.5211, 144.0515
418.0033, 141.7484
418.4854, 143.9830
418.9675, 153.5739
419.4496, 157.8331
419.9317, 150.7317
420.4138, 142.5427
420.8960, 139.7144
421.3781, 142.0868
421.8602, 147.4448
422.3423, 155.4731
422.8244, 164.4387
423.3065, 166.7970
423.7887, 154.5709
424.2708, 148.6074
424.7529, 157.5342
425.2350, 169.1918
425.7171, 172.8263
426.1992, 167.2303
426.6814, 159.7151
427.1635, 155.7898
427.6456, 154.8988
428.1277, 156.0225
428.6098, 161.8107
429.0919, 165.8142
429.5741, 162.3361
430.0562, 155.6456
430.5383, 152.5022
431.0204, 156.1331
431.5025, 159.9482
431.9846, 157.1395
432.4668, 149.7355
432.9489, 145.0006
433.4310, 144.9138
433.9131, 147.6047
434.3952, 151.7119
434.8773, 157.5479
435.3595, 161.1346
435.8416, 161.8300
436.3237, 160.5623
436.8058, 157.5576
437.2879, 153.0594
437.7701, 146.9518
438.2522, 138.9828
438.7343, 130.6743
439.2164, 126.4172
439.6985, 132.1604
440.1806, 131.1288
440.6628, 116.9607
441.1449, 101.7257
441.6270, 92.83582
442.1091, 90.33508
442.5912, 90.36475
443.0733, 90.01965
443.5555, 89.98181
444.0376, 93.82288
444.5197, 103.8621
445.0018, 111.2682
445.4839, 113.3522
445.9660, 110.6152
446.4482, 101.3766
446.9303, 84.40100
447.4124, 69.39563
447.8945, 64.13721
448.3766, 64.70593
448.8587, 62.60400
449.3409, 56.50732
449.8230, 50.71692
450.3051, 48.38623
450.7872, 49.47156
451.2693, 52.03833
451.7514, 60.68811
452.2336, 65.60718
452.7157, 62.05566
453.1978, 53.36914
453.6799, 43.05359
454.1620, 32.47070
454.6441, 23.37097
455.1263, 18.18262
455.6084, 17.43835
456.0905, 17.59192
456.5726, 16.88318
457.0547, 19.05933
457.5368, 29.54321
458.0190, 42.69470
458.5011, 49.22156
458.9832, 44.75012
459.4653, 34.83386
459.9474, 26.19128
460.4295, 18.85168
460.9117, 16.74695
461.3938, 24.81226
461.8759, 32.60767
462.3580, 28.45483
462.8401, 15.01184
463.3222, 5.729492
463.8044, 5.039185
464.2865, 9.682617
464.7686, 19.73035
465.2507, 32.72485
465.7328, 41.43250
466.2149, 42.66113
466.6971, 37.60156
467.1792, 28.19263
467.6613, 7.662842
468.1434, 2.786865
468.6255, 4.740967
469.1076, 15.34741
469.5898, 21.33594
470.0719, 21.87097
470.5540, 18.13477
471.0361, 9.844238
471.5182, 1.6479000E-02
472.0003, 1.423096
472.4825, 9.474121
472.9646, 16.83142
473.4467, 13.01245
473.9288, 7.578613
474.4109, 6.655518
474.8930, 10.35876
475.3752, 15.00562
475.8573, 19.21716
476.3394, 22.74243
476.8215, 25.76904
477.3036, 28.30249
477.7857, 27.93359
478.2679, 22.55273
478.7500, 13.47131
479.2321, 5.194092
479.7142, 4.354492
480.1963, 8.317749
480.6784, 2.546265
481.1606, 7.459229
481.6427, 20.42578
482.1248, 33.79517
482.6069, 39.03931
483.0890, 28.45837
483.5711, 5.928101
484.0533, 7.319092
484.5354, 9.018433
485.0175, 4.410034
485.4996, 14.64026
485.9817, 32.65125
486.4638, 34.36365
486.9460, 19.82336
487.4281, 4.713501
487.9102, 2.354004
488.3923, 8.783691
488.8744, 11.91077
489.3565, 11.14014
489.8387, 10.00232
490.3208, 10.95312
490.8029, 12.63953
491.2850, 11.64417
491.7671, 5.847656
492.2492, 2.100220
492.7314, 3.050537
493.2135, 6.918945
493.6956, 13.61572
494.1777, 22.07483
494.6598, 27.21851
495.1419, 24.56140
495.6241, 15.65942
496.1062, 10.61475
496.5883, 13.32251
497.0704, 14.56042
497.5525, 9.814575
498.0346, 5.761963
498.5168, 10.27637
498.9989, 22.72107
499.4810, 33.19397
499.9631, 31.35620
500.4452, 21.10266
500.9273, 18.02734
501.4095, 23.97131
501.8916, 29.33826
502.3737, 29.98254
502.8558, 27.54602
503.3379, 24.82178
503.8200, 21.94971
504.3022, 18.42297
504.7843, 12.26624
505.2664, 6.384888
505.7485, 5.419434
506.2306, 8.915161
506.7127, 11.10217
507.1949, 7.541260
507.6770, 0.4244380
508.1591, 0.4798580
508.6412, 12.01111
509.1233, 20.27710
509.6054, 21.25635
510.0876, 19.54358
510.5697, 18.35413
511.0518, 17.81384
511.5339, 16.12659
512.0161, 11.09534
512.4982, 4.576416
512.9803, 2.087524
513.4624, 4.318237
513.9445, 6.609009
514.4266, 7.934814
514.9088, 7.994385
515.3909, 5.779297
515.8730, 0.9468990
516.3551, 1.845703
516.8372, 4.5170002E-03
517.3193, 3.608154
517.8015, 7.478394
518.2836, 10.86743
518.7657, 11.51746
519.2478, 7.956421
519.7299, 2.160522
520.2120, 1.095825
520.6942, 0.1966550
521.1763, 0.1943360
521.6584, 2.903442
522.1405, 3.717896
522.6226, 5.166870
523.1047, 18.89441
523.5869, 24.48608
524.0690, 13.01172
524.5511, 5.150879
525.0332, 12.91895
525.5153, 10.35828
525.9974, 7.389771
526.4796, 6.648926
526.9617, 5.275391
527.4438, 2.444580
527.9259, 15.34692
528.4080, 21.11658
528.8901, 8.413086
529.3723, 2.403076
529.8544, 4.571411
530.3365, 21.51843
530.8186, 32.06152
531.3007, 30.76270
531.7828, 25.03479
532.2650, 25.61792
532.7471, 34.34998
533.2292, 37.97449
533.7113, 34.64185
534.1934, 27.93127
534.6755, 13.16760
535.1577, 2.048096
535.6398, 6.148438
536.1219, 5.056763
536.6040, 18.95630
537.0861, 23.48743
537.5682, 21.01599
538.0504, 20.35535
538.5325, 23.52307
539.0146, 25.26025
539.4967, 20.39160
539.9788, 11.10083
540.4609, 8.343140
540.9431, 19.83752
541.4252, 26.52234
541.9073, 18.91089
542.3894, 8.065796
542.8715, 5.194458
543.3536, 10.68103
543.8358, 17.48157
544.3179, 20.29541
544.8000, 19.94409
545.2821, 20.45068
545.7642, 23.37659
546.2463, 22.85205
546.7285, 13.74854
547.2106, 3.255249
547.6926, 4.577637
548.1747, 9.236572
548.6569, 8.759033
549.1390, 2.056030
549.6211, 15.41260
550.1032, 22.56189
550.5853, 24.50220
551.0674, 25.34192
551.5496, 26.35425
552.0317, 29.46082
552.5138, 39.66846
552.9959, 64.20312
553.4780, 70.81128
553.9601, 43.09546
554.4423, 17.69397
554.9244, 9.218750
555.4065, 12.77869
555.8886, 20.89661
556.3707, 31.06409
556.8528, 39.86365
557.3350, 42.13049
557.8171, 38.73938
558.2992, 36.35376
558.7813, 34.93518
559.2634, 36.61780
559.7455, 43.73059
560.2277, 55.09961
560.7098, 66.72595
561.1919, 82.16357
561.6740, 91.63940
562.1561, 87.83301
562.6382, 79.14673
563.1204, 72.77844
563.6025, 70.40601
564.0846, 72.88794
564.5667, 81.45532
565.0488, 94.28296
565.5309, 104.1578
566.0131, 109.9713
566.4952, 115.8047
566.9773, 122.3488
567.4594, 128.9287
567.9415, 133.0511
568.4236, 136.2208
568.9058, 145.0679
569.3879, 167.7222
569.8700, 192.5380
570.3521, 208.7115
570.8342, 217.2773
571.3163, 218.5413
571.7985, 211.4230
572.2806, 209.3842
572.7627, 231.8973
573.2448, 284.0792
573.7269, 312.5269
574.2090, 296.4247
574.6912, 283.0576
575.1733, 285.7126
575.6554, 296.2339
576.1375, 306.5426
576.6196, 314.2925
577.1017, 318.6884
577.5839, 319.2401
578.0660, 315.7592
578.5481, 307.6128
579.0302, 294.5120
579.5123, 278.0027
579.9944, 255.3657
580.4766, 233.5063
580.9587, 227.4901
581.4408, 241.7745
581.9229, 249.8535
582.4050, 243.1884
582.8871, 232.8612
583.3693, 225.9636
583.8514, 222.0621
584.3335, 217.3051
584.8156, 210.0153
585.2977, 205.6405
585.7798, 216.3695
586.2620, 244.8021
586.7441, 255.7382
587.2262, 239.2891
587.7083, 218.6207
588.1904, 205.4933
588.6725, 196.6877
589.1547, 187.2629
589.6368, 176.3281
590.1189, 165.2695
590.6010, 156.0800
591.0831, 146.2196
591.5652, 132.3872
592.0474, 115.1445
592.5295, 98.83789
593.0116, 85.98291
593.4937, 76.49622
593.9758, 71.65063
594.4579, 75.38269
594.9401, 72.98755
595.4222, 55.13525
595.9043, 38.31079
596.3864, 31.94788
596.8685, 33.21204
597.3506, 34.14905
597.8328, 31.72815
598.3149, 28.28918
598.7970, 25.18726
599.2791, 22.77222
599.7612, 22.51819
600.2433, 24.71814
600.7255, 26.61279
601.2076, 25.77563
601.6897, 22.55969
602.1718, 19.84094
602.6539, 17.75500
603.1360, 16.21411
603.6182, 13.00488
604.1003, 11.52100
604.5824, 16.87439
605.0645, 27.28259
605.5466, 33.77258
606.0287, 29.13098
606.5109, 19.92664
606.9930, 15.83777
607.4751, 15.63232
607.9572, 12.55334
608.4393, 3.726318
608.9214, 3.011841
609.4036, 0.7288820
609.8857, 15.25952
610.3678, 26.84155
610.8499, 35.08630
611.3320, 41.15442
611.8141, 44.23682
612.2963, 45.93188
612.7784, 46.47522
613.2605, 46.88574
613.7426, 50.73035
614.2247, 62.00903
614.7068, 77.54980
615.1890, 89.28479
615.6711, 97.02881
616.1532, 105.4989
616.6353, 117.0634
617.1174, 127.9248
617.5995, 133.2898
618.0817, 133.0289
618.5638, 133.1332
619.0459, 128.1337
619.5280, 130.2388
620.0101, 149.2743
620.4922, 175.2382
620.9744, 197.3895
621.4565, 212.8126
621.9386, 222.1099
622.4207, 224.1312
622.9028, 221.4447
623.3849, 225.1896
623.8671, 236.9633
624.3492, 245.8401
624.8313, 248.2349
625.3134, 246.6770
625.7955, 244.5569
626.2776, 241.8782
626.7598, 234.5066
627.2419, 222.2302
627.7240, 204.7799
628.2061, 178.4999
628.6882, 148.4542
629.1703, 119.8916
629.6525, 95.14014
630.1346, 78.26807
630.6167, 76.27917
631.0988, 85.18250
631.5809, 80.22314
632.0630, 56.05688
632.5452, 39.36536
633.0273, 43.74097
633.5094, 53.62073
633.9915, 50.59778
634.4736, 35.46143
634.9557, 23.54932
635.4379, 16.50061
635.9200, 14.76123
636.4021, 23.39648
636.8842, 35.81323
637.3663, 41.95142
637.8484, 39.50122
638.3306, 32.59717
638.8127, 24.36621
639.2948, 15.43652
639.7769, 9.621826
640.2590, 6.684204
640.7411, 8.113403
641.2233, 19.21375
641.7054, 30.13647
642.1875, 28.78345
642.6696, 16.34460
643.1517, 7.722900
643.6339, 6.269287
644.1160, 9.075806
644.5981, 18.04260
645.0802, 28.85852
645.5623, 36.16772
646.0444, 38.31201
646.5266, 34.00720
647.0087, 19.71265
647.4908, 0.6293950
647.9729, 6.961060
648.4550, 4.219727
648.9371, 15.80969
649.4193, 25.01770
649.9014, 31.44775
650.3835, 34.87488
650.8656, 35.38416
651.3477, 33.15747
651.8298, 24.83704
652.3120, 17.62451
652.7941, 16.66443
653.2762, 18.02466
653.7583, 14.17480
654.2404, 5.744019
654.7225, 3.141357
655.2047, 16.90564
655.6868, 40.02124
656.1689, 48.10461
656.6510, 38.85596
657.1331, 28.09241
657.6152, 16.48975
658.0974, 8.116089
658.5795, 11.13452
659.0616, 22.05701
659.5437, 24.79834
660.0258, 8.432739
660.5079, 4.500122
660.9901, 2.277710
661.4722, 4.552734
661.9543, 2.906494
662.4364, 6.228394
662.9185, 10.80566
663.4006, 1.675537
663.8828, 13.59216
664.3649, 18.03113
664.8470, 11.28955
665.3291, 4.431763
665.8112, 2.679565
666.2933, 5.045288
666.7755, 5.079834
667.2576, 23.22778
667.7397, 29.22461
668.2218, 13.31055
668.7039, 1.230103
669.1860, 1.200439
669.6682, 1.290527
670.1503, 8.360229
670.6324, 16.92188
671.1145, 19.66443
671.5966, 12.33765
672.0787, 2.617920
672.5609, 2.072998
673.0430, 9.357788
673.5251, 15.17456
674.0072, 18.81006
674.4893, 20.00647
674.9714, 18.35986
675.4536, 14.34644
675.9357, 9.387207
676.4178, 1.764648
676.8999, 3.003906
677.3820, 3.246338
677.8641, 2.171387
678.3463, 2.437378
678.8284, 2.216064
679.3105, 2.916016
679.7926, 14.34094
680.2747, 24.80554
680.7568, 25.38086
681.2390, 20.39392
681.7211, 21.23474
682.2032, 27.93787
682.6853, 32.12146
683.1674, 29.87781
683.6495, 24.34204
684.1317, 20.36182
684.6138, 18.47144
685.0959, 15.36768
685.5780, 6.304321
686.0601, 1.734863
686.5422, 8.571899
687.0244, 18.45959
687.5065, 22.24902
687.9886, 19.13708
688.4707, 15.62671
688.9528, 16.73206
689.4349, 18.30396
689.9171, 14.90967
690.3992, 8.038818
690.8813, 1.552490
691.3634, 3.422607
691.8455, 6.059937
692.3276, 5.414429
692.8098, 1.684082
693.2919, 3.853394
693.7740, 13.33362
694.2561, 19.90356
694.7382, 22.05981
695.2203, 21.03284
695.7025, 13.14026
696.1846, 2.118286
696.6667, 2.175781
697.1488, 27.24683
697.6309, 48.42139
698.1130, 46.45154
698.5952, 34.03833
699.0773, 24.25159
699.5594, 19.85437
700.0415, 23.19592
700.5236, 36.98535
701.0057, 52.47815
701.4879, 47.81018
701.9700, 21.42566
702.4521, 9.193481
702.9342, 19.86169
703.4163, 30.18018
703.8984, 23.72314
704.3806, 8.661255
704.8627, 5.587646
705.3448, 20.00110
705.8269, 29.24805
706.3090, 29.21033
706.7911, 25.36963
707.2733, 18.05261
707.7554, 10.38062
708.2375, 8.231445
708.7196, 12.99805
709.2017, 17.16199
709.6838, 9.898193
710.1660, 2.489502
710.6481, 2.632568
711.1302, 9.784668
711.6123, 23.94409
712.0944, 36.68689
712.5765, 44.84375
713.0587, 42.69470
713.5408, 29.67090
714.0229, 18.31494
714.5050, 5.233032
714.9871, 1.181763
715.4692, 6.117188
715.9514, 15.92627
716.4335, 17.70532
716.9156, 13.02234
717.3977, 12.56604
717.8798, 24.31714
718.3619, 36.21313
718.8441, 39.06274
719.3262, 35.95459
719.8083, 30.99438
720.2904, 25.02515
720.7725, 18.72681
721.2546, 12.87390
721.7368, 9.280762
722.2189, 15.61377
722.7010, 34.78882
723.1831, 44.63037
723.6652, 40.46558
724.1473, 33.59290
724.6295, 29.03918
725.1116, 26.74231
725.5937, 27.38147
726.0758, 32.43274
726.5579, 35.22375
727.0400, 33.39868
727.5222, 30.38782
728.0043, 25.93335
728.4864, 21.86047
728.9685, 20.90137
729.4506, 23.58118
729.9327, 27.30090
730.4149, 32.15247
730.8970, 35.37512
731.3791, 27.48474
731.8612, 10.12610
732.3433, 0.4464110
732.8254, 0.9531250
733.3076, 7.205566
733.7897, 11.31189
734.2718, 13.48621
734.7539, 16.67749
735.2360, 22.44202
735.7181, 27.04785
736.2003, 29.91455
736.6824, 31.61426
737.1645, 33.46887
737.6466, 34.38892
738.1287, 30.81152
738.6108, 18.16797
739.0930, 9.813354
739.5751, 18.67126
740.0572, 32.75232
740.5393, 37.97937
741.0214, 35.02307
741.5035, 27.20752
741.9857, 16.06897
742.4678, 6.743164
742.9499, 8.232544
743.4320, 19.59265
743.9141, 27.28552
744.3962, 30.60217
744.8784, 33.67358
745.3605, 39.13281
745.8426, 43.52869
746.3247, 41.22412
746.8068, 31.06555
747.2889, 25.17554
747.7711, 28.52625
748.2532, 29.43274
748.7353, 21.30664
749.2174, 12.64709
749.6995, 12.61450
750.1816, 19.72864
750.6638, 23.59021
751.1459, 16.61829
751.6280, 7.815430
752.1101, 5.909790
752.5922, 9.125977
753.0743, 16.84741
753.5565, 27.34412
754.0386, 30.78271
754.5207, 20.62903
755.0028, 6.152466
755.4849, 8.530396
755.9670, 30.98779
756.4492, 37.23389
756.9313, 18.42981
757.4134, 4.523071
757.8955, 11.57568
758.3776, 28.27588
758.8597, 38.02942
759.3419, 40.53748
759.8240, 40.98413
760.3061, 41.34607
760.7882, 37.81433
761.2703, 24.38635
761.7524, 9.347778
762.2346, 0.8044430
762.7167, 0.3439940
763.1988, 3.166992
763.6809, 11.70361
764.1630, 20.79175
764.6451, 26.03613
765.1273, 27.68079
765.6094, 25.60181
766.0915, 20.07275
766.5736, 14.72632
767.0557, 12.97253
767.5378, 12.51392
768.0200, 5.890503
768.5021, 10.04590
768.9842, 10.05615
769.4663, 14.27576
769.9484, 36.89478
770.4305, 47.75806
770.9127, 49.88464
771.3948, 46.38452
771.8769, 36.79773
772.3590, 28.50073
772.8411, 20.58972
773.3232, 16.21680
773.8054, 17.69397
774.2875, 22.26636
774.7696, 28.51636
775.2517, 34.75793
775.7338, 39.77026
776.2159, 43.72461
776.6981, 44.09961
777.1802, 35.09399
777.6623, 21.06763
778.1444, 12.49377
778.6265, 10.13171
779.1086, 7.485474
779.5908, 0.4833980
780.0729, 5.536499
780.5550, 1.423462
781.0371, 23.45117
781.5192, 37.09558
782.0013, 40.37219
782.4835, 40.73096
782.9656, 41.82703
783.4477, 40.50403
783.9298, 29.73743
784.4119, 9.099976
784.8940, 1.546021
785.3762, 3.860962
785.8583, 12.53284
786.3404, 25.53809
786.8225, 36.84827
787.3046, 40.88904
787.7867, 38.61304
788.2689, 34.54297
788.7510, 30.17224
789.2331, 25.81177
789.7152, 20.82532
790.1973, 16.36292
790.6794, 15.09595
791.1616, 16.42249
791.6437, 16.83728
792.1258, 14.82996
792.6079, 13.84351
793.0900, 20.66077
793.5721, 33.57849
794.0543, 33.07288
794.5364, 16.03796
795.0185, 6.146973
795.5006, 13.45959
795.9827, 22.66711
796.4648, 16.13086
796.9470, 3.568481
797.4291, 8.386963
797.9112, 21.23694
798.3933, 37.68774
798.8754, 26.23560
799.3575, 13.66150
799.8397, 18.00977
800.3218, 31.57141
800.8039, 37.70129
801.2860, 31.63928
801.7681, 25.70740
802.2502, 29.33337
802.7324, 32.90637
803.2145, 24.08350
803.6966, 9.741455
804.1787, 5.495605
804.6608, 13.83142
805.1429, 21.05237
805.6251, 14.31726
806.1072, 0.6302490
806.5893, 4.515259
807.0714, 2.275391
807.5535, 2.021729
808.0356, 5.618408
808.5178, 5.859863
808.9999, 3.205078
809.4820, 16.39758
809.9641, 19.59009
810.4462, 8.271362
810.9283, 3.942749
811.4105, 12.35889
811.8926, 18.31494
812.3747, 12.19519
812.8568, 3.847534
813.3389, 3.314209
813.8210, 11.40222
814.3032, 19.00427
814.7853, 26.74402
815.2674, 31.31738
815.7495, 27.26025
816.2316, 22.93396
816.7137, 29.35852
817.1959, 42.42419
817.6780, 47.35156
818.1601, 36.54407
818.6422, 23.04919
819.1243, 17.49756
819.6064, 16.54883
820.0886, 15.23010
820.5707, 13.61914
821.0528, 14.78394
821.5349, 19.39917
822.0170, 21.52637
822.4991, 12.61548
822.9813, 3.152344
823.4634, 6.196533
823.9455, 4.231445
824.4276, 10.96411
824.9097, 9.663696
825.3918, 7.422363
825.8740, 9.831909
826.3561, 14.45850
826.8382, 16.18799
827.3203, 13.93335
827.8024, 13.05286
828.2845, 16.10425
828.7667, 17.35999
829.2488, 11.80371
829.7309, 5.122559
830.2130, 5.875488
830.6951, 14.41418
831.1772, 17.73401
831.6594, 4.921875
832.1415, 4.154175
832.6236, 1.821533
833.1057, 13.68604
833.5878, 24.26379
834.0699, 31.82458
834.5521, 35.37866
835.0342, 34.25269
835.5163, 30.40308
835.9984, 22.99719
836.4805, 16.48279
836.9626, 19.77454
837.4448, 30.36633
837.9269, 40.22791
838.4090, 47.51367
838.8911, 49.03418
839.3732, 39.89478
839.8553, 24.04321
840.3375, 16.97778
840.8196, 18.91321
841.3017, 17.63367
841.7838, 9.895264
842.2659, 4.438843
842.7480, 7.695190
843.2302, 16.53711
843.7123, 21.71753
844.1944, 21.71008
844.6765, 23.81104
845.1586, 27.76465
845.6407, 33.10852
846.1229, 43.13318
846.6050, 51.36438
847.0871, 51.62073
847.5692, 44.37207
848.0513, 36.72119
848.5334, 27.43799
849.0156, 20.91504
849.4977, 21.69128
849.9798, 23.55322
850.4619, 20.24817
850.9440, 14.53857
851.4261, 14.02832
851.9083, 21.65198
852.3904, 28.90637
852.8725, 31.07019
853.3546, 29.38953
853.8367, 23.12268
854.3188, 14.96277
854.8010, 10.01001
855.2831, 9.088867
855.7652, 9.823730
856.2473, 9.130737
856.7294, 7.953735
857.2115, 5.874756
857.6937, 4.522461
858.1758, 14.55750
858.6579, 36.31177
859.1400, 51.67517
859.6221, 52.05042
860.1042, 43.60681
860.5864, 33.47351
861.0685, 22.04651
861.5506, 19.92224
862.0327, 30.05127
862.5148, 37.85376
862.9969, 39.57825
863.4791, 39.48303
863.9612, 41.19983
864.4433, 43.33264
864.9254, 41.85376
865.4075, 33.88110
865.8896, 27.67188
866.3718, 23.81689
866.8539, 21.84387
867.3360, 22.15369
867.8181, 22.94617
868.3002, 23.10913
868.7823, 22.26086
869.2645, 17.96094
869.7466, 8.3618000E-02
870.2287, 9.213135
870.7108, 9.491943
871.1929, 32.26953
871.6750, 35.96228
872.1572, 26.31873
872.6393, 21.42090
873.1214, 27.47058
873.6035, 33.64893
874.0856, 32.82117
874.5677, 27.48999
875.0499, 16.13257
875.5320, 3.756958
876.0141, 2.693970
876.4962, 13.27051
876.9783, 22.49097
877.4604, 21.23218
877.9426, 15.46057
878.4247, 15.19934
878.9068, 18.63000
879.3889, 17.57556
879.8710, 12.16101
880.3531, 11.61023
880.8353, 19.59436
881.3174, 28.46106
881.7995, 29.04333
882.2816, 22.68628
882.7637, 21.73340
883.2458, 27.24060
883.7280, 30.01978
884.2101, 27.85010
884.6922, 25.13660
885.1743, 24.40039
885.6564, 25.37207
886.1385, 28.03894
886.6207, 33.90088
887.1028, 34.41187
887.5849, 25.73828
888.0670, 17.87158
888.5491, 12.64697
889.0313, 9.946411
889.5134, 10.76123
889.9955, 13.80701
890.4776, 15.49976
890.9597, 13.77686
891.4418, 13.04749
891.9240, 19.17407
892.4061, 20.70410
892.8882, 5.002441
893.3703, 15.43823
893.8524, 23.53674
894.3345, 17.43091
894.8167, 7.112061
895.2988, 10.02783
895.7809, 22.35693
896.2630, 19.59265
896.7451, 12.05994
897.2272, 10.83545
897.7094, 14.33936
898.1915, 14.56470
898.6736, 8.601563
899.1557, 4.753784
899.6378, 14.33044
900.1199, 25.95044
900.6021, 25.60510
901.0842, 16.39844
901.5663, 2.354004
902.0484, 13.58997
902.5305, 23.49109
903.0126, 22.23792
903.4948, 13.41882
903.9769, 3.649414
904.4590, 23.17529
904.9411, 21.22864
905.4232, 0.7714840
905.9053, 7.084961
906.3875, 7.646851
906.8696, 22.88037
907.3517, 15.75867
907.8338, 4.464478
908.3159, 4.676880
908.7980, 15.34277
909.2802, 21.03113
909.7623, 6.239990
910.2444, 2.593262
910.7265, 8.463379
911.2086, 28.49487
911.6907, 42.77393
912.1729, 51.27478
912.6550, 53.52344
913.1371, 47.35498
913.6192, 41.48828
914.1013, 35.88452
914.5834, 33.89160
915.0656, 39.41235
915.5477, 48.97461
916.0298, 54.82556
916.5119, 56.37695
916.9940, 56.12720
917.4761, 53.73242
917.9583, 50.01514
918.4404, 41.02771
918.9225, 34.32422
919.4046, 37.84180
919.8867, 48.79749
920.3688, 56.70288
920.8510, 59.69617
921.3331, 62.10571
921.8152, 66.22522
922.2973, 67.95093
922.7794, 62.81592
923.2615, 55.93713
923.7437, 51.87036
924.2258, 51.61511
924.7079, 57.35413
925.1900, 75.24146
925.6721, 90.15088
926.1542, 92.60059
926.6364, 92.74768
927.1185, 99.59875
927.6006, 109.4470
928.0827, 112.5470
928.5648, 109.2709
929.0469, 112.7432
929.5291, 139.1818
930.0112, 165.3278
930.4933, 169.5569
930.9754, 166.4303
931.4575, 172.0822
931.9396, 187.4614
932.4218, 209.8510
932.9039, 238.2098
933.3860, 266.7494
933.8681, 286.6709
934.3502, 306.9778
934.8323, 335.1444
935.3145, 373.9355
935.7966, 428.2920
936.2787, 498.4869
936.7608, 582.9333
937.2429, 680.7305
937.7250, 789.3416
938.2072, 902.4689
938.6893, 1026.021
939.1714, 1176.630
939.6535, 1350.685
940.1356, 1531.943
940.6177, 1717.982
941.0999, 1914.878
941.5820, 2125.113
942.0641, 2359.509
942.5462, 2640.806
943.0283, 2964.200
943.5104, 3300.652
943.9926, 3649.958
944.4747, 4042.541
944.9568, 4487.759
945.4389, 4976.366
945.9210, 5504.665
946.4031, 6053.607
946.8853, 6598.214
947.3674, 7138.483
947.8495, 7550.591
948.3316, 7831.000
948.8137, 7928.285
949.2958, 7818.142
949.7780, 7536.495
950.2601, 7110.976
950.7422, 6558.212
951.2243, 5952.736
951.7064, 5283.451
952.1885, 4639.955
952.6707, 4031.321
953.1528, 3460.064
953.6349, 2921.955
954.1170, 2433.011
954.5991, 2007.375
955.0812, 1647.169
955.5634, 1351.527
956.0455, 1133.316
956.5276, 943.0034
957.0097, 771.1909
957.4918, 631.8938
957.9739, 540.8656
958.4561, 477.3394
958.9382, 406.4246
959.4203, 325.8340
959.9024, 266.9254
960.3845, 237.7802
960.8666, 215.6757
961.3488, 201.1702
961.8309, 188.8938
962.3130, 174.3354
962.7951, 159.2722
963.2772, 147.3958
963.7593, 139.1942
964.2415, 130.0911
964.7236, 118.4047
965.2057, 107.4194
965.6878, 99.35547
966.1699, 90.28772
966.6520, 75.32056
967.1342, 57.91956
967.6163, 46.13074
968.0984, 40.02710
968.5805, 39.77332
969.0626, 53.11536
969.5447, 62.06250
970.0269, 59.03174
970.5090, 51.70312
970.9911, 43.77539
971.4732, 36.58765
971.9553, 33.31702
972.4374, 35.27734
972.9196, 37.46387
973.4017, 42.93970
973.8838, 44.10181
974.3659, 33.55396
974.8480, 20.86963
975.3301, 12.75098
975.8123, 10.16956
976.2944, 14.05579
976.7765, 28.18506
977.2586, 36.54297
977.7407, 30.20642
978.2228, 24.72876
978.7050, 26.14209
979.1871, 30.73413
979.6692, 36.42883
980.1513, 42.58191
980.6334, 46.26660
981.1155, 44.10608
981.5977, 45.02795
982.0798, 56.01465
982.5619, 65.11768
983.0440, 64.00012
983.5261, 59.46802
984.0082, 59.36328
984.4904, 63.11768
984.9725, 65.19763
985.4546, 63.17859
985.9367, 62.75110
986.4188, 67.36621
986.9009, 72.29675
987.3831, 74.12537
987.8652, 75.05139
988.3473, 77.48364
988.8294, 81.61133
989.3115, 86.55334
989.7936, 91.47754
990.2758, 98.85986
990.7579, 114.7655
991.2400, 128.7124
991.7221, 126.6799
992.2042, 121.8600
992.6863, 133.0785
993.1685, 159.0179
993.6506, 182.7927
994.1327, 197.1014
994.6148, 213.6550
995.0969, 234.8812
995.5790, 262.7231
996.0612, 306.3182
996.5433, 352.0514
997.0254, 379.7573
997.5075, 392.2755
997.9896, 411.5956
998.4717, 446.4458
998.9539, 485.1328
999.4360, 523.4572
999.9181, 562.7511
1000.400, 601.9958
1000.882, 643.6449
1001.364, 698.2487
1001.847, 759.3124
1002.329, 799.0997
1002.811, 806.7374
1003.293, 796.5156
1003.775, 769.5836
1004.257, 733.1589
1004.739, 687.7040
1005.221, 638.8354
1005.703, 594.5201
1006.186, 553.7567
1006.668, 507.6161
1007.150, 451.4854
1007.632, 396.3702
1008.114, 344.5250
1008.596, 298.4807
1009.078, 258.7363
1009.560, 226.5969
1010.043, 206.2531
1010.525, 194.9510
1011.007, 183.0106
1011.489, 167.7882
1011.971, 150.2233
1012.453, 126.8679
1012.935, 105.5475
1013.417, 89.30859
1013.899, 79.03772
1014.382, 79.33228
1014.864, 86.33948
1015.346, 87.68921
1015.828, 79.03467
1016.310, 68.86487
1016.792, 56.33752
1017.274, 47.97388
1017.756, 53.03528
1018.239, 59.54932
1018.721, 52.03564
1019.203, 35.31287
1019.685, 27.78162
1020.167, 36.28894
1020.649, 40.61182
1021.131, 29.52307
1021.613, 18.56458
1022.095, 14.53235
1022.578, 14.17871
1023.060, 15.84973
1023.542, 18.20874
1024.024, 18.42322
1024.506, 15.38928
1024.988, 14.08374
1025.470, 20.79346
1025.952, 22.90198
1026.435, 8.023804
1026.917, 6.221924
1027.399, 2.241699
1027.881, 12.32373
1028.363, 19.46326
1028.845, 15.94324
1029.327, 13.05835
1029.809, 15.85583
1030.292, 15.36243
1030.774, 4.779419
1031.256, 5.467285
1031.738, 9.635010
1032.220, 8.009033
1032.702, 0.8726810
1033.184, 18.17822
1033.666, 26.72314
1034.148, 20.32397
1034.630, 11.54907
1035.113, 1.839478
1035.595, 12.50269
1036.077, 14.30908
1036.559, 11.98645
1037.041, 14.14270
1037.523, 21.24219
1038.005, 19.28845
1038.487, 2.894409
1038.970, 16.10449
1039.452, 12.83569
1039.934, 8.086792
1040.416, 9.645630
1040.898, 12.86987
1041.380, 11.98596
1041.862, 7.407959
1042.344, 3.577026
1042.826, 0.5809330
1043.309, 1.336182
1043.791, 3.736572
1044.273, 7.899292
1044.755, 8.268921
1045.237, 7.309448
1045.719, 7.308960
1046.201, 8.173462
1046.683, 10.00281
1047.166, 14.93896
1047.648, 12.47937
1048.130, 1.560669
1048.612, 10.79980
1049.094, 10.11316
1049.576, 3.067383
1050.058, 9.744385
1050.540, 23.52368
1051.022, 23.58093
1051.505, 7.756714
1051.987, 0.3770750
1052.469, 2.854004
1052.951, 5.059814
1053.433, 4.377197
1053.915, 4.301514
1054.397, 6.900513
1054.879, 12.52649
1055.361, 22.58411
1055.844, 36.56262
1056.326, 49.66980
1056.808, 61.96155
1057.290, 65.52637
1057.772, 58.87268
1058.254, 57.92651
1058.736, 71.33594
1059.218, 89.47827
1059.701, 98.55920
1060.183, 102.9370
1060.665, 117.7496
1061.147, 141.2618
1061.629, 163.6686
1062.111, 184.1840
1062.593, 205.9961
1063.075, 230.4138
1063.557, 257.6560
1064.040, 288.4369
1064.522, 320.5023
1065.004, 350.0624
1065.486, 377.2540
1065.968, 402.4563
1066.450, 425.4750
1066.932, 449.6073
1067.414, 473.2622
1067.896, 480.1825
1068.379, 457.7754
1068.861, 419.7437
1069.343, 375.2615
1069.825, 329.5768
1070.307, 290.3734
1070.789, 255.3486
1071.271, 217.5593
1071.753, 177.9194
1072.236, 144.5469
1072.718, 121.2197
1073.200, 102.7113
1073.682, 83.78320
1074.164, 69.84558
1074.646, 66.06519
1075.128, 67.67822
1075.610, 70.69885
1076.093, 72.84570
1076.575, 69.35388
1077.057, 58.67627
1077.539, 52.01624
1078.021, 59.87439
1078.503, 65.37085
1078.985, 54.38672
1079.467, 44.50464
1079.949, 52.05908
1080.432, 68.86572
1080.914, 81.40161
1081.396, 88.01489
1081.878, 91.25537
1082.360, 88.94714
1082.842, 87.36243
1083.324, 89.52368
1083.806, 90.10229
1084.288, 84.52625
1084.771, 77.45142
1085.253, 75.51892
1085.735, 77.48254
1086.217, 77.39551
1086.699, 73.31091
1087.181, 72.80542
1087.663, 80.49792
1088.145, 82.11182
1088.628, 71.87256
1089.110, 58.04517
1089.592, 44.60107
1090.074, 33.98071
1090.556, 31.17188
1091.038, 35.97217
1091.520, 39.37573
1092.002, 41.26367
1092.484, 42.74207
1092.967, 44.17322
1093.449, 41.51477
1093.931, 32.76257
1094.413, 24.40137
1094.895, 25.46973
1095.377, 31.13696
1095.859, 22.27039
1096.341, 2.903564
1096.823, 4.139648
1097.306, 1.804077
1097.788, 6.313721
1098.270, 4.858032
1098.752, 3.828979
1099.234, 8.719727
1099.716, 14.95081
1100.198, 14.21021
1100.680, 10.24524
1101.163, 10.27832
1101.645, 14.37476
1102.127, 24.21521
1102.609, 37.09680
1103.091, 41.49976
1103.573, 31.67749
1104.055, 18.55884
1104.537, 7.854980
1105.020, 1.516724
1105.502, 3.170288
1105.984, 8.716675
1106.466, 15.13452
1106.948, 21.03516
1107.430, 23.97205
1107.912, 23.34412
1108.394, 20.02722
1108.876, 9.392700
1109.359, 2.995483
1109.841, 8.745483
1110.323, 16.07751
1110.805, 19.07776
1111.287, 19.30029
1111.769, 19.14441
1112.251, 18.41846
1112.733, 14.90332
1113.215, 5.466064
1113.698, 0.6936040
1114.180, 5.414917
1114.662, 7.531128
1115.144, 2.498169
1115.626, 3.400024
1116.108, 7.175537
1116.590, 7.786133
1117.072, 2.530640
1117.555, 8.645386
1118.037, 17.32397
1118.519, 23.83398
1119.001, 24.87964
1119.483, 18.85620
1119.965, 15.85498
1120.447, 20.55652
1120.929, 26.87585
1121.411, 28.65540
1121.894, 27.13293
1122.376, 25.50745
1122.858, 23.46704
1123.340, 18.44043
1123.822, 11.17407
1124.304, 5.586548
1124.786, 2.737183
1125.268, 2.872803
1125.750, 6.255127
1126.233, 10.44458
1126.715, 13.04700
1127.197, 14.48840
1127.679, 13.83398
1128.161, 13.36340
1128.643, 17.70007
1129.125, 25.29675
1129.607, 33.31860
1130.090, 40.05359
1130.572, 37.32861
1131.054, 11.23254
1131.536, 7.761230
1132.018, 3.286133
1132.500, 18.87756
1132.982, 22.30652
1133.464, 19.73865
1133.947, 19.62988
1134.429, 21.41003
1134.911, 18.91455
1135.393, 7.955933
1135.875, 4.622681
1136.357, 16.51746
1136.839, 27.07031
1137.321, 37.36230
1137.803, 39.39441
1138.286, 22.83667
1138.768, 2.499268
1139.250, 1.810730
1139.732, 18.00745
1140.214, 24.56042
1140.696, 20.35950
1141.178, 13.91675
1141.660, 5.115234
1142.142, 2.568787
1142.625, 9.446960
1143.107, 15.54028
1143.589, 12.22583
1144.071, 7.126526
1144.553, 18.89337
1145.035, 38.30652
1145.517, 29.63745
1145.999, 3.023926
1146.482, 3.746582
1146.964, 9.686707
1147.446, 20.89111
1147.928, 21.39301
1148.410, 18.37128
1148.892, 14.04401
1149.374, 13.64099
1149.856, 29.09326
1150.339, 43.85602
1150.821, 37.41174
1151.303, 21.50031
1151.785, 14.17914
1152.267, 15.99847
1152.749, 18.31934
1153.231, 19.82544
1153.713, 18.63049
1154.195, 8.787109
1154.677, 3.537781
1155.160, 14.60730
1155.642, 23.85333
1156.124, 16.85602
1156.606, 4.392090
1157.088, 2.678772
1157.570, 10.60803
1158.052, 15.31085
1158.534, 16.78998
1159.017, 13.82367
1159.499, 4.739014
1159.981, 2.113037
1160.463, 10.71979
1160.945, 17.30408
1161.427, 11.51923
1161.909, 2.015686
1162.391, 4.592346
1162.874, 14.94086
1163.356, 19.72491
1163.838, 19.51727
1164.320, 14.06445
1164.802, 5.264954
1165.284, 1.631042
1165.766, 4.463440
1166.248, 0.8990480
1166.730, 12.22095
1167.213, 28.06073
1167.695, 48.46252
1168.177, 61.30884
1168.659, 49.23126
1169.141, 28.16248
1169.623, 14.45135
1170.105, 9.827209
1170.587, 12.79346
1171.069, 24.46210
1171.552, 31.90430
1172.034, 26.57123
1172.516, 26.80609
1172.998, 38.06268
1173.480, 51.57434
1173.962, 67.48438
1174.444, 78.85974
1174.926, 77.73419
1175.409, 66.95374
1175.891, 55.96729
1176.373, 44.50543
1176.855, 36.57684
1177.337, 32.04382
1177.819, 32.79449
1178.301, 38.97125
1178.783, 42.14252
1179.266, 38.18964
1179.748, 33.61963
1180.230, 36.03455
1180.712, 40.62231
1181.194, 38.58997
1181.676, 33.93665
1182.158, 33.74542
1182.640, 36.42908
1183.122, 37.07208
1183.604, 36.52191
1184.087, 37.00696
1184.569, 39.62299
1185.051, 42.55811
1185.533, 47.19354
1186.015, 48.95618
1186.497, 44.61292
1186.979, 38.12396
1187.461, 30.24744
1187.944, 23.19110
1188.426, 19.32928
1188.908, 18.72888
1189.390, 22.40497
1189.872, 32.60974
1190.354, 38.64636
1190.836, 40.46405
1191.318, 41.70886
1191.801, 43.49579
1192.283, 42.95691
1192.765, 38.40985
1193.247, 30.91754
1193.729, 20.37292
1194.211, 10.05310
1194.693, 8.537720
1195.175, 13.45935
1195.657, 20.48077
1196.140, 27.74884
1196.622, 30.40137
1197.104, 28.87390
1197.586, 29.71722
1198.068, 35.90131
1198.550, 43.38947
1199.032, 54.43561
1199.514, 59.77277
1199.996, 48.89917
1200.479, 35.49103
1200.961, 29.98938
1201.443, 26.93970
1201.925, 14.53040
1202.407, 4.834778
1202.889, 10.60553
1203.371, 0.5601200
1203.853, 16.56158
1204.336, 43.15338
1204.818, 54.32684
1205.300, 41.77802
1205.782, 26.93689
1206.264, 20.65393
1206.746, 21.79132
1207.228, 31.69470
1207.710, 42.70386
1208.193, 29.70282
1208.675, 4.055359
1209.157, 1.342407
1209.639, 15.12787
1210.121, 22.22864
1210.603, 19.93408
1211.085, 17.39777
1211.567, 18.18781
1212.049, 22.30890
1212.531, 35.44843
1213.014, 44.20764
1213.496, 37.56293
1213.978, 28.43420
1214.460, 25.34949
1214.942, 25.29584
1215.424, 23.67175
1215.906, 21.42236
1216.388, 23.19318
1216.871, 30.50629
1217.353, 31.28955
1217.835, 22.14496
1218.317, 20.74658
1218.799, 31.21173
1219.281, 41.58899
1219.763, 41.76379
1220.245, 36.70087
1220.728, 30.08899
1221.210, 24.39105
1221.692, 24.60175
1222.174, 28.73145
1222.656, 29.05261
1223.138, 27.75513
1223.620, 31.79974
1224.102, 38.40094
1224.584, 37.23639
1225.067, 26.19910
1225.549, 14.26459
1226.031, 1.545898
1226.513, 3.873108
1226.995, 7.241760
1227.477, 17.44525
1227.959, 17.39087
1228.441, 15.39563
1228.923, 16.68805
1229.406, 21.28412
1229.888, 30.82910
1230.370, 35.90802
1230.852, 34.57861
1231.334, 19.40070
1231.816, 9.854065
1232.298, 7.440125
1232.780, 4.788574
1233.263, 4.0955000E-02
1233.745, 0.0000000E+00
##END=



