##NAMES=Lithiophilite
##RRUFFID=R100096
##IDEAL CHEMISTRY=LiMn^2+^PO_4_
##LOCALITY=Foote mine, Kings Mountain, North Carolina, USA
##OWNER=RRUFF
##SOURCE=
##DESCRIPTION=Parallel aggregate of pale pink acicular crystals, associated with quartz, muscovite, and elongated platy bertrandite, R110025.
##STATUS=The identification of this mineral has been confirmed by single-crystal X-ray diffraction.
##URL=rruff.info/R100096
91.53320, 0.0000000E+00
92.01532, 1.782944
92.49744, 3.287018
92.97955, 6.206512
93.46167, 8.537415
93.94379, 8.861908
94.42590, 7.649979
94.90802, 6.168564
95.39014, 5.325775
95.87225, 5.003433
96.35437, 4.753868
96.83649, 4.373466
97.31860, 3.745041
97.80072, 3.272186
98.28284, 2.928032
98.76495, 2.564369
99.24707, 2.401428
99.72919, 2.939240
100.2113, 3.480721
100.6934, 3.354332
101.1755, 3.178879
101.6577, 3.819206
102.1398, 5.711601
102.6219, 9.307930
103.1040, 12.03014
103.5861, 13.04745
104.0682, 13.96336
104.5504, 16.38110
105.0325, 19.98504
105.5146, 22.97636
105.9967, 23.48218
106.4788, 20.73950
106.9609, 17.84702
107.4431, 14.73778
107.9252, 11.72465
108.4073, 9.214874
108.8894, 7.424599
109.3715, 6.038048
109.8536, 4.425896
110.3358, 2.485954
110.8179, 0.8640060
111.3000, 1.7532000E-02
111.7821, 0.1177060
112.2642, 0.1617280
112.7463, 0.3483960
113.2285, 0.5475850
113.7106, 0.6315160
114.1927, 0.5645900
114.6748, 0.4164890
115.1569, 0.2494510
115.6390, 9.9029997E-03
116.1212, 9.6061997E-02
116.6033, 0.1341250
117.0854, 0.4585720
117.5675, 0.6632540
118.0496, 0.6573260
118.5317, 0.4353870
119.0139, 3.6162999E-02
119.4960, 1.058121
119.9781, 2.042877
120.4602, 2.857712
120.9423, 3.595192
121.4244, 4.431908
121.9066, 5.603737
122.3887, 7.274734
122.8708, 8.325546
123.3529, 8.491951
123.8350, 8.521614
124.3171, 8.745766
124.7993, 9.175835
125.2814, 9.622292
125.7635, 9.813400
126.2456, 9.622383
126.7277, 9.823929
127.2098, 10.81641
127.6920, 12.00138
128.1741, 12.70432
128.6562, 12.73491
129.1383, 12.61952
129.6204, 13.08777
130.1025, 14.07446
130.5847, 15.00972
131.0668, 15.59335
131.5489, 15.95641
132.0310, 16.58100
132.5131, 17.54197
132.9952, 18.52496
133.4774, 19.36566
133.9595, 20.19705
134.4416, 21.02492
134.9237, 21.99707
135.4058, 23.18490
135.8879, 24.53497
136.3701, 26.10709
136.8522, 27.76131
137.3343, 29.38831
137.8164, 30.96857
138.2985, 32.63141
138.7806, 34.69450
139.2628, 37.54181
139.7449, 40.12341
140.2270, 42.05396
140.7091, 43.85406
141.1912, 46.26996
141.6733, 49.62942
142.1555, 53.30427
142.6376, 55.12756
143.1197, 54.24521
143.6018, 52.30228
144.0839, 49.14743
144.5660, 45.06001
145.0482, 40.32204
145.5303, 35.01432
146.0124, 29.26955
146.4945, 23.97854
146.9766, 18.71085
147.4587, 14.19174
147.9409, 10.90488
148.4230, 8.714615
148.9051, 6.997589
149.3872, 5.598900
149.8693, 4.369789
150.3514, 3.583138
150.8336, 3.840309
151.3157, 4.176567
151.7978, 3.495567
152.2799, 1.609566
152.7620, 0.1325680
153.2441, 0.4874880
153.7263, 1.1370000E-03
154.2084, 0.5105670
154.6905, 0.7492900
155.1726, 0.8335570
155.6547, 1.009087
156.1368, 1.291183
156.6190, 1.649994
157.1011, 2.231010
157.5832, 2.874542
158.0653, 3.242477
158.5474, 2.933830
159.0295, 2.026733
159.5117, 1.622253
159.9938, 2.407394
160.4759, 3.055878
160.9580, 2.971420
161.4401, 2.315186
161.9222, 1.582294
162.4044, 1.200024
162.8865, 1.203892
163.3686, 1.363838
163.8507, 1.838760
164.3328, 2.323742
164.8149, 2.723965
165.2971, 3.014923
165.7792, 3.184818
166.2613, 3.235004
166.7434, 3.177433
167.2255, 2.936378
167.7076, 2.218033
168.1898, 1.519592
168.6719, 1.281727
169.1540, 1.560993
169.6361, 1.994343
170.1182, 2.054394
170.6003, 1.592960
171.0825, 1.044456
171.5646, 0.2323680
172.0467, 0.5631640
172.5288, 1.013290
173.0109, 1.013454
173.4930, 0.7209010
173.9752, 0.2681920
174.4573, 0.4169690
174.9394, 0.7413140
175.4215, 0.1915020
175.9036, 0.8192750
176.3857, 1.342587
176.8679, 0.9793700
177.3500, 0.1967620
177.8321, 0.4143030
178.3142, 0.8658180
178.7963, 1.120338
179.2784, 0.9307100
179.7606, 0.3899040
180.2427, 0.3289070
180.7248, 1.417336
181.2069, 2.676266
181.6890, 3.212399
182.1711, 2.944550
182.6533, 2.427589
183.1354, 2.115547
183.6175, 2.006611
184.0996, 2.107376
184.5817, 2.781532
185.0638, 3.456974
185.5460, 3.753498
186.0281, 3.591267
186.5102, 3.233356
186.9923, 3.044880
187.4744, 3.095730
187.9565, 3.135368
188.4387, 3.094181
188.9208, 3.053326
189.4029, 3.097000
189.8850, 3.244167
190.3671, 3.413532
190.8492, 3.414677
191.3314, 2.908981
191.8135, 2.821415
192.2956, 3.588696
192.7777, 4.556534
193.2598, 5.098576
193.7419, 4.976120
194.2241, 4.476845
194.7062, 4.293362
195.1883, 4.679134
195.6704, 5.130234
196.1525, 5.651878
196.6346, 6.227840
197.1168, 6.845089
197.5989, 7.500267
198.0810, 8.187428
198.5631, 8.893417
199.0452, 9.629959
199.5273, 10.36768
200.0095, 11.29857
200.4916, 12.20190
200.9737, 12.64286
201.4558, 12.35025
201.9379, 11.63413
202.4200, 11.45305
202.9022, 12.33587
203.3843, 12.75637
203.8664, 11.88659
204.3485, 10.09823
204.8306, 8.402962
205.3127, 7.223286
205.7949, 6.412598
206.2770, 5.546997
206.7591, 4.405849
207.2412, 3.639122
207.7233, 3.854088
208.2054, 4.897751
208.6876, 5.822746
209.1697, 6.266670
209.6518, 6.348888
210.1339, 6.249329
210.6160, 5.877632
211.0981, 5.568001
211.5803, 5.777111
212.0624, 6.479218
212.5445, 6.907452
213.0266, 6.466152
213.5087, 5.821602
213.9908, 5.621284
214.4730, 6.004261
214.9551, 6.589520
215.4372, 6.898502
215.9193, 6.848400
216.4014, 7.034184
216.8836, 7.979427
217.3657, 9.028198
217.8478, 9.708199
218.3299, 9.891895
218.8120, 9.921867
219.2941, 10.24244
219.7763, 10.88953
220.2584, 11.71405
220.7405, 13.04368
221.2226, 14.32428
221.7047, 15.18225
222.1868, 15.51266
222.6690, 15.44899
223.1511, 15.11267
223.6332, 14.21323
224.1153, 13.72082
224.5974, 14.00974
225.0795, 14.48956
225.5617, 14.67207
226.0438, 14.44207
226.5259, 14.12088
227.0080, 14.31600
227.4901, 15.50375
227.9722, 16.33774
228.4544, 16.68256
228.9365, 16.76700
229.4186, 16.76414
229.9007, 16.70739
230.3828, 16.51101
230.8649, 15.98112
231.3471, 14.24387
231.8292, 13.71614
232.3113, 15.36700
232.7934, 17.53104
233.2755, 18.77134
233.7576, 18.68799
234.2398, 18.03191
234.7219, 18.07655
235.2040, 19.34969
235.6861, 20.45584
236.1682, 21.56831
236.6503, 22.42256
237.1325, 22.76343
237.6146, 22.52457
238.0967, 21.81877
238.5788, 20.75337
239.0609, 19.04526
239.5430, 17.65211
240.0252, 17.01826
240.5073, 16.51066
240.9894, 15.40249
241.4715, 13.51915
241.9536, 11.43481
242.4357, 9.899624
242.9179, 9.021957
243.4000, 8.275467
243.8821, 7.719254
244.3642, 7.224003
244.8463, 6.603786
245.3284, 5.810040
245.8106, 5.064152
246.2927, 4.668926
246.7748, 4.636292
247.2569, 4.579773
247.7390, 4.511181
248.2211, 4.360725
248.7033, 3.956291
249.1854, 3.230556
249.6675, 2.558975
250.1496, 2.431759
250.6317, 2.758476
251.1138, 2.935886
251.5960, 2.723122
252.0781, 2.339104
252.5602, 2.098843
253.0423, 2.065453
253.5244, 1.996395
254.0065, 1.574974
254.4887, 0.9336550
254.9708, 0.4442560
255.4529, 0.2466700
255.9350, 0.2350160
256.4171, 0.3055190
256.8992, 0.4815640
257.3813, 0.6220050
257.8635, 0.5906300
258.3456, 0.4538800
258.8277, 0.3053820
259.3098, 9.7140998E-02
259.7919, 6.4190000E-02
260.2740, 8.9600001E-04
260.7562, 0.3348660
261.2383, 0.7210200
261.7204, 1.026691
262.2025, 1.310677
262.6846, 1.664555
263.1667, 2.155930
263.6489, 2.679108
264.1310, 3.152363
264.6131, 3.633041
265.0952, 3.810677
265.5773, 3.276714
266.0594, 2.472569
266.5416, 1.776371
267.0237, 1.313858
267.5058, 0.9786030
267.9879, 0.5609250
268.4700, 1.9543000E-02
268.9521, 0.2990000
269.4343, 0.2533040
269.9164, 0.9809910
270.3985, 1.374260
270.8806, 1.297707
271.3627, 1.022793
271.8448, 0.8772540
272.3270, 0.8929940
272.8091, 0.8849910
273.2912, 0.7190820
273.7733, 0.5736120
274.2554, 0.6036490
274.7375, 0.8430980
275.2197, 1.115768
275.7018, 1.136497
276.1839, 0.8848530
276.6660, 0.7512320
277.1481, 0.8850520
277.6302, 1.089962
278.1124, 1.333488
278.5945, 1.598007
279.0766, 1.796989
279.5587, 1.774940
280.0408, 1.486340
280.5229, 1.386684
281.0051, 1.785583
281.4872, 2.160324
281.9693, 2.229836
282.4514, 2.060833
282.9335, 1.910290
283.4156, 1.971107
283.8978, 2.249382
284.3799, 2.697857
284.8620, 3.812580
285.3441, 4.591686
285.8262, 4.489140
286.3083, 3.777901
286.7905, 3.054070
287.2726, 2.720749
287.7547, 2.752991
288.2368, 2.928040
288.7189, 3.316700
289.2010, 3.791012
289.6832, 4.443779
290.1653, 5.123848
290.6474, 5.585762
291.1295, 5.646996
291.6116, 5.439697
292.0938, 5.521530
292.5759, 6.223747
293.0580, 6.745674
293.5401, 6.971893
294.0222, 6.982468
294.5043, 6.752705
294.9865, 6.247551
295.4686, 5.675713
295.9507, 5.627495
296.4328, 6.599598
296.9149, 7.175865
297.3970, 7.085415
297.8792, 6.703930
298.3613, 6.256973
298.8434, 5.844814
299.3255, 5.586349
299.8076, 5.746758
300.2897, 6.701149
300.7719, 7.216408
301.2540, 6.942272
301.7361, 6.500889
302.2182, 6.249481
302.7003, 6.261974
303.1824, 6.422970
303.6646, 6.625740
304.1467, 6.914280
304.6288, 7.079216
305.1109, 7.087666
305.5930, 7.011429
306.0751, 6.936298
306.5573, 6.821152
307.0394, 6.512310
307.5215, 5.817230
308.0036, 4.688126
308.4857, 3.822655
308.9678, 3.254669
309.4500, 2.925323
309.9321, 3.072388
310.4142, 3.470711
310.8963, 3.691166
311.3784, 3.378471
311.8605, 2.571842
312.3427, 2.031509
312.8248, 2.110584
313.3069, 2.093475
313.7890, 1.745121
314.2711, 1.258579
314.7532, 0.8706590
315.2354, 0.6982840
315.7175, 0.7227550
316.1996, 0.9163670
316.6817, 1.577461
317.1638, 1.835243
317.6459, 1.174629
318.1281, 0.3465810
318.6102, 0.1297610
319.0923, 0.7375680
319.5744, 1.634693
320.0565, 1.900234
320.5386, 1.180656
321.0208, 0.6327930
321.5029, 0.3523640
321.9850, 0.1895030
322.4671, 1.9192001E-02
322.9492, 0.1538660
323.4313, 0.1974490
323.9135, 0.1151770
324.3956, 0.9356040
324.8777, 1.327488
325.3598, 0.8253480
325.8419, 0.3255810
326.3240, 0.1751670
326.8062, 0.3225330
327.2883, 0.5319180
327.7704, 0.5908780
328.2525, 0.5179020
328.7346, 0.6725040
329.2167, 1.446941
329.6989, 2.004826
330.1810, 2.136127
330.6631, 1.930630
331.1452, 1.456459
331.6273, 0.7039830
332.1094, 0.1376910
332.5916, 0.4309310
333.0737, 0.2680700
333.5558, 0.7680210
334.0379, 0.8293420
334.5200, 0.6495670
335.0021, 0.3557400
335.4843, 2.9410000E-03
335.9664, 0.3383100
336.4485, 0.4924280
336.9306, 0.4044490
337.4127, 0.3162190
337.8948, 0.1538700
338.3770, 7.0950001E-02
338.8591, 0.2691800
339.3412, 0.7061920
339.8233, 1.063526
340.3055, 0.9815640
340.7876, 0.4147950
341.2697, 0.1339760
341.7518, 0.8318330
342.2339, 1.327110
342.7160, 1.389267
343.1982, 1.135796
343.6803, 0.8587380
344.1624, 0.7724490
344.6445, 0.8188550
345.1266, 0.6749420
345.6087, 0.1242870
346.0909, 0.2553630
346.5730, 0.2290760
347.0551, 3.0617001E-02
347.5372, 0.3289300
348.0193, 0.6036570
348.5014, 0.8326640
348.9836, 1.014328
349.4657, 1.206345
349.9478, 1.150108
350.4299, 0.5318530
350.9120, 0.2111820
351.3941, 0.8194500
351.8763, 1.237572
352.3584, 1.442764
352.8405, 1.373878
353.3226, 1.025509
353.8047, 0.5646170
354.2868, 0.2467690
354.7690, 0.8839720
355.2511, 0.9178430
355.7332, 0.4617270
356.2153, 1.6617000E-02
356.6974, 0.1099510
357.1795, 3.2600001E-02
357.6617, 0.2998280
358.1438, 0.8096960
358.6259, 1.187668
359.1080, 1.086445
359.5901, 0.7462500
360.0722, 0.5606080
360.5544, 0.7469790
361.0365, 1.057903
361.5186, 1.112537
362.0007, 0.8716810
362.4828, 0.6814040
362.9649, 0.7257190
363.4471, 0.8708760
363.9292, 0.9983440
364.4113, 1.120907
364.8934, 1.111862
365.3755, 0.7287220
365.8576, 7.0229001E-02
366.3398, 0.2714580
366.8219, 2.6740001E-03
367.3040, 0.3882600
367.7861, 0.2177120
368.2682, 0.4407420
368.7503, 0.7973330
369.2325, 0.2366750
369.7146, 0.7378880
370.1967, 1.238972
370.6788, 1.145718
371.1609, 0.8624990
371.6430, 0.6540070
372.1252, 0.4976010
372.6073, 0.3214910
373.0894, 8.9725003E-02
373.5715, 0.3559460
374.0536, 4.9250000E-03
374.5357, 0.8734250
375.0179, 1.516380
375.5000, 1.526146
375.9821, 1.123009
376.4642, 0.7864270
376.9463, 0.3278350
377.4284, 0.3395580
377.9106, 1.583641
378.3927, 3.321224
378.8748, 4.172714
379.3569, 3.716824
379.8390, 2.769341
380.3211, 2.342480
380.8033, 2.533440
381.2854, 2.700577
381.7675, 2.743378
382.2496, 2.806290
382.7317, 3.053410
383.2138, 3.464062
383.6960, 3.844200
384.1781, 4.039841
384.6602, 4.068455
385.1423, 4.186043
385.6244, 4.525646
386.1065, 4.787045
386.5887, 4.881691
387.0708, 4.832619
387.5529, 4.622356
388.0350, 4.232525
388.5171, 3.810036
388.9992, 3.674183
389.4814, 3.925362
389.9635, 4.330532
390.4456, 5.006329
390.9277, 5.809124
391.4098, 6.598495
391.8919, 7.330307
392.3741, 7.958584
392.8562, 8.402637
393.3383, 8.601528
393.8204, 9.019283
394.3025, 10.05510
394.7846, 10.91631
395.2668, 11.21788
395.7489, 11.16058
396.2310, 11.12565
396.7131, 11.32284
397.1952, 11.66781
397.6773, 11.93346
398.1595, 12.19943
398.6416, 12.34239
399.1237, 12.08377
399.6058, 11.83916
400.0879, 12.02937
400.5700, 12.72892
401.0522, 13.61332
401.5343, 14.31709
402.0164, 14.81746
402.4985, 15.25222
402.9806, 15.50366
403.4627, 15.79816
403.9449, 16.19468
404.4270, 16.72147
404.9091, 17.39722
405.3912, 18.26827
405.8733, 19.25451
406.3554, 20.16296
406.8376, 21.07977
407.3197, 21.71048
407.8018, 21.69102
408.2839, 21.44215
408.7660, 21.34932
409.2481, 21.49956
409.7303, 21.78632
410.2124, 22.19993
410.6945, 22.73740
411.1766, 23.08863
411.6587, 23.05715
412.1408, 23.01407
412.6230, 23.29351
413.1051, 23.84771
413.5872, 24.34812
414.0693, 24.43865
414.5514, 24.46497
415.0335, 25.11914
415.5157, 26.50079
415.9978, 27.80457
416.4799, 28.45964
416.9620, 28.63818
417.4441, 28.94249
417.9262, 29.49851
418.4084, 30.04529
418.8905, 30.29310
419.3726, 30.40881
419.8547, 30.91210
420.3368, 32.06258
420.8189, 33.38474
421.3011, 33.99625
421.7832, 33.60628
422.2653, 33.78063
422.7474, 35.29866
423.2295, 37.03530
423.7116, 37.95957
424.1938, 38.04048
424.6759, 37.97247
425.1580, 38.23379
425.6401, 38.80614
426.1222, 39.47184
426.6043, 40.46100
427.0865, 41.33085
427.5686, 41.85567
428.0507, 42.18319
428.5328, 42.55814
429.0149, 43.07366
429.4970, 43.63123
429.9792, 44.03084
430.4613, 44.03374
430.9434, 44.41547
431.4255, 45.56277
431.9076, 46.70495
432.3897, 47.44455
432.8719, 47.75146
433.3540, 47.70890
433.8361, 47.30446
434.3182, 46.62377
434.8003, 46.29263
435.2824, 46.46997
435.7646, 46.78325
436.2467, 47.43742
436.7288, 48.02292
437.2109, 47.98934
437.6930, 47.15741
438.1751, 46.13531
438.6573, 45.82111
439.1394, 46.29843
439.6215, 46.26989
440.1036, 45.21007
440.5857, 43.97924
441.0678, 43.14046
441.5500, 42.61926
442.0321, 42.10163
442.5142, 41.57039
442.9963, 40.88368
443.4784, 39.63768
443.9605, 37.73928
444.4427, 36.02381
444.9248, 35.13585
445.4069, 34.57708
445.8890, 33.45152
446.3711, 31.51788
446.8532, 29.58156
447.3354, 28.07796
447.8175, 26.89745
448.2996, 25.86154
448.7817, 24.96201
449.2638, 24.00335
449.7459, 22.69308
450.2281, 21.00195
450.7102, 19.69543
451.1923, 19.08244
451.6744, 18.61152
452.1565, 17.96066
452.6386, 17.16313
453.1208, 16.36752
453.6029, 15.63989
454.0850, 14.98940
454.5671, 14.44567
455.0492, 14.33000
455.5313, 13.86674
456.0135, 12.57205
456.4956, 11.24516
456.9777, 10.71575
457.4598, 10.95734
457.9419, 11.09883
458.4240, 10.18312
458.9062, 8.192619
459.3883, 7.220070
459.8704, 8.367989
460.3525, 9.352180
460.8346, 9.743565
461.3167, 9.602810
461.7989, 8.973625
462.2810, 7.850155
462.7631, 6.599201
463.2452, 5.757446
463.7273, 5.340759
464.2094, 5.040340
464.6916, 4.824493
465.1737, 4.785736
465.6558, 5.056953
466.1379, 5.509796
466.6200, 5.814075
467.1021, 5.771179
467.5843, 5.518337
468.0664, 5.158466
468.5485, 4.624611
469.0306, 4.329781
469.5127, 4.693611
469.9948, 5.254234
470.4770, 5.233082
470.9591, 4.431583
471.4412, 3.689484
471.9233, 3.557018
472.4054, 3.769707
472.8875, 3.737045
473.3697, 3.313995
473.8518, 3.011314
474.3339, 3.470623
474.8160, 4.679604
475.2981, 5.124302
475.7802, 3.934593
476.2624, 2.918396
476.7445, 3.119659
477.2266, 4.062698
477.7087, 4.826885
478.1908, 5.055195
478.6729, 4.861115
479.1551, 4.345451
479.6372, 3.229816
480.1193, 2.499577
480.6014, 2.145016
481.0835, 2.060898
481.5656, 2.346420
482.0478, 2.861595
482.5299, 3.310051
483.0120, 3.504154
483.4941, 3.472038
483.9762, 3.302902
484.4583, 2.922157
484.9405, 2.568989
485.4226, 2.306175
485.9047, 2.109257
486.3868, 1.946922
486.8689, 1.810844
487.3510, 1.696850
487.8332, 1.682568
488.3153, 1.719860
488.7974, 1.474323
489.2795, 0.7931250
489.7616, 0.2664110
490.2437, 0.3460240
490.7259, 0.7902830
491.2080, 1.319214
491.6901, 2.060665
492.1722, 2.520535
492.6543, 2.100399
493.1364, 1.099258
493.6186, 0.3805390
494.1007, 0.1684990
494.5828, 0.2540510
495.0649, 0.4700930
495.5470, 0.8385730
496.0291, 1.027275
496.5113, 0.7675740
496.9934, 0.5664250
497.4755, 0.9150090
497.9576, 1.558849
498.4397, 1.748257
498.9218, 1.087605
499.4040, 0.1187320
499.8861, 0.1201290
500.3682, 2.106998
500.8503, 3.185860
501.3324, 2.797550
501.8145, 2.094849
502.2967, 1.653805
502.7788, 1.533562
503.2609, 1.608055
503.7430, 1.807930
504.2251, 2.113350
504.7072, 2.473816
505.1894, 2.987278
505.6715, 3.330212
506.1536, 3.301453
506.6357, 3.153027
507.1178, 3.018909
507.5999, 2.930820
508.0821, 2.987976
508.5642, 3.475746
509.0463, 4.161144
509.5284, 4.301758
510.0105, 3.770885
510.4926, 3.059078
510.9748, 2.346489
511.4569, 1.701305
511.9390, 1.268147
512.4211, 1.115780
512.9032, 1.071297
513.3853, 1.158775
513.8674, 1.269455
514.3495, 1.193359
514.8317, 0.8830450
515.3138, 0.4863850
515.7959, 0.1452560
516.2780, 0.1383630
516.7601, 0.4078480
517.2422, 0.9185300
517.7244, 1.136318
518.2065, 0.5567860
518.6886, 0.3199010
519.1707, 0.7312660
519.6528, 0.4205210
520.1349, 0.1976240
520.6171, 0.4701190
521.0992, 0.2636380
521.5813, 0.2576600
522.0634, 0.8605650
522.5455, 1.254089
523.0276, 0.9028660
523.5098, 0.1626010
523.9919, 0.2347910
524.4740, 0.1304170
524.9561, 0.6882250
525.4382, 0.4591750
525.9203, 0.5759580
526.4025, 1.184830
526.8846, 0.8975450
527.3667, 0.3341520
527.8488, 0.1166340
528.3309, 0.1850660
528.8130, 0.1463320
529.2952, 0.3140490
529.7773, 0.7779270
530.2594, 0.8714980
530.7415, 0.6235430
531.2236, 0.1343650
531.7057, 0.6273310
532.1879, 1.387199
532.6700, 1.596577
533.1521, 0.9741170
533.6342, 0.4067570
534.1163, 0.3277590
534.5984, 0.7999310
535.0806, 0.4675220
535.5627, 0.3947490
536.0448, 0.9706650
536.5269, 0.7252850
537.0090, 2.9696999E-02
537.4911, 0.3294490
537.9733, 5.7762001E-02
538.4554, 0.3903120
538.9375, 0.6022420
539.4196, 0.7197530
539.9017, 0.7737850
540.3839, 0.7517200
540.8660, 0.5741770
541.3481, 6.0322002E-02
541.8302, 0.7463800
542.3123, 0.3079830
542.7944, 1.441444
543.2766, 2.654076
543.7587, 2.408539
544.2408, 1.391842
544.7229, 0.5183790
545.2050, 0.2507290
545.6871, 0.5957340
546.1693, 3.3744998E-02
546.6514, 0.7795790
547.1335, 1.109383
547.6156, 0.9554790
548.0977, 0.7106360
548.5798, 0.5910990
549.0620, 0.5875630
549.5441, 0.6689340
550.0262, 0.8828280
550.5083, 1.123940
550.9904, 1.486511
551.4725, 1.804302
551.9547, 1.928101
552.4368, 1.878429
552.9189, 1.768887
553.4010, 1.653412
553.8831, 1.578495
554.3652, 1.759308
554.8474, 2.298546
555.3295, 2.832611
555.8116, 3.243263
556.2937, 3.635353
556.7758, 4.148743
557.2579, 4.762077
557.7401, 5.205231
558.2222, 5.174675
558.7043, 4.928379
559.1864, 4.910995
559.6685, 5.135021
560.1506, 5.464188
560.6328, 5.875305
561.1149, 6.307629
561.5970, 6.632950
562.0791, 6.846420
562.5612, 6.993286
563.0433, 6.747162
563.5255, 6.684193
564.0076, 7.626076
564.4897, 9.301506
564.9718, 10.48171
565.4539, 10.31717
565.9360, 9.297832
566.4182, 9.112289
566.9003, 10.36709
567.3824, 11.32133
567.8645, 11.45719
568.3466, 11.62919
568.8287, 12.48470
569.3109, 13.89803
569.7930, 15.24518
570.2751, 16.14680
570.7572, 16.74419
571.2393, 17.16369
571.7214, 17.34163
572.2036, 18.12070
572.6857, 20.08915
573.1678, 22.41668
573.6499, 24.12231
574.1320, 25.21132
574.6141, 26.25768
575.0963, 27.39075
575.5784, 28.55214
576.0605, 29.79068
576.5426, 31.05814
577.0247, 32.21934
577.5068, 33.23764
577.9890, 33.99889
578.4711, 34.27957
578.9532, 33.81451
579.4353, 33.63671
579.9174, 34.06148
580.3995, 34.36004
580.8817, 34.01654
581.3638, 33.38699
581.8459, 33.14291
582.3280, 33.60965
582.8101, 34.33881
583.2922, 34.68754
583.7744, 34.65158
584.2565, 34.57511
584.7386, 34.35382
585.2207, 34.31496
585.7029, 34.83595
586.1850, 35.71074
586.6671, 36.41447
587.1492, 36.86363
587.6313, 36.99059
588.1135, 36.70154
588.5956, 36.10657
589.0777, 35.47309
589.5598, 34.86029
590.0419, 33.98807
590.5240, 32.50928
591.0062, 30.39008
591.4883, 28.56334
591.9704, 27.19064
592.4525, 25.81301
592.9346, 24.32423
593.4167, 22.86472
593.8989, 21.54565
594.3810, 20.39371
594.8631, 19.28170
595.3452, 18.11784
595.8273, 16.93996
596.3094, 15.62182
596.7916, 14.06097
597.2737, 12.56026
597.7558, 11.01089
598.2379, 9.710621
598.7200, 9.168114
599.2021, 9.523315
599.6843, 9.617523
600.1664, 8.716274
600.6485, 7.398838
601.1306, 6.271793
601.6127, 5.435658
602.0948, 5.195450
602.5770, 5.826794
603.0591, 6.940094
603.5412, 7.538437
604.0233, 7.124310
604.5054, 7.139183
604.9875, 7.881760
605.4697, 8.756069
605.9518, 9.262054
606.4339, 9.577839
606.9160, 10.26770
607.3981, 11.68725
607.8802, 13.45295
608.3624, 14.76965
608.8445, 15.56570
609.3266, 16.53030
609.8087, 17.92960
610.2908, 19.32330
610.7729, 20.38898
611.2551, 21.18899
611.7372, 21.89269
612.2193, 22.36824
612.7014, 22.97976
613.1835, 24.13795
613.6656, 25.60008
614.1478, 26.78411
614.6299, 27.54288
615.1120, 28.25521
615.5941, 29.27660
616.0762, 30.60973
616.5583, 32.22011
617.0405, 34.16383
617.5226, 36.32827
618.0047, 38.97414
618.4868, 41.69753
618.9689, 44.05608
619.4510, 46.01659
619.9332, 47.91168
620.4153, 49.99677
620.8974, 52.24839
621.3795, 54.69663
621.8616, 57.50848
622.3438, 59.73585
622.8259, 61.21871
623.3080, 61.79574
623.7901, 61.38629
624.2722, 60.00983
624.7543, 57.61561
625.2365, 53.68804
625.7186, 49.14847
626.2007, 44.67875
626.6828, 40.25241
627.1649, 35.58707
627.6470, 30.55277
628.1292, 25.69389
628.6113, 21.95376
629.0934, 19.62184
629.5755, 17.23727
630.0576, 14.32133
630.5397, 11.88732
631.0219, 10.52303
631.5040, 9.713676
631.9861, 8.704792
632.4682, 7.276306
632.9503, 5.974056
633.4324, 5.272461
633.9146, 4.959305
634.3967, 4.594177
634.8788, 4.178680
635.3609, 3.789688
635.8430, 3.494095
636.3251, 3.244549
636.8073, 2.867329
637.2894, 2.143303
637.7715, 1.814163
638.2536, 2.484722
638.7357, 3.185638
639.2178, 3.028404
639.7000, 2.228252
640.1821, 1.568176
640.6642, 1.475933
641.1463, 1.777851
641.6284, 2.097576
642.1105, 2.461109
642.5927, 2.669521
643.0748, 2.703114
643.5569, 2.574173
644.0390, 2.293167
644.5211, 1.801819
645.0032, 1.315498
645.4854, 0.8369870
645.9675, 0.4501720
646.4496, 0.2209740
646.9317, 0.1188960
647.4138, 0.1054840
647.8959, 0.1683500
648.3781, 0.2526740
648.8602, 0.3124660
649.3423, 0.3672370
649.8244, 0.5050740
650.3065, 0.8456420
650.7886, 1.091087
651.2708, 1.215149
651.7529, 1.260593
652.2350, 1.153229
652.7171, 0.9888650
653.1992, 1.062908
653.6813, 1.649784
654.1635, 2.262070
654.6456, 1.913445
655.1277, 0.6731570
655.6098, 9.5202997E-02
656.0919, 0.6624760
656.5740, 1.499153
657.0562, 1.968979
657.5383, 2.051250
658.0204, 1.815868
658.5025, 0.8560330
658.9846, 9.1801003E-02
659.4667, 0.1681630
659.9489, 0.1351050
660.4310, 5.8242999E-02
660.9131, 0.3438110
661.3952, 0.6076010
661.8773, 0.7669750
662.3594, 0.8440550
662.8416, 0.9198650
663.3237, 1.011024
663.8058, 1.046574
664.2879, 1.077717
664.7700, 0.9757080
665.2521, 0.4853440
665.7343, 0.2263490
666.2164, 0.5905950
666.6985, 0.3669780
667.1806, 0.1384740
667.6627, 1.037449
668.1448, 1.981201
668.6270, 2.166264
669.1091, 1.480103
669.5912, 0.6533240
670.0733, 0.3224110
670.5554, 0.4432220
671.0375, 0.5026470
671.5197, 0.3757590
672.0018, 0.4543500
672.4839, 1.179741
672.9660, 1.765942
673.4481, 1.438221
673.9302, 0.4565580
674.4124, 0.1989820
674.8945, 7.2567001E-02
675.3766, 0.7157020
675.8587, 1.079170
676.3408, 1.208305
676.8229, 1.353333
677.3051, 1.599670
677.7872, 1.655746
678.2693, 1.162327
678.7514, 0.1937830
679.2335, 0.2954940
679.7156, 7.5764000E-02
680.1978, 0.3829920
680.6799, 0.3850750
681.1620, 0.3558430
681.6441, 0.5712470
682.1262, 0.9897990
682.6083, 1.384720
683.0905, 1.662918
683.5726, 1.728786
684.0547, 1.232609
684.5368, 0.1776280
685.0189, 0.4571460
685.5010, 0.4098170
685.9832, 7.5301997E-02
686.4653, 0.2919200
686.9474, 0.6827200
687.4295, 1.051434
687.9116, 1.599873
688.3937, 1.835266
688.8759, 1.511192
689.3580, 0.9091190
689.8401, 5.7746999E-02
690.3222, 0.8405270
690.8043, 1.165615
691.2864, 0.4497910
691.7686, 0.8513600
692.2507, 1.676430
692.7328, 1.993351
693.2149, 2.007137
693.6970, 1.534168
694.1791, 1.065083
694.6613, 0.9536550
695.1434, 1.090771
695.6255, 1.266041
696.1076, 1.560688
696.5897, 1.665249
697.0718, 1.289536
697.5540, 0.7289960
698.0361, 0.1642150
698.5182, 0.2739220
699.0003, 9.3162999E-02
699.4824, 1.094063
699.9645, 2.611488
700.4467, 2.550240
700.9288, 0.1492610
701.4109, 0.9438060
701.8930, 0.5543060
702.3751, 2.074661
702.8572, 2.280922
703.3394, 1.690361
703.8215, 1.128296
704.3036, 0.7282330
704.7857, 0.5083540
705.2678, 0.5828400
705.7499, 0.7920530
706.2321, 0.8898470
706.7142, 0.8929980
707.1963, 1.027168
707.6784, 1.429199
708.1605, 1.917892
708.6426, 2.115898
709.1248, 1.914902
709.6069, 1.818192
710.0890, 2.180305
710.5711, 2.215347
711.0532, 1.264572
711.5353, 2.0653000E-02
712.0175, 0.6215670
712.4996, 0.4793090
712.9817, 9.7430004E-03
713.4638, 0.8873830
713.9459, 1.772591
714.4280, 2.088013
714.9102, 1.881767
715.3923, 1.431351
715.8744, 0.8201370
716.3565, 0.2964480
716.8386, 0.2427830
717.3207, 0.7171940
717.8029, 1.214088
718.2850, 1.881012
718.7671, 2.378380
719.2492, 2.599617
719.7313, 2.636978
720.2134, 2.546799
720.6956, 2.352417
721.1777, 2.140602
721.6598, 1.849388
722.1419, 1.645256
722.6240, 1.877663
723.1061, 2.411522
723.5883, 2.700630
724.0704, 2.574669
724.5525, 2.224113
725.0346, 1.782784
725.5167, 1.224510
725.9988, 0.8567430
726.4810, 0.8862080
726.9631, 0.8086240
727.4452, 0.2208710
727.9273, 0.2185130
728.4094, 0.2349320
728.8915, 1.356567
729.3737, 2.191925
729.8558, 2.274208
730.3379, 1.947479
730.8200, 1.340317
731.3021, 0.6188580
731.7842, 0.4057310
732.2664, 0.7848590
732.7485, 1.212990
733.2306, 1.256813
733.7127, 0.9923020
734.1948, 0.7208710
734.6769, 0.3801960
735.1591, 0.1497650
735.6412, 3.1387001E-02
736.1233, 4.5914002E-02
736.6054, 0.2373200
737.0875, 0.7311400
737.5696, 1.304176
738.0518, 1.874763
738.5339, 2.227417
739.0160, 1.954475
739.4981, 1.413223
739.9802, 1.340721
740.4623, 1.722969
740.9445, 1.950523
741.4266, 1.688080
741.9087, 1.256607
742.3908, 1.281723
742.8729, 1.952980
743.3550, 2.133774
743.8372, 1.366051
744.3193, 0.6750640
744.8014, 0.1578450
745.2835, 5.4581001E-02
745.7656, 0.3729170
746.2477, 1.421082
746.7299, 2.191216
747.2120, 1.857475
747.6941, 1.236832
748.1762, 1.291824
748.6583, 1.856316
749.1404, 2.423508
749.6226, 2.815758
750.1047, 2.799995
750.5868, 2.063507
751.0689, 0.7308580
751.5510, 0.1340260
752.0331, 0.8182750
752.5153, 1.206329
752.9974, 0.6828310
753.4795, 0.1064530
753.9616, 5.2567001E-02
754.4437, 0.4018330
754.9258, 0.7016450
755.4080, 0.7807920
755.8901, 0.8416600
756.3722, 0.9539340
756.8543, 1.173920
757.3364, 1.641609
757.8185, 2.275818
758.3007, 2.743675
758.7828, 2.833626
759.2649, 2.581505
759.7470, 2.281555
760.2291, 1.793182
760.7112, 1.542206
761.1934, 1.698097
761.6755, 1.842957
762.1576, 1.639717
762.6397, 1.380180
763.1218, 1.551163
763.6039, 2.276665
764.0861, 2.643906
764.5682, 2.064133
765.0503, 1.262413
765.5324, 0.7003780
766.0145, 0.3725430
766.4966, 0.2104490
766.9788, 0.1897430
767.4609, 0.3062360
767.9430, 0.5805740
768.4251, 0.9784010
768.9072, 1.396431
769.3893, 1.900612
769.8715, 1.902756
770.3536, 0.9856720
770.8357, 6.4567998E-02
771.3178, 0.1184390
771.7999, 0.9158630
772.2820, 1.324448
772.7642, 0.8848500
773.2463, 0.5854570
773.7284, 0.9044950
774.2105, 1.306801
774.6926, 1.291336
775.1747, 0.9320830
775.6569, 0.5596390
776.1390, 0.3343580
776.6211, 0.2121730
777.1032, 0.1029210
777.5853, 3.3089001E-02
778.0674, 0.2384340
778.5496, 0.7871400
779.0317, 1.104866
779.5138, 0.7596890
779.9959, 0.2656780
780.4780, 0.6701970
780.9601, 2.476334
781.4423, 3.089432
781.9244, 1.262390
782.4065, 0.1880800
782.8886, 3.4019001E-02
783.3707, 0.8396990
783.8528, 0.9626010
784.3350, 0.3160250
784.8171, 0.2255860
785.2992, 4.6569999E-02
785.7813, 0.3889390
786.2634, 0.6139530
786.7455, 0.6339570
787.2277, 0.4043660
787.7098, 7.0702001E-02
788.1919, 0.2553940
788.6740, 0.3480070
789.1561, 1.446968
789.6382, 1.929375
790.1204, 1.456314
790.6025, 1.188004
791.0846, 1.231667
791.5667, 1.438293
792.0488, 2.091324
792.5309, 2.730873
793.0131, 2.523323
793.4952, 1.201645
793.9773, 1.1856000E-02
794.4594, 0.7598040
794.9415, 0.9608230
795.4236, 0.1539310
795.9058, 1.209488
796.3879, 2.147980
796.8700, 2.355972
797.3521, 2.112480
797.8342, 1.587975
798.3163, 0.9100420
798.7985, 0.8682560
799.2806, 1.640236
799.7627, 1.969360
800.2448, 1.335358
800.7269, 0.5772930
801.2090, 0.4689180
801.6912, 0.8785780
802.1733, 1.042862
802.6554, 0.7886280
803.1375, 0.5411610
803.6196, 0.2822110
804.1017, 0.1791000
804.5839, 0.4244770
805.0660, 0.9168010
805.5481, 1.543808
806.0302, 2.270561
806.5123, 2.667572
806.9944, 2.025650
807.4766, 0.8128200
807.9587, 7.5324997E-02
808.4408, 0.1527250
808.9229, 0.1912000
809.4050, 1.225327
809.8871, 2.201241
810.3693, 2.100784
810.8514, 0.9426570
811.3335, 0.6359330
811.8156, 1.973587
812.2977, 2.842262
812.7798, 2.593155
813.2620, 2.095337
813.7441, 1.771919
814.2262, 1.671135
814.7083, 1.870178
815.1904, 2.547363
815.6725, 3.127075
816.1547, 3.213531
816.6368, 3.084602
817.1189, 3.028732
817.6010, 3.054398
818.0831, 3.118286
818.5652, 3.197456
819.0474, 3.175476
819.5295, 2.816223
820.0116, 2.182076
820.4937, 1.893929
820.9758, 2.016129
821.4579, 2.099762
821.9401, 2.001160
822.4222, 1.809845
822.9043, 1.561852
823.3864, 1.246498
823.8685, 1.268105
824.3506, 2.245270
824.8328, 2.705338
825.3149, 1.853119
825.7970, 0.9220580
826.2791, 0.9145810
826.7612, 1.542480
827.2433, 1.946678
827.7255, 1.798775
828.2076, 1.597694
828.6897, 1.934090
829.1718, 2.418121
829.6539, 2.272446
830.1360, 1.607628
830.6182, 1.109444
831.1003, 1.039101
831.5824, 1.108398
832.0645, 0.8703380
832.5466, 0.3627470
833.0287, 0.7681960
833.5109, 2.664467
833.9930, 3.789185
834.4751, 3.292923
834.9572, 2.350975
835.4393, 1.737785
835.9214, 1.434158
836.4036, 1.435051
836.8857, 1.884102
837.3678, 2.342331
837.8499, 2.782852
838.3320, 3.120346
838.8141, 3.251190
839.2963, 3.243469
839.7784, 3.216270
840.2605, 3.200783
840.7426, 3.239731
841.2247, 3.350822
841.7068, 3.427765
842.1890, 3.259735
842.6711, 2.853920
843.1532, 2.338768
843.6353, 1.740959
844.1174, 1.428841
844.5995, 1.778145
845.0817, 2.579605
845.5638, 2.838463
846.0459, 2.216408
846.5280, 2.047882
847.0101, 2.818130
847.4922, 3.423233
847.9744, 3.064850
848.4565, 2.326469
848.9386, 2.153122
849.4207, 2.711594
849.9028, 3.147728
850.3849, 3.185822
850.8671, 3.084343
851.3492, 2.881332
851.8313, 2.662483
852.3134, 2.492126
852.7955, 2.434914
853.2776, 2.595207
853.7598, 3.055542
854.2419, 3.488403
854.7240, 3.284439
855.2061, 2.615982
855.6882, 2.124237
856.1703, 1.894371
856.6525, 2.043037
857.1346, 2.727249
857.6167, 3.473801
858.0988, 3.265144
858.5809, 1.836296
859.0630, 1.270752
859.5452, 2.216248
860.0273, 2.869408
860.5094, 2.327667
860.9915, 1.555183
861.4736, 1.444664
861.9557, 1.900726
862.4379, 2.257118
862.9200, 2.302269
863.4021, 2.367310
863.8842, 2.682678
864.3663, 2.969452
864.8484, 3.034355
865.3306, 2.854073
865.8127, 2.353569
866.2948, 1.505692
866.7769, 0.7472000
867.2590, 0.4556430
867.7411, 0.5709150
868.2233, 1.193832
868.7054, 2.176239
869.1875, 2.664391
869.6696, 2.409576
870.1517, 1.992706
870.6339, 1.980263
871.1160, 2.238098
871.5981, 2.093834
872.0802, 1.323044
872.5623, 0.9931560
873.0444, 1.468567
873.5266, 1.960754
874.0087, 1.987518
874.4908, 1.769989
874.9729, 1.705681
875.4550, 1.812523
875.9371, 1.976555
876.4193, 2.349815
876.9014, 2.578217
877.3835, 2.461639
877.8656, 2.157074
878.3477, 1.818001
878.8298, 1.463295
879.3120, 1.006134
879.7941, 0.2935030
880.2762, 0.2387540
880.7583, 7.4326001E-02
881.2404, 0.5196610
881.7225, 1.261276
882.2047, 2.004463
882.6868, 2.269661
883.1689, 1.851311
883.6510, 1.132668
884.1331, 0.5371320
884.6152, 7.8506000E-02
885.0974, 0.1294480
885.5795, 8.6700000E-02
886.0616, 0.2864230
886.5437, 1.208534
887.0258, 1.966705
887.5079, 1.941444
887.9901, 1.290848
888.4722, 0.6293560
888.9543, 0.2956540
889.4364, 0.7415700
889.9185, 0.4535140
890.4006, 6.7830002E-03
890.8828, 0.6159970
891.3649, 1.162544
891.8470, 1.396950
892.3291, 1.300156
892.8112, 1.068314
893.2933, 0.4557800
893.7755, 9.9480003E-02
894.2576, 0.7754210
894.7397, 1.699493
895.2218, 1.791077
895.7039, 1.152359
896.1860, 0.6183620
896.6682, 0.5942150
897.1503, 0.6465000
897.6324, 0.1246800
898.1145, 0.7220000
898.5966, 1.175934
899.0787, 1.234688
899.5609, 1.025040
900.0430, 0.5659640
900.5251, 0.1391680
901.0072, 4.0100001E-02
901.4893, 0.1800160
901.9714, 8.5326999E-02
902.4536, 0.3961940
902.9357, 0.5168300
903.4178, 4.3685999E-02
903.8999, 0.5098110
904.3820, 0.3953930
904.8641, 2.0760000E-02
905.3463, 0.2932590
905.8284, 0.4255680
906.3105, 0.4042430
906.7926, 9.6344002E-02
907.2747, 0.1952670
907.7568, 0.4703370
908.2390, 0.6164930
908.7211, 0.4937900
909.2032, 0.1595610
909.6853, 0.2366260
910.1674, 0.6977390
910.6495, 0.9803470
911.1317, 0.7271800
911.6138, 0.3621980
912.0959, 0.3852920
912.5780, 0.6944430
913.0601, 1.028046
913.5422, 1.292969
914.0244, 1.428841
914.5065, 1.328949
914.9886, 1.160255
915.4707, 1.289795
915.9528, 1.681374
916.4349, 2.159348
916.9171, 2.699646
917.3992, 3.121529
917.8813, 3.301788
918.3634, 3.404961
918.8455, 3.707664
919.3276, 4.218803
919.8098, 4.808304
920.2919, 5.546349
920.7740, 6.193909
921.2561, 6.732155
921.7382, 7.114967
922.2203, 7.096977
922.7025, 6.887756
923.1846, 7.310516
923.6667, 8.696968
924.1488, 9.991570
924.6309, 11.34222
925.1130, 12.30502
925.5952, 12.31731
926.0773, 12.05309
926.5594, 12.31535
927.0415, 13.16458
927.5236, 14.15029
928.0057, 15.13912
928.4879, 16.12766
928.9700, 16.82314
929.4521, 17.72005
929.9342, 19.37118
930.4163, 21.76013
930.8984, 24.63471
931.3806, 27.91466
931.8627, 31.84084
932.3448, 36.58399
932.8269, 42.18646
933.3090, 48.00746
933.7911, 54.67699
934.2733, 64.92966
934.7554, 79.24855
935.2375, 96.19717
935.7196, 114.8792
936.2017, 135.1486
936.6838, 157.3982
937.1660, 182.0075
937.6481, 201.6619
938.1302, 215.9275
938.6123, 226.4879
939.0944, 232.4590
939.5765, 237.7899
940.0587, 245.9499
940.5408, 257.0517
941.0229, 271.4106
941.5050, 289.2180
941.9871, 309.9026
942.4692, 335.0234
942.9514, 361.1785
943.4335, 385.9423
943.9156, 411.5241
944.3977, 440.1776
944.8798, 472.0382
945.3619, 508.3156
945.8441, 546.3044
946.3262, 592.4619
946.8083, 647.7838
947.2904, 713.1458
947.7725, 798.5858
948.2546, 893.2196
948.7368, 982.0461
949.2189, 1061.687
949.7010, 1100.475
950.1831, 1075.388
950.6652, 1002.104
951.1473, 876.6420
951.6295, 722.9407
952.1116, 574.8542
952.5937, 442.0668
953.0758, 333.0449
953.5579, 252.4310
954.0400, 193.4161
954.5222, 150.2649
955.0043, 120.3627
955.4864, 96.93849
955.9685, 79.44138
956.4506, 66.09299
956.9327, 56.38000
957.4149, 48.90424
957.8970, 42.53307
958.3791, 37.11146
958.8612, 31.92550
959.3433, 27.72219
959.8254, 23.21220
960.3076, 21.10085
960.7897, 19.41210
961.2718, 17.70234
961.7539, 16.07862
962.2360, 14.77180
962.7181, 13.77961
963.2003, 12.74762
963.6824, 11.53474
964.1645, 10.57774
964.6466, 10.10854
965.1287, 9.654831
965.6108, 8.835579
966.0930, 7.948685
966.5751, 7.523529
967.0572, 7.643387
967.5393, 7.531357
968.0214, 6.877052
968.5035, 6.271484
968.9857, 5.877350
969.4678, 5.586220
969.9499, 5.402664
970.4320, 5.228539
970.9141, 4.877266
971.3962, 4.303612
971.8784, 3.592613
972.3605, 2.556831
972.8426, 1.668983
973.3247, 1.223602
973.8068, 1.144302
974.2889, 1.406189
974.7711, 1.871513
975.2532, 2.214226
975.7353, 2.331192
976.2174, 2.229614
976.6995, 1.620529
977.1816, 0.9170610
977.6638, 0.7961880
978.1459, 1.113052
978.6280, 1.212448
979.1101, 0.9929350
979.5922, 0.9057310
980.0743, 1.307564
980.5565, 1.825180
981.0386, 1.762390
981.5207, 1.306984
982.0028, 1.144623
982.4849, 1.308136
982.9670, 1.659966
983.4492, 2.223404
983.9313, 2.826172
984.4134, 3.284653
984.8955, 3.607399
985.3776, 3.690872
985.8597, 3.508629
986.3419, 4.091652
986.8240, 5.673508
987.3061, 7.050652
987.7882, 7.702477
988.2703, 7.916313
988.7524, 7.954643
989.2346, 7.872322
989.7167, 8.482185
990.1988, 10.08335
990.6809, 11.54464
991.1630, 12.46509
991.6451, 13.79692
992.1273, 15.98400
992.6094, 18.89496
993.0915, 22.53088
993.5736, 26.94987
994.0557, 30.78843
994.5378, 33.41375
995.0200, 36.35506
995.5021, 40.29951
995.9842, 44.00905
996.4663, 46.40047
996.9484, 48.31239
997.4305, 51.12487
997.9127, 54.96265
998.3948, 59.23177
998.8769, 64.35445
999.3590, 69.22978
999.8411, 74.70702
1000.323, 78.75423
1000.805, 78.84274
1001.287, 76.56911
1001.770, 75.05582
1002.252, 74.95588
1002.734, 75.86607
1003.216, 76.92694
1003.698, 79.76465
1004.180, 85.32400
1004.662, 93.15881
1005.144, 103.9885
1005.627, 116.4628
1006.109, 128.4948
1006.591, 139.6236
1007.073, 144.7782
1007.555, 139.2632
1008.037, 127.2709
1008.519, 110.1785
1009.001, 90.72067
1009.483, 71.83105
1009.966, 54.78606
1010.448, 41.53334
1010.930, 33.16537
1011.412, 27.43396
1011.894, 22.42900
1012.376, 18.48248
1012.858, 16.41142
1013.340, 15.72952
1013.823, 15.20436
1014.305, 14.64086
1014.787, 14.52162
1015.269, 15.14521
1015.751, 16.00690
1016.233, 16.43208
1016.715, 16.55054
1017.197, 16.72190
1017.679, 16.92885
1018.162, 17.14494
1018.644, 17.33346
1019.126, 17.22028
1019.608, 16.65214
1020.090, 15.48264
1020.572, 13.03265
1021.054, 9.623512
1021.536, 7.635025
1022.018, 7.035530
1022.501, 6.274811
1022.983, 4.952187
1023.465, 3.743843
1023.947, 3.158798
1024.429, 2.938080
1024.911, 2.548363
1025.393, 1.985550
1025.875, 1.292999
1026.358, 0.3912890
1026.840, 0.1372600
1027.322, 0.9171370
1027.804, 1.634987
1028.286, 1.416283
1028.768, 0.5797200
1029.250, 0.1598130
1029.732, 0.8679730
1030.214, 0.8604890
1030.697, 0.1332860
1031.179, 0.9390340
1031.661, 1.325752
1032.143, 1.244423
1032.625, 0.5038680
1033.107, 0.6100230
1033.589, 1.315796
1034.071, 1.648491
1034.553, 1.348549
1035.036, 7.9231001E-02
1035.518, 1.054260
1036.000, 0.9871900
1036.482, 0.6183700
1036.964, 0.4655610
1037.446, 0.4828340
1037.928, 0.5840910
1038.410, 0.9480510
1038.893, 0.7382740
1039.375, 0.8906250
1039.857, 1.727966
1040.339, 0.6204990
1040.821, 0.7843700
1041.303, 1.293907
1041.785, 1.130524
1042.267, 0.8643420
1042.750, 0.3981930
1043.232, 0.1568910
1043.714, 0.3480450
1044.196, 0.4930950
1044.678, 0.5281600
1045.160, 0.4387510
1045.642, 6.0157999E-02
1046.124, 0.3733670
1046.606, 0.4225620
1047.089, 9.3468003E-02
1047.571, 0.5963900
1048.053, 0.9875030
1048.535, 1.406128
1049.017, 2.105949
1049.499, 2.649323
1049.981, 2.522957
1050.463, 2.034706
1050.945, 1.836830
1051.428, 1.991829
1051.910, 2.508934
1052.392, 3.400703
1052.874, 4.639366
1053.356, 6.658897
1053.838, 8.615166
1054.320, 9.793015
1054.802, 10.46109
1055.285, 10.98418
1055.767, 11.38994
1056.249, 12.45385
1056.731, 15.33621
1057.213, 17.63633
1057.695, 17.92401
1058.177, 17.81535
1058.659, 18.45303
1059.141, 19.67038
1059.624, 21.01258
1060.106, 22.40368
1060.588, 23.90090
1061.070, 25.49362
1061.552, 27.20312
1062.034, 29.30779
1062.516, 31.26234
1062.998, 32.15473
1063.480, 32.76577
1063.963, 34.34975
1064.445, 37.12245
1064.927, 40.73409
1065.409, 45.76135
1065.891, 50.64665
1066.373, 54.91969
1066.855, 58.62636
1067.337, 62.66495
1067.820, 65.72485
1068.302, 65.72264
1068.784, 62.48900
1069.266, 57.63900
1069.748, 50.93662
1070.230, 44.25457
1070.712, 38.25145
1071.194, 32.71364
1071.677, 27.12874
1072.159, 22.05399
1072.641, 18.31773
1073.123, 15.91508
1073.605, 14.30255
1074.087, 13.46564
1074.569, 12.94173
1075.051, 12.73704
1075.533, 12.53725
1076.016, 11.99177
1076.498, 11.40264
1076.980, 11.15565
1077.462, 11.24848
1077.944, 11.47939
1078.426, 11.85765
1078.908, 12.02219
1079.390, 11.71681
1079.873, 11.24674
1080.355, 10.98408
1080.837, 10.54729
1081.319, 9.227806
1081.801, 7.338058
1082.283, 5.936821
1082.765, 5.356789
1083.247, 5.102005
1083.729, 5.179543
1084.212, 5.238983
1084.694, 5.230042
1085.176, 4.976151
1085.658, 4.074615
1086.140, 2.838707
1086.622, 1.961700
1087.104, 1.597534
1087.586, 1.604202
1088.068, 2.490524
1088.551, 3.161308
1089.033, 2.759140
1089.515, 2.075401
1089.997, 1.722534
1090.479, 1.651581
1090.961, 1.669685
1091.443, 1.724411
1091.925, 1.688393
1092.408, 1.419685
1092.890, 1.312233
1093.372, 1.548698
1093.854, 1.847298
1094.336, 2.160675
1094.818, 2.316902
1095.300, 1.984627
1095.782, 1.211716
1096.265, 0.5881350
1096.747, 0.2027510
1097.229, 9.2658997E-02
1097.711, 0.6495670
1098.193, 1.198044
1098.675, 1.205589
1099.157, 0.9124910
1099.639, 0.4725950
1100.121, 4.1175999E-02
1100.604, 0.1536710
1101.086, 1.241180
1101.568, 1.872490
1102.050, 1.440063
1102.532, 0.7949600
1103.014, 0.2910460
1103.496, 0.9876330
1103.978, 0.1013410
1104.460, 1.726845
1104.943, 2.689743
1105.425, 2.323471
1105.907, 2.142471
1106.389, 2.857910
1106.871, 3.206322
1107.353, 2.423172
1107.835, 1.543686
1108.317, 1.294464
1108.800, 1.454254
1109.282, 1.642303
1109.764, 1.835922
1110.246, 1.892281
1110.728, 1.884972
1111.210, 1.610085
1111.692, 0.4552380
1112.174, 0.2965620
1112.656, 0.2854390
1113.139, 1.394852
1113.621, 2.187302
1114.103, 2.634949
1114.585, 2.608749
1115.067, 1.726067
1115.549, 1.062149
1116.031, 0.7229160
1116.513, 0.4564290
1116.995, 0.2066040
1117.478, 2.7229000E-02
1117.960, 0.3269420
1118.442, 0.5916670
1118.924, 0.4600600
1119.406, 0.2474820
1119.888, 0.6249770
1120.370, 0.4445190
1120.852, 0.4132160
1121.335, 0.7226720
1121.817, 1.145615
1122.299, 1.593803
1122.781, 1.999283
1123.263, 2.254440
1123.745, 2.360237
1124.227, 2.185524
1124.709, 1.648178
1125.192, 1.063995
1125.674, 0.3059230
1126.156, 8.1963003E-02
1126.638, 0.9036790
1127.120, 1.947594
1127.602, 2.237892
1128.084, 1.905922
1128.566, 1.514954
1129.048, 1.009918
1129.531, 1.027016
1130.013, 1.682144
1130.495, 2.218033
1130.977, 2.400490
1131.459, 2.396446
1131.941, 2.352997
1132.423, 2.175278
1132.905, 1.527916
1133.387, 0.4707260
1133.870, 1.7318999E-02
1134.352, 4.3189999E-02
1134.834, 6.9931000E-02
1135.316, 4.5547001E-02
1135.798, 8.5631996E-02
1136.280, 0.6920010
1136.762, 1.380203
1137.244, 1.613602
1137.727, 1.565765
1138.209, 1.887512
1138.691, 2.404160
1139.173, 2.160591
1139.655, 1.250313
1140.137, 0.8998030
1140.619, 1.484695
1141.101, 2.052208
1141.583, 1.781204
1142.066, 1.211884
1142.548, 1.186516
1143.030, 1.462288
1143.512, 1.492569
1143.994, 1.402145
1144.476, 1.762581
1144.958, 2.535934
1145.440, 2.768234
1145.922, 1.992264
1146.405, 1.192688
1146.887, 1.464462
1147.369, 2.034561
1147.851, 2.164063
1148.333, 1.921768
1148.815, 1.125793
1149.297, 0.1356510
1149.779, 0.1911540
1150.262, 0.3493040
1150.744, 1.141457
1151.226, 2.157562
1151.708, 2.786339
1152.190, 2.343269
1152.672, 1.633606
1153.154, 1.280342
1153.636, 1.144012
1154.119, 0.8846130
1154.601, 0.5520780
1155.083, 0.5663150
1155.565, 1.133415
1156.047, 1.747803
1156.529, 2.585602
1157.011, 2.998695
1157.493, 2.427635
1157.975, 1.568146
1158.458, 0.9000090
1158.940, 0.4276810
1159.422, 3.8040001E-02
1159.904, 0.2945790
1160.386, 0.2650830
1160.868, 0.6375890
1161.350, 1.075256
1161.832, 0.5431060
1162.314, 0.1933980
1162.797, 0.8670960
1163.279, 1.580086
1163.761, 1.114182
1164.243, 0.2052380
1164.725, 0.8434370
1165.207, 0.6964420
1165.689, 0.1651540
1166.171, 1.013916
1166.654, 1.749336
1167.136, 1.641388
1167.618, 1.446533
1168.100, 1.639824
1168.582, 2.104317
1169.064, 2.719284
1169.546, 3.417038
1170.028, 3.474586
1170.510, 2.922302
1170.993, 2.245117
1171.475, 1.485649
1171.957, 1.385201
1172.439, 2.246292
1172.921, 3.060417
1173.403, 2.871758
1173.885, 2.213326
1174.367, 2.189766
1174.849, 2.577141
1175.332, 2.595444
1175.814, 2.303795
1176.296, 1.993141
1176.778, 1.855698
1177.260, 2.026947
1177.742, 2.649910
1178.224, 3.187531
1178.706, 2.994095
1179.189, 3.331711
1179.671, 2.760887
1180.153, 3.061775
1180.635, 2.661758
1181.117, 1.856476
1181.599, 1.424774
1182.081, 1.491837
1182.563, 1.637939
1183.046, 1.649605
1183.528, 1.767441
1184.010, 2.368774
1184.492, 2.853065
1184.974, 2.681946
1185.456, 2.278717
1185.938, 2.047104
1186.420, 1.978012
1186.902, 1.931992
1187.385, 1.883522
1187.867, 1.935638
1188.349, 2.073082
1188.831, 2.365875
1189.313, 3.412392
1189.795, 3.918648
1190.277, 2.707375
1190.759, 1.112175
1191.241, 0.4349140
1191.724, 0.4919970
1192.206, 0.6369860
1192.688, 0.9509200
1193.170, 0.9124370
1193.652, 0.2109680
1194.134, 0.2719420
1194.616, 1.681313
1195.098, 2.851295
1195.581, 2.854446
1196.063, 2.257492
1196.545, 1.761711
1197.027, 1.409302
1197.509, 1.384491
1197.991, 1.679543
1198.473, 2.316559
1198.955, 3.230301
1199.438, 3.540581
1199.920, 3.035233
1200.402, 2.309006
1200.884, 1.750740
1201.366, 1.245056
1201.848, 0.3666000
1202.330, 0.3875890
1202.812, 0.2496720
1203.294, 1.591469
1203.776, 2.387367
1204.259, 2.520721
1204.741, 2.015244
1205.223, 1.005310
1205.705, 0.2670060
1206.187, 0.2391820
1206.669, 0.6098480
1207.151, 1.600960
1207.633, 2.409424
1208.116, 2.104668
1208.598, 1.552696
1209.080, 2.064781
1209.562, 3.180489
1210.044, 3.295151
1210.526, 2.014664
1211.008, 1.398468
1211.490, 2.603882
1211.973, 3.341965
1212.455, 2.692642
1212.937, 2.147903
1213.419, 2.464981
1213.901, 2.953857
1214.383, 2.822922
1214.865, 2.319466
1215.347, 2.348404
1215.829, 2.183228
1216.312, 2.093590
1216.794, 2.379723
1217.276, 2.154564
1217.758, 2.845474
1218.240, 3.053291
1218.722, 2.025291
1219.204, 0.7738950
1219.686, 0.4525910
1220.168, 0.7670520
1220.651, 1.105560
1221.133, 1.402550
1221.615, 1.231216
1222.097, 0.7457350
1222.579, 0.7535480
1223.061, 1.354897
1223.543, 1.915169
1224.025, 2.116356
1224.508, 2.049965
1224.990, 1.746986
1225.472, 1.371086
1225.954, 1.059586
1226.436, 0.7865910
1226.918, 0.3035280
1227.400, 3.8902000E-02
1227.882, 0.5926900
1228.365, 1.991035
1228.847, 2.810997
1229.329, 2.552307
1229.811, 2.210884
1230.293, 1.972466
1230.775, 1.820427
1231.257, 1.872879
1231.739, 1.876373
1232.221, 1.776253
1232.703, 1.441086
1233.186, 0.4050370
1233.668, 0.7838750
1234.150, 1.068886
1234.632, 0.9889760
1235.114, 2.145065
1235.596, 2.209892
1236.078, 2.130692
1236.560, 2.089211
1237.043, 2.209892
1237.525, 2.605797
1238.007, 2.914429
1238.489, 2.618233
1238.971, 1.950462
1239.453, 1.538734
1239.935, 1.303017
1240.417, 0.9000930
1240.900, 0.4364550
1241.382, 0.3920290
1241.864, 0.8034820
1242.346, 1.371094
1242.828, 1.968880
1243.310, 2.212082
1243.792, 1.393135
1244.274, 0.5382000
1244.756, 0.5799100
1245.239, 1.016556
1245.721, 1.668747
1246.203, 2.236359
1246.685, 2.162712
1247.167, 1.589813
1247.649, 1.489410
1248.131, 2.210175
1248.613, 2.790146
1249.095, 3.528862
1249.578, 3.429298
1250.060, 1.579834
1250.542, 6.3210003E-02
1251.024, 5.4885998E-02
1251.506, 0.6992490
1251.988, 1.055870
1252.470, 1.140152
1252.952, 0.8595580
1253.435, 0.1859590
1253.917, 0.5594860
1254.399, 1.945877
1254.881, 2.556145
1255.363, 2.119499
1255.845, 1.857964
1256.327, 2.327339
1256.809, 2.681877
1257.292, 2.002228
1257.774, 1.106911
1258.256, 1.133263
1258.738, 1.656044
1259.220, 2.365372
1259.702, 2.949982
1260.184, 2.715073
1260.666, 2.083870
1261.148, 1.418930
1261.630, 0.8551480
1262.113, 0.6217960
1262.595, 1.068413
1263.077, 1.454979
1263.559, 1.692307
1264.041, 1.674774
1264.523, 1.132561
1265.005, 0.5168080
1265.487, 0.1922380
1265.970, 9.3337998E-02
1266.452, 5.2406002E-02
1266.934, 6.4834997E-02
1267.416, 0.5113070
1267.898, 1.509254
1268.380, 2.058701
1268.862, 2.068565
1269.344, 1.489372
1269.827, 0.2823030
1270.309, 0.3966060
1270.791, 0.3459320
1271.273, 1.483177
1271.755, 1.500023
1272.237, 0.9647670
1272.719, 0.8369290
1273.201, 0.9767070
1273.683, 1.301788
1274.166, 1.608284
1274.648, 1.365364
1275.130, 0.6391980
1275.612, 0.3198170
1276.094, 0.8570710
1276.576, 1.218864
1277.058, 0.7238080
1277.540, 0.4160160
1278.022, 0.9642720
1278.505, 1.323280
1278.987, 1.322693
1279.469, 1.091080
1279.951, 1.044144
1280.433, 1.094376
1280.915, 0.7580340
1281.397, 0.1133040
1281.879, 0.3933870
1282.362, 2.534027
1282.844, 3.340691
1283.326, 2.305496
1283.808, 0.9395600
1284.290, 0.6770020
1284.772, 0.6186830
1285.254, 0.3913500
1285.736, 0.0000000E+00
##END=



