##NAMES=Lomonosovite
##RRUFFID=R070465
##IDEAL CHEMISTRY=Na_5_Ti_2_(Si_2_O_7_)(PO_4_)O_2_
##LOCALITY=Apatitovyi Tsirk (Apatite Circus), Rasvumchorr Mountain, Khibiny Massif, Kola Peninsula, Murmanskaja Oblast', Northern Region, Russia
##OWNER=RRUFF
##SOURCE=Michael Scott
##DESCRIPTION=Light tan platy crystals associated with orthoclase and lamprophyllite
##STATUS=The identification of this mineral is confirmed by single-crystal X-ray diffraction and chemical analysis.
##URL=rruff.info/R070465
##MEASURED CHEMISTRY=(Na_4.77_Ca_0.20_Mn_0.03_)_Σ=5_(Ti_1.79_Fe^3+^_0.19_Mg_0.02_)_Σ=2_(Si_2.00_O_7_)(P_1.00_O_4_)O_2_
161.7262, 0.0000000E+00
162.2083, 8.402344
162.6904, 7.544922
163.1725, 44.52734
163.6546, 100.8691
164.1367, 115.3398
164.6189, 62.69922
165.1010, 11.89258
165.5831, 1.423828
166.0652, 27.80469
166.5473, 58.78516
167.0294, 84.32422
167.5116, 118.2344
167.9937, 143.5996
168.4758, 181.5762
168.9579, 213.7715
169.4400, 210.4922
169.9221, 173.9766
170.4043, 151.9141
170.8864, 194.9434
171.3685, 255.3906
171.8506, 288.2383
172.3327, 236.4141
172.8148, 179.1504
173.2970, 182.3926
173.7791, 272.9805
174.2612, 386.7861
174.7433, 440.7822
175.2254, 433.1426
175.7076, 403.2803
176.1897, 391.2998
176.6718, 391.0459
177.1539, 383.4307
177.6360, 367.0459
178.1181, 340.4287
178.6003, 290.1221
179.0824, 227.7451
179.5645, 187.4648
180.0466, 208.6416
180.5287, 258.9863
181.0108, 277.2725
181.4930, 252.5791
181.9751, 204.8779
182.4572, 149.5195
182.9393, 90.84570
183.4214, 50.55273
183.9035, 61.99316
184.3857, 105.4795
184.8678, 121.2432
185.3499, 91.31738
185.8320, 40.10254
186.3141, 3.458984
186.7962, 18.36719
187.2784, 27.97559
187.7605, 26.37109
188.2426, 14.32422
188.7247, 7.477539
189.2068, 45.35547
189.6889, 88.26172
190.1711, 109.9404
190.6532, 108.8936
191.1353, 100.8008
191.6174, 99.02148
192.0995, 104.4258
192.5816, 112.7080
193.0638, 120.7402
193.5459, 130.7422
194.0280, 155.1113
194.5101, 194.1787
194.9922, 234.2988
195.4743, 262.6182
195.9565, 276.6465
196.4386, 281.6221
196.9207, 276.0117
197.4028, 264.5273
197.8849, 271.5576
198.3671, 294.4043
198.8492, 334.0605
199.3313, 399.2031
199.8134, 483.5527
200.2955, 554.2266
200.7776, 597.4541
201.2598, 617.8838
201.7419, 658.0469
202.2240, 724.0576
202.7061, 784.9453
203.1882, 775.3359
203.6703, 672.5938
204.1525, 597.4414
204.6346, 606.1533
205.1167, 710.4434
205.5988, 766.7646
206.0809, 759.4697
206.5630, 720.1084
207.0452, 712.0312
207.5273, 747.4863
208.0094, 769.2510
208.4915, 740.7686
208.9736, 647.1514
209.4557, 595.1318
209.9379, 599.2549
210.4200, 637.9805
210.9021, 662.3555
211.3842, 670.0635
211.8663, 670.4395
212.3484, 665.8994
212.8306, 653.5820
213.3127, 652.0957
213.7948, 671.4414
214.2769, 698.5000
214.7590, 689.5605
215.2411, 628.9219
215.7233, 565.4102
216.2054, 531.1641
216.6875, 540.1777
217.1696, 529.8389
217.6517, 490.0303
218.1338, 428.0293
218.6160, 371.9961
219.0981, 317.5566
219.5802, 291.3789
220.0623, 288.9141
220.5444, 323.7607
221.0265, 344.0840
221.5087, 340.9326
221.9908, 318.6025
222.4729, 301.0146
222.9550, 287.7471
223.4371, 280.1738
223.9192, 283.4492
224.4014, 307.1543
224.8835, 312.2744
225.3656, 284.1094
225.8477, 230.4629
226.3298, 219.3535
226.8119, 283.4199
227.2941, 346.6270
227.7762, 346.1963
228.2583, 243.6680
228.7404, 162.1592
229.2225, 119.9355
229.7046, 114.5117
230.1868, 119.5625
230.6689, 144.1006
231.1510, 167.9658
231.6331, 175.2061
232.1152, 161.5303
232.5973, 138.7949
233.0795, 103.5586
233.5616, 57.31152
234.0437, 27.66602
234.5258, 26.59961
235.0079, 30.36719
235.4900, 17.17383
235.9722, 24.17676
236.4543, 58.98438
236.9364, 82.32227
237.4185, 94.00684
237.9006, 93.66797
238.3828, 75.44531
238.8649, 51.41992
239.3470, 32.02148
239.8291, 18.65918
240.3112, 10.00391
240.7933, 9.201172
241.2755, 16.94922
241.7576, 15.31445
242.2397, 1.955078
242.7218, 21.91699
243.2039, 31.09277
243.6860, 21.23242
244.1682, 13.91602
244.6503, 15.79395
245.1324, 28.34082
245.6145, 29.83887
246.0966, 10.08691
246.5787, 8.205078
247.0609, 0.6250000
247.5430, 58.09668
248.0251, 99.25684
248.5072, 103.3145
248.9893, 67.43359
249.4714, 56.20703
249.9536, 83.54102
250.4357, 121.5000
250.9178, 138.6162
251.3999, 118.0957
251.8820, 111.2305
252.3641, 135.4404
252.8463, 192.7354
253.3284, 229.0850
253.8105, 241.7549
254.2926, 236.1465
254.7747, 211.3965
255.2568, 144.7949
255.7390, 108.7041
256.2211, 127.6934
256.7032, 203.9668
257.1853, 259.6641
257.6674, 286.0176
258.1495, 301.6377
258.6317, 328.7314
259.1138, 379.0049
259.5959, 410.9150
260.0780, 407.7197
260.5601, 367.9551
261.0422, 349.9414
261.5244, 359.5938
262.0065, 382.3760
262.4886, 403.0947
262.9707, 419.4883
263.4528, 442.6338
263.9349, 482.3428
264.4171, 538.8398
264.8992, 558.9238
265.3813, 526.9814
265.8634, 483.0332
266.3455, 474.5176
266.8276, 519.0713
267.3098, 540.1709
267.7919, 510.4355
268.2740, 433.6787
268.7561, 394.7891
269.2382, 405.8730
269.7203, 433.7910
270.2025, 448.0146
270.6846, 447.4004
271.1667, 435.9326
271.6488, 410.3193
272.1309, 372.4521
272.6130, 347.4229
273.0952, 341.6279
273.5773, 334.2988
274.0594, 302.4902
274.5415, 242.0459
275.0236, 183.9932
275.5057, 132.5908
275.9879, 89.03418
276.4700, 65.13867
276.9521, 66.02832
277.4342, 72.07715
277.9163, 61.68848
278.3984, 32.32031
278.8806, 16.58594
279.3627, 28.44824
279.8448, 58.26953
280.3269, 55.83691
280.8090, 12.85938
281.2911, 31.31445
281.7733, 39.23633
282.2554, 10.18262
282.7375, 17.66504
283.2196, 38.30762
283.7017, 50.86914
284.1838, 49.41016
284.6660, 31.77930
285.1481, 15.58496
285.6302, 15.04980
286.1123, 29.21289
286.5944, 48.82031
287.0765, 74.43848
287.5587, 103.6592
288.0408, 132.1787
288.5229, 161.0234
289.0050, 181.9248
289.4871, 180.2744
289.9692, 161.3193
290.4514, 159.3652
290.9335, 185.6328
291.4156, 224.8574
291.8977, 238.7305
292.3798, 229.3457
292.8619, 233.7139
293.3441, 294.1953
293.8262, 391.1240
294.3083, 457.4775
294.7904, 483.2012
295.2725, 478.4502
295.7546, 440.5781
296.2368, 376.5303
296.7189, 334.5713
297.2010, 365.9531
297.6831, 441.3916
298.1652, 492.4658
298.6474, 506.1113
299.1295, 501.1201
299.6116, 497.4717
300.0937, 496.7998
300.5758, 502.3750
301.0580, 515.3721
301.5401, 534.4668
302.0222, 564.8701
302.5043, 612.9355
302.9864, 651.4727
303.4685, 637.4365
303.9507, 585.9834
304.4328, 542.9238
304.9149, 537.3164
305.3970, 555.1309
305.8791, 583.5830
306.3612, 624.5576
306.8434, 654.4287
307.3255, 649.3037
307.8076, 618.9092
308.2897, 581.9990
308.7718, 536.2314
309.2539, 492.3438
309.7361, 462.9492
310.2182, 449.9355
310.7003, 437.1738
311.1824, 407.1504
311.6645, 371.4102
312.1466, 347.4463
312.6288, 362.5771
313.1109, 377.7061
313.5930, 360.5508
314.0751, 310.2314
314.5572, 259.7490
315.0393, 223.6963
315.5215, 198.1943
316.0036, 179.0986
316.4857, 159.6045
316.9678, 150.8945
317.4499, 167.8936
317.9320, 208.6777
318.4142, 235.4600
318.8963, 232.0967
319.3784, 209.8711
319.8605, 177.8848
320.3426, 102.2891
320.8247, 53.40918
321.3069, 68.14941
321.7890, 135.7178
322.2711, 188.3369
322.7532, 203.9336
323.2353, 202.3711
323.7174, 195.6582
324.1996, 177.0059
324.6817, 162.6553
325.1638, 157.7559
325.6459, 159.5596
326.1280, 158.1143
326.6101, 144.5020
327.0923, 133.7012
327.5744, 133.6133
328.0565, 164.6484
328.5386, 177.0352
329.0207, 152.4854
329.5028, 110.2598
329.9850, 95.05859
330.4671, 122.8691
330.9492, 162.1963
331.4313, 205.7959
331.9134, 262.2734
332.3955, 301.8564
332.8777, 318.9678
333.3598, 321.5361
333.8419, 324.1494
334.3240, 334.8848
334.8061, 330.2227
335.2882, 287.7480
335.7704, 189.6738
336.2525, 177.9082
336.7346, 293.3086
337.2167, 447.9121
337.6988, 528.1758
338.1809, 509.1934
338.6631, 495.1279
339.1452, 512.4580
339.6273, 560.3955
340.1094, 607.5137
340.5915, 656.9268
341.0736, 696.3633
341.5558, 706.3232
342.0379, 683.3359
342.5200, 672.9043
343.0021, 687.3164
343.4842, 720.4336
343.9663, 750.6543
344.4485, 777.4609
344.9306, 804.9072
345.4127, 836.9824
345.8948, 873.1611
346.3769, 910.6143
346.8590, 955.5947
347.3412, 992.0781
347.8233, 971.6807
348.3054, 898.5674
348.7875, 837.8135
349.2696, 849.4209
349.7517, 906.9473
350.2339, 938.5586
350.7160, 933.0859
351.1981, 906.8223
351.6802, 867.8770
352.1623, 821.1406
352.6444, 785.7881
353.1266, 780.3008
353.6087, 788.5918
354.0908, 791.6670
354.5729, 788.7168
355.0550, 773.3779
355.5371, 730.7061
356.0193, 672.6182
356.5014, 621.5957
356.9835, 605.9189
357.4656, 589.9209
357.9477, 533.8467
358.4298, 439.2061
358.9120, 361.3691
359.3941, 352.1387
359.8762, 370.2705
360.3583, 371.7949
360.8404, 323.4014
361.3225, 273.1094
361.8047, 241.9150
362.2868, 227.4277
362.7689, 216.9961
363.2510, 225.0059
363.7331, 222.8281
364.2152, 187.8848
364.6974, 76.47656
365.1795, 11.06836
365.6616, 42.48438
366.1437, 33.83105
366.6258, 27.46875
367.1079, 37.24707
367.5901, 44.53223
368.0722, 37.12500
368.5543, 8.789063
369.0364, 19.13867
369.5185, 47.52734
370.0006, 138.8447
370.4828, 177.6670
370.9649, 118.4629
371.4470, 61.89160
371.9291, 33.08789
372.4112, 36.41602
372.8933, 35.14648
373.3755, 31.82031
373.8576, 22.35352
374.3397, 4.531250
374.8218, 16.03125
375.3039, 58.79102
375.7860, 139.4258
376.2682, 247.2891
376.7503, 309.3613
377.2324, 311.7148
377.7145, 302.1328
378.1966, 320.4043
378.6787, 370.3203
379.1609, 399.7188
379.6430, 396.2344
380.1251, 376.7207
380.6072, 378.8223
381.0894, 403.6660
381.5715, 440.4238
382.0536, 490.4277
382.5357, 550.3242
383.0178, 600.0625
383.4999, 640.1562
383.9821, 666.4531
384.4642, 660.1035
384.9463, 629.7891
385.4284, 616.5273
385.9105, 638.0801
386.3926, 687.4316
386.8748, 765.7793
387.3569, 873.8984
387.8390, 967.5215
388.3211, 991.8027
388.8032, 978.9648
389.2853, 983.8379
389.7675, 1042.029
390.2496, 1106.297
390.7317, 1137.174
391.2138, 1139.221
391.6959, 1133.771
392.1780, 1120.750
392.6602, 1112.396
393.1423, 1121.559
393.6244, 1161.740
394.1065, 1198.461
394.5886, 1217.162
395.0707, 1222.650
395.5529, 1225.061
396.0350, 1218.965
396.5171, 1217.283
396.9992, 1229.393
397.4813, 1262.293
397.9634, 1281.420
398.4456, 1276.848
398.9277, 1257.582
399.4098, 1233.965
399.8919, 1193.623
400.3740, 1163.051
400.8561, 1151.150
401.3383, 1157.795
401.8204, 1156.020
402.3025, 1148.863
402.7846, 1130.742
403.2667, 1091.760
403.7488, 1007.658
404.2310, 965.5859
404.7131, 986.5039
405.1952, 1049.244
405.6773, 1091.740
406.1594, 1109.600
406.6415, 1120.938
407.1237, 1132.535
407.6058, 1143.852
408.0879, 1160.355
408.5700, 1181.752
409.0521, 1208.373
409.5342, 1245.273
410.0164, 1291.271
410.4985, 1327.299
410.9806, 1339.461
411.4627, 1337.703
411.9448, 1351.658
412.4269, 1381.453
412.9091, 1417.473
413.3912, 1466.426
413.8733, 1514.309
414.3554, 1522.143
414.8375, 1458.324
415.3196, 1385.568
415.8018, 1390.121
416.2839, 1450.568
416.7660, 1491.650
417.2481, 1446.598
417.7302, 1374.545
418.2123, 1328.426
418.6945, 1318.203
419.1766, 1324.295
419.6587, 1354.758
420.1408, 1390.975
420.6229, 1404.117
421.1050, 1358.182
421.5872, 1308.877
422.0693, 1278.326
422.5514, 1268.662
423.0335, 1259.152
423.5156, 1244.197
423.9977, 1229.273
424.4799, 1216.287
424.9620, 1199.250
425.4441, 1188.453
425.9262, 1187.982
426.4083, 1195.732
426.8904, 1202.764
427.3726, 1216.900
427.8547, 1215.432
428.3368, 1187.805
428.8189, 1125.123
429.3010, 1085.482
429.7831, 1078.150
430.2653, 1080.330
430.7474, 1055.451
431.2295, 994.4297
431.7116, 950.5684
432.1937, 942.2520
432.6758, 964.6309
433.1580, 994.6641
433.6401, 1035.061
434.1222, 1066.326
434.6043, 1059.156
435.0864, 1022.307
435.5685, 1011.459
436.0507, 1043.002
436.5328, 1088.836
437.0149, 1099.420
437.4970, 1082.494
437.9791, 1074.670
438.4612, 1108.854
438.9434, 1159.678
439.4255, 1191.955
439.9076, 1202.221
440.3897, 1205.477
440.8718, 1217.451
441.3539, 1229.336
441.8361, 1228.770
442.3182, 1198.725
442.8003, 1167.576
443.2824, 1143.826
443.7645, 1130.426
444.2466, 1137.824
444.7288, 1205.400
445.2109, 1270.744
445.6930, 1291.852
446.1751, 1225.980
446.6572, 1181.354
447.1393, 1179.299
447.6215, 1205.826
448.1036, 1235.861
448.5857, 1281.723
449.0678, 1311.672
449.5499, 1312.168
450.0320, 1283.316
450.5142, 1260.262
450.9963, 1243.867
451.4784, 1233.502
451.9605, 1232.531
452.4426, 1247.152
452.9247, 1243.990
453.4069, 1213.268
453.8890, 1166.168
454.3711, 1133.174
454.8532, 1114.064
455.3353, 1106.221
455.8174, 1119.068
456.2996, 1144.931
456.7817, 1138.648
457.2638, 1093.499
457.7459, 1039.602
458.2280, 1017.218
458.7101, 1014.548
459.1923, 996.2490
459.6744, 940.8213
460.1565, 869.8887
460.6386, 808.0264
461.1207, 754.2861
461.6028, 705.9658
462.0850, 671.4170
462.5671, 637.2314
463.0492, 590.3135
463.5313, 523.3984
464.0135, 455.9922
464.4956, 388.1357
464.9777, 327.7002
465.4598, 289.0820
465.9419, 311.0449
466.4240, 321.8877
466.9062, 283.9893
467.3883, 188.5088
467.8704, 131.1074
468.3525, 148.3818
468.8346, 181.4980
469.3167, 191.0303
469.7989, 159.4805
470.2810, 135.6865
470.7631, 128.1504
471.2452, 127.7617
471.7273, 107.4902
472.2094, 59.26367
472.6916, 16.24512
473.1737, 3.394531
473.6558, 1.3672000E-02
474.1379, 9.812500
474.6200, 34.17480
475.1021, 63.38184
475.5843, 87.89258
476.0664, 107.6982
476.5485, 126.0303
477.0306, 146.9893
477.5127, 162.1055
477.9948, 158.2285
478.4770, 136.4766
478.9591, 102.0088
479.4412, 38.52734
479.9233, 26.49023
480.4054, 52.84668
480.8875, 30.12598
481.3697, 6.196289
481.8518, 2.110352
482.3339, 17.07129
482.8160, 50.18164
483.2981, 126.0059
483.7802, 195.7773
484.2624, 237.8496
484.7445, 255.7070
485.2266, 270.3975
485.7087, 283.6904
486.1908, 296.5205
486.6729, 309.2979
487.1551, 322.3115
487.6372, 336.0195
488.1193, 358.2139
488.6014, 376.7529
489.0835, 369.1240
489.5656, 314.4199
490.0478, 290.1562
490.5299, 332.0518
491.0120, 424.2168
491.4941, 441.4238
491.9762, 369.3896
492.4583, 292.0146
492.9405, 282.1289
493.4226, 328.5820
493.9047, 347.6348
494.3868, 326.9463
494.8689, 288.7090
495.3510, 253.4648
495.8332, 223.3232
496.3153, 205.4590
496.7974, 213.8213
497.2795, 229.0059
497.7616, 229.8096
498.2437, 216.8135
498.7259, 198.7559
499.2080, 181.6484
499.6901, 161.1172
500.1722, 130.8896
500.6543, 79.33301
501.1364, 40.23340
501.6186, 35.20801
502.1007, 48.51074
502.5828, 52.36133
503.0649, 35.39355
503.5470, 16.08301
504.0291, 1.259766
504.5113, 16.57715
504.9934, 30.36133
505.4755, 50.91602
505.9576, 59.56348
506.4397, 38.04785
506.9218, 28.75879
507.4040, 68.84961
507.8861, 70.05078
508.3682, 51.78418
508.8503, 47.40820
509.3324, 56.76270
509.8145, 76.21875
510.2967, 107.7627
510.7788, 147.0947
511.2609, 184.2031
511.7430, 218.8018
512.2252, 245.4668
512.7073, 255.9434
513.1894, 256.1611
513.6715, 252.3838
514.1536, 238.8574
514.6357, 241.3857
515.1179, 308.1250
515.6000, 403.6064
516.0821, 459.6807
516.5642, 410.4766
517.0463, 351.4717
517.5284, 327.0986
518.0106, 338.3994
518.4927, 355.1377
518.9748, 379.3379
519.4569, 400.9609
519.9390, 412.2715
520.4211, 392.6162
520.9033, 399.6094
521.3854, 450.7314
521.8675, 519.0264
522.3496, 555.3496
522.8317, 546.5723
523.3138, 545.4248
523.7960, 569.3066
524.2781, 613.8965
524.7602, 649.8887
525.2423, 676.6504
525.7244, 702.9180
526.2065, 730.2559
526.6887, 761.7715
527.1708, 815.4570
527.6529, 897.9717
528.1350, 982.6836
528.6171, 1032.952
529.0992, 1063.131
529.5814, 1105.329
530.0635, 1179.223
530.5456, 1264.675
531.0277, 1354.532
531.5098, 1446.597
531.9919, 1525.487
532.4741, 1569.424
532.9562, 1607.153
533.4383, 1659.696
533.9204, 1740.423
534.4025, 1806.906
534.8846, 1842.408
535.3668, 1865.432
535.8489, 1897.422
536.3310, 1954.117
536.8131, 1998.631
537.2952, 2023.285
537.7773, 2033.666
538.2595, 2053.045
538.7416, 2082.078
539.2237, 2116.561
539.7058, 2157.695
540.1879, 2206.324
540.6700, 2252.836
541.1522, 2297.488
541.6343, 2331.975
542.1164, 2334.713
542.5985, 2318.043
543.0806, 2320.482
543.5627, 2363.594
544.0449, 2411.256
544.5270, 2423.141
545.0091, 2408.516
545.4912, 2393.918
545.9733, 2400.096
546.4554, 2404.371
546.9376, 2387.367
547.4197, 2346.025
547.9018, 2315.604
548.3839, 2329.572
548.8660, 2344.258
549.3481, 2326.658
549.8303, 2242.014
550.3124, 2172.473
550.7945, 2122.682
551.2766, 2088.129
551.7587, 2061.457
552.2408, 2048.273
552.7230, 2027.459
553.2051, 1984.865
553.6872, 1927.809
554.1693, 1916.381
554.6514, 1955.668
555.1335, 1985.742
555.6157, 1938.734
556.0978, 1845.451
556.5799, 1809.424
557.0620, 1852.461
557.5441, 1904.928
558.0262, 1889.459
558.5084, 1830.729
558.9905, 1776.551
559.4726, 1737.973
559.9547, 1719.867
560.4368, 1734.061
560.9189, 1773.010
561.4011, 1808.688
561.8832, 1829.682
562.3653, 1847.145
562.8474, 1865.622
563.3295, 1887.397
563.8116, 1900.192
564.2938, 1894.579
564.7759, 1895.587
565.2580, 1923.150
565.7401, 1989.185
566.2222, 2040.404
566.7043, 2068.412
567.1865, 2083.293
567.6686, 2103.101
568.1507, 2126.703
568.6328, 2163.583
569.1149, 2226.354
569.5970, 2306.128
570.0792, 2367.573
570.5613, 2411.453
571.0434, 2457.602
571.5255, 2529.381
572.0076, 2608.508
572.4897, 2675.191
572.9719, 2725.994
573.4540, 2761.057
573.9361, 2767.227
574.4182, 2761.104
574.9003, 2764.844
575.3824, 2817.578
575.8646, 2843.943
576.3467, 2809.977
576.8288, 2730.180
577.3109, 2672.961
577.7930, 2648.584
578.2751, 2633.135
578.7573, 2620.445
579.2394, 2611.834
579.7215, 2590.893
580.2036, 2555.303
580.6857, 2514.672
581.1678, 2480.789
581.6500, 2452.055
582.1321, 2413.594
582.6142, 2362.461
583.0963, 2302.602
583.5784, 2229.289
584.0605, 2150.357
584.5427, 2085.248
585.0248, 2059.877
585.5069, 2039.779
585.9890, 1997.682
586.4711, 1935.855
586.9532, 1870.549
587.4354, 1802.004
587.9175, 1736.373
588.3996, 1676.676
588.8817, 1622.717
589.3638, 1576.299
589.8459, 1545.289
590.3281, 1515.031
590.8102, 1470.270
591.2923, 1407.637
591.7744, 1338.186
592.2565, 1257.768
592.7386, 1175.887
593.2208, 1120.990
593.7029, 1093.715
594.1850, 1059.709
594.6671, 995.5000
595.1492, 916.3359
595.6313, 859.1465
596.1135, 822.9902
596.5956, 792.9629
597.0777, 765.0176
597.5598, 734.0918
598.0419, 692.3379
598.5240, 634.7188
599.0062, 582.5137
599.4883, 554.6680
599.9704, 533.5449
600.4525, 499.0449
600.9346, 420.0527
601.4167, 359.9883
601.8989, 330.5664
602.3810, 324.8730
602.8631, 324.3672
603.3452, 331.9629
603.8273, 337.4492
604.3094, 339.1895
604.7916, 336.1211
605.2737, 316.7285
605.7558, 279.0918
606.2379, 236.9316
606.7200, 194.1230
607.2021, 154.7793
607.6843, 136.7949
608.1664, 146.4297
608.6485, 153.6934
609.1306, 125.3633
609.6127, 77.85352
610.0948, 35.17773
610.5770, 1.615234
611.0591, 20.23828
611.5412, 17.83203
612.0233, 1.968750
612.5054, 1.414063
612.9875, 33.78320
613.4697, 70.73633
613.9518, 110.5898
614.4339, 153.7148
614.9160, 163.2891
615.3981, 124.3242
615.8802, 81.24414
616.3624, 63.96289
616.8445, 73.22266
617.3266, 80.45898
617.8087, 83.18555
618.2908, 88.74414
618.7729, 115.0469
619.2551, 152.0469
619.7372, 168.1855
620.2193, 145.4043
620.7014, 114.4473
621.1835, 105.4023
621.6656, 110.6836
622.1478, 112.0117
622.6299, 93.40820
623.1120, 76.78320
623.5941, 74.50586
624.0762, 86.21680
624.5583, 93.07422
625.0405, 101.3359
625.5226, 95.80469
626.0047, 64.76562
626.4868, 2.046875
626.9689, 45.26172
627.4510, 57.67188
627.9332, 60.90039
628.4153, 80.71484
628.8974, 115.3789
629.3795, 138.9941
629.8616, 145.5020
630.3438, 142.9336
630.8259, 133.0488
631.3080, 122.0781
631.7901, 127.3828
632.2722, 157.3105
632.7543, 206.3027
633.2365, 294.3242
633.7186, 406.1875
634.2007, 472.6699
634.6828, 415.5879
635.1649, 355.8262
635.6470, 358.8262
636.1292, 443.0879
636.6113, 494.6680
637.0934, 492.5137
637.5755, 484.3691
638.0576, 509.3652
638.5397, 575.1426
639.0219, 619.6797
639.5040, 634.0977
639.9861, 640.1562
640.4682, 666.7500
640.9503, 711.1719
641.4324, 761.5703
641.9146, 810.4805
642.3967, 867.9551
642.8788, 959.1621
643.3609, 1068.566
643.8430, 1157.203
644.3251, 1198.947
644.8073, 1220.506
645.2894, 1224.344
645.7715, 1212.555
646.2536, 1222.547
646.7357, 1278.836
647.2178, 1340.955
647.7000, 1391.061
648.1821, 1423.674
648.6642, 1470.840
649.1463, 1535.396
649.6284, 1608.932
650.1105, 1688.256
650.5927, 1771.475
651.0748, 1836.322
651.5569, 1875.592
652.0390, 1904.582
652.5211, 1931.795
653.0032, 1964.119
653.4854, 2017.617
653.9675, 2110.156
654.4496, 2215.178
654.9317, 2329.035
655.4138, 2443.176
655.8959, 2534.041
656.3781, 2572.809
656.8602, 2605.482
657.3423, 2645.031
657.8244, 2691.195
658.3065, 2751.697
658.7886, 2833.832
659.2708, 2916.742
659.7529, 2981.254
660.2350, 3026.260
660.7171, 3107.615
661.1992, 3233.234
661.6813, 3357.033
662.1635, 3412.461
662.6456, 3426.617
663.1277, 3470.924
663.6098, 3571.811
664.0919, 3678.113
664.5740, 3753.848
665.0562, 3807.564
665.5383, 3852.867
666.0204, 3888.654
666.5025, 3923.043
666.9846, 3958.648
667.4667, 3995.143
667.9489, 4027.557
668.4310, 4045.930
668.9131, 4078.199
669.3953, 4147.852
669.8774, 4247.152
670.3595, 4274.393
670.8416, 4216.133
671.3237, 4165.883
671.8058, 4215.453
672.2880, 4319.877
672.7701, 4357.906
673.2522, 4322.438
673.7343, 4279.127
674.2164, 4275.217
674.6985, 4289.770
675.1807, 4304.279
675.6628, 4321.924
676.1449, 4322.389
676.6270, 4291.293
677.1091, 4240.148
677.5912, 4185.652
678.0734, 4125.967
678.5555, 4075.172
679.0376, 4037.604
679.5197, 4004.611
680.0018, 3956.682
680.4839, 3893.742
680.9661, 3828.543
681.4482, 3767.209
681.9303, 3702.895
682.4124, 3611.244
682.8945, 3498.393
683.3766, 3401.979
683.8588, 3357.447
684.3409, 3334.857
684.8230, 3312.248
685.3051, 3288.008
685.7872, 3240.521
686.2693, 3131.740
686.7515, 3020.051
687.2336, 2949.338
687.7157, 2942.352
688.1978, 2905.338
688.6799, 2823.729
689.1620, 2732.416
689.6442, 2669.709
690.1263, 2636.531
690.6084, 2599.088
691.0905, 2550.973
691.5726, 2501.504
692.0547, 2468.145
692.5369, 2442.930
693.0190, 2405.291
693.5011, 2338.680
693.9832, 2269.084
694.4653, 2216.984
694.9474, 2176.539
695.4296, 2133.580
695.9117, 2085.600
696.3938, 2033.547
696.8759, 1970.910
697.3580, 1902.355
697.8401, 1857.592
698.3223, 1843.035
698.8044, 1838.619
699.2865, 1842.898
699.7686, 1852.092
700.2507, 1821.061
700.7328, 1747.096
701.2150, 1684.416
701.6971, 1699.191
702.1792, 1745.582
702.6613, 1738.709
703.1434, 1663.373
703.6255, 1597.150
704.1077, 1610.271
704.5898, 1641.277
705.0719, 1634.094
705.5540, 1559.455
706.0361, 1477.967
706.5182, 1379.131
707.0004, 1287.078
707.4825, 1232.264
707.9646, 1224.037
708.4467, 1220.643
708.9288, 1221.299
709.4109, 1216.355
709.8931, 1173.688
710.3752, 1103.344
710.8573, 1060.982
711.3394, 1090.924
711.8215, 1135.385
712.3036, 1134.812
712.7858, 1097.604
713.2679, 1048.314
713.7500, 965.0352
714.2321, 902.5156
714.7142, 897.5547
715.1964, 948.3516
715.6785, 965.9512
716.1606, 931.4492
716.6427, 891.8887
717.1248, 869.6035
717.6069, 864.1113
718.0891, 847.4941
718.5712, 819.4414
719.0533, 785.7578
719.5354, 740.0312
720.0175, 695.2891
720.4996, 688.0742
720.9818, 725.7891
721.4639, 757.3535
721.9460, 750.8125
722.4281, 719.8164
722.9102, 674.3594
723.3923, 596.9180
723.8745, 544.1523
724.3566, 534.3418
724.8387, 545.5742
725.3208, 557.5059
725.8029, 572.1367
726.2850, 578.4062
726.7672, 572.9785
727.2493, 560.2832
727.7314, 544.1230
728.2135, 525.7012
728.6956, 515.0215
729.1777, 516.3770
729.6599, 524.1055
730.1420, 537.0488
730.6241, 551.4473
731.1062, 558.9414
731.5883, 560.3770
732.0704, 550.5918
732.5526, 517.5566
733.0347, 468.2383
733.5168, 446.2266
733.9989, 471.1133
734.4810, 487.7266
734.9631, 470.1074
735.4453, 426.2500
735.9274, 424.9395
736.4095, 466.2852
736.8916, 490.3008
737.3737, 425.9746
737.8558, 334.9609
738.3380, 334.7754
738.8201, 423.4570
739.3022, 499.3301
739.7843, 476.8418
740.2664, 438.2188
740.7485, 447.9277
741.2307, 533.8652
741.7128, 598.1523
742.1949, 626.9766
742.6770, 633.5762
743.1591, 630.0469
743.6412, 617.8125
744.1234, 605.2578
744.6055, 592.0508
745.0876, 587.7344
745.5697, 603.0020
746.0518, 627.0000
746.5339, 643.9375
747.0161, 653.0781
747.4982, 656.0820
747.9803, 652.8184
748.4624, 644.2715
748.9445, 631.7539
749.4266, 586.4062
749.9088, 571.6641
750.3909, 627.8242
750.8730, 706.3828
751.3551, 722.3691
751.8372, 658.4160
752.3193, 614.3906
752.8015, 614.7988
753.2836, 637.3379
753.7657, 635.1523
754.2478, 613.5859
754.7299, 603.5898
755.2120, 639.5586
755.6942, 675.8750
756.1763, 653.2441
756.6584, 598.5488
757.1405, 579.7402
757.6226, 652.1348
758.1047, 713.1914
758.5869, 725.9043
759.0690, 702.3125
759.5511, 694.1113
760.0332, 701.3359
760.5153, 705.3438
760.9974, 702.5742
761.4796, 695.0723
761.9617, 680.5020
762.4438, 657.7754
762.9259, 631.4648
763.4080, 601.4121
763.8901, 576.9766
764.3723, 563.5996
764.8544, 560.8340
765.3365, 571.2793
765.8186, 616.9180
766.3007, 658.5352
766.7828, 669.6719
767.2650, 644.0684
767.7471, 625.7188
768.2292, 614.3887
768.7113, 616.3184
769.1934, 643.3379
769.6755, 687.9238
770.1577, 699.7051
770.6398, 673.6074
771.1219, 636.6094
771.6040, 611.5605
772.0861, 593.4395
772.5682, 572.5527
773.0504, 542.3906
773.5325, 529.5293
774.0146, 578.5684
774.4967, 631.1562
774.9788, 627.1914
775.4609, 513.5352
775.9431, 461.6738
776.4252, 499.4062
776.9073, 560.2207
777.3894, 554.0762
777.8715, 489.5508
778.3536, 446.0703
778.8358, 443.2012
779.3179, 449.7480
779.8000, 428.4824
780.2821, 394.7656
780.7642, 373.0117
781.2463, 385.3848
781.7285, 388.7852
782.2106, 357.1172
782.6927, 312.2070
783.1748, 288.2695
783.6569, 291.1094
784.1390, 302.0801
784.6212, 321.7227
785.1033, 343.2207
785.5854, 354.2402
786.0675, 354.9023
786.5496, 347.3164
787.0317, 328.6816
787.5139, 307.4277
787.9960, 297.2598
788.4781, 290.8770
788.9602, 272.8809
789.4423, 217.7422
789.9244, 172.7363
790.4066, 162.9336
790.8887, 172.9023
791.3708, 164.3750
791.8529, 134.5957
792.3350, 93.70312
792.8171, 35.67578
793.2993, 22.87891
793.7814, 21.50195
794.2635, 28.77344
794.7456, 55.53906
795.2277, 4.029297
795.7098, 79.55273
796.1920, 105.8594
796.6741, 94.67383
797.1562, 83.20508
797.6383, 81.34375
798.1204, 84.02930
798.6025, 99.84766
799.0847, 120.7031
799.5668, 98.73047
800.0489, 20.77344
800.5310, 45.37695
801.0131, 71.89453
801.4952, 65.36133
801.9774, 25.97656
802.4595, 37.80078
802.9416, 76.12891
803.4237, 36.24609
803.9058, 20.14062
804.3879, 51.21484
804.8701, 57.05664
805.3522, 52.45312
805.8343, 25.44141
806.3164, 5.740234
806.7985, 4.707031
807.2806, 20.55859
807.7628, 36.87695
808.2449, 56.49609
808.7270, 56.37891
809.2091, 3.476563
809.6912, 71.74219
810.1733, 109.1660
810.6555, 111.1426
811.1376, 95.82422
811.6197, 60.62305
812.1018, 23.16211
812.5839, 14.99805
813.0660, 53.09961
813.5482, 44.69531
814.0303, 52.72852
814.5124, 127.7852
814.9945, 114.2969
815.4766, 25.11719
815.9587, 7.988281
816.4409, 63.60742
816.9230, 117.2285
817.4051, 101.6152
817.8872, 60.46094
818.3693, 52.37891
818.8514, 76.84766
819.3336, 95.25977
819.8157, 79.29102
820.2978, 62.61133
820.7799, 68.87305
821.2620, 99.64258
821.7441, 110.6484
822.2263, 99.05469
822.7084, 77.87500
823.1905, 51.38672
823.6726, 21.91406
824.1547, 4.564453
824.6368, 27.15820
825.1190, 33.19727
825.6011, 5.425781
826.0832, 50.58789
826.5653, 67.32227
827.0474, 52.92969
827.5295, 33.81836
828.0117, 8.636719
828.4938, 14.34961
828.9759, 34.16016
829.4580, 51.26562
829.9401, 54.57227
830.4222, 43.48828
830.9044, 26.11719
831.3865, 0.3066410
831.8686, 26.21094
832.3507, 28.27930
832.8328, 8.017578
833.3149, 8.306641
833.7971, 0.1132810
834.2792, 11.70312
834.7614, 17.70312
835.2435, 17.29297
835.7256, 1.070313
836.2077, 47.06641
836.6898, 93.01367
837.1719, 126.7676
837.6541, 148.6348
838.1362, 155.6621
838.6183, 148.6211
839.1004, 144.8398
839.5825, 154.0117
840.0646, 174.5566
840.5468, 208.8535
841.0289, 255.5039
841.5110, 298.2773
841.9931, 313.9355
842.4752, 342.8789
842.9573, 411.9551
843.4395, 518.0586
843.9216, 569.7793
844.4037, 556.6426
844.8858, 544.4062
845.3679, 571.8652
845.8500, 627.2441
846.3322, 695.0195
846.8143, 770.8340
847.2964, 828.1465
847.7785, 831.9590
848.2606, 830.3340
848.7427, 854.9102
849.2249, 905.7070
849.7070, 943.4355
850.1891, 960.6270
850.6712, 978.9805
851.1533, 1010.551
851.6354, 1050.400
852.1176, 1056.195
852.5997, 1030.254
853.0818, 1014.705
853.5639, 1052.098
854.0460, 1096.826
854.5281, 1106.273
855.0103, 1083.832
855.4924, 1047.885
855.9745, 969.2891
856.4566, 917.3496
856.9387, 925.6426
857.4208, 977.6836
857.9030, 990.3027
858.3851, 956.0840
858.8672, 919.4746
859.3493, 899.1582
859.8314, 886.9785
860.3135, 870.8398
860.7957, 850.0703
861.2778, 823.8379
861.7599, 773.9512
862.2420, 733.3594
862.7241, 726.8516
863.2062, 741.5527
863.6884, 733.7695
864.1705, 696.3965
864.6526, 652.7402
865.1347, 607.0078
865.6168, 559.7578
866.0989, 507.7598
866.5811, 453.4414
867.0632, 411.7773
867.5453, 390.6914
868.0274, 377.0879
868.5095, 375.8066
868.9916, 375.0078
869.4738, 351.3203
869.9559, 265.3262
870.4380, 203.3965
870.9201, 173.7246
871.4022, 170.5684
871.8843, 186.9219
872.3665, 222.9551
872.8486, 267.1211
873.3307, 325.8613
873.8128, 375.3105
874.2949, 372.6914
874.7770, 343.8105
875.2592, 333.1836
875.7413, 366.6562
876.2234, 396.3691
876.7055, 394.2109
877.1876, 390.5156
877.6697, 420.9707
878.1519, 492.6055
878.6340, 559.7832
879.1161, 619.5352
879.5982, 665.4316
880.0803, 683.3242
880.5624, 684.7383
881.0446, 691.0898
881.5267, 707.9277
882.0088, 724.6230
882.4909, 719.6465
882.9730, 722.4648
883.4551, 760.8691
883.9373, 851.2715
884.4194, 919.0020
884.9015, 962.8672
885.3836, 995.9082
885.8657, 1029.785
886.3478, 1062.404
886.8300, 1079.908
887.3121, 1081.391
887.7942, 1100.770
888.2763, 1166.285
888.7584, 1255.031
889.2405, 1355.223
889.7227, 1467.402
890.2048, 1562.740
890.6869, 1638.303
891.1690, 1704.062
891.6511, 1760.732
892.1332, 1808.785
892.6154, 1857.242
893.0975, 1906.771
893.5796, 1962.861
894.0617, 2027.291
894.5438, 2100.199
895.0259, 2187.635
895.5081, 2286.705
895.9902, 2375.316
896.4723, 2442.793
896.9544, 2508.439
897.4365, 2571.967
897.9186, 2640.053
898.4008, 2742.730
898.8829, 2879.662
899.3650, 2992.332
899.8471, 3042.277
900.3292, 3074.773
900.8113, 3137.166
901.2935, 3222.564
901.7756, 3317.125
902.2577, 3407.865
902.7398, 3515.840
903.2219, 3647.395
903.7040, 3792.506
904.1862, 3940.199
904.6683, 4090.701
905.1504, 4224.027
905.6325, 4334.125
906.1146, 4437.754
906.5967, 4553.666
907.0789, 4679.770
907.5610, 4814.170
908.0431, 4975.871
908.5252, 5105.438
909.0073, 5154.896
909.4894, 5188.604
909.9716, 5268.846
910.4537, 5409.457
910.9358, 5521.221
911.4179, 5598.230
911.9000, 5663.268
912.3821, 5737.270
912.8643, 5815.303
913.3464, 5885.361
913.8285, 5944.900
914.3106, 6014.412
914.7927, 6125.246
915.2748, 6229.098
915.7570, 6288.936
916.2391, 6299.604
916.7212, 6362.105
917.2033, 6490.072
917.6854, 6605.021
918.1675, 6642.531
918.6497, 6637.410
919.1318, 6669.305
919.6139, 6730.102
920.0960, 6775.191
920.5781, 6754.703
921.0602, 6740.635
921.5424, 6784.818
922.0245, 6866.049
922.5066, 6892.910
922.9887, 6849.555
923.4708, 6807.592
923.9529, 6782.582
924.4351, 6779.215
924.9172, 6826.510
925.3993, 6904.248
925.8814, 6954.812
926.3635, 6947.160
926.8456, 6920.465
927.3278, 6887.223
927.8099, 6846.992
928.2920, 6796.900
928.7741, 6727.076
929.2562, 6679.607
929.7383, 6661.977
930.2205, 6655.854
930.7026, 6653.211
931.1847, 6641.846
931.6668, 6584.229
932.1489, 6465.422
932.6310, 6354.334
933.1132, 6310.561
933.5953, 6277.795
934.0774, 6209.545
934.5595, 6096.863
935.0416, 5989.799
935.5237, 5882.139
936.0059, 5798.508
936.4880, 5787.520
936.9701, 5805.863
937.4522, 5726.945
937.9343, 5560.574
938.4164, 5413.334
938.8986, 5377.314
939.3807, 5338.414
939.8628, 5219.729
940.3449, 5039.816
940.8270, 4908.432
941.3091, 4837.537
941.7913, 4773.531
942.2734, 4704.625
942.7555, 4624.791
943.2376, 4500.992
943.7197, 4353.693
944.2018, 4240.197
944.6840, 4218.980
945.1661, 4191.254
945.6482, 4119.842
946.1303, 4016.762
946.6124, 3900.807
947.0945, 3773.658
947.5767, 3619.938
948.0588, 3428.025
948.5409, 3250.555
949.0230, 3182.486
949.5051, 3166.088
949.9872, 3081.871
950.4694, 2903.045
950.9515, 2740.920
951.4336, 2666.594
951.9157, 2609.135
952.3978, 2518.779
952.8799, 2391.531
953.3621, 2295.070
953.8442, 2233.797
954.3263, 2177.021
954.8084, 2098.775
955.2905, 2015.295
955.7726, 1964.680
956.2548, 1936.795
956.7369, 1886.689
957.2190, 1755.273
957.7011, 1642.168
958.1832, 1585.203
958.6653, 1564.441
959.1475, 1534.834
959.6296, 1497.752
960.1117, 1460.352
960.5938, 1427.123
961.0759, 1390.285
961.5580, 1322.414
962.0402, 1247.209
962.5223, 1206.182
963.0044, 1242.650
963.4865, 1252.330
963.9686, 1199.264
964.4507, 1131.039
964.9329, 1086.406
965.4150, 1061.930
965.8971, 1031.088
966.3792, 994.6562
966.8613, 963.4180
967.3434, 937.7227
967.8256, 926.3867
968.3077, 957.8516
968.7898, 1030.207
969.2719, 1048.129
969.7540, 943.3691
970.2361, 854.2695
970.7183, 838.0469
971.2004, 869.3320
971.6825, 843.0137
972.1646, 766.5742
972.6467, 702.2852
973.1288, 682.9414
973.6110, 679.0020
974.0931, 680.7988
974.5752, 678.6621
975.0573, 653.4648
975.5394, 575.4297
976.0215, 526.2617
976.5037, 521.1211
976.9858, 525.1328
977.4679, 491.1953
977.9500, 429.1484
978.4321, 374.3535
978.9142, 330.9863
979.3964, 300.0898
979.8785, 289.3594
980.3606, 286.4941
980.8427, 287.8359
981.3248, 295.0664
981.8069, 278.0566
982.2891, 230.1484
982.7712, 179.5195
983.2533, 137.6445
983.7354, 105.9238
984.2175, 92.83984
984.6996, 92.40039
985.1818, 84.22070
985.6639, 38.82617
986.1460, 7.654297
986.6281, 20.54297
987.1102, 48.93359
987.5923, 51.43945
988.0745, 24.67383
988.5566, 7.054688
989.0387, 45.43555
989.5208, 67.60742
990.0029, 22.43750
990.4850, 46.41016
990.9672, 71.38086
991.4493, 27.39648
991.9314, 9.525391
992.4135, 13.32227
992.8956, 12.48633
993.3777, 21.55273
993.8599, 39.15820
994.3420, 52.65430
994.8241, 62.05664
995.3062, 67.76758
995.7883, 66.55664
996.2704, 63.69336
996.7526, 67.43164
997.2347, 74.29102
997.7168, 70.62891
998.1990, 41.51562
998.6811, 27.67578
999.1632, 41.29297
999.6453, 65.33789
1000.127, 74.08984
1000.610, 67.87109
1001.092, 44.85352
1001.574, 0.5292970
1002.056, 41.58984
1002.538, 62.05664
1003.020, 68.03906
1003.502, 62.97461
1003.984, 46.38281
1004.466, 33.47656
1004.949, 24.03125
1005.431, 13.02344
1005.913, 12.70117
1006.395, 36.09961
1006.877, 16.32031
1007.359, 34.52734
1007.841, 68.95312
1008.323, 53.48047
1008.806, 34.06836
1009.288, 15.79688
1009.770, 6.080078
1010.252, 26.45508
1010.734, 74.92969
1011.216, 96.25977
1011.698, 75.43164
1012.180, 43.29883
1012.662, 27.59961
1013.145, 18.08984
1013.627, 1.777344
1014.109, 27.52930
1014.591, 47.80664
1015.073, 59.66602
1015.555, 58.40430
1016.037, 31.42188
1016.519, 10.44336
1017.002, 23.67773
1017.484, 12.55664
1017.966, 4.376953
1018.448, 28.21680
1018.930, 43.82031
1019.412, 36.44727
1019.894, 17.61328
1020.376, 10.41992
1020.858, 15.11328
1021.341, 32.50000
1021.823, 68.54102
1022.305, 93.17773
1022.787, 58.66797
1023.269, 5.212891
1023.751, 57.53125
1024.233, 91.84570
1024.715, 112.2031
1025.198, 97.44336
1025.680, 97.00977
1026.162, 146.4258
1026.644, 230.8516
1027.126, 247.1562
1027.608, 203.0449
1028.090, 177.8477
1028.572, 231.4590
1029.054, 299.6680
1029.536, 345.4707
1030.019, 371.3477
1030.501, 382.6445
1030.983, 378.6934
1031.465, 364.5605
1031.947, 340.3457
1032.429, 310.2676
1032.911, 279.5645
1033.393, 247.9551
1033.876, 210.9141
1034.358, 168.2383
1034.840, 135.2012
1035.322, 116.4805
1035.804, 113.7344
1036.286, 136.2637
1036.768, 175.3281
1037.250, 171.9707
1037.733, 127.7188
1038.215, 88.30859
1038.697, 68.60547
1039.179, 65.23828
1039.661, 83.82227
1040.143, 112.2695
1040.625, 132.0977
1041.107, 133.9570
1041.589, 140.5801
1042.072, 158.6953
1042.554, 165.8945
1043.036, 119.6367
1043.518, 50.82617
1044.000, 45.35938
1044.482, 103.0879
1044.964, 155.2051
1045.446, 161.3457
1045.928, 162.2871
1046.411, 184.4219
1046.893, 212.4453
1047.375, 185.7812
1047.857, 105.3672
1048.339, 63.41016
1048.821, 96.86523
1049.303, 146.2949
1049.785, 153.6484
1050.268, 138.0781
1050.750, 121.8340
1051.232, 106.6641
1051.714, 98.68164
1052.196, 102.2812
1052.678, 103.8320
1053.160, 91.09961
1053.642, 70.45117
1054.125, 62.52734
1054.607, 64.41406
1055.089, 63.41602
1055.571, 47.17383
1056.053, 36.47461
1056.535, 45.01562
1057.017, 59.10156
1057.499, 57.02344
1057.981, 38.97852
1058.464, 13.75781
1058.946, 19.03320
1059.428, 43.78711
1059.910, 43.42969
1060.392, 31.43555
1060.874, 25.64258
1061.356, 30.56055
1061.838, 0.9980470
1062.320, 89.33789
1062.803, 164.7969
1063.285, 196.3848
1063.767, 196.0508
1064.249, 178.2422
1064.731, 152.6035
1065.213, 142.2754
1065.695, 171.1328
1066.177, 189.8711
1066.660, 165.3027
1067.142, 139.6621
1067.624, 159.4531
1068.106, 225.4688
1068.588, 249.6172
1069.070, 228.5938
1069.552, 195.5723
1070.034, 155.3828
1070.516, 129.7910
1070.999, 144.6680
1071.481, 192.8691
1071.963, 232.5137
1072.445, 267.3105
1072.927, 278.7051
1073.409, 259.1855
1073.891, 227.5840
1074.373, 207.3828
1074.855, 194.2383
1075.338, 181.2129
1075.820, 163.9883
1076.302, 159.0625
1076.784, 169.8809
1077.266, 196.7734
1077.748, 241.5078
1078.230, 302.5547
1078.712, 401.2324
1079.195, 522.5586
1079.677, 570.1387
1080.159, 429.6855
1080.641, 284.7559
1081.123, 227.4980
1081.605, 231.3789
1082.087, 256.8398
1082.569, 312.0645
1083.052, 346.4160
1083.534, 354.6621
1084.016, 358.4609
1084.498, 385.1973
1084.980, 412.5312
1085.462, 410.1406
1085.944, 380.0508
1086.426, 357.1387
1086.908, 354.7812
1087.391, 341.3223
1087.873, 300.1113
1088.355, 259.8320
1088.837, 285.7930
1089.319, 353.6309
1089.801, 399.6230
1090.283, 405.4590
1090.765, 408.0059
1091.248, 438.1934
1091.730, 453.3867
1092.212, 417.9922
1092.694, 340.4004
1093.176, 323.0332
1093.658, 361.9961
1094.140, 402.9082
1094.622, 420.8594
1095.104, 426.2012
1095.587, 421.5684
1096.069, 410.3086
1096.551, 397.4629
1097.033, 382.5762
1097.515, 366.7617
1097.997, 346.6230
1098.479, 340.6113
1098.961, 375.4414
1099.443, 428.0879
1099.926, 478.3242
1100.408, 520.4121
1100.890, 529.2480
1101.372, 467.3574
1101.854, 420.4082
1102.336, 414.1738
1102.818, 420.9668
1103.300, 389.4043
1103.783, 334.5410
1104.265, 300.3516
1104.747, 300.8242
1105.229, 295.4863
1105.711, 254.5156
1106.193, 212.5000
1106.675, 188.2305
1107.157, 184.3828
1107.640, 209.6172
1108.122, 256.1562
1108.604, 287.9844
1109.086, 275.2695
1109.568, 262.9277
1110.050, 292.0703
1110.532, 337.7695
1111.014, 360.4434
1111.496, 351.7051
1111.979, 345.6074
1112.461, 341.7383
1112.943, 342.6270
1113.425, 355.7168
1113.907, 368.2617
1114.389, 355.5957
1114.871, 328.2637
1115.353, 330.6973
1115.835, 409.7207
1116.318, 440.0254
1116.800, 392.7891
1117.282, 318.0098
1117.764, 277.6445
1118.246, 262.3574
1118.728, 253.3730
1119.210, 248.3984
1119.692, 237.0723
1120.175, 202.7832
1120.657, 177.1953
1121.139, 173.4062
1121.621, 183.7012
1122.103, 188.0703
1122.585, 186.5137
1123.067, 178.6836
1123.549, 161.5938
1124.031, 148.7461
1124.514, 157.1113
1124.996, 164.7090
1125.478, 151.7734
1125.960, 117.9512
1126.442, 95.73438
1126.924, 85.02539
1127.406, 97.37305
1127.888, 167.3281
1128.370, 232.4902
1128.853, 238.8984
1129.335, 205.9746
1129.817, 163.1250
1130.299, 94.20703
1130.781, 80.32617
1131.263, 135.5488
1131.745, 189.6602
1132.227, 173.2578
1132.710, 125.6484
1133.192, 91.96484
1133.674, 74.16016
1134.156, 67.34180
1134.638, 72.87891
1135.120, 88.35156
1135.602, 117.9961
1136.084, 147.7012
1136.567, 158.8164
1137.049, 154.1367
1137.531, 134.0195
1138.013, 96.97656
1138.495, 71.67773
1138.977, 76.07031
1139.459, 84.30859
1139.941, 87.31445
1140.423, 88.03516
1140.906, 96.38672
1141.388, 110.3066
1141.870, 123.1934
1142.352, 136.4219
1142.834, 139.2188
1143.316, 115.9473
1143.798, 90.21680
1144.280, 78.66797
1144.762, 80.94531
1145.245, 83.80859
1145.727, 87.60352
1146.209, 92.94727
1146.691, 103.2891
1147.173, 111.9473
1147.655, 111.8164
1148.137, 108.5879
1148.619, 111.2500
1149.102, 121.8770
1149.584, 124.6426
1150.066, 118.6016
1150.548, 108.0605
1151.030, 91.71289
1151.512, 75.86914
1151.994, 65.27148
1152.476, 60.18164
1152.958, 60.26562
1153.441, 65.55469
1153.923, 78.83984
1154.405, 103.9414
1154.887, 122.9941
1155.369, 111.8848
1155.851, 85.94922
1156.333, 62.47070
1156.815, 42.98242
1157.297, 26.44336
1157.780, 12.26758
1158.262, 0.3007810
1158.744, 10.83008
1159.226, 17.01367
1159.708, 8.267578
1160.190, 9.154297
1160.672, 25.67188
1161.154, 40.98242
1161.637, 43.85742
1162.119, 21.00781
1162.601, 6.732422
1163.083, 24.29883
1163.565, 53.59961
1164.047, 23.06836
1164.529, 39.99219
1165.011, 56.85547
1165.494, 35.06055
1165.976, 95.63867
1166.458, 71.94336
1166.940, 26.37305
1167.422, 12.58594
1167.904, 40.03711
1168.386, 4.757813
1168.868, 77.20508
1169.350, 128.7227
1169.833, 74.44141
1170.315, 26.46875
1170.797, 28.23438
1171.279, 52.12891
1171.761, 74.94531
1172.243, 96.47266
1172.725, 119.2715
1173.207, 142.8672
1173.689, 156.3887
1174.172, 136.2363
1174.654, 121.5234
1175.136, 153.5762
1175.618, 196.9336
1176.100, 179.9512
1176.582, 102.9492
1177.064, 65.75977
1177.546, 81.76953
1178.029, 110.0586
1178.511, 125.7480
1178.993, 136.1484
1179.475, 138.6836
1179.957, 140.1914
1180.439, 176.3066
1180.921, 251.4062
1181.403, 273.3184
1181.885, 211.0430
1182.368, 141.5742
1182.850, 144.1934
1183.332, 169.2051
1183.814, 165.3477
1184.296, 132.5684
1184.778, 146.5508
1185.260, 214.3242
1185.742, 259.5625
1186.224, 249.1738
1186.707, 216.9961
1187.189, 182.3730
1187.671, 156.4961
1188.153, 160.3965
1188.635, 206.8203
1189.117, 207.0977
1189.599, 151.0977
1190.081, 108.2422
1190.564, 122.3203
1191.046, 156.7539
1191.528, 176.9531
1192.010, 184.2891
1192.492, 178.9121
1192.974, 151.5605
1193.456, 141.8555
1193.938, 154.8770
1194.421, 160.8320
1194.903, 128.7012
1195.385, 85.16406
1195.867, 60.05078
1196.349, 52.14258
1196.831, 59.78711
1197.313, 95.51758
1197.795, 116.7695
1198.277, 119.5527
1198.760, 115.9785
1199.242, 111.6074
1199.724, 110.5859
1200.206, 125.8730
1200.688, 151.1758
1201.170, 156.9609
1201.652, 126.8125
1202.134, 101.2441
1202.616, 83.65234
1203.099, 74.86719
1203.581, 79.45898
1204.063, 91.96094
1204.545, 106.8359
1205.027, 122.0449
1205.509, 119.7285
1205.991, 83.29492
1206.473, 65.35742
1206.956, 81.87695
1207.438, 107.1172
1207.920, 100.6230
1208.402, 81.76953
1208.884, 86.80273
1209.366, 120.8652
1209.848, 122.8066
1210.330, 67.44727
1210.813, 25.50391
1211.295, 19.62891
1211.777, 30.34180
1212.259, 27.31836
1212.741, 20.53320
1213.223, 18.64453
1213.705, 40.61328
1214.187, 60.49414
1214.669, 77.42383
1215.151, 83.37305
1215.634, 62.51953
1216.116, 34.09961
1216.598, 25.98047
1217.080, 42.29492
1217.562, 98.02930
1218.044, 218.4629
1218.526, 294.1973
1219.008, 307.8125
1219.491, 296.8398
1219.973, 268.7676
1220.455, 240.5938
1220.937, 257.4062
1221.419, 296.9473
1221.901, 316.2500
1222.383, 297.6230
1222.865, 268.8105
1223.348, 226.2285
1223.830, 187.8184
1224.312, 165.5781
1224.794, 155.6191
1225.276, 156.9707
1225.758, 164.1934
1226.240, 164.4590
1226.722, 151.6445
1227.204, 137.9102
1227.687, 125.5332
1228.169, 107.5645
1228.651, 69.09375
1229.133, 27.10742
1229.615, 14.97852
1230.097, 23.61328
1230.579, 26.97852
1231.061, 9.003906
1231.543, 7.132813
1232.026, 26.99609
1232.508, 47.88281
1232.990, 49.88672
1233.472, 41.81250
1233.954, 33.62891
1234.436, 26.70898
1234.918, 24.86914
1235.400, 32.45312
1235.883, 32.42969
1236.365, 18.27930
1236.847, 13.00000
1237.329, 54.64258
1237.811, 107.0117
1238.293, 120.3496
1238.775, 99.97852
1239.257, 86.06055
1239.740, 84.47656
1240.222, 83.92578
1240.704, 83.44922
1241.186, 81.53125
1241.668, 80.57812
1242.150, 74.68164
1242.632, 48.25195
1243.114, 7.746094
1243.596, 0.7460940
1244.078, 41.45508
1244.561, 58.29102
1245.043, 35.49414
1245.525, 4.267578
1246.007, 12.08594
1246.489, 13.18750
1246.971, 13.83789
1247.453, 62.32422
1247.936, 75.37891
1248.418, 44.47852
1248.900, 44.71289
1249.382, 98.29688
1249.864, 151.8184
1250.346, 139.3750
1250.828, 110.9980
1251.310, 118.1602
1251.792, 154.2461
1252.275, 162.5430
1252.757, 142.9082
1253.239, 111.7891
1253.721, 63.62305
1254.203, 21.20703
1254.685, 4.466797
1255.167, 4.488281
1255.649, 26.51758
1256.131, 63.43359
1256.614, 82.24414
1257.096, 83.42578
1257.578, 68.03906
1258.060, 26.15430
1258.542, 1.753906
1259.024, 35.93750
1259.506, 77.87305
1259.988, 50.05469
1260.471, 1.810547
1260.953, 0.0000000E+00
##END=



