##NAMES=Lorenzenite
##RRUFFID=R130051
##IDEAL CHEMISTRY=Na_2_Ti_2_O_3_(Si_2_O_6_)
##LOCALITY=Mont Saint-Hilaire, Rouville RCM, Monteregie, Quebec, Canada
##OWNER=RRUFF
##SOURCE=Don Doell
##DESCRIPTION=A jumbled mass of colorless hair-like crystals associated with ??? and ???
##STATUS=The identification of this mineral is not yet confirmed.
##URL=rruff.info/R130051
139.8933, 0.0000000E+00
140.3755, 3.6470001E-03
140.8576, 7.8475997E-02
141.3397, 0.1583710
141.8218, 0.1935730
142.3039, 0.1761320
142.7860, 0.1589810
143.2681, 0.2482600
143.7503, 0.5333400
144.2324, 1.440018
144.7145, 2.322876
145.1966, 2.448639
145.6787, 1.855576
146.1608, 1.231888
146.6430, 1.336884
147.1251, 2.310303
147.6072, 3.022675
148.0893, 2.995422
148.5714, 2.693054
149.0535, 2.286041
149.5357, 1.943558
150.0178, 1.656647
150.4999, 1.376328
150.9820, 1.053879
151.4641, 0.9254000
151.9462, 1.059738
152.4284, 1.296783
152.9105, 1.517700
153.3926, 1.673050
153.8747, 1.754364
154.3568, 1.737244
154.8389, 1.511459
155.3211, 1.329788
155.8032, 1.145889
156.2853, 1.026611
156.7674, 1.085587
157.2495, 1.391602
157.7316, 1.884979
158.2138, 2.239182
158.6959, 2.394974
159.1780, 2.708954
159.6601, 3.336487
160.1422, 4.240082
160.6243, 4.853760
161.1065, 4.992249
161.5886, 4.928085
162.0707, 5.266663
162.5528, 5.786407
163.0349, 6.556732
163.5170, 7.671799
163.9991, 8.789841
164.4813, 9.665955
164.9634, 9.751907
165.4455, 9.304214
165.9276, 9.069092
166.4097, 9.143311
166.8918, 9.427658
167.3740, 9.930420
167.8561, 10.75517
168.3382, 11.39688
168.8203, 11.37892
169.3024, 11.07076
169.7845, 11.03998
170.2667, 11.19882
170.7488, 11.52524
171.2309, 11.62331
171.7130, 11.48828
172.1951, 11.09448
172.6772, 10.36116
173.1594, 9.428131
173.6415, 8.474625
174.1236, 7.584778
174.6057, 6.765762
175.0878, 6.088867
175.5699, 5.866898
176.0521, 5.423904
176.5342, 4.390198
177.0163, 3.023071
177.4984, 1.785828
177.9805, 1.025497
178.4626, 0.7452090
178.9448, 0.4249420
179.4269, 4.0848002E-02
179.9090, 0.4167940
180.3911, 0.4738160
180.8732, 0.1730350
181.3553, 0.1238100
181.8375, 0.2204590
182.3196, 0.2105710
182.8017, 8.6150996E-02
183.2838, 0.3245540
183.7659, 0.6756290
184.2480, 0.7096860
184.7301, 0.4754790
185.2123, 0.2866520
185.6944, 0.4693450
186.1765, 1.097839
186.6586, 1.435455
187.1407, 1.282227
187.6228, 0.9927830
188.1050, 0.8563230
188.5871, 0.8986510
189.0692, 0.8931730
189.5513, 0.5636600
190.0334, 7.8093998E-02
190.5155, 0.5824430
190.9977, 0.7887730
191.4798, 0.8846890
191.9619, 1.101456
192.4440, 1.487030
192.9261, 1.879211
193.4082, 2.210861
193.8904, 2.457977
194.3725, 2.427261
194.8546, 1.789337
195.3367, 0.8766480
195.8188, 0.3892520
196.3009, 0.5297850
196.7831, 0.7788240
197.2652, 0.8184970
197.7473, 0.8065490
198.2294, 0.6307830
198.7115, 1.0849000E-02
199.1936, 0.8892670
199.6758, 0.9305420
200.1579, 0.4472500
200.6400, 1.923233
201.1221, 2.646408
201.6042, 2.873413
202.0863, 3.247101
202.5685, 4.311142
203.0506, 6.014801
203.5327, 7.450623
204.0148, 8.307053
204.4969, 9.195770
204.9790, 10.48129
205.4612, 11.99890
205.9433, 13.34753
206.4254, 14.14427
206.9075, 14.35254
207.3896, 14.68784
207.8717, 15.13004
208.3539, 15.73074
208.8360, 16.60095
209.3181, 17.66422
209.8002, 18.73643
210.2823, 19.64906
210.7644, 20.37364
211.2466, 21.14844
211.7287, 22.56812
212.2108, 23.49498
212.6929, 23.53230
213.1750, 22.66623
213.6571, 21.00252
214.1393, 18.55177
214.6214, 15.15254
215.1035, 12.09660
215.5856, 9.334610
216.0677, 6.859055
216.5498, 4.612061
217.0320, 2.624969
217.5141, 0.9777220
217.9962, 0.2438050
218.4783, 0.9982450
218.9604, 1.397293
219.4425, 1.052200
219.9247, 0.7145540
220.4068, 0.9629520
220.8889, 1.754776
221.3710, 2.519150
221.8531, 2.785843
222.3352, 2.497833
222.8174, 2.036835
223.2995, 1.263580
223.7816, 0.4196470
224.2637, 0.3295590
224.7458, 0.9745640
225.2279, 1.557449
225.7100, 2.109589
226.1922, 2.622055
226.6743, 3.081116
227.1564, 3.284210
227.6385, 3.557602
228.1206, 4.362503
228.6027, 5.740433
229.0849, 6.943359
229.5670, 7.248871
230.0491, 6.943466
230.5312, 6.835587
231.0133, 7.075043
231.4954, 7.557724
231.9776, 8.264008
232.4597, 9.240784
232.9418, 10.10893
233.4239, 10.66696
233.9060, 10.94893
234.3881, 10.95689
234.8703, 10.63547
235.3524, 10.07346
235.8345, 9.266800
236.3166, 8.092896
236.7987, 7.217072
237.2808, 7.251358
237.7630, 7.675262
238.2451, 7.950653
238.7272, 7.872208
239.2093, 7.665283
239.6914, 7.634293
240.1735, 7.748810
240.6557, 8.129105
241.1378, 8.925858
241.6199, 9.933075
242.1020, 10.96809
242.5841, 11.94980
243.0662, 13.03012
243.5484, 14.43814
244.0305, 16.15491
244.5126, 18.18674
244.9947, 20.83104
245.4768, 23.65378
245.9589, 26.24579
246.4410, 28.45641
246.9232, 30.49521
247.4053, 32.81290
247.8874, 35.60626
248.3695, 38.23280
248.8516, 40.51424
249.3337, 42.61588
249.8159, 44.64160
250.2980, 46.62895
250.7801, 48.56125
251.2622, 50.36932
251.7443, 51.80498
252.2264, 53.68539
252.7086, 56.48706
253.1907, 59.41599
253.6728, 62.11865
254.1549, 64.43089
254.6370, 66.14729
255.1191, 66.98434
255.6013, 66.96648
256.0834, 65.85431
256.5655, 63.02599
257.0476, 59.74980
257.5297, 56.84254
258.0118, 54.51961
258.4940, 52.44926
258.9761, 50.17984
259.4582, 47.37201
259.9403, 45.27907
260.4224, 44.09027
260.9045, 43.28484
261.3867, 42.66089
261.8688, 42.13120
262.3509, 41.60719
262.8330, 40.95639
263.3151, 40.05820
263.7972, 39.50435
264.2794, 39.31369
264.7615, 39.37335
265.2436, 39.68719
265.7257, 40.21419
266.2078, 40.84503
266.6899, 41.46475
267.1721, 42.04068
267.6542, 42.83749
268.1363, 43.92456
268.6184, 45.11723
269.1005, 46.51189
269.5826, 47.97778
270.0648, 49.13351
270.5469, 49.62643
271.0290, 49.42444
271.5111, 49.38461
271.9932, 49.82864
272.4753, 50.08736
272.9575, 49.81499
273.4396, 49.11099
273.9217, 48.28555
274.4038, 47.54730
274.8859, 46.87720
275.3680, 46.04637
275.8501, 44.74045
276.3322, 43.62595
276.8144, 43.01408
277.2965, 42.79204
277.7786, 42.63557
278.2607, 42.34882
278.7428, 41.97092
279.2249, 41.76050
279.7071, 41.69016
280.1892, 41.83833
280.6713, 42.28961
281.1534, 42.97244
281.6355, 43.69398
282.1176, 44.32640
282.5998, 45.04633
283.0819, 46.37727
283.5640, 48.67097
284.0461, 50.81490
284.5282, 52.57504
285.0103, 54.05524
285.4925, 55.40585
285.9746, 56.67935
286.4567, 57.82695
286.9388, 58.74817
287.4209, 59.39963
287.9030, 59.99417
288.3852, 60.45250
288.8673, 60.91116
289.3494, 61.58980
289.8315, 62.54721
290.3136, 63.52652
290.7957, 64.19298
291.2779, 64.49396
291.7600, 64.86232
292.2421, 65.05574
292.7242, 65.49455
293.2063, 66.76521
293.6884, 68.92998
294.1706, 71.21710
294.6527, 72.90540
295.1348, 73.97595
295.6169, 75.17380
296.0990, 76.78256
296.5811, 78.34016
297.0633, 79.48267
297.5454, 80.20552
298.0275, 80.71281
298.5096, 81.09546
298.9917, 81.36813
299.4738, 81.66827
299.9560, 82.10939
300.4381, 82.47359
300.9202, 82.68404
301.4023, 82.72507
301.8844, 82.55325
302.3665, 82.17015
302.8487, 81.51590
303.3308, 80.46530
303.8129, 78.82503
304.2950, 77.13016
304.7771, 75.82504
305.2592, 74.68190
305.7414, 73.02621
306.2235, 70.49602
306.7056, 67.47354
307.1877, 64.72449
307.6698, 62.27252
308.1519, 60.00987
308.6341, 57.90146
309.1162, 55.89015
309.5983, 53.98462
310.0804, 52.24130
310.5625, 50.65511
311.0446, 49.20497
311.5268, 47.82234
312.0089, 46.34850
312.4910, 44.63466
312.9731, 43.02251
313.4552, 41.93459
313.9373, 41.43831
314.4195, 41.11971
314.9016, 40.59865
315.3837, 39.89279
315.8658, 39.32628
316.3479, 38.91867
316.8300, 38.63449
317.3121, 38.36679
317.7943, 38.14529
318.2764, 38.29424
318.7585, 39.12193
319.2406, 40.51595
319.7227, 41.78142
320.2048, 42.97177
320.6870, 44.04207
321.1691, 44.74542
321.6512, 45.15187
322.1333, 45.84641
322.6154, 47.21365
323.0975, 48.95543
323.5797, 50.26248
324.0618, 50.98946
324.5439, 51.70375
325.0260, 52.67662
325.5081, 53.76651
325.9902, 54.70145
326.4724, 55.38797
326.9545, 55.94167
327.4366, 56.59732
327.9187, 57.44693
328.4008, 57.92688
328.8829, 58.09753
329.3651, 57.77844
329.8472, 56.60378
330.3293, 54.48969
330.8114, 52.00154
331.2935, 49.68951
331.7756, 47.61287
332.2578, 45.42949
332.7399, 42.93703
333.2220, 40.36417
333.7041, 37.74995
334.1862, 35.23650
334.6683, 33.23331
335.1505, 32.11246
335.6326, 31.66725
336.1147, 30.72319
336.5968, 28.88397
337.0789, 27.15617
337.5610, 25.90747
338.0432, 25.01697
338.5253, 24.29526
339.0074, 23.68927
339.4895, 23.18459
339.9716, 22.70967
340.4537, 22.18654
340.9359, 21.75189
341.4180, 21.40633
341.9001, 21.21771
342.3822, 21.34875
342.8643, 21.81163
343.3464, 22.28307
343.8286, 22.33827
344.3107, 21.79887
344.7928, 21.34201
345.2749, 21.03271
345.7570, 20.76714
346.2391, 20.56168
346.7213, 20.37318
347.2034, 19.97784
347.6855, 19.15187
348.1676, 17.86464
348.6497, 16.66396
349.1318, 15.61301
349.6140, 14.57098
350.0961, 13.46538
350.5782, 12.33130
351.0603, 11.27573
351.5424, 10.38577
352.0245, 9.583298
352.5067, 8.508804
352.9888, 6.629608
353.4709, 5.141769
353.9530, 4.433914
354.4351, 4.098007
354.9172, 3.618271
355.3994, 2.822342
355.8815, 1.970871
356.3636, 1.520615
356.8457, 1.795700
357.3278, 1.818176
357.8099, 1.397552
358.2920, 0.8903350
358.7741, 0.5358280
359.2563, 0.3518830
359.7384, 0.2198180
360.2205, 1.3412000E-02
360.7026, 0.2883450
361.1847, 0.4589840
361.6668, 0.2962040
362.1490, 0.2195280
362.6311, 0.5006870
363.1132, 0.9625240
363.5953, 1.221710
364.0774, 1.022736
364.5595, 0.5156710
365.0417, 0.3581240
365.5238, 1.003799
366.0059, 1.377289
366.4880, 1.011520
366.9701, 0.4998170
367.4522, 0.5800170
367.9344, 1.440491
368.4165, 2.432419
368.8986, 2.412308
369.3807, 0.7644960
369.8628, 0.2083130
370.3449, 2.0477001E-02
370.8271, 0.5122220
371.3092, 0.8692170
371.7913, 1.035446
372.2734, 1.105728
372.7555, 1.166565
373.2376, 1.214584
373.7198, 1.132355
374.2019, 0.8007810
374.6840, 0.4773860
375.1661, 0.2517090
375.6482, 8.7357000E-02
376.1303, 0.1007690
376.6125, 0.3872220
377.0946, 0.6431580
377.5767, 0.4725340
378.0588, 0.4165800
378.5409, 0.8966060
379.0230, 0.1768490
379.5052, 0.7757420
379.9873, 1.174011
380.4694, 0.8655400
380.9515, 0.3686070
381.4336, 0.1590730
381.9157, 0.2324070
382.3979, 0.4618070
382.8800, 1.061813
383.3621, 1.529373
383.8442, 1.464081
384.3263, 0.9815060
384.8084, 0.5050810
385.2906, 0.2839050
385.7727, 0.2248230
386.2548, 9.8862000E-02
386.7369, 0.1294400
387.2190, 0.2932130
387.7011, 0.1260530
388.1833, 0.1177670
388.6654, 8.9870002E-03
389.1475, 0.7504880
389.6296, 1.478485
390.1117, 1.403290
390.5938, 0.6470640
391.0760, 0.2199100
391.5581, 0.6332400
392.0402, 1.287415
392.5223, 1.240341
393.0044, 0.4248660
393.4865, 0.1306300
393.9687, 0.2509770
394.4508, 1.052841
394.9329, 1.429550
395.4150, 1.240952
395.8971, 0.8874660
396.3792, 0.7323150
396.8614, 0.7427370
397.3435, 0.5561830
397.8256, 0.1923070
398.3077, 0.8372190
398.7898, 0.7794040
399.2719, 0.2042240
399.7540, 0.1864010
400.2361, 2.0584000E-02
400.7183, 0.5197600
401.2004, 0.9141080
401.6825, 1.070618
402.1646, 1.267334
402.6467, 1.551941
403.1288, 1.902390
403.6110, 2.358200
404.0931, 2.909180
404.5752, 3.369781
405.0573, 3.492981
405.5394, 3.175125
406.0215, 3.034134
406.5037, 3.116302
406.9858, 3.306442
407.4679, 3.563049
407.9500, 3.881210
408.4321, 4.282471
408.9142, 4.795685
409.3964, 5.376770
409.8785, 5.829956
410.3606, 6.014191
410.8427, 6.245224
411.3248, 6.578934
411.8069, 6.952728
412.2891, 7.308609
412.7712, 7.630814
413.2533, 7.937668
413.7354, 8.254044
414.2175, 8.585419
414.6996, 8.908493
415.1818, 9.049362
415.6639, 9.346359
416.1460, 10.05776
416.6281, 11.04346
417.1102, 11.94598
417.5923, 12.51971
418.0745, 12.86722
418.5566, 13.36433
419.0387, 14.10965
419.5208, 14.79243
420.0029, 15.25687
420.4850, 15.62706
420.9672, 16.00941
421.4493, 16.44083
421.9314, 16.89929
422.4135, 17.31239
422.8956, 17.66832
423.3777, 18.14664
423.8599, 18.92256
424.3420, 19.70734
424.8241, 20.13531
425.3062, 20.30420
425.7883, 20.66205
426.2704, 21.65118
426.7526, 22.89658
427.2347, 23.75743
427.7168, 24.14842
428.1989, 24.65836
428.6810, 25.64586
429.1631, 26.94296
429.6453, 28.10565
430.1274, 29.04691
430.6095, 30.07132
431.0916, 31.55980
431.5737, 33.20596
432.0558, 34.28072
432.5380, 34.52847
433.0201, 34.64140
433.5022, 35.44373
433.9843, 37.04240
434.4664, 38.57762
434.9485, 40.12813
435.4307, 41.50038
435.9128, 42.53119
436.3949, 43.23714
436.8770, 43.68199
437.3591, 43.79912
437.8412, 43.70076
438.3234, 43.92612
438.8055, 44.74396
439.2876, 45.53886
439.7697, 46.18565
440.2518, 46.86453
440.7339, 47.86249
441.2160, 49.16486
441.6982, 50.35745
442.1803, 50.93192
442.6624, 50.79918
443.1445, 50.68320
443.6266, 50.57544
444.1087, 50.50157
444.5909, 50.54698
445.0730, 50.61331
445.5551, 50.57896
446.0372, 50.38229
446.5193, 49.98990
447.0014, 49.26225
447.4836, 48.02365
447.9657, 47.03726
448.4478, 46.81572
448.9299, 46.65746
449.4120, 46.09277
449.8941, 45.08167
450.3763, 43.88084
450.8584, 42.45863
451.3405, 40.96442
451.8226, 40.24329
452.3047, 40.67628
452.7868, 40.90572
453.2690, 39.85565
453.7511, 38.19939
454.2332, 36.84612
454.7153, 36.07927
455.1974, 35.46494
455.6795, 34.55988
456.1617, 33.46838
456.6438, 32.76309
457.1259, 32.68404
457.6080, 32.83389
458.0901, 32.81801
458.5722, 32.67419
459.0544, 32.24695
459.5365, 31.08908
460.0186, 29.93033
460.5007, 29.40016
460.9828, 29.48610
461.4649, 29.90567
461.9471, 30.54546
462.4292, 31.32942
462.9113, 31.95284
463.3934, 32.43385
463.8755, 32.74545
464.3576, 32.65279
464.8398, 32.51630
465.3219, 32.72852
465.8040, 33.35094
466.2861, 34.14319
466.7682, 34.83031
467.2503, 35.38591
467.7325, 36.13956
468.2146, 37.17792
468.6967, 38.32762
469.1788, 39.55969
469.6609, 40.87022
470.1430, 42.26367
470.6252, 43.74573
471.1073, 45.27298
471.5894, 46.73598
472.0715, 48.07523
472.5536, 49.61252
473.0357, 51.81548
473.5179, 53.85477
474.0000, 55.12851
474.4821, 55.76489
474.9642, 56.41359
475.4463, 57.52101
475.9284, 58.87071
476.4106, 60.00304
476.8927, 60.89186
477.3748, 61.70335
477.8569, 62.55186
478.3390, 63.33661
478.8211, 63.90508
479.3033, 64.22118
479.7854, 64.42618
480.2675, 64.73802
480.7496, 64.94667
481.2317, 64.64893
481.7138, 63.76714
482.1959, 62.52153
482.6780, 61.02977
483.1602, 59.29695
483.6423, 57.65109
484.1244, 56.24242
484.6065, 54.75746
485.0886, 52.89334
485.5707, 50.89442
486.0529, 49.19792
486.5350, 47.96057
487.0171, 47.02440
487.4992, 46.17715
487.9813, 45.57002
488.4634, 44.60158
488.9456, 42.63208
489.4277, 40.97296
489.9098, 40.51854
490.3919, 40.88840
490.8740, 41.13641
491.3561, 40.67302
491.8383, 39.77631
492.3204, 39.18929
492.8025, 38.94955
493.2846, 38.92091
493.7667, 39.43500
494.2488, 39.89313
494.7310, 39.84752
495.2131, 39.30078
495.6952, 38.62225
496.1773, 38.18861
496.6594, 37.81032
497.1415, 36.96420
497.6237, 35.61050
498.1058, 33.91997
498.5879, 31.80565
499.0700, 29.44603
499.5521, 27.19563
500.0342, 25.07249
500.5164, 23.04167
500.9985, 20.97893
501.4806, 19.01375
501.9627, 17.39397
502.4448, 16.18550
502.9269, 15.11359
503.4091, 13.92213
503.8912, 12.59821
504.3733, 11.40063
504.8554, 10.22612
505.3375, 9.305267
505.8196, 8.845963
506.3018, 8.624908
506.7839, 8.312393
507.2660, 7.807053
507.7481, 7.262726
508.2302, 6.910294
508.7123, 6.812103
509.1945, 6.581940
509.6766, 6.093307
510.1587, 5.548309
510.6408, 5.030365
511.1229, 4.542709
511.6050, 4.033722
512.0872, 3.441132
512.5693, 2.864120
513.0514, 2.487442
513.5335, 2.322189
514.0156, 2.381287
514.4977, 2.939575
514.9799, 3.402649
515.4620, 3.257751
515.9441, 2.574326
516.4262, 1.813248
516.9083, 0.9863280
517.3904, 0.3022160
517.8726, 9.7580001E-02
518.3547, 0.3191990
518.8368, 0.5381160
519.3189, 0.6009220
519.8010, 0.5731050
520.2831, 0.6141820
520.7653, 0.6911770
521.2474, 0.7580110
521.7295, 0.8140720
522.2116, 0.9230960
522.6937, 1.162308
523.1758, 1.518661
523.6580, 1.919815
524.1401, 2.276367
524.6222, 2.582352
525.1043, 3.017944
525.5864, 3.794968
526.0685, 4.501343
526.5507, 4.946869
527.0328, 5.418808
527.5149, 6.209045
527.9970, 7.280243
528.4791, 8.300461
528.9612, 8.971893
529.4434, 9.379166
529.9255, 9.964294
530.4076, 10.86943
530.8897, 11.60690
531.3718, 11.66060
531.8539, 11.59076
532.3361, 12.07869
532.8182, 13.29706
533.3003, 14.46350
533.7824, 14.97432
534.2645, 15.10910
534.7466, 15.47079
535.2288, 16.13670
535.7109, 16.87546
536.1930, 17.66054
536.6751, 18.37596
537.1572, 18.39565
537.6393, 17.20956
538.1215, 16.01971
538.6036, 15.24323
539.0857, 14.60825
539.5678, 13.73604
540.0499, 12.56995
540.5320, 11.38452
541.0142, 10.44037
541.4963, 9.700607
541.9784, 9.039398
542.4605, 8.637741
542.9426, 8.129929
543.4247, 7.354568
543.9068, 6.479370
544.3889, 5.634720
544.8710, 4.868698
545.3531, 4.308517
545.8353, 4.255585
546.3174, 4.642960
546.7995, 4.646759
547.2816, 4.092499
547.7637, 3.434860
548.2458, 2.888626
548.7280, 2.441116
549.2101, 2.078705
549.6922, 1.794189
550.1743, 1.610107
550.6564, 1.613892
551.1385, 1.714996
551.6207, 1.696976
552.1028, 1.512070
552.5849, 1.350723
553.0670, 1.447784
553.5491, 1.804108
554.0313, 1.740738
554.5134, 0.7729340
554.9955, 3.2104000E-02
555.4776, 2.0996001E-02
555.9597, 0.2535250
556.4418, 0.4335940
556.9240, 0.4001460
557.4061, 0.2607120
557.8882, 0.1108400
558.3703, 5.4108001E-02
558.8524, 8.7112002E-02
559.3345, 0.1053310
559.8167, 0.2980650
560.2988, 0.5344240
560.7809, 0.6757510
561.2630, 0.4839940
561.7451, 0.1314390
562.2272, 0.7431640
562.7094, 0.9929120
563.1915, 0.9400630
563.6736, 0.7009740
564.1557, 0.2216490
564.6378, 8.9065999E-02
565.1199, 0.1611180
565.6021, 0.8278050
566.0842, 1.234596
566.5663, 1.342583
567.0484, 1.250565
567.5305, 0.7382810
568.0126, 0.1630710
568.4948, 5.8060002E-02
568.9769, 0.4671630
569.4590, 0.9301530
569.9411, 1.004845
570.4232, 0.7166900
570.9053, 0.5641630
571.3875, 0.7391590
571.8696, 0.7889860
572.3517, 0.5354160
572.8338, 0.1996460
573.3159, 3.5232998E-02
573.7980, 0.1319580
574.2802, 0.1287080
574.7623, 5.6274001E-02
575.2444, 0.3285680
575.7265, 0.1916050
576.2086, 0.5053560
576.6907, 0.9588470
577.1729, 0.5257570
577.6550, 0.2258150
578.1371, 0.3156130
578.6192, 0.4468230
579.1013, 1.080154
579.5834, 1.211014
580.0656, 1.021408
580.5477, 0.5494540
581.0298, 0.1049040
581.5119, 0.4696350
581.9940, 0.1871190
582.4761, 0.4914700
582.9583, 0.7042690
583.4404, 5.4629999E-03
583.9225, 0.4972690
584.4046, 0.8398740
584.8867, 0.9520340
585.3688, 0.6447300
585.8510, 5.2184999E-02
586.3331, 0.4432070
586.8152, 0.5845640
587.2973, 0.5115200
587.7794, 0.5652620
588.2615, 0.7836300
588.7437, 0.8527070
589.2258, 0.5773470
589.7079, 0.2599640
590.1900, 0.2170100
590.6721, 0.4035340
591.1542, 0.5286100
591.6364, 0.3939820
592.1185, 0.2575230
592.6006, 0.3870540
593.0827, 0.7003630
593.5648, 0.9560090
594.0469, 1.068588
594.5291, 1.072327
595.0112, 0.9938350
595.4933, 0.7840730
595.9754, 0.7260590
596.4575, 1.109695
596.9396, 1.303406
597.4218, 0.8156280
597.9039, 9.7838998E-02
598.3860, 0.1686860
598.8681, 0.2394870
599.3502, 0.9090730
599.8323, 1.358749
600.3145, 1.597977
600.7966, 1.851349
601.2787, 2.133408
601.7608, 2.414032
602.2429, 2.739624
602.7250, 3.030167
603.2072, 3.112808
603.6893, 2.870087
604.1714, 2.708542
604.6535, 2.812088
605.1356, 3.131592
605.6177, 3.674377
606.0999, 4.406067
606.5820, 5.111404
607.0641, 5.656143
607.5462, 6.023453
608.0283, 6.122559
608.5104, 5.288132
608.9926, 5.164215
609.4747, 6.454178
609.9568, 7.928131
610.4389, 8.691284
610.9210, 8.819931
611.4031, 8.915466
611.8853, 9.360916
612.3674, 10.00107
612.8495, 10.42607
613.3316, 10.59174
613.8137, 11.17480
614.2958, 12.56087
614.7780, 14.12901
615.2601, 15.30029
615.7422, 16.12253
616.2243, 16.79456
616.7064, 17.13135
617.1885, 17.56418
617.6707, 18.43340
618.1528, 19.57487
618.6349, 20.70503
619.1170, 21.73714
619.5991, 22.58078
620.0812, 23.07047
620.5634, 23.18272
621.0455, 23.83807
621.5276, 25.46654
622.0097, 27.16872
622.4918, 28.83629
622.9739, 30.39027
623.4561, 31.65753
623.9382, 32.65581
624.4203, 33.77258
624.9024, 35.40233
625.3845, 37.40173
625.8666, 39.38290
626.3487, 41.32944
626.8308, 42.96965
627.3129, 44.18323
627.7950, 45.06674
628.2772, 45.69830
628.7593, 45.97273
629.2414, 46.45580
629.7235, 47.38417
630.2056, 48.44875
630.6877, 49.54678
631.1699, 50.58719
631.6520, 51.41121
632.1341, 51.94041
632.6162, 52.28242
633.0983, 52.71579
633.5804, 53.41386
634.0626, 53.47572
634.5447, 52.45732
635.0268, 51.27380
635.5089, 50.29617
635.9910, 49.42664
636.4731, 48.51935
636.9553, 47.49829
637.4374, 46.39641
637.9195, 45.15260
638.4016, 43.87741
638.8837, 42.81729
639.3658, 41.99924
639.8480, 41.08911
640.3301, 39.85463
640.8122, 38.34163
641.2943, 36.76213
641.7764, 34.97154
642.2585, 33.33635
642.7407, 31.75949
643.2228, 30.47720
643.7049, 29.88237
644.1870, 29.68761
644.6691, 29.19290
645.1512, 28.01740
645.6334, 26.48750
646.1155, 24.99335
646.5976, 23.53688
647.0797, 22.57594
647.5618, 22.37390
648.0439, 22.25725
648.5261, 21.79604
649.0082, 21.00891
649.4903, 19.94456
649.9724, 18.33125
650.4545, 16.87708
650.9366, 15.90692
651.4188, 15.21466
651.9009, 14.60728
652.3830, 14.04028
652.8651, 13.50339
653.3472, 12.98445
653.8293, 12.49817
654.3115, 12.11708
654.7936, 11.92921
655.2757, 11.62981
655.7578, 11.06845
656.2399, 10.43951
656.7220, 9.804779
657.2042, 9.210526
657.6863, 8.816498
658.1684, 8.816391
658.6505, 8.829926
659.1326, 8.480011
659.6147, 7.858444
660.0969, 7.167053
660.5790, 6.445267
661.0611, 5.833786
661.5432, 5.475922
662.0253, 5.344635
662.5074, 5.146805
662.9896, 4.850357
663.4717, 4.529480
663.9538, 4.101959
664.4359, 3.720139
664.9180, 3.549500
665.4001, 3.548828
665.8823, 3.540375
666.3644, 3.455231
666.8465, 3.229691
667.3286, 2.655838
667.8107, 1.747589
668.2928, 0.9654390
668.7750, 0.3504030
669.2571, 4.3258999E-02
669.7392, 0.3027340
670.2213, 1.068832
670.7034, 1.635849
671.1855, 2.096497
671.6677, 2.227798
672.1498, 1.697418
672.6319, 0.9520720
673.1140, 0.4279480
673.5961, 0.2005770
674.0782, 0.1950070
674.5604, 0.4145050
675.0425, 0.7109990
675.5246, 0.5071410
676.0067, 0.3792880
676.4888, 0.9401090
676.9709, 0.7931520
677.4531, 0.4695890
677.9352, 0.4110870
678.4173, 0.5376590
678.8994, 0.5611570
679.3815, 0.3135220
679.8636, 7.8125000E-02
680.3458, 8.5114002E-02
680.8279, 0.1877440
681.3100, 0.1422880
681.7921, 8.3786003E-02
682.2742, 0.3569950
682.7563, 0.5729980
683.2385, 0.7390750
683.7206, 0.8900600
684.2027, 1.001434
684.6848, 1.148529
685.1669, 1.213959
685.6490, 1.430145
686.1312, 2.085922
686.6133, 3.014328
687.0954, 3.701324
687.5775, 3.792526
688.0596, 3.867111
688.5417, 4.390823
689.0239, 5.295364
689.5060, 6.572205
689.9881, 8.207413
690.4702, 9.616974
690.9523, 10.30083
691.4344, 10.42342
691.9166, 10.83211
692.3987, 11.78734
692.8808, 12.61908
693.3629, 13.00964
693.8450, 13.53143
694.3271, 14.65080
694.8093, 16.18723
695.2914, 17.64233
695.7735, 18.80641
696.2556, 19.78674
696.7377, 20.62329
697.2198, 21.37138
697.7020, 22.32904
698.1841, 23.56210
698.6662, 24.57840
699.1483, 24.97864
699.6304, 24.92911
700.1125, 25.05624
700.5947, 25.63034
701.0768, 25.96487
701.5589, 25.94768
702.0410, 25.78705
702.5231, 25.61891
703.0052, 25.40874
703.4874, 25.03798
703.9695, 24.44958
704.4516, 23.77448
704.9337, 23.18262
705.4158, 22.65247
705.8979, 22.08435
706.3801, 21.47673
706.8622, 20.77736
707.3442, 19.92499
707.8264, 18.97649
708.3085, 18.06308
708.7906, 17.14584
709.2727, 16.35373
709.7548, 15.64264
710.2369, 15.10301
710.7191, 15.03030
711.2012, 15.10165
711.6833, 14.65483
712.1654, 13.46294
712.6475, 12.21530
713.1296, 11.82028
713.6118, 12.10031
714.0939, 12.04216
714.5760, 11.58012
715.0581, 11.01729
715.5402, 10.43356
716.0223, 9.889389
716.5045, 9.495361
716.9866, 9.266876
717.4687, 9.080124
717.9508, 9.003708
718.4329, 8.884537
718.9150, 8.568054
719.3972, 8.193039
719.8793, 7.984741
720.3614, 7.986267
720.8435, 8.018707
721.3256, 7.942688
721.8077, 7.747116
722.2899, 7.360535
722.7720, 6.756195
723.2541, 6.147415
723.7362, 5.565567
724.2183, 5.059082
724.7004, 4.719299
725.1826, 4.542847
725.6647, 4.458313
726.1468, 4.492691
726.6289, 4.582779
727.1110, 4.711075
727.5931, 4.880981
728.0753, 5.183105
728.5574, 5.561523
729.0395, 5.739563
729.5216, 5.471405
730.0037, 4.951660
730.4858, 4.594910
730.9680, 4.402969
731.4501, 4.395630
731.9322, 4.698975
732.4143, 4.891953
732.8964, 4.479584
733.3785, 3.638443
733.8607, 3.302811
734.3428, 3.935867
734.8249, 4.351563
735.3070, 4.152344
735.7891, 3.767166
736.2712, 3.411880
736.7534, 3.195023
737.2355, 3.335358
737.7176, 3.971375
738.1997, 4.671875
738.6818, 4.711456
739.1639, 4.174759
739.6461, 3.887009
740.1282, 3.955276
740.6103, 4.085068
741.0924, 4.171524
741.5745, 4.175232
742.0566, 3.966522
742.5388, 3.439835
743.0209, 3.083221
743.5030, 3.145630
743.9851, 3.185287
744.4672, 2.795181
744.9493, 2.245224
745.4315, 2.101288
745.9136, 2.482590
746.3957, 2.899521
746.8778, 2.828140
747.3599, 2.432693
747.8420, 2.199066
748.3242, 2.128571
748.8063, 2.198776
749.2884, 2.480865
749.7705, 2.693069
750.2526, 2.435883
750.7347, 1.669800
751.2169, 1.207581
751.6990, 1.245834
752.1811, 1.314316
752.6632, 1.313660
753.1453, 1.290558
753.6274, 1.323792
754.1096, 1.405319
754.5917, 1.418335
755.0738, 1.243484
755.5559, 1.074173
756.0380, 1.283203
756.5201, 1.754349
757.0023, 1.928574
757.4844, 1.681656
757.9665, 1.387512
758.4486, 1.335556
758.9307, 1.428467
759.4128, 1.318695
759.8950, 0.6885680
760.3771, 0.4765780
760.8592, 1.002319
761.3413, 1.564529
761.8234, 1.801971
762.3055, 1.844284
762.7877, 1.955002
763.2698, 2.210602
763.7519, 2.492310
764.2340, 2.812607
764.7161, 3.065628
765.1982, 2.972488
765.6804, 2.579330
766.1625, 2.263794
766.6446, 2.172684
767.1267, 2.159790
767.6088, 2.024048
768.0909, 1.755402
768.5731, 1.617340
769.0552, 1.714966
769.5373, 1.770859
770.0194, 1.666367
770.5015, 1.544296
770.9836, 1.559525
771.4658, 1.675476
771.9479, 1.676712
772.4300, 1.386429
772.9121, 1.096619
773.3942, 0.9952850
773.8763, 1.024353
774.3585, 1.165283
774.8406, 1.372116
775.3227, 1.451767
775.8048, 1.282791
776.2869, 0.9878690
776.7690, 0.8298340
777.2512, 0.8788600
777.7333, 0.8415370
778.2154, 0.6350710
778.6975, 0.4645540
779.1796, 0.5184480
779.6617, 0.6418150
780.1439, 0.4991460
780.6260, 4.4661999E-02
781.1081, 0.2325440
781.5902, 0.5006560
782.0723, 1.260696
782.5544, 1.492020
783.0366, 1.344971
783.5187, 1.047775
784.0008, 0.6978300
784.4829, 0.4253850
784.9650, 0.3719180
785.4471, 0.4749910
785.9293, 0.5651400
786.4114, 0.6427460
786.8935, 0.6528930
787.3756, 0.5521390
787.8577, 0.4695280
788.3398, 0.5209660
788.8220, 0.7000120
789.3041, 0.9241490
789.7861, 1.220596
790.2682, 1.528381
790.7504, 1.869766
791.2325, 2.197357
791.7146, 2.531326
792.1967, 2.825058
792.6788, 2.953369
793.1609, 2.866074
793.6431, 2.725403
794.1252, 2.698074
794.6073, 2.701874
795.0894, 2.533569
795.5715, 2.219452
796.0536, 2.023544
796.5358, 2.060699
797.0179, 2.198639
797.5000, 2.295380
797.9821, 2.353973
798.4642, 2.056915
798.9464, 1.080795
799.4285, 0.3564000
799.9106, 0.3409730
800.3927, 0.4822540
800.8748, 0.2929990
801.3569, 0.1264190
801.8391, 0.2197110
802.3212, 0.4580540
802.8033, 1.050903
803.2854, 0.9792330
803.7675, 0.6680760
804.2496, 0.6669620
804.7318, 0.9323430
805.2139, 1.028015
805.6960, 0.7051090
806.1781, 0.2933200
806.6602, 0.4221800
807.1423, 1.031555
807.6245, 1.238449
808.1066, 0.9379580
808.5887, 0.5852050
809.0708, 0.3533330
809.5529, 0.2093510
810.0350, 0.1291200
810.5172, 0.1356810
810.9993, 4.3945000E-02
811.4814, 0.2223510
811.9635, 0.4875490
812.4456, 0.7206880
812.9277, 0.9190980
813.4099, 1.125809
813.8920, 1.302841
814.3741, 1.300934
814.8562, 0.9933170
815.3383, 0.5879520
815.8204, 0.2312320
816.3026, 3.9657999E-02
816.7847, 9.5717996E-02
817.2668, 5.3009000E-02
817.7489, 0.2218020
818.2310, 0.3155670
818.7131, 0.3102570
819.1953, 0.1323240
819.6774, 0.2625430
820.1595, 0.5982510
820.6416, 0.9149780
821.1237, 1.024780
821.6058, 0.6422730
822.0880, 0.2050170
822.5701, 0.2476500
823.0522, 0.7564240
823.5343, 1.176834
824.0164, 1.435806
824.4985, 1.541458
824.9807, 1.316803
825.4628, 1.062103
825.9449, 1.210464
826.4270, 1.679291
826.9091, 1.992111
827.3912, 1.871902
827.8734, 1.533539
828.3555, 1.236771
828.8376, 0.9807430
829.3197, 0.7293700
829.8018, 0.4801180
830.2839, 0.4111020
830.7661, 0.6498870
831.2482, 1.008011
831.7303, 1.193436
832.2124, 1.203857
832.6945, 1.036316
833.1766, 0.2288210
833.6588, 7.5911999E-02
834.1409, 0.9353330
834.6230, 2.071640
835.1051, 2.162994
835.5872, 1.421600
836.0693, 1.167984
836.5515, 2.209213
837.0336, 3.159790
837.5157, 3.206924
837.9978, 2.799911
838.4799, 2.321442
838.9620, 1.880783
839.4442, 1.608856
839.9263, 1.554092
840.4084, 1.648987
840.8905, 1.907227
841.3726, 2.259842
841.8547, 2.208511
842.3369, 1.711136
842.8190, 1.405334
843.3011, 1.548874
843.7832, 1.902267
844.2653, 2.253937
844.7474, 2.596741
845.2296, 2.581223
845.7117, 1.661774
846.1938, 1.188675
846.6759, 1.609314
847.1580, 2.182159
847.6401, 2.606720
848.1223, 2.791534
848.6044, 2.515900
849.0865, 1.553848
849.5686, 0.8947450
850.0507, 1.377319
850.5328, 2.177765
851.0150, 2.464172
851.4971, 2.371140
851.9792, 2.372345
852.4613, 2.593719
852.9434, 2.728668
853.4255, 2.448181
853.9077, 1.873947
854.3898, 1.289276
854.8719, 0.6921540
855.3540, 0.5658870
855.8361, 1.097458
856.3182, 1.753387
856.8004, 2.145523
857.2825, 2.275635
857.7646, 2.195175
858.2467, 1.781296
858.7288, 1.524887
859.2109, 1.401352
859.6931, 1.432922
860.1752, 1.860962
860.6573, 2.336258
861.1394, 2.406509
861.6215, 2.046234
862.1036, 1.765228
862.5858, 1.804581
863.0679, 1.950394
863.5500, 2.159210
864.0321, 2.328873
864.5142, 2.272629
864.9963, 2.032944
865.4785, 1.803894
865.9606, 1.673935
866.4427, 1.708420
866.9248, 2.094330
867.4069, 2.729355
867.8890, 3.086899
868.3712, 3.135223
868.8533, 3.015396
869.3354, 2.754517
869.8175, 2.402527
870.2996, 1.996140
870.7817, 1.534134
871.2639, 1.326569
871.7460, 1.505310
872.2280, 1.722412
872.7101, 1.998306
873.1923, 2.265060
873.6744, 2.579544
874.1565, 2.827637
874.6386, 2.703629
875.1207, 2.013901
875.6028, 1.352737
876.0850, 0.9582060
876.5671, 0.6552120
877.0492, 0.2297970
877.5313, 0.1421200
878.0134, 0.1460720
878.4955, 0.2573700
878.9777, 0.7923130
879.4598, 1.380188
879.9419, 1.799042
880.4240, 1.517090
880.9061, 0.7846220
881.3882, 0.4848630
881.8704, 0.7444920
882.3525, 1.222382
882.8346, 1.743744
883.3167, 2.171295
883.7988, 2.127975
884.2809, 1.487228
884.7631, 1.383560
885.2452, 2.108475
885.7273, 2.653732
886.2094, 2.668503
886.6915, 2.352219
887.1736, 1.750961
887.6558, 0.9086150
888.1379, 0.5246730
888.6200, 0.9295350
889.1021, 1.374680
889.5842, 1.871857
890.0663, 2.228195
890.5485, 2.255020
891.0306, 2.035416
891.5127, 1.733337
891.9948, 1.435776
892.4769, 1.304810
892.9590, 1.523972
893.4412, 1.915848
893.9233, 2.354340
894.4054, 2.801987
894.8875, 3.300751
895.3696, 3.784515
895.8517, 3.810104
896.3339, 2.953323
896.8160, 1.764999
897.2981, 1.363327
897.7802, 1.689514
898.2623, 2.246185
898.7444, 3.025024
899.2266, 3.578140
899.7087, 3.707626
900.1908, 3.451889
900.6729, 2.774826
901.1550, 1.634857
901.6371, 1.062637
902.1193, 1.424774
902.6014, 1.670227
903.0835, 1.614914
903.5656, 1.371582
904.0477, 0.8225860
904.5298, 0.1709590
905.0120, 2.7953999E-02
905.4941, 0.4824370
905.9762, 0.8801420
906.4583, 0.9078980
906.9404, 0.8299870
907.4225, 0.7605130
907.9047, 0.7092130
908.3868, 0.6164400
908.8689, 0.4991300
909.3510, 0.5190730
909.8331, 0.9211730
910.3152, 1.261627
910.7974, 0.8841550
911.2795, 0.2058260
911.7616, 0.1212460
912.2437, 0.5636600
912.7258, 0.7134250
913.2079, 0.1911320
913.6901, 0.4937130
914.1722, 0.7513890
914.6543, 0.5990450
915.1364, 4.7394000E-02
915.6185, 1.220276
916.1006, 1.893524
916.5828, 1.739944
917.0649, 1.360352
917.5470, 1.228882
918.0291, 1.286896
918.5112, 1.331085
918.9933, 1.452545
919.4755, 1.316589
919.9576, 0.6821440
920.4397, 0.1396330
920.9218, 7.5999997E-05
921.4039, 1.8661000E-02
921.8860, 0.1157990
922.3682, 0.3899690
922.8503, 0.4121400
923.3324, 0.1903230
923.8145, 0.6191410
924.2966, 0.4849850
924.7787, 0.2431340
925.2609, 0.1838230
925.7430, 0.3177490
926.2251, 0.6536250
926.7072, 1.202087
927.1893, 1.635727
927.6714, 1.649261
928.1536, 1.519501
928.6357, 1.460098
929.1178, 1.492798
929.5999, 1.673340
930.0820, 1.985016
930.5641, 2.333588
931.0463, 2.677017
931.5284, 2.920349
932.0105, 2.876480
932.4926, 2.599838
932.9747, 2.257446
933.4568, 1.873138
933.9390, 1.635757
934.4211, 1.614075
934.9032, 1.810211
935.3853, 2.292725
935.8674, 2.956345
936.3495, 3.022949
936.8317, 2.291901
937.3138, 1.769180
937.7959, 1.633072
938.2780, 1.566971
938.7601, 1.384399
939.2422, 1.170395
939.7244, 1.059097
940.2065, 1.029129
940.6886, 1.215408
941.1707, 1.953018
941.6528, 2.438980
942.1349, 2.305283
942.6171, 2.063812
943.0992, 2.085999
943.5813, 2.305008
944.0634, 2.492996
944.5455, 2.586929
945.0276, 2.726501
945.5098, 3.090714
945.9919, 3.382874
946.4740, 3.324280
946.9561, 3.119049
947.4382, 2.982468
947.9203, 2.989563
948.4025, 3.250122
948.8846, 3.935547
949.3667, 4.603439
949.8488, 4.696472
950.3309, 4.577957
950.8130, 4.838730
951.2952, 5.417740
951.7773, 5.965744
952.2594, 6.363022
952.7415, 6.723175
953.2236, 7.151428
953.7057, 7.620697
954.1879, 8.102417
954.6699, 8.591156
955.1520, 9.045532
955.6342, 9.457199
956.1163, 9.671082
956.5984, 9.581039
957.0805, 9.401016
957.5626, 9.503876
958.0447, 9.879242
958.5269, 9.990448
959.0090, 9.806519
959.4911, 9.566467
959.9732, 9.318390
960.4553, 9.037903
960.9374, 8.728348
961.4196, 8.362686
961.9017, 7.867371
962.3838, 7.247208
962.8659, 6.469147
963.3480, 5.147079
963.8301, 4.218262
964.3123, 4.035477
964.7944, 4.235229
965.2765, 4.662552
965.7586, 5.217255
966.2407, 5.511551
966.7228, 5.484131
967.2050, 5.226288
967.6871, 4.587051
968.1692, 3.904648
968.6513, 3.337570
969.1334, 2.880341
969.6155, 2.476059
970.0977, 2.141449
970.5798, 2.040146
971.0619, 2.445358
971.5440, 2.751831
972.0261, 2.357498
972.5082, 1.912140
972.9904, 2.352142
973.4725, 3.238678
973.9546, 3.467499
974.4367, 2.760559
974.9188, 1.965729
975.4009, 1.662552
975.8831, 1.737534
976.3652, 2.242523
976.8473, 2.941330
977.3294, 3.342529
977.8115, 3.407776
978.2936, 3.220703
978.7758, 2.823517
979.2579, 2.614731
979.7400, 3.232666
980.2221, 4.372711
980.7042, 5.108231
981.1863, 5.468124
981.6685, 5.361603
982.1506, 4.777985
982.6327, 4.576416
983.1148, 5.395447
983.5969, 6.556671
984.0790, 6.713654
984.5612, 5.859940
985.0433, 5.114227
985.5254, 4.459381
986.0075, 4.006195
986.4896, 3.749741
986.9717, 3.842072
987.4539, 4.549850
987.9360, 5.568008
988.4181, 5.889954
988.9002, 5.235458
989.3823, 4.876633
989.8644, 4.942123
990.3466, 5.053925
990.8287, 5.017593
991.3108, 5.066330
991.7929, 5.468185
992.2750, 6.165894
992.7571, 6.827057
993.2393, 7.801071
993.7214, 8.110947
994.2035, 6.922653
994.6856, 6.053741
995.1677, 6.843979
995.6498, 7.859100
996.1320, 7.217926
996.6141, 5.150558
997.0962, 3.948349
997.5783, 4.764969
998.0604, 5.266708
998.5425, 4.460800
999.0247, 3.590973
999.5068, 3.454056
999.9889, 3.740524
1000.471, 4.063339
1000.953, 4.315231
1001.435, 4.285172
1001.917, 3.753784
1002.399, 3.121155
1002.882, 2.466415
1003.364, 1.931473
1003.846, 1.776367
1004.328, 1.799683
1004.810, 1.538818
1005.292, 0.9204250
1005.774, 0.4217530
1006.256, 0.3609160
1006.739, 0.5091550
1007.221, 0.7969060
1007.703, 1.078934
1008.185, 1.152267
1008.667, 1.025696
1009.149, 0.7291410
1009.631, 0.2925110
1010.113, 6.8939000E-02
1010.595, 0.1056370
1011.078, 1.0300000E-02
1011.560, 8.5479997E-02
1012.042, 0.2548980
1012.524, 0.3396300
1013.006, 0.3317570
1013.488, 0.3141780
1013.970, 0.3235020
1014.452, 0.3348850
1014.935, 0.3677830
1015.417, 0.3450780
1015.899, 3.4118999E-02
1016.381, 0.6620940
1016.863, 1.030029
1017.345, 1.066818
1017.827, 0.9134830
1018.309, 0.6349330
1018.791, 0.3484340
1019.274, 0.2398830
1019.756, 0.2602390
1020.238, 8.7311000E-02
1020.720, 0.2676240
1021.202, 0.3128360
1021.684, 5.2124001E-02
1022.166, 0.4564210
1022.648, 0.7072910
1023.130, 0.7899930
1023.613, 0.6358640
1024.095, 0.2643280
1024.577, 1.9226000E-02
1025.059, 0.1191410
1025.541, 9.9701002E-02
1026.023, 0.8389740
1026.505, 1.381699
1026.987, 1.186234
1027.469, 0.7342380
1027.952, 0.9763030
1028.434, 1.960388
1028.916, 2.474915
1029.398, 2.427353
1029.880, 2.202713
1030.362, 1.758057
1030.844, 1.439133
1031.326, 1.571655
1031.809, 1.863586
1032.291, 1.672653
1032.773, 0.9022370
1033.255, 0.5092320
1033.737, 0.6596980
1034.219, 0.8105770
1034.701, 0.8257900
1035.183, 0.8846740
1035.666, 1.156113
1036.148, 1.518692
1036.630, 1.701981
1037.112, 1.660706
1037.594, 1.693848
1038.076, 1.884277
1038.558, 2.009811
1039.040, 2.035309
1039.522, 1.975845
1040.005, 1.831436
1040.487, 1.610748
1040.969, 1.275604
1041.451, 0.7340390
1041.933, 0.5469970
1042.415, 0.9805760
1042.897, 1.412430
1043.379, 1.941025
1043.861, 2.224930
1044.344, 1.771896
1044.826, 1.013687
1045.308, 0.9019010
1045.790, 1.656036
1046.272, 1.894119
1046.754, 0.9644780
1047.236, 0.2564390
1047.718, 0.1537320
1048.201, 0.3019100
1048.683, 0.5599980
1049.165, 0.8253940
1049.647, 0.9488680
1050.129, 0.8979490
1050.611, 0.8763890
1051.093, 0.8857570
1051.575, 0.9863280
1052.057, 1.237946
1052.540, 1.534409
1053.022, 1.874695
1053.504, 2.199936
1053.986, 2.373550
1054.468, 2.363525
1054.950, 2.320786
1055.432, 2.288300
1055.914, 2.252213
1056.396, 2.182709
1056.879, 2.148712
1057.361, 2.306625
1057.843, 2.498123
1058.325, 2.336258
1058.807, 1.794327
1059.289, 1.547699
1059.771, 2.169495
1060.253, 2.666733
1060.736, 2.517075
1061.218, 2.193832
1061.700, 2.110855
1062.182, 2.085571
1062.664, 1.631729
1063.146, 0.7405850
1063.628, 0.2891390
1064.110, 0.9774780
1064.593, 1.617752
1065.075, 1.791824
1065.557, 1.667343
1066.039, 1.026581
1066.521, 0.3507390
1067.003, 0.4756010
1067.485, 1.414688
1067.967, 2.179962
1068.449, 2.399200
1068.932, 2.400635
1069.414, 2.135239
1069.896, 1.889816
1070.378, 1.934418
1070.860, 2.122314
1071.342, 2.188766
1071.824, 2.134064
1072.306, 2.213760
1072.788, 2.743546
1073.271, 2.909546
1073.753, 1.927124
1074.235, 0.8905940
1074.717, 0.6034390
1075.199, 0.7512820
1075.681, 1.001144
1076.163, 1.226059
1076.645, 1.169220
1077.128, 0.5968780
1077.610, 0.2050480
1078.092, 0.4157100
1078.574, 0.7971340
1079.056, 1.310440
1079.538, 1.694626
1080.020, 1.469955
1080.502, 0.8148650
1080.984, 0.4288940
1081.467, 0.5487060
1081.949, 0.8629760
1082.431, 1.418777
1082.913, 1.905930
1083.395, 2.138153
1083.877, 2.215469
1084.359, 2.251938
1084.841, 2.237808
1085.323, 2.072098
1085.806, 1.703354
1086.288, 1.445267
1086.770, 1.387009
1087.252, 1.528732
1087.734, 2.074142
1088.216, 2.629990
1088.698, 3.012756
1089.180, 3.121811
1089.662, 2.649841
1090.145, 1.529251
1090.627, 0.8479160
1091.109, 1.375626
1091.591, 1.936478
1092.073, 1.903137
1092.555, 1.830704
1093.037, 2.395493
1093.519, 3.122849
1094.002, 3.092880
1094.484, 2.241714
1094.966, 1.495132
1095.448, 1.081955
1095.930, 0.8604740
1096.412, 0.9272770
1096.894, 1.025116
1097.376, 0.9160920
1097.859, 0.7599950
1098.341, 0.9499360
1098.823, 1.460495
1099.305, 1.884262
1099.787, 2.160110
1100.269, 2.275360
1100.751, 2.244919
1101.233, 2.024567
1101.715, 1.388290
1102.198, 0.7140810
1102.680, 0.4735870
1103.162, 0.5519410
1103.644, 0.4181210
1104.126, 0.1159670
1104.608, 0.5051420
1105.090, 0.7286220
1105.572, 0.6945500
1106.054, 0.2503200
1106.537, 0.3515780
1107.019, 1.160339
1107.501, 1.916458
1107.983, 1.930771
1108.465, 0.9748380
1108.947, 0.3223270
1109.429, 0.3436740
1109.911, 0.3059080
1110.394, 9.3337998E-02
1110.876, 0.4272310
1111.358, 0.4040680
1111.840, 0.1688230
1112.322, 9.5550999E-02
1112.804, 0.3968810
1113.286, 0.4772030
1113.768, 0.2302550
1114.250, 7.0099004E-02
1114.733, 0.6737820
1115.215, 0.9498140
1115.697, 0.3202360
1116.179, 0.4826660
1116.661, 0.5359190
1117.143, 3.1021001E-02
1117.625, 0.2558290
1118.107, 2.8229000E-02
1118.589, 0.2653960
1119.072, 0.4649660
1119.554, 0.5811160
1120.036, 0.5174560
1120.518, 0.5110320
1121.000, 0.8199460
1121.482, 1.300690
1121.964, 1.539520
1122.446, 1.525833
1122.929, 1.263733
1123.411, 0.5781860
1123.893, 0.2464290
1124.375, 0.4820710
1124.857, 0.9935910
1125.339, 1.699173
1125.821, 2.352570
1126.303, 2.533218
1126.786, 2.252060
1127.268, 1.575211
1127.750, 0.3824770
1128.232, 5.1743001E-02
1128.714, 0.9124600
1129.196, 1.421326
1129.678, 0.8054960
1130.160, 1.0925000E-02
1130.642, 0.1684720
1131.125, 0.9352110
1131.607, 1.000748
1132.089, 0.4238430
1132.571, 0.4050750
1133.053, 0.9953460
1133.535, 1.262207
1134.017, 0.9222720
1134.499, 0.6261440
1134.981, 0.8904570
1135.464, 1.427124
1135.946, 1.825958
1136.428, 2.044800
1136.910, 1.696289
1137.392, 0.9851680
1137.874, 1.053391
1138.356, 1.980927
1138.838, 2.743347
1139.321, 2.819839
1139.803, 2.503754
1140.285, 1.972122
1140.767, 1.410400
1141.249, 1.178635
1141.731, 1.170364
1142.213, 1.217407
1142.695, 1.257858
1143.177, 1.191422
1143.660, 0.9886320
1144.142, 0.6608280
1144.624, 7.3654003E-02
1145.106, 0.2851720
1145.588, 0.4098970
1146.070, 1.372375
1146.552, 1.610046
1147.034, 1.353973
1147.516, 1.042938
1147.999, 0.8046260
1148.481, 0.7306520
1148.963, 0.9007570
1149.445, 1.016113
1149.927, 0.8615420
1150.409, 0.6075900
1150.891, 0.2989040
1151.373, 1.9424001E-02
1151.856, 0.2300570
1152.338, 0.3545530
1152.820, 2.2629000E-02
1153.302, 0.8290250
1153.784, 1.198364
1154.266, 0.1372070
1154.748, 0.5833280
1155.230, 4.7667999E-02
1155.713, 0.6382140
1156.195, 0.8216250
1156.677, 0.7315830
1157.159, 0.6123960
1157.641, 0.5215910
1158.123, 0.6960910
1158.605, 1.461975
1159.087, 1.846664
1159.569, 1.316986
1160.052, 1.053116
1160.534, 1.654312
1161.016, 2.309937
1161.498, 2.445496
1161.980, 2.173264
1162.462, 1.714432
1162.944, 1.029205
1163.426, 0.7303620
1163.908, 0.9654690
1164.391, 1.272003
1164.873, 1.601028
1165.355, 1.849731
1165.837, 1.928940
1166.319, 2.013901
1166.801, 2.358994
1167.283, 2.848694
1167.765, 2.972809
1168.247, 2.703995
1168.730, 2.317322
1169.212, 1.839920
1169.694, 1.587753
1170.176, 1.647537
1170.658, 1.847717
1171.140, 2.085938
1171.622, 2.276520
1172.104, 2.181213
1172.587, 1.932770
1173.069, 2.279892
1173.551, 3.012527
1174.033, 2.885574
1174.515, 1.967651
1174.997, 1.668747
1175.479, 2.472656
1175.961, 3.305420
1176.443, 3.190186
1176.926, 2.765854
1177.408, 2.869278
1177.890, 3.145081
1178.372, 2.991745
1178.854, 2.641251
1179.336, 2.616211
1179.818, 2.948761
1180.300, 3.381546
1180.782, 3.845657
1181.265, 4.089005
1181.747, 3.793884
1182.229, 3.431549
1182.711, 3.309723
1183.193, 3.264389
1183.675, 2.991669
1184.157, 2.727036
1184.639, 3.013336
1185.122, 3.888245
1185.604, 4.600311
1186.086, 5.061005
1186.568, 5.236237
1187.050, 4.889633
1187.532, 4.521790
1188.014, 4.272278
1188.496, 4.161530
1188.979, 4.212524
1189.461, 4.390671
1189.943, 4.621826
1190.425, 4.937988
1190.907, 5.119522
1191.389, 5.079468
1191.871, 5.153122
1192.353, 5.451950
1192.835, 5.698547
1193.318, 5.751907
1193.800, 5.681854
1194.282, 5.532639
1194.764, 5.375504
1195.246, 5.549881
1195.728, 6.040634
1196.210, 6.345856
1196.692, 6.445755
1197.174, 6.508347
1197.657, 6.583008
1198.139, 6.781555
1198.621, 7.174820
1199.103, 7.679504
1199.585, 8.348663
1200.067, 8.922333
1200.549, 8.735565
1201.031, 8.108246
1201.514, 7.639389
1201.996, 7.420273
1202.478, 7.510788
1202.960, 7.868134
1203.442, 8.270966
1203.924, 8.607971
1204.406, 8.755692
1204.888, 8.534485
1205.370, 8.177490
1205.853, 7.864807
1206.335, 7.543640
1206.817, 6.952972
1207.299, 6.327423
1207.781, 6.384293
1208.263, 7.318481
1208.745, 7.929642
1209.227, 7.763351
1209.709, 7.482361
1210.192, 6.840897
1210.674, 6.610382
1211.156, 7.697189
1211.638, 8.867676
1212.120, 8.642487
1212.602, 7.485977
1213.084, 7.442703
1213.566, 8.871826
1214.049, 9.386856
1214.531, 8.689804
1215.013, 8.174927
1215.495, 8.142807
1215.977, 8.204025
1216.459, 8.154709
1216.941, 8.117310
1217.423, 8.285950
1217.906, 8.517456
1218.388, 8.254623
1218.870, 7.644501
1219.352, 7.511734
1219.834, 7.786835
1220.316, 7.849869
1220.798, 7.595016
1221.280, 7.353226
1221.762, 7.299698
1222.245, 7.430405
1222.727, 7.939072
1223.209, 8.429565
1223.691, 8.304184
1224.173, 7.987457
1224.655, 8.171127
1225.137, 8.581497
1225.619, 8.531647
1226.101, 7.985855
1226.584, 7.548645
1227.066, 7.536758
1227.548, 7.335419
1228.030, 6.366165
1228.512, 5.639648
1228.994, 5.875763
1229.476, 6.230652
1229.958, 5.654572
1230.441, 4.950165
1230.923, 5.896896
1231.405, 8.404205
1231.887, 9.115845
1232.369, 7.265289
1232.851, 5.928589
1233.333, 5.241180
1233.815, 5.092697
1234.297, 5.553040
1234.780, 6.081085
1235.262, 6.286896
1235.744, 6.331192
1236.226, 6.539566
1236.708, 6.797485
1237.190, 6.535950
1237.672, 5.888107
1238.154, 5.392166
1238.636, 5.112167
1239.119, 5.098694
1239.601, 5.307175
1240.083, 5.340652
1240.565, 4.913940
1241.047, 4.412109
1241.529, 4.114517
1242.011, 4.017563
1242.493, 4.282700
1242.975, 4.615997
1243.458, 4.652420
1243.940, 4.470978
1244.422, 4.290314
1244.904, 4.152908
1245.386, 4.046875
1245.868, 4.073837
1246.350, 3.939880
1246.832, 3.492569
1247.315, 3.011063
1247.797, 2.405380
1248.279, 2.019424
1248.761, 2.153214
1249.243, 2.610992
1249.725, 3.096268
1250.207, 3.586792
1250.689, 3.732544
1251.172, 3.511581
1251.654, 3.066010
1252.136, 2.385361
1252.618, 2.144928
1253.100, 2.543060
1253.582, 2.662582
1254.064, 1.833099
1254.546, 0.8439330
1255.028, 0.9181060
1255.510, 1.499359
1255.993, 1.616211
1256.475, 1.420517
1256.957, 0.9923250
1257.439, 0.5606840
1257.921, 0.6833500
1258.403, 1.360168
1258.885, 1.922272
1259.367, 2.137695
1259.850, 2.006897
1260.332, 1.172104
1260.814, 0.4640960
1261.296, 0.1801910
1261.778, 0.2692410
1262.260, 1.033844
1262.742, 1.935883
1263.224, 2.014709
1263.707, 1.402023
1264.189, 1.242554
1264.671, 1.727921
1265.153, 2.014832
1265.635, 2.075195
1266.117, 2.000946
1266.599, 1.776886
1267.081, 1.706451
1267.563, 1.986298
1268.046, 2.240738
1268.528, 1.994415
1269.010, 1.451141
1269.492, 1.056046
1269.974, 0.7549900
1270.456, 0.3479000
1270.938, 7.1579002E-02
1271.420, 0.2984620
1271.902, 0.2553710
1272.385, 0.2420200
1272.867, 1.265915
1273.349, 2.176468
1273.831, 2.680954
1274.313, 2.858353
1274.795, 2.698593
1275.277, 2.288467
1275.759, 1.420029
1276.242, 0.5421750
1276.724, 0.1276250
1277.206, 0.1340480
1277.688, 0.3783110
1278.170, 0.7353970
1278.652, 0.9175260
1279.134, 1.047760
1279.616, 0.9315640
1280.099, 0.4881740
1280.581, 0.1483000
1281.063, 4.2206001E-02
1281.545, 0.1055600
1282.027, 0.6239930
1282.509, 1.164658
1282.991, 0.8088680
1283.473, 0.3098140
1283.955, 8.1284001E-02
1284.438, 0.0000000E+00
##END=



