##NAMES=Lorenzenite
##RRUFFID=R060960
##IDEAL CHEMISTRY=Na_2_Ti_2_O_3_(Si_2_O_6_)
##LOCALITY=Khibiny Massif, Kola Peninsula, Russia
##OWNER=RRUFF
##SOURCE=Michael Scott
##DESCRIPTION=Dark brown prismatic single crystal
##STATUS=The identification of this mineral has been confirmed by X-ray diffraction and chemical analysis
##URL=rruff.info/R060960
##MEASURED CHEMISTRY=Na_2.00_(Ti_1.93_Nb^5+^_0.04_Fe^3+^_0.03_)_Σ=2_O_3_((Si_1.99_Al_0.01_)_Σ=2_O_6_) ; trace amounts of Ca
122.9694, 0.0000000E+00
123.4515, 1.149048
123.9336, 13.25598
124.4157, 39.07471
124.8979, 65.41907
125.3800, 79.02917
125.8621, 74.37122
126.3442, 59.47168
126.8263, 41.99634
127.3084, 22.49146
127.7905, 6.950562
128.2727, 1.273071
128.7548, 3.023682
129.2369, 7.3119998E-02
129.7190, 6.378418
130.2011, 17.03467
130.6832, 36.83362
131.1654, 67.87012
131.6475, 100.4937
132.1296, 119.5533
132.6117, 126.4102
133.0938, 141.0568
133.5759, 173.4635
134.0581, 221.0216
134.5402, 261.5271
135.0223, 291.0707
135.5044, 323.4313
135.9865, 383.5120
136.4686, 474.2471
136.9508, 566.3860
137.4329, 655.5034
137.9150, 746.5520
138.3971, 802.4753
138.8792, 813.7551
139.3613, 794.5930
139.8434, 783.3594
140.3256, 780.4128
140.8077, 774.5779
141.2898, 762.9749
141.7719, 752.3918
142.2540, 713.9751
142.7361, 631.2380
143.2183, 515.8115
143.7004, 441.6699
144.1825, 422.1726
144.6646, 427.6714
145.1467, 437.3496
145.6288, 451.8889
146.1110, 470.6628
146.5931, 501.7952
147.0752, 548.2048
147.5573, 559.6404
148.0394, 513.4355
148.5215, 449.3777
149.0037, 404.1536
149.4858, 385.2842
149.9679, 374.7703
150.4500, 370.6404
150.9321, 374.5776
151.4142, 379.4724
151.8964, 394.8164
152.3785, 442.2107
152.8606, 513.6533
153.3427, 613.2307
153.8248, 720.9700
154.3069, 817.8247
154.7890, 883.3180
155.2712, 924.6953
155.7533, 939.0769
156.2354, 931.8279
156.7175, 915.3269
157.1996, 854.5806
157.6817, 799.5859
158.1639, 765.4280
158.6460, 764.0293
159.1281, 769.1147
159.6102, 773.0203
160.0923, 777.3860
160.5744, 788.7454
161.0566, 809.4846
161.5387, 837.7229
162.0208, 872.3188
162.5029, 924.4478
162.9850, 993.7400
163.4671, 1054.458
163.9493, 1110.782
164.4314, 1176.080
164.9135, 1252.922
165.3956, 1339.071
165.8777, 1432.250
166.3598, 1539.155
166.8420, 1647.313
167.3241, 1748.678
167.8062, 1843.621
168.2883, 1937.009
168.7704, 2032.270
169.2525, 2129.215
169.7346, 2228.085
170.2168, 2317.754
170.6989, 2414.547
171.1810, 2532.949
171.6631, 2675.664
172.1452, 2858.063
172.6273, 3101.203
173.1095, 3373.031
173.5916, 3631.929
174.0737, 3892.925
174.5558, 4096.564
175.0379, 4189.614
175.5201, 4193.608
176.0022, 4087.151
176.4843, 3804.180
176.9664, 3375.390
177.4485, 2901.936
177.9306, 2396.091
178.4128, 1895.664
178.8949, 1458.318
179.3770, 1094.258
179.8591, 792.6047
180.3412, 545.3872
180.8233, 359.8745
181.3055, 212.3442
181.7876, 103.4568
182.2697, -7.870527
182.7518, 34.13949
183.2339, 57.12978
183.7160, 62.12236
184.1982, -4.788095
184.6803, 21.14923
185.1624, 9.877494
185.6445, -2.920017
186.1266, 36.08520
186.6087, -20.36688
187.0908, 17.81683
187.5730, 18.22339
188.0551, 35.91975
188.5372, 16.17725
189.0193, 7.998423
189.5014, 37.27047
189.9835, 45.80567
190.4657, 70.75317
190.9478, 247.0632
191.4299, 499.1956
191.9120, 677.1997
192.3941, 771.9690
192.8762, 836.2285
193.3584, 943.2507
193.8405, 1091.679
194.3226, 1195.770
194.8047, 1197.359
195.2868, 1113.610
195.7689, 1102.174
196.2511, 1180.308
196.7332, 1285.890
197.2153, 1346.717
197.6974, 1365.307
198.1795, 1318.996
198.6616, 1176.748
199.1438, 937.2764
199.6259, 724.0107
200.1080, 536.8066
200.5901, 375.4326
201.0722, 239.0542
201.5543, 125.2651
202.0364, 45.65820
202.5186, 4.7851998E-02
203.0007, 13.88965
203.4828, 33.16309
203.9649, 147.4834
204.4470, 317.2939
204.9291, 518.1069
205.4113, 752.4390
205.8934, 1011.623
206.3755, 1296.532
206.8576, 1611.596
207.3397, 1922.792
207.8218, 2223.340
208.3040, 2522.607
208.7861, 2845.938
209.2682, 3191.784
209.7503, 3556.099
210.2324, 3926.761
210.7145, 4283.627
211.1967, 4715.753
211.6788, 5229.427
212.1609, 5822.029
212.6430, 6493.896
213.1251, 7256.911
213.6072, 8064.350
214.0894, 8977.263
214.5715, 10168.97
215.0536, 10913.24
215.5357, 11157.76
216.0178, 10904.91
216.4999, 10070.31
216.9820, 8424.171
217.4642, 6597.193
217.9463, 4943.762
218.4284, 3447.726
218.9105, 2219.155
219.3926, 1298.921
219.8747, 669.3091
220.3569, 176.7422
220.8390, -117.1749
221.3211, 208.4364
221.8032, 388.2298
222.2853, 430.0410
222.7674, -79.40256
223.2496, 122.9832
223.7317, 40.10103
224.2138, -54.47869
224.6959, 248.0959
225.1780, -181.1686
225.6601, 115.1077
226.1423, 121.7596
226.6244, 260.9664
227.1065, 113.1417
227.5886, 77.11719
228.0707, 225.8940
228.5528, 396.7622
229.0350, 584.0273
229.5171, 780.1719
229.9992, 988.9873
230.4813, 1205.527
230.9634, 1425.285
231.4455, 1650.430
231.9276, 1898.588
232.4098, 2184.302
232.8919, 2479.786
233.3740, 2765.675
233.8561, 3106.342
234.3382, 3318.855
234.8203, 3373.524
235.3025, 3268.610
235.7846, 3019.472
236.2667, 2561.920
236.7488, 2021.730
237.2309, 1518.416
237.7130, 1037.096
238.1952, 628.7559
238.6773, 300.7676
239.1594, 52.17822
239.6415, 126.3623
240.1236, 220.3145
240.6057, 257.4062
241.0879, 267.8110
241.5700, 264.1431
242.0521, 209.6416
242.5342, 90.99170
243.0163, 95.96680
243.4984, 306.2183
243.9806, 518.7573
244.4627, 775.8530
244.9448, 1120.927
245.4269, 1556.157
245.9090, 2077.905
246.3911, 2690.751
246.8732, 3395.690
247.3554, 4177.348
247.8375, 5051.811
248.3196, 5988.752
248.8017, 6966.856
249.2838, 8004.990
249.7659, 9013.261
250.2481, 9961.375
250.7302, 10838.68
251.2123, 11778.34
251.6944, 12778.69
252.1765, 13843.76
252.6586, 14985.35
253.1408, 16182.66
253.6229, 17505.78
254.1050, 18983.80
254.5871, 20604.71
255.0692, 22394.61
255.5513, 24477.46
256.0334, 26604.73
256.5156, 28629.46
256.9977, 30871.26
257.4798, 32336.44
257.9619, 32781.15
258.4440, 32186.54
258.9261, 30838.97
259.4083, 28407.00
259.8904, 25573.48
260.3725, 23077.11
260.8546, 20833.92
261.3367, 19090.02
261.8188, 17954.14
262.3010, 17425.06
262.7831, 17140.29
263.2652, 17138.33
263.7473, 17326.26
264.2294, 17622.35
264.7115, 18049.07
265.1937, 18510.10
265.6758, 18965.96
266.1579, 19411.94
266.6400, 19978.34
267.1221, 20661.35
267.6042, 21463.76
268.0864, 22381.86
268.5685, 23435.94
269.0506, 24569.59
269.5327, 25771.12
270.0148, 27041.55
270.4969, 28411.67
270.9791, 29913.17
271.4612, 31447.71
271.9433, 32947.28
272.4254, 34455.79
272.9075, 35719.98
273.3896, 36721.80
273.8718, 37433.24
274.3539, 37683.87
274.8360, 37478.56
275.3181, 36802.98
275.8002, 35562.58
276.2823, 33696.97
276.7645, 31672.64
277.2466, 29489.75
277.7287, 27201.40
278.2108, 25139.79
278.6929, 23287.78
279.1750, 21646.09
279.6572, 20226.34
280.1393, 19032.50
280.6214, 18040.86
281.1035, 17261.19
281.5856, 16682.27
282.0677, 16260.79
282.5499, 16004.28
283.0320, 15881.14
283.5141, 15867.70
283.9962, 15964.73
284.4783, 16174.22
284.9604, 16500.18
285.4425, 16933.32
285.9247, 17450.12
286.4068, 18048.80
286.8889, 18721.57
287.3710, 19502.06
287.8531, 20374.73
288.3352, 21202.47
288.8174, 21980.73
289.2995, 22679.47
289.7816, 23221.22
290.2637, 23596.33
290.7458, 23882.14
291.2279, 24101.75
291.7101, 24267.36
292.1922, 24423.90
292.6743, 24551.46
293.1564, 24713.46
293.6385, 25013.81
294.1206, 25450.13
294.6028, 25995.78
295.0849, 26679.92
295.5670, 27466.66
296.0491, 28259.25
296.5312, 29041.32
297.0133, 29815.37
297.4955, 30602.46
297.9776, 31382.01
298.4597, 32117.43
298.9418, 32737.63
299.4239, 33298.40
299.9060, 33907.18
300.3882, 34579.07
300.8703, 35276.44
301.3524, 35988.89
301.8345, 36692.21
302.3166, 37303.68
302.7987, 37792.73
303.2809, 38157.89
303.7630, 38427.01
304.2451, 38613.24
304.7272, 38620.12
305.2093, 38378.65
305.6914, 37883.62
306.1736, 37143.90
306.6557, 36060.77
307.1378, 34776.63
307.6199, 33423.77
308.1020, 31998.96
308.5841, 30520.53
309.0663, 28975.68
309.5484, 27375.91
310.0305, 25792.59
310.5126, 24221.95
310.9947, 22681.62
311.4768, 21181.16
311.9590, 19725.45
312.4411, 18369.05
312.9232, 17175.26
313.4053, 16099.89
313.8874, 15107.52
314.3695, 14161.01
314.8517, 13288.79
315.3337, 12501.29
315.8159, 11798.68
316.2980, 11182.97
316.7801, 10655.29
317.2622, 10208.65
317.7443, 9832.309
318.2264, 9517.431
318.7086, 9283.717
319.1907, 9145.126
319.6728, 9098.120
320.1549, 9116.291
320.6370, 9197.960
321.1191, 9338.575
321.6013, 9535.869
322.0834, 9799.778
322.5655, 10105.97
323.0476, 10441.47
323.5297, 10812.48
324.0118, 11245.41
324.4940, 11785.58
324.9761, 12358.53
325.4582, 12925.27
325.9403, 13429.25
326.4224, 14005.45
326.9045, 14696.83
327.3867, 15472.56
327.8688, 16247.34
328.3509, 17082.95
328.8330, 17859.73
329.3151, 18545.33
329.7972, 19143.85
330.2794, 19653.77
330.7615, 20147.76
331.2436, 20532.58
331.7257, 20641.44
332.2078, 20421.48
332.6899, 20003.13
333.1721, 19409.11
333.6542, 18628.27
334.1363, 17727.73
334.6184, 16651.79
335.1005, 15499.71
335.5826, 14362.55
336.0648, 13196.38
336.5469, 12138.75
337.0290, 11210.79
337.5111, 10407.96
337.9932, 9738.117
338.4753, 9219.180
338.9575, 8804.750
339.4396, 8442.018
339.9217, 8122.338
340.4038, 7891.878
340.8859, 7770.383
341.3680, 7742.951
341.8502, 7724.005
342.3323, 7705.828
342.8144, 7736.041
343.2965, 7860.127
343.7786, 8077.783
344.2607, 8336.720
344.7429, 8635.660
345.2250, 8965.112
345.7071, 9325.869
346.1892, 9725.065
346.6713, 10092.20
347.1534, 10419.53
347.6355, 10687.33
348.1176, 10830.44
348.5998, 10848.88
349.0819, 10725.50
349.5640, 10427.90
350.0461, 9957.683
350.5282, 9360.294
351.0103, 8583.681
351.4925, 7713.163
351.9746, 6872.274
352.4567, 6070.026
352.9388, 5325.390
353.4209, 4659.007
353.9030, 4064.806
354.3852, 3528.932
354.8673, 3055.681
355.3494, 2632.396
355.8315, 2245.370
356.3136, 1896.172
356.7957, 1591.291
357.2779, 1350.776
357.7600, 1156.028
358.2421, 986.4419
358.7242, 838.6162
359.2063, 707.9233
359.6884, 587.5723
360.1706, 479.7593
360.6527, 398.3975
361.1348, 367.4268
361.6169, 355.3120
362.0990, 337.8804
362.5811, 301.1045
363.0633, 270.1465
363.5454, 252.7271
364.0275, 246.9224
364.5096, 247.4136
364.9917, 248.9209
365.4738, 259.4395
365.9560, 283.8301
366.4381, 328.4243
366.9202, 374.4463
367.4023, 424.1841
367.8844, 473.5967
368.3665, 516.0669
368.8487, 553.9951
369.3308, 582.3979
369.8129, 602.0752
370.2950, 615.3838
370.7771, 607.3018
371.2592, 567.1118
371.7414, 513.2236
372.2235, 463.8281
372.7056, 425.5811
373.1877, 378.1475
373.6698, 313.0938
374.1519, 233.2720
374.6341, 167.7842
375.1162, 117.1455
375.5983, 81.27930
376.0804, 64.46484
376.5625, 72.05078
377.0446, 72.66309
377.5267, 61.10400
378.0089, 41.62061
378.4910, 26.32080
378.9731, 15.51953
379.4552, 8.084961
379.9373, 3.834961
380.4194, 2.663574
380.9016, 6.508301
381.3837, 16.96094
381.8658, 28.22119
382.3479, 32.95361
382.8300, 31.33984
383.3121, 23.18018
383.7943, 10.41748
384.2764, 8.904297
384.7585, 44.32812
385.2406, 96.40137
385.7227, 149.7319
386.2048, 181.4873
386.6870, 202.5127
387.1691, 237.1987
387.6512, 308.2498
388.1333, 382.8225
388.6154, 423.7598
389.0975, 434.9775
389.5797, 443.9294
390.0618, 471.4224
390.5439, 503.9536
391.0260, 526.1243
391.5081, 529.5564
391.9902, 531.3694
392.4724, 544.4941
392.9545, 563.2788
393.4366, 574.7932
393.9187, 576.8896
394.4008, 567.7993
394.8829, 541.8032
395.3651, 491.1389
395.8472, 452.6643
396.3293, 447.4009
396.8114, 455.5579
397.2935, 453.3625
397.7756, 430.8479
398.2578, 403.9619
398.7399, 376.2405
399.2220, 347.9575
399.7041, 315.8252
400.1862, 278.1768
400.6683, 238.0190
401.1505, 197.9309
401.6326, 163.5010
402.1147, 118.3079
402.5968, 53.36621
403.0789, 23.00073
403.5610, 77.81494
404.0432, 98.16772
404.5253, 122.8228
405.0074, 174.8640
405.4895, 262.8564
405.9716, 333.2673
406.4537, 379.6274
406.9359, 417.8943
407.4180, 475.4182
407.9001, 554.4465
408.3822, 628.7451
408.8643, 685.5640
409.3464, 729.7554
409.8285, 783.4851
410.3106, 846.4526
410.7928, 919.8884
411.2749, 1011.578
411.7570, 1117.128
412.2391, 1217.038
412.7212, 1305.363
413.2033, 1388.984
413.6855, 1475.927
414.1676, 1565.615
414.6497, 1657.756
415.1318, 1750.007
415.6139, 1844.615
416.0960, 1942.837
416.5782, 2045.581
417.0603, 2151.473
417.5424, 2255.741
418.0245, 2361.994
418.5066, 2476.152
418.9887, 2615.558
419.4709, 2752.228
419.9530, 2864.677
420.4351, 2950.224
420.9172, 3052.620
421.3993, 3192.891
421.8814, 3353.135
422.3636, 3518.541
422.8457, 3679.457
423.3278, 3853.167
423.8099, 4046.562
424.2920, 4257.181
424.7741, 4464.515
425.2563, 4656.859
425.7384, 4857.099
426.2205, 5071.653
426.7026, 5306.466
427.1847, 5540.830
427.6668, 5761.847
428.1490, 5989.331
428.6311, 6251.737
429.1132, 6553.992
429.5953, 6887.701
430.0774, 7252.996
430.5595, 7647.376
431.0417, 8042.325
431.5238, 8432.409
432.0059, 8833.032
432.4880, 9254.825
432.9701, 9697.895
433.4522, 10167.59
433.9344, 10676.32
434.4165, 11205.39
434.8986, 11723.28
435.3807, 12233.72
435.8628, 12776.63
436.3449, 13390.20
436.8271, 14050.83
437.3092, 14714.87
437.7913, 15373.21
438.2734, 16034.32
438.7555, 16700.75
439.2376, 17374.28
439.7197, 18057.80
440.2018, 18777.97
440.6840, 19488.10
441.1661, 20157.40
441.6482, 20781.11
442.1303, 21374.73
442.6124, 21946.95
443.0945, 22489.31
443.5767, 22988.11
444.0588, 23434.63
444.5409, 23860.36
445.0230, 24291.18
445.5051, 24704.56
445.9872, 25052.70
446.4694, 25361.33
446.9515, 25578.51
447.4336, 25685.17
447.9157, 25676.96
448.3978, 25583.18
448.8799, 25388.08
449.3621, 25123.24
449.8442, 24820.73
450.3263, 24497.40
450.8084, 24094.91
451.2905, 23592.98
451.7726, 23010.49
452.2548, 22398.41
452.7369, 21751.54
453.2190, 21092.00
453.7011, 20421.21
454.1832, 19739.54
454.6653, 19040.77
455.1475, 18310.20
455.6296, 17595.66
456.1117, 16950.95
456.5938, 16374.11
457.0759, 15819.33
457.5580, 15275.57
458.0402, 14746.55
458.5223, 14235.89
459.0044, 13740.68
459.4865, 13275.29
459.9686, 12829.66
460.4507, 12425.82
460.9329, 12085.44
461.4150, 11826.44
461.8971, 11608.48
462.3792, 11404.12
462.8613, 11224.18
463.3434, 11084.18
463.8256, 10988.14
464.3077, 10935.24
464.7898, 10929.66
465.2719, 10974.54
465.7540, 11042.00
466.2361, 11095.03
466.7183, 11185.33
467.2004, 11354.58
467.6825, 11663.38
468.1646, 11975.82
468.6467, 12269.10
469.1288, 12562.48
469.6110, 12918.66
470.0930, 13347.36
470.5752, 13822.29
471.0573, 14336.94
471.5394, 14887.62
472.0215, 15487.02
472.5036, 16137.17
472.9857, 16830.47
473.4679, 17562.03
473.9500, 18325.54
474.4321, 19125.58
474.9142, 19969.83
475.3963, 20845.14
475.8784, 21724.04
476.3606, 22607.07
476.8427, 23499.33
477.3248, 24381.96
477.8069, 25275.23
478.2890, 26224.60
478.7711, 27250.69
479.2533, 28259.79
479.7354, 29203.11
480.2175, 30070.02
480.6996, 30844.79
481.1817, 31524.95
481.6638, 32096.84
482.1460, 32562.39
482.6281, 32912.73
483.1102, 33119.93
483.5923, 33212.58
484.0744, 33128.25
484.5565, 32824.58
485.0387, 32268.40
485.5208, 31537.38
486.0029, 30564.49
486.4850, 29435.03
486.9671, 28270.46
487.4492, 27070.12
487.9314, 25855.19
488.4135, 24604.66
488.8956, 23328.33
489.3777, 22160.25
489.8598, 21092.97
490.3419, 20132.06
490.8241, 19276.13
491.3062, 18523.92
491.7883, 17849.57
492.2704, 17236.44
492.7525, 16714.51
493.2346, 16334.70
493.7168, 16094.99
494.1989, 15928.12
494.6810, 15793.11
495.1631, 15714.32
495.6452, 15756.13
496.1273, 15915.20
496.6095, 16101.01
497.0916, 16298.42
497.5737, 16457.33
498.0558, 16525.21
498.5379, 16517.63
499.0201, 16361.82
499.5022, 16024.98
499.9843, 15510.17
500.4664, 14826.12
500.9485, 13888.51
501.4306, 12872.54
501.9127, 11822.07
502.3948, 10732.86
502.8770, 9718.390
503.3591, 8780.637
503.8412, 7932.082
504.3233, 7174.501
504.8054, 6512.243
505.2875, 5946.218
505.7697, 5487.362
506.2518, 5113.981
506.7339, 4789.297
507.2160, 4517.953
507.6981, 4271.038
508.1802, 4044.009
508.6624, 3834.621
509.1445, 3619.548
509.6266, 3396.912
510.1087, 3174.487
510.5908, 2970.629
511.0729, 2777.408
511.5551, 2560.879
512.0372, 2302.729
512.5193, 2036.028
513.0014, 1796.898
513.4835, 1583.016
513.9656, 1390.515
514.4478, 1226.705
514.9299, 1077.836
515.4120, 928.0547
515.8941, 774.3931
516.3762, 643.1909
516.8583, 558.9790
517.3405, 498.9614
517.8226, 444.5576
518.3047, 384.1265
518.7868, 336.6587
519.2689, 301.7725
519.7510, 283.3818
520.2332, 287.7900
520.7153, 315.1592
521.1974, 363.3989
521.6795, 435.6045
522.1616, 532.1978
522.6437, 633.3438
523.1259, 735.3076
523.6080, 851.9966
524.0901, 993.3438
524.5722, 1159.388
525.0543, 1338.283
525.5364, 1529.745
526.0186, 1739.026
526.5007, 1972.914
526.9828, 2231.122
527.4649, 2516.956
527.9470, 2844.640
528.4291, 3189.295
528.9113, 3517.920
529.3934, 3833.069
529.8755, 4189.042
530.3576, 4642.684
530.8397, 5136.896
531.3218, 5625.667
531.8040, 6080.693
532.2861, 6569.486
532.7682, 7117.091
533.2503, 7705.017
533.7324, 8292.992
534.2145, 8899.004
534.6967, 9485.870
535.1788, 10066.26
535.6609, 10630.68
536.1430, 11137.18
536.6251, 11607.64
537.1072, 11969.27
537.5894, 12178.82
538.0715, 12234.71
538.5536, 12152.04
539.0357, 11929.90
539.5178, 11572.13
539.9999, 11043.54
540.4821, 10362.61
540.9642, 9639.623
541.4463, 8878.244
541.9284, 8112.492
542.4105, 7384.757
542.8926, 6698.341
543.3748, 6050.462
543.8569, 5436.766
544.3390, 4871.990
544.8211, 4368.106
545.3032, 3924.001
545.7853, 3521.292
546.2675, 3152.377
546.7495, 2818.777
547.2316, 2521.990
547.7137, 2277.665
548.1959, 2053.603
548.6780, 1839.846
549.1601, 1640.559
549.6422, 1465.296
550.1243, 1321.821
550.6064, 1191.310
551.0886, 1069.015
551.5707, 955.0024
552.0528, 846.6143
552.5349, 744.5581
553.0170, 649.0752
553.4991, 559.6201
553.9813, 476.4590
554.4634, 405.3750
554.9455, 348.9580
555.4276, 299.7412
555.9097, 248.1396
556.3918, 195.4072
556.8740, 144.6860
557.3561, 63.78007
557.8382, 90.22343
558.3203, 98.13353
558.8024, 88.53238
559.2845, 7.516859
559.7667, 19.82957
560.2488, -4.574638
560.7309, -30.02003
561.2130, -3.176229
561.6951, -71.30327
562.1772, -44.30648
562.6594, -54.60476
563.1415, -47.12246
563.6236, -76.59407
564.1057, -94.01554
564.5878, -73.49967
565.0699, -73.23300
565.5521, -105.0709
566.0342, -93.57117
566.5163, -158.1414
566.9984, -155.0469
567.4805, -122.4814
567.9626, -150.0014
568.4448, -135.3876
568.9269, -136.1475
569.4090, -208.5103
569.8911, -155.0173
570.3732, -155.2560
570.8553, -210.6780
571.3375, -160.0221
571.8196, -206.7965
572.3017, -218.1340
572.7838, -202.6825
573.2659, -214.1641
573.7480, -181.9289
574.2302, -190.8543
574.7123, -203.0139
575.1944, -198.4488
575.6765, -239.4117
576.1586, -194.5220
576.6407, -207.4584
577.1229, -190.9217
577.6050, -167.3294
578.0871, -193.5568
578.5692, -166.0393
579.0513, -220.6272
579.5334, -205.6210
580.0156, -197.5684
580.4977, -144.8598
580.9798, -197.0986
581.4619, -182.0665
581.9440, -138.1131
582.4261, -133.4606
582.9083, -111.6839
583.3904, -138.6724
583.8725, -118.9081
584.3546, -111.4097
584.8367, -59.35935
585.3188, -41.61014
585.8010, -65.32672
586.2831, -88.38344
586.7652, -31.21444
587.2473, -49.13528
587.7294, -25.79881
588.2115, -44.08376
588.6937, -25.52016
589.1758, -7.052045
589.6579, 30.54256
590.1400, 12.10744
590.6221, 71.54102
591.1042, 87.51465
591.5864, 96.02637
592.0685, 109.8198
592.5506, 138.6362
593.0327, 180.1445
593.5148, 213.0586
593.9969, 237.1528
594.4791, 257.0239
594.9612, 271.2568
595.4433, 285.3657
595.9254, 310.6992
596.4075, 350.9717
596.8896, 399.1123
597.3718, 449.6821
597.8539, 503.7354
598.3360, 562.6113
598.8181, 625.0640
599.3002, 694.5859
599.7823, 776.1699
600.2645, 867.9331
600.7466, 954.8706
601.2287, 1026.528
601.7108, 1101.939
602.1929, 1185.069
602.6750, 1272.816
603.1572, 1390.507
603.6393, 1547.130
604.1214, 1716.254
604.6035, 1875.486
605.0856, 2026.008
605.5677, 2177.267
606.0499, 2330.094
606.5320, 2490.456
607.0141, 2667.609
607.4962, 2859.131
607.9783, 3062.246
608.4604, 3274.314
608.9425, 3496.296
609.4246, 3717.110
609.9067, 3944.380
610.3889, 4201.833
610.8710, 4518.645
611.3531, 4852.719
611.8352, 5178.821
612.3173, 5491.867
612.7994, 5824.967
613.2816, 6180.026
613.7637, 6558.434
614.2458, 6960.116
614.7279, 7379.900
615.2100, 7843.158
615.6921, 8357.726
616.1743, 8905.286
616.6564, 9435.479
617.1385, 9950.920
617.6206, 10505.50
618.1027, 11133.90
618.5848, 11808.20
619.0670, 12490.12
619.5491, 13186.24
620.0312, 13924.26
620.5133, 14747.51
620.9954, 15610.02
621.4775, 16466.36
621.9597, 17314.34
622.4418, 18209.37
622.9239, 19200.00
623.4060, 20228.28
623.8881, 21266.10
624.3702, 22309.12
624.8524, 23353.86
625.3345, 24376.89
625.8166, 25422.85
626.2987, 26549.44
626.7808, 27778.89
627.2629, 29012.20
627.7451, 30234.98
628.2272, 31443.73
628.7093, 32632.82
629.1914, 33801.53
629.6735, 34952.86
630.1556, 36091.41
630.6378, 37189.01
631.1199, 38194.14
631.6020, 39108.25
632.0841, 39955.81
632.5662, 40786.58
633.0483, 41533.80
633.5305, 42159.52
634.0126, 42655.17
634.4947, 42994.19
634.9768, 43161.01
635.4589, 43167.69
635.9410, 43028.27
636.4232, 42727.53
636.9053, 42310.69
637.3874, 41778.82
637.8695, 41130.12
638.3516, 40362.41
638.8337, 39468.61
639.3159, 38450.48
639.7980, 37266.55
640.2801, 35972.57
640.7622, 34701.17
641.2443, 33440.34
641.7264, 32183.94
642.2086, 30919.11
642.6907, 29656.59
643.1728, 28426.62
643.6549, 27222.43
644.1370, 26049.36
644.6191, 24901.29
645.1013, 23776.46
645.5834, 22667.97
646.0655, 21532.07
646.5476, 20487.57
647.0297, 19566.13
647.5118, 18716.10
647.9940, 17885.75
648.4761, 17061.76
648.9582, 16287.28
649.4403, 15566.44
649.9224, 14890.50
650.4045, 14216.62
650.8867, 13543.10
651.3688, 12903.76
651.8509, 12324.70
652.3330, 11782.39
652.8151, 11258.30
653.2972, 10757.74
653.7794, 10268.50
654.2615, 9781.236
654.7436, 9313.058
655.2257, 8882.185
655.7078, 8495.194
656.1899, 8105.885
656.6721, 7696.305
657.1542, 7288.854
657.6363, 6901.987
658.1184, 6534.402
658.6005, 6188.441
659.0826, 5869.127
659.5648, 5567.049
660.0469, 5266.649
660.5290, 4968.789
661.0111, 4686.478
661.4932, 4428.172
661.9753, 4185.127
662.4575, 3946.548
662.9396, 3714.273
663.4217, 3493.406
663.9038, 3292.847
664.3859, 3098.986
664.8680, 2901.737
665.3502, 2701.868
665.8323, 2517.333
666.3144, 2364.411
666.7965, 2217.264
667.2786, 2062.123
667.7607, 1895.169
668.2429, 1739.283
668.7250, 1594.589
669.2071, 1458.455
669.6892, 1332.237
670.1713, 1214.612
670.6534, 1085.504
671.1355, 939.2393
671.6176, 794.3105
672.0997, 679.0420
672.5818, 584.0664
673.0640, 487.0742
673.5461, 379.0596
674.0282, 270.8701
674.5103, 162.4697
674.9924, 59.47168
675.4745, -240.6800
675.9567, 91.61459
676.4388, 278.0916
676.9209, 326.5860
677.4030, -176.1741
677.8851, 32.89680
678.3672, -43.30191
678.8494, -131.1984
679.3315, 178.0597
679.8136, -244.5216
680.2957, 58.43821
680.7778, 71.77528
681.2599, 217.6655
681.7421, 76.52404
682.2242, 24.03780
682.7063, 258.6748
683.1884, 334.3294
683.6705, 99.38965
684.1526, 271.5361
684.6348, 468.9336
685.1169, 659.1748
685.5990, 808.0146
686.0811, 985.8047
686.5632, 1206.388
687.0453, 1461.955
687.5275, 1749.306
688.0096, 2071.927
688.4917, 2414.679
688.9738, 2776.977
689.4559, 3163.760
689.9380, 3587.312
690.4202, 4046.089
690.9023, 4552.287
691.3844, 5125.279
691.8665, 5734.970
692.3486, 6338.113
692.8307, 6944.841
693.3129, 7581.805
693.7950, 8266.465
694.2771, 8985.277
694.7592, 9723.504
695.2413, 10484.17
695.7234, 11289.68
696.2056, 12140.75
696.6877, 13032.06
697.1698, 13973.12
697.6519, 14994.82
698.1340, 15949.50
698.6161, 16834.37
699.0983, 17661.55
699.5804, 18453.51
700.0625, 19199.20
700.5446, 19880.00
701.0267, 20500.39
701.5089, 21027.88
701.9910, 21440.22
702.4731, 21733.28
702.9552, 21899.90
703.4373, 21945.24
703.9194, 21853.87
704.4016, 21608.18
704.8837, 21221.70
705.3658, 20722.73
705.8479, 20070.90
706.3300, 19372.32
706.8121, 18642.20
707.2943, 17876.11
707.7764, 17053.73
708.2585, 16158.40
708.7406, 15303.33
709.2227, 14578.77
709.7048, 13939.70
710.1870, 13274.11
710.6691, 12579.27
711.1512, 11899.87
711.6333, 11229.70
712.1154, 10592.34
712.5975, 10019.75
713.0797, 9515.083
713.5618, 9042.315
714.0439, 8602.870
714.5260, 8189.369
715.0081, 7795.049
715.4902, 7434.706
715.9724, 7069.223
716.4545, 6691.052
716.9366, 6325.299
717.4187, 6012.170
717.9008, 5746.271
718.3829, 5488.162
718.8651, 5225.498
719.3472, 4976.333
719.8293, 4753.127
720.3114, 4554.751
720.7935, 4373.922
721.2756, 4221.889
721.7578, 4073.232
722.2399, 3918.882
722.7220, 3758.856
723.2041, 3599.577
723.6862, 3429.460
724.1683, 3273.998
724.6505, 3136.831
725.1326, 3019.325
725.6147, 2933.582
726.0968, 2887.732
726.5789, 2825.203
727.0610, 2702.118
727.5432, 2549.341
728.0253, 2456.336
728.5074, 2416.800
728.9895, 2377.493
729.4716, 2287.957
729.9537, 2194.487
730.4359, 2143.166
730.9180, 2138.192
731.4001, 2131.093
731.8822, 2109.822
732.3643, 2080.814
732.8464, 2044.973
733.3285, 1995.363
733.8106, 1965.858
734.2927, 1962.279
734.7748, 1965.455
735.2570, 1955.375
735.7391, 1934.598
736.2212, 1923.648
736.7033, 1926.421
737.1854, 1932.918
737.6675, 1934.868
738.1497, 1934.142
738.6318, 1933.367
739.1139, 1934.355
739.5960, 1932.967
740.0781, 1926.611
740.5602, 1918.202
741.0424, 1911.959
741.5245, 1918.132
742.0066, 1906.503
742.4887, 1874.031
742.9708, 1822.125
743.4529, 1747.710
743.9351, 1650.186
744.4172, 1552.452
744.8993, 1460.206
745.3814, 1372.440
745.8635, 1282.934
746.3456, 1195.110
746.8278, 1121.011
747.3099, 1079.208
747.7920, 1042.073
748.2741, 986.8027
748.7562, 919.2412
749.2383, 878.8979
749.7205, 894.9346
750.2026, 908.8721
750.6847, 904.3569
751.1668, 882.6958
751.6489, 852.4028
752.1310, 810.6475
752.6132, 780.6240
753.0953, 787.5298
753.5774, 815.8652
754.0595, 825.7002
754.5416, 817.5337
755.0237, 811.5400
755.5059, 819.6743
755.9880, 835.8374
756.4701, 857.3584
756.9522, 885.8335
757.4343, 903.8867
757.9164, 899.5498
758.3986, 890.3062
758.8807, 888.2661
759.3628, 899.6138
759.8449, 892.0264
760.3270, 861.9087
760.8091, 826.9922
761.2913, 801.2476
761.7734, 784.0469
762.2555, 779.4722
762.7376, 793.6113
763.2197, 800.0552
763.7018, 769.7363
764.1840, 719.3638
764.6661, 668.8076
765.1482, 622.6792
765.6303, 581.5923
766.1124, 538.4849
766.5945, 502.6758
767.0767, 490.3120
767.5588, 511.2925
768.0409, 510.6675
768.5230, 478.5034
769.0051, 432.9834
769.4872, 399.6064
769.9694, 375.4727
770.4515, 351.0562
770.9336, 318.3579
771.4157, 291.0996
771.8978, 294.1865
772.3799, 310.7695
772.8621, 307.9121
773.3442, 249.7632
773.8263, 200.9961
774.3084, 180.7153
774.7905, 180.5547
775.2726, 181.3940
775.7548, 184.8579
776.2369, 179.6958
776.7190, 160.8242
777.2011, 134.1597
777.6832, 112.6714
778.1653, 96.34277
778.6475, 85.61279
779.1296, 84.02344
779.6117, 85.38281
780.0938, 82.84814
780.5759, 78.35645
781.0580, 78.55273
781.5402, 89.77051
782.0223, 101.2783
782.5044, 109.1650
782.9865, 113.9868
783.4686, 120.3779
783.9507, 129.1943
784.4329, 135.5645
784.9150, 131.6709
785.3971, 124.2358
785.8792, 139.5195
786.3613, 175.2285
786.8434, 211.1172
787.3256, 235.4355
787.8077, 253.1606
788.2898, 265.1416
788.7719, 271.9844
789.2540, 285.0942
789.7361, 309.7007
790.2183, 339.2495
790.7004, 372.7578
791.1825, 410.7642
791.6646, 440.5635
792.1467, 460.5947
792.6288, 478.9072
793.1110, 502.4565
793.5930, 528.4111
794.0751, 547.7490
794.5573, 560.1963
795.0394, 574.0815
795.5215, 595.4233
796.0036, 620.8413
796.4857, 649.1523
796.9678, 681.7505
797.4500, 709.5820
797.9321, 737.6562
798.4142, 754.9810
798.8963, 751.7524
799.3784, 723.6255
799.8605, 706.3779
800.3427, 702.0146
800.8248, 696.1514
801.3069, 675.0044
801.7890, 642.6021
802.2711, 604.4194
802.7532, 560.0093
803.2354, 518.2886
803.7175, 485.2476
804.1996, 455.2983
804.6817, 422.1968
805.1638, 376.6855
805.6459, 350.9746
806.1281, 360.0327
806.6102, 368.9570
807.0923, 342.2480
807.5744, 280.3022
808.0565, 231.3457
808.5386, 200.5532
809.0208, 173.9229
809.5029, 134.4990
809.9850, 91.07275
810.4671, 59.16162
810.9492, 44.58691
811.4313, 30.97119
811.9135, 12.31689
812.3956, 9.016113
812.8777, 31.25000
813.3598, 56.67578
813.8419, 77.86621
814.3240, 95.14404
814.8062, 107.6943
815.2883, 112.6924
815.7704, 111.5649
816.2525, 114.4150
816.7346, 123.2085
817.2167, 133.6201
817.6989, 145.5996
818.1810, 154.9292
818.6631, 155.0649
819.1452, 135.7368
819.6273, 125.9863
820.1094, 144.5044
820.5916, 166.6997
821.0737, 168.7466
821.5558, 144.3223
822.0379, 128.3027
822.5200, 125.4990
823.0021, 125.2217
823.4843, 117.8320
823.9664, 102.3369
824.4485, 72.70508
824.9306, 21.51465
825.4127, 22.05518
825.8948, 31.80322
826.3770, 26.37988
826.8591, 25.64355
827.3412, 29.55029
827.8233, 45.23145
828.3054, 79.00293
828.7875, 117.3140
829.2697, 142.7051
829.7518, 155.2739
830.2339, 174.2063
830.7160, 204.4927
831.1981, 230.9451
831.6802, 224.9746
832.1624, 207.5081
832.6445, 213.0845
833.1266, 259.1982
833.6087, 306.5562
834.0908, 342.1812
834.5729, 371.4980
835.0551, 400.8271
835.5372, 431.1011
836.0193, 457.4036
836.5014, 477.0415
836.9835, 498.3723
837.4656, 535.0417
837.9478, 582.4148
838.4299, 624.5171
838.9120, 658.7056
839.3941, 687.5847
839.8762, 707.2595
840.3583, 725.7974
840.8405, 752.4641
841.3226, 793.8667
841.8047, 834.4590
842.2868, 874.9575
842.7689, 912.4441
843.2510, 945.1382
843.7332, 973.3608
844.2153, 988.0366
844.6974, 986.6924
845.1795, 980.5024
845.6616, 984.8430
846.1437, 991.5190
846.6259, 988.4536
847.1080, 973.8174
847.5901, 947.0332
848.0722, 887.9617
848.5543, 829.6653
849.0364, 802.1328
849.5186, 819.2803
850.0007, 826.1299
850.4828, 821.0750
850.9649, 810.1929
851.4470, 800.6309
851.9291, 790.3638
852.4113, 769.6775
852.8934, 736.7756
853.3755, 705.1106
853.8576, 685.1494
854.3397, 671.2727
854.8218, 657.3442
855.3040, 639.8452
855.7860, 630.5537
856.2681, 634.5591
856.7502, 641.9893
857.2324, 647.7285
857.7145, 651.2222
858.1966, 641.8223
858.6787, 618.1987
859.1608, 598.9138
859.6429, 605.0215
860.1251, 621.6648
860.6072, 630.0737
861.0893, 627.9033
861.5714, 622.1614
862.0535, 606.7510
862.5356, 596.7258
863.0178, 601.3286
863.4999, 621.8052
863.9820, 633.5845
864.4641, 634.6250
864.9462, 635.6819
865.4283, 649.2371
865.9105, 668.4102
866.3926, 675.2524
866.8747, 669.7249
867.3568, 659.6462
867.8389, 643.5374
868.3210, 629.4680
868.8032, 624.0039
869.2853, 628.0420
869.7674, 630.9141
870.2495, 632.9673
870.7316, 631.8252
871.2137, 624.5112
871.6959, 613.2590
872.1780, 609.6206
872.6601, 612.8542
873.1422, 613.5247
873.6243, 599.0369
874.1064, 585.1704
874.5886, 592.5198
875.0707, 615.0835
875.5528, 620.2725
876.0349, 577.7461
876.5170, 545.9580
876.9991, 542.8811
877.4813, 561.0444
877.9634, 574.8792
878.4455, 584.1812
878.9276, 586.8511
879.4097, 578.9670
879.8918, 569.4668
880.3740, 568.9744
880.8561, 575.7593
881.3382, 586.3247
881.8203, 601.9812
882.3024, 620.0908
882.7845, 640.6074
883.2667, 663.8372
883.7488, 691.2759
884.2309, 723.9529
884.7130, 749.6060
885.1951, 764.2554
885.6772, 774.4072
886.1594, 784.4292
886.6415, 798.6355
887.1236, 828.3799
887.6057, 889.4321
888.0878, 945.2654
888.5699, 974.3755
889.0521, 990.4392
889.5342, 1012.017
890.0163, 1045.027
890.4984, 1067.321
890.9805, 1074.063
891.4626, 1081.091
891.9448, 1117.767
892.4269, 1171.212
892.9090, 1198.215
893.3911, 1185.908
893.8732, 1172.790
894.3553, 1192.695
894.8375, 1220.541
895.3196, 1233.429
895.8017, 1227.202
896.2838, 1207.236
896.7659, 1171.000
897.2480, 1125.263
897.7302, 1071.315
898.2123, 1011.842
898.6944, 957.2991
899.1765, 908.7307
899.6586, 862.0686
900.1407, 816.8916
900.6229, 771.2280
901.1050, 722.2046
901.5871, 668.4363
902.0692, 623.0762
902.5513, 587.0913
903.0334, 558.6460
903.5156, 542.1545
903.9977, 533.5415
904.4798, 497.5020
904.9619, 435.2480
905.4440, 378.9531
905.9261, 355.0315
906.4083, 341.4736
906.8904, 317.5735
907.3725, 284.7522
907.8546, 250.9060
908.3367, 210.2188
908.8188, 179.0142
909.3010, 165.0002
909.7831, 162.0178
910.2652, 153.2913
910.7473, 138.8381
911.2294, 117.2605
911.7115, 81.89111
912.1937, 49.12231
912.6758, 47.66040
913.1579, 62.02515
913.6400, 63.10107
914.1221, 21.47974
914.6042, 8.546143
915.0864, 11.97437
915.5685, 3.735107
916.0506, 2.682861
916.5327, 9.448975
917.0148, 16.20508
917.4969, 21.75269
917.9790, 26.69995
918.4611, 31.21973
918.9432, 35.95898
919.4254, 42.85962
919.9075, 54.22974
920.3896, 60.74023
920.8717, 56.75854
921.3538, 48.38330
921.8359, 38.58203
922.3181, 26.45630
922.8002, 22.36670
923.2823, 27.44141
923.7644, 32.18140
924.2465, 30.14844
924.7286, 22.37329
925.2108, 7.159912
925.6929, 14.57227
926.1750, 31.34033
926.6571, 36.91846
927.1392, 38.06982
927.6213, 33.49829
928.1035, 26.02222
928.5856, 38.88525
929.0677, 75.06738
929.5498, 107.3154
930.0319, 121.4155
930.5140, 127.3979
930.9962, 140.5276
931.4783, 158.9827
931.9604, 177.2556
932.4425, 197.1675
932.9246, 212.5237
933.4067, 217.5764
933.8889, 218.5251
934.3710, 225.8271
934.8531, 240.4812
935.3352, 255.3721
935.8173, 269.6750
936.2994, 281.4617
936.7816, 291.1831
937.2637, 295.5217
937.7458, 286.4451
938.2279, 255.4795
938.7100, 230.1982
939.1921, 217.5847
939.6743, 216.7422
940.1564, 228.1941
940.6385, 254.0359
941.1206, 280.9895
941.6027, 309.7505
942.0848, 335.9670
942.5670, 348.0247
943.0491, 359.2166
943.5312, 392.2786
944.0133, 447.3723
944.4954, 501.7422
944.9775, 539.9258
945.4597, 582.6731
945.9418, 635.2180
946.4239, 698.8210
946.9060, 781.8958
947.3881, 885.5107
947.8702, 994.7349
948.3524, 1099.870
948.8345, 1210.451
949.3166, 1341.277
949.7987, 1488.192
950.2808, 1639.081
950.7629, 1778.958
951.2451, 1934.216
951.7272, 2109.044
952.2093, 2301.388
952.6914, 2509.888
953.1735, 2734.693
953.6556, 2969.317
954.1378, 3210.411
954.6199, 3464.959
955.1020, 3744.377
955.5841, 4042.271
956.0662, 4351.163
956.5483, 4670.186
957.0305, 4998.788
957.5126, 5344.471
957.9947, 5693.289
958.4768, 6051.563
958.9589, 6418.771
959.4410, 6702.061
959.9232, 6902.299
960.4053, 7053.266
960.8874, 7225.841
961.3695, 7327.510
961.8516, 7255.576
962.3337, 7023.464
962.8159, 6728.416
963.2980, 6362.081
963.7801, 5971.811
964.2622, 5563.996
964.7443, 5137.395
965.2264, 4678.395
965.7086, 4196.447
966.1907, 3752.613
966.6728, 3361.689
967.1549, 3017.269
967.6370, 2729.106
968.1191, 2481.021
968.6013, 2257.085
969.0834, 2045.158
969.5655, 1871.203
970.0476, 1740.406
970.5297, 1632.440
971.0118, 1518.377
971.4940, 1407.912
971.9761, 1344.615
972.4582, 1331.276
972.9403, 1320.826
973.4224, 1273.072
973.9045, 1224.577
974.3867, 1201.153
974.8688, 1203.641
975.3509, 1209.428
975.8330, 1216.735
976.3151, 1233.174
976.7972, 1261.667
977.2794, 1301.219
977.7615, 1357.269
978.2436, 1424.417
978.7257, 1486.356
979.2078, 1517.917
979.6899, 1563.582
980.1720, 1646.853
980.6541, 1750.806
981.1362, 1854.892
981.6183, 1960.860
982.1005, 2055.988
982.5826, 2137.595
983.0647, 2213.973
983.5468, 2299.064
984.0289, 2381.652
984.5110, 2445.507
984.9932, 2489.067
985.4753, 2510.753
985.9574, 2480.288
986.4395, 2457.664
986.9216, 2471.832
987.4037, 2520.436
987.8859, 2573.682
988.3680, 2631.281
988.8501, 2698.754
989.3322, 2767.783
989.8143, 2857.474
990.2964, 2994.190
990.7786, 3166.184
991.2607, 3344.158
991.7428, 3508.294
992.2249, 3699.473
992.7070, 3931.771
993.1891, 4182.377
993.6713, 4418.617
994.1534, 4639.532
994.6355, 4835.316
995.1176, 5003.637
995.5997, 5152.060
996.0818, 5312.791
996.5640, 5438.557
997.0461, 5486.395
997.5282, 5454.667
998.0103, 5346.538
998.4924, 5153.288
998.9745, 4908.470
999.4567, 4618.153
999.9388, 4295.626
1000.421, 3975.419
1000.903, 3656.032
1001.385, 3335.605
1001.867, 3000.586
1002.349, 2680.835
1002.831, 2380.795
1003.314, 2108.627
1003.796, 1889.870
1004.278, 1726.438
1004.760, 1569.489
1005.242, 1405.719
1005.724, 1255.307
1006.206, 1142.509
1006.688, 1054.165
1007.171, 971.6760
1007.653, 891.3452
1008.135, 816.7297
1008.617, 745.3430
1009.099, 679.3108
1009.581, 621.5808
1010.063, 570.8848
1010.545, 519.1108
1011.027, 466.5193
1011.510, 419.4175
1011.992, 383.0781
1012.474, 353.5576
1012.956, 331.5042
1013.438, 314.0083
1013.920, 292.5371
1014.402, 264.9690
1014.884, 239.7341
1015.367, 217.3208
1015.849, 199.2837
1016.331, 192.3259
1016.813, 190.0295
1017.295, 176.9607
1017.777, 147.1934
1018.259, 123.5229
1018.741, 125.3782
1019.223, 126.3357
1019.706, 106.1648
1020.188, 64.86450
1020.670, 50.53418
1021.152, 63.88281
1021.634, 80.20654
1022.116, 86.11572
1022.598, 85.96582
1023.080, 81.93823
1023.563, 75.32031
1024.045, 69.88037
1024.527, 67.83887
1025.009, 64.38477
1025.491, 58.52466
1025.973, 52.46289
1026.455, 46.79761
1026.937, 43.06445
1027.419, 49.88574
1027.901, 70.28979
1028.384, 90.62744
1028.866, 105.8984
1029.348, 114.8630
1029.830, 113.3098
1030.312, 101.6519
1030.794, 100.0767
1031.276, 109.2017
1031.758, 125.0830
1032.241, 149.8726
1032.723, 176.4316
1033.205, 191.7695
1033.687, 200.6665
1034.169, 214.0044
1034.651, 230.9634
1035.133, 259.9807
1035.615, 308.7585
1036.098, 361.2156
1036.580, 394.8181
1037.062, 412.7097
1037.544, 435.3721
1038.026, 464.6267
1038.508, 507.4624
1038.990, 589.2773
1039.472, 670.5249
1039.954, 720.8770
1040.437, 739.7449
1040.919, 753.2542
1041.401, 762.4846
1041.883, 763.4673
1042.365, 757.5129
1042.847, 738.7056
1043.329, 689.5186
1043.811, 621.0200
1044.293, 556.0251
1044.776, 505.2615
1045.258, 453.1230
1045.740, 394.3252
1046.222, 336.1091
1046.704, 284.1853
1047.186, 238.5530
1047.668, 196.0557
1048.150, 156.7371
1048.633, 121.6272
1049.115, 91.48706
1049.597, 66.61816
1050.079, 48.28198
1050.561, 36.17676
1051.043, 25.38086
1051.525, 13.94946
1052.007, 12.02515
1052.490, 25.54468
1052.972, 42.20020
1053.454, 42.15210
1053.936, 31.65137
1054.418, 21.34985
1054.900, 12.76978
1055.382, 8.309814
1055.864, 10.70215
1056.346, 15.39258
1056.828, 21.85229
1057.311, 28.44824
1057.793, 19.99121
1058.275, 1.216309
1058.757, 17.44067
1059.239, 14.39136
1059.721, 7.136719
1060.203, 3.964600
1060.685, 3.397461
1061.168, 1.536133
1061.650, 3.034180
1062.132, 2.827148
1062.614, 2.529297
1063.096, 10.00586
1063.578, 16.31372
1064.060, 22.43481
1064.542, 32.38208
1065.025, 47.32593
1065.507, 54.92749
1065.989, 42.51172
1066.471, 31.98779
1066.953, 32.46313
1067.435, 39.34058
1067.917, 34.91406
1068.399, 21.43823
1068.881, 11.06396
1069.364, 9.414307
1069.846, 9.717285
1070.328, 7.660889
1070.810, 5.306396
1071.292, 4.748779
1071.774, 7.198608
1072.256, 9.937622
1072.738, 13.04834
1073.220, 13.90894
1073.703, 7.041626
1074.185, 1.059082
1074.667, 1.072144
1075.149, 5.491943
1075.631, 10.38403
1076.113, 11.80884
1076.595, 11.29395
1077.077, 8.104614
1077.559, 3.900635
1078.042, 2.049194
1078.524, 1.478638
1079.006, 0.8962400
1079.488, 5.770264
1079.970, 12.50671
1080.452, 27.55420
1080.934, 37.37903
1081.416, 33.27917
1081.899, 16.81372
1082.381, 2.103882
1082.863, 10.71924
1083.345, 16.64465
1083.827, 11.33167
1084.309, 1.368408
1084.791, 9.814941
1085.273, 20.82495
1085.755, 29.11719
1086.238, 32.04175
1086.720, 38.97754
1087.202, 52.57666
1087.684, 61.75696
1088.166, 53.13135
1088.648, 34.91467
1089.130, 19.59290
1089.612, 8.524048
1090.094, 5.122681
1090.577, 19.99023
1091.059, 30.42090
1091.541, 28.42212
1092.023, 21.24524
1092.505, 23.65759
1092.987, 33.91150
1093.469, 43.79578
1093.951, 52.53516
1094.434, 55.29333
1094.916, 43.75220
1095.398, 29.03516
1095.880, 17.29846
1096.362, 8.756714
1096.844, 15.92407
1097.326, 40.03479
1097.808, 57.62000
1098.291, 55.63025
1098.773, 45.68408
1099.255, 38.28345
1099.737, 32.74817
1100.219, 28.43787
1100.701, 25.90161
1101.183, 23.61804
1101.665, 21.51160
1102.147, 19.54126
1102.630, 16.43604
1103.112, 14.01440
1103.594, 18.71729
1104.076, 28.84326
1104.558, 33.44141
1105.040, 18.98022
1105.522, 9.379639
1106.004, 11.71021
1106.486, 20.37024
1106.969, 27.33496
1107.451, 32.17505
1107.933, 31.03369
1108.415, 22.53491
1108.897, 16.34424
1109.379, 22.98132
1109.861, 30.70398
1110.343, 30.92578
1110.826, 24.77319
1111.308, 21.15796
1111.790, 20.35107
1112.272, 19.15393
1112.754, 15.94666
1113.236, 12.21924
1113.718, 5.357788
1114.200, 0.8961180
1114.682, 8.379395
1115.165, 38.69592
1115.647, 48.86316
1116.129, 33.10388
1116.611, 16.84277
1117.093, 24.72668
1117.575, 41.54749
1118.057, 35.66467
1118.539, 14.69128
1119.021, 4.031372
1119.504, 26.64478
1119.986, 39.04932
1120.468, 32.74939
1120.950, 19.37024
1121.432, 10.99060
1121.914, 8.094360
1122.396, 15.20679
1122.878, 31.96521
1123.361, 42.72241
1123.843, 35.50769
1124.325, 26.39429
1124.807, 20.74915
1125.289, 17.94043
1125.771, 17.97815
1126.253, 21.16211
1126.735, 27.05310
1127.218, 37.07642
1127.700, 41.45227
1128.182, 23.93225
1128.664, 3.878418
1129.146, 0.5581050
1129.628, 10.74194
1130.110, 22.24976
1130.592, 34.32556
1131.074, 41.73096
1131.557, 41.29004
1132.039, 36.57556
1132.521, 27.37073
1133.003, 17.45947
1133.485, 14.06555
1133.967, 22.85034
1134.449, 28.81287
1134.931, 31.58850
1135.413, 33.84973
1135.896, 40.68701
1136.378, 46.66748
1136.860, 38.17090
1137.342, 19.86047
1137.824, 10.11963
1138.306, 21.84949
1138.788, 33.35571
1139.270, 43.75854
1139.752, 49.77063
1140.235, 42.69177
1140.717, 27.60449
1141.199, 20.68323
1141.681, 24.19287
1142.163, 27.20459
1142.645, 23.31104
1143.127, 18.78857
1143.609, 15.77234
1144.092, 14.12207
1144.574, 14.33899
1145.056, 16.01392
1145.538, 17.07019
1146.020, 17.33594
1146.502, 15.73706
1146.984, 8.912598
1147.466, 2.355957
1147.948, 0.4289550
1148.431, 0.9559330
1148.913, 5.677246
1149.395, 13.62439
1149.877, 22.48865
1150.359, 32.65076
1150.841, 41.17627
1151.323, 47.55945
1151.805, 49.91772
1152.287, 44.78149
1152.770, 28.91431
1153.252, 19.43433
1153.734, 16.15967
1154.216, 19.76562
1154.698, 41.16296
1155.180, 61.97192
1155.662, 57.15466
1156.144, 36.68896
1156.627, 29.93481
1157.109, 47.52295
1157.591, 54.08972
1158.073, 44.07080
1158.555, 32.94446
1159.037, 37.13220
1159.519, 49.27417
1160.001, 64.65002
1160.484, 80.55737
1160.966, 77.63770
1161.448, 34.04919
1161.930, 11.48962
1162.412, 27.32275
1162.894, 57.65918
1163.376, 68.47839
1163.858, 66.76306
1164.340, 64.33691
1164.823, 62.75330
1165.305, 62.32959
1165.787, 65.72168
1166.269, 65.72021
1166.751, 57.43494
1167.233, 46.98364
1167.715, 53.13806
1168.197, 68.58655
1168.679, 70.11633
1169.162, 43.13098
1169.644, 26.63147
1170.126, 44.50928
1170.608, 65.32898
1171.090, 72.60400
1171.572, 68.32227
1172.054, 63.10754
1172.536, 57.65967
1173.019, 52.48474
1173.501, 40.31848
1173.983, 36.58899
1174.465, 58.23474
1174.947, 82.53235
1175.429, 88.08435
1175.911, 75.33582
1176.393, 65.61047
1176.875, 59.45361
1177.358, 57.69653
1177.840, 63.21277
1178.322, 67.99316
1178.804, 66.30103
1179.286, 61.89319
1179.768, 60.65259
1180.250, 63.08948
1180.732, 64.58435
1181.214, 64.28027
1181.697, 66.02368
1182.179, 75.92871
1182.661, 85.70312
1183.143, 89.46948
1183.625, 88.64453
1184.107, 87.34961
1184.589, 85.62378
1185.071, 82.47070
1185.554, 77.66235
1186.036, 71.65649
1186.518, 63.36731
1187.000, 54.91565
1187.482, 46.88013
1187.964, 40.09082
1188.446, 44.22437
1188.928, 61.07764
1189.411, 71.25574
1189.893, 68.37500
1190.375, 60.66199
1190.857, 53.59961
1191.339, 46.65247
1191.821, 37.51636
1192.303, 25.18323
1192.785, 28.22339
1193.267, 49.68567
1193.750, 63.83411
1194.232, 57.20508
1194.714, 43.19556
1195.196, 32.14331
1195.678, 25.68701
1196.160, 28.18726
1196.642, 43.51819
1197.124, 51.60730
1197.606, 51.67517
1198.089, 48.92920
1198.571, 43.02454
1199.053, 39.35303
1199.535, 49.81311
1200.017, 66.20935
1200.499, 72.41321
1200.981, 59.52295
1201.463, 52.62610
1201.945, 53.03516
1202.428, 55.19458
1202.910, 52.22888
1203.392, 50.23389
1203.874, 63.01099
1204.356, 83.40454
1204.838, 88.45471
1205.320, 66.41943
1205.802, 50.62512
1206.285, 44.35205
1206.767, 42.19641
1207.249, 39.04272
1207.731, 36.34827
1208.213, 37.66052
1208.695, 42.34656
1209.177, 45.57068
1209.659, 44.37402
1210.141, 48.89380
1210.624, 62.73889
1211.106, 75.07190
1211.588, 72.55859
1212.070, 61.41260
1212.552, 45.40540
1213.034, 26.39905
1213.516, 22.95166
1213.998, 44.18994
1214.480, 58.23438
1214.963, 57.24939
1215.445, 49.03503
1215.927, 41.19678
1216.409, 34.56165
1216.891, 30.28833
1217.373, 28.63940
1217.855, 29.93018
1218.337, 36.66260
1218.820, 38.18872
1219.302, 29.12354
1219.784, 17.30444
1220.266, 14.21936
1220.748, 16.90820
1221.230, 22.99854
1221.712, 33.78015
1222.194, 34.23511
1222.677, 19.32385
1223.159, 9.154175
1223.641, 14.52869
1224.123, 25.09045
1224.605, 25.99109
1225.087, 20.74353
1225.569, 13.50464
1226.051, 1.609863
1226.533, 1.944946
1227.016, 18.26758
1227.498, 34.06836
1227.980, 42.10339
1228.462, 43.29236
1228.944, 34.32690
1229.426, 21.28101
1229.908, 14.82886
1230.390, 21.65271
1230.872, 22.11987
1231.355, 14.13916
1231.837, 8.725220
1232.319, 16.99023
1232.801, 28.80078
1233.283, 29.46606
1233.765, 23.96252
1234.247, 22.80688
1234.729, 31.52759
1235.212, 33.85168
1235.694, 28.15540
1236.176, 23.83081
1236.658, 33.32617
1237.140, 43.77881
1237.622, 37.71594
1238.104, 21.20605
1238.586, 9.608032
1239.068, 4.005737
1239.551, 4.290161
1240.033, 11.21057
1240.515, 18.69128
1240.997, 22.60828
1241.479, 23.89746
1241.961, 23.05408
1242.443, 20.27026
1242.925, 16.43066
1243.407, 10.88928
1243.890, 6.421143
1244.372, 3.474121
1244.854, 2.482178
1245.336, 5.735840
1245.818, 9.222656
1246.300, 9.814453
1246.782, 7.501221
1247.264, 1.371826
1247.747, 10.59338
1248.229, 4.899414
1248.711, 23.70020
1249.193, 46.22998
1249.675, 28.68884
1250.157, 4.891113
1250.639, 2.913208
1251.121, 15.90454
1251.604, 22.18542
1252.086, 21.65125
1252.568, 17.85120
1253.050, 10.90894
1253.532, 7.377686
1254.014, 17.85852
1254.496, 28.06262
1254.978, 26.35327
1255.460, 17.35498
1255.943, 13.80945
1256.425, 15.17725
1256.907, 14.02380
1257.389, 8.051758
1257.871, 4.251587
1258.353, 12.90576
1258.835, 19.43945
1259.317, 13.37671
1259.799, 1.107300
1260.281, 3.114136
1260.764, 15.72534
1261.246, 19.20276
1261.728, 7.544556
1262.210, 1.065552
1262.692, 9.879517
1263.174, 18.05029
1263.656, 11.77563
1264.138, 2.376465
1264.621, 6.697510
1265.103, 2.858765
1265.585, 5.179077
1266.067, 18.53284
1266.549, 27.23035
1267.031, 23.73914
1267.513, 19.59717
1267.995, 19.15161
1268.478, 20.79871
1268.960, 21.43848
1269.442, 20.94360
1269.924, 17.21130
1270.406, 11.27527
1270.888, 9.694458
1271.370, 13.89648
1271.852, 18.39526
1272.334, 20.41260
1272.817, 20.04443
1273.299, 15.78687
1273.781, 10.93750
1274.263, 11.91382
1274.745, 21.93152
1275.227, 32.76721
1275.709, 46.49939
1276.191, 53.43103
1276.673, 48.78760
1277.156, 37.77063
1277.638, 27.32056
1278.120, 17.48279
1278.602, 8.214111
1279.084, 3.659302
1279.566, 3.889771
1280.048, 9.467407
1280.530, 12.51648
1281.013, 6.050659
1281.495, 0.5748290
1281.977, 12.88586
1282.459, 29.18408
1282.941, 31.11487
1283.423, 17.55859
1283.905, 8.438965
1284.387, 3.519287
1284.870, 0.9702150
1285.352, 2.237915
1285.834, 0.5279540
1286.316, 20.65552
1286.798, 40.51929
1287.280, 40.74805
1287.762, 22.05347
1288.244, 16.07117
1288.726, 16.61133
1289.208, 18.07349
1289.691, 14.86743
1290.173, 9.597412
1290.655, 7.719971
1291.137, 5.520142
1291.619, 0.0000000E+00
##END=



