##NAMES=Ludlamite
##RRUFFID=R040152
##IDEAL CHEMISTRY=Fe^2+^_3_(PO_4_)_2_&#183;4H_2_O
##LOCALITY=Cobalt, Lemhi County, Idaho, USA
##OWNER=RRUFF
##SOURCE=University of Arizona Mineral Museum
##DESCRIPTION=Green tabular single crystals
##STATUS=The identification of this mineral has been confirmed by X-ray diffraction and chemical analysis
##URL=rruff.info/R040152
##MEASURED CHEMISTRY=Fe_3.01_(P_1.00_O_4_)_2_Â·4H_2_O
103.124, 0.000
104.516, 125.626
105.908, 0.704
107.300, 103.932
108.691, 125.047
110.082, 22.697
111.473, 86.712
112.864, 39.526
114.254, 134.178
115.644, 143.226
117.034, 160.414
118.424, 366.144
119.813, 267.509
121.203, 182.234
122.592, 360.171
123.981, 260.189
125.369, 364.171
126.758, 477.009
128.146, 618.612
129.534, 808.897
130.922, 985.798
132.309, 1527.277
133.696, 1950.304
135.083, 2669.847
136.470, 3700.902
137.857, 5220.432
139.243, 6434.392
140.630, 7986.751
142.016, 8958.470
143.401, 9285.517
144.787, 9337.860
146.172, 9113.464
147.557, 7724.293
148.942, 5695.329
150.327, 3955.551
151.711, 2560.941
153.096, 1690.489
154.480, 1150.181
155.863, 944.009
157.247, 627.963
158.630, 620.103
160.013, 635.572
161.396, 739.218
162.779, 816.148
164.161, 907.151
165.544, 872.393
166.926, 968.018
168.308, 939.038
169.689, 1115.203
171.070, 1435.376
172.452, 1365.575
173.833, 1350.901
175.213, 1029.349
176.594, 688.819
177.974, 531.293
179.354, 280.773
180.734, 412.320
182.114, 369.867
183.493, 330.416
184.872, 207.957
186.251, 334.469
187.630, 463.907
189.008, 463.282
190.387, 713.601
191.765, 1005.888
193.143, 1511.151
194.520, 2005.401
195.898, 2911.644
197.275, 3657.883
198.652, 4504.121
200.029, 4816.363
201.405, 4702.611
202.782, 4456.867
204.158, 4440.131
205.534, 4476.407
206.909, 4896.695
208.285, 5253.994
209.660, 4738.309
211.035, 4229.636
212.410, 3389.018
213.784, 2581.968
215.159, 1897.238
216.533, 1350.096
217.907, 1080.085
219.281, 840.684
220.654, 718.360
222.027, 540.599
223.400, 400.789
224.773, 313.996
226.146, 242.219
227.518, 292.282
228.891, 242.552
230.263, 295.563
231.634, 291.417
233.006, 291.529
234.377, 325.348
235.748, 353.186
237.119, 318.756
238.490, 374.627
239.860, 445.517
241.231, 461.006
242.601, 457.166
243.970, 545.449
245.340, 494.966
246.709, 511.241
248.079, 466.390
249.448, 331.235
250.816, 495.146
252.185, 323.009
253.553, 427.881
254.921, 307.627
256.289, 295.176
257.657, 443.306
259.024, 398.386
260.391, 447.352
261.758, 506.227
263.125, 580.395
264.492, 611.277
265.858, 837.169
267.224, 910.071
268.590, 959.126
269.956, 1022.693
271.321, 784.775
272.687, 863.565
274.052, 786.549
275.416, 669.001
276.781, 656.300
278.146, 881.730
279.510, 975.276
280.874, 1013.929
282.237, 1204.676
283.601, 1395.511
284.964, 1595.423
286.327, 1322.408
287.690, 1046.461
289.053, 1015.572
290.416, 770.742
291.778, 599.964
293.140, 699.233
294.502, 504.549
295.863, 748.907
297.225, 668.303
298.586, 924.736
299.947, 998.204
301.308, 969.703
302.668, 1073.231
304.029, 903.786
305.389, 928.368
306.749, 801.974
308.108, 776.601
309.468, 576.247
310.827, 418.913
312.186, 325.599
313.545, 248.299
314.903, 129.017
316.262, 180.749
317.620, 109.496
318.978, 0.257
320.336, 122.030
321.693, 64.815
323.051, 67.388
324.408, 59.595
325.765, 112.195
327.121, 67.008
328.478, 60.782
329.834, 14.422
331.190, 64.375
332.546, 6.826
333.902, 69.973
335.257, 93.228
336.612, 8.448
337.967, 55.330
339.322, 16.893
340.677, 117.883
342.031, 125.659
343.385, 23.437
344.739, 97.212
346.093, 69.993
347.446, 13.773
348.799, 80.444
350.153, 126.681
351.505, 44.934
352.858, 21.805
354.210, 29.559
355.563, 103.687
356.915, 33.953
358.267, 46.436
359.618, 182.511
360.969, 19.156
362.321, 58.824
363.672, 100.492
365.022, 118.161
366.373, 29.831
367.723, 180.516
369.073, 4.800
370.423, 120.882
371.773, 162.563
373.122, 20.270
374.471, 63.977
375.821, 43.318
377.169, 152.355
378.518, 30.988
379.866, 169.687
381.215, 56.644
382.563, 48.008
383.910, 173.623
385.258, 45.762
386.605, 13.161
387.952, 67.435
389.299, 169.028
390.646, 10.408
391.992, 43.136
393.339, 85.645
394.685, 5.875
396.031, 76.543
397.376, 147.960
398.722, 265.396
400.067, 65.830
401.412, 115.264
402.757, 119.696
404.101, 32.843
405.446, 217.612
406.790, 29.950
408.134, 10.458
409.478, 21.857
410.821, 104.254
412.165, 12.649
413.508, 139.041
414.851, 4.570
416.193, 151.814
417.536, 69.185
418.878, 7.458
420.220, 105.899
421.562, 63.280
422.904, 278.656
424.245, 220.012
425.586, 359.400
426.927, 234.770
428.268, 214.138
429.609, 326.524
430.949, 247.916
432.289, 215.312
433.629, 267.716
434.969, 468.125
436.309, 369.538
437.648, 528.958
438.987, 460.381
440.326, 587.804
441.665, 494.243
443.003, 680.682
444.342, 676.122
445.680, 870.564
447.018, 1100.007
448.355, 1171.469
449.693, 1469.928
451.030, 1476.386
452.367, 1799.843
453.704, 1948.297
455.041, 2472.795
456.377, 2525.288
457.713, 2763.780
459.049, 2824.266
460.385, 2654.746
461.721, 2752.225
463.056, 2400.695
464.391, 2238.201
465.726, 1807.773
467.061, 1410.271
468.395, 1330.762
469.730, 946.247
471.064, 770.727
472.398, 680.208
473.731, 372.684
475.065, 503.156
476.398, 325.622
477.731, 265.118
479.064, 403.606
480.397, 567.059
481.729, 384.532
483.062, 345.996
484.394, 477.358
485.725, 455.106
487.057, 627.547
488.389, 661.818
489.720, 959.242
491.051, 1147.135
492.382, 1360.543
493.712, 1430.692
495.043, 1496.175
496.373, 1475.715
497.703, 1432.565
499.032, 1347.948
500.362, 1248.221
501.691, 1157.551
503.020, 944.907
504.349, 809.254
505.678, 566.738
507.007, 596.067
508.335, 516.049
509.663, 362.148
510.991, 428.062
512.319, 313.286
513.646, 357.069
514.973, 337.503
516.300, 596.819
517.627, 724.555
518.954, 458.158
520.280, 380.286
521.607, 185.732
522.933, 283.952
524.259, 186.261
525.584, 312.655
526.910, 248.424
528.235, 186.605
529.560, 335.372
530.885, 228.682
532.209, 220.416
533.534, 366.848
534.858, 271.979
536.182, 449.098
537.506, 426.547
538.829, 503.307
540.152, 597.396
541.476, 674.078
542.799, 620.146
544.121, 886.317
545.444, 726.258
546.766, 1035.433
548.088, 903.604
549.410, 926.635
550.732, 1000.892
552.053, 977.893
553.375, 1043.956
554.696, 940.318
556.017, 914.289
557.337, 1101.572
558.658, 986.520
559.978, 1257.562
561.298, 1185.486
562.618, 1006.233
563.938, 1116.037
565.257, 966.928
566.576, 972.308
567.895, 952.066
569.214, 845.458
570.533, 951.744
571.851, 932.500
573.170, 861.320
574.488, 832.084
575.805, 1058.021
577.123, 1028.805
578.440, 957.388
579.758, 888.848
581.075, 858.757
582.391, 1006.892
583.708, 665.712
585.024, 792.554
586.341, 708.251
587.657, 530.323
588.972, 676.103
590.288, 692.856
591.603, 645.501
592.918, 594.275
594.233, 547.046
595.548, 691.141
596.863, 656.730
598.177, 912.308
599.491, 853.204
600.805, 744.753
602.119, 632.628
603.432, 486.076
604.746, 457.683
606.059, 366.372
607.372, 424.721
608.685, 308.633
609.997, 338.528
611.309, 438.963
612.621, 200.551
613.933, 266.956
615.245, 141.805
616.557, 273.178
617.868, 291.536
619.179, 144.196
620.490, 312.523
621.801, 326.629
623.111, 106.925
624.421, 436.143
625.731, 248.403
627.041, 397.849
628.351, 218.079
629.660, 487.153
630.970, 364.351
632.279, 323.641
633.588, 661.912
634.896, 386.608
636.205, 507.740
637.513, 378.854
638.821, 519.951
640.129, 352.031
641.437, 396.096
642.744, 369.155
644.051, 359.212
645.358, 350.311
646.665, 314.977
647.972, 323.396
649.278, 258.402
650.584, 286.391
651.890, 281.704
653.196, 161.026
654.502, 252.989
655.807, 172.937
657.113, 164.866
658.418, 36.784
659.722, 205.679
661.027, 219.558
662.331, 19.418
663.636, 200.252
664.940, 34.069
666.244, 70.056
667.547, 31.148
668.851, 55.867
670.154, 22.364
671.457, 107.355
672.760, 16.057
674.062, 44.776
675.365, 183.467
676.667, 124.153
677.969, 93.872
679.271, 152.571
680.572, 122.256
681.874, 99.923
683.175, 25.256
684.476, 166.346
685.777, 104.933
687.077, 111.505
688.378, 57.939
689.678, 77.552
690.978, 153.025
692.278, 22.483
693.577, 65.932
694.877, 157.638
696.176, 240.686
697.475, 56.995
698.774, 204.304
700.072, 12.598
701.371, 131.865
702.669, 56.004
703.967, 115.259
705.265, 114.502
706.562, 52.644
707.860, 294.778
709.157, 129.899
710.454, 68.004
711.751, 368.359
713.047, 41.562
714.344, 377.463
715.640, 121.475
716.936, 200.469
718.232, 130.550
719.527, 46.667
720.823, 299.173
722.118, 165.999
723.413, 110.825
724.708, 22.635
726.002, 38.429
727.297, 113.203
728.591, 181.965
729.885, 191.103
731.179, 109.454
732.472, 206.181
733.766, 11.105
735.059, 69.419
736.352, 103.204
737.645, 45.813
738.937, 117.406
740.230, 108.985
741.522, 169.551
742.814, 50.896
744.106, 113.604
745.397, 116.093
746.689, 280.566
747.980, 104.028
749.271, 101.477
750.562, 19.911
751.853, 198.330
753.143, 196.736
754.433, 37.869
755.723, 172.483
757.013, 53.824
758.303, 0.851
759.592, 228.453
760.881, 69.255
762.170, 174.979
763.459, 25.202
764.748, 25.410
766.036, 183.604
767.325, 167.215
768.613, 310.859
769.901, 19.920
771.188, 159.971
772.476, 272.008
773.763, 52.033
775.050, 284.047
776.337, 132.949
777.624, 163.965
778.910, 8.205
780.196, 179.680
781.482, 76.553
782.768, 197.414
784.054, 25.734
785.339, 128.088
786.625, 14.098
787.910, 94.693
789.195, 134.525
790.479, 308.170
791.764, 182.857
793.048, 134.533
794.332, 258.201
795.616, 184.861
796.900, 317.512
798.183, 194.158
799.467, 317.793
800.750, 91.424
802.033, 206.045
803.316, 294.664
804.598, 140.275
805.880, 335.881
807.163, 65.521
808.445, 285.037
809.726, 232.590
811.008, 182.191
812.289, 266.787
813.570, 183.754
814.851, 222.768
816.132, 264.023
817.413, 235.508
818.693, 102.154
819.973, 55.131
821.253, 304.451
822.533, 39.006
823.813, 126.254
825.092, 306.367
826.371, 175.814
827.650, 86.213
828.929, 134.404
830.208, 214.008
831.486, 331.531
832.764, 163.922
834.042, 203.527
835.320, 177.025
836.598, 45.449
837.875, 284.486
839.152, 265.096
840.429, 244.568
841.706, 157.062
842.983, 327.137
844.259, 234.521
845.536, 83.211
846.812, 445.082
848.088, 158.434
849.363, 148.352
850.639, 124.037
851.914, 273.348
853.189, 344.031
854.464, 147.598
855.739, 57.779
857.013, 335.496
858.288, 462.021
859.562, 170.672
860.836, 239.941
862.110, 130.609
863.383, 274.201
864.656, 2.467
865.930, 394.189
867.203, 130.520
868.475, 241.176
869.748, 311.725
871.020, 320.420
872.292, 80.279
873.564, 397.426
874.836, 338.119
876.108, 211.820
877.379, 339.383
878.650, 234.549
879.922, 493.809
881.192, 325.389
882.463, 342.125
883.733, 449.861
885.004, 428.461
886.274, 480.205
887.544, 347.885
888.813, 392.928
890.083, 392.234
891.352, 616.865
892.621, 496.516
893.890, 507.135
895.159, 687.889
896.427, 665.256
897.695, 622.906
898.964, 777.570
900.232, 779.312
901.499, 975.951
902.767, 1011.561
904.034, 1151.834
905.301, 1462.596
906.568, 1557.361
907.835, 1835.789
909.102, 2121.557
910.368, 2533.982
911.634, 2741.818
912.900, 3174.580
914.166, 3677.178
915.432, 3816.945
916.697, 4068.262
917.962, 3798.580
919.227, 3342.344
920.492, 3651.941
921.757, 3144.703
923.021, 2917.010
924.285, 2949.775
925.550, 2785.541
926.813, 2798.990
928.077, 2703.756
929.341, 2738.730
930.604, 3009.500
931.867, 3241.334
933.130, 3629.107
934.393, 3641.682
935.655, 4154.457
936.918, 4962.371
938.180, 5366.148
939.442, 6649.824
940.703, 7629.496
941.965, 9306.730
943.226, 11751.508
944.488, 14932.293
945.749, 18816.348
947.009, 24532.127
948.270, 31871.908
949.530, 37649.613
950.791, 41117.613
952.051, 40505.980
953.311, 35873.672
954.570, 28619.295
955.830, 22431.076
957.089, 17925.836
958.348, 13969.953
959.607, 11040.936
960.866, 8824.027
962.124, 7547.365
963.383, 6108.789
964.641, 5058.521
965.899, 4706.143
967.156, 4034.324
968.414, 3638.994
969.671, 3073.121
970.928, 2761.621
972.185, 2591.801
973.442, 2460.598
974.699, 2457.416
975.955, 1951.246
977.211, 2097.879
978.468, 1792.207
979.723, 1571.482
980.979, 1869.678
982.234, 1719.672
983.490, 1573.211
984.745, 2133.617
986.000, 1372.689
987.254, 2106.365
988.509, 2158.342
989.763, 1919.652
991.017, 2119.885
992.271, 2081.713
993.525, 1911.221
994.779, 1967.125
996.032, 1793.559
997.285, 1892.223
998.538, 1700.812
999.791, 1597.633
1001.044, 1083.195
1002.296, 1370.826
1003.548, 974.578
1004.800, 1142.188
1006.052, 796.309
1007.304, 761.764
1008.555, 859.697
1009.807, 685.002
1011.058, 881.828
1012.309, 703.760
1013.559, 603.119
1014.810, 716.344
1016.060, 648.240
1017.310, 597.391
1018.560, 754.195
1019.810, 984.074
1021.060, 732.100
1022.309, 884.104
1023.558, 1275.879
1024.807, 1033.283
1026.056, 1448.848
1027.305, 1277.262
1028.553, 1588.320
1029.801, 1527.246
1031.049, 1827.002
1032.297, 1600.371
1033.545, 1535.934
1034.793, 1599.031
1036.040, 1680.994
1037.287, 1857.002
1038.534, 2154.051
1039.781, 2621.621
1041.027, 3026.311
1042.274, 3676.467
1043.520, 3569.268
1044.766, 3656.902
1046.012, 3527.527
1047.257, 2778.355
1048.503, 2142.949
1049.748, 1756.457
1050.993, 1772.926
1052.238, 1009.570
1053.483, 1425.553
1054.727, 952.289
1055.971, 831.680
1057.216, 776.217
1058.459, 938.211
1059.703, 809.082
1060.947, 785.598
1062.190, 831.037
1063.433, 653.521
1064.676, 568.035
1065.919, 729.406
1067.162, 840.363
1068.404, 666.941
1069.646, 1075.891
1070.888, 766.225
1072.130, 735.566
1073.372, 1115.119
1074.613, 729.953
1075.855, 778.809
1077.096, 933.174
1078.337, 613.365
1079.578, 631.285
1080.818, 768.225
1082.059, 619.773
1083.299, 824.566
1084.539, 1290.184
1085.779, 1235.670
1087.018, 1372.543
1088.258, 1292.393
1089.497, 698.227
1090.736, 569.705
1091.975, 365.436
1093.213, 275.193
1094.452, 162.436
1095.690, 241.803
1096.928, 356.725
1098.166, 10.785
1099.404, 186.111
1100.642, 98.969
1101.879, 262.592
1103.116, 24.709
1104.353, 249.223
1105.590, 13.973
1106.827, 166.867
1108.063, 33.992
1109.299, 178.227
1110.536, 210.578
1111.771, 103.865
1113.007, 32.297
1114.243, 180.775
1115.478, 29.074
1116.713, 66.279
1117.948, 56.977
1119.183, 110.896
1120.418, 143.795
1121.652, 45.895
1122.886, 226.938
1124.120, 380.131
1125.354, 94.607
1126.588, 174.818
1127.821, 36.967
1129.055, 209.699
1130.288, 30.990
1131.521, 128.707
1132.753, 160.559
1133.986, 241.682
1135.218, 71.385
1136.450, 9.723
1137.682, 190.625
1138.914, 142.002
1140.146, 316.932
1141.377, 49.176
1142.609, 70.393
1143.840, 30.488
1145.071, 17.883
1146.301, 154.004
1147.532, 97.371
1148.762, 171.797
1149.992, 154.242
1151.222, 131.422
1152.452, 165.027
1153.682, 61.867
1154.911, 244.400
1156.140, 97.984
1157.369, 251.824
1158.598, 4.287
1159.827, 114.889
1161.055, 250.076
1162.284, 287.959
1163.512, 301.158
1164.740, 301.576
1165.967, 155.709
1167.195, 134.855
1168.422, 113.385
1169.650, 340.211
1170.877, 163.639
1172.103, 254.863
1173.330, 9.770
1174.557, 57.986
1175.783, 114.975
1177.009, 386.408
1178.235, 184.334
1179.461, 60.107
1180.686, 232.125
1181.912, 113.871
1183.137, 70.588
1184.362, 235.436
1185.587, 364.555
1186.811, 71.908
1188.036, 219.482
1189.260, 342.465
1190.484, 189.119
1191.708, 224.162
1192.932, 221.512
1194.155, 173.564
1195.378, 224.096
1196.602, 239.645
1197.825, 243.449
1199.047, 458.719
1200.270, 127.223
1201.492, 402.787
1202.715, 240.473
1203.937, 515.980
1205.159, 117.320
1206.380, 349.074
1207.602, 428.316
1208.823, 886.430
1210.044, 184.473
1211.265, 176.434
1212.486, 442.314
1213.707, 295.879
1214.927, 380.613
1216.147, 284.279
1217.367, 436.781
1218.587, 188.301
1219.807, 370.305
1221.027, 295.688
1222.246, 282.986
1223.465, 392.869
1224.684, 188.332
1225.903, 254.414
1227.121, 241.770
1228.340, 328.381
1229.558, 261.254
1230.776, 296.125
1231.994, 319.242
1233.212, 219.912
1234.429, 81.518
1235.646, 608.043
1236.864, 291.461
1238.081, 230.848
1239.297, 504.162
1240.514, 330.402
1241.730, 290.291
1242.947, 388.367
1244.163, 345.340
1245.378, 270.377
1246.594, 151.982
1247.810, 417.143
1249.025, 390.812
1250.240, 125.535
1251.455, 353.033
1252.670, 307.475
1253.885, 240.465
1255.099, 206.795
1256.313, 205.631
1257.527, 129.141
1258.741, 124.438
1259.955, 73.830
1261.168, 69.912
1262.382, 35.521
1263.595, 163.486
1264.808, 129.568
1266.021, 328.398
1267.233, 35.049
1268.446, 268.164
1269.658, 219.949
1270.870, 377.877
1272.082, 5.895
1273.294, 175.070
1274.505, 284.164
1275.716, 133.246
1276.928, 241.449
1278.139, 189.938
1279.349, 129.451
1280.560, 145.188
1281.770, 107.232
1282.981, 123.715
1284.191, 66.965
1285.401, 3.205
1286.610, 271.770
1287.820, 21.564
1289.029, 55.906
1290.239, 257.639
1291.448, 104.953
1292.656, 276.451
1293.865, 65.531
1295.073, 57.834
1296.282, 19.027
1297.490, 109.902
1298.698, 76.109
1299.906, 136.283
1301.113, 116.375
1302.320, 4.227
1303.528, 22.301
1304.735, 151.057
1305.942, 129.215
1307.148, 27.148
1308.355, 200.533
1309.561, 156.186
1310.767, 35.246
1311.973, 293.596
1313.179, 128.268
1314.384, 121.699
1315.590, 23.061
1316.795, 175.596
1318.000, 45.572
1319.205, 135.012
1320.410, 114.352
1321.614, 4.553
1322.819, 146.508
1324.023, 48.455
1325.227, 254.887
1326.431, 42.051
1327.634, 372.393
1328.838, 285.406
1330.041, 116.746
1331.244, 26.496
1332.447, 15.826
1333.650, 173.645
1334.852, 20.434
1336.055, 120.762
1337.257, 266.043
1338.459, 63.252
1339.661, 222.201
1340.862, 157.305
1342.064, 315.420
1343.265, 183.500
1344.466, 109.330
1345.667, 313.752
1346.868, 264.188
1348.068, 287.238
1349.269, 334.904
1350.469, 188.070
1351.669, 290.803
1352.869, 490.818
1354.069, 360.371
1355.268, 444.828
1356.468, 431.234
1357.667, 117.740
1358.866, 422.627
1360.065, 521.111
1361.263, 75.965
1362.462, 480.857
1363.660, 159.051
1364.858, 289.326
1366.056, 390.635
1367.254, 129.275
1368.451, 213.301
1369.649, 401.834
1370.846, 331.627
1372.043, 287.396
1373.240, 362.215
1374.436, 266.266
1375.633, 190.932
1376.829, 453.178
1378.025, 371.805
1379.221, 332.814
1380.417, 59.541
1381.613, 332.436
1382.808, 328.730
1384.003, 288.258
1385.199, 303.785
1386.393, 429.002
1387.588, 321.684
1388.783, 243.260
1389.977, 494.834
1391.171, 432.961
1392.365, 248.168
1393.559, 280.090
1394.753, 336.109
1395.946, 338.084
1397.140, 275.627
1398.333, 342.729
1399.526, 371.629
1400.719, 519.479
1401.911, 291.594
1403.104, 440.859
1404.296, 491.709
1405.488, 283.725
1406.680, 118.555
1407.872, 285.896
1409.063, 140.586
1410.255, 256.016
1411.446, 521.629
1412.637, 437.270
1413.828, 475.869
1415.018, 549.812
1416.209, 384.607
1417.399, 455.744
1418.589, 480.371
1419.779, 169.805
1420.969, 629.990
1422.159, 347.156
1423.348, 411.363
1424.537, 199.018
1425.726, 328.135
1426.915, 455.039
1428.104, 253.332
1429.293, 400.514
1430.481, 327.242
1431.669, 310.658
1432.857, 355.094
1434.045, 577.039
1435.233, 693.281
1436.420, 416.645
1437.608, 641.506
1438.795, 918.039
1439.982, 471.105
1441.169, 545.609
1442.355, 665.816
1443.542, 687.158
1444.728, 467.105
1445.914, 869.719
1447.100, 537.270
1448.286, 566.705
1449.472, 578.965
1450.657, 514.258
1451.842, 369.416
1453.027, 861.473
1454.212, 339.449
1455.397, 592.363
1456.581, 745.406
1457.766, 479.572
1458.950, 698.852
1460.134, 654.584
1461.318, 579.021
1462.501, 740.512
1463.685, 332.555
1464.868, 413.811
1466.051, 635.629
1467.234, 162.703
1468.417, 853.818
1469.600, 382.949
1470.782, 344.084
1471.965, 607.213
1473.147, 682.385
1474.329, 296.646
1475.510, 617.994
1476.692, 494.424
1477.873, 241.016
1479.055, 463.799
1480.236, 239.777
1481.416, 114.980
1482.597, 631.469
1483.778, 271.266
1484.958, 322.449
1486.138, 358.020
1487.318, 481.949
1488.498, 436.941
1489.678, 668.840
1490.857, 343.863
1492.037, 255.363
1493.216, 123.422
1494.395, 455.117
1495.574, 461.551
1496.752, 155.805
1497.931, 297.988
1499.109, 106.227
1500.287, 349.723
1501.465, 15.742
1502.643, 167.609
1503.820, 24.754
1504.998, 8.188
1506.175, 350.203
1507.352, 247.527
1508.529, 0.000
##END=



