##NAMES=Ludlamite
##RRUFFID=R060485
##IDEAL CHEMISTRY=Fe^2+^_3_(PO_4_)_2_&#183;4H_2_O
##LOCALITY=Blackbird District, Lehmi County, Idaho, USA
##OWNER=RRUFF
##SOURCE=Michael Scott
##DESCRIPTION=Green tabular crystals associated with siderite, pyrite and quartz
##STATUS=The identification of this mineral is confirmed by single-crystal X-ray diffraction and chemical analysis.
##URL=rruff.info/R060485
##MEASURED CHEMISTRY=Fe^2+^_3.00_(P_1.00_O_4_)_2_Â·4H_2_O
111.8524, 0.0000000E+00
112.3345, 0.3554080
112.8167, 2.810547
113.2988, 5.039795
113.7809, 4.414124
114.2630, 3.749817
114.7451, 7.655090
115.2272, 20.05457
115.7094, 40.28430
116.1915, 48.50409
116.6736, 35.28876
117.1557, 21.12054
117.6378, 11.69537
118.1199, 6.719604
118.6021, 4.002075
119.0842, 2.595459
119.5663, 2.210205
120.0484, 1.590454
120.5305, 1.844055
121.0126, 2.495178
121.4948, 2.469788
121.9769, 1.521973
122.4590, 0.4984130
122.9411, 0.4870000
123.4232, 1.374084
123.9053, 2.300598
124.3875, 3.101563
124.8696, 3.591309
125.3517, 3.223389
125.8338, 1.229553
126.3159, 0.6194460
126.7980, 0.9812010
127.2802, 7.4646004E-02
127.7623, 1.053833
128.2444, 1.574036
128.7265, 1.450012
129.2086, 1.370972
129.6907, 0.7537840
130.1729, 0.6724850
130.6550, 1.766113
131.1371, 4.092590
131.6192, 7.292908
132.1013, 11.15808
132.5834, 15.84875
133.0656, 21.35028
133.5477, 26.29529
134.0298, 31.22662
134.5119, 37.07324
134.9940, 45.27380
135.4761, 54.20746
135.9583, 63.73779
136.4404, 73.21161
136.9225, 85.35846
137.4046, 101.0071
137.8867, 119.6801
138.3688, 140.6192
138.8510, 163.8510
139.3331, 188.6139
139.8152, 212.6390
140.2973, 239.9040
140.7794, 261.6138
141.2615, 275.4177
141.7437, 281.0414
142.2258, 276.8616
142.7079, 258.9128
143.1900, 231.1117
143.6721, 203.1317
144.1542, 173.1644
144.6364, 145.9934
145.1185, 126.4687
145.6006, 115.1717
146.0827, 107.9514
146.5648, 105.4117
147.0469, 104.9354
147.5291, 104.4099
148.0112, 103.9080
148.4933, 102.4464
148.9754, 97.01422
149.4575, 85.73816
149.9396, 73.07587
150.4218, 58.38702
150.9039, 43.78583
151.3860, 31.19220
151.8681, 20.84918
152.3502, 12.60083
152.8323, 6.342224
153.3145, 3.228638
153.7966, 1.505188
154.2787, 1.340088
154.7608, 2.296509
155.2429, 3.872925
155.7250, 5.962341
156.2072, 8.788025
156.6893, 9.077209
157.1714, 4.160461
157.6535, 0.3416140
158.1356, 2.106812
158.6177, 1.180298
159.0999, 1.030029
159.5820, 3.194336
160.0641, 5.229980
160.5462, 8.809082
161.0283, 14.42560
161.5104, 21.11859
161.9926, 28.07819
162.4747, 35.21356
162.9568, 43.22321
163.4389, 53.05658
163.9210, 64.62012
164.4031, 76.26703
164.8853, 88.97150
165.3674, 101.2569
165.8495, 111.1039
166.3316, 118.6895
166.8137, 122.7548
167.2958, 121.1600
167.7780, 115.1630
168.2601, 107.5058
168.7422, 98.36542
169.2243, 88.38416
169.7064, 80.25787
170.1885, 73.18787
170.6707, 68.39771
171.1528, 67.21057
171.6349, 68.93677
172.1170, 70.72522
172.5991, 70.38055
173.0812, 67.82153
173.5634, 64.79919
174.0455, 61.94836
174.5276, 58.06934
175.0097, 51.98596
175.4918, 44.03772
175.9739, 35.82758
176.4561, 29.37756
176.9382, 25.18140
177.4203, 21.08966
177.9024, 16.44409
178.3845, 12.39850
178.8666, 9.680176
179.3488, 8.349670
179.8309, 7.873474
180.3130, 7.622192
180.7951, 7.573486
181.2772, 7.773438
181.7593, 8.415283
182.2415, 9.215576
182.7236, 10.34424
183.2057, 11.72040
183.6878, 12.49774
184.1699, 11.29675
184.6520, 6.550049
185.1342, 3.059814
185.6163, 1.556763
186.0984, 1.013000
186.5805, 0.3417970
187.0626, 0.7827760
187.5447, 1.923584
188.0269, 2.130676
188.5090, 1.049438
188.9911, 0.5343020
189.4732, 1.726624
189.9553, 3.646179
190.4374, 4.544312
190.9196, 3.847717
191.4017, 2.162109
191.8838, 0.1862790
192.3659, 2.119751
192.8480, 4.201782
193.3301, 5.702515
193.8123, 6.718445
194.2944, 7.665710
194.7765, 8.431396
195.2586, 9.482239
195.7407, 11.13403
196.2228, 13.39020
196.7050, 16.21497
197.1871, 19.79681
197.6692, 24.10083
198.1513, 28.34979
198.6334, 32.84094
199.1155, 36.79431
199.5977, 39.72168
200.0798, 41.60059
200.5619, 42.71777
201.0440, 43.11578
201.5261, 42.63654
202.0082, 42.51440
202.4904, 43.35437
202.9725, 44.27887
203.4546, 44.75769
203.9367, 44.77350
204.4188, 44.77545
204.9009, 45.42444
205.3831, 47.08527
205.8652, 48.26111
206.3473, 48.38287
206.8294, 48.42761
207.3115, 49.27582
207.7936, 50.90259
208.2758, 52.34357
208.7579, 52.16608
209.2400, 49.51544
209.7221, 46.90088
210.2042, 44.60535
210.6863, 42.12701
211.1685, 39.00989
211.6506, 35.22754
212.1327, 31.27289
212.6148, 27.81555
213.0969, 25.29376
213.5790, 22.44043
214.0612, 18.66534
214.5433, 14.90948
215.0254, 11.81274
215.5075, 9.465088
215.9896, 7.623108
216.4717, 6.065308
216.9539, 4.960022
217.4360, 3.948914
217.9181, 2.945801
218.4002, 2.024475
218.8823, 1.263916
219.3644, 0.6682130
219.8466, 0.1461790
220.3287, 0.4896240
220.8108, 1.364807
221.2929, 1.828430
221.7750, 1.366394
222.2571, 0.6047970
222.7393, 0.4155880
223.2214, 1.042969
223.7035, 1.852844
224.1856, 1.957397
224.6677, 1.416138
225.1498, 1.022766
225.6320, 1.276428
226.1141, 1.730408
226.5962, 1.625061
227.0783, 0.7676390
227.5604, 0.4539790
228.0425, 2.103455
228.5247, 3.982056
229.0068, 4.992859
229.4889, 4.114380
229.9710, 2.115295
230.4531, 0.7540890
230.9352, 0.4281620
231.4174, 0.2827760
231.8995, 0.7710570
232.3816, 2.273682
232.8637, 2.854065
233.3458, 0.8176270
233.8279, 2.753540
234.3101, 4.084167
234.7922, 1.805481
235.2743, 0.5858760
235.7564, 0.8206180
236.2385, 0.2964480
236.7206, 1.119019
237.2028, 0.3778690
237.6849, 1.404297
238.1670, 1.870544
238.6491, 0.1165160
239.1312, 1.753784
239.6133, 1.483154
240.0955, 0.1831670
240.5776, 0.5825200
241.0597, 0.3598020
241.5418, 2.501892
242.0239, 3.245483
242.5060, 1.066223
242.9882, 0.5390010
243.4703, 0.1973270
243.9524, 1.278442
244.4345, 2.640320
244.9166, 3.130615
245.3987, 2.940125
245.8809, 3.057434
246.3630, 4.213745
246.8451, 4.850525
247.3272, 4.048523
247.8093, 2.563538
248.2914, 1.630432
248.7736, 2.050720
249.2557, 3.380310
249.7378, 3.510864
250.2199, 0.3956910
250.7020, 1.467224
251.1841, 0.9413450
251.6663, 0.8936770
252.1484, 2.890991
252.6305, 4.517578
253.1126, 5.754028
253.5947, 6.541870
254.0768, 5.528137
254.5590, 5.750366
255.0411, 8.468628
255.5232, 12.09589
256.0053, 14.75433
256.4874, 15.64844
256.9695, 15.60358
257.4517, 16.64349
257.9338, 20.58533
258.4159, 23.47095
258.8980, 24.76794
259.3801, 25.21674
259.8622, 25.67480
260.3444, 26.42834
260.8265, 27.02576
261.3086, 26.56573
261.7907, 23.60480
262.2728, 21.87488
262.7549, 22.41168
263.2371, 23.71100
263.7192, 24.18799
264.2013, 23.43414
264.6834, 22.30768
265.1655, 22.14282
265.6476, 23.65039
266.1298, 24.39062
266.6119, 23.76990
267.0940, 22.67084
267.5761, 21.76556
268.0582, 21.21021
268.5403, 21.11761
269.0225, 21.85168
269.5046, 23.83453
269.9867, 24.39240
270.4688, 22.01367
270.9509, 19.07587
271.4330, 17.89014
271.9152, 18.65601
272.3973, 19.55145
272.8794, 18.79321
273.3615, 16.21582
273.8436, 13.99976
274.3257, 11.84955
274.8079, 10.29077
275.2900, 10.01990
275.7721, 10.98602
276.2542, 12.10559
276.7363, 12.39874
277.2184, 12.09351
277.7006, 12.89532
278.1827, 15.75830
278.6648, 18.91791
279.1469, 21.00531
279.6290, 22.20129
280.1111, 23.66376
280.5933, 25.92615
281.0754, 29.01990
281.5575, 32.81274
282.0396, 38.20496
282.5217, 43.31128
283.0038, 46.77246
283.4860, 48.79840
283.9681, 50.70856
284.4502, 53.22266
284.9323, 55.93854
285.4144, 58.06580
285.8965, 59.66650
286.3787, 60.52661
286.8608, 60.15210
287.3429, 58.83679
287.8250, 57.73346
288.3071, 57.41388
288.7892, 57.19208
289.2714, 56.07709
289.7535, 54.01074
290.2356, 51.58032
290.7177, 49.04095
291.1998, 46.49670
291.6819, 43.72620
292.1641, 40.41351
292.6462, 37.33154
293.1283, 35.46222
293.6104, 34.67566
294.0925, 34.06732
294.5746, 32.95801
295.0568, 31.80969
295.5389, 31.65149
296.0210, 32.84692
296.5031, 34.46625
296.9852, 35.64545
297.4673, 36.52026
297.9495, 37.47357
298.4316, 38.48236
298.9137, 39.70795
299.3958, 41.63995
299.8779, 44.53320
300.3600, 46.87427
300.8422, 46.81201
301.3243, 45.63434
301.8064, 45.62543
302.2885, 48.28766
302.7706, 51.34192
303.2527, 51.94409
303.7349, 49.93567
304.2170, 47.78638
304.6991, 46.77673
305.1812, 46.21808
305.6633, 45.19031
306.1454, 43.52411
306.6276, 41.54950
307.1097, 39.48151
307.5918, 37.32397
308.0739, 35.06970
308.5560, 32.32660
309.0381, 29.92749
309.5203, 28.95538
310.0024, 29.57239
310.4845, 30.05731
310.9666, 29.01776
311.4487, 26.75739
311.9308, 24.75635
312.4130, 23.16095
312.8951, 22.14825
313.3772, 21.95239
313.8593, 22.47437
314.3414, 23.14185
314.8235, 23.79291
315.3057, 24.37415
315.7878, 24.88757
316.2699, 25.57806
316.7520, 25.57874
317.2341, 23.11926
317.7162, 19.46375
318.1984, 17.53784
318.6805, 19.84076
319.1626, 23.82349
319.6447, 25.22028
320.1268, 23.54395
320.6089, 21.72327
321.0911, 21.15161
321.5732, 21.55664
322.0553, 22.83691
322.5374, 25.55237
323.0195, 28.19812
323.5016, 28.96179
323.9838, 27.83221
324.4659, 26.78772
324.9480, 26.79559
325.4301, 27.10236
325.9122, 26.62524
326.3943, 25.10455
326.8765, 23.85413
327.3586, 23.93256
327.8407, 25.15417
328.3228, 26.57983
328.8049, 28.28986
329.2870, 29.70764
329.7692, 30.19250
330.2513, 29.81665
330.7334, 29.28357
331.2155, 28.76337
331.6976, 28.34229
332.1797, 28.26575
332.6619, 28.63538
333.1440, 29.13623
333.6261, 29.43622
334.1082, 29.65417
334.5903, 30.12024
335.0724, 31.27655
335.5546, 32.55951
336.0367, 33.02014
336.5188, 32.54498
337.0009, 32.43311
337.4830, 33.79187
337.9651, 35.91156
338.4473, 37.41284
338.9294, 37.87982
339.4115, 38.13300
339.8936, 38.78156
340.3757, 39.79138
340.8578, 40.95020
341.3400, 42.44104
341.8221, 43.75751
342.3042, 44.11920
342.7863, 43.38995
343.2684, 42.55890
343.7505, 42.27728
344.2327, 42.24536
344.7148, 41.57172
345.1969, 39.81787
345.6790, 38.06073
346.1611, 38.12103
346.6432, 39.65967
347.1254, 40.08661
347.6075, 37.59259
348.0896, 34.17010
348.5717, 32.52972
349.0538, 32.95392
349.5359, 33.51349
350.0181, 32.83557
350.5002, 31.14752
350.9823, 29.63928
351.4644, 27.68622
351.9465, 26.41919
352.4286, 27.09338
352.9108, 29.29883
353.3929, 31.18677
353.8750, 31.92578
354.3571, 31.76562
354.8392, 31.22144
355.3214, 29.90240
355.8035, 29.09808
356.2856, 29.87183
356.7677, 31.41180
357.2498, 32.10126
357.7319, 31.35931
358.2141, 30.08881
358.6962, 29.55756
359.1783, 29.87177
359.6604, 30.01978
360.1425, 30.10126
360.6246, 29.94434
361.1068, 29.10681
361.5889, 27.64783
362.0710, 26.57672
362.5531, 26.87628
363.0352, 28.50543
363.5173, 29.32275
363.9995, 28.69543
364.4816, 27.96051
364.9637, 27.94580
365.4458, 28.35229
365.9279, 28.23285
366.4100, 26.98102
366.8922, 25.10760
367.3743, 24.31683
367.8564, 25.48444
368.3385, 26.46387
368.8206, 27.10425
369.3027, 27.35199
369.7849, 26.95709
370.2670, 25.88666
370.7491, 24.66937
371.2312, 24.11163
371.7133, 24.71167
372.1954, 24.44800
372.6776, 22.39081
373.1597, 20.32098
373.6418, 19.45453
374.1239, 19.66931
374.6060, 19.96478
375.0881, 19.46582
375.5703, 18.22815
376.0524, 18.08313
376.5345, 20.42072
377.0166, 22.27612
377.4987, 23.01770
377.9808, 22.85083
378.4630, 21.92133
378.9451, 20.28906
379.4272, 18.35156
379.9093, 17.05206
380.3914, 16.63849
380.8735, 16.51270
381.3557, 16.99426
381.8378, 17.47845
382.3199, 17.33539
382.8020, 16.58484
383.2841, 15.91718
383.7662, 16.15881
384.2484, 17.45947
384.7305, 18.61487
385.2126, 19.84442
385.6947, 20.69238
386.1768, 20.95813
386.6589, 20.71857
387.1411, 20.05133
387.6232, 18.87939
388.1053, 17.49829
388.5874, 17.13995
389.0695, 18.79584
389.5516, 19.57678
390.0338, 18.23401
390.5159, 16.17004
390.9980, 14.53864
391.4801, 13.66833
391.9622, 13.41541
392.4443, 13.88342
392.9265, 15.22131
393.4086, 15.86115
393.8907, 15.33093
394.3728, 14.26062
394.8549, 12.62585
395.3370, 10.68268
395.8192, 9.266785
396.3013, 9.186951
396.7834, 10.03925
397.2655, 10.48199
397.7476, 10.40436
398.2297, 10.20068
398.7119, 10.30908
399.1940, 10.34583
399.6761, 9.684509
400.1582, 7.929993
400.6403, 5.964661
401.1224, 4.645569
401.6046, 3.939941
402.0867, 3.515564
402.5688, 3.420349
403.0509, 3.404358
403.5330, 3.080017
404.0151, 2.433105
404.4973, 2.019409
404.9794, 2.483643
405.4615, 3.227905
405.9436, 3.141174
406.4257, 2.040771
406.9078, 0.5664060
407.3900, 0.9925540
407.8721, 2.516541
408.3542, 3.508301
408.8363, 3.737610
409.3184, 3.590820
409.8005, 3.101868
410.2827, 2.392639
410.7648, 1.886536
411.2469, 1.783264
411.7290, 1.957825
412.2111, 2.134888
412.6932, 2.227783
413.1754, 2.528809
413.6575, 3.476257
414.1396, 4.452820
414.6217, 4.837830
415.1038, 4.520630
415.5859, 3.667664
416.0681, 2.317383
416.5502, 0.3641970
417.0323, 0.7972410
417.5144, 0.8774410
417.9965, 0.6111450
418.4786, 6.8480998E-02
418.9608, 0.5780640
419.4429, 1.061218
419.9250, 1.239502
420.4071, 1.188538
420.8892, 1.110046
421.3713, 0.9588620
421.8535, 0.8449100
422.3356, 0.9425660
422.8177, 0.9557500
423.2998, 0.5202030
423.7819, 0.3271480
424.2640, 1.119751
424.7462, 1.338867
425.2283, 0.9384160
425.7104, 0.6470340
426.1925, 0.3089600
426.6746, 0.2745360
427.1567, 0.7595830
427.6389, 1.583313
428.1210, 2.507751
428.6031, 3.448303
429.0852, 4.320740
429.5673, 4.924500
430.0494, 5.198181
430.5316, 5.435791
431.0137, 5.749329
431.4958, 6.014587
431.9779, 6.254211
432.4600, 6.430481
432.9421, 6.254578
433.4243, 4.866516
433.9064, 2.807556
434.3885, 2.720154
434.8706, 5.565613
435.3527, 8.431824
435.8348, 9.491943
436.3170, 9.308899
436.7991, 8.595093
437.2812, 7.020813
437.7633, 5.669067
438.2454, 5.773132
438.7275, 7.138245
439.2097, 8.414856
439.6918, 9.119812
440.1739, 9.557190
440.6560, 10.03137
441.1381, 10.46612
441.6202, 11.47723
442.1024, 14.10760
442.5845, 16.92682
443.0666, 17.81830
443.5487, 16.74896
444.0308, 16.11401
444.5129, 18.00861
444.9951, 22.01788
445.4772, 24.18518
445.9593, 22.19324
446.4414, 21.31122
446.9235, 24.17432
447.4056, 28.85406
447.8878, 32.33722
448.3699, 33.61023
448.8520, 33.96240
449.3341, 35.34607
449.8162, 38.02405
450.2983, 41.08423
450.7805, 45.15564
451.2626, 48.96838
451.7447, 51.50903
452.2268, 53.20984
452.7089, 55.30725
453.1910, 58.63812
453.6732, 62.94550
454.1553, 67.08148
454.6374, 70.51965
455.1195, 74.73914
455.6016, 80.74982
456.0837, 87.01624
456.5659, 92.05957
457.0480, 95.71606
457.5301, 99.04211
458.0122, 103.4966
458.4943, 109.0479
458.9764, 112.9568
459.4586, 114.0840
459.9407, 115.1881
460.4228, 118.1526
460.9049, 121.9241
461.3870, 124.7840
461.8691, 126.3229
462.3513, 126.4415
462.8334, 124.5463
463.3155, 120.7639
463.7976, 117.0204
464.2797, 113.7670
464.7618, 110.6630
465.2440, 107.2889
465.7261, 103.6693
466.2082, 100.0462
466.6903, 97.02399
467.1724, 93.79932
467.6545, 89.08875
468.1367, 82.94690
468.6188, 76.73676
469.1009, 71.22955
469.5830, 66.43988
470.0651, 62.37500
470.5472, 59.88788
471.0294, 56.97217
471.5115, 52.58942
471.9936, 47.66522
472.4757, 43.20917
472.9578, 39.57477
473.4399, 36.89520
473.9221, 35.44739
474.4042, 35.55487
474.8863, 35.21790
475.3684, 34.27753
475.8505, 32.98590
476.3326, 30.80823
476.8148, 28.44012
477.2969, 27.17981
477.7790, 27.70789
478.2611, 29.14679
478.7432, 29.56659
479.2253, 28.58173
479.7075, 27.67419
480.1896, 27.07556
480.6717, 26.52399
481.1538, 25.81372
481.6359, 25.04523
482.1180, 24.52020
482.6002, 24.34601
483.0823, 24.54010
483.5644, 25.46442
484.0465, 27.45575
484.5286, 28.89038
485.0107, 28.29529
485.4929, 27.18427
485.9750, 27.47949
486.4571, 29.60461
486.9392, 31.84448
487.4213, 33.13489
487.9034, 33.78973
488.3856, 34.43311
488.8677, 35.14862
489.3498, 36.00250
489.8319, 37.00482
490.3140, 38.20148
490.7961, 39.74036
491.2783, 40.76917
491.7604, 43.02228
492.2425, 49.10486
492.7246, 56.72430
493.2067, 61.31683
493.6888, 61.27960
494.1710, 58.88159
494.6531, 57.54413
495.1352, 57.70282
495.6173, 57.59515
496.0994, 57.26733
496.5815, 56.67194
497.0637, 55.44067
497.5458, 53.94653
498.0279, 53.08246
498.5100, 53.43512
498.9921, 54.27832
499.4742, 53.59344
499.9564, 50.50476
500.4385, 48.09802
500.9206, 47.18781
501.4027, 46.76715
501.8848, 46.67725
502.3669, 46.65784
502.8491, 45.86932
503.3312, 43.20715
503.8133, 39.48077
504.2954, 37.15588
504.7775, 36.64856
505.2596, 35.59454
505.7418, 32.37872
506.2239, 28.27747
506.7060, 25.09619
507.1881, 23.04907
507.6702, 21.44373
508.1523, 20.36432
508.6345, 19.36548
509.1166, 17.36432
509.5987, 14.18921
510.0808, 11.53729
510.5629, 11.12988
511.0450, 12.65198
511.5272, 12.36633
512.0093, 8.192932
512.4914, 4.921814
512.9735, 4.710876
513.4556, 5.885010
513.9377, 6.281982
514.4199, 5.302734
514.9020, 3.656311
515.3841, 2.187317
515.8662, 0.9055180
516.3483, 0.2415770
516.8304, 1.735046
517.3126, 2.550964
517.7947, 1.762878
518.2768, 0.2948610
518.7589, 0.5718990
519.2410, 0.3299560
519.7231, 0.6744380
520.2053, 2.412964
520.6874, 5.033386
521.1695, 6.050476
521.6516, 4.072449
522.1337, 1.758118
522.6158, 1.013733
523.0980, 1.405334
523.5801, 1.703491
524.0622, 1.604858
524.5443, 1.101196
525.0264, 8.5399998E-04
525.5085, 1.600342
525.9907, 3.087585
526.4728, 4.291809
526.9549, 5.218384
527.4370, 5.744080
527.9191, 5.748230
528.4012, 6.209717
528.8834, 7.311707
529.3655, 8.832825
529.8476, 11.00653
530.3297, 13.49866
530.8118, 15.37763
531.2939, 16.11017
531.7761, 16.13104
532.2582, 16.54529
532.7403, 17.54303
533.2224, 18.58392
533.7045, 20.13324
534.1866, 21.29083
534.6688, 21.27435
535.1509, 20.35632
535.6330, 19.42841
536.1151, 19.03180
536.5972, 19.07275
537.0793, 19.33344
537.5615, 19.84650
538.0436, 20.44238
538.5257, 20.96552
539.0078, 21.65625
539.4899, 22.56293
539.9720, 23.72760
540.4542, 25.60504
540.9363, 29.10510
541.4184, 33.11035
541.9005, 35.79413
542.3826, 37.17444
542.8647, 38.77631
543.3469, 41.36914
543.8290, 44.73499
544.3111, 48.41980
544.7932, 52.59900
545.2753, 56.58832
545.7574, 60.07874
546.2396, 63.51154
546.7217, 67.37524
547.2038, 71.59265
547.6859, 75.66028
548.1680, 79.27612
548.6501, 82.40900
549.1323, 84.90289
549.6144, 86.48682
550.0965, 87.84497
550.5786, 88.92627
551.0607, 89.95258
551.5428, 91.38446
552.0250, 93.03943
552.5071, 93.96729
552.9892, 93.20166
553.4713, 91.29138
553.9534, 89.70715
554.4355, 88.40948
554.9177, 87.66803
555.3998, 87.70728
555.8819, 88.30713
556.3640, 89.06152
556.8461, 89.93109
557.3282, 91.25653
557.8104, 93.74567
558.2925, 96.43335
558.7746, 98.14618
559.2567, 98.87598
559.7388, 99.20770
560.2209, 99.49603
560.7031, 99.64532
561.1852, 99.35297
561.6673, 98.01202
562.1494, 97.08807
562.6315, 97.22992
563.1136, 97.28357
563.5958, 96.70355
564.0779, 95.26733
564.5600, 92.63995
565.0421, 88.44965
565.5242, 83.15131
566.0063, 78.15259
566.4885, 73.44122
566.9706, 69.06659
567.4527, 64.99701
567.9348, 61.36414
568.4169, 58.61328
568.8990, 56.58801
569.3812, 54.10254
569.8633, 50.00232
570.3454, 45.39325
570.8275, 42.15375
571.3096, 40.18097
571.7917, 37.57794
572.2739, 33.19623
572.7560, 28.27325
573.2381, 25.16846
573.7202, 24.41077
574.2023, 23.19330
574.6844, 20.78589
575.1666, 18.19336
575.6487, 16.20697
576.1308, 14.69653
576.6129, 12.92554
577.0950, 10.46246
577.5771, 7.972229
578.0593, 7.097046
578.5414, 8.571472
579.0235, 9.538269
579.5056, 9.634338
579.9877, 9.683716
580.4698, 10.04559
580.9520, 10.52057
581.4341, 10.67413
581.9162, 10.21082
582.3983, 9.610718
582.8804, 9.475830
583.3625, 9.754700
583.8447, 10.19128
584.3268, 10.59680
584.8089, 11.44373
585.2910, 13.41205
585.7731, 16.39801
586.2552, 19.27759
586.7374, 22.65570
587.2195, 25.17798
587.7016, 25.10187
588.1837, 23.95148
588.6658, 24.65741
589.1479, 28.02026
589.6301, 32.04956
590.1122, 34.28149
590.5943, 34.50867
591.0764, 34.83606
591.5585, 34.13495
592.0406, 34.93774
592.5228, 39.32709
593.0049, 44.82874
593.4870, 48.40863
593.9691, 49.32629
594.4512, 49.43066
594.9333, 50.52472
595.4155, 52.30811
595.8976, 53.22351
596.3797, 52.87097
596.8618, 53.11017
597.3439, 55.56458
597.8260, 59.15503
598.3082, 61.23944
598.7903, 61.47540
599.2724, 61.08832
599.7545, 60.20184
600.2366, 59.05676
600.7188, 57.86243
601.2009, 56.66052
601.6830, 55.50946
602.1651, 54.46973
602.6472, 53.44135
603.1293, 52.04932
603.6115, 50.19611
604.0936, 48.13025
604.5757, 46.05731
605.0578, 43.65051
605.5399, 40.49432
606.0220, 36.80688
606.5042, 33.21082
606.9863, 30.04565
607.4684, 27.20374
607.9505, 24.46991
608.4326, 21.84576
608.9147, 19.60492
609.3969, 17.97174
609.8790, 16.46466
610.3611, 14.54462
610.8432, 12.23944
611.3253, 9.971436
611.8074, 7.479370
612.2896, 5.354248
612.7717, 3.984863
613.2538, 3.170105
613.7359, 2.597534
614.2180, 2.161682
614.7001, 1.870422
615.1823, 1.727966
615.6644, 1.731323
616.1465, 1.939087
616.6286, 2.910706
617.1107, 3.282654
617.5928, 2.284241
618.0750, 0.8041380
618.5571, 0.4020390
619.0392, 1.153259
619.5213, 1.306702
620.0034, 0.2237550
620.4855, 1.411499
620.9677, 1.980530
621.4498, 1.389954
621.9319, 0.4785770
622.4140, 0.5233150
622.8961, 1.399109
623.3782, 1.623779
623.8604, 1.023132
624.3425, 0.4105220
624.8246, 0.3118900
625.3067, 0.8604130
625.7888, 0.9008180
626.2709, 0.6013180
626.7531, 0.4167480
627.2352, 0.5872190
627.7173, 0.9283450
628.1994, 1.122803
628.6815, 0.8984990
629.1636, 0.8635250
629.6458, 1.328735
630.1279, 1.896729
630.6100, 2.470093
631.0921, 2.963989
631.5742, 3.172729
632.0563, 2.916931
632.5385, 2.809631
633.0206, 3.414001
633.5027, 4.396729
633.9848, 5.301270
634.4669, 6.058228
634.9490, 6.380676
635.4312, 5.969604
635.9133, 4.934265
636.3954, 4.483276
636.8775, 5.401978
637.3596, 5.996887
637.8417, 5.598694
638.3239, 5.424072
638.8060, 6.807678
639.2881, 9.195129
639.7702, 10.70581
640.2523, 10.01581
640.7344, 8.230896
641.2166, 7.668823
641.6987, 8.451111
642.1808, 8.974182
642.6629, 8.785828
643.1450, 8.385437
643.6271, 8.023621
644.1093, 7.657715
644.5914, 7.549622
645.0735, 8.158569
645.5556, 8.842468
646.0377, 9.283081
646.5198, 9.365356
647.0020, 8.977356
647.4841, 8.238892
647.9662, 7.872437
648.4483, 8.664001
648.9304, 10.45599
649.4125, 11.30249
649.8947, 10.19342
650.3768, 9.480896
650.8589, 10.34705
651.3410, 11.37250
651.8231, 11.47620
652.3052, 10.82599
652.7874, 10.27496
653.2695, 9.949280
653.7516, 9.936462
654.2337, 11.01141
654.7158, 12.79559
655.1979, 13.02374
655.6801, 10.86218
656.1622, 8.561157
656.6443, 8.533142
657.1264, 10.85162
657.6085, 12.80304
658.0906, 15.13824
658.5728, 16.30975
659.0549, 15.37897
659.5370, 13.49146
660.0191, 11.46838
660.5012, 9.558105
660.9833, 8.206482
661.4655, 7.954651
661.9476, 8.457397
662.4297, 8.526917
662.9118, 8.047058
663.3939, 7.874756
663.8760, 8.464905
664.3582, 9.251099
664.8403, 9.521057
665.3224, 9.324768
665.8045, 9.169495
666.2866, 9.076782
666.7687, 9.092468
667.2509, 9.470764
667.7330, 9.894836
668.2151, 9.703125
668.6972, 8.795166
669.1793, 7.933960
669.6614, 8.002625
670.1436, 8.899109
670.6257, 9.111328
671.1078, 8.334167
671.5899, 7.502869
672.0720, 6.139587
672.5541, 5.339661
673.0363, 6.632141
673.5184, 9.776550
674.0005, 11.88342
674.4826, 11.23761
674.9647, 9.389404
675.4468, 7.337830
675.9290, 5.356995
676.4111, 4.315918
676.8932, 4.489868
677.3753, 5.150330
677.8574, 5.419617
678.3395, 5.243347
678.8217, 5.709900
679.3038, 7.996765
679.7859, 9.415405
680.2680, 9.008118
680.7501, 7.871460
681.2322, 7.023560
681.7144, 6.561707
682.1965, 5.873657
682.6786, 4.070740
683.1607, 2.145752
683.6428, 2.298096
684.1249, 4.188293
684.6071, 4.547791
685.0892, 1.949524
685.5713, 0.8300780
686.0534, 0.2912600
686.5355, 3.864807
687.0176, 5.923157
687.4998, 4.221008
687.9819, 2.700073
688.4640, 2.565369
688.9461, 2.947693
689.4282, 2.730896
689.9103, 1.939453
690.3925, 1.766479
690.8746, 3.649597
691.3567, 6.264832
691.8388, 5.817566
692.3209, 2.139282
692.8030, 4.3884002E-02
693.2852, 1.057251
693.7673, 3.031189
694.2494, 3.488159
694.7315, 2.498840
695.2136, 1.451538
695.6957, 4.7180001E-02
696.1779, 0.9859010
696.6600, 1.369812
697.1421, 1.272095
697.6242, 0.5556030
698.1063, 0.5571290
698.5884, 1.173523
699.0706, 0.5159910
699.5527, 0.9554440
700.0348, 2.048279
700.5169, 2.809753
700.9990, 2.773071
701.4811, 1.274048
701.9633, 0.2413940
702.4454, 8.9294001E-02
702.9275, 1.125122
703.4096, 1.296814
703.8917, 0.7978520
704.3738, 2.671204
704.8560, 3.564026
705.3381, 3.522095
705.8202, 1.933472
706.3023, 0.7526250
706.7844, 2.445251
707.2665, 1.576843
707.7487, 0.7873540
708.2308, 1.729431
708.7129, 1.014648
709.1950, 0.1210940
709.6771, 2.229431
710.1592, 3.803589
710.6414, 3.483215
711.1235, 2.015320
711.6056, 0.9414060
712.0877, 0.5084840
712.5698, 0.4933470
713.0519, 1.658142
713.5341, 2.657043
714.0162, 1.245300
714.4983, 2.109375
714.9804, 4.739807
715.4625, 5.118713
715.9446, 3.988525
716.4268, 2.721191
716.9089, 1.070801
717.3910, 0.4470210
717.8731, 1.780640
718.3552, 2.916199
718.8373, 2.508240
719.3195, 1.428711
719.8016, 0.8538210
720.2837, 0.9387820
720.7658, 1.594299
721.2479, 3.602905
721.7300, 5.575134
722.2122, 5.734863
722.6943, 4.444946
723.1764, 3.177063
723.6585, 2.565613
724.1406, 2.501831
724.6227, 2.874268
725.1049, 3.731934
725.5870, 4.586243
726.0691, 5.389832
726.5512, 6.258850
727.0333, 7.496887
727.5154, 8.651611
727.9976, 9.160828
728.4797, 8.991028
728.9618, 8.802917
729.4439, 8.828552
729.9260, 8.987854
730.4081, 9.351868
730.8903, 9.772705
731.3724, 9.840332
731.8545, 9.457092
732.3366, 8.985779
732.8187, 8.726685
733.3008, 8.727783
733.7830, 9.755371
734.2651, 12.95197
734.7472, 14.69598
735.2293, 12.56604
735.7114, 10.03735
736.1935, 9.774475
736.6757, 11.36798
737.1578, 12.57788
737.6399, 12.59125
738.1220, 12.26117
738.6041, 12.29968
739.0862, 12.22156
739.5684, 10.87030
740.0505, 8.385010
740.5326, 6.541199
741.0147, 6.678711
741.4968, 8.237549
741.9789, 9.580200
742.4611, 10.81854
742.9432, 11.29120
743.4253, 10.10175
743.9074, 9.095886
744.3895, 9.592468
744.8716, 10.82343
745.3538, 11.60461
745.8359, 11.78754
746.3180, 11.41058
746.8001, 9.696960
747.2822, 8.010437
747.7643, 8.212524
748.2465, 9.769836
748.7286, 10.64435
749.2107, 9.872925
749.6928, 8.387146
750.1749, 7.551819
750.6570, 7.343384
751.1392, 7.138367
751.6213, 6.822754
752.1034, 6.707642
752.5855, 7.017700
753.0676, 7.498352
753.5497, 7.906860
754.0319, 8.246582
754.5140, 8.191895
754.9961, 7.444885
755.4782, 6.591187
755.9603, 5.628784
756.4424, 4.896729
756.9246, 5.129333
757.4067, 6.274536
757.8888, 7.245850
758.3709, 6.976135
758.8530, 6.043152
759.3351, 6.521118
759.8173, 8.615906
760.2994, 10.28558
760.7815, 11.17053
761.2636, 11.29919
761.7457, 10.37653
762.2278, 8.654846
762.7100, 7.650757
763.1921, 7.571533
763.6742, 7.891418
764.1563, 8.682678
764.6384, 9.524658
765.1205, 10.33429
765.6027, 11.12268
766.0848, 11.59918
766.5669, 11.59430
767.0490, 11.63647
767.5311, 12.93713
768.0132, 15.05151
768.4954, 15.01373
768.9775, 12.40857
769.4596, 10.33087
769.9417, 10.30316
770.4238, 11.47534
770.9059, 12.33759
771.3881, 12.69440
771.8702, 13.74597
772.3523, 16.12201
772.8344, 18.45233
773.3165, 20.34906
773.7986, 21.88208
774.2808, 23.12799
774.7629, 24.09320
775.2450, 24.90521
775.7271, 26.04767
776.2092, 26.79260
776.6913, 25.58691
777.1735, 22.94226
777.6556, 21.16010
778.1377, 20.81097
778.6198, 20.68909
779.1019, 19.69257
779.5840, 18.08105
780.0662, 17.33087
780.5483, 18.36725
781.0304, 18.47992
781.5125, 16.52521
781.9946, 14.63104
782.4767, 14.15967
782.9589, 14.41168
783.4410, 13.90118
783.9231, 12.10162
784.4052, 10.37274
784.8873, 9.832153
785.3694, 9.613159
785.8516, 8.425781
786.3337, 6.561829
786.8158, 5.062012
787.2979, 4.355835
787.7800, 4.529724
788.2621, 3.922058
788.7443, 6.085938
789.2264, 7.148621
789.7085, 7.168640
790.1906, 3.020874
790.6727, 4.255432
791.1548, 3.333252
791.6370, 2.322815
792.1191, 4.315735
792.6012, 2.024475
793.0833, 1.534302
793.5654, 0.9105220
794.0475, 0.3499150
794.5297, 0.3278810
795.0118, 1.674011
795.4939, 3.363525
795.9760, 4.223572
796.4581, 3.552795
796.9402, 2.142151
797.4224, 1.275940
797.9045, 0.7907710
798.3866, 0.7985230
798.8687, 3.856140
799.3508, 5.605408
799.8329, 4.173218
800.3151, 1.293640
800.7972, 0.2170410
801.2793, 1.496765
801.7614, 2.418762
802.2435, 3.061035
802.7256, 3.296997
803.2078, 2.358093
803.6899, 1.473877
804.1720, 1.815735
804.6541, 3.518188
805.1362, 6.207397
805.6183, 10.35693
806.1005, 14.61243
806.5826, 17.60315
807.0647, 19.59601
807.5468, 21.02588
808.0289, 22.04138
808.5110, 22.91376
808.9932, 23.75940
809.4753, 24.85675
809.9574, 27.27960
810.4395, 31.71997
810.9216, 34.27771
811.4037, 33.59253
811.8859, 32.94891
812.3680, 34.88348
812.8501, 37.41467
813.3322, 37.31873
813.8143, 33.99219
814.2964, 31.50989
814.7786, 31.70026
815.2607, 32.02490
815.7428, 30.54431
816.2249, 28.49036
816.7070, 27.88928
817.1891, 28.92340
817.6713, 30.00055
818.1534, 29.83429
818.6355, 29.06830
819.1176, 28.70776
819.5997, 28.80554
820.0818, 30.15137
820.5640, 33.07471
821.0461, 35.46460
821.5282, 35.70502
822.0103, 34.45605
822.4924, 33.66687
822.9745, 33.06525
823.4567, 33.53485
823.9388, 35.75415
824.4209, 38.26807
824.9030, 41.05927
825.3851, 43.61932
825.8672, 44.81940
826.3494, 44.58710
826.8315, 45.63141
827.3136, 50.53998
827.7957, 56.00159
828.2778, 59.24219
828.7599, 60.99493
829.2421, 62.48309
829.7242, 64.05682
830.2063, 65.80225
830.6884, 67.78394
831.1705, 70.01331
831.6526, 72.55890
832.1348, 75.40729
832.6169, 78.53143
833.0990, 82.20776
833.5811, 85.11395
834.0632, 86.01605
834.5453, 85.97278
835.0275, 87.46991
835.5096, 91.42938
835.9917, 94.46741
836.4738, 95.51178
836.9559, 96.58398
837.4380, 98.43939
837.9202, 100.3284
838.4023, 100.7405
838.8844, 99.67542
839.3665, 97.76300
839.8486, 94.68335
840.3307, 91.42932
840.8129, 89.34192
841.2950, 87.80957
841.7771, 85.58838
842.2592, 82.53589
842.7413, 78.96619
843.2234, 75.00867
843.7056, 71.31329
844.1877, 69.52368
844.6698, 69.92529
845.1519, 69.83813
845.6340, 68.96747
846.1161, 68.00555
846.5983, 67.12640
847.0804, 66.12451
847.5625, 64.86865
848.0446, 63.32532
848.5267, 62.78912
849.0089, 64.83252
849.4910, 65.92523
849.9731, 64.02661
850.4552, 61.57617
850.9373, 60.54309
851.4194, 61.00543
851.9016, 62.35522
852.3837, 64.46252
852.8658, 66.90314
853.3479, 69.22504
853.8300, 71.67090
854.3121, 74.86774
854.7943, 78.68298
855.2764, 82.10455
855.7585, 84.66516
856.2406, 87.41980
856.7227, 92.05634
857.2048, 98.29626
857.6870, 102.5306
858.1691, 104.0120
858.6512, 106.5333
859.1333, 112.0621
859.6154, 117.2175
860.0975, 118.3299
860.5797, 116.3257
861.0618, 116.6113
861.5439, 121.4813
862.0260, 124.7576
862.5081, 124.7830
862.9902, 124.0805
863.4724, 122.8348
863.9545, 122.4082
864.4366, 125.7352
864.9187, 133.3777
865.4008, 139.4866
865.8829, 140.9689
866.3651, 138.3200
866.8472, 129.9847
867.3293, 118.3660
867.8114, 108.7339
868.2935, 102.3003
868.7756, 98.00134
869.2578, 95.29431
869.7399, 93.29468
870.2220, 89.64130
870.7041, 84.23834
871.1862, 79.07825
871.6683, 74.11688
872.1505, 70.32465
872.6326, 68.93213
873.1147, 68.15656
873.5968, 64.53412
874.0789, 56.96478
874.5610, 52.53448
875.0432, 54.39917
875.5253, 55.13531
876.0074, 52.01276
876.4895, 47.95111
876.9716, 45.52167
877.4537, 44.44592
877.9359, 42.79633
878.4180, 34.07520
878.9001, 39.50446
879.3822, 41.99402
879.8643, 41.70166
880.3464, 30.29498
880.8286, 33.24005
881.3107, 30.43390
881.7928, 27.39203
882.2749, 32.35809
882.7570, 22.56879
883.2391, 27.40820
883.7213, 26.40784
884.2034, 28.08032
884.6855, 23.96588
885.1676, 21.63953
885.6497, 25.10260
886.1318, 25.36041
886.6140, 20.58032
887.0961, 22.42395
887.5782, 12.43378
888.0603, 12.82770
888.5424, 17.70190
889.0245, 13.21313
889.5067, 15.16187
889.9888, 14.65906
890.4709, 3.012512
890.9530, 10.74536
891.4351, 10.09717
891.9172, 0.8437500
892.3994, 7.912415
892.8815, 0.1539920
893.3636, 2.817810
893.8457, 1.416870
894.3278, 4.254272
894.8099, 0.4102780
895.2921, 3.009460
895.7742, 1.577576
896.2563, 2.334717
896.7384, 4.029175
897.2205, 4.482483
897.7026, 3.847351
898.1848, 3.102783
898.6669, 2.561646
899.1490, 2.091187
899.6311, 1.547974
900.1132, 0.9808960
900.5953, 0.4735110
901.0775, 3.0640000E-02
901.5596, 0.3302610
902.0417, 1.995239
902.5238, 3.557495
903.0059, 4.428650
903.4880, 4.414734
903.9702, 2.930054
904.4523, 0.5846560
904.9344, 3.288208
905.4165, 4.638245
905.8986, 5.867249
906.3807, 7.638550
906.8629, 9.101379
907.3450, 9.009399
907.8271, 7.861145
908.3092, 7.834778
908.7913, 10.15820
909.2734, 12.28949
909.7556, 12.57648
910.2377, 12.64630
910.7198, 14.14166
911.2019, 16.51331
911.6840, 18.59003
912.1661, 19.97961
912.6483, 20.76416
913.1304, 20.68884
913.6125, 20.33948
914.0946, 20.58960
914.5767, 21.37897
915.0588, 22.76300
915.5410, 24.64148
916.0231, 25.97644
916.5052, 26.07013
916.9873, 25.51373
917.4694, 25.73676
917.9515, 26.82489
918.4337, 25.76923
918.9158, 21.79291
919.3979, 19.22028
919.8800, 19.75476
920.3621, 21.85193
920.8442, 24.33588
921.3264, 27.04187
921.8085, 28.11047
922.2906, 26.31091
922.7727, 24.88483
923.2548, 23.51245
923.7369, 23.03015
924.2191, 24.22198
924.7012, 26.39105
925.1833, 28.65009
925.6654, 30.91846
926.1475, 32.74451
926.6296, 33.56274
927.1118, 34.40314
927.5939, 35.37231
928.0760, 36.93359
928.5581, 40.12671
929.0402, 44.39172
929.5223, 47.76337
930.0045, 49.29578
930.4866, 50.39691
930.9687, 52.35120
931.4508, 54.70599
931.9329, 56.49457
932.4150, 58.04767
932.8972, 60.58032
933.3793, 64.36920
933.8614, 68.58618
934.3435, 72.45483
934.8256, 76.33044
935.3077, 81.23926
935.7899, 87.06287
936.2720, 93.07550
936.7541, 99.17963
937.2362, 104.9979
937.7183, 110.1331
938.2004, 115.6921
938.6826, 123.3817
939.1647, 133.2565
939.6468, 143.7564
940.1289, 154.3542
940.6110, 166.1729
941.0931, 179.2031
941.5753, 193.6523
942.0574, 209.9320
942.5395, 227.8193
943.0216, 246.5901
943.5037, 265.6058
943.9858, 287.0563
944.4680, 311.1353
944.9501, 337.6060
945.4322, 366.0372
945.9143, 397.2070
946.3964, 432.4935
946.8785, 471.5107
947.3607, 511.9813
947.8428, 554.6996
948.3249, 596.1907
948.8070, 636.3203
949.2891, 672.7716
949.7712, 705.0117
950.2534, 731.1597
950.7355, 748.5176
951.2176, 755.9028
951.6997, 751.5295
952.1818, 731.5183
952.6639, 701.4561
953.1461, 665.8109
953.6282, 626.1577
954.1103, 584.9568
954.5924, 542.7985
955.0745, 500.3978
955.5566, 457.8480
956.0388, 417.1923
956.5209, 380.5599
957.0030, 347.9023
957.4851, 319.0194
957.9672, 293.7816
958.4493, 273.0022
958.9315, 257.1749
959.4136, 242.4008
959.8957, 225.4649
960.3778, 207.9008
960.8599, 193.8696
961.3420, 184.2025
961.8242, 174.3049
962.3063, 163.3494
962.7884, 154.6549
963.2705, 150.3361
963.7526, 147.3720
964.2347, 142.5051
964.7169, 136.1833
965.1990, 131.6695
965.6811, 130.7985
966.1632, 128.9482
966.6453, 125.3583
967.1274, 121.6603
967.6096, 119.1049
968.0917, 116.4775
968.5738, 111.3336
969.0559, 103.8177
969.5380, 99.14862
970.0201, 101.7739
970.5023, 103.1416
970.9844, 99.66772
971.4665, 94.25555
971.9486, 87.94006
972.4307, 81.92297
972.9128, 78.35089
973.3950, 77.72052
973.8771, 76.89630
974.3592, 73.12915
974.8413, 69.24792
975.3234, 69.26465
975.8055, 69.92328
976.2877, 65.18622
976.7698, 56.08667
977.2519, 48.90369
977.7340, 46.60724
978.2161, 45.90149
978.6982, 43.63550
979.1804, 40.31866
979.6625, 36.25061
980.1446, 32.02155
980.6267, 29.74365
981.1088, 29.70776
981.5909, 30.30225
982.0731, 30.55597
982.5552, 30.00732
983.0373, 27.17395
983.5194, 22.55310
984.0015, 20.12286
984.4836, 19.98242
984.9658, 18.95587
985.4479, 15.93439
985.9300, 12.77515
986.4121, 11.19244
986.8942, 10.82886
987.3763, 10.48474
987.8585, 10.18091
988.3406, 9.671387
988.8227, 8.758789
989.3048, 8.367310
989.7869, 9.235474
990.2690, 10.13409
990.7512, 9.615601
991.2333, 7.750854
991.7154, 5.344177
992.1975, 1.489319
992.6796, 0.9732060
993.1617, 1.327454
993.6439, 0.9923100
994.1260, 0.4282840
994.6081, 0.3310550
995.0902, 1.577515
995.5723, 3.383057
996.0544, 3.685364
996.5366, 0.4077760
997.0187, 1.500549
997.5008, 0.1159060
997.9829, 1.937378
998.4650, 1.835205
998.9471, 0.5939330
999.4293, 0.6148070
999.9114, 1.691101
1000.393, 1.524353
1000.876, 1.189026
1001.358, 3.933655
1001.840, 5.813538
1002.322, 7.119446
1002.804, 8.279602
1003.286, 9.073853
1003.768, 8.852722
1004.250, 7.395630
1004.733, 5.744324
1005.215, 4.470825
1005.697, 3.201843
1006.179, 1.453369
1006.661, 0.3173220
1007.143, 1.342346
1007.625, 1.809082
1008.107, 2.722412
1008.589, 4.565552
1009.072, 6.006531
1009.554, 6.269287
1010.036, 5.244324
1010.518, 1.717590
1011.000, 2.808960
1011.482, 5.286438
1011.964, 5.520386
1012.446, 5.319885
1012.929, 5.607849
1013.411, 6.508240
1013.893, 8.390259
1014.375, 10.88239
1014.857, 13.51453
1015.339, 16.08124
1015.821, 17.83069
1016.303, 18.70746
1016.785, 19.73419
1017.268, 21.64001
1017.750, 22.93439
1018.232, 25.49847
1018.714, 26.71484
1019.196, 28.71094
1019.678, 31.41760
1020.160, 34.10699
1020.642, 36.58264
1021.125, 38.21490
1021.607, 38.29126
1022.089, 38.00079
1022.571, 40.60388
1023.053, 45.88251
1023.535, 48.94690
1024.017, 49.53571
1024.499, 50.22699
1024.981, 51.86487
1025.464, 53.53973
1025.946, 54.31305
1026.428, 54.68634
1026.910, 56.65851
1027.392, 60.73285
1027.874, 62.51202
1028.356, 61.23853
1028.838, 58.44965
1029.321, 54.11877
1029.803, 50.10175
1030.285, 48.32965
1030.767, 48.27979
1031.249, 47.58704
1031.731, 45.99365
1032.213, 44.69421
1032.695, 43.67609
1033.177, 43.22131
1033.660, 44.29449
1034.142, 44.47174
1034.624, 40.59625
1035.106, 33.57458
1035.588, 29.32330
1036.070, 29.38770
1036.552, 28.48383
1037.034, 25.80127
1037.516, 23.42108
1037.999, 22.65289
1038.481, 21.95575
1038.963, 18.85059
1039.445, 14.02209
1039.927, 12.89313
1040.409, 20.16614
1040.891, 22.80255
1041.373, 16.50165
1041.855, 10.98358
1042.338, 10.39972
1042.820, 11.88110
1043.302, 13.09766
1043.784, 13.92023
1044.266, 13.45764
1044.748, 10.00116
1045.230, 8.103821
1045.712, 8.975769
1046.195, 10.27808
1046.677, 12.14160
1047.159, 13.22882
1047.641, 11.17804
1048.123, 6.669983
1048.605, 4.541443
1049.087, 7.101135
1049.569, 8.770630
1050.052, 8.652100
1050.534, 7.523315
1051.016, 4.670288
1051.498, 1.909546
1051.980, 1.320557
1052.462, 2.740784
1052.944, 4.366333
1053.426, 5.954407
1053.908, 7.585327
1054.391, 9.563599
1054.873, 11.13898
1055.355, 12.54761
1055.837, 13.25140
1056.319, 12.32697
1056.801, 10.13263
1057.283, 8.487793
1057.765, 7.830200
1058.248, 7.775330
1058.730, 8.281921
1059.212, 9.354553
1059.694, 11.76428
1060.176, 14.28333
1060.658, 14.80078
1061.140, 14.00000
1061.622, 15.52826
1062.104, 21.57721
1062.587, 26.51318
1063.069, 26.30994
1063.551, 26.66937
1064.033, 33.85510
1064.515, 41.32373
1064.997, 39.99347
1065.479, 31.64923
1065.961, 25.66681
1066.443, 25.08038
1066.926, 25.55829
1067.408, 26.20233
1067.890, 26.62958
1068.372, 26.82886
1068.854, 26.61517
1069.336, 25.69885
1069.818, 24.22504
1070.300, 22.48444
1070.782, 20.33899
1071.265, 19.00928
1071.747, 19.65692
1072.229, 20.54834
1072.711, 20.67822
1073.193, 20.54425
1073.675, 20.68140
1074.157, 20.92444
1074.639, 20.41156
1075.122, 18.86932
1075.604, 17.43048
1076.086, 16.85901
1076.568, 16.12244
1077.050, 14.90930
1077.532, 13.09546
1078.014, 9.943237
1078.496, 6.212280
1078.979, 3.679443
1079.461, 2.816711
1079.943, 2.860840
1080.425, 4.268066
1080.907, 5.309814
1081.389, 4.579102
1081.871, 3.410339
1082.353, 3.197571
1082.835, 3.554688
1083.318, 3.636597
1083.800, 3.191467
1084.282, 1.900208
1084.764, 2.283264
1085.246, 4.704712
1085.728, 1.458008
1086.210, 2.981384
1086.692, 4.049561
1087.175, 3.288208
1087.657, 3.964233
1088.139, 6.549500
1088.621, 8.984741
1089.103, 10.25861
1089.585, 11.59045
1090.067, 13.33582
1090.549, 15.48297
1091.031, 18.48926
1091.514, 21.62415
1091.996, 23.32184
1092.478, 23.74042
1092.960, 25.63574
1093.442, 30.86444
1093.924, 35.92230
1094.406, 39.87787
1094.888, 42.89178
1095.370, 40.12061
1095.853, 47.46533
1096.335, 51.87378
1096.817, 53.49268
1097.299, 43.99457
1097.781, 48.84875
1098.263, 47.95111
1098.745, 46.81799
1099.227, 53.69238
1099.709, 45.81110
1100.192, 52.56036
1100.674, 53.46851
1101.156, 57.04944
1101.638, 54.84296
1102.120, 50.64343
1102.602, 50.03857
1103.084, 55.31519
1103.566, 57.47876
1104.049, 54.69928
1104.531, 58.63409
1105.013, 50.82721
1105.495, 53.49719
1105.977, 60.73993
1106.459, 58.71185
1106.941, 53.68091
1107.423, 56.99402
1107.906, 59.78693
1108.388, 61.96313
1108.870, 63.35638
1109.352, 62.73346
1109.834, 61.74426
1110.316, 63.87952
1110.798, 69.58789
1111.280, 72.67145
1111.762, 70.30829
1112.245, 68.86176
1112.727, 69.41595
1113.209, 70.70673
1113.691, 73.52985
1114.173, 75.86041
1114.655, 74.52502
1115.137, 69.85962
1115.619, 66.46857
1116.102, 65.49420
1116.584, 63.76776
1117.066, 60.89410
1117.548, 57.74402
1118.030, 53.98560
1118.512, 50.76740
1118.994, 49.87079
1119.476, 50.31677
1119.958, 47.98395
1120.441, 41.58319
1120.923, 36.50360
1121.405, 33.04260
1121.887, 30.31219
1122.369, 28.17365
1122.851, 26.65924
1123.333, 26.17249
1123.815, 25.94525
1124.297, 24.16431
1124.780, 20.68878
1125.262, 17.50751
1125.744, 14.44244
1126.226, 12.49292
1126.708, 12.06287
1127.190, 12.06885
1127.672, 12.09882
1128.154, 11.78394
1128.636, 10.60168
1129.119, 8.565979
1129.601, 5.397888
1130.083, 0.7598270
1130.565, 1.067505
1131.047, 0.6994630
1131.529, 1.844727
1132.011, 0.5783690
1132.493, 1.224792
1132.976, 1.715271
1133.458, 1.191406
1133.940, 0.2755130
1134.422, 0.9566650
1134.904, 1.420593
1135.386, 1.102539
1135.868, 0.7989500
1136.350, 0.7193600
1136.833, 0.1343990
1137.315, 1.592041
1137.797, 3.325317
1138.279, 2.816528
1138.761, 0.7958980
1139.243, 0.3662110
1139.725, 0.7190550
1140.207, 0.2497560
1140.689, 0.8350830
1141.172, 1.241455
1141.654, 0.3693850
1142.136, 0.4070430
1142.618, 0.9031370
1143.100, 0.3872070
1143.582, 2.438660
1144.064, 0.7632450
1144.546, 0.4577640
1145.029, 1.253418
1145.511, 1.452332
1145.993, 0.6115720
1146.475, 0.3701170
1146.957, 0.9501340
1147.439, 1.244995
1147.921, 1.185242
1148.403, 1.061462
1148.885, 1.195435
1149.368, 1.535889
1149.850, 1.866699
1150.332, 2.236938
1150.814, 3.113586
1151.296, 4.873596
1151.778, 6.048584
1152.260, 5.508606
1152.742, 4.399353
1153.224, 2.454529
1153.707, 1.201416
1154.189, 3.073608
1154.671, 6.649963
1155.153, 8.223694
1155.635, 7.036255
1156.117, 6.663635
1156.599, 9.255920
1157.081, 11.37665
1157.563, 11.24786
1158.046, 11.12842
1158.528, 12.69312
1159.010, 14.92664
1159.492, 16.57043
1159.974, 17.53571
1160.456, 17.87366
1160.938, 17.08392
1161.420, 16.63519
1161.903, 17.24750
1162.385, 17.19214
1162.867, 14.91797
1163.349, 13.13806
1163.831, 14.77191
1164.313, 13.29553
1164.795, 18.11255
1165.277, 14.37683
1165.760, 13.68219
1166.242, 17.27911
1166.724, 19.87390
1167.206, 20.58038
1167.688, 20.47021
1168.170, 19.89209
1168.652, 19.27979
1169.134, 19.22516
1169.616, 19.64630
1170.099, 20.38550
1170.581, 21.46075
1171.063, 20.82111
1171.545, 18.33252
1172.027, 15.78607
1172.509, 13.69104
1172.991, 13.18292
1173.473, 15.35400
1173.956, 18.33527
1174.438, 18.80408
1174.920, 17.46631
1175.402, 16.54095
1175.884, 15.86938
1176.366, 14.44507
1176.848, 12.44977
1177.330, 11.61859
1177.813, 12.66504
1178.295, 14.34528
1178.777, 16.15350
1179.259, 17.16980
1179.741, 15.11951
1180.223, 12.35919
1180.705, 13.04346
1181.187, 15.51862
1181.669, 15.40106
1182.151, 12.44116
1182.634, 10.39960
1183.116, 11.13177
1183.598, 12.37811
1184.080, 13.29285
1184.562, 13.74164
1185.044, 13.23645
1185.526, 12.56720
1186.008, 12.44159
1186.490, 12.81897
1186.973, 13.50604
1187.455, 14.47333
1187.937, 15.19293
1188.419, 15.92493
1188.901, 15.81189
1189.383, 13.38806
1189.865, 11.47852
1190.347, 11.96936
1190.830, 13.11603
1191.312, 13.14465
1191.794, 12.35291
1192.276, 11.97784
1192.758, 12.00293
1193.240, 12.67297
1193.722, 14.40173
1194.204, 15.08429
1194.687, 14.02466
1195.169, 12.65161
1195.651, 11.97339
1196.133, 11.84210
1196.615, 11.57806
1197.097, 11.15637
1197.579, 11.64630
1198.061, 12.82355
1198.543, 12.51666
1199.026, 10.71960
1199.508, 9.333557
1199.990, 8.982605
1200.472, 9.787109
1200.954, 12.26605
1201.436, 14.76099
1201.918, 15.40778
1202.400, 14.50006
1202.883, 11.85223
1203.365, 8.573792
1203.847, 7.358215
1204.329, 7.995117
1204.811, 8.257141
1205.293, 7.353638
1205.775, 6.480713
1206.257, 6.699768
1206.740, 5.351990
1207.222, 6.583435
1207.704, 7.115051
1208.186, 6.986511
1208.668, 4.116699
1209.150, 4.869141
1209.632, 4.216248
1210.114, 3.538208
1210.596, 4.895142
1211.078, 2.588440
1211.561, 3.965332
1212.043, 3.920654
1212.525, 4.569275
1213.007, 3.792847
1213.489, 3.495178
1213.971, 2.316040
1214.453, 2.973816
1214.935, 2.539551
1215.417, 2.407837
1215.900, 3.599121
1216.382, 2.759399
1216.864, 4.135437
1217.346, 4.988586
1217.828, 4.398254
1218.310, 3.354675
1218.792, 2.504456
1219.274, 2.128296
1219.757, 3.303040
1220.239, 5.303223
1220.721, 3.756287
1221.203, 0.3043820
1221.685, 1.358154
1222.167, 0.6855470
1222.649, 1.943726
1223.131, 1.185486
1223.614, 1.098389
1224.096, 4.252441
1224.578, 7.292419
1225.060, 5.313538
1225.542, 2.220642
1226.024, 3.228516
1226.506, 6.053772
1226.988, 6.728455
1227.470, 5.563293
1227.953, 5.268188
1228.435, 6.730103
1228.917, 7.601746
1229.399, 6.097961
1229.881, 5.191040
1230.363, 6.880737
1230.845, 8.235596
1231.327, 9.732178
1231.810, 10.49316
1232.292, 10.55780
1232.774, 7.843262
1233.256, 8.716187
1233.738, 8.150635
1234.220, 7.525146
1234.702, 8.901001
1235.184, 6.587280
1235.667, 7.929993
1236.149, 7.811829
1236.631, 8.360962
1237.113, 7.462769
1237.595, 7.010742
1238.077, 8.004578
1238.559, 8.197815
1239.041, 7.131653
1239.523, 7.719360
1240.005, 5.345093
1240.488, 5.565857
1240.970, 6.906555
1241.452, 5.899292
1241.934, 6.494995
1242.416, 6.477722
1242.898, 3.674866
1243.380, 5.716858
1243.862, 5.664978
1244.344, 3.462463
1244.827, 5.342407
1245.309, 3.437805
1245.791, 2.878479
1246.273, 3.323608
1246.755, 2.717834
1247.237, 0.4420780
1247.719, 8.5510001E-02
1248.201, 2.282837
1248.684, 3.885681
1249.166, 4.012756
1249.648, 3.251770
1250.130, 1.294250
1250.612, 0.6980590
1251.094, 1.033386
1251.576, 2.1970000E-03
1252.058, 0.5655520
1252.541, 0.7014160
1253.023, 0.4279170
1253.505, 3.248657
1253.987, 5.164429
1254.469, 5.136963
1254.951, 3.295532
1255.433, 0.5834960
1255.915, 4.230713
1256.397, 5.018982
1256.880, 4.126282
1257.362, 3.715454
1257.844, 3.645569
1258.326, 3.713623
1258.808, 4.008911
1259.290, 5.044312
1259.772, 6.668701
1260.254, 7.914307
1260.737, 8.359497
1261.219, 8.573975
1261.701, 8.244568
1262.183, 8.556885
1262.665, 9.874817
1263.147, 12.21240
1263.629, 16.56177
1264.111, 21.41425
1264.594, 24.81830
1265.076, 26.81439
1265.558, 27.81775
1266.040, 27.41998
1266.522, 27.13727
1267.004, 26.93030
1267.486, 27.74841
1267.968, 29.56750
1268.450, 30.25305
1268.932, 30.25635
1269.415, 29.37976
1269.897, 26.11230
1270.379, 22.30060
1270.861, 19.85309
1271.343, 17.46045
1271.825, 18.06396
1272.307, 20.58374
1272.789, 22.33917
1273.271, 22.44312
1273.754, 21.84766
1274.236, 20.59137
1274.718, 16.58246
1275.200, 16.18311
1275.682, 14.36407
1276.164, 12.50623
1276.646, 12.67786
1277.128, 9.195068
1277.611, 9.442322
1278.093, 8.500183
1278.575, 8.375122
1279.057, 6.872498
1279.539, 5.884460
1280.021, 6.408447
1280.503, 6.209351
1280.985, 4.853394
1281.468, 5.289307
1281.950, 2.921631
1282.432, 3.278442
1282.914, 4.907227
1283.396, 4.394775
1283.878, 5.738342
1284.360, 6.793396
1284.842, 1.190613
1285.324, 0.0000000E+00
##END=



