##NAMES=Luetheite
##RRUFFID=R060088
##IDEAL CHEMISTRY=Cu^2+^_2_Al_2_(As^5+^O_4_)_2_(OH)_4_&#183;H_2_O
##LOCALITY=Alum Gulch, Patagonia, Arizona, USA
##OWNER=RRUFF
##SOURCE=Andy Anderson
##DESCRIPTION=Pale blue fine-grained
##STATUS=The identification of this mineral has been confirmed only by chemical analysis
##URL=rruff.info/R060088
##MEASURED CHEMISTRY=Cu_2.00_(Al_1.96_Fe^3+^_0.04_)_Σ=2_(As_1.00_O_4_)_2_(OH)_4_·H_2_O; trace amounts of P; OH estimated by charge balance; H_2_O by difference
144.0890, 0.0000000E+00
144.5712, 2.2148000E-02
145.0533, 0.1487730
145.5354, 0.3262180
146.0175, 0.5340650
146.4996, 0.7506100
146.9817, 0.9565120
147.4639, 1.136475
147.9460, 1.301056
148.4281, 1.509277
148.9102, 1.701538
149.3923, 1.761024
149.8744, 1.644737
150.3566, 1.395248
150.8387, 1.208679
151.3208, 1.176941
151.8029, 1.129250
152.2850, 1.056900
152.7671, 1.064026
153.2493, 1.017021
153.7314, 1.156731
154.2135, 1.227631
154.6956, 1.011726
155.1777, 0.7091290
155.6598, 0.4247510
156.1420, 0.4039230
156.6241, 0.7031560
157.1062, 0.9017790
157.5883, 0.7088240
158.0704, 0.4076540
158.5525, 0.2587510
159.0347, 0.3568040
159.5168, 0.5385130
159.9989, 0.5307240
160.4810, 0.2310870
160.9631, 7.8280000E-03
161.4452, 3.4453999E-02
161.9274, 1.7867999E-02
162.4095, 8.9260004E-03
162.8916, 0.1355440
163.3737, 0.3464280
163.8558, 0.3856740
164.3379, 3.4058001E-02
164.8201, 0.2053680
165.3022, 0.1659850
165.7843, 9.8110000E-03
166.2664, 0.1291050
166.7485, 7.1579002E-02
167.2306, 0.1348720
167.7128, 0.2509460
168.1949, 0.1421970
168.6770, 8.6800002E-02
169.1591, 0.2021100
169.6412, 0.4206390
170.1233, 0.5927280
170.6055, 0.6053010
171.0876, 0.4637070
171.5697, 0.4146650
172.0518, 0.5007400
172.5339, 0.6175160
173.0160, 0.7547380
173.4982, 0.8941730
173.9803, 0.9611740
174.4624, 0.8554690
174.9445, 0.5993500
175.4266, 0.5307310
175.9087, 0.8433910
176.3909, 1.212166
176.8730, 1.349106
177.3551, 1.232437
177.8372, 1.066132
178.3193, 0.9829790
178.8014, 0.9762040
179.2836, 1.038345
179.7657, 1.262543
180.2478, 1.523460
180.7299, 1.590591
181.2120, 1.373436
181.6941, 1.207596
182.1763, 1.389336
182.6584, 1.778664
183.1405, 2.131493
183.6226, 2.332756
184.1047, 2.412529
184.5868, 2.457588
185.0690, 2.410583
185.5511, 2.420296
186.0332, 2.614365
186.5153, 2.905876
186.9974, 3.123520
187.4795, 3.110695
187.9617, 2.891563
188.4438, 2.819496
188.9259, 3.032364
189.4080, 3.264229
189.8901, 3.442719
190.3722, 3.573219
190.8544, 3.685623
191.3365, 3.807709
191.8186, 3.944283
192.3007, 4.029274
192.7828, 4.010452
193.2649, 3.991570
193.7471, 3.980591
194.2292, 3.996071
194.7113, 4.077431
195.1934, 4.273880
195.6755, 4.621582
196.1576, 4.853485
196.6398, 4.856499
197.1219, 4.870003
197.6040, 5.007034
198.0861, 5.269386
198.5682, 5.603584
199.0503, 5.968124
199.5325, 6.375717
200.0146, 6.711731
200.4967, 6.947212
200.9788, 7.139122
201.4609, 7.319656
201.9430, 7.500435
202.4252, 7.667168
202.9073, 7.805992
203.3894, 7.912521
203.8715, 8.047523
204.3536, 8.224327
204.8357, 8.424713
205.3179, 8.668961
205.8000, 8.966560
206.2821, 9.192650
206.7642, 9.153320
207.2463, 8.899635
207.7284, 8.759171
208.2106, 8.910461
208.6927, 9.169861
209.1748, 9.262604
209.6569, 9.128098
210.1390, 8.963516
210.6211, 8.966225
211.1033, 9.074791
211.5854, 9.138611
212.0675, 9.078697
212.5496, 8.939857
213.0317, 8.818939
213.5138, 8.727722
213.9960, 8.638214
214.4781, 8.487228
214.9602, 8.321037
215.4423, 8.245766
215.9244, 8.377174
216.4065, 8.649521
216.8886, 8.810265
217.3708, 8.834084
217.8529, 8.768646
218.3350, 8.587173
218.8171, 8.343071
219.2992, 8.155472
219.7813, 8.137344
220.2635, 8.245125
220.7456, 8.186371
221.2277, 7.785339
221.7098, 7.425896
222.1919, 7.294220
222.6740, 7.292732
223.1562, 7.275993
223.6383, 7.157402
224.1204, 6.933350
224.6025, 6.617485
225.0846, 6.074898
225.5667, 5.577454
226.0489, 5.180283
226.5310, 4.871796
227.0131, 4.638504
227.4952, 4.484192
227.9773, 4.397156
228.4594, 4.169037
228.9416, 3.621391
229.4237, 3.112198
229.9058, 2.716003
230.3879, 2.418571
230.8700, 2.183044
231.3521, 1.982475
231.8343, 1.818466
232.3164, 1.730385
232.7985, 1.830582
233.2806, 1.879700
233.7627, 1.758614
234.2448, 1.538414
234.7270, 1.374779
235.2091, 1.375999
235.6912, 1.516739
236.1733, 1.552101
236.6554, 1.364586
237.1375, 1.219780
237.6197, 1.204964
238.1018, 1.296577
238.5839, 1.436203
239.0660, 1.593315
239.5481, 1.769730
240.0302, 1.976952
240.5124, 2.188606
240.9945, 2.449539
241.4766, 2.847801
241.9587, 3.313919
242.4408, 3.662880
242.9229, 3.779716
243.4051, 3.728783
243.8872, 3.732483
244.3693, 3.796982
244.8514, 3.927956
245.3335, 4.120438
245.8156, 4.347740
246.2978, 4.554115
246.7799, 4.702919
247.2620, 4.846687
247.7441, 5.101326
248.2262, 5.520638
248.7083, 5.891693
249.1905, 6.075180
249.6726, 6.117493
250.1547, 6.175476
250.6368, 6.285240
251.1189, 6.472137
251.6010, 6.774849
252.0832, 7.211113
252.5653, 7.626808
253.0474, 7.946297
253.5295, 8.174744
254.0116, 8.334969
254.4937, 8.400261
254.9759, 8.435814
255.4580, 8.507797
255.9401, 8.615219
256.4222, 8.762619
256.9043, 8.944435
257.3864, 9.165222
257.8686, 9.470306
258.3507, 9.965607
258.8328, 10.41673
259.3149, 10.57814
259.7970, 10.48370
260.2791, 10.42451
260.7613, 10.68341
261.2434, 11.17659
261.7255, 11.43431
262.2076, 11.39137
262.6897, 11.08773
263.1718, 10.50064
263.6540, 9.695900
264.1361, 8.902046
264.6182, 8.274155
265.1003, 7.789429
265.5824, 7.288383
266.0645, 6.736427
266.5467, 6.221687
267.0288, 5.815697
267.5109, 5.475838
267.9930, 5.104713
268.4751, 4.588219
268.9572, 3.991859
269.4394, 3.628616
269.9215, 3.645859
270.4036, 3.689316
270.8857, 3.703300
271.3678, 3.636391
271.8499, 3.386887
272.3321, 2.847527
272.8142, 2.130043
273.2963, 1.628006
273.7784, 1.406670
274.2605, 1.320015
274.7426, 1.441681
275.2248, 1.610275
275.7069, 1.599838
276.1890, 1.280350
276.6711, 0.8111110
277.1532, 0.6372300
277.6353, 1.001022
278.1175, 1.208450
278.5996, 1.004654
279.0817, 0.6677320
279.5638, 0.4735110
280.0459, 0.5235900
280.5280, 0.6937710
281.0102, 0.7399600
281.4923, 0.5939560
281.9744, 0.4640730
282.4565, 0.3527760
282.9386, 0.2773130
283.4207, 0.2764740
283.9029, 0.3519520
284.3850, 0.4368900
284.8671, 0.4069290
285.3492, 0.1567080
285.8313, 5.8387998E-02
286.3134, 0.2311250
286.7956, 0.4564820
287.2777, 0.6251750
287.7598, 0.7115780
288.2419, 0.7341770
288.7240, 0.7003940
289.2061, 0.5807880
289.6883, 0.5147860
290.1704, 0.5203700
290.6525, 0.5578380
291.1346, 0.6485600
291.6167, 0.7653960
292.0988, 0.8322220
292.5810, 0.7658080
293.0631, 0.5484160
293.5452, 0.3888930
294.0273, 0.2793120
294.5094, 0.2331850
294.9915, 0.3236390
295.4737, 0.4851680
295.9558, 0.5774080
296.4379, 0.4884110
296.9200, 0.2328720
297.4021, 5.4458998E-02
297.8842, 5.9499999E-04
298.3664, 2.2315999E-02
298.8485, 2.9068001E-02
299.3306, 1.2817000E-02
299.8127, 7.0595004E-02
300.2948, 0.2555010
300.7769, 0.4792860
301.2591, 0.4791720
301.7412, 7.9636000E-02
302.2233, 0.4664610
302.7054, 0.5171970
303.1875, 0.4016720
303.6696, 0.3065870
304.1518, 0.3079070
304.6339, 0.3553160
305.1160, 0.3373030
305.5981, 0.1794590
306.0802, 6.5711997E-02
306.5623, 1.4190000E-03
307.0445, 2.2491001E-02
307.5266, 1.2749000E-02
308.0087, 0.1007230
308.4908, 0.1809310
308.9729, 0.1606370
309.4550, 1.6609000E-02
309.9372, 0.1556400
310.4193, 0.2293550
310.9014, 0.2940670
311.3835, 0.3689800
311.8656, 0.4645390
312.3477, 0.5964890
312.8299, 0.7813420
313.3120, 1.026024
313.7941, 1.290947
314.2762, 1.651138
314.7583, 1.958084
315.2404, 2.161011
315.7226, 2.261169
316.2047, 2.255684
316.6868, 2.120026
317.1689, 1.874329
317.6510, 1.845695
318.1331, 2.261154
318.6153, 2.641800
319.0974, 2.891350
319.5795, 3.039864
320.0616, 3.130669
320.5437, 3.183586
321.0258, 3.217941
321.5080, 3.298828
321.9901, 3.449440
322.4722, 3.624924
322.9543, 3.884155
323.4364, 4.141960
323.9185, 4.270889
324.4007, 4.229355
324.8828, 4.155922
325.3649, 4.304405
325.8470, 4.928436
326.3291, 5.284782
326.8112, 5.181526
327.2934, 4.998962
327.7755, 4.995102
328.2576, 5.204285
328.7397, 5.497398
329.2218, 5.731331
329.7039, 5.886635
330.1861, 6.021629
330.6682, 6.131203
331.1503, 6.257416
331.6324, 6.432945
332.1145, 6.622131
332.5966, 6.755798
333.0788, 6.788635
333.5609, 6.736023
334.0430, 6.706955
334.5251, 6.686180
335.0072, 6.695778
335.4893, 6.752380
335.9715, 6.842705
336.4536, 6.952698
336.9357, 7.075089
337.4178, 7.202614
337.8999, 7.300133
338.3820, 7.316574
338.8642, 7.367149
339.3463, 7.550850
339.8284, 7.721992
340.3105, 7.688545
340.7926, 7.420586
341.2747, 7.128319
341.7568, 7.164551
342.2390, 7.736649
342.7211, 8.121834
343.2032, 8.170410
343.6853, 8.176254
344.1674, 8.305763
344.6495, 8.556801
345.1317, 8.825356
345.6138, 9.014351
346.0959, 9.119400
346.5780, 9.221725
347.0601, 9.255768
347.5422, 9.354271
348.0244, 9.623940
348.5065, 9.978134
348.9886, 10.25837
349.4707, 10.35928
349.9528, 10.32888
350.4349, 10.35968
350.9171, 10.50046
351.3992, 10.62482
351.8813, 10.66866
352.3634, 10.70474
352.8455, 10.81756
353.3276, 11.03575
353.8098, 11.29648
354.2919, 11.50383
354.7740, 11.66322
355.2561, 11.74789
355.7382, 11.77800
356.2203, 11.71835
356.7025, 11.46210
357.1846, 11.04890
357.6667, 10.69925
358.1488, 10.67474
358.6309, 10.99070
359.1130, 11.18925
359.5952, 11.15945
360.0773, 11.09653
360.5594, 11.14857
361.0415, 11.26452
361.5236, 11.31308
362.0057, 11.20685
362.4879, 10.97571
362.9700, 10.71741
363.4521, 10.43868
363.9342, 10.14433
364.4163, 9.872349
364.8984, 9.565704
365.3806, 9.148800
365.8627, 8.586449
366.3448, 7.958511
366.8269, 7.373859
367.3090, 6.846664
367.7911, 6.300289
368.2733, 5.713234
368.7554, 5.101578
369.2375, 4.419586
369.7196, 3.681530
370.2017, 3.071899
370.6838, 2.808670
371.1660, 2.812099
371.6481, 2.687592
372.1302, 2.329487
372.6123, 1.981678
373.0944, 1.864784
373.5765, 1.880405
374.0587, 1.804478
374.5408, 1.497517
375.0229, 1.091301
375.5050, 0.7613180
375.9871, 0.5085070
376.4692, 0.3374630
376.9514, 0.2935260
377.4335, 0.3182410
377.9156, 0.3281360
378.3977, 0.3183360
378.8798, 0.2863960
379.3619, 0.2130550
379.8441, 0.1106910
380.3262, 2.4329999E-02
380.8083, 5.4691002E-02
381.2904, 7.7225000E-02
381.7725, 8.0440998E-02
382.2546, 0.4132390
382.7368, 0.6123620
383.2189, 0.4802670
383.7010, 0.1982570
384.1831, 2.0226000E-02
384.6652, 2.3677999E-02
385.1473, 3.3543002E-02
385.6295, 9.4035998E-02
386.1116, 0.1899300
386.5937, 0.2277680
387.0758, 0.1141050
387.5579, 2.3899000E-02
388.0400, 0.1164280
388.5222, 0.3325690
389.0043, 0.4605480
389.4864, 0.3842510
389.9685, 0.1895750
390.4506, 9.5279999E-02
390.9327, 0.1456910
391.4149, 0.1743050
391.8970, 0.1326900
392.3791, 5.7902999E-02
392.8612, 1.8360000E-02
393.3433, 8.6871997E-02
393.8254, 0.1255530
394.3076, 0.1006930
394.7897, 7.8159999E-03
395.2718, 6.9266997E-02
395.7539, 5.6713000E-02
396.2360, 2.6825000E-02
396.7181, 7.4390001E-03
397.2003, 2.7540000E-03
397.6824, 1.8513000E-02
398.1645, 5.1486999E-02
398.6466, 9.3829997E-02
399.1287, 0.1057400
399.6108, 1.6857000E-02
400.0930, 1.6384000E-02
400.5751, 7.8152001E-02
401.0572, 0.2101440
401.5393, 0.2837720
402.0214, 0.2699890
402.5035, 0.2046090
402.9857, 0.1337890
403.4678, 4.0557999E-02
403.9499, 5.8169998E-03
404.4320, 3.7800000E-04
404.9141, 4.0684000E-02
405.3962, 0.1518210
405.8784, 0.2949940
406.3605, 0.3607180
406.8426, 0.2389530
407.3247, 2.1999000E-02
407.8068, 4.9332000E-02
408.2889, 0.4038430
408.7711, 0.7355380
409.2532, 0.7346420
409.7353, 0.5909690
410.2174, 0.5123860
410.6995, 0.5713540
411.1816, 0.6811180
411.6638, 0.7040630
412.1459, 0.6140140
412.6280, 0.5780260
413.1101, 0.6298870
413.5922, 0.7363590
414.0743, 0.9272350
414.5565, 1.171482
415.0386, 1.357300
415.5207, 1.367203
416.0028, 1.256382
416.4849, 1.230919
416.9670, 1.319416
417.4492, 1.422863
417.9313, 1.511917
418.4134, 1.578655
418.8955, 1.592964
419.3776, 1.511909
419.8597, 1.461811
420.3419, 1.608349
420.8240, 1.926281
421.3061, 2.171436
421.7882, 2.245842
422.2703, 2.259651
422.7524, 2.346924
423.2346, 2.505333
423.7167, 2.660885
424.1988, 2.816605
424.6809, 2.940918
425.1630, 2.968220
425.6451, 2.891453
426.1273, 2.815437
426.6094, 2.810455
427.0915, 2.873405
427.5736, 2.958233
428.0557, 3.067947
428.5378, 3.195126
429.0200, 3.373955
429.5021, 3.564262
429.9842, 3.663410
430.4663, 3.626926
430.9484, 3.546940
431.4305, 3.578735
431.9127, 3.788723
432.3948, 3.955494
432.8769, 4.022133
433.3590, 4.086758
433.8411, 4.252686
434.3232, 4.495663
434.8054, 4.688446
435.2875, 4.724102
435.7696, 4.621227
436.2517, 4.578308
436.7338, 4.549515
437.2159, 4.475468
437.6981, 4.952980
438.1802, 5.323524
438.6623, 5.590546
439.1444, 5.504322
439.6265, 5.849129
440.1086, 6.007462
440.5908, 6.144508
441.0729, 6.510765
441.5550, 6.413998
442.0371, 6.743408
442.5192, 6.878582
443.0013, 7.080315
443.4835, 7.088341
443.9656, 7.130642
444.4477, 7.332504
444.9298, 7.430050
445.4119, 7.366142
445.8940, 7.483749
446.3762, 7.214100
446.8583, 7.238052
447.3404, 7.388985
447.8225, 7.253586
448.3046, 7.305824
448.7867, 7.266411
449.2689, 6.872543
449.7510, 7.056374
450.2331, 6.976227
450.7152, 6.625324
451.1973, 6.758385
451.6794, 6.646790
452.1616, 6.816360
452.6437, 7.199615
453.1258, 7.600235
453.6079, 7.803524
454.0900, 7.841606
454.5721, 7.912949
455.0543, 8.100651
455.5364, 8.368752
456.0185, 8.673264
456.5006, 9.055122
456.9827, 9.319378
457.4648, 9.314362
457.9470, 9.228722
458.4291, 9.296139
458.9112, 9.528450
459.3933, 9.752090
459.8754, 9.829845
460.3575, 9.763847
460.8397, 9.622570
461.3218, 9.218246
461.8039, 8.969444
462.2860, 9.122807
462.7681, 9.449234
463.2502, 9.641289
463.7324, 9.591583
464.2145, 9.408443
464.6966, 9.273926
465.1787, 9.262455
465.6608, 9.069031
466.1429, 8.449043
466.6251, 7.895195
467.1072, 7.655087
467.5893, 7.659527
468.0714, 7.708355
468.5535, 7.677155
469.0356, 7.608910
469.5178, 7.640026
469.9999, 7.815170
470.4820, 7.970039
470.9641, 8.107971
471.4462, 8.179413
471.9283, 8.094223
472.4105, 7.855080
472.8926, 7.650688
473.3747, 7.674969
473.8568, 7.857536
474.3389, 7.917698
474.8210, 7.795521
475.3032, 7.679028
475.7853, 7.698105
476.2674, 7.811211
476.7495, 7.949501
477.2316, 8.130451
477.7137, 8.291397
478.1959, 8.390694
478.6780, 8.435265
479.1601, 8.435223
479.6422, 8.384556
480.1243, 8.325516
480.6064, 8.314106
481.0886, 8.356773
481.5707, 8.407150
482.0528, 8.467793
482.5349, 8.530869
483.0170, 8.638500
483.4991, 8.748894
483.9813, 8.726227
484.4634, 8.480270
484.9455, 8.106735
485.4276, 7.900318
485.9097, 8.099403
486.3918, 8.102676
486.8740, 7.765568
487.3561, 7.348637
487.8382, 7.018742
488.3203, 6.798595
488.8024, 6.649128
489.2845, 6.561096
489.7667, 6.515755
490.2488, 6.316330
490.7309, 5.871906
491.2130, 5.415710
491.6951, 4.956867
492.1772, 4.546516
492.6594, 4.278370
493.1415, 4.176418
493.6236, 4.063026
494.1057, 3.716755
494.5878, 3.171589
495.0699, 2.726612
495.5521, 2.412277
496.0342, 2.205097
496.5163, 2.144909
496.9984, 2.184315
497.4805, 2.208069
497.9626, 2.274578
498.4448, 2.246212
498.9269, 1.924141
499.4090, 1.394093
499.8911, 0.9677350
500.3732, 0.7601510
500.8553, 0.6682210
501.3375, 0.5396880
501.8196, 0.3518100
502.3017, 0.2536320
502.7838, 0.2852170
503.2659, 0.3830150
503.7480, 0.5688630
504.2302, 0.7896840
504.7123, 0.8999940
505.1944, 0.8069500
505.6765, 0.5918730
506.1586, 0.5002670
506.6407, 0.6862560
507.1228, 0.7450790
507.6049, 0.5776790
508.0871, 0.3624990
508.5692, 0.1701930
509.0513, 5.1941000E-02
509.5334, 7.7933997E-02
510.0155, 0.3427200
510.4977, 0.7632480
510.9798, 0.9356920
511.4619, 0.7567750
511.9440, 0.5837710
512.4261, 0.5315090
512.9083, 0.5324020
513.3904, 0.5426250
513.8725, 0.5546230
514.3546, 0.5538980
514.8367, 0.5065460
515.3188, 0.4390140
515.8010, 0.4572870
516.2831, 0.6012840
516.7652, 0.6746600
517.2473, 0.4773710
517.7294, 0.1219900
518.2115, 2.4127999E-02
518.6937, 0.1972080
519.1758, 0.4107970
519.6579, 0.4138980
520.1400, 0.3102000
520.6221, 0.2869530
521.1042, 0.3861580
521.5864, 0.4741020
522.0685, 0.3977390
522.5506, 0.1192510
523.0327, 1.5219999E-03
523.5148, 0.1083030
523.9969, 0.2763210
524.4791, 0.5392720
524.9612, 0.7937700
525.4433, 0.8702960
525.9254, 0.7175750
526.4075, 0.4966850
526.8896, 0.4748040
527.3718, 0.7135660
527.8539, 0.8278960
528.3360, 0.7425610
528.8181, 0.6015050
529.3002, 0.4063720
529.7823, 0.2099990
530.2645, 9.9826999E-02
530.7466, 0.1104620
531.2287, 0.2200550
531.7108, 0.4819640
532.1929, 0.8751870
532.6750, 1.052925
533.1572, 0.8534890
533.6393, 0.5480190
534.1214, 0.4209210
534.6035, 0.4460330
535.0856, 0.4776800
535.5677, 0.4930230
536.0499, 0.4997790
536.5320, 0.5205540
537.0141, 0.5394780
537.4962, 0.4815900
537.9783, 0.3028640
538.4604, 0.1173060
538.9426, 0.1359600
539.4247, 0.4737660
539.9068, 0.7275540
540.3889, 0.9705090
540.8710, 1.067867
541.3531, 0.8546750
541.8353, 0.4442830
542.3174, 6.1198998E-02
542.7995, 0.1804700
543.2816, 0.2699390
543.7637, 0.1323660
544.2458, 0.3494260
544.7280, 0.6663280
545.2101, 0.6028060
545.6922, 0.4799160
546.1743, 0.4834210
546.6564, 0.5819050
547.1385, 0.6345940
547.6207, 0.5475540
548.1028, 0.3979950
548.5849, 0.2827110
549.0670, 0.2025530
549.5491, 0.1925200
550.0313, 0.2855340
550.5134, 0.4267500
550.9955, 0.5572660
551.4776, 0.6858440
551.9597, 0.7291490
552.4418, 0.6546750
552.9240, 0.5024340
553.4061, 0.2031590
553.8882, 0.1582030
554.3703, 0.3045460
554.8524, 7.7987999E-02
555.3345, 0.3350940
555.8167, 0.4997940
556.2988, 0.2354580
556.7809, 7.0423000E-02
557.2630, 2.2728000E-02
557.7451, 4.1106999E-02
558.2272, 0.1527330
558.7094, 0.3049510
559.1915, 0.3769190
559.6736, 0.2853780
560.1557, 0.1210400
560.6378, 8.4679000E-02
561.1199, 0.1998860
561.6021, 0.2890510
562.0842, 0.3018300
562.5663, 0.2984540
563.0484, 0.3088530
563.5305, 0.3344150
564.0126, 0.3765300
564.4948, 0.5223050
564.9769, 0.6211810
565.4590, 0.4631420
565.9411, 0.1028480
566.4232, 0.2204020
566.9053, 0.4271770
567.3875, 0.5192760
567.8696, 0.4828530
568.3517, 0.2597270
568.8338, 9.6050002E-02
569.3159, 6.3087001E-02
569.7980, 1.9012000E-02
570.2802, 0.1643410
570.7623, 0.4054530
571.2444, 0.5355910
571.7265, 0.4764060
572.2086, 0.3058510
572.6907, 0.1477890
573.1729, 1.5888000E-02
573.6550, 9.8621003E-02
574.1371, 2.8851001E-02
574.6192, 5.3649999E-02
575.1013, 6.3717000E-02
575.5834, 4.2091001E-02
576.0656, 8.2020000E-02
576.5477, 0.2404860
577.0298, 0.4221840
577.5119, 0.5631600
577.9940, 0.6482430
578.4761, 0.5575490
578.9583, 0.2134440
579.4404, 0.1234930
579.9225, 0.2096520
580.4046, 4.9403999E-02
580.8867, 6.6505000E-02
581.3688, 0.1008490
581.8510, 0.1251910
582.3331, 0.1722300
582.8152, 0.2280160
583.2973, 0.2570190
583.7794, 0.2543720
584.2615, 0.2766110
584.7437, 0.4055290
585.2258, 0.6533580
585.7079, 0.7942010
586.1900, 0.7428930
586.6721, 0.6893880
587.1542, 0.6357690
587.6363, 0.6264530
588.1184, 0.7526130
588.6005, 1.027882
589.0826, 1.253098
589.5648, 1.183594
590.0469, 0.9114530
590.5290, 0.8052670
591.0111, 0.9227220
591.4932, 1.006584
591.9753, 0.8661920
592.4575, 0.6113620
592.9396, 0.5167010
593.4217, 0.6395230
593.9038, 0.7650910
594.3859, 0.8555830
594.8680, 0.8978460
595.3502, 0.8510210
595.8323, 0.7373810
596.3144, 0.6316380
596.7965, 0.5795440
597.2786, 0.5848540
597.7607, 0.6648940
598.2429, 0.9063570
598.7250, 1.068233
599.2071, 1.119843
599.6892, 1.121513
600.1713, 1.079983
600.6534, 1.003864
601.1356, 0.9087140
601.6177, 0.8083650
602.0998, 0.7086220
602.5819, 0.6110190
603.0640, 0.5168110
603.5461, 0.4539030
604.0283, 0.4238850
604.5104, 0.4320910
604.9925, 0.4960940
605.4746, 0.6089130
605.9567, 0.7315940
606.4388, 0.9350780
606.9210, 1.073540
607.4031, 1.013496
607.8852, 0.8404690
608.3673, 0.6928750
608.8494, 0.6192050
609.3315, 0.6338810
609.8137, 0.7816350
610.2958, 1.090313
610.7779, 1.239128
611.2600, 1.072510
611.7421, 0.9248350
612.2242, 0.8976520
612.7064, 0.9375990
613.1885, 0.9584540
613.6706, 0.9393120
614.1527, 0.8963280
614.6348, 0.8258930
615.1169, 0.7410660
615.5991, 0.7022360
616.0812, 0.7244110
616.5633, 0.7048680
617.0454, 0.5665360
617.5275, 0.3668060
618.0096, 0.2361370
618.4918, 0.1921160
618.9739, 0.1467740
619.4560, 1.3393000E-02
619.9381, 7.3909998E-02
620.4202, 5.3211000E-02
620.9023, 0.3326030
621.3845, 0.5596890
621.8666, 0.6226810
622.3487, 0.5724070
622.8308, 0.5106540
623.3129, 0.4135860
623.7950, 0.3852880
624.2772, 0.4731370
624.7593, 0.5638580
625.2414, 0.6529500
625.7235, 0.7159880
626.2056, 0.6897740
626.6877, 0.5076480
627.1699, 0.3262600
627.6520, 0.3297540
628.1341, 0.4655880
628.6162, 0.5664560
629.0983, 0.6037450
629.5804, 0.6162870
630.0626, 0.6351890
630.5447, 0.6537590
631.0268, 0.6358300
631.5089, 0.5248110
631.9910, 0.4640880
632.4731, 0.5172310
632.9553, 0.5956650
633.4374, 0.6190490
633.9195, 0.5865330
634.4016, 0.5532000
634.8837, 0.5711940
635.3658, 0.5977590
635.8480, 0.4613720
636.3301, 8.6391002E-02
636.8122, 0.1194380
637.2943, 3.3718001E-02
637.7764, 0.2632640
638.2585, 0.3551410
638.7407, 0.3308980
639.2228, 0.3063160
639.7049, 0.3035200
640.1870, 0.3276370
640.6691, 0.3934360
641.1512, 0.4871440
641.6334, 0.5971220
642.1155, 0.7183380
642.5976, 0.7888260
643.0797, 0.7332690
643.5618, 0.5524640
644.0439, 0.4077720
644.5261, 0.2521290
645.0082, 0.1933560
645.4903, 0.3145480
645.9724, 0.4964640
646.4545, 0.6555020
646.9366, 0.7675020
647.4188, 0.8223720
647.9009, 0.7836070
648.3830, 0.6991040
648.8651, 0.6847230
649.3472, 0.7438510
649.8293, 0.7664830
650.3115, 0.7034150
650.7936, 0.6085240
651.2757, 0.5595660
651.7578, 0.5619510
652.2399, 0.4908940
652.7220, 0.2112310
653.2042, 1.0162000E-02
653.6863, 2.1454001E-02
654.1684, 0.1057620
654.6505, 0.3062860
655.1326, 0.5384140
655.6147, 0.6763190
656.0969, 0.5279160
656.5790, 0.1200100
657.0611, 4.7440000E-02
657.5432, 0.1244510
658.0253, 0.3248710
658.5074, 0.5329090
658.9896, 0.6674540
659.4717, 0.6178090
659.9538, 0.3858830
660.4359, 0.1830940
660.9180, 0.1047250
661.4001, 0.1029430
661.8823, 0.1272540
662.3644, 0.1840780
662.8465, 0.3311580
663.3286, 0.6021840
663.8107, 0.8403400
664.2928, 0.8044970
664.7750, 0.4342040
665.2571, 0.2169720
665.7392, 0.2654460
666.2213, 0.3439560
666.7034, 0.4196050
667.1855, 0.4892200
667.6677, 0.5579610
668.1498, 0.6302410
668.6319, 0.6673010
669.1140, 0.6260260
669.5961, 0.5341340
670.0782, 0.4778100
670.5604, 0.4505420
671.0425, 0.3940350
671.5246, 0.2692340
672.0067, 0.1497150
672.4888, 0.1688350
672.9709, 0.3603780
673.4531, 0.4842450
673.9352, 0.4845430
674.4173, 0.4658050
674.8994, 0.4541470
675.3815, 0.4672130
675.8636, 0.5052380
676.3458, 0.5889360
676.8279, 0.6970100
677.3100, 0.8141980
677.7921, 0.9252130
678.2742, 0.8588640
678.7563, 0.5579450
679.2385, 0.3403780
679.7206, 0.3942950
680.2027, 0.5629460
680.6848, 0.6369550
681.1669, 0.6442830
681.6490, 0.6233600
682.1312, 0.5601690
682.6133, 0.5212170
683.0954, 0.5822560
683.5775, 0.7065930
684.0596, 0.8398590
684.5417, 0.9676820
685.0239, 1.041916
685.5060, 0.9802090
685.9881, 0.8079530
686.4702, 0.6502490
686.9523, 0.4635350
687.4344, 0.3701100
687.9166, 0.4619100
688.3987, 0.6032410
688.8808, 0.7048030
689.3629, 0.7257040
689.8450, 0.7280920
690.3271, 0.7178120
690.8093, 0.7089880
691.2914, 0.7868770
691.7735, 0.9168050
692.2556, 1.026970
692.7377, 1.105888
693.2198, 1.139019
693.7020, 1.132820
694.1841, 1.085011
694.6662, 0.9928510
695.1483, 0.8531300
695.6304, 0.7266200
696.1125, 0.6394650
696.5947, 0.5735090
697.0768, 0.5184360
697.5589, 0.4855350
698.0410, 0.4715880
698.5231, 0.5004500
699.0052, 0.5525400
699.4874, 0.6607740
699.9695, 0.7886010
700.4516, 0.8238530
700.9337, 0.7081760
701.4158, 0.5797960
701.8979, 0.5971340
702.3801, 0.7455520
702.8622, 0.8303760
703.3443, 0.8297650
703.8264, 0.6263850
704.3085, 0.8256760
704.7906, 0.9366800
705.2728, 0.9638100
705.7549, 0.6513710
706.2370, 0.7746240
706.7191, 0.7228160
707.2012, 0.6638450
707.6833, 0.8480910
708.1655, 0.5835650
708.6476, 0.7630730
709.1297, 0.7647290
709.6118, 0.8474460
710.0939, 0.7537960
710.5760, 0.7119220
711.0582, 0.8393590
711.5403, 0.8684500
712.0224, 0.7493820
712.5045, 0.8347400
712.9866, 0.5616840
713.4688, 0.6046600
713.9509, 0.7830350
714.4330, 0.6722300
714.9151, 0.7497180
715.3972, 0.7598150
715.8793, 0.4341580
716.3615, 0.6986500
716.8436, 0.7088320
717.3257, 0.4570810
717.8078, 0.7001150
718.2899, 0.4804460
718.7720, 0.4231190
719.2542, 0.4891430
719.7363, 0.4267920
720.2184, 0.5685460
720.7005, 0.5165330
721.1826, 0.4484940
721.6647, 0.4573020
722.1469, 0.2497710
722.6290, 0.4416890
723.1111, 0.3570940
723.5932, 0.4092520
724.0753, 0.4930570
724.5574, 0.3410150
725.0396, 0.4394420
725.5217, 0.1500020
726.0038, 0.1853490
726.4859, 0.1857030
726.9680, 0.3932500
727.4501, 0.1049190
727.9323, 0.1299250
728.4144, 0.2881700
728.8965, 0.2588770
729.3786, 0.3062290
729.8607, 0.1199490
730.3428, 0.1512340
730.8250, 0.1252560
731.3071, 0.3071140
731.7892, 0.3254240
732.2713, 0.1463970
732.7534, 3.2040000E-02
733.2355, 0.1639710
733.7177, 2.4937000E-02
734.1998, 0.1597520
734.6819, 3.6556002E-02
735.1640, 0.1442490
735.6461, 0.1677250
736.1282, 0.1463090
736.6104, 2.5051000E-02
737.0925, 8.0238000E-02
737.5746, 0.1418420
738.0567, 4.1237000E-02
738.5388, 0.2236210
739.0209, 4.3788999E-02
739.5031, 4.1328002E-02
739.9852, 4.2286001E-02
740.4673, 5.0067998E-02
740.9494, 8.7479003E-02
741.4315, 5.1739000E-02
741.9136, 9.4371997E-02
742.3958, 1.5652001E-02
742.8779, 7.5889997E-02
743.3600, 0.1919590
743.8421, 0.1443670
744.3242, 3.8895000E-02
744.8063, 6.3541003E-02
745.2885, 2.8689999E-02
745.7706, 4.7874000E-02
746.2527, 0.2700770
746.7348, 1.5110000E-03
747.2169, 1.8738000E-02
747.6990, 0.2252770
748.1812, 2.6923999E-02
748.6633, 0.1806490
749.1454, 0.2235220
749.6275, 0.1421170
750.1096, 0.1892360
750.5917, 3.3031002E-02
751.0739, 7.2189003E-02
751.5560, 0.1285590
752.0381, 0.1083490
752.5202, 0.3040050
753.0023, 9.8747000E-02
753.4844, 0.1676900
753.9666, 0.1007460
754.4487, 3.2009999E-03
754.9308, 0.1423190
755.4129, 3.1376000E-02
755.8950, 0.3082810
756.3771, 0.2600860
756.8593, 0.2460440
757.3414, 2.3232000E-02
757.8235, 0.2946930
758.3056, 0.2520260
758.7877, 7.6084003E-02
759.2698, 8.7958999E-02
759.7520, 2.1080000E-02
760.2341, 0.1710210
760.7162, 0.4409750
761.1983, 0.3969190
761.6804, 0.1113430
762.1625, 5.4313999E-02
762.6447, 8.8104002E-02
763.1268, 1.5247000E-02
763.6089, 0.3412510
764.0910, 0.6189990
764.5731, 0.5473250
765.0552, 0.2744560
765.5374, 9.7015001E-02
766.0195, 0.1085890
766.5016, 0.1796260
766.9837, 0.2099300
767.4658, 0.2326850
767.9479, 0.3276410
768.4301, 0.4790730
768.9122, 0.5669060
769.3943, 0.5354190
769.8764, 0.4418530
770.3585, 0.3598520
770.8406, 0.2786900
771.3228, 0.3148880
771.8049, 0.5702740
772.2870, 0.7827220
772.7691, 0.8873670
773.2512, 0.9200550
773.7333, 0.8846820
774.2155, 0.7978060
774.6976, 0.7264180
775.1797, 0.7162930
775.6618, 0.7099190
776.1439, 0.6545680
776.6260, 0.5766640
777.1082, 0.5110820
777.5903, 0.4661710
778.0724, 0.4531780
778.5545, 0.4798970
779.0366, 0.5343630
779.5187, 0.5879860
780.0009, 0.6384850
780.4830, 0.6795270
780.9651, 0.6799960
781.4472, 0.7141420
781.9293, 0.8687860
782.4114, 1.068363
782.8936, 1.155262
783.3757, 1.069958
783.8578, 1.055893
784.3399, 1.180153
784.8220, 1.384827
785.3041, 1.718872
785.7863, 2.068562
786.2684, 2.195080
786.7505, 2.049026
787.2326, 1.890537
787.7147, 2.016945
788.1968, 2.307934
788.6790, 2.260349
789.1611, 1.867893
789.6432, 1.856918
790.1253, 2.570415
790.6074, 3.278587
791.0895, 3.212978
791.5717, 2.449409
792.0538, 2.088753
792.5359, 2.467918
793.0180, 2.792969
793.5001, 3.009624
793.9822, 3.114006
794.4644, 3.094906
794.9465, 2.992439
795.4286, 2.859760
795.9107, 2.695873
796.3928, 2.743252
796.8749, 3.604931
797.3571, 4.728680
797.8392, 4.936981
798.3213, 4.282589
798.8034, 3.709934
799.2855, 3.629780
799.7676, 3.813114
800.2498, 3.959835
800.7319, 4.081474
801.2140, 4.096828
801.6961, 3.888588
802.1782, 3.844906
802.6603, 4.218777
803.1425, 4.655159
803.6246, 4.848839
804.1067, 4.820698
804.5888, 4.850964
805.0709, 4.981441
805.5530, 5.164082
806.0352, 5.455986
806.5173, 5.764744
806.9994, 6.030155
807.4815, 6.252689
807.9636, 6.447544
808.4457, 6.638153
808.9279, 6.799149
809.4100, 6.897850
809.8921, 6.942604
810.3742, 6.962212
810.8563, 6.970959
811.3384, 7.016991
811.8206, 7.150002
812.3027, 7.320824
812.7848, 7.441311
813.2669, 7.511654
813.7490, 7.597157
814.2311, 7.787880
814.7133, 7.914104
815.1954, 7.820358
815.6775, 7.715252
816.1596, 7.900650
816.6417, 8.317760
817.1238, 8.617741
817.6060, 8.609749
818.0881, 8.479794
818.5702, 8.405407
819.0523, 8.358025
819.5344, 8.232479
820.0165, 8.039188
820.4987, 7.992474
820.9808, 8.229828
821.4629, 8.563103
821.9450, 8.622528
822.4271, 8.347595
822.9092, 8.249771
823.3914, 8.442753
823.8735, 8.591972
824.3556, 8.562103
824.8377, 8.446884
825.3198, 8.303535
825.8019, 8.142952
826.2841, 8.087730
826.7662, 8.295494
827.2483, 8.451492
827.7304, 8.374626
828.2125, 8.212212
828.6946, 8.091717
829.1768, 8.041630
829.6589, 8.083683
830.1410, 8.242180
830.6231, 8.412045
831.1052, 8.435127
831.5873, 8.346050
832.0695, 8.286121
832.5516, 8.265388
833.0337, 8.236526
833.5158, 8.174690
833.9979, 8.101715
834.4800, 8.039627
834.9622, 7.979820
835.4443, 8.024536
835.9264, 8.284512
836.4085, 8.482635
836.8906, 8.473457
837.3727, 8.464954
837.8549, 8.620335
838.3370, 8.917889
838.8191, 9.262711
839.3012, 9.737465
839.7833, 10.03751
840.2654, 9.832756
840.7476, 9.483047
841.2297, 9.337631
841.7118, 9.417347
842.1939, 9.686821
842.6760, 10.12563
843.1581, 10.60067
843.6403, 10.93770
844.1224, 11.16246
844.6045, 11.43710
845.0866, 11.76516
845.5687, 11.93313
846.0508, 11.81617
846.5330, 11.69222
847.0151, 11.84906
847.4972, 12.26378
847.9793, 12.67895
848.4614, 13.20695
848.9435, 13.55794
849.4257, 13.55546
849.9078, 13.54594
850.3899, 13.74081
850.8720, 14.05972
851.3541, 14.32229
851.8362, 14.47923
852.3184, 14.71805
852.8005, 15.19946
853.2826, 15.73118
853.7647, 16.15466
854.2468, 16.49832
854.7289, 16.81157
855.2111, 17.09399
855.6932, 17.32006
856.1753, 17.43732
856.6574, 17.56605
857.1395, 18.09627
857.6216, 19.01736
858.1038, 19.62187
858.5859, 19.74944
859.0680, 19.85246
859.5501, 20.21917
860.0322, 20.75162
860.5143, 21.23116
860.9965, 21.65611
861.4786, 22.01536
861.9607, 22.22366
862.4428, 22.47580
862.9249, 22.90897
863.4070, 23.35743
863.8892, 23.58988
864.3713, 23.64018
864.8534, 23.84235
865.3355, 24.45196
865.8176, 25.07573
866.2997, 25.46532
866.7819, 25.71999
867.2640, 25.96404
867.7461, 26.17868
868.2282, 26.21458
868.7103, 25.99436
869.1924, 25.74483
869.6746, 25.80357
870.1567, 26.09887
870.6388, 26.28143
871.1209, 26.34592
871.6030, 26.32211
872.0851, 26.21620
872.5673, 26.04491
873.0494, 25.84487
873.5315, 25.59466
874.0136, 25.07787
874.4957, 24.15481
874.9778, 23.21642
875.4600, 22.25128
875.9421, 21.32579
876.4242, 20.50432
876.9063, 19.73335
877.3884, 18.92993
877.8705, 18.09028
878.3527, 17.18372
878.8348, 16.13933
879.3169, 15.09192
879.7990, 14.05302
880.2811, 13.11852
880.7632, 12.52974
881.2454, 12.22804
881.7275, 11.75029
882.2096, 10.73161
882.6917, 9.565865
883.1738, 8.827209
883.6559, 8.421337
884.1381, 8.082512
884.6202, 7.771782
885.1023, 7.370220
885.5844, 6.806973
886.0665, 6.208618
886.5486, 5.787472
887.0308, 5.548424
887.5129, 5.152824
887.9950, 4.484386
888.4771, 3.978252
888.9592, 3.855415
889.4413, 3.777870
889.9235, 3.384060
890.4056, 2.787254
890.8877, 2.440258
891.3698, 2.471844
891.8519, 2.518234
892.3340, 2.590740
892.8162, 2.607395
893.2983, 2.455544
893.7804, 2.241611
894.2625, 2.153214
894.7446, 2.204372
895.2267, 2.180511
895.7089, 1.925110
896.1910, 1.598343
896.6731, 1.312321
897.1552, 1.073837
897.6373, 0.8929750
898.1194, 0.7734950
898.6016, 0.7378690
899.0837, 0.8051300
899.5658, 0.8839910
900.0479, 0.8281100
900.5300, 0.6480480
901.0121, 0.3813360
901.4943, 1.4343000E-02
901.9764, 0.1464460
902.4585, 5.1743001E-02
902.9406, 0.3162840
903.4227, 0.3277320
903.9048, 0.1182940
904.3870, 7.9079997E-03
904.8691, 5.3420998E-02
905.3512, 8.5502997E-02
905.8333, 0.1041300
906.3154, 9.5848002E-02
906.7975, 3.3328999E-02
907.2797, 3.8548000E-02
907.7618, 3.1078000E-02
908.2439, 7.8754000E-02
908.7260, 9.3677998E-02
909.2081, 0.1717410
909.6902, 0.3804510
910.1724, 0.2627910
910.6545, 7.2483003E-02
911.1366, 0.1343990
911.6187, 0.3931270
912.1008, 0.5187530
912.5829, 0.3213920
913.0651, 9.8105997E-02
913.5472, 0.1879840
914.0293, 0.4013480
914.5114, 0.4189000
914.9935, 0.2599070
915.4756, 3.8422000E-02
915.9578, 0.1961060
916.4398, 0.3405840
916.9219, 0.2605440
917.4041, 1.7204000E-02
917.8862, 0.1170690
918.3683, 0.1356770
918.8504, 9.3249999E-02
919.3325, 1.7586000E-02
919.8146, 0.1151620
920.2968, 0.1463200
920.7789, 0.1463050
921.2610, 0.1869130
921.7431, 0.2844850
922.2252, 0.3371090
922.7073, 0.3442610
923.1895, 0.2882580
923.6716, 6.2240999E-02
924.1537, 0.1304020
924.6358, 8.5991003E-02
925.1179, 0.1141200
925.6000, 0.1919820
926.0822, 4.8404999E-02
926.5643, 6.5659001E-02
927.0464, 5.0365001E-02
927.5285, 2.1473000E-02
928.0106, 9.2495002E-02
928.4927, 0.1769750
928.9749, 0.1048770
929.4570, 0.1221240
929.9391, 0.2832180
930.4212, 0.1966320
930.9033, 8.6356997E-02
931.3854, 0.1764410
931.8676, 0.3663140
932.3497, 0.5365830
932.8318, 0.6554530
933.3139, 0.6664010
933.7960, 0.5490800
934.2781, 0.3962100
934.7603, 0.2961080
935.2424, 0.2398990
935.7245, 0.2028810
936.2066, 0.1937870
936.6887, 0.3691100
937.1708, 0.7787130
937.6530, 1.070446
938.1351, 0.9690860
938.6172, 0.6278150
939.0993, 0.4312210
939.5814, 0.4093780
940.0635, 0.3692700
940.5457, 0.2791400
941.0278, 0.2296330
941.5099, 0.2804410
941.9920, 0.3500820
942.4741, 0.3238410
942.9562, 0.2221870
943.4384, 0.2590030
943.9205, 0.5783580
944.4026, 0.8110430
944.8847, 0.9784320
945.3668, 1.010567
945.8489, 0.7477650
946.3311, 0.3954090
946.8132, 0.2398990
947.2953, 0.3094940
947.7774, 0.3991850
948.2595, 0.5131610
948.7416, 0.5392570
949.2238, 0.3373830
949.7059, 8.4187001E-02
950.1880, 3.5053000E-02
950.6701, 4.6711002E-02
951.1522, 9.5104001E-02
951.6343, 0.2327040
952.1165, 0.2922250
952.5986, 6.1988998E-02
953.0807, 0.2698710
953.5628, 0.4642220
954.0449, 0.5492210
954.5270, 0.6018910
955.0092, 0.6344950
955.4913, 0.5958060
955.9734, 0.4418070
956.4555, 0.2830310
956.9376, 0.3612020
957.4197, 0.6052970
957.9019, 0.5950620
958.3840, 0.3247070
958.8661, 0.1372640
959.3482, 0.1454280
959.8303, 0.2147640
960.3124, 0.2226330
960.7946, 0.1991840
961.2767, 0.2945330
961.7588, 0.5671540
962.2409, 0.6217120
962.7230, 0.3210370
963.2051, 0.1131130
963.6873, 0.2391660
964.1694, 0.4977490
964.6515, 0.6446910
965.1336, 0.6796190
965.6157, 0.6426730
966.0978, 0.4090040
966.5800, 0.3031120
967.0621, 0.5188830
967.5442, 0.6653100
968.0263, 0.4641840
968.5084, 0.1213840
968.9905, 3.6056999E-02
969.4727, 2.1778001E-02
969.9548, 8.0292001E-02
970.4369, 0.1188010
970.9190, 0.1509590
971.4011, 0.1926350
971.8832, 0.1950530
972.3654, 0.1037410
972.8475, 3.7117001E-02
973.3296, 0.1620940
973.8117, 0.2678790
974.2938, 0.2477570
974.7759, 0.1289790
975.2581, 0.4925500
975.7402, 0.4673000
976.2223, 0.2425880
976.7044, 9.2991002E-02
977.1865, 5.8765002E-02
977.6686, 6.5738998E-02
978.1508, 8.1321999E-02
978.6329, 9.1240004E-02
979.1150, 4.7958001E-02
979.5971, 5.1610000E-03
980.0792, 0.1025350
980.5613, 0.2883260
981.0435, 0.3676410
981.5256, 0.3077890
982.0077, 0.2140010
982.4898, 0.1654850
982.9719, 0.1741910
983.4540, 0.2842370
983.9362, 0.4633900
984.4183, 0.4849210
984.9004, 0.3468510
985.3825, 0.2920460
985.8646, 0.4094580
986.3467, 0.5402760
986.8289, 0.5301440
987.3110, 0.4188460
987.7931, 0.3282170
988.2752, 0.2442890
988.7573, 0.3267360
989.2394, 0.6599770
989.7216, 0.8762890
990.2037, 0.7917480
990.6858, 0.5587160
991.1679, 0.3339310
991.6500, 0.1266290
992.1321, 0.1339720
992.6143, 0.5192260
993.0964, 0.7426680
993.5785, 0.6715430
994.0606, 0.5548630
994.5427, 0.4809150
995.0248, 0.4593320
995.5070, 0.5526160
995.9891, 0.7819980
996.4712, 0.8234670
996.9533, 0.4352610
997.4354, 0.1974980
997.9175, 0.3146360
998.3997, 0.4866220
998.8818, 0.5237120
999.3639, 0.4970860
999.8460, 0.5689160
1000.328, 0.7699620
1000.810, 0.8514900
1001.292, 0.6238440
1001.774, 0.4310490
1002.257, 0.4422150
1002.739, 0.5141790
1003.221, 0.5197490
1003.703, 0.4847340
1004.185, 0.4968030
1004.667, 0.5807530
1005.149, 0.6576770
1005.631, 0.6852800
1006.114, 0.6953240
1006.596, 0.7095260
1007.078, 0.7189900
1007.560, 0.7180630
1008.042, 0.6947020
1008.524, 0.6211930
1009.006, 0.4796100
1009.488, 0.3522680
1009.970, 0.3006320
1010.453, 0.3343320
1010.935, 0.5184560
1011.417, 0.7347030
1011.899, 0.7391740
1012.381, 0.5649570
1012.863, 0.5218010
1013.345, 0.7751810
1013.827, 1.033134
1014.310, 0.9002950
1014.792, 0.5893170
1015.274, 0.4910550
1015.756, 0.5647390
1016.238, 0.7207410
1016.720, 0.9029460
1017.202, 0.9241100
1017.684, 0.6559680
1018.166, 0.3308330
1018.649, 0.3130530
1019.131, 0.5275880
1019.613, 0.7119670
1020.095, 0.8587950
1020.577, 0.9491650
1021.059, 0.9742930
1021.541, 1.001404
1022.023, 1.078724
1022.505, 1.115639
1022.988, 0.8526080
1023.470, 0.3391340
1023.952, 0.2824590
1024.434, 0.6959340
1024.916, 0.9143750
1025.398, 0.7462350
1025.880, 0.5305020
1026.362, 0.5141220
1026.845, 0.6208420
1027.327, 0.6977690
1027.809, 0.7443160
1028.291, 0.7579570
1028.773, 0.7342800
1029.255, 0.6898080
1029.737, 0.6184840
1030.219, 0.5584180
1030.702, 0.5474010
1031.184, 0.5527610
1031.666, 0.4807930
1032.148, 0.3155290
1032.630, 0.2229160
1033.112, 0.1592980
1033.594, 0.2503280
1034.076, 0.6349600
1034.558, 0.9748500
1035.041, 0.9655650
1035.523, 0.7215390
1036.005, 0.5882110
1036.487, 0.5858380
1036.969, 0.6315380
1037.451, 0.8512380
1037.933, 0.8713420
1038.415, 0.4105680
1038.897, 5.2910000E-02
1039.380, 8.7807000E-02
1039.862, 0.1758420
1040.344, 0.3056450
1040.826, 0.2441330
1041.308, 0.2125780
1041.790, 0.2434920
1042.272, 0.2607000
1042.754, 0.2023240
1043.237, 0.1612820
1043.719, 0.2405590
1044.201, 0.3952790
1044.683, 0.4949040
1045.165, 0.5491260
1045.647, 0.5152930
1046.129, 0.2122150
1046.611, 6.8947002E-02
1047.094, 0.3530500
1047.576, 0.6788180
1048.058, 0.6984630
1048.540, 0.5306970
1049.022, 0.5354230
1049.504, 0.8103520
1049.986, 0.9735070
1050.468, 0.9772220
1050.950, 0.8760340
1051.432, 0.4983370
1051.915, 0.1625750
1052.397, 0.1827010
1052.879, 0.4321630
1053.361, 0.5747260
1053.843, 0.5422210
1054.325, 0.5313680
1054.807, 0.6535760
1055.289, 0.7072640
1055.772, 0.5455250
1056.254, 0.3661350
1056.736, 0.2923200
1057.218, 0.3364140
1057.700, 0.5453220
1058.182, 0.9595260
1058.664, 1.213409
1059.146, 1.107140
1059.629, 0.9522090
1060.111, 0.8496510
1060.593, 0.7695430
1061.075, 0.6554490
1061.557, 0.5548020
1062.039, 0.5841670
1062.521, 0.7679370
1063.003, 0.8761670
1063.485, 0.7538950
1063.968, 0.6385120
1064.450, 0.6436420
1064.932, 0.6860010
1065.414, 0.7016410
1065.896, 0.6991000
1066.378, 0.7201120
1066.860, 0.7689510
1067.342, 0.7570460
1067.824, 0.5622670
1068.307, 0.4198460
1068.789, 0.5118370
1069.271, 0.6222610
1069.753, 0.5260660
1070.235, 0.3427120
1070.717, 0.3084450
1071.199, 0.4513170
1071.681, 0.5787090
1072.164, 0.6148990
1072.646, 0.6197810
1073.128, 0.5928730
1073.610, 0.5736770
1074.092, 0.6222110
1074.574, 0.6836470
1075.056, 0.6427960
1075.538, 0.5094490
1076.021, 0.4590190
1076.503, 0.6112400
1076.985, 0.7595630
1077.467, 0.8035770
1077.949, 0.8065300
1078.431, 0.8045540
1078.913, 0.7985500
1079.395, 0.8028030
1079.877, 0.8029290
1080.359, 0.7244110
1080.842, 0.4937860
1081.324, 0.3173220
1081.806, 0.3658030
1082.288, 0.4264910
1082.770, 0.2907710
1083.252, 0.1201900
1083.734, 0.1274070
1084.216, 0.2980420
1084.698, 0.4994200
1085.181, 0.7195550
1085.663, 0.8369370
1086.145, 0.7638780
1086.627, 0.6096150
1087.109, 0.3434870
1087.591, 0.1053960
1088.073, 5.3059001E-02
1088.555, 0.1555180
1089.038, 0.3207630
1089.520, 0.5420070
1090.002, 0.6474840
1090.484, 0.4513510
1090.966, 0.2645150
1091.448, 0.2640380
1091.930, 0.3339920
1092.412, 0.3937720
1092.895, 0.4261630
1093.377, 0.4013330
1093.859, 0.3141140
1094.341, 0.2819600
1094.823, 0.4540020
1095.305, 0.5461580
1095.787, 0.3682560
1096.269, 0.1379050
1096.751, 1.2913000E-02
1097.234, 8.8627003E-02
1097.716, 0.1121560
1098.198, 9.4375998E-02
1098.680, 2.3827000E-02
1099.162, 0.1834220
1099.644, 0.3171730
1100.126, 0.2717440
1100.608, 0.1776200
1101.090, 3.9322000E-02
1101.573, 5.1631998E-02
1102.055, 8.9642003E-02
1102.537, 0.4018940
1103.019, 0.4908490
1103.501, 0.1335910
1103.983, 0.1209140
1104.465, 9.2074998E-02
1104.947, 1.6980000E-03
1105.430, 5.6931000E-02
1105.912, 0.1264690
1106.394, 0.3542860
1106.876, 0.6402360
1107.358, 0.6231610
1107.840, 0.1297610
1108.322, 0.1721610
1108.804, 3.6285002E-02
1109.286, 0.1101680
1109.769, 0.1490820
1110.251, 0.1445010
1110.733, 0.1216050
1111.215, 9.9426001E-02
1111.697, 0.1139110
1112.179, 0.1698070
1112.661, 0.2414360
1113.143, 0.3747860
1113.625, 0.4526820
1114.108, 0.4493060
1114.590, 0.3959050
1115.072, 0.2758640
1115.554, 0.1347770
1116.036, 2.3548000E-02
1116.518, 5.7776999E-02
1117.000, 8.0627002E-02
1117.482, 3.1528000E-02
1117.965, 5.8334000E-02
1118.447, 0.1083070
1118.929, 0.2111550
1119.411, 0.1657980
1119.893, 8.3899999E-04
1120.375, 0.3281860
1120.857, 0.7451820
1121.339, 0.9006080
1121.822, 0.6650770
1122.304, 0.5905270
1122.786, 0.7979890
1123.268, 0.8778080
1123.750, 0.6444850
1124.232, 0.4203680
1124.714, 0.4830740
1125.196, 0.6731910
1125.678, 0.6285630
1126.161, 0.3261110
1126.643, 0.1312070
1127.125, 4.5279998E-02
1127.607, 7.4000999E-02
1128.089, 0.2494240
1128.571, 0.4313240
1129.053, 0.5559540
1129.535, 0.6146810
1130.017, 0.5774230
1130.500, 0.4711760
1130.982, 0.4867630
1131.464, 0.6345710
1131.946, 0.7485350
1132.428, 0.8137320
1132.910, 0.8445700
1133.392, 0.8409160
1133.874, 0.8543430
1134.357, 0.9448810
1134.839, 1.051739
1135.321, 0.9873810
1135.803, 0.7806510
1136.285, 0.7370720
1136.767, 0.8522450
1137.249, 0.9728240
1137.731, 1.060616
1138.214, 1.086384
1138.696, 1.031506
1139.178, 0.9167180
1139.660, 0.7096100
1140.142, 0.4957700
1140.624, 0.6059610
1141.106, 0.9322280
1141.588, 1.078667
1142.070, 1.022430
1142.552, 0.9501040
1143.035, 0.9354480
1143.517, 0.8969570
1143.999, 0.7314490
1144.481, 0.5612870
1144.963, 0.6076050
1145.445, 0.7579610
1145.927, 0.8342480
1146.409, 0.8274420
1146.892, 0.7200660
1147.374, 0.5398640
1147.856, 0.4327550
1148.338, 0.4896510
1148.820, 0.5902180
1149.302, 0.6474380
1149.784, 0.6767730
1150.266, 0.7134440
1150.749, 0.7219470
1151.231, 0.6064300
1151.713, 0.4188960
1152.195, 0.3338320
1152.677, 0.4053800
1153.159, 0.4802440
1153.641, 0.4458540
1154.123, 0.4307060
1154.605, 0.5179670
1155.088, 0.6405940
1155.570, 0.7920420
1156.052, 0.9204520
1156.534, 0.9706150
1157.016, 0.9338870
1157.498, 0.7961040
1157.980, 0.4445380
1158.462, 0.2198410
1158.944, 0.2723430
1159.427, 0.3806080
1159.909, 0.5049820
1160.391, 0.5949290
1160.873, 0.5738640
1161.355, 0.4871440
1161.837, 0.4821620
1162.319, 0.6263120
1162.801, 0.6225740
1163.284, 0.2619020
1163.766, 8.9538999E-02
1164.248, 0.2944110
1164.730, 0.5384940
1165.212, 0.6760100
1165.694, 0.7199170
1166.176, 0.6495900
1166.658, 0.5029910
1167.141, 0.4892200
1167.623, 0.6777570
1168.105, 0.6893200
1168.587, 0.4583740
1169.069, 0.2402800
1169.551, 0.1032100
1170.033, 5.9879001E-02
1170.515, 0.1365200
1170.997, 0.2740210
1171.479, 0.3630750
1171.962, 0.4052050
1172.444, 0.4063110
1172.926, 0.3681910
1173.408, 0.3885040
1173.890, 0.4906390
1174.372, 0.5582240
1174.854, 0.5711520
1175.336, 0.5609780
1175.819, 0.5479770
1176.301, 0.5237540
1176.783, 0.4419520
1177.265, 0.3450510
1177.747, 0.3808060
1178.229, 0.5033190
1178.711, 0.5183300
1179.193, 0.4027790
1179.676, 0.2892720
1180.158, 0.2474780
1180.640, 0.2821120
1181.122, 0.4859890
1181.604, 0.6831820
1182.086, 0.6406520
1182.568, 0.4961130
1183.050, 0.4651680
1183.532, 0.5035440
1184.015, 0.4185070
1184.497, 0.1776430
1184.979, 1.7143000E-02
1185.461, 6.3819997E-02
1185.943, 0.1849980
1186.425, 0.4364320
1186.907, 0.6131250
1187.389, 0.4900170
1187.871, 0.2806700
1188.354, 0.2546540
1188.836, 0.3764800
1189.318, 0.4384190
1189.800, 0.3889620
1190.282, 0.3765220
1190.764, 0.4740330
1191.246, 0.5213890
1191.728, 0.4167100
1192.211, 0.3522640
1192.693, 0.4898380
1193.175, 0.6664050
1193.657, 0.6355130
1194.139, 0.4288790
1194.621, 0.3417740
1195.103, 0.3900910
1195.585, 0.5175400
1196.068, 0.7704540
1196.550, 0.8477360
1197.032, 0.6275330
1197.514, 0.3885270
1197.996, 0.3322180
1198.478, 0.3930780
1198.960, 0.4758340
1199.442, 0.5690500
1199.924, 0.6298710
1200.406, 0.6498410
1200.889, 0.5125310
1201.371, 0.2506030
1201.853, 0.2177470
1202.335, 0.5175480
1202.817, 0.7533990
1203.299, 0.5869260
1203.781, 0.2915190
1204.263, 0.2246930
1204.746, 0.2655110
1205.228, 0.2289160
1205.710, 0.1601370
1206.192, 0.1704030
1206.674, 0.2491910
1207.156, 0.3031390
1207.638, 0.3001480
1208.120, 0.3063320
1208.603, 0.3728450
1209.085, 0.4396020
1209.567, 0.5288960
1210.049, 0.5497590
1210.531, 0.3564490
1211.013, 0.1007920
1211.495, 3.9980002E-03
1211.977, 2.8960999E-02
1212.459, 2.5597000E-02
1212.942, 9.7865999E-02
1213.424, 7.5149998E-02
1213.906, 0.3004460
1214.388, 0.5371740
1214.870, 0.4342960
1215.352, 0.3470190
1215.834, 0.5394670
1216.316, 0.7742810
1216.798, 0.6774710
1217.281, 0.3186910
1217.763, 0.2488520
1218.245, 0.5193670
1218.727, 0.6219020
1219.209, 0.5206450
1219.691, 0.4034650
1220.173, 0.3195460
1220.655, 0.2877540
1221.138, 0.3281780
1221.620, 0.3374820
1222.102, 0.3709220
1222.584, 0.3910940
1223.066, 0.5044360
1223.548, 0.6429290
1224.030, 0.5676310
1224.512, 0.3408580
1224.995, 0.2478640
1225.477, 0.3486860
1225.959, 0.4969520
1226.441, 0.6274150
1226.923, 0.6424790
1227.405, 0.3011700
1227.887, 5.9389998E-03
1228.369, 0.1016160
1228.851, 0.1649670
1229.333, 0.0000000E+00
##END=



