##NAMES=Lulzacite
##RRUFFID=R110147
##IDEAL CHEMISTRY=Sr_2_Fe^2+^_3_Al_4_(PO_4_)_4_(OH)_10_
##LOCALITY=Saint-Aubin-des-Ch√¢teaux, Loire-Atlantique, France
##OWNER=RRUFF
##SOURCE=Olivier Pourret
##DESCRIPTION=Gray glassy and massive, associated with siderite and pyrite
##STATUS=The identification of this mineral has been confirmed only by single crystal X-ray diffraction.
##URL=rruff.info/R110147
147.3820, 0.0000000E+00
147.8641, 0.2816640
148.3462, 0.4520820
148.8283, 0.7357130
149.3104, 0.9460500
149.7925, 1.528280
150.2747, 1.817363
150.7568, 1.193858
151.2389, 0.6430890
151.7210, 0.2124910
152.2031, 0.1211890
152.6852, 0.2707460
153.1674, 9.7791001E-02
153.6495, 0.2301090
154.1316, 0.4740300
154.6137, 0.5199720
155.0958, 0.5603710
155.5779, 0.6538880
156.0601, 0.8154150
156.5422, 1.000091
157.0243, 1.227362
157.5064, 1.469082
157.9885, 1.671221
158.4706, 1.506451
158.9528, 1.529728
159.4349, 2.072412
159.9170, 3.634447
160.3991, 4.917377
160.8812, 5.321920
161.3633, 5.145891
161.8455, 5.171400
162.3276, 5.748461
162.8097, 6.561434
163.2918, 7.444265
163.7739, 8.439583
164.2560, 9.374916
164.7382, 10.21047
165.2203, 10.93538
165.7024, 11.50842
166.1845, 11.89808
166.6666, 12.13421
167.1487, 12.21410
167.6309, 11.81757
168.1130, 11.60568
168.5951, 12.00475
169.0772, 12.96629
169.5593, 14.19541
170.0414, 15.91433
170.5236, 17.69374
171.0057, 18.99288
171.4878, 19.46720
171.9699, 19.54510
172.4520, 19.35423
172.9341, 18.93437
173.4163, 18.79970
173.8984, 19.58809
174.3805, 20.89151
174.8626, 21.99626
175.3447, 22.57287
175.8268, 22.87835
176.3090, 23.15138
176.7911, 23.38622
177.2732, 23.64042
177.7553, 23.77916
178.2374, 23.74223
178.7195, 23.63234
179.2017, 23.35740
179.6838, 23.09414
180.1659, 23.15880
180.6480, 23.56957
181.1301, 24.06933
181.6122, 24.46244
182.0944, 24.75870
182.5765, 24.97043
183.0586, 25.19684
183.5407, 25.33653
184.0228, 25.08732
184.5049, 24.38740
184.9871, 23.65378
185.4692, 23.52311
185.9513, 23.87211
186.4334, 24.03603
186.9155, 23.47136
187.3976, 22.45130
187.8798, 21.93657
188.3619, 22.02378
188.8440, 22.35492
189.3261, 22.53393
189.8082, 22.56033
190.2903, 22.35377
190.7725, 21.69040
191.2546, 20.68277
191.7367, 20.07131
192.2188, 19.95418
192.7009, 20.05506
193.1830, 19.90936
193.6652, 19.51644
194.1473, 19.13680
194.6294, 18.98296
195.1115, 19.02435
195.5936, 18.81333
196.0757, 18.23913
196.5579, 17.55110
197.0400, 17.26521
197.5221, 17.41450
198.0042, 17.63718
198.4863, 17.75314
198.9684, 17.77704
199.4506, 17.80085
199.9327, 17.79497
200.4148, 17.80917
200.8969, 18.09129
201.3790, 18.71643
201.8611, 19.05383
202.3433, 18.60394
202.8254, 17.26464
203.3075, 16.41683
203.7896, 16.30613
204.2717, 16.62077
204.7538, 16.51205
205.2360, 15.81558
205.7181, 15.16513
206.2002, 15.01741
206.6823, 15.49763
207.1644, 15.60125
207.6465, 15.06868
208.1287, 14.20502
208.6108, 13.99285
209.0929, 14.63029
209.5750, 15.35680
210.0571, 15.69799
210.5392, 15.60444
211.0214, 15.43209
211.5035, 15.15113
211.9856, 14.81282
212.4677, 14.65876
212.9498, 14.79421
213.4319, 14.88227
213.9140, 14.64373
214.3962, 13.89705
214.8783, 13.48905
215.3604, 13.56107
215.8425, 14.01520
216.3246, 14.49860
216.8067, 15.12002
217.2889, 15.57443
217.7710, 15.62689
218.2531, 15.10189
218.7352, 14.67955
219.2173, 14.36569
219.6994, 14.19470
220.1816, 14.36893
220.6637, 15.05882
221.1458, 15.80315
221.6279, 16.30821
222.1100, 16.52167
222.5921, 16.63564
223.0743, 16.60112
223.5564, 16.47583
224.0385, 16.57732
224.5206, 17.07092
225.0027, 17.52470
225.4848, 17.63979
225.9670, 17.22538
226.4491, 16.95179
226.9312, 16.99095
227.4133, 17.22356
227.8954, 17.04441
228.3775, 16.27466
228.8597, 15.35881
229.3418, 14.57030
229.8239, 13.98023
230.3060, 13.36264
230.7881, 12.75306
231.2702, 12.10776
231.7524, 11.17868
232.2345, 9.660702
232.7166, 8.300381
233.1987, 7.618671
233.6808, 8.066254
234.1629, 8.176899
234.6451, 7.715565
235.1272, 6.837288
235.6093, 6.248211
236.0914, 6.179520
236.5735, 6.083187
237.0556, 5.618313
237.5378, 4.521198
238.0199, 3.641201
238.5020, 3.100040
238.9841, 2.809586
239.4662, 2.407959
239.9483, 1.741875
240.4305, 1.176285
240.9126, 0.9271510
241.3947, 1.180946
241.8768, 1.344574
242.3589, 1.385319
242.8410, 1.319538
243.3232, 1.197723
243.8053, 0.9921300
244.2874, 0.7677150
244.7695, 0.5619430
245.2516, 0.3954850
245.7337, 0.1880570
246.2159, 0.1163410
246.6980, 0.4589880
247.1801, 0.6469800
247.6622, 0.6300050
248.1443, 0.5303420
248.6264, 0.3945050
249.1086, 0.1645010
249.5907, 5.7610001E-02
250.0728, 0.1352690
250.5549, 0.3199460
251.0370, 0.4030530
251.5191, 0.3384020
252.0013, 0.2412870
252.4834, 0.1319200
252.9655, 6.4762004E-02
253.4476, 5.0934002E-02
253.9297, 0.3720590
254.4118, 0.9328310
254.8940, 1.023071
255.3761, 0.4215930
255.8582, 0.2615200
256.3403, 0.7942620
256.8224, 1.175957
257.3046, 1.391041
257.7867, 1.374802
258.2688, 1.229279
258.7509, 1.150532
259.2330, 1.161835
259.7151, 1.189758
260.1973, 1.202381
260.6794, 1.185135
261.1615, 1.219021
261.6436, 1.343300
262.1257, 1.484245
262.6078, 1.443871
263.0900, 1.013992
263.5721, 0.9137610
264.0542, 1.540668
264.5363, 3.098389
265.0184, 4.033386
265.5005, 4.149147
265.9827, 3.900124
266.4648, 3.971363
266.9469, 4.504135
267.4290, 4.935566
267.9111, 4.997044
268.3932, 4.638962
268.8754, 4.766090
269.3575, 5.515938
269.8396, 6.534187
270.3217, 7.384731
270.8038, 8.044540
271.2859, 8.605511
271.7681, 9.046860
272.2502, 9.372791
272.7323, 9.841331
273.2144, 10.51653
273.6965, 11.18502
274.1786, 11.53249
274.6608, 11.46114
275.1429, 11.65290
275.6250, 12.44065
276.1071, 13.67953
276.5892, 14.16167
277.0714, 13.65950
277.5535, 13.02701
278.0356, 13.12249
278.5177, 14.02000
278.9998, 14.88763
279.4819, 15.60434
279.9641, 16.15532
280.4462, 16.40855
280.9283, 16.32608
281.4104, 16.10994
281.8925, 15.82745
282.3746, 15.47379
282.8568, 15.42640
283.3389, 15.84558
283.8210, 16.53408
284.3031, 16.93319
284.7852, 17.02276
285.2673, 17.02145
285.7495, 17.05093
286.2316, 17.11474
286.7137, 17.29510
287.1958, 17.69408
287.6779, 18.08125
288.1600, 17.86187
288.6422, 17.02550
289.1243, 16.21327
289.6064, 15.93472
290.0885, 16.06951
290.5706, 16.01387
291.0527, 15.69917
291.5349, 15.20695
292.0170, 14.64732
292.4991, 14.02327
292.9812, 13.32255
293.4633, 12.45521
293.9454, 11.50205
294.4276, 10.79852
294.9097, 10.42599
295.3918, 10.05022
295.8739, 9.132210
296.3560, 7.796196
296.8381, 6.584743
297.3203, 5.819389
297.8024, 5.356049
298.2845, 4.952484
298.7666, 4.617023
299.2487, 4.193584
299.7308, 3.415287
300.2130, 2.397762
300.6951, 1.483974
301.1772, 0.7777020
301.6593, 0.2699010
302.1414, 2.2864999E-02
302.6235, 0.1010970
303.1057, 8.0959000E-02
303.5878, 2.3705000E-02
304.0699, 0.1510960
304.5520, 0.1758840
305.0341, 2.1492001E-02
305.5162, 0.2558290
305.9984, 0.3309630
306.4805, 0.2610970
306.9626, 0.1522830
307.4447, 3.6858000E-02
307.9268, 5.6159999E-02
308.4089, 8.7569997E-02
308.8911, 4.3437999E-02
309.3732, 5.1383998E-02
309.8553, 0.3105810
310.3374, 0.6409990
310.8195, 0.7292020
311.3016, 0.1268200
311.7838, 0.6508900
312.2659, 1.136993
312.7480, 1.186253
313.2301, 1.117462
313.7122, 0.9134520
314.1943, 0.7048450
314.6765, 0.7875400
315.1586, 1.773739
315.6407, 2.755482
316.1228, 3.060886
316.6049, 2.422012
317.0870, 1.888515
317.5692, 2.000008
318.0513, 2.485989
318.5334, 2.960243
319.0155, 3.241474
319.4976, 3.544762
319.9797, 4.049820
320.4619, 4.789036
320.9440, 5.405987
321.4261, 5.707653
321.9082, 5.863983
322.3903, 6.034649
322.8724, 6.159866
323.3546, 6.416584
323.8367, 6.954113
324.3188, 7.740219
324.8009, 8.313370
325.2830, 8.428596
325.7651, 8.408382
326.2473, 8.462128
326.7294, 8.720245
327.2115, 8.944916
327.6936, 9.231377
328.1757, 9.484386
328.6578, 9.346596
329.1400, 8.378239
329.6221, 7.436661
330.1042, 6.898289
330.5863, 7.180798
331.0684, 7.113686
331.5505, 6.409279
332.0327, 5.423817
332.5148, 4.960457
332.9969, 5.304222
333.4790, 5.793148
333.9611, 6.284267
334.4432, 6.886375
334.9254, 7.000191
335.4075, 6.371387
335.8896, 5.465626
336.3717, 4.906273
336.8538, 4.738953
337.3359, 4.833969
337.8180, 5.257027
338.3001, 5.997921
338.7823, 6.467102
339.2644, 6.614071
339.7465, 6.584942
340.2286, 6.478119
340.7107, 6.270401
341.1928, 6.136848
341.6750, 6.114990
342.1571, 6.193745
342.6392, 6.342606
343.1213, 6.568962
343.6034, 6.833534
344.0855, 7.151688
344.5677, 7.515236
345.0498, 7.758202
345.5319, 7.838825
346.0140, 7.823837
346.4961, 7.815182
346.9782, 7.814091
347.4604, 7.853527
347.9425, 7.964863
348.4246, 8.134220
348.9067, 8.305695
349.3888, 8.472878
349.8709, 8.659554
350.3531, 8.897362
350.8352, 9.179935
351.3173, 9.482712
351.7994, 9.857918
352.2815, 10.22722
352.7636, 10.45912
353.2458, 10.55293
353.7279, 10.56152
354.2100, 10.47746
354.6921, 10.34554
355.1742, 10.24231
355.6563, 10.18118
356.1385, 10.16597
356.6206, 10.18702
357.1027, 10.25114
357.5848, 10.39154
358.0669, 10.67889
358.5490, 11.02685
359.0312, 11.37886
359.5133, 11.79086
359.9954, 12.05772
360.4775, 11.87264
360.9596, 11.46000
361.4417, 11.29468
361.9239, 11.82012
362.4060, 12.44553
362.8881, 12.86245
363.3702, 13.02041
363.8523, 13.04515
364.3344, 12.94654
364.8166, 12.75278
365.2987, 12.49235
365.7808, 11.99848
366.2629, 11.61671
366.7450, 11.56118
367.2271, 11.82652
367.7093, 11.80650
368.1914, 11.34288
368.6735, 10.62937
369.1556, 9.795910
369.6377, 8.401310
370.1198, 7.442829
370.6020, 7.248783
371.0841, 7.558674
371.5662, 7.416996
372.0483, 6.558357
372.5304, 5.573696
373.0125, 4.689999
373.4947, 3.934662
373.9768, 3.202885
374.4589, 2.402496
374.9410, 1.690350
375.4231, 1.422802
375.9052, 1.858185
376.3874, 1.992661
376.8695, 1.381401
377.3516, 4.5479000E-02
377.8337, 0.7261310
378.3158, 0.8376050
378.7979, 0.6881030
379.2801, 0.6206470
379.7622, 0.6346280
380.2443, 0.7516980
380.7264, 1.037880
381.2085, 1.380836
381.6906, 1.459362
382.1728, 1.270367
382.6549, 1.010719
383.1370, 0.7853550
383.6191, 0.5952340
384.1012, 0.4879650
384.5833, 0.5079880
385.0655, 0.4752960
385.5476, 2.4878999E-02
386.0297, 0.7201390
386.5118, 1.290638
386.9939, 1.194794
387.4760, 0.9024280
387.9582, 1.103909
388.4403, 1.817886
388.9224, 2.770664
389.4045, 4.111496
389.8866, 5.449547
390.3687, 6.199821
390.8509, 5.634823
391.3330, 4.992771
391.8151, 5.179939
392.2972, 6.052189
392.7793, 7.016361
393.2614, 8.203808
393.7436, 9.100250
394.2257, 9.237297
394.7078, 8.132454
395.1899, 7.246342
395.6720, 7.178951
396.1541, 7.641632
396.6363, 8.170815
397.1184, 8.791615
397.6005, 9.332493
398.0826, 9.674812
398.5647, 9.772835
399.0468, 10.02802
399.5290, 10.53642
400.0111, 11.18507
400.4932, 11.88335
400.9753, 12.62497
401.4574, 13.42690
401.9395, 14.29038
402.4217, 15.21351
402.9038, 16.17294
403.3859, 17.17623
403.8680, 18.20543
404.3501, 19.27002
404.8322, 20.39226
405.3144, 21.42216
405.7965, 22.28732
406.2786, 23.13208
406.7607, 24.22214
407.2428, 25.61254
407.7249, 26.95107
408.2071, 28.10198
408.6892, 29.10445
409.1713, 30.14120
409.6534, 31.20538
410.1355, 32.21818
410.6176, 33.08019
411.0998, 33.82267
411.5819, 34.56626
412.0640, 35.32825
412.5461, 36.19427
413.0282, 37.43227
413.5103, 38.94630
413.9925, 40.31266
414.4746, 41.21252
414.9567, 41.86512
415.4388, 42.53192
415.9209, 43.21554
416.4030, 44.04351
416.8852, 45.32353
417.3673, 46.79649
417.8494, 48.04309
418.3315, 48.80006
418.8136, 49.39326
419.2957, 50.15038
419.7779, 50.99182
420.2600, 51.41722
420.7421, 51.06025
421.2242, 50.28087
421.7063, 49.36330
422.1884, 48.45845
422.6706, 47.21127
423.1527, 45.25710
423.6348, 42.92570
424.1169, 40.83173
424.5990, 39.33493
425.0811, 37.80045
425.5633, 36.04308
426.0454, 34.04189
426.5275, 31.92780
427.0096, 29.41698
427.4917, 26.99212
427.9738, 25.04774
428.4560, 23.72399
428.9381, 22.60108
429.4202, 21.68601
429.9023, 20.94334
430.3844, 20.21739
430.8665, 19.52523
431.3487, 18.81363
431.8308, 18.01006
432.3129, 17.10440
432.7950, 16.36911
433.2771, 15.79757
433.7592, 15.43005
434.2414, 15.39219
434.7235, 15.64978
435.2056, 15.79561
435.6877, 15.68372
436.1698, 15.44677
436.6519, 15.29836
437.1341, 15.23028
437.6162, 15.16684
438.0983, 15.06950
438.5804, 14.92120
439.0625, 14.67837
439.5446, 14.31295
440.0268, 14.01049
440.5089, 14.00203
440.9910, 14.16853
441.4731, 14.26712
441.9552, 14.27104
442.4373, 14.09300
442.9195, 13.59655
443.4016, 12.81468
443.8837, 12.12887
444.3658, 11.74838
444.8479, 11.44762
445.3300, 11.05381
445.8122, 10.26532
446.2943, 9.769066
446.7764, 9.852005
447.2585, 10.29830
447.7406, 10.56609
448.2227, 10.60895
448.7049, 10.47278
449.1870, 10.05709
449.6691, 9.241135
450.1512, 8.925537
450.6333, 9.364525
451.1154, 10.03118
451.5976, 10.42801
452.0797, 10.47810
452.5618, 10.52473
453.0439, 10.68224
453.5260, 10.83872
454.0081, 10.56913
454.4903, 9.801975
454.9724, 9.068550
455.4545, 8.679878
455.9366, 8.596043
456.4187, 8.555218
456.9008, 8.574299
457.3830, 8.498695
457.8651, 8.146431
458.3472, 7.549644
458.8293, 6.803047
459.3114, 5.754200
459.7935, 4.750626
460.2757, 4.352325
460.7578, 4.444023
461.2399, 4.432808
461.7220, 3.806248
462.2041, 2.982857
462.6862, 2.356022
463.1684, 1.999405
463.6505, 1.770653
464.1326, 1.778950
464.6147, 1.824013
465.0968, 1.643734
465.5789, 0.8008310
466.0611, 9.4120003E-02
466.5432, 0.1958690
467.0253, 9.4521001E-02
467.5074, 2.2624999E-02
467.9895, 0.2794150
468.4716, 0.4077910
468.9538, 0.2344470
469.4359, 0.5585480
469.9180, 0.9292220
470.4001, 0.6466060
470.8822, 0.1052860
471.3643, 8.1367001E-02
471.8465, 0.2165450
472.3286, 0.5001030
472.8107, 0.6699260
473.2928, 0.7221030
473.7749, 0.5731890
474.2570, 0.1715430
474.7392, 0.1541940
475.2213, 1.4931000E-02
475.7034, 0.4860270
476.1855, 0.6081620
476.6676, 0.2273330
477.1497, 0.3844450
477.6319, 0.9686090
478.1140, 1.497696
478.5961, 1.869946
479.0782, 1.939358
479.5603, 1.892162
480.0424, 1.951393
480.5246, 2.102577
481.0067, 2.226299
481.4888, 2.058231
481.9709, 1.938293
482.4530, 2.221596
482.9352, 3.096485
483.4173, 4.024643
483.8994, 4.819847
484.3815, 5.523830
484.8636, 6.200085
485.3457, 6.888710
485.8279, 7.543251
486.3100, 8.131618
486.7921, 8.634113
487.2742, 9.092697
487.7563, 9.422142
488.2384, 9.843845
488.7206, 10.47600
489.2027, 11.36442
489.6848, 12.36245
490.1669, 13.57591
490.6490, 14.78401
491.1311, 15.57345
491.6133, 15.85461
492.0954, 16.30278
492.5775, 17.20744
493.0596, 18.41562
493.5417, 19.30343
494.0238, 19.86032
494.5060, 20.49172
494.9881, 21.65191
495.4702, 23.10238
495.9523, 24.29622
496.4344, 25.15424
496.9165, 25.74897
497.3987, 25.86785
497.8808, 25.80183
498.3629, 26.09854
498.8450, 27.30372
499.3271, 28.67678
499.8092, 29.75620
500.2914, 30.58797
500.7735, 31.35309
501.2556, 32.02402
501.7377, 32.74462
502.2198, 33.64501
502.7019, 34.91487
503.1841, 35.93129
503.6662, 36.47713
504.1483, 36.79026
504.6304, 37.15099
505.1125, 37.73623
505.5946, 38.08404
506.0768, 38.15468
506.5589, 37.93557
507.0410, 37.32616
507.5231, 36.23154
508.0052, 35.01581
508.4873, 33.84716
508.9695, 32.74067
509.4516, 31.53548
509.9337, 30.20086
510.4158, 28.88939
510.8979, 27.80490
511.3800, 26.89915
511.8622, 26.00848
512.3443, 25.10220
512.8264, 24.16804
513.3085, 23.15862
513.7906, 22.09039
514.2728, 21.02143
514.7549, 19.99700
515.2370, 18.97884
515.7191, 17.93906
516.2012, 16.87163
516.6833, 15.78198
517.1655, 14.62972
517.6476, 13.46917
518.1297, 12.34465
518.6118, 11.14800
519.0939, 10.13444
519.5760, 9.464073
520.0582, 9.003059
520.5403, 8.387222
521.0224, 7.301025
521.5045, 6.520184
521.9866, 6.373745
522.4688, 6.859646
522.9509, 6.980648
523.4330, 6.630024
523.9151, 6.140701
524.3972, 5.681011
524.8793, 5.269073
525.3615, 5.247055
525.8436, 5.718636
526.3257, 6.376480
526.8078, 6.850040
527.2899, 7.095791
527.7720, 7.077526
528.2542, 6.699089
528.7363, 6.192688
529.2184, 5.775505
529.7005, 5.427025
530.1826, 5.143993
530.6647, 4.939308
531.1469, 4.812290
531.6290, 4.831036
532.1111, 5.086967
532.5932, 5.151028
533.0753, 4.713879
533.5574, 4.015514
534.0396, 3.360905
534.5217, 2.786140
535.0038, 2.333069
535.4859, 2.044708
535.9680, 1.863846
536.4501, 1.611485
536.9323, 1.224846
537.4144, 0.8774530
537.8965, 0.6753690
538.3786, 0.6270980
538.8607, 0.3487210
539.3428, 0.2267420
539.8250, 0.8198620
540.3071, 1.170692
540.7892, 1.292122
541.2713, 1.324177
541.7534, 1.265614
542.2355, 1.181774
542.7177, 1.225746
543.1998, 1.332844
543.6819, 1.293983
544.1640, 0.9251560
544.6461, 0.4301260
545.1282, 8.7554999E-02
545.6104, 0.5988580
546.0925, 0.9434970
546.5746, 0.6895750
547.0567, 0.4850270
547.5388, 0.8617740
548.0209, 2.142845
548.5031, 3.151672
548.9852, 3.234756
549.4673, 3.128605
549.9494, 3.635895
550.4315, 5.414604
550.9136, 6.786915
551.3958, 7.464027
551.8779, 7.654938
552.3600, 7.886974
552.8421, 8.061584
553.3242, 8.631245
553.8063, 9.959465
554.2885, 11.91441
554.7706, 13.44632
555.2527, 14.53706
555.7348, 15.39980
556.2169, 16.08966
556.6990, 16.69690
557.1812, 17.49778
557.6633, 18.57170
558.1454, 19.70366
558.6275, 20.70149
559.1096, 21.60720
559.5917, 22.51642
560.0739, 23.35472
560.5560, 24.29868
561.0381, 25.45525
561.5202, 26.79211
562.0023, 28.20803
562.4844, 29.78139
562.9666, 31.34280
563.4487, 32.77929
563.9308, 34.03670
564.4129, 35.42859
564.8950, 37.11520
565.3771, 38.75998
565.8593, 40.10368
566.3414, 41.11745
566.8235, 41.97460
567.3056, 42.72738
567.7877, 43.29080
568.2698, 43.56743
568.7520, 43.55241
569.2341, 43.10570
569.7162, 42.00085
570.1983, 40.55011
570.6804, 39.20845
571.1625, 37.99229
571.6447, 36.96512
572.1268, 36.12368
572.6089, 35.51562
573.0910, 35.22257
573.5731, 35.26610
574.0552, 35.49276
574.5374, 36.09494
575.0195, 36.71690
575.5016, 37.02854
575.9837, 36.60933
576.4658, 36.31612
576.9479, 36.22977
577.4301, 36.31212
577.9122, 36.53323
578.3943, 37.09410
578.8764, 37.37369
579.3585, 37.09813
579.8406, 36.37716
580.3228, 36.05474
580.8049, 36.21852
581.2870, 36.23319
581.7691, 35.32139
582.2512, 33.84834
582.7333, 33.41306
583.2155, 34.18268
583.6975, 35.24571
584.1796, 35.90941
584.6617, 36.26263
585.1439, 36.42374
585.6260, 36.31913
586.1081, 36.27854
586.5902, 36.45506
587.0723, 36.76443
587.5544, 37.09901
588.0366, 37.59891
588.5187, 38.04753
589.0008, 38.27015
589.4829, 38.30318
589.9650, 38.68531
590.4471, 39.71420
590.9293, 40.68015
591.4114, 41.22772
591.8935, 41.30591
592.3756, 41.33061
592.8577, 41.29893
593.3398, 41.19835
593.8220, 40.90173
594.3041, 40.46950
594.7862, 40.40948
595.2683, 40.90884
595.7504, 41.54458
596.2325, 41.91129
596.7147, 42.00101
597.1968, 41.78213
597.6789, 40.83413
598.1610, 39.85801
598.6431, 39.51373
599.1252, 39.66868
599.6074, 39.65477
600.0895, 39.39223
600.5716, 38.75337
601.0537, 37.53991
601.5358, 35.56594
602.0179, 34.01125
602.5001, 33.13843
602.9822, 32.42928
603.4643, 31.44698
603.9464, 30.01622
604.4285, 28.99726
604.9106, 28.50807
605.3928, 28.30553
605.8749, 27.94041
606.3570, 27.44729
606.8391, 27.32243
607.3212, 27.87126
607.8033, 28.66589
608.2855, 29.10158
608.7676, 29.22641
609.2497, 29.23341
609.7318, 29.04456
610.2139, 28.91245
610.6960, 29.04051
611.1782, 29.43447
611.6603, 29.95387
612.1424, 30.78918
612.6245, 31.56522
613.1066, 32.04798
613.5887, 32.15530
614.0709, 32.12223
614.5530, 31.92572
615.0351, 31.61012
615.5172, 31.28209
615.9993, 31.03749
616.4814, 30.28262
616.9636, 28.81318
617.4457, 26.98011
617.9278, 25.36665
618.4099, 23.96815
618.8920, 22.73642
619.3741, 21.69608
619.8563, 20.75883
620.3384, 19.77365
620.8205, 18.77326
621.3026, 17.92382
621.7847, 17.41514
622.2668, 17.02254
622.7490, 16.55056
623.2311, 15.95517
623.7132, 15.56779
624.1953, 15.77077
624.6774, 16.01268
625.1595, 15.90667
625.6417, 15.30402
626.1238, 14.62118
626.6059, 13.78856
627.0880, 12.96248
627.5701, 12.41504
628.0522, 12.19157
628.5344, 11.79897
629.0165, 11.10074
629.4986, 10.22761
629.9807, 9.432556
630.4628, 8.690800
630.9449, 7.896626
631.4271, 6.712044
631.9092, 5.621929
632.3913, 5.395130
632.8734, 5.868820
633.3555, 6.025265
633.8376, 4.871834
634.3198, 3.622978
634.8019, 3.159809
635.2840, 3.826546
635.7661, 3.872150
636.2482, 2.434570
636.7303, 0.8891220
637.2125, 0.2159960
637.6946, 0.7855950
638.1767, 1.155991
638.6588, 1.247482
639.1409, 1.175274
639.6230, 1.095913
640.1052, 1.005592
640.5873, 0.8323710
641.0694, 0.5287440
641.5515, 0.1884120
642.0336, 4.3830001E-03
642.5157, 8.7543003E-02
642.9979, 0.2801630
643.4800, 1.009041
643.9621, 1.587082
644.4442, 1.331020
644.9263, 0.3963930
645.4084, 0.2773930
645.8906, 0.2511100
646.3727, 1.2371000E-02
646.8548, 0.2613720
647.3369, 0.5806470
647.8190, 0.7952120
648.3011, 0.8772850
648.7833, 0.8935280
649.2654, 0.8934360
649.7475, 0.8800660
650.2296, 0.8010710
650.7117, 0.6439780
651.1938, 0.4586830
651.6760, 0.3193700
652.1581, 0.2047310
652.6402, 3.3752002E-02
653.1223, 0.2722970
653.6044, 0.5186650
654.0865, 0.3791500
654.5687, 7.4322000E-02
655.0508, 2.6573000E-02
655.5329, 0.8478930
656.0150, 1.487026
656.4971, 1.336422
656.9792, 0.5934030
657.4614, 0.3231890
657.9435, 0.8390960
658.4256, 1.451572
658.9077, 2.002129
659.3898, 2.483200
659.8719, 2.655743
660.3541, 2.459881
660.8362, 2.235641
661.3183, 2.196060
661.8004, 2.323685
662.2825, 2.582382
662.7646, 2.977943
663.2468, 3.366261
663.7289, 3.675362
664.2110, 3.879456
664.6931, 3.899391
665.1752, 3.592865
665.6573, 3.437988
666.1395, 3.938183
666.6216, 4.594532
667.1037, 4.792885
667.5858, 3.712864
668.0679, 3.127899
668.5500, 3.392719
669.0322, 4.133450
669.5143, 4.531906
669.9964, 4.535736
670.4785, 4.464111
670.9606, 4.407986
671.4427, 4.345341
671.9249, 4.204002
672.4070, 3.991711
672.8891, 3.775772
673.3712, 3.642273
673.8533, 3.500465
674.3354, 3.179653
674.8176, 2.704422
675.2997, 2.366341
675.7818, 2.418865
676.2639, 2.576935
676.7460, 2.686264
677.2281, 2.738308
677.7103, 2.685413
678.1924, 2.377563
678.6745, 2.117634
679.1566, 2.185062
679.6387, 2.704250
680.1208, 2.912151
680.6030, 2.690319
681.0851, 2.367088
681.5672, 2.358368
682.0493, 2.607803
682.5314, 2.899963
683.0135, 3.231617
683.4957, 3.466248
683.9778, 3.365250
684.4599, 3.071777
684.9420, 2.859886
685.4241, 2.895515
685.9063, 2.960426
686.3884, 2.973747
686.8705, 2.951473
687.3526, 2.947723
687.8347, 2.894440
688.3168, 2.968029
688.7990, 3.264175
689.2811, 3.738060
689.7632, 4.047874
690.2453, 4.170147
690.7274, 4.286659
691.2095, 4.518322
691.6917, 4.822029
692.1738, 5.088436
692.6559, 5.312237
693.1380, 5.478962
693.6201, 5.435482
694.1022, 5.412548
694.5844, 5.712776
695.0665, 6.442940
695.5486, 6.997253
696.0307, 6.923588
696.5128, 6.752605
696.9949, 6.891651
697.4771, 7.545708
697.9592, 8.120365
698.4413, 8.622601
698.9234, 9.025372
699.4055, 9.264587
699.8876, 9.334736
700.3698, 9.452774
700.8519, 9.659870
701.3340, 9.860188
701.8161, 10.01219
702.2982, 10.15306
702.7803, 10.26610
703.2625, 10.14943
703.7446, 10.13409
704.2267, 10.56781
704.7088, 11.25777
705.1909, 11.80657
705.6730, 11.70061
706.1552, 11.92635
706.6373, 13.00562
707.1194, 14.64814
707.6015, 15.44395
708.0836, 15.13028
708.5657, 14.72725
709.0479, 14.62103
709.5300, 14.76909
710.0121, 15.08318
710.4942, 15.55316
710.9763, 15.86941
711.4584, 15.67187
711.9406, 15.28906
712.4227, 15.16389
712.9048, 15.29691
713.3869, 15.33433
713.8690, 14.94691
714.3511, 14.51705
714.8333, 14.24720
715.3154, 14.27027
715.7975, 14.25248
716.2796, 14.26927
716.7617, 14.17099
717.2438, 13.85411
717.7260, 13.28511
718.2081, 12.92849
718.6902, 12.94408
719.1723, 12.92408
719.6544, 12.37277
720.1365, 11.50526
720.6187, 10.90108
721.1008, 10.71272
721.5829, 10.68563
722.0650, 10.87766
722.5471, 11.05480
723.0292, 10.90087
723.5114, 9.862991
723.9935, 9.084820
724.4756, 8.942348
724.9577, 9.097481
725.4398, 8.906757
725.9219, 8.197285
726.4041, 7.714813
726.8862, 7.728207
727.3683, 7.946999
727.8504, 7.598297
728.3325, 6.753262
728.8146, 6.020866
729.2968, 5.804794
729.7789, 5.772537
730.2610, 5.507107
730.7431, 5.098370
731.2252, 4.844227
731.7073, 5.159088
732.1895, 5.379036
732.6716, 5.110832
733.1537, 4.392372
733.6358, 3.960545
734.1179, 4.032497
734.6000, 4.006287
735.0822, 3.550182
735.5643, 2.734360
736.0464, 2.289165
736.5285, 2.225029
737.0106, 2.324188
737.4927, 2.635548
737.9749, 2.931583
738.4570, 2.684620
738.9391, 1.893234
739.4212, 1.257118
739.9033, 1.272968
740.3854, 1.547398
740.8676, 1.853245
741.3497, 2.176105
741.8318, 2.281464
742.3139, 2.039303
742.7960, 1.742237
743.2781, 1.587105
743.7603, 1.593998
744.2424, 1.612015
744.7245, 1.646732
745.2066, 1.654976
745.6887, 1.565002
746.1708, 1.415089
746.6530, 1.312645
747.1351, 1.285305
747.6172, 1.258568
748.0993, 1.137127
748.5814, 1.004673
749.0635, 0.9621160
749.5457, 1.152027
750.0278, 1.236164
750.5099, 1.058575
750.9920, 0.8280450
751.4741, 0.8395540
751.9562, 1.216667
752.4384, 1.261272
752.9205, 0.7822800
753.4026, 0.1424030
753.8847, 5.9826002E-02
754.3668, 8.6783998E-02
754.8489, 0.2143520
755.3311, 0.1611710
755.8132, 0.1444660
756.2953, 0.4874230
756.7774, 0.9766500
757.2595, 1.230110
757.7416, 0.9333990
758.2238, 0.6231840
758.7059, 0.5727040
759.1880, 0.5551260
759.6701, 0.1806870
760.1522, 0.2618410
760.6343, 0.2936710
761.1165, 0.2786790
761.5986, 7.6987997E-02
762.0807, 0.1161500
762.5628, 5.8738999E-02
763.0449, 0.3185840
763.5270, 0.4387250
764.0092, 0.3431550
764.4913, 0.1225280
764.9734, 0.1667790
765.4555, 0.3527300
765.9376, 0.2779240
766.4197, 0.1882130
766.9019, 0.1695520
767.3840, 0.2077750
767.8661, 0.2234920
768.3482, 0.1849630
768.8303, 0.2262380
769.3124, 0.4643590
769.7946, 0.8010140
770.2767, 0.8797610
770.7588, 0.7185060
771.2409, 0.4841080
771.7230, 0.6193960
772.2051, 9.0744004E-02
772.6873, 0.2073710
773.1694, 0.2874490
773.6515, 0.5034480
774.1336, 0.1701350
774.6157, 0.2877350
775.0978, 0.4240840
775.5800, 6.6680998E-02
776.0621, 0.5988430
776.5442, 0.1185460
777.0263, 9.5977999E-02
777.5084, 0.1358530
777.9905, 8.5864998E-02
778.4727, 0.1676480
778.9548, 0.2039790
779.4369, 0.3243900
779.9190, 5.0037000E-02
780.4011, 0.2945790
780.8832, 0.3881720
781.3654, 0.2575300
781.8475, 0.2239650
782.3296, 2.8267000E-02
782.8117, 0.2238880
783.2938, 0.2838630
783.7759, 0.1494640
784.2581, 0.3123130
784.7402, 3.4363002E-02
785.2223, 0.3317410
785.7044, 0.2900090
786.1865, 4.7997002E-02
786.6686, 0.2292480
787.1508, 0.2434390
787.6329, 0.2524910
788.1150, 0.3942030
788.5971, 0.5809140
789.0792, 0.7473450
789.5613, 0.8964310
790.0435, 0.9451330
790.5256, 0.7393230
791.0077, 0.5453300
791.4898, 0.5009650
791.9719, 0.6208190
792.4540, 0.8160100
792.9362, 1.115803
793.4183, 1.351952
793.9004, 1.342781
794.3825, 1.159008
794.8646, 0.9852680
795.3467, 0.8334850
795.8289, 0.7054480
796.3110, 0.6940190
796.7931, 0.6477660
797.2752, 0.3675920
797.7573, 0.2972260
798.2394, 0.6122060
798.7216, 0.3710480
799.2037, 8.9988999E-02
799.6858, 0.6527630
800.1679, 1.384575
800.6500, 1.601906
801.1321, 1.225750
801.6143, 0.8553200
802.0964, 1.231438
802.5785, 1.944500
803.0606, 2.151421
803.5427, 1.727757
804.0248, 1.272327
804.5070, 1.013084
804.9891, 0.9485700
805.4712, 1.129059
805.9533, 1.708076
806.4354, 2.049362
806.9175, 2.102131
807.3997, 1.985943
807.8818, 1.693768
808.3639, 1.237015
808.8460, 1.121120
809.3281, 1.387291
809.8102, 1.703712
810.2924, 1.766464
810.7745, 1.696621
811.2566, 1.653423
811.7387, 1.656845
812.2208, 1.659466
812.7029, 1.504063
813.1851, 1.424953
813.6672, 1.639645
814.1493, 2.280048
814.6314, 2.635548
815.1135, 2.639668
815.5956, 2.511292
816.0778, 2.335072
816.5599, 2.159191
817.0420, 2.283409
817.5241, 2.728222
818.0062, 3.126560
818.4883, 3.234547
818.9705, 3.127918
819.4526, 2.765965
819.9347, 2.075382
820.4168, 1.729053
820.8989, 2.188629
821.3810, 2.744228
821.8632, 3.026360
822.3453, 2.992821
822.8274, 3.126904
823.3095, 3.474594
823.7916, 3.738838
824.2737, 3.491611
824.7559, 3.028503
825.2380, 2.997524
825.7201, 3.428562
826.2022, 3.923038
826.6843, 4.388996
827.1664, 4.693134
827.6486, 4.654419
828.1307, 4.191219
828.6128, 4.111317
829.0949, 4.672104
829.5770, 5.160595
830.0591, 5.157093
830.5413, 4.704906
831.0234, 4.546425
831.5055, 4.644272
831.9876, 4.949364
832.4697, 5.582138
832.9518, 6.211758
833.4340, 6.448509
833.9161, 6.233124
834.3982, 6.122925
834.8803, 6.311237
835.3624, 6.571468
835.8445, 6.816082
836.3267, 7.041885
836.8088, 7.136799
837.2909, 7.048676
837.7730, 7.003914
838.2551, 7.152557
838.7372, 7.406727
839.2194, 7.672031
839.7015, 7.948891
840.1836, 8.177109
840.6657, 8.280167
841.1478, 8.380157
841.6299, 8.583118
842.1121, 8.871834
842.5942, 9.052662
843.0763, 8.984951
843.5584, 9.019470
844.0405, 9.316284
844.5226, 9.776562
845.0048, 10.07212
845.4869, 10.20921
845.9690, 10.29016
846.4511, 10.38284
846.9332, 10.42984
847.4153, 10.31322
847.8975, 10.09583
848.3796, 9.954876
848.8617, 10.19195
849.3438, 10.23051
849.8259, 9.800484
850.3080, 9.094589
850.7902, 8.587040
851.2723, 8.290665
851.7544, 8.157631
852.2365, 8.226643
852.7186, 8.371532
853.2007, 8.385525
853.6829, 8.290787
854.1650, 8.150940
854.6471, 8.021961
855.1292, 7.812042
855.6113, 7.323193
856.0934, 6.740063
856.5756, 6.480049
857.0577, 6.847553
857.5398, 6.860134
858.0219, 6.251419
858.5040, 5.494072
858.9861, 5.519966
859.4683, 6.146614
859.9504, 6.327652
860.4325, 5.699226
860.9146, 4.959431
861.3967, 4.844692
861.8788, 4.954166
862.3610, 4.771832
862.8431, 3.869930
863.3252, 3.233082
863.8073, 3.009388
864.2894, 3.002518
864.7715, 3.041672
865.2537, 3.127087
865.7358, 3.304562
866.2179, 3.605545
866.7000, 3.824783
867.1821, 3.710186
867.6642, 3.402409
868.1464, 3.090725
868.6285, 2.797112
869.1106, 2.528446
869.5927, 2.244228
870.0748, 2.021210
870.5569, 1.939770
871.0391, 2.044945
871.5212, 1.915443
872.0033, 1.463505
872.4854, 1.125290
872.9675, 1.424736
873.4496, 2.041927
873.9318, 2.101852
874.4139, 1.632507
874.8960, 1.284584
875.3781, 1.660736
875.8602, 2.092098
876.3423, 2.096386
876.8245, 1.647537
877.3066, 1.437721
877.7887, 1.582481
878.2708, 1.731663
878.7529, 1.709148
879.2350, 1.574574
879.7172, 1.616863
880.1993, 1.823406
880.6814, 1.970211
881.1635, 1.831318
881.6456, 1.615017
882.1277, 1.461540
882.6099, 1.374969
883.0920, 1.337002
883.5741, 1.213787
884.0562, 1.340912
884.5383, 1.932865
885.0204, 2.694172
885.5026, 2.884270
885.9847, 2.541660
886.4668, 2.320877
886.9489, 2.460144
887.4310, 2.648827
887.9131, 2.407139
888.3953, 2.024513
888.8774, 1.944626
889.3595, 2.596798
889.8416, 3.095734
890.3237, 3.238388
890.8058, 3.249554
891.2880, 3.361694
891.7701, 3.584358
892.2522, 3.785976
892.7343, 3.955608
893.2164, 4.109512
893.6985, 4.162731
894.1807, 4.253735
894.6628, 4.655430
895.1449, 5.466103
895.6270, 6.140224
896.1091, 6.512131
896.5912, 6.653175
897.0734, 6.545715
897.5555, 6.146000
898.0376, 6.096603
898.5197, 6.447346
899.0018, 6.851551
899.4839, 7.050827
899.9661, 7.143120
900.4482, 7.320858
900.9303, 7.572845
901.4124, 7.788540
901.8945, 7.789433
902.3766, 7.865330
902.8588, 8.220253
903.3409, 8.781715
903.8230, 9.220047
904.3051, 9.486721
904.7872, 9.847221
905.2693, 10.45761
905.7515, 11.13470
906.2336, 11.46580
906.7157, 11.55101
907.1978, 11.68172
907.6799, 12.01100
908.1620, 12.36913
908.6442, 12.79996
909.1263, 13.16952
909.6084, 13.24152
910.0905, 12.83848
910.5726, 12.64709
911.0547, 12.80051
911.5369, 13.00448
912.0190, 12.86707
912.5011, 12.46559
912.9832, 11.94260
913.4653, 11.27044
913.9474, 10.83831
914.4296, 11.20343
914.9117, 11.70716
915.3938, 11.75501
915.8759, 11.18645
916.3580, 10.68934
916.8401, 10.25918
917.3223, 9.909573
917.8044, 9.706940
918.2865, 9.593571
918.7686, 9.364017
919.2507, 9.016827
919.7328, 8.559628
920.2150, 7.804676
920.6971, 7.116592
921.1792, 6.759205
921.6613, 6.702057
922.1434, 6.639214
922.6255, 6.665356
923.1077, 6.423172
923.5898, 5.709599
924.0719, 4.772099
924.5540, 4.158222
925.0361, 3.817287
925.5182, 3.563892
926.0004, 3.377327
926.4825, 3.169468
926.9646, 2.825024
927.4467, 2.440536
927.9288, 2.180527
928.4109, 2.199162
928.8931, 2.014042
929.3752, 1.533890
929.8573, 0.9914630
930.3394, 0.6487730
930.8215, 0.4648480
931.3036, 0.2904820
931.7858, 0.1091800
932.2679, 8.0665998E-02
932.7500, 0.3311120
933.2321, 0.5533030
933.7142, 0.6605450
934.1964, 0.6220400
934.6785, 0.6771510
935.1606, 0.8882290
935.6427, 1.031864
936.1248, 0.9095080
936.6069, 0.6523210
937.0891, 0.8100550
937.5712, 1.288555
938.0533, 1.604462
938.5354, 1.350826
939.0175, 1.004238
939.4996, 0.8356320
939.9818, 0.7848130
940.4639, 0.6556360
940.9460, 0.3744130
941.4281, 0.2093470
941.9102, 0.2374110
942.3923, 0.3480990
942.8745, 0.4232860
943.3566, 0.4328310
943.8387, 0.2496300
944.3208, 0.2213630
944.8029, 0.6385080
945.2850, 0.6757430
945.7672, 0.6559140
946.2493, 0.8989980
946.7314, 1.474464
947.2135, 2.040020
947.6956, 2.577869
948.1777, 3.164715
948.6599, 3.951599
949.1420, 4.797028
949.6241, 5.292294
950.1062, 5.469215
950.5883, 5.660503
951.0704, 5.878368
951.5526, 6.319351
952.0347, 7.174648
952.5168, 8.343887
952.9989, 9.487442
953.4810, 10.61154
953.9631, 11.68106
954.4453, 12.68963
954.9274, 13.63173
955.4095, 14.38660
955.8916, 15.08123
956.3737, 16.00661
956.8558, 17.29802
957.3380, 18.75327
957.8201, 20.33152
958.3022, 22.04419
958.7843, 23.99990
959.2664, 26.35864
959.7485, 27.95891
960.2307, 28.66502
960.7128, 29.33659
961.1949, 30.79417
961.6770, 32.66319
962.1591, 34.41216
962.6412, 36.02427
963.1234, 37.65705
963.6055, 39.41105
964.0876, 41.16840
964.5697, 42.93886
965.0518, 44.67679
965.5339, 46.27470
966.0161, 47.73659
966.4982, 48.94440
966.9803, 49.65369
967.4624, 50.41561
967.9445, 52.07256
968.4266, 54.14404
968.9088, 55.80215
969.3909, 56.30856
969.8730, 57.13711
970.3551, 58.37334
970.8372, 59.97182
971.3193, 62.09846
971.8015, 64.65459
972.2836, 66.78006
972.7657, 68.38693
973.2478, 70.04198
973.7299, 72.03699
974.2120, 74.41112
974.6942, 77.23320
975.1763, 80.51818
975.6584, 84.06203
976.1405, 87.86250
976.6226, 91.95094
977.1047, 96.34976
977.5869, 101.0444
978.0690, 106.0517
978.5511, 111.2251
979.0332, 116.1464
979.5153, 120.4351
979.9974, 124.8134
980.4796, 129.7452
980.9617, 134.9758
981.4438, 140.1438
981.9259, 145.3341
982.4080, 150.3640
982.8901, 155.2638
983.3723, 159.9708
983.8544, 164.6335
984.3365, 168.9874
984.8186, 172.3966
985.3007, 174.8449
985.7828, 177.1279
986.2650, 180.0405
986.7471, 182.4103
987.2292, 183.8279
987.7113, 184.3208
988.1934, 184.0476
988.6755, 183.0091
989.1577, 181.0854
989.6398, 178.3001
990.1219, 174.5174
990.6040, 169.4125
991.0861, 163.2479
991.5682, 156.4566
992.0504, 148.8823
992.5325, 141.0571
993.0146, 132.8855
993.4967, 124.6953
993.9788, 116.5553
994.4609, 108.4920
994.9431, 100.6424
995.4252, 92.95759
995.9073, 85.51618
996.3894, 78.19728
996.8715, 71.26324
997.3536, 64.73205
997.8358, 58.69979
998.3179, 53.29040
998.8000, 48.59732
999.2821, 44.30699
999.7642, 40.29400
1000.246, 36.53270
1000.728, 32.99498
1001.211, 29.71487
1001.693, 26.94117
1002.175, 24.86845
1002.657, 23.00478
1003.139, 21.16006
1003.621, 19.43630
1004.103, 17.98617
1004.585, 16.89911
1005.068, 15.46988
1005.550, 13.63083
1006.032, 11.99534
1006.514, 11.28110
1006.996, 10.85429
1007.478, 9.798244
1007.960, 8.224251
1008.442, 6.944851
1008.924, 6.128563
1009.407, 5.742275
1009.889, 6.000153
1010.371, 6.475658
1010.853, 6.186340
1011.335, 5.250168
1011.817, 4.466984
1012.299, 4.027660
1012.781, 3.726837
1013.263, 3.412029
1013.746, 3.244141
1014.228, 3.046818
1014.710, 3.110405
1015.192, 3.199493
1015.674, 3.334282
1016.156, 3.427082
1016.638, 3.327129
1017.120, 3.194565
1017.603, 3.468929
1018.085, 4.035141
1018.567, 4.479565
1019.049, 4.522648
1019.531, 4.523880
1020.013, 4.483871
1020.495, 4.530586
1020.977, 4.961880
1021.459, 5.793365
1021.942, 6.232361
1022.424, 6.144703
1022.906, 5.933430
1023.388, 5.863354
1023.870, 5.933002
1024.352, 6.198837
1024.834, 6.685478
1025.316, 7.030651
1025.799, 7.182755
1026.281, 7.250351
1026.763, 7.212822
1027.245, 7.174137
1027.727, 7.477810
1028.209, 8.023987
1028.691, 8.472340
1029.173, 8.604900
1029.656, 8.750340
1030.138, 9.122444
1030.620, 9.539555
1031.102, 9.809776
1031.584, 9.908676
1032.066, 10.03090
1032.548, 10.19917
1033.030, 10.21164
1033.512, 9.720554
1033.995, 9.098938
1034.477, 8.834305
1034.959, 8.887333
1035.441, 8.865791
1035.923, 8.699062
1036.405, 8.416718
1036.887, 7.990906
1037.369, 7.488941
1037.851, 7.100643
1038.334, 6.756378
1038.816, 6.086056
1039.298, 4.901794
1039.780, 3.869442
1040.262, 3.483021
1040.744, 3.344372
1041.226, 3.183037
1041.708, 2.997879
1042.191, 2.539295
1042.673, 1.755947
1043.155, 1.089821
1043.637, 0.7389180
1044.119, 0.6690900
1044.601, 1.029125
1045.083, 1.613018
1045.565, 1.936958
1046.047, 1.703739
1046.530, 1.413197
1047.012, 1.103184
1047.494, 0.7638630
1047.976, 0.3033070
1048.458, 0.2136840
1048.940, 0.3515280
1049.422, 9.3151003E-02
1049.904, 4.6126999E-02
1050.386, 0.3744890
1050.869, 0.9056470
1051.351, 1.354740
1051.833, 1.689445
1052.315, 1.799919
1052.797, 1.689026
1053.279, 1.258411
1053.761, 0.3371540
1054.243, 0.5398140
1054.726, 0.6433030
1055.208, 0.2967000
1055.690, 0.1109470
1056.172, 0.6441310
1056.654, 0.7039570
1057.136, 1.1364000E-02
1057.618, 0.6962430
1058.100, 0.7721440
1058.583, 0.4470370
1059.065, 0.6132700
1059.547, 1.158493
1060.029, 1.564137
1060.511, 1.415283
1060.993, 1.233582
1061.475, 1.141998
1061.957, 1.196049
1062.439, 1.509903
1062.922, 2.121677
1063.404, 2.700718
1063.886, 3.236984
1064.368, 3.559452
1064.850, 3.357227
1065.332, 2.982677
1065.814, 2.702213
1066.296, 2.557362
1066.778, 2.762306
1067.261, 3.585747
1067.743, 4.147331
1068.225, 4.152058
1068.707, 3.897903
1069.189, 3.923882
1069.671, 4.125973
1070.153, 4.262363
1070.635, 4.261799
1071.118, 4.237148
1071.600, 4.311832
1072.082, 4.293274
1072.564, 4.019447
1073.046, 3.527088
1073.528, 3.211823
1074.010, 3.077141
1074.492, 3.133656
1074.974, 3.610107
1075.457, 4.029999
1075.939, 3.868088
1076.421, 3.469292
1076.903, 3.454067
1077.385, 4.049049
1077.867, 4.401241
1078.349, 4.445759
1078.831, 4.357948
1079.313, 4.204758
1079.796, 4.073433
1080.278, 4.078766
1080.760, 4.227165
1081.242, 4.517357
1081.724, 5.214573
1082.206, 5.674709
1082.688, 5.643452
1083.170, 5.458336
1083.652, 5.767696
1084.135, 6.465279
1084.617, 7.161072
1085.099, 7.789471
1085.581, 8.358044
1086.063, 8.953568
1086.545, 9.401703
1087.027, 9.509136
1087.509, 9.341248
1087.992, 9.659081
1088.474, 10.47031
1088.956, 11.09188
1089.438, 10.92929
1089.920, 10.89306
1090.402, 12.14559
1090.884, 13.94541
1091.366, 15.26767
1091.849, 15.91544
1092.331, 16.20663
1092.813, 16.02017
1093.295, 15.88979
1093.777, 16.28125
1094.259, 16.95123
1094.741, 17.48116
1095.223, 17.88819
1095.705, 18.25549
1096.188, 18.42129
1096.670, 18.81815
1097.152, 19.54253
1097.634, 20.47073
1098.116, 21.57022
1098.598, 22.76273
1099.080, 23.67027
1099.562, 24.26282
1100.044, 24.61342
1100.527, 24.54896
1101.009, 24.47013
1101.491, 24.55554
1101.973, 24.80698
1102.455, 25.31608
1102.937, 26.08983
1103.419, 26.66815
1103.901, 26.94550
1104.384, 26.98140
1104.866, 26.71652
1105.348, 26.28229
1105.830, 25.79168
1106.312, 25.25133
1106.794, 24.72714
1107.276, 24.21648
1107.758, 23.82384
1108.240, 23.65150
1108.723, 23.44854
1109.205, 22.75579
1109.687, 21.70915
1110.169, 20.56087
1110.651, 19.19668
1111.133, 18.23555
1111.615, 17.84184
1112.097, 17.46875
1112.579, 16.63691
1113.062, 15.53806
1113.544, 14.85432
1114.026, 14.51727
1114.508, 14.11454
1114.990, 13.47385
1115.472, 12.64111
1115.954, 11.57196
1116.436, 10.42334
1116.919, 9.346901
1117.401, 8.358162
1117.883, 7.808105
1118.365, 7.694283
1118.847, 7.617222
1119.329, 7.227436
1119.811, 6.861240
1120.293, 6.844696
1120.776, 7.041065
1121.258, 6.943829
1121.740, 6.518955
1122.222, 6.059639
1122.704, 5.602997
1123.186, 5.241325
1123.668, 5.259800
1124.150, 5.313553
1124.632, 4.859062
1125.115, 3.799026
1125.597, 3.289501
1126.079, 3.567513
1126.561, 3.670994
1127.043, 3.132484
1127.525, 2.352203
1128.007, 1.815254
1128.489, 1.551022
1128.971, 1.650547
1129.454, 2.409325
1129.936, 2.836214
1130.418, 2.796221
1130.900, 2.530336
1131.382, 2.026966
1131.864, 1.459751
1132.346, 1.440645
1132.828, 1.817814
1133.311, 2.088305
1133.793, 2.096933
1134.275, 1.872433
1134.757, 1.220770
1135.239, 0.5697170
1135.721, 0.3285900
1136.203, 0.4651050
1136.685, 0.6930200
1137.167, 0.9914700
1137.650, 1.202383
1138.132, 1.282501
1138.614, 1.189857
1139.096, 0.6646370
1139.578, 6.9367997E-02
1140.060, 4.6684001E-02
1140.542, 0.6121440
1141.024, 1.084919
1141.506, 1.399612
1141.989, 1.527441
1142.471, 1.344131
1142.953, 1.061222
1143.435, 0.7906040
1143.917, 0.5597800
1144.399, 0.4474980
1144.881, 0.4741860
1145.363, 0.4502470
1145.846, 0.3023280
1146.328, 0.3710770
1146.810, 0.5775790
1147.292, 1.131470
1147.774, 1.310167
1148.256, 2.8190000E-03
1148.738, 0.6098940
1149.220, 0.4505620
1149.703, 0.2593100
1150.185, 1.143978
1150.667, 5.0147999E-02
1151.149, 0.9201350
1151.631, 1.004694
1152.113, 1.444862
1152.595, 1.108181
1153.077, 1.011135
1153.559, 1.690918
1154.042, 1.940218
1154.524, 1.513201
1155.006, 1.049715
1155.488, 1.065676
1155.970, 1.042896
1156.452, 0.9512330
1156.934, 0.6749130
1157.416, 0.5328430
1157.898, 0.6272470
1158.381, 0.7493320
1158.863, 0.7204990
1159.345, 0.5897660
1159.827, 0.5976580
1160.309, 0.6948490
1160.791, 0.6816980
1161.273, 0.2903390
1161.755, 1.4097000E-02
1162.238, 3.0913999E-02
1162.720, 0.1449090
1163.202, 0.1813560
1163.684, 0.1346490
1164.166, 0.1005610
1164.648, 0.4815500
1165.130, 0.5879900
1165.612, 0.1808490
1166.094, 0.8631480
1166.577, 1.105101
1167.059, 0.9787010
1167.541, 0.3735870
1168.023, 0.6375240
1168.505, 0.9944710
1168.987, 0.5889890
1169.469, 6.8509998E-03
1169.951, 0.7050020
1170.433, 1.111507
1170.916, 0.6670990
1171.398, 0.2087330
1171.880, 0.4470080
1172.362, 6.0980000E-02
1172.844, 0.2564640
1173.326, 0.3934610
1173.808, 0.3137590
1174.290, 0.3805730
1174.773, 0.9986820
1175.255, 0.8645400
1175.737, 0.1328680
1176.219, 0.4584160
1176.701, 0.9177130
1177.183, 1.064005
1177.665, 0.7851940
1178.147, 0.4138320
1178.630, 0.1397970
1179.112, 2.0311000E-02
1179.594, 0.2492980
1180.076, 0.8218650
1180.558, 0.7352920
1181.040, 0.1177060
1181.522, 0.5371530
1182.004, 0.1554010
1182.486, 0.9899270
1182.969, 0.7855590
1183.451, 0.1913170
1183.933, 4.8622001E-02
1184.415, 0.5560400
1184.897, 0.6577840
1185.379, 0.2641740
1185.861, 5.5874001E-02
1186.343, 0.5708870
1186.825, 1.193085
1187.308, 1.080194
1187.790, 0.6176530
1188.272, 0.4213470
1188.754, 0.6725030
1189.236, 0.9003260
1189.718, 1.096186
1190.200, 1.307747
1190.682, 1.709328
1191.165, 2.033230
1191.647, 1.713839
1192.129, 1.077715
1192.611, 0.8612800
1193.093, 1.588839
1193.575, 1.788576
1194.057, 1.316391
1194.539, 0.8280050
1195.021, 0.8024710
1195.504, 1.089134
1195.986, 1.707043
1196.468, 2.459040
1196.950, 2.762980
1197.432, 2.318167
1197.914, 1.845444
1198.396, 1.336615
1198.878, 0.9916400
1199.360, 1.128094
1199.843, 1.468044
1200.325, 1.648363
1200.807, 1.673302
1201.289, 1.609272
1201.771, 1.361502
1202.253, 1.287956
1202.735, 1.463375
1203.217, 1.708271
1203.700, 1.751562
1204.182, 2.106375
1204.664, 2.123337
1205.146, 2.780394
1205.628, 3.262327
1206.110, 3.568369
1206.592, 3.491035
1207.074, 2.892078
1207.557, 2.181770
1208.039, 1.751980
1208.521, 1.603550
1209.003, 1.891895
1209.485, 2.578814
1209.967, 2.927938
1210.449, 2.706156
1210.931, 2.526615
1211.413, 2.539635
1211.896, 2.575983
1212.378, 2.331928
1212.860, 2.002304
1213.342, 1.858494
1213.824, 1.932159
1214.306, 2.175955
1214.788, 2.657539
1215.270, 3.093687
1215.752, 3.446077
1216.235, 3.632875
1216.717, 3.312574
1217.199, 2.865292
1217.681, 2.931322
1218.163, 3.648283
1218.645, 4.108681
1219.127, 4.324444
1219.609, 3.983000
1220.092, 2.760498
1220.574, 1.486280
1221.056, 1.535238
1221.538, 2.242016
1222.020, 2.670095
1222.502, 2.620298
1222.984, 2.521559
1223.466, 2.398129
1223.948, 2.428799
1224.431, 2.754927
1224.913, 3.102495
1225.395, 3.019911
1225.877, 2.673029
1226.359, 2.365479
1226.841, 2.186312
1227.323, 2.220419
1227.805, 2.538706
1228.287, 2.657089
1228.770, 2.268707
1229.252, 1.746964
1229.734, 1.683897
1230.216, 1.884449
1230.698, 2.030830
1231.180, 2.058857
1231.662, 2.091690
1232.144, 2.115664
1232.627, 2.013046
1233.109, 1.690304
1233.591, 1.449610
1234.073, 1.724609
1234.555, 2.169300
1235.037, 2.306498
1235.519, 2.031416
1236.001, 1.795044
1236.484, 1.581474
1236.966, 1.561167
1237.448, 1.947393
1237.930, 2.412052
1238.412, 2.616257
1238.894, 2.638496
1239.376, 2.637653
1239.858, 2.716761
1240.340, 2.609852
1240.823, 2.283903
1241.305, 2.022619
1241.787, 2.100080
1242.269, 2.183922
1242.751, 1.896183
1243.233, 1.443775
1243.715, 1.076981
1244.197, 0.8140490
1244.679, 0.8550950
1245.162, 1.184158
1245.644, 1.474312
1246.126, 1.561701
1246.608, 1.568829
1247.090, 1.639366
1247.572, 1.585739
1248.054, 1.109509
1248.536, 0.2002010
1249.019, 7.2173998E-02
1249.501, 0.2507500
1249.983, 0.6454790
1250.465, 0.8249890
1250.947, 0.9352650
1251.429, 0.8902660
1251.911, 0.9699380
1252.393, 1.613436
1252.875, 1.365036
1253.358, 2.586079
1253.840, 1.364380
1254.322, 0.3986150
1254.804, 0.4813390
1255.286, 0.8136250
1255.768, 1.291710
1256.250, 1.720482
1256.732, 1.934011
1257.214, 1.946125
1257.697, 1.863951
1258.179, 1.698822
1258.661, 1.520622
1259.143, 1.319109
1259.625, 1.189053
1260.107, 1.164776
1260.589, 1.175890
1261.071, 1.217361
1261.554, 1.235620
1262.036, 0.8912430
1262.518, 0.3554800
1263.000, 0.1907350
1263.482, 1.093971
1263.964, 1.575830
1264.446, 1.392319
1264.928, 1.058558
1265.411, 0.9663070
1265.893, 1.038652
1266.375, 1.216909
1266.857, 1.429903
1267.339, 1.486994
1267.821, 1.201540
1268.303, 0.9935190
1268.785, 0.8774150
1269.267, 0.8135930
1269.750, 0.6745640
1270.232, 0.6332760
1270.714, 1.167967
1271.196, 1.939049
1271.678, 2.093607
1272.160, 1.295879
1272.642, 0.7682990
1273.124, 0.5396580
1273.606, 0.5927120
1274.089, 1.280500
1274.571, 1.899876
1275.053, 1.542912
1275.535, 0.7608130
1276.017, 0.5778260
1276.499, 1.153334
1276.981, 1.286762
1277.463, 0.9221270
1277.946, 0.5582430
1278.428, 0.5074310
1278.910, 0.5620730
1279.392, 0.7653470
1279.874, 0.9230800
1280.356, 0.7005520
1280.838, 0.1170060
1281.320, 2.1420000E-02
1281.802, 0.2455080
1282.285, 0.4667430
1282.767, 0.3011190
1283.249, 0.1538700
1283.731, 0.2817290
1284.213, 0.4364530
1284.695, 0.3468340
1285.177, 0.1074620
1285.659, 0.2231640
1286.141, 0.6205960
1286.624, 0.9806840
1287.106, 1.374800
1287.588, 1.331266
1288.070, 0.5579970
1288.552, 0.1255970
1289.034, 0.1444260
1289.516, 0.9172400
1289.998, 1.202513
1290.481, 1.138927
1290.963, 1.095747
1291.445, 1.327208
1291.927, 1.263086
1292.409, 0.8052810
1292.891, 0.3729170
1293.373, 0.2748070
1293.855, 0.3095070
1294.338, 0.1955660
1294.820, 2.2206999E-02
1295.302, 5.4363001E-02
1295.784, 2.6237000E-02
1296.266, 6.3947998E-02
1296.748, 0.3317720
1297.230, 0.5112190
1297.712, 0.3494910
1298.194, 0.1916540
1298.677, 0.3407500
1299.159, 0.6245210
1299.641, 0.7973730
1300.123, 1.009161
1300.605, 0.9117850
1301.087, 0.5374870
1301.569, 0.2057080
1302.051, 0.1017680
1302.533, 4.4966001E-02
1303.016, 0.0000000E+00
##END=



