##NAMES=Macdonaldite
##RRUFFID=R060770
##IDEAL CHEMISTRY=BaCa_4_Si_16_O_36_(OH)_2_&#183;10H_2_O
##LOCALITY=Rush Creek, Fresno County, California, USA
##OWNER=RRUFF
##SOURCE=Michael Scott
##DESCRIPTION=Radiating aggregates of white platy crystals
##STATUS=The identification of this mineral is not yet confirmed.
##URL=rruff.info/R060770
153.8250, 0.0000000E+00
154.3070, 19.65527
154.7890, 27.80127
155.2710, 32.82324
155.7530, 16.36035
156.2350, 1.016113
156.7170, 9.647949
157.1990, 11.10352
157.6820, 3.813965
158.1640, 12.06104
158.6460, 35.95850
159.1280, 67.88428
159.6100, 109.6904
160.0920, 157.6162
160.5740, 207.0503
161.0560, 257.3628
161.5380, 306.4092
162.0200, 354.4409
162.5030, 405.2373
162.9850, 444.8794
163.4670, 461.7539
163.9490, 461.6670
164.4310, 460.8560
164.9130, 463.0640
165.3950, 469.2964
165.8780, 481.3335
166.3600, 507.6533
166.8420, 530.6284
167.3240, 536.4722
167.8060, 528.1309
168.2880, 521.6963
168.7700, 526.7754
169.2520, 539.1377
169.7340, 553.8667
170.2170, 577.2812
170.6990, 597.5024
171.1810, 602.3169
171.6630, 591.7397
172.1450, 579.1426
172.6270, 567.2017
173.1090, 560.4985
173.5910, 567.4077
174.0730, 612.8350
174.5560, 664.8359
175.0380, 677.5122
175.5200, 642.5972
176.0020, 605.1855
176.4840, 612.1577
176.9660, 652.4683
177.4480, 694.4268
177.9300, 720.8535
178.4130, 737.5322
178.8950, 754.1118
179.3770, 771.3696
179.8590, 789.7148
180.3410, 811.4482
180.8230, 835.7368
181.3050, 858.5923
181.7870, 874.8047
182.2690, 887.2266
182.7510, 903.0366
183.2340, 921.9351
183.7160, 946.3389
184.1980, 983.0859
184.6800, 1031.915
185.1620, 1082.105
185.6440, 1131.145
186.1260, 1176.056
186.6090, 1203.755
187.0910, 1199.846
187.5730, 1180.245
188.0550, 1191.847
188.5370, 1237.087
189.0190, 1289.267
189.5010, 1319.084
189.9830, 1328.643
190.4650, 1338.535
190.9470, 1359.916
191.4300, 1388.721
191.9120, 1403.587
192.3940, 1403.907
192.8760, 1393.000
193.3580, 1369.096
193.8400, 1332.006
194.3220, 1303.414
194.8050, 1297.055
195.2870, 1311.655
195.7690, 1316.007
196.2510, 1304.347
196.7330, 1292.691
197.2150, 1318.102
197.6970, 1386.345
198.1790, 1444.561
198.6610, 1455.697
199.1430, 1417.999
199.6260, 1402.623
200.1080, 1421.127
200.5900, 1458.076
201.0720, 1470.343
201.5540, 1450.090
202.0360, 1437.330
202.5180, 1462.857
203.0000, 1531.768
203.4830, 1594.367
203.9650, 1644.184
204.4470, 1683.318
204.9290, 1720.742
205.4110, 1757.809
205.8930, 1788.854
206.3750, 1809.527
206.8570, 1819.278
207.3390, 1819.881
207.8220, 1807.478
208.3040, 1784.843
208.7860, 1775.992
209.2680, 1783.890
209.7500, 1800.136
210.2320, 1818.359
210.7140, 1840.461
211.1960, 1859.692
211.6780, 1871.247
212.1610, 1879.536
212.6430, 1881.747
213.1250, 1875.211
213.6070, 1866.792
214.0890, 1863.968
214.5710, 1866.796
215.0530, 1875.858
215.5360, 1896.086
216.0180, 1930.911
216.5000, 1939.226
216.9820, 1906.824
217.4640, 1860.949
217.9460, 1844.409
218.4280, 1869.071
218.9100, 1896.889
219.3920, 1917.308
219.8740, 1931.213
220.3570, 1932.910
220.8390, 1920.974
221.3210, 1898.435
221.8030, 1868.659
222.2850, 1824.550
222.7670, 1786.618
223.2490, 1769.059
223.7310, 1790.896
224.2140, 1778.595
224.6960, 1715.782
225.1780, 1625.070
225.6600, 1560.746
226.1420, 1537.946
226.6240, 1518.319
227.1060, 1484.066
227.5880, 1427.731
228.0700, 1371.332
228.5530, 1310.852
229.0350, 1250.672
229.5170, 1208.720
229.9990, 1195.837
230.4810, 1185.072
230.9630, 1161.151
231.4450, 1116.526
231.9270, 1073.208
232.4100, 1028.782
232.8920, 986.0527
233.3740, 961.4565
233.8560, 967.2163
234.3380, 975.8105
234.8200, 968.2612
235.3020, 931.9175
235.7840, 905.2983
236.2660, 894.2075
236.7490, 897.1382
237.2310, 901.2495
237.7130, 910.2212
238.1950, 916.3154
238.6770, 911.5371
239.1590, 882.6060
239.6410, 869.6504
240.1230, 882.5288
240.6050, 920.2354
241.0880, 952.6821
241.5700, 983.9849
242.0520, 1005.828
242.5340, 1008.433
243.0160, 976.2383
243.4980, 959.4849
243.9800, 969.4429
244.4620, 1005.054
244.9450, 1030.515
245.4270, 1036.861
245.9090, 1039.052
246.3910, 1055.341
246.8730, 1104.874
247.3550, 1136.469
247.8370, 1131.515
248.3190, 1085.654
248.8010, 1062.722
249.2840, 1079.964
249.7660, 1104.450
250.2480, 1100.143
250.7300, 1054.362
251.2120, 1005.090
251.6940, 958.6577
252.1760, 914.3198
252.6580, 883.8198
253.1410, 870.9438
253.6230, 867.7163
254.1050, 865.7119
254.5870, 866.3594
255.0690, 866.8208
255.5510, 866.2246
256.0330, 864.4487
256.5150, 863.4580
256.9970, 867.6870
257.4800, 868.3970
257.9620, 850.4941
258.4440, 799.5537
258.9260, 760.2666
259.4080, 748.3262
259.8900, 768.8838
260.3720, 779.7632
260.8540, 776.6304
261.3360, 767.5405
261.8190, 764.5693
262.3010, 773.2168
262.7830, 779.4360
263.2650, 776.1226
263.7470, 757.9907
264.2290, 739.1489
264.7110, 719.7197
265.1940, 701.6841
265.6760, 690.8022
266.1580, 694.3428
266.6400, 684.9404
267.1220, 650.0781
267.6040, 585.3706
268.0860, 528.6318
268.5680, 482.7266
269.0500, 441.4062
269.5330, 395.5186
270.0150, 341.0127
270.4970, 293.1279
270.9790, 259.9644
271.4610, 243.3042
271.9430, 220.1396
272.4250, 188.9341
272.9070, 153.6841
273.3890, 117.4141
273.8720, 78.58252
274.3540, 48.26709
274.8360, 32.67480
275.3180, 32.45557
275.8000, 32.71387
276.2820, 34.14502
276.7640, 34.66016
277.2460, 30.56396
277.7280, 21.20703
278.2110, 10.54102
278.6930, 3.165039
279.1750, 20.10791
279.6570, 23.08789
280.1390, 9.676270
280.6210, 12.57422
281.1030, 34.02588
281.5850, 54.73828
282.0680, 72.27881
282.5500, 84.71582
283.0320, 92.32178
283.5140, 99.94678
283.9960, 107.6797
284.4780, 115.4126
284.9600, 123.3696
285.4420, 131.6133
285.9240, 138.7690
286.4070, 140.1069
286.8890, 137.9321
287.3710, 150.7363
287.8530, 180.9707
288.3350, 217.9893
288.8170, 250.0137
289.2990, 277.0757
289.7810, 297.6157
290.2630, 310.3354
290.7460, 315.9883
291.2280, 317.4434
291.7100, 314.5410
292.1920, 307.9912
292.6740, 299.3281
293.1560, 288.2310
293.6380, 272.9014
294.1210, 250.1870
294.6030, 223.1484
295.0850, 199.8462
295.5670, 180.8477
296.0490, 162.4658
296.5310, 139.3320
297.0130, 112.6719
297.4950, 87.58984
297.9770, 65.42236
298.4600, 46.48486
298.9420, 35.54443
299.4240, 33.54736
299.9060, 27.12061
300.3880, 5.042969
300.8700, 53.68359
301.3520, 93.20752
301.8340, 112.1484
302.3160, 116.3652
302.7990, 108.8169
303.2810, 89.14746
303.7630, 73.34717
304.2450, 82.60840
304.7270, 105.6187
305.2090, 120.2700
305.6910, 112.0605
306.1730, 94.43311
306.6550, 79.29053
307.1380, 66.25781
307.6200, 54.41553
308.1020, 43.59766
308.5840, 32.85596
309.0660, 21.36035
309.5480, 13.59668
310.0300, 2.203125
310.5120, 23.48193
310.9950, 62.64941
311.4770, 98.66748
311.9590, 111.9941
312.4410, 118.2275
312.9230, 134.7075
313.4050, 181.6987
313.8870, 228.9980
314.3690, 262.4961
314.8520, 282.8931
315.3340, 293.4966
315.8160, 301.5503
316.2980, 298.7441
316.7800, 277.9126
317.2620, 212.4507
317.7440, 151.1660
318.2260, 115.2534
318.7080, 101.7949
319.1900, 86.08398
319.6730, 40.21582
320.1550, 0.9975590
320.6370, 6.428223
321.1190, 50.50732
321.6010, 108.3057
322.0830, 152.6362
322.5650, 186.1792
323.0470, 219.1289
323.5300, 248.0469
324.0120, 280.4673
324.4940, 320.6123
324.9760, 378.9634
325.4580, 432.0195
325.9400, 471.6763
326.4220, 503.1768
326.9040, 542.4331
327.3870, 599.2344
327.8690, 656.8906
328.3510, 707.4741
328.8330, 738.2241
329.3150, 783.6001
329.7970, 849.6289
330.2790, 929.4189
330.7610, 1008.100
331.2430, 1091.624
331.7250, 1166.126
332.2080, 1227.518
332.6900, 1277.687
333.1720, 1309.992
333.6540, 1323.713
334.1360, 1320.375
334.6180, 1300.915
335.1000, 1259.774
335.5820, 1213.433
336.0650, 1160.512
336.5470, 1094.995
337.0290, 1067.894
337.5110, 1091.870
337.9930, 1139.963
338.4750, 1178.220
338.9570, 1205.766
339.4390, 1224.014
339.9220, 1230.013
340.4040, 1224.396
340.8860, 1226.350
341.3680, 1238.540
341.8500, 1251.604
342.3320, 1255.858
342.8140, 1251.395
343.2960, 1239.499
343.7780, 1219.672
344.2610, 1192.957
344.7430, 1162.392
345.2250, 1127.603
345.7070, 1090.697
346.1890, 1048.261
346.6710, 1002.793
347.1530, 972.3833
347.6350, 967.6523
348.1170, 974.4497
348.6000, 962.0205
349.0820, 930.6821
349.5640, 895.2568
350.0460, 865.5918
350.5280, 840.4507
351.0100, 819.2637
351.4920, 804.2437
351.9740, 788.6870
352.4570, 763.7656
352.9390, 730.6729
353.4210, 694.9009
353.9030, 653.7397
354.3850, 614.4106
354.8670, 592.6006
355.3490, 599.8809
355.8310, 599.0786
356.3140, 546.0391
356.7960, 460.6899
357.2780, 387.7510
357.7600, 361.1509
358.2420, 349.6606
358.7240, 329.0659
359.2060, 296.6270
359.6880, 260.8677
360.1700, 224.5620
360.6520, 189.3389
361.1350, 157.2959
361.6170, 127.8730
362.0990, 100.4751
362.5810, 74.88184
363.0630, 51.77539
363.5450, 30.15332
364.0270, 11.65576
364.5090, 6.098145
364.9920, 25.41553
365.4740, 57.86328
365.9560, 80.93018
366.4380, 82.84863
366.9200, 63.99951
367.4020, 56.10254
367.8840, 77.92920
368.3660, 100.5859
368.8490, 105.2153
369.3310, 72.84326
369.8130, 48.39893
370.2950, 38.08057
370.7770, 38.95654
371.2590, 36.20068
371.7410, 25.08008
372.2230, 16.27734
372.7050, 16.53320
373.1880, 32.83643
373.6700, 42.61279
374.1520, 46.35449
374.6340, 43.02979
375.1160, 27.47217
375.5980, 6.411133
376.0800, 36.15332
376.5620, 50.25586
377.0440, 46.09229
377.5270, 47.23340
378.0090, 54.27246
378.4910, 65.92627
378.9730, 81.87061
379.4550, 100.9360
379.9370, 123.1045
380.4190, 150.9170
380.9010, 182.3232
381.3840, 206.9644
381.8660, 223.8354
382.3480, 240.8789
382.8300, 269.0034
383.3120, 305.0767
383.7940, 335.2007
384.2760, 348.9326
384.7580, 359.0483
385.2410, 389.1875
385.7230, 437.6523
386.2050, 492.3076
386.6870, 546.7031
387.1690, 600.0444
387.6510, 650.6167
388.1330, 699.3657
388.6150, 742.1377
389.0970, 769.4893
389.5790, 786.5703
390.0620, 809.9492
390.5440, 850.8140
391.0260, 901.1196
391.5080, 956.4966
391.9900, 1018.833
392.4720, 1076.904
392.9540, 1115.159
393.4360, 1146.884
393.9190, 1192.608
394.4010, 1281.210
394.8830, 1366.865
395.3650, 1423.647
395.8470, 1446.072
396.3290, 1483.090
396.8110, 1552.152
397.2930, 1638.275
397.7760, 1726.519
398.2580, 1834.174
398.7400, 1923.460
399.2220, 1978.659
399.7040, 2003.037
400.1860, 2040.865
400.6680, 2110.237
401.1500, 2176.619
401.6320, 2218.458
402.1150, 2215.199
402.5970, 2228.449
403.0790, 2268.921
403.5610, 2325.266
404.0430, 2367.423
404.5250, 2395.354
405.0070, 2409.355
405.4890, 2404.354
405.9710, 2376.687
406.4540, 2364.323
406.9360, 2373.352
407.4180, 2386.094
407.9000, 2376.884
408.3820, 2345.297
408.8640, 2303.275
409.3460, 2251.341
409.8280, 2191.857
410.3100, 2135.792
410.7930, 2082.460
411.2750, 2034.886
411.7570, 2002.211
412.2390, 1978.851
412.7210, 1944.748
413.2030, 1889.357
413.6850, 1827.238
414.1670, 1775.279
414.6500, 1732.245
415.1320, 1693.094
415.6140, 1645.607
416.0960, 1603.405
416.5780, 1584.242
417.0600, 1596.207
417.5420, 1616.061
418.0240, 1622.259
418.5070, 1625.645
418.9890, 1647.161
419.4710, 1703.318
419.9530, 1773.806
420.4350, 1851.638
420.9170, 1938.392
421.3990, 2017.708
421.8810, 2062.285
422.3630, 2106.118
422.8460, 2180.502
423.3280, 2319.078
423.8100, 2458.096
424.2920, 2587.061
424.7740, 2709.037
425.2560, 2831.801
425.7380, 2936.026
426.2200, 3054.950
426.7030, 3212.253
427.1850, 3454.885
427.6670, 3645.350
428.1490, 3757.106
428.6310, 3822.197
429.1130, 3915.765
429.5950, 4047.787
430.0770, 4183.562
430.5590, 4313.229
431.0420, 4435.420
431.5240, 4546.920
432.0060, 4651.716
432.4880, 4734.687
432.9700, 4775.065
433.4520, 4774.284
433.9340, 4753.339
434.4160, 4715.286
434.8980, 4662.892
435.3810, 4604.774
435.8630, 4540.704
436.3450, 4461.424
436.8270, 4347.412
437.3090, 4214.086
437.7910, 4098.648
438.2730, 4014.679
438.7550, 3928.892
439.2370, 3800.720
439.7200, 3644.044
440.2020, 3493.713
440.6840, 3365.968
441.1660, 3251.632
441.6480, 3148.581
442.1300, 3056.989
442.6120, 2962.913
443.0950, 2856.627
443.5770, 2746.644
444.0590, 2642.237
444.5410, 2532.900
445.0230, 2443.702
445.5050, 2390.832
445.9870, 2369.368
446.4690, 2350.555
446.9510, 2326.240
447.4340, 2304.881
447.9160, 2291.077
448.3980, 2286.499
448.8800, 2288.789
449.3620, 2298.431
449.8440, 2315.000
450.3260, 2337.735
450.8080, 2365.938
451.2900, 2402.385
451.7730, 2448.741
452.2550, 2504.602
452.7370, 2565.807
453.2190, 2631.731
453.7010, 2702.074
454.1830, 2770.459
454.6650, 2838.158
455.1470, 2933.869
455.6290, 3072.493
456.1120, 3230.492
456.5940, 3350.666
457.0760, 3437.639
457.5580, 3531.404
458.0400, 3665.192
458.5220, 3820.961
459.0040, 3966.065
459.4860, 4092.625
459.9690, 4225.450
460.4510, 4390.812
460.9330, 4576.316
461.4150, 4759.566
461.8970, 4930.661
462.3790, 5097.156
462.8610, 5267.442
463.3430, 5439.235
463.8260, 5592.823
464.3080, 5703.861
464.7900, 5801.807
465.2720, 5909.697
465.7540, 6075.534
466.2360, 6190.199
466.7180, 6221.111
467.2000, 6189.969
467.6820, 6152.974
468.1640, 6133.745
468.6470, 6084.272
469.1290, 5991.358
469.6110, 5856.490
470.0930, 5671.187
470.5750, 5419.542
471.0570, 5138.813
471.5390, 4857.787
472.0210, 4574.278
472.5040, 4308.390
472.9860, 4065.916
473.4680, 3842.899
473.9500, 3617.387
474.4320, 3388.565
474.9140, 3173.650
475.3960, 2987.874
475.8780, 2825.803
476.3610, 2670.046
476.8430, 2520.249
477.3250, 2370.312
477.8070, 2205.435
478.2890, 2033.314
478.7710, 1872.096
479.2530, 1724.460
479.7350, 1594.429
480.2170, 1489.359
480.6990, 1407.168
481.1820, 1334.598
481.6640, 1264.768
482.1460, 1200.157
482.6280, 1141.914
483.1100, 1090.526
483.5920, 1044.445
484.0740, 1003.921
484.5560, 967.6934
485.0390, 934.8179
485.5210, 911.1611
486.0030, 883.7310
486.4850, 847.7227
486.9670, 802.5391
487.4490, 760.0757
487.9310, 722.6396
488.4130, 685.7832
488.8960, 644.7432
489.3780, 598.0625
489.8600, 553.9668
490.3420, 512.4009
490.8240, 475.5083
491.3060, 454.1626
491.7880, 450.2749
492.2700, 439.8853
492.7520, 407.3867
493.2350, 357.5190
493.7170, 309.0205
494.1990, 261.1270
494.6810, 219.3232
495.1630, 189.4014
495.6450, 169.1802
496.1270, 153.2900
496.6090, 141.6309
497.0910, 131.9624
497.5740, 126.8179
498.0560, 123.0249
498.5380, 110.0854
499.0200, 68.29053
499.5020, 25.44336
499.9840, 2.999512
500.4660, 8.299316
500.9480, 11.54736
501.4310, 9.200684
501.9130, 1.677246
502.3950, 24.14990
502.8770, 92.22070
503.3590, 133.1304
503.8410, 125.0029
504.3230, 77.55029
504.8050, 47.32715
505.2880, 39.65918
505.7700, 42.02393
506.2520, 51.73096
506.7340, 73.03857
507.2160, 79.10352
507.6980, 64.67334
508.1800, 45.01807
508.6620, 45.07764
509.1440, 63.89160
509.6260, 74.21631
510.1090, 63.08008
510.5910, 41.02002
511.0730, 30.49023
511.5550, 30.81250
512.0370, 35.37012
512.5190, 47.05908
513.0010, 57.24756
513.4840, 51.19775
513.9660, 23.36328
514.4480, 5.412109
514.9300, 15.75146
515.4120, 18.72998
515.8940, 30.83838
516.3760, 66.42627
516.8580, 103.8687
517.3400, 137.1816
517.8230, 165.9048
518.3050, 188.3789
518.7870, 187.9438
519.2690, 194.5146
519.7510, 223.5762
520.2330, 283.4697
520.7150, 349.9639
521.1970, 429.9346
521.6790, 508.3384
522.1620, 562.6855
522.6440, 584.2300
523.1260, 615.1558
523.6080, 665.1455
524.0900, 733.2280
524.5720, 820.5010
525.0540, 926.8721
525.5360, 1035.349
526.0180, 1136.191
526.5010, 1228.675
526.9830, 1311.259
527.4650, 1382.113
527.9470, 1452.106
528.4290, 1531.183
528.9110, 1618.291
529.3930, 1709.492
529.8750, 1806.198
530.3570, 1904.776
530.8400, 2009.551
531.3220, 2117.907
531.8040, 2212.646
532.2860, 2287.123
532.7680, 2346.103
533.2500, 2393.194
533.7320, 2429.830
534.2140, 2451.220
534.6970, 2465.150
535.1790, 2459.914
535.6610, 2421.056
536.1430, 2340.740
536.6250, 2239.624
537.1070, 2117.917
537.5890, 1977.368
538.0710, 1830.565
538.5540, 1674.595
539.0360, 1518.523
539.5180, 1364.301
540.0000, 1211.313
540.4820, 1072.215
540.9640, 946.4185
541.4460, 835.7095
541.9280, 744.2964
542.4110, 668.8066
542.8930, 599.8667
543.3750, 534.6396
543.8570, 472.9614
544.3390, 411.6035
544.8210, 353.0781
545.3030, 306.9097
545.7850, 286.2969
546.2670, 272.2617
546.7500, 251.4692
547.2320, 219.8135
547.7140, 197.3408
548.1960, 197.5229
548.6780, 204.1948
549.1600, 203.1675
549.6420, 189.4150
550.1240, 174.6724
550.6060, 155.0474
551.0890, 136.3032
551.5710, 136.9341
552.0530, 162.7764
552.5350, 188.8540
553.0170, 205.0718
553.4990, 212.3403
553.9810, 218.8096
554.4630, 224.5640
554.9450, 229.6055
555.4280, 235.1880
555.9100, 240.7197
556.3920, 241.4087
556.8740, 234.2231
557.3560, 228.2080
557.8380, 231.5322
558.3200, 242.1455
558.8020, 256.6929
559.2840, 283.9473
559.7670, 305.6299
560.2490, 308.5474
560.7310, 290.4697
561.2130, 269.0205
561.6950, 249.6680
562.1770, 235.0186
562.6590, 223.3301
563.1410, 209.0049
563.6240, 205.8511
564.1060, 223.3022
564.5880, 243.0737
565.0700, 238.4546
565.5520, 202.3091
566.0340, 174.6055
566.5160, 166.1714
566.9980, 168.7261
567.4810, 155.3906
567.9630, 127.1948
568.4450, 102.9678
568.9270, 96.77051
569.4090, 101.0464
569.8910, 96.95752
570.3730, 82.27002
570.8550, 71.21436
571.3380, 89.42529
571.8200, 117.1929
572.3020, 125.4946
572.7840, 88.93018
573.2660, 51.57568
573.7480, 33.68018
574.2300, 29.52002
574.7120, 24.92139
575.1940, 15.86572
575.6770, 6.930176
576.1590, 0.1738280
576.6410, 4.106934
577.1230, 11.42285
577.6050, 26.84229
578.0870, 37.09326
578.5690, 29.73193
579.0510, 1.273926
579.5330, 16.05664
580.0160, 17.73340
580.4980, 12.04102
580.9800, 9.195313
581.4620, 10.13525
581.9440, 17.40869
582.4260, 38.35840
582.9080, 60.28369
583.3900, 58.97803
583.8720, 39.39014
584.3550, 24.86475
584.8370, 32.97900
585.3190, 47.95068
585.8010, 57.15918
586.2830, 59.74951
586.7650, 61.73389
587.2470, 63.94336
587.7290, 67.14941
588.2110, 72.25439
588.6940, 81.19971
589.1760, 89.19824
589.6580, 94.68896
590.1400, 100.2930
590.6220, 112.8770
591.1040, 136.9526
591.5860, 154.4927
592.0680, 158.7930
592.5500, 151.9414
593.0330, 142.4150
593.5150, 129.7183
593.9970, 121.8955
594.4790, 127.4966
594.9610, 141.9624
595.4430, 156.4712
595.9250, 170.6851
596.4070, 180.9023
596.8900, 179.7139
597.3720, 173.7471
597.8540, 172.4307
598.3360, 196.0288
598.8180, 206.4644
599.3000, 174.6587
599.7820, 116.8921
600.2640, 81.99951
600.7470, 108.7231
601.2290, 127.2617
601.7110, 112.4956
602.1930, 61.48047
602.6750, 31.62549
603.1570, 28.52832
603.6390, 35.33594
604.1210, 42.20947
604.6040, 49.24316
605.0860, 50.06299
605.5680, 43.09229
606.0500, 33.33301
606.5320, 24.27783
607.0140, 17.64990
607.4960, 20.11768
607.9780, 43.31348
608.4600, 65.64355
608.9430, 62.67871
609.4250, 40.72705
609.9070, 20.30029
610.3890, 10.55908
610.8710, 5.442383
611.3530, 0.1020510
611.8350, 7.372070
612.3170, 4.028320
612.7990, 29.95996
613.2820, 60.52979
613.7640, 64.92188
614.2460, 27.58447
614.7280, 4.777344
615.2100, 1.182617
615.6920, 8.200684
616.1740, 13.73193
616.6560, 17.81885
617.1380, 23.33789
617.6210, 31.66113
618.1030, 41.26074
618.5850, 53.08789
619.0670, 65.11133
619.5490, 67.46045
620.0310, 38.76270
620.5130, 7.604004
620.9950, 6.458496
621.4770, 37.05029
621.9600, 61.99707
622.4420, 55.87598
622.9240, 43.40234
623.4060, 42.72949
623.8880, 68.13379
624.3700, 84.17139
624.8520, 89.05762
625.3340, 84.88721
625.8170, 72.57568
626.2990, 48.67041
626.7810, 28.18750
627.2630, 12.31836
627.7450, 3.108398
628.2270, 11.47705
628.7090, 36.81006
629.1910, 55.76562
629.6740, 49.52393
630.1560, 31.58105
630.6380, 24.83350
631.1200, 29.06738
631.6020, 36.26074
632.0840, 44.61816
632.5660, 51.50000
633.0480, 55.01318
633.5310, 55.51416
634.0130, 50.32617
634.4950, 35.29297
634.9770, 15.47559
635.4590, 4.530273
635.9410, 30.20654
636.4230, 44.09033
636.9050, 40.60010
637.3870, 25.85400
637.8700, 10.27490
638.3520, 7.020508
638.8340, 17.79443
639.3160, 16.34033
639.7980, 7.093262
640.2800, 3.497070
640.7620, 5.091797
641.2440, 5.065918
641.7260, 7.740234
642.2090, 21.38672
642.6910, 19.03027
643.1730, 2.822754
643.6550, 23.04785
644.1370, 33.75391
644.6190, 36.88184
645.1010, 34.32080
645.5830, 7.615234
646.0650, 5.325684
646.5480, 4.474121
647.0300, 25.24658
647.5120, 37.95312
647.9940, 38.51465
648.4760, 42.87451
648.9580, 56.23730
649.4400, 74.66504
649.9220, 87.79346
650.4040, 95.50098
650.8870, 97.05420
651.3690, 81.58740
651.8510, 63.74072
652.3330, 72.66211
652.8150, 107.8071
653.2970, 142.4375
653.7790, 165.6626
654.2610, 179.9253
654.7440, 181.6631
655.2260, 162.5122
655.7080, 146.8418
656.1900, 145.9634
656.6720, 149.4639
657.1540, 144.8730
657.6360, 124.0303
658.1180, 114.3452
658.6010, 121.1401
659.0830, 135.6528
659.5650, 141.8848
660.0470, 139.7329
660.5290, 134.2661
661.0110, 126.8052
661.4930, 117.7568
661.9750, 105.3267
662.4580, 90.84375
662.9400, 81.18945
663.4220, 85.16650
663.9040, 92.82861
664.3860, 93.70996
664.8680, 86.71436
665.3500, 86.85791
665.8320, 109.2744
666.3140, 133.4106
666.7970, 144.0649
667.2790, 131.0649
667.7610, 126.8110
668.2430, 131.9551
668.7250, 144.6606
669.2070, 167.1147
669.6890, 201.1128
670.1710, 218.2969
670.6530, 209.5068
671.1360, 190.7188
671.6180, 189.7563
672.1000, 201.9521
672.5820, 212.7021
673.0640, 210.0610
673.5460, 208.3477
674.0280, 221.2642
674.5100, 245.9351
674.9920, 270.9932
675.4750, 304.6572
675.9570, 326.6201
676.4390, 318.6382
676.9210, 274.8359
677.4030, 260.6001
677.8850, 291.3164
678.3670, 330.0366
678.8490, 355.1152
679.3310, 365.5142
679.8140, 372.0181
680.2960, 373.8521
680.7780, 374.3271
681.2600, 379.4814
681.7420, 386.3960
682.2240, 386.4102
682.7060, 376.6001
683.1880, 361.6060
683.6710, 342.9067
684.1530, 322.3667
684.6350, 303.1035
685.1170, 286.7544
685.5990, 271.1646
686.0810, 252.0283
686.5630, 233.3350
687.0450, 231.0425
687.5280, 261.4795
688.0100, 279.3555
688.4920, 265.6865
688.9740, 226.3662
689.4560, 202.0723
689.9380, 194.2031
690.4200, 188.4727
690.9020, 172.0352
691.3850, 151.0200
691.8670, 140.8193
692.3490, 141.9805
692.8310, 146.4917
693.3130, 149.1313
693.7950, 150.2002
694.2770, 152.4800
694.7590, 160.5962
695.2410, 163.0850
695.7240, 154.7700
696.2060, 140.6025
696.6880, 124.9170
697.1700, 104.7920
697.6520, 91.06787
698.1340, 87.67578
698.6160, 88.34424
699.0980, 78.00830
699.5800, 56.52295
700.0630, 43.72217
700.5450, 54.93115
701.0270, 71.23486
701.5090, 47.68604
701.9910, 1.289551
702.4730, 26.52197
702.9550, 27.77881
703.4370, 87.45947
703.9190, 102.5781
704.4020, 76.22510
704.8840, 54.13916
705.3660, 42.14404
705.8480, 38.54248
706.3300, 45.31250
706.8120, 64.30957
707.2940, 74.82861
707.7760, 75.75195
708.2580, 71.19043
708.7410, 62.84082
709.2230, 51.55664
709.7050, 43.22852
710.1870, 39.31689
710.6690, 31.51123
711.1510, 1.568359
711.6330, 33.84375
712.1150, 49.70410
712.5980, 32.11670
713.0800, 10.01514
713.5620, 13.16650
714.0440, 31.50000
714.5260, 34.97266
715.0080, 7.884277
715.4900, 9.418945
715.9720, 10.33398
716.4550, 3.4667999E-02
716.9370, 10.46436
717.4190, 21.15869
717.9010, 30.72803
718.3830, 38.96191
718.8650, 45.47510
719.3470, 49.92773
719.8290, 52.04297
720.3110, 50.11377
720.7940, 39.73682
721.2760, 27.73438
721.7580, 17.26611
722.2400, 8.868164
722.7220, 6.319336
723.2040, 16.68066
723.6860, 27.62061
724.1680, 33.91064
724.6510, 35.29004
725.1330, 34.16699
725.6150, 30.64551
726.0970, 24.29004
726.5790, 13.70752
727.0610, 0.2641600
727.5430, 16.34863
728.0250, 35.68311
728.5070, 45.97900
728.9900, 27.19141
729.4720, 5.147461
729.9540, 29.27344
730.4360, 38.44971
730.9180, 42.13916
731.4000, 42.30811
731.8820, 39.69727
732.3640, 34.72705
732.8460, 21.72412
733.3290, 16.60693
733.8110, 23.09131
734.2930, 36.16748
734.7750, 48.06055
735.2570, 58.92139
735.7390, 61.95752
736.2210, 52.06104
736.7030, 37.30762
737.1850, 28.23828
737.6680, 25.12549
738.1500, 28.83350
738.6320, 48.75098
739.1140, 67.57129
739.5960, 73.85791
740.0780, 69.47266
740.5600, 66.10107
741.0420, 63.97559
741.5240, 65.55518
742.0070, 73.75293
742.4890, 87.67627
742.9710, 92.44434
743.4530, 85.34131
743.9350, 81.56152
744.4170, 92.06738
744.8990, 113.5405
745.3810, 140.3164
745.8640, 171.5586
746.3460, 191.4829
746.8280, 178.8745
747.3100, 155.0103
747.7920, 138.4819
748.2740, 132.1802
748.7560, 132.0752
749.2380, 146.6694
749.7210, 160.4619
750.2030, 163.2065
750.6850, 154.4839
751.1670, 135.7788
751.6490, 104.9043
752.1310, 69.99072
752.6130, 29.86865
753.0950, 9.100586
753.5780, 7.202637
754.0600, 50.66992
754.5420, 122.7051
755.0240, 172.4902
755.5060, 207.0425
755.9880, 236.0273
756.4700, 265.7002
756.9520, 286.3882
757.4340, 289.0063
757.9170, 282.2388
758.3990, 280.9561
758.8810, 286.8120
759.3630, 294.2637
759.8450, 301.6982
760.3270, 309.1758
760.8090, 323.6128
761.2910, 343.0156
761.7730, 362.0034
762.2560, 380.0469
762.7380, 395.6729
763.2200, 401.1143
763.7020, 401.7461
764.1840, 413.3442
764.6660, 461.3989
765.1480, 503.4087
765.6300, 514.0186
766.1120, 498.2383
766.5950, 500.8906
767.0770, 530.5698
767.5590, 561.6069
768.0410, 583.1025
768.5230, 597.2437
769.0050, 621.0171
769.4870, 651.9634
769.9690, 676.9141
770.4510, 684.7788
770.9340, 685.5767
771.4160, 690.8203
771.8980, 700.3228
772.3800, 712.7549
772.8620, 727.6177
773.3440, 744.3306
773.8260, 767.0605
774.3080, 800.4780
774.7910, 814.7412
775.2730, 799.8560
775.7550, 782.9062
776.2370, 783.6489
776.7190, 801.4146
777.2010, 818.6104
777.6830, 834.9707
778.1650, 842.8306
778.6480, 828.0796
779.1300, 803.8979
779.6120, 788.0913
780.0940, 783.6958
780.5760, 785.9937
781.0580, 802.3003
781.5400, 818.5293
782.0220, 821.4810
782.5050, 802.4897
782.9870, 789.4468
783.4690, 785.2451
783.9510, 783.4502
784.4330, 775.9146
784.9150, 761.8984
785.3970, 739.0264
785.8790, 705.0693
786.3610, 671.6035
786.8440, 652.9663
787.3260, 645.0942
787.8080, 639.9282
788.2900, 640.3701
788.7720, 634.3340
789.2540, 612.8135
789.7360, 584.2964
790.2180, 558.2935
790.7000, 528.9243
791.1830, 517.4893
791.6650, 531.8457
792.1470, 556.5298
792.6290, 569.2026
793.1110, 570.2153
793.5930, 559.0850
794.0750, 530.3110
794.5570, 501.9414
795.0390, 496.8135
795.5220, 505.1162
796.0040, 509.6455
796.4860, 503.7070
796.9680, 494.4189
797.4500, 488.4985
797.9320, 479.1914
798.4140, 449.4238
798.8960, 384.1963
799.3780, 345.6406
799.8610, 353.7041
800.3430, 388.1401
800.8250, 411.4941
801.3070, 423.6641
801.7890, 424.9072
802.2710, 407.4927
802.7530, 387.5815
803.2350, 382.2939
803.7180, 385.2681
804.2000, 382.0864
804.6820, 362.2749
805.1640, 342.9023
805.6460, 326.4863
806.1280, 313.4526
806.6100, 306.7710
807.0920, 308.5288
807.5750, 305.5049
808.0570, 291.8394
808.5390, 272.3667
809.0210, 255.7163
809.5030, 241.8696
809.9850, 230.6963
810.4670, 218.1460
810.9490, 211.5859
811.4320, 220.7007
811.9140, 241.2520
812.3960, 255.9570
812.8780, 264.8540
813.3600, 263.4458
813.8420, 245.2163
814.3240, 216.4531
814.8060, 207.1992
815.2880, 218.1831
815.7710, 225.5376
816.2530, 213.7739
816.7350, 195.3779
817.2170, 194.9219
817.6990, 206.9238
818.1810, 208.7378
818.6630, 171.0264
819.1450, 141.2271
819.6270, 151.5879
820.1100, 195.9175
820.5920, 218.0679
821.0740, 208.1719
821.5560, 192.8394
822.0380, 181.2715
822.5200, 172.8496
823.0020, 158.1743
823.4840, 138.3140
823.9660, 125.2578
824.4490, 135.6592
824.9310, 148.4829
825.4130, 139.0225
825.8950, 111.8506
826.3770, 90.55322
826.8590, 81.86523
827.3410, 81.51514
827.8230, 93.54590
828.3050, 113.6240
828.7880, 115.9380
829.2700, 97.99121
829.7520, 78.43262
830.2340, 64.48535
830.7160, 55.76416
831.1980, 55.38135
831.6800, 60.88818
832.1620, 60.61719
832.6450, 43.12939
833.1270, 22.45264
833.6090, 4.236328
834.0910, 10.48779
834.5730, 17.74268
835.0550, 17.00928
835.5370, 9.744629
836.0190, 6.114746
836.5020, 27.59131
836.9840, 41.77490
837.4660, 48.68213
837.9480, 53.87402
838.4300, 61.98926
838.9120, 68.78760
839.3940, 71.70605
839.8760, 69.37354
840.3590, 56.94531
840.8410, 10.54199
841.3230, 23.17188
841.8050, 19.70654
842.2870, 10.97510
842.7690, 31.01758
843.2510, 39.77246
843.7330, 38.95850
844.2150, 22.98438
844.6980, 2.586426
845.1800, 11.26123
845.6620, 41.98291
846.1440, 64.57275
846.6260, 51.13525
847.1080, 33.90820
847.5900, 36.99902
848.0720, 52.40088
848.5540, 54.94775
849.0370, 31.55225
849.5190, 11.39014
850.0010, 1.284180
850.4830, 5.433105
850.9650, 7.743652
851.4470, 37.51953
851.9290, 58.59277
852.4110, 55.27637
852.8930, 41.11816
853.3760, 35.29688
853.8580, 34.60205
854.3400, 31.39062
854.8220, 17.14844
855.3040, 5.901855
855.7860, 7.034668
856.2680, 13.62549
856.7500, 8.937012
857.2320, 12.92285
857.7150, 23.12451
858.1970, 10.72656
858.6790, 12.96143
859.1610, 29.09375
859.6430, 40.17041
860.1250, 52.35400
860.6070, 72.41211
861.0890, 84.47998
861.5710, 73.86279
862.0540, 52.72266
862.5360, 40.94775
863.0180, 44.95361
863.5000, 48.05518
863.9820, 48.29639
864.4640, 47.08105
864.9460, 47.10107
865.4290, 48.00293
865.9110, 47.03369
866.3930, 42.97900
866.8750, 38.64258
867.3570, 36.34229
867.8390, 35.60645
868.3210, 35.83252
868.8030, 40.34326
869.2850, 40.40723
869.7680, 32.41992
870.2500, 22.59033
870.7320, 17.98975
871.2140, 18.95605
871.6960, 20.95020
872.1780, 23.59863
872.6600, 26.65430
873.1420, 32.91748
873.6250, 38.23682
874.1070, 32.98145
874.5890, 9.058594
875.0710, 2.734863
875.5530, 29.29346
876.0350, 64.07422
876.5170, 66.91895
876.9990, 25.43555
877.4810, 3.886719
877.9640, 21.13916
878.4460, 25.11816
878.9280, 5.445313
879.4100, 26.90771
879.8920, 43.44434
880.3740, 41.44971
880.8560, 38.45752
881.3380, 49.18506
881.8200, 60.20264
882.3030, 59.74658
882.7850, 43.60938
883.2670, 38.28613
883.7490, 50.90576
884.2310, 59.01025
884.7130, 40.91895
885.1950, 4.786133
885.6770, 0.7456050
886.1590, 26.67871
886.6420, 51.78271
887.1240, 54.00977
887.6060, 48.56104
888.0880, 47.00391
888.5700, 49.62207
889.0520, 50.12646
889.5340, 46.50732
890.0160, 42.10938
890.4980, 35.47510
890.9810, 29.31543
891.4630, 40.49951
891.9450, 67.49756
892.4270, 88.09180
892.9090, 81.40674
893.3910, 71.66211
893.8730, 93.04736
894.3560, 132.3013
894.8380, 153.0005
895.3200, 131.5801
895.8020, 104.0811
896.2840, 70.35791
896.7660, 39.76514
897.2480, 42.36475
897.7300, 81.03027
898.2120, 100.6504
898.6950, 80.93994
899.1770, 48.03174
899.6590, 38.47363
900.1410, 43.52100
900.6230, 44.90283
901.1050, 33.56641
901.5870, 23.24170
902.0690, 21.09570
902.5520, 19.94629
903.0340, 10.55371
903.5160, 10.29590
903.9980, 22.46631
904.4800, 24.28516
904.9620, 16.65674
905.4440, 7.921387
905.9260, 38.71533
906.4080, 54.73682
906.8910, 50.54053
907.3730, 43.87695
907.8550, 47.24121
908.3370, 47.96582
908.8190, 32.99219
909.3010, 5.920410
909.7830, 8.874023
910.2650, 32.88672
910.7470, 71.15234
911.2300, 58.38916
911.7120, 18.46631
912.1940, 9.279785
912.6760, 30.36572
913.1580, 45.72119
913.6400, 24.54639
914.1220, 2.077148
914.6040, 2.878906
915.0860, 23.78125
915.5690, 28.99463
916.0510, 16.25391
916.5330, 0.4218750
917.0150, 17.21826
917.4970, 30.93115
917.9790, 27.44482
918.4610, 7.257813
918.9430, 25.44092
919.4250, 98.76904
919.9080, 152.8213
920.3900, 138.3604
920.8720, 83.17725
921.3540, 58.66553
921.8360, 76.80566
922.3180, 98.14111
922.8000, 117.5859
923.2820, 134.7993
923.7650, 147.3208
924.2470, 156.7974
924.7290, 169.0972
925.2110, 184.8789
925.6930, 206.0859
926.1750, 235.9722
926.6570, 270.6211
927.1390, 307.4946
927.6220, 356.1323
928.1040, 379.0498
928.5860, 366.2876
929.0680, 351.4224
929.5500, 359.8140
930.0320, 391.5586
930.5140, 462.3833
930.9960, 573.1411
931.4790, 652.6504
931.9610, 627.0757
932.4430, 574.8682
932.9250, 548.5352
933.4070, 554.9058
933.8890, 562.6895
934.3710, 575.8384
934.8530, 579.5674
935.3350, 561.0342
935.8180, 529.5693
936.3000, 515.3872
936.7820, 517.3052
937.2640, 522.8091
937.7460, 525.8423
938.2280, 527.9980
938.7100, 538.4438
939.1920, 548.0410
939.6740, 530.3618
940.1570, 469.0337
940.6390, 421.9995
941.1210, 402.3584
941.6030, 395.5298
942.0850, 374.9326
942.5670, 346.7622
943.0490, 330.9409
943.5310, 336.3540
944.0130, 345.0708
944.4960, 355.1968
944.9780, 356.4194
945.4600, 335.7773
945.9420, 281.6885
946.4240, 241.0864
946.9060, 216.2075
947.3880, 198.1978
947.8700, 180.8433
948.3520, 164.0156
948.8350, 148.7715
949.3170, 134.8911
949.7990, 116.8828
950.2810, 79.88330
950.7630, 48.43506
951.2450, 37.31396
951.7270, 44.95068
952.2090, 63.78271
952.6920, 100.0122
953.1740, 120.5864
953.6560, 106.2441
954.1380, 74.41064
954.6200, 56.05664
955.1020, 49.42676
955.5840, 50.04443
956.0660, 62.29492
956.5490, 74.17529
957.0310, 80.67139
957.5130, 84.74609
957.9950, 90.79932
958.4770, 99.18408
958.9590, 109.3467
959.4410, 123.1489
959.9230, 131.0684
960.4060, 116.2524
960.8880, 89.89160
961.3700, 71.05176
961.8520, 65.12842
962.3340, 56.66064
962.8160, 36.27686
963.2980, 16.59619
963.7800, 1.707520
964.2620, 8.981445
964.7450, 4.162598
965.2270, 17.70996
965.7090, 31.64795
966.1910, 12.12891
966.6730, 18.28809
967.1550, 31.70947
967.6370, 30.97021
968.1190, 29.30566
968.6010, 35.09375
969.0840, 39.30273
969.5660, 40.30420
970.0480, 38.81396
970.5300, 33.13428
971.0120, 24.30811
971.4940, 22.74854
971.9760, 34.64990
972.4580, 44.61768
972.9400, 30.79150
973.4230, 9.200684
973.9050, 1.027344
974.3870, 22.92725
974.8690, 28.54150
975.3510, 8.057617
975.8330, 18.29004
976.3150, 36.81396
976.7970, 48.50928
977.2790, 56.49756
977.7620, 60.86475
978.2440, 64.55029
978.7260, 66.67188
979.2080, 71.10010
979.6900, 82.48291
980.1720, 99.67676
980.6540, 111.9927
981.1360, 115.5830
981.6190, 122.5405
982.1010, 134.9639
982.5830, 154.4097
983.0650, 190.7725
983.5470, 236.7964
984.0290, 272.4658
984.5110, 289.5146
984.9930, 296.8101
985.4760, 286.7437
985.9580, 276.1606
986.4400, 284.6162
986.9220, 320.2065
987.4040, 346.1313
987.8860, 362.7437
988.3680, 364.9688
988.8500, 336.2578
989.3330, 295.7485
989.8150, 277.6885
990.2970, 282.2466
990.7790, 283.0791
991.2610, 281.2695
991.7430, 258.9614
992.2250, 196.4746
992.7070, 111.8418
993.1890, 87.18018
993.6720, 121.7148
994.1540, 151.2651
994.6360, 151.7729
995.1180, 139.7524
995.6000, 126.8853
996.0820, 115.5176
996.5640, 109.4233
997.0460, 117.1772
997.5280, 116.7256
998.0110, 99.16211
998.4930, 86.32910
998.9750, 108.4966
999.4570, 156.4199
999.9390, 177.5176
1000.421, 169.1992
1000.903, 153.8066
1001.385, 139.8652
1001.867, 129.9097
1002.350, 127.9839
1002.832, 133.2568
1003.314, 132.7847
1003.796, 123.5967
1004.278, 119.6611
1004.760, 127.6172
1005.242, 140.7725
1005.724, 144.0415
1006.206, 142.8540
1006.689, 149.8950
1007.171, 173.3765
1007.653, 198.7432
1008.135, 228.7432
1008.617, 253.1201
1009.099, 259.8369
1009.581, 246.9521
1010.063, 236.9585
1010.546, 229.9697
1011.028, 235.1255
1011.510, 272.1133
1011.992, 316.5093
1012.474, 340.8486
1012.956, 345.3140
1013.438, 352.3462
1013.920, 371.5220
1014.402, 382.8271
1014.885, 375.4272
1015.367, 362.3784
1015.849, 381.3784
1016.331, 424.5005
1016.813, 456.0889
1017.295, 459.4497
1017.777, 461.4585
1018.259, 481.6470
1018.742, 507.5625
1019.224, 526.1895
1019.706, 536.3848
1020.188, 541.3628
1020.670, 539.7759
1021.152, 539.5161
1021.634, 545.3423
1022.116, 556.9438
1022.598, 577.7876
1023.081, 606.1670
1023.563, 632.1689
1024.045, 644.5830
1024.527, 662.9419
1025.009, 697.3232
1025.491, 738.7388
1025.973, 763.3032
1026.455, 771.7500
1026.938, 775.8413
1027.420, 776.7988
1027.902, 780.6860
1028.384, 790.8784
1028.866, 808.4214
1029.348, 835.0479
1029.830, 873.2329
1030.312, 909.7031
1030.794, 946.0718
1031.277, 981.6235
1031.759, 1011.447
1032.241, 1039.512
1032.723, 1078.732
1033.205, 1128.394
1033.687, 1181.771
1034.169, 1237.299
1034.651, 1294.044
1035.134, 1351.362
1035.616, 1410.415
1036.098, 1472.009
1036.580, 1536.645
1037.062, 1605.803
1037.544, 1680.965
1038.026, 1757.245
1038.508, 1821.661
1038.990, 1890.779
1039.473, 1987.636
1039.955, 2118.423
1040.437, 2237.933
1040.919, 2337.784
1041.401, 2438.091
1041.883, 2542.507
1042.365, 2655.944
1042.847, 2799.558
1043.329, 2965.251
1043.812, 3131.000
1044.294, 3279.629
1044.776, 3431.954
1045.258, 3602.463
1045.740, 3778.354
1046.222, 3942.901
1046.704, 4094.979
1047.186, 4266.056
1047.669, 4460.872
1048.151, 4652.068
1048.633, 4829.323
1049.115, 4987.077
1049.597, 5116.650
1050.079, 5219.514
1050.561, 5314.679
1051.043, 5416.285
1051.526, 5490.823
1052.008, 5531.841
1052.490, 5538.229
1052.972, 5508.128
1053.454, 5442.946
1053.936, 5340.320
1054.418, 5194.121
1054.900, 5026.300
1055.382, 4842.378
1055.865, 4642.688
1056.347, 4430.354
1056.829, 4207.288
1057.311, 3963.322
1057.793, 3697.812
1058.275, 3450.080
1058.757, 3257.351
1059.239, 3085.692
1059.721, 2900.971
1060.204, 2713.524
1060.686, 2549.822
1061.168, 2428.510
1061.650, 2302.280
1062.132, 2158.192
1062.614, 2022.507
1063.096, 1936.772
1063.578, 1887.621
1064.061, 1844.014
1064.543, 1801.354
1065.025, 1767.785
1065.507, 1734.715
1065.989, 1725.725
1066.471, 1758.501
1066.953, 1821.754
1067.435, 1859.299
1067.917, 1873.022
1068.400, 1889.033
1068.882, 1909.429
1069.364, 1949.826
1069.846, 2035.369
1070.328, 2143.032
1070.810, 2243.431
1071.292, 2321.196
1071.774, 2428.796
1072.256, 2570.333
1072.739, 2723.324
1073.221, 2871.045
1073.703, 3017.184
1074.185, 3173.678
1074.667, 3336.561
1075.149, 3484.746
1075.631, 3626.903
1076.113, 3734.331
1076.595, 3819.120
1077.078, 3854.115
1077.560, 3807.259
1078.042, 3676.150
1078.524, 3424.976
1079.006, 3044.820
1079.488, 2643.289
1079.970, 2268.832
1080.452, 1928.896
1080.935, 1624.466
1081.417, 1357.460
1081.899, 1134.982
1082.381, 958.2471
1082.863, 820.8403
1083.345, 728.8379
1083.827, 661.9619
1084.309, 602.6050
1084.792, 548.2266
1085.274, 495.2881
1085.756, 443.6235
1086.238, 390.7271
1086.720, 332.1548
1087.202, 281.6001
1087.684, 251.5112
1088.166, 236.7397
1088.648, 224.4663
1089.130, 213.8730
1089.613, 201.7373
1090.095, 183.2246
1090.577, 167.1909
1091.059, 158.8550
1091.541, 152.7256
1092.023, 138.0376
1092.505, 115.8921
1092.987, 105.6914
1093.470, 109.8306
1093.952, 120.4048
1094.434, 143.0532
1094.916, 159.6445
1095.398, 153.2012
1095.880, 125.0322
1096.362, 93.22461
1096.844, 52.50439
1097.327, 39.43164
1097.809, 75.02197
1098.291, 118.5425
1098.773, 108.2979
1099.255, 71.99854
1099.737, 50.85352
1100.219, 58.31152
1100.701, 64.87207
1101.183, 67.59326
1101.666, 70.72119
1102.148, 82.43164
1102.630, 94.24609
1103.112, 69.50635
1103.594, 20.10254
1104.076, 13.50098
1104.558, 2.039551
1105.040, 13.77881
1105.522, 27.66553
1106.005, 36.16162
1106.487, 31.67920
1106.969, 15.25439
1107.451, 13.10596
1107.933, 26.27148
1108.415, 40.47168
1108.897, 54.29297
1109.379, 57.56738
1109.862, 36.23486
1110.344, 1.740723
1110.826, 27.82861
1111.308, 41.03564
1111.790, 50.54736
1112.272, 59.08984
1112.754, 59.41797
1113.236, 31.72852
1113.719, 1.813477
1114.201, 13.46533
1114.683, 2.674805
1115.165, 15.80859
1115.647, 26.07520
1116.129, 28.18896
1116.611, 16.27881
1117.093, 2.2461001E-02
1117.575, 2.019531
1118.057, 6.376953
1118.540, 18.16504
1119.022, 37.21582
1119.504, 44.79199
1119.986, 28.33398
1120.468, 12.51465
1120.950, 16.28467
1121.432, 35.37158
1121.914, 45.89160
1122.397, 48.13672
1122.879, 43.61182
1123.361, 26.41943
1123.843, 10.24219
1124.325, 0.5146480
1124.807, 4.704590
1125.289, 6.273438
1125.771, 4.014160
1126.254, 3.804688
1126.736, 5.886719
1127.218, 13.23828
1127.700, 34.18994
1128.182, 55.71631
1128.664, 68.24561
1129.146, 72.07861
1129.628, 72.26123
1130.110, 67.23584
1130.593, 68.14111
1131.075, 79.45801
1131.557, 87.11670
1132.039, 68.28223
1132.521, 40.90869
1133.003, 24.45703
1133.485, 22.11670
1133.967, 28.52930
1134.449, 48.33154
1134.932, 62.77441
1135.414, 64.26416
1135.896, 58.29053
1136.378, 51.07617
1136.860, 44.73389
1137.342, 44.28174
1137.824, 55.21436
1138.306, 58.90332
1138.789, 44.82227
1139.271, 36.89941
1139.753, 55.81201
1140.235, 90.17236
1140.717, 92.91162
1141.199, 74.10010
1141.681, 70.20020
1142.163, 124.1143
1142.646, 159.5908
1143.128, 142.1865
1143.610, 111.1528
1144.092, 105.0811
1144.574, 120.7876
1145.056, 120.5459
1145.538, 104.8530
1146.020, 91.83447
1146.502, 98.12695
1146.984, 104.3701
1147.467, 89.30957
1147.949, 72.38428
1148.431, 95.52246
1148.913, 160.1973
1149.395, 194.5771
1149.877, 188.1919
1150.359, 171.0161
1150.841, 158.8389
1151.324, 153.4028
1151.806, 157.2217
1152.288, 169.4194
1152.770, 186.7070
1153.252, 210.7368
1153.734, 223.9336
1154.216, 217.9600
1154.698, 216.4214
1155.181, 257.2412
1155.663, 309.1685
1156.145, 336.4980
1156.627, 331.2114
1157.109, 332.2837
1157.591, 341.3545
1158.073, 350.9331
1158.555, 357.5908
1159.037, 364.0532
1159.520, 372.4731
1160.002, 383.9800
1160.484, 401.2466
1160.966, 428.6846
1161.448, 449.1519
1161.930, 457.0269
1162.412, 469.8677
1162.894, 504.2275
1163.376, 544.1924
1163.859, 546.7456
1164.341, 528.1514
1164.823, 527.3203
1165.305, 574.1978
1165.787, 616.5386
1166.269, 655.9229
1166.751, 680.6211
1167.233, 666.9321
1167.716, 633.7944
1168.198, 648.2607
1168.680, 698.1533
1169.162, 729.6694
1169.644, 698.0771
1170.126, 673.3257
1170.608, 670.6694
1171.090, 681.0591
1171.573, 698.6558
1172.055, 716.5796
1172.537, 706.5273
1173.019, 668.9360
1173.501, 638.5991
1173.983, 646.1763
1174.465, 651.7290
1174.947, 640.4912
1175.429, 618.7871
1175.911, 597.5854
1176.394, 576.8882
1176.876, 560.0664
1177.358, 548.4932
1177.840, 536.4146
1178.322, 517.1665
1178.804, 497.3647
1179.286, 482.4717
1179.768, 468.8643
1180.251, 440.7559
1180.733, 400.7466
1181.215, 369.8779
1181.697, 353.0244
1182.179, 344.5972
1182.661, 351.2588
1183.143, 354.7437
1183.625, 336.9482
1184.108, 303.4229
1184.590, 299.2051
1185.072, 322.0659
1185.554, 329.1333
1186.036, 296.5161
1186.518, 268.2891
1187.000, 294.9883
1187.482, 328.9785
1187.964, 321.0410
1188.447, 270.8066
1188.929, 243.4990
1189.411, 238.8452
1189.893, 241.1885
1190.375, 246.5542
1190.857, 250.9385
1191.339, 252.2417
1191.821, 249.9399
1192.303, 243.4102
1192.786, 232.5195
1193.268, 215.2979
1193.750, 191.0654
1194.232, 178.7207
1194.714, 198.6431
1195.196, 226.8999
1195.678, 247.5659
1196.160, 261.9585
1196.643, 272.3394
1197.125, 277.1685
1197.607, 286.6729
1198.089, 301.4692
1198.571, 316.5186
1199.053, 330.1768
1199.535, 340.8364
1200.017, 351.5806
1200.500, 357.1426
1200.982, 342.7661
1201.464, 299.8379
1201.946, 277.9966
1202.428, 281.6685
1202.910, 300.6714
1203.392, 343.1431
1203.874, 382.3760
1204.356, 388.8433
1204.839, 369.9785
1205.321, 359.8569
1205.803, 359.7178
1206.285, 359.7720
1206.767, 359.0869
1207.249, 356.7598
1207.731, 350.6411
1208.213, 342.0010
1208.695, 332.7061
1209.178, 321.9893
1209.660, 302.6030
1210.142, 268.9897
1210.624, 261.8594
1211.106, 293.5723
1211.588, 325.2744
1212.070, 316.7397
1212.552, 286.9858
1213.034, 242.9673
1213.517, 190.7715
1213.999, 182.6987
1214.481, 230.2568
1214.963, 252.5239
1215.445, 226.2744
1215.927, 183.2427
1216.409, 143.7407
1216.891, 115.3882
1217.374, 113.8306
1217.856, 138.9873
1218.338, 139.3071
1218.820, 110.7915
1219.302, 86.28467
1219.784, 74.20215
1220.266, 72.19482
1220.748, 86.47119
1221.230, 103.1787
1221.713, 104.4829
1222.195, 88.78516
1222.677, 84.56348
1223.159, 94.06006
1223.641, 89.15137
1224.123, 48.51123
1224.605, 14.28418
1225.087, 45.65283
1225.569, 96.99219
1226.052, 112.2734
1226.534, 87.35107
1227.016, 71.41504
1227.498, 64.59180
1227.980, 65.22705
1228.462, 74.42529
1228.944, 87.23535
1229.426, 107.3315
1229.909, 123.4858
1230.391, 118.9097
1230.873, 90.94580
1231.355, 80.13232
1231.837, 86.98145
1232.319, 86.80664
1232.801, 54.30664
1233.283, 29.71338
1233.766, 62.51270
1234.248, 110.7661
1234.730, 121.7559
1235.212, 90.18115
1235.694, 76.31299
1236.176, 79.75537
1236.658, 84.40527
1237.140, 83.16748
1237.622, 77.79785
1238.104, 63.84668
1238.587, 50.12939
1239.069, 49.13672
1239.551, 62.57031
1240.033, 57.29443
1240.515, 35.22510
1240.997, 22.54785
1241.479, 44.59082
1241.961, 69.36914
1242.444, 81.85010
1242.926, 86.00781
1243.408, 83.25537
1243.890, 73.74414
1244.372, 76.77637
1244.854, 90.53809
1245.336, 95.26660
1245.818, 64.79102
1246.301, 40.31787
1246.783, 47.18750
1247.265, 62.09473
1247.747, 59.47119
1248.229, 42.60986
1248.711, 42.83203
1249.193, 58.27734
1249.675, 67.83105
1250.157, 52.05957
1250.640, 41.00000
1251.122, 49.20947
1251.604, 59.44141
1252.086, 47.76270
1252.568, 22.15625
1253.050, 23.33105
1253.532, 47.00879
1254.014, 60.10400
1254.496, 28.31738
1254.979, 11.35205
1255.461, 23.82227
1255.943, 48.33252
1256.425, 70.07812
1256.907, 87.09961
1257.389, 94.68457
1257.871, 93.08105
1258.353, 85.30664
1258.836, 65.08252
1259.318, 49.13574
1259.800, 39.30176
1260.282, 34.77539
1260.764, 42.36377
1261.246, 50.98779
1261.728, 35.06445
1262.210, 0.2133790
1262.693, 22.58301
1263.175, 29.73193
1263.657, 13.96631
1264.139, 32.61865
1264.621, 76.37988
1265.103, 73.43848
1265.585, 53.51025
1266.067, 61.33154
1266.549, 88.39844
1267.031, 84.80225
1267.514, 31.28760
1267.996, 4.680176
1268.478, 15.10400
1268.960, 36.14209
1269.442, 47.78564
1269.924, 53.80469
1270.406, 51.81689
1270.888, 47.66602
1271.371, 62.53418
1271.853, 99.68799
1272.335, 94.95264
1272.817, 80.65234
1273.299, 72.06689
1273.781, 82.23242
1274.263, 95.48730
1274.745, 103.8306
1275.228, 105.6182
1275.710, 78.54492
1276.192, 21.85059
1276.674, 2.881836
1277.156, 13.52686
1277.638, 33.20215
1278.120, 31.77441
1278.602, 29.85254
1279.084, 29.99707
1279.567, 39.35986
1280.049, 30.91846
1280.531, 11.29004
1281.013, 0.0000000E+00
##END=



