##NAMES=Magnesite
##RRUFFID=R050676
##IDEAL CHEMISTRY=MgCO_3_
##LOCALITY=Tyrol, Austria
##OWNER=RRUFF
##SOURCE=University of Arizona Mineral Museum
##DESCRIPTION=Brown rhombohedral crystals
##STATUS=The identification of this mineral has been confirmed by X-ray diffraction and chemical analysis
##URL=rruff.info/R050676
##MEASURED CHEMISTRY=(Mg_0.87_Fe^2+^_0.12_Ca_0.01_)_Î£=1_CO_3_; trace amounts of Mn and Cd; CO_2_ estimated by difference
124.3272, 0.0000000E+00
124.8093, 3.0439999E-03
125.2914, 0.2200410
125.7735, 0.5545560
126.2557, 0.6160770
126.7378, 0.4601210
127.2199, 0.3140530
127.7020, 0.2501260
128.1841, 0.2522910
128.6662, 0.2788980
129.1483, 0.3111800
129.6305, 0.4093460
130.1126, 0.6724470
130.5947, 1.013262
131.0768, 1.278166
131.5589, 1.249937
132.0410, 0.8726750
132.5232, 0.6013280
133.0053, 0.6601850
133.4874, 0.7539790
133.9695, 0.6852190
134.4516, 0.4342800
134.9337, 0.1407810
135.4159, 1.3115000E-02
135.8980, 0.1463050
136.3801, 0.2864800
136.8622, 0.4755570
137.3443, 0.7040200
137.8264, 0.8868920
138.3086, 0.9095760
138.7907, 0.8624530
139.2728, 0.8542270
139.7549, 1.039434
140.2370, 1.091036
140.7191, 0.9082550
141.2013, 0.6376400
141.6834, 0.3985800
142.1655, 0.2951870
142.6476, 0.3255710
143.1297, 0.3527610
143.6118, 0.3669310
144.0939, 0.3855900
144.5761, 0.4368740
145.0582, 0.5288720
145.5403, 0.5970670
146.0224, 0.6074580
146.5045, 0.5983070
146.9866, 0.5860250
147.4688, 0.6007490
147.9509, 0.5786500
148.4330, 0.4903640
148.9151, 0.3198550
149.3972, 0.1456790
149.8793, 1.3364000E-02
150.3615, 7.7936001E-02
150.8436, 0.1181780
151.3257, 8.0893002E-02
151.8078, 2.6290000E-03
152.2899, 6.0332999E-02
152.7720, 7.6623999E-02
153.2542, 9.5040001E-02
153.7363, 0.1343060
154.2184, 0.1870450
154.7005, 0.2475990
155.1826, 0.3254870
155.6647, 0.4123930
156.1469, 0.4172630
156.6290, 0.2233740
157.1111, 5.6852002E-02
157.5932, 3.2497998E-02
158.0753, 4.7954001E-02
158.5574, 1.2360000E-03
159.0396, 0.1105490
159.5217, 0.3043050
160.0038, 0.4032340
160.4859, 0.3377290
160.9680, 0.2551540
161.4501, 0.2155340
161.9323, 0.2197240
162.4144, 0.2343270
162.8965, 0.2260970
163.3786, 0.1903640
163.8607, 0.1405260
164.3428, 5.1569998E-02
164.8250, 3.3091001E-02
165.3071, 8.9451998E-02
165.7892, 0.1124580
166.2713, 9.5683001E-02
166.7534, 1.5600000E-02
167.2355, 0.1411090
167.7177, 0.2609950
168.1998, 0.3395000
168.6819, 0.3728030
169.1640, 0.3321580
169.6461, 0.1922490
170.1282, 5.0914999E-02
170.6104, 6.1866000E-02
171.0925, 0.2055930
171.5746, 0.3132590
172.0567, 0.2578630
172.5388, 0.1086190
173.0209, 8.9061998E-02
173.5031, 0.3254340
173.9852, 0.5801410
174.4673, 0.6288820
174.9494, 0.4903630
175.4315, 0.3385390
175.9136, 0.3073190
176.3958, 0.3918150
176.8779, 0.4509240
177.3600, 0.4393480
177.8421, 0.4181310
178.3242, 0.4154880
178.8063, 0.4348840
179.2885, 0.4739450
179.7706, 0.5396560
180.2527, 0.6442930
180.7348, 0.7256140
181.2169, 0.7658180
181.6990, 0.7802340
182.1812, 0.7785230
182.6633, 0.7554780
183.1454, 0.7668950
183.6275, 0.8991120
184.1096, 1.235184
184.5917, 1.519411
185.0738, 1.725000
185.5560, 1.905378
186.0381, 2.104095
186.5202, 2.329412
187.0023, 2.548589
187.4844, 2.697903
187.9665, 2.647153
188.4487, 2.744508
188.9308, 3.072612
189.4129, 3.499275
189.8950, 3.909849
190.3771, 4.265360
190.8592, 4.592682
191.3414, 4.951519
191.8235, 5.388119
192.3056, 5.766174
192.7877, 6.037716
193.2698, 6.248396
193.7519, 6.448803
194.2341, 6.647520
194.7162, 6.871243
195.1983, 7.183323
195.6804, 7.562908
196.1625, 8.031464
196.6446, 8.641333
197.1268, 9.335568
197.6089, 9.982188
198.0910, 10.49741
198.5731, 11.04391
199.0552, 11.85942
199.5373, 12.95255
200.0195, 14.14734
200.5016, 15.32235
200.9837, 16.50971
201.4658, 17.86199
201.9479, 19.39277
202.4300, 21.19516
202.9122, 23.25271
203.3943, 25.57044
203.8764, 28.20032
204.3585, 31.09995
204.8406, 34.26741
205.3227, 37.98220
205.8048, 42.32523
206.2870, 47.30500
206.7691, 52.96327
207.2512, 59.28933
207.7333, 66.06676
208.2154, 73.48811
208.6975, 81.92567
209.1797, 88.79593
209.6618, 94.44698
210.1439, 97.79111
210.6260, 97.88145
211.1081, 94.60434
211.5902, 88.65281
212.0724, 80.35585
212.5545, 68.69023
213.0366, 57.93481
213.5187, 48.09259
214.0008, 39.37769
214.4829, 31.93908
214.9651, 25.82504
215.4472, 20.86611
215.9293, 16.92658
216.4114, 14.37545
216.8935, 12.19981
217.3756, 10.39041
217.8578, 8.856875
218.3399, 7.535781
218.8220, 6.415689
219.3041, 5.503855
219.7862, 4.833897
220.2683, 4.546304
220.7505, 4.255158
221.2326, 3.980939
221.7147, 3.689737
222.1968, 3.337320
222.6789, 2.916939
223.1610, 2.479196
223.6432, 2.098230
224.1253, 1.789558
224.6074, 1.535293
225.0895, 1.347715
225.5716, 1.202374
226.0537, 1.089808
226.5358, 1.005743
227.0180, 0.9330780
227.5001, 0.8464220
227.9822, 0.7364230
228.4643, 0.6404290
228.9464, 0.5611550
229.4285, 0.4980670
229.9107, 0.4555440
230.3928, 0.4336930
230.8749, 0.4234750
231.3570, 0.4207210
231.8391, 0.4263650
232.3212, 0.4109360
232.8034, 0.3274190
233.2855, 0.2362490
233.7676, 0.2359910
234.2497, 0.3580610
234.7318, 0.4921240
235.2139, 0.5048030
235.6961, 0.4116540
236.1782, 0.3012850
236.6603, 0.1538420
237.1424, 1.4837000E-02
237.6245, 3.3091001E-02
238.1066, 3.9021000E-02
238.5888, 0.1383670
239.0709, 0.1621890
239.5530, 0.1367620
240.0351, 0.1511780
240.5172, 0.2721180
240.9993, 0.4453170
241.4815, 0.5625880
241.9636, 0.6029240
242.4457, 0.6257930
242.9278, 0.6890340
243.4099, 0.7693020
243.8920, 0.8135720
244.3742, 0.7748370
244.8563, 0.6885780
245.3384, 0.6505250
245.8205, 0.7029840
246.3026, 0.7056150
246.7847, 0.5079420
247.2668, 0.2217760
247.7490, 3.4409001E-02
248.2311, 7.3863998E-02
248.7132, 0.2455290
249.1953, 0.3091400
249.6774, 0.2089590
250.1595, 0.1110980
250.6417, 0.1167760
251.1238, 0.1584400
251.6059, 0.1431270
252.0880, 1.4098000E-02
252.5701, 0.1791120
253.0522, 0.3194680
253.5344, 0.4083730
254.0165, 0.4327640
254.4986, 0.3133620
254.9807, 0.1666760
255.4628, 0.1383350
255.9449, 0.3061560
256.4271, 0.5715310
256.9092, 0.7040230
257.3913, 0.6514700
257.8734, 0.5530180
258.3555, 0.3981440
258.8376, 0.2392240
259.3198, 0.1240920
259.8019, 7.1957000E-02
260.2840, 6.7216001E-02
260.7661, 8.8881999E-02
261.2482, 0.1909650
261.7303, 0.2101130
262.2125, 6.9169998E-02
262.6946, 0.1132900
263.1767, 0.2348740
263.6588, 0.2648320
264.1409, 0.2493480
264.6230, 0.2787690
265.1052, 0.4205100
265.5873, 0.4692110
266.0694, 0.3209040
266.5515, 0.1542900
267.0336, 0.1187620
267.5157, 0.2393050
267.9979, 0.4136710
268.4800, 0.4814500
268.9621, 0.3506790
269.4442, 0.3150380
269.9263, 0.4703120
270.4084, 0.6315200
270.8906, 0.6477580
271.3727, 0.5169470
271.8548, 0.3762650
272.3369, 0.4086390
272.8190, 0.7125730
273.3011, 0.8557020
273.7833, 0.7434830
274.2654, 0.5835830
274.7475, 0.4512880
275.2296, 0.3736210
275.7117, 0.3831290
276.1938, 0.5293840
276.6760, 0.8552580
277.1581, 1.049424
277.6402, 1.068254
278.1223, 1.030437
278.6044, 0.9435020
279.0865, 0.8392720
279.5686, 0.7869740
280.0508, 0.8447300
280.5329, 1.014036
281.0150, 1.210032
281.4971, 1.474157
281.9792, 1.718190
282.4613, 1.942686
282.9435, 2.122927
283.4256, 2.187154
283.9077, 2.067181
284.3898, 1.801372
284.8719, 1.747976
285.3540, 2.048294
285.8362, 2.364680
286.3183, 2.678040
286.8004, 2.940199
287.2825, 3.038292
287.7646, 2.892691
288.2467, 2.608066
288.7289, 2.558005
289.2110, 2.964941
289.6931, 3.311565
290.1752, 3.509401
290.6573, 3.602667
291.1394, 3.625636
291.6216, 3.586040
292.1037, 3.538286
292.5858, 3.596516
293.0679, 3.774599
293.5500, 4.032734
294.0321, 4.428877
294.5143, 4.877316
294.9964, 5.282501
295.4785, 5.622719
295.9606, 5.924746
296.4427, 6.204943
296.9248, 6.428267
297.4070, 6.740983
297.8891, 7.128040
298.3712, 7.618530
298.8533, 8.308409
299.3354, 9.189510
299.8175, 10.04209
300.2997, 10.59079
300.7818, 10.75468
301.2639, 11.28708
301.7460, 12.34774
302.2281, 13.63548
302.7102, 14.95718
303.1924, 16.30782
303.6745, 17.80167
304.1566, 19.53534
304.6387, 21.51469
305.1208, 23.63422
305.6029, 25.86866
306.0851, 28.25779
306.5672, 30.94378
307.0493, 33.82684
307.5314, 36.57230
308.0135, 38.94065
308.4956, 41.06788
308.9778, 43.51709
309.4599, 46.45020
309.9420, 49.43694
310.4241, 52.12863
310.9062, 54.78452
311.3883, 57.85455
311.8705, 61.49994
312.3526, 65.69849
312.8347, 70.36931
313.3168, 75.36650
313.7989, 81.03306
314.2810, 87.31069
314.7632, 94.33541
315.2453, 102.3400
315.7274, 111.3662
316.2095, 121.3342
316.6916, 132.0907
317.1737, 143.4782
317.6559, 156.7763
318.1380, 171.9140
318.6201, 189.1153
319.1022, 208.4641
319.5843, 230.0751
320.0664, 254.0690
320.5485, 280.6807
321.0306, 310.1039
321.5128, 341.6026
321.9949, 377.1362
322.4770, 413.1640
322.9591, 449.6001
323.4412, 485.1971
323.9233, 516.5822
324.4055, 542.2206
324.8876, 561.2070
325.3697, 568.1334
325.8518, 563.8588
326.3339, 549.0516
326.8160, 520.6225
327.2982, 481.9256
327.7803, 438.7861
328.2624, 393.0251
328.7445, 346.4173
329.2266, 303.5397
329.7087, 263.6755
330.1909, 227.9622
330.6730, 197.0899
331.1551, 170.4729
331.6372, 147.6503
332.1193, 128.5032
332.6014, 112.4414
333.0836, 98.71745
333.5657, 87.89000
334.0478, 78.32452
334.5299, 70.19735
335.0120, 63.22834
335.4941, 57.32769
335.9763, 52.45565
336.4584, 48.25557
336.9405, 44.48071
337.4226, 41.15527
337.9047, 38.04084
338.3868, 35.01459
338.8690, 32.25077
339.3511, 29.86170
339.8332, 27.80548
340.3153, 26.00430
340.7974, 24.43465
341.2795, 23.05655
341.7617, 21.63599
342.2438, 20.00815
342.7259, 18.54343
343.2080, 17.39064
343.6901, 16.42952
344.1722, 15.47695
344.6544, 14.45989
345.1365, 13.46377
345.6186, 12.67270
346.1007, 12.29141
346.5828, 11.81438
347.0649, 11.15531
347.5471, 10.45189
348.0292, 9.795286
348.5113, 9.218412
348.9934, 8.742500
349.4755, 8.421199
349.9576, 8.323812
350.4398, 8.080483
350.9219, 7.596346
351.4040, 7.077208
351.8861, 6.610096
352.3682, 6.210114
352.8503, 5.857513
353.3325, 5.530769
353.8146, 5.229257
354.2967, 4.997915
354.7788, 4.928875
355.2609, 4.855833
355.7430, 4.700069
356.2252, 4.501963
356.7073, 4.338500
357.1894, 4.240656
357.6715, 4.176905
358.1536, 4.060713
358.6357, 3.790820
359.1179, 3.628486
359.5999, 3.698600
360.0821, 3.798059
360.5642, 3.751670
361.0463, 3.531010
361.5284, 3.241983
362.0105, 3.015368
362.4926, 2.872044
362.9748, 2.716997
363.4569, 2.494523
363.9390, 2.313723
364.4211, 2.252995
364.9032, 2.280482
365.3853, 2.304576
365.8675, 2.250712
366.3496, 2.126772
366.8317, 2.025664
367.3138, 1.985317
367.7959, 1.926015
368.2780, 1.789811
368.7602, 1.643056
369.2423, 1.574370
369.7244, 1.623000
370.2065, 1.727979
370.6886, 1.759655
371.1707, 1.703604
371.6529, 1.628875
372.1350, 1.509365
372.6171, 1.400108
373.0992, 1.305219
373.5813, 1.225865
374.0634, 1.203216
374.5456, 1.349987
375.0277, 1.686887
375.5098, 1.752672
375.9919, 1.254546
376.4740, 0.7876410
376.9561, 0.6492490
377.4383, 0.7603530
377.9204, 0.9091600
378.4025, 0.9825550
378.8846, 0.9987990
379.3667, 1.011698
379.8488, 1.033253
380.3310, 1.024706
380.8131, 0.9563740
381.2952, 0.8584430
381.7773, 0.7433940
382.2594, 0.6035040
382.7415, 0.5077560
383.2237, 0.5826940
383.7058, 0.8306710
384.1879, 0.9463040
384.6700, 0.7666020
385.1521, 0.5217080
385.6342, 0.4137600
386.1164, 0.4371300
386.5985, 0.4926600
387.0806, 0.5389390
387.5627, 0.5781560
388.0448, 0.6267950
388.5269, 0.7017330
389.0091, 0.7318460
389.4912, 0.6175960
389.9733, 0.4191680
390.4554, 0.2650270
390.9375, 0.1460580
391.4196, 0.1132270
391.9018, 0.3050230
392.3839, 0.6854850
392.8660, 0.8895120
393.3481, 0.6814380
393.8302, 0.2739090
394.3123, 0.1000490
394.7945, 0.2249380
395.2766, 0.3424730
395.7587, 0.3169450
396.2408, 0.2110150
396.7229, 0.1273280
397.2050, 8.8486999E-02
397.6872, 7.2736003E-02
398.1693, 7.0220001E-02
398.6514, 8.4228002E-02
399.1335, 6.4406000E-02
399.6156, 4.1193001E-02
400.0977, 0.1418210
400.5798, 0.1691390
401.0620, 0.1304070
401.5441, 6.8374999E-02
402.0262, 2.7900001E-03
402.5083, 6.0066000E-02
402.9904, 8.4946997E-02
403.4725, 2.3936000E-02
403.9547, 9.6819997E-03
404.4368, 2.8946999E-02
404.9189, 9.7654000E-02
405.4010, 0.1460010
405.8831, 0.1580290
406.3652, 0.1451000
406.8474, 0.1218180
407.3295, 8.1230998E-02
407.8116, 5.1768001E-02
408.2937, 5.8536999E-02
408.7758, 5.3451002E-02
409.2579, 1.8517001E-02
409.7401, 0.1317710
410.2222, 0.1968290
410.7043, 0.1356080
411.1864, 2.6272999E-02
411.6685, -2.4585733E-02
412.1506, 8.2851335E-02
412.6328, 0.1449717
413.1149, 0.1642088
413.5970, 1.2126395E-02
414.0791, 8.1267804E-02
414.5612, 6.1752610E-02
415.0433, 3.8602278E-02
415.5255, 0.1388807
416.0076, 1.1716352E-02
416.4897, 0.1100364
416.9718, 0.1183475
417.4539, 0.1678533
417.9360, 0.1281554
418.4182, 5.4216001E-02
418.9003, 4.3868002E-02
419.3824, 2.6112000E-02
419.8645, 1.6910000E-03
420.3466, 2.6174000E-02
420.8287, 5.4662999E-02
421.3109, 9.2572004E-02
421.7930, 0.1720460
422.2751, 0.2503560
422.7572, 0.2701630
423.2393, 0.2078670
423.7214, 0.1230260
424.2036, 7.4593998E-02
424.6857, 6.1887000E-02
425.1678, 7.1020998E-02
425.6499, 0.1278790
426.1320, 0.1679440
426.6141, 0.1040560
427.0963, 4.6319999E-02
427.5784, 0.1420350
428.0605, 0.1038180
428.5426, 1.6709000E-02
429.0247, 0.1815710
429.5068, 0.3987280
429.9890, 0.5086680
430.4711, 0.3516030
430.9532, 2.0491000E-02
431.4353, 0.1658340
431.9174, 0.1264740
432.3995, 6.1337002E-02
432.8817, 8.9128003E-02
433.3638, 0.1614030
433.8459, 0.1616550
434.3280, 4.6277002E-02
434.8101, 0.1007270
435.2922, 0.1622250
435.7744, 0.1158810
436.2565, 6.3897997E-02
436.7386, 3.9690002E-03
437.2207, 6.5686002E-02
437.7028, 0.1111180
438.1849, 0.1370690
438.6671, 0.1323410
439.1492, 8.3249003E-02
439.6313, 3.7560000E-03
440.1134, 2.1966999E-02
440.5955, 8.8013001E-02
441.0776, 0.1507540
441.5598, 0.1011680
442.0418, 1.8023999E-02
442.5240, 1.8765001E-02
443.0061, 1.1752000E-02
443.4882, 7.8795999E-02
443.9703, 0.1469450
444.4524, 0.2203240
444.9345, 0.2762860
445.4167, 0.2847330
445.8988, 0.3054080
446.3809, 0.3961220
446.8630, 0.5111010
447.3451, 0.5509240
447.8272, 0.4425710
448.3094, 0.2644570
448.7915, 0.2348340
449.2736, 0.4278080
449.7557, 0.5569330
450.2378, 0.4797800
450.7199, 0.3616480
451.2021, 0.3127320
451.6842, 0.3464920
452.1663, 0.4184850
452.6484, 0.5394340
453.1305, 0.6799180
453.6126, 0.6686170
454.0948, 0.4072410
454.5769, 0.2062070
455.0590, 0.3840930
455.5411, 0.7549810
456.0232, 0.9940630
456.5053, 0.9826310
456.9875, 0.8846630
457.4696, 0.8224980
457.9517, 0.7863040
458.4338, 0.7368430
458.9159, 0.6538540
459.3980, 0.5735860
459.8802, 0.5508980
460.3623, 0.5833640
460.8444, 0.6450680
461.3265, 0.8019330
461.8086, 0.9377200
462.2907, 0.8960030
462.7729, 0.7035430
463.2550, 0.5726540
463.7371, 0.6622870
464.2192, 0.9242310
464.7013, 1.081594
465.1834, 1.058665
465.6656, 1.035687
466.1477, 1.040431
466.6298, 1.056312
467.1119, 1.051230
467.5940, 1.018685
468.0761, 1.006165
468.5583, 1.086171
469.0404, 1.284739
469.5225, 1.428916
470.0046, 1.493533
470.4867, 1.498717
470.9688, 1.409892
471.4510, 1.300499
471.9331, 1.277841
472.4152, 1.403598
472.8973, 1.613878
473.3794, 1.801044
473.8615, 1.971996
474.3437, 2.089163
474.8258, 2.110284
475.3079, 2.100430
475.7900, 2.089927
476.2721, 2.082483
476.7542, 2.081185
477.2364, 2.073718
477.7185, 2.075006
478.2006, 2.139949
478.6827, 2.284536
479.1648, 2.394222
479.6469, 2.390248
480.1291, 2.318145
480.6112, 2.264883
481.0933, 2.241711
481.5754, 2.236648
482.0575, 2.257828
482.5396, 2.284171
483.0217, 2.262002
483.5038, 2.174669
483.9860, 2.106072
484.4681, 2.153983
484.9502, 2.328940
485.4323, 2.452238
485.9144, 2.480967
486.3965, 2.496381
486.8787, 2.555759
487.3608, 2.614595
487.8429, 2.582561
488.3250, 2.437893
488.8071, 2.280524
489.2892, 2.260098
489.7714, 2.434262
490.2535, 2.579782
490.7356, 2.685557
491.2177, 2.783649
491.6998, 2.916693
492.1819, 3.050540
492.6641, 3.096016
493.1462, 2.991730
493.6283, 2.804919
494.1104, 2.710621
494.5925, 2.724164
495.0746, 2.792067
495.5568, 2.970016
496.0389, 3.147072
496.5210, 3.244804
497.0031, 3.256860
497.4852, 3.225798
497.9673, 3.155721
498.4495, 3.077975
498.9316, 3.059801
499.4137, 3.107951
499.8958, 3.177115
500.3779, 3.268429
500.8600, 3.362270
501.3422, 3.410119
501.8243, 3.390123
502.3064, 3.362269
502.7885, 3.344663
503.2706, 3.341217
503.7527, 3.362661
504.2349, 3.411838
504.7170, 3.478932
505.1991, 3.566236
505.6812, 3.676947
506.1633, 3.699427
506.6454, 3.540987
507.1276, 3.410578
507.6097, 3.436904
508.0918, 3.523477
508.5739, 3.489730
509.0560, 3.275081
509.5381, 3.026108
510.0203, 3.003269
510.5024, 3.321775
510.9845, 3.471139
511.4666, 3.266755
511.9487, 3.074524
512.4308, 3.063069
512.9130, 3.168751
513.3951, 3.239851
513.8772, 3.195175
514.3593, 3.090133
514.8414, 3.017175
515.3235, 2.975850
515.8057, 2.968365
516.2878, 3.000805
516.7699, 3.064658
517.2520, 3.190486
517.7341, 3.358440
518.2162, 3.433868
518.6984, 3.286936
519.1805, 3.058356
519.6626, 2.933782
520.1447, 2.909511
520.6268, 2.882595
521.1089, 2.796254
521.5911, 2.680829
522.0732, 2.628463
522.5553, 2.660121
523.0374, 2.681657
523.5195, 2.702237
524.0016, 2.689353
524.4838, 2.584066
524.9659, 2.406385
525.4480, 2.254904
525.9301, 2.205477
526.4122, 2.234860
526.8943, 2.221303
527.3765, 2.055592
527.8586, 2.010187
528.3407, 2.241413
528.8228, 2.502735
529.3049, 2.590214
529.7870, 2.486393
530.2692, 2.306613
530.7513, 2.124559
531.2334, 1.950818
531.7155, 1.852019
532.1976, 1.848717
532.6797, 1.873684
533.1619, 1.948159
533.6440, 2.012409
534.1261, 1.984071
534.6082, 1.837569
535.0903, 1.708339
535.5724, 1.727441
536.0546, 1.817286
536.5367, 1.791188
537.0188, 1.617995
537.5009, 1.447518
537.9830, 1.388558
538.4651, 1.426730
538.9473, 1.468039
539.4294, 1.547849
539.9115, 1.586538
540.3936, 1.541271
540.8757, 1.452652
541.3578, 1.358678
541.8400, 1.272397
542.3221, 1.208029
542.8042, 1.183919
543.2863, 1.200860
543.7684, 1.208480
544.2505, 1.217340
544.7326, 1.202335
545.2147, 1.118459
545.6968, 1.028569
546.1790, 1.020162
546.6611, 1.109331
547.1432, 1.200572
547.6253, 1.159846
548.1074, 1.005532
548.5895, 0.9722380
549.0717, 1.146688
549.5538, 1.274262
550.0359, 1.144989
550.5180, 0.8880740
551.0001, 0.6737240
551.4822, 0.5084660
551.9644, 0.4301560
552.4465, 0.5248170
552.9286, 0.7102720
553.4107, 0.8251190
553.8928, 0.8383940
554.3749, 0.7717280
554.8571, 0.6161420
555.3392, 0.3776560
555.8213, 0.2817420
556.3034, 0.4788680
556.7855, 0.6151740
557.2676, 0.5418070
557.7498, 0.3865850
558.2319, 0.3060430
558.7140, 0.3458320
559.1961, 0.4290210
559.6782, 0.4596620
560.1603, 0.4276270
560.6425, 0.4247610
561.1246, 0.5036400
561.6067, 0.5457000
562.0888, 0.4863200
562.5709, 0.3853310
563.0530, 0.3088610
563.5352, 0.2772520
564.0173, 0.2631640
564.4994, 0.2592640
564.9815, 0.2550070
565.4636, 0.1998670
565.9457, 6.0327999E-02
566.4279, 3.4028001E-02
566.9100, 3.1987999E-02
567.3921, 0.2144770
567.8742, 0.3384860
568.3563, 0.3745170
568.8384, 0.3992150
569.3206, 0.4610060
569.8027, 0.5126990
570.2848, 0.4825430
570.7669, 0.3716140
571.2490, 0.2470090
571.7311, 0.1612820
572.2133, 0.1188950
572.6954, 9.8545998E-02
573.1775, 0.1084660
573.6596, 0.1316360
574.1417, 0.1831540
574.6238, 0.2373060
575.1060, 0.2803690
575.5881, 0.3053020
576.0702, 0.2981820
576.5523, 0.2346320
577.0344, 0.1295170
577.5165, 2.9012000E-02
577.9987, 7.0404001E-02
578.4808, 0.1112650
578.9629, 2.1787999E-02
579.4450, 0.1125210
579.9271, 0.1614390
580.4092, 0.1025160
580.8914, 4.7842000E-02
581.3735, 6.2696002E-02
581.8556, 9.6460998E-02
582.3377, 7.7018000E-02
582.8198, 2.0272000E-02
583.3019, 1.1872000E-02
583.7841, 1.7405000E-02
584.2662, 8.9560002E-02
584.7483, 0.1308580
585.2304, 0.1282780
585.7125, 0.1158460
586.1946, 4.8810001E-02
586.6768, 7.1100001E-03
587.1589, 6.6854998E-02
587.6410, 0.1939300
588.1231, 0.2925690
588.6052, 0.3051450
589.0873, 0.2649450
589.5695, 0.2368970
590.0516, 0.2222630
590.5337, 0.2129130
591.0158, 0.2186340
591.4979, 0.2152370
591.9800, 0.1685150
592.4622, 9.3457997E-02
592.9443, 4.9704000E-02
593.4264, 6.8896003E-02
593.9085, 0.1146590
594.3906, 0.1716700
594.8727, 0.2315400
595.3549, 0.2737290
595.8370, 0.2922130
596.3191, 0.2831780
596.8012, 0.2363420
597.2833, 0.1425600
597.7654, 7.5685002E-02
598.2476, 4.4714000E-02
598.7297, 2.5932999E-02
599.2118, 1.6682001E-02
599.6939, 1.3389000E-02
600.1760, 1.1665000E-02
600.6581, 1.2540000E-02
601.1403, 1.6201001E-02
601.6224, 2.3270000E-02
602.1045, 3.5413001E-02
602.5866, 6.8696000E-02
603.0687, 0.1377730
603.5508, 0.1954050
604.0330, 0.2226900
604.5151, 0.2225900
604.9972, 0.1874280
605.4793, 0.1061470
605.9614, 3.9829001E-02
606.4435, 3.4430999E-02
606.9257, 5.4308999E-02
607.4078, 3.4658998E-02
607.8899, 2.1625999E-02
608.3720, 3.4648001E-02
608.8541, 5.6325000E-02
609.3362, 0.2093360
609.8184, 0.2913270
610.3005, 0.2607140
610.7826, 0.2159600
611.2647, 0.1321100
611.7468, 5.6474000E-02
612.2289, 8.9699998E-03
612.7111, 4.1640000E-03
613.1932, 3.4696002E-02
613.6753, 0.1500590
614.1574, 0.2764880
614.6395, 0.2827290
615.1216, 0.1604370
615.6038, 1.5937001E-02
616.0859, 0.1848070
616.5680, 0.3261720
617.0501, 0.2534070
617.5322, 3.3578001E-02
618.0143, 0.1051820
618.4965, 5.8750000E-02
618.9786, 1.5161000E-02
619.4607, 4.6737999E-02
619.9428, 3.3998001E-02
620.4249, 6.1439998E-02
620.9070, 0.2403170
621.3892, 0.3736960
621.8713, 0.3158200
622.3534, 7.0247002E-02
622.8355, 8.0003001E-02
623.3176, 4.9846999E-02
623.7997, 3.0177001E-02
624.2819, 9.2096999E-02
624.7640, 0.1479310
625.2461, 8.7958999E-02
625.7282, 8.1326000E-02
626.2103, 0.2201540
626.6924, 0.2027410
627.1745, 8.5055001E-02
627.6566, 1.2117000E-02
628.1387, 9.1793999E-02
628.6208, 9.8560996E-02
629.1030, 2.9983001E-02
629.5851, 0.1923200
630.0672, 0.2236780
630.5493, 0.1198470
631.0314, 3.2472000E-02
631.5135, 1.5464000E-02
631.9957, 4.1699000E-02
632.4778, 5.0115000E-02
632.9599, 4.6895999E-02
633.4420, 5.5902999E-02
633.9241, 8.3742999E-02
634.4063, 7.8615002E-02
634.8884, 6.6584997E-02
635.3705, 0.3931110
635.8526, 0.5037250
636.3347, 0.2247510
636.8168, 2.6077000E-02
637.2990, 0.1154650
637.7811, 0.1016380
638.2632, 2.3514001E-02
638.7453, 0.1168320
639.2274, 0.2046560
639.7095, 8.1495002E-02
640.1917, 0.1181370
640.6738, 0.1117290
641.1559, 0.1076680
641.6380, 0.2718430
642.1201, 0.2202290
642.6022, 5.1371001E-02
643.0844, 9.5929997E-03
643.5665, 0.1079530
644.0486, 0.1916760
644.5307, 0.2478760
645.0128, 0.2651600
645.4949, 0.2000140
645.9771, 9.7571000E-02
646.4592, 4.4656001E-02
646.9413, 8.0357999E-02
647.4234, 0.1604340
647.9055, 0.2456210
648.3876, 0.3342360
648.8698, 0.3232890
649.3519, 0.1491500
649.8340, 2.1970000E-03
650.3161, 1.8014001E-02
650.7982, 0.1379880
651.2803, 0.2560090
651.7625, 0.3883840
652.2446, 0.4581230
652.7267, 0.3899040
653.2088, 0.2715250
653.6909, 0.1988490
654.1730, 0.1741470
654.6552, 0.1466570
655.1373, 8.2053997E-02
655.6194, 1.0312000E-02
656.1015, 2.4058999E-02
656.5836, 0.1937460
657.0657, 0.2665670
657.5479, 0.1047690
658.0300, 3.7283000E-02
658.5121, 2.1570999E-02
658.9942, 8.8905998E-02
659.4763, 0.1535410
659.9584, 0.1093560
660.4406, 6.4139999E-02
660.9227, 0.1421330
661.4048, 0.2909680
661.8869, 0.3722480
662.3690, 0.3648980
662.8511, 0.3279450
663.3333, 0.2983750
663.8154, 0.2740770
664.2975, 0.2467620
664.7796, 0.1888910
665.2617, 0.1678790
665.7438, 0.1953300
666.2260, 0.2486740
666.7081, 0.3518370
667.1902, 0.4672000
667.6723, 0.5003610
668.1544, 0.3860570
668.6365, 0.2451980
669.1187, 0.3201300
669.6008, 0.5950310
670.0829, 0.6772720
670.5650, 0.4419790
671.0471, 0.1968490
671.5292, 0.1662950
672.0114, 0.3073370
672.4935, 0.4551770
672.9756, 0.6835160
673.4577, 0.7840230
673.9398, 0.5520210
674.4219, 0.2461560
674.9041, 0.1415770
675.3862, 0.2349270
675.8683, 0.3438570
676.3504, 0.3575620
676.8325, 0.3164730
677.3146, 0.3292690
677.7968, 0.4169950
678.2789, 0.4753570
678.7610, 0.4802440
679.2431, 0.4623190
679.7252, 0.4246790
680.2073, 0.3814350
680.6895, 0.3547260
681.1716, 0.3559550
681.6537, 0.3899070
682.1358, 0.4913550
682.6179, 0.6051400
683.1000, 0.6572110
683.5822, 0.6463010
684.0643, 0.6016070
684.5464, 0.5404600
685.0285, 0.4781960
685.5106, 0.4637710
685.9927, 0.5383240
686.4749, 0.5608220
686.9570, 0.4656780
687.4391, 0.3870070
687.9212, 0.4203220
688.4033, 0.5049140
688.8854, 0.5150990
689.3676, 0.3919730
689.8497, 0.2649170
690.3318, 0.2411790
690.8139, 0.2944420
691.2960, 0.3676670
691.7781, 0.4543540
692.2603, 0.5829970
692.7424, 0.7934390
693.2245, 1.027357
693.7066, 1.146793
694.1887, 1.087097
694.6708, 1.035915
695.1530, 0.9984980
695.6351, 0.9653060
696.1172, 0.8964930
696.5993, 0.8387700
697.0814, 0.9024080
697.5635, 1.134275
698.0457, 1.334039
698.5278, 1.249067
699.0099, 0.9950560
699.4920, 0.9240470
699.9741, 1.069237
700.4562, 1.275798
700.9384, 1.495055
701.4205, 1.685619
701.9026, 1.736144
702.3847, 1.564477
702.8668, 1.472798
703.3489, 1.499906
703.8311, 1.571342
704.3132, 1.689284
704.7953, 1.813380
705.2774, 1.876204
705.7595, 1.859845
706.2416, 1.834443
706.7238, 1.882316
707.2059, 1.985536
707.6880, 2.062274
708.1701, 2.108157
708.6522, 2.152334
709.1343, 2.184525
709.6164, 2.248277
710.0985, 2.439139
710.5806, 2.785858
711.0627, 3.042741
711.5449, 3.125282
712.0270, 3.190187
712.5091, 3.314420
712.9912, 3.465498
713.4733, 3.563096
713.9554, 3.605316
714.4376, 3.717234
714.9197, 4.062646
715.4018, 4.560812
715.8839, 4.870189
716.3660, 4.958687
716.8481, 5.117920
717.3303, 5.475076
717.8124, 5.879600
718.2945, 6.137327
718.7766, 6.263271
719.2587, 6.496593
719.7408, 6.917917
720.2230, 7.375450
720.7051, 7.823834
721.1872, 8.263084
721.6693, 8.693051
722.1514, 9.120383
722.6335, 9.575825
723.1157, 10.08363
723.5978, 10.63622
724.0799, 11.22769
724.5620, 11.85919
725.0441, 12.41892
725.5262, 12.83862
726.0084, 13.28598
726.4905, 13.88914
726.9726, 14.63593
727.4547, 15.45208
727.9368, 16.31879
728.4189, 17.28463
728.9011, 18.48308
729.3832, 19.70130
729.8653, 20.69745
730.3474, 21.51417
730.8295, 22.35904
731.3116, 23.34658
731.7938, 24.42085
732.2759, 25.50099
732.7580, 26.58515
733.2401, 27.68306
733.7222, 28.82441
734.2043, 29.90620
734.6865, 30.89208
735.1686, 31.76400
735.6507, 32.50285
736.1328, 33.10130
736.6149, 33.60240
737.0970, 34.04578
737.5792, 34.32105
738.0613, 34.34723
738.5434, 34.17477
739.0255, 33.91002
739.5076, 33.58109
739.9897, 33.07331
740.4719, 32.18941
740.9540, 30.98586
741.4361, 29.87270
741.9182, 28.89220
742.4003, 27.80350
742.8824, 26.49868
743.3646, 25.07332
743.8467, 23.62420
744.3288, 22.14860
744.8109, 20.72985
745.2930, 19.29025
745.7751, 18.00756
746.2573, 17.03550
746.7394, 16.21395
747.2215, 15.37580
747.7036, 14.48705
748.1857, 13.55281
748.6678, 12.53963
749.1500, 11.55414
749.6321, 10.91423
750.1142, 10.61406
750.5963, 10.15007
751.0784, 9.378408
751.5605, 8.563178
752.0427, 7.873452
752.5248, 7.294051
753.0069, 6.777493
753.4890, 6.346720
753.9711, 5.937923
754.4532, 5.530720
754.9354, 5.151465
755.4175, 4.810765
755.8996, 4.514804
756.3817, 4.291412
756.8638, 4.157981
757.3459, 4.003392
757.8281, 3.644563
758.3102, 3.151095
758.7923, 2.805345
759.2744, 2.628910
759.7565, 2.491786
760.2386, 2.332066
760.7208, 2.176466
761.2029, 2.074840
761.6850, 2.045554
762.1671, 1.998945
762.6492, 1.966877
763.1313, 1.867834
763.6135, 1.615678
764.0956, 1.318628
764.5777, 1.081298
765.0598, 0.9238490
765.5419, 0.8225300
766.0240, 0.7692690
766.5062, 0.7569490
766.9883, 0.8115170
767.4704, 0.9047530
767.9525, 0.8996770
768.4346, 0.7603070
768.9167, 0.6068550
769.3989, 0.5427360
769.8810, 0.5584420
770.3631, 0.6051640
770.8452, 0.7528760
771.3273, 0.8028600
771.8094, 0.6602500
772.2916, 0.5003030
772.7737, 0.4164940
773.2558, 0.3851130
773.7379, 0.3535840
774.2200, 0.3149110
774.7021, 0.2430040
775.1843, 7.4469998E-02
775.6664, 0.1101190
776.1485, 0.1972720
776.6306, 0.1932320
777.1127, 0.1650630
777.5948, 0.1429440
778.0770, 9.3346000E-02
778.5591, 5.7526000E-02
779.0412, 0.3217350
779.5233, 0.4295350
780.0054, 0.3235520
780.4875, 0.1801490
780.9697, 2.2930000E-02
781.4518, 0.1809490
781.9339, 0.1518050
782.4160, 4.5157000E-02
782.8981, 0.1719190
783.3802, 9.5243998E-02
783.8624, 2.2493999E-02
784.3445, 0.1061320
784.8266, 0.2293180
785.3087, 0.2062380
785.7908, 4.9222998E-02
786.2729, 5.2338999E-02
786.7551, 3.7331000E-02
787.2372, 0.2135470
787.7193, 0.2495870
788.2014, 0.1474740
788.6835, 9.8808996E-02
789.1656, 0.1312340
789.6478, 0.1979420
790.1299, 0.2989100
790.6120, 0.3977160
791.0941, 0.3930510
791.5762, 0.2313640
792.0583, 0.1324750
792.5404, 0.2172320
793.0225, 0.2477430
793.5046, 3.6619999E-03
793.9868, 0.3089090
794.4689, 0.3920850
794.9510, 0.1971910
795.4331, 5.9009999E-02
795.9152, 0.2644680
796.3973, 0.3953870
796.8795, 0.3651660
797.3616, 0.2107820
797.8437, 0.1250960
798.3258, 0.1580080
798.8079, 0.2035880
799.2900, 0.1607310
799.7722, 5.4352999E-02
800.2543, 2.7623000E-02
800.7364, 0.1425280
801.2185, 0.2099240
801.7006, 0.1844680
802.1827, 0.1390720
802.6649, 8.7970003E-02
803.1470, 4.5497000E-02
803.6291, 3.6989000E-02
804.1112, 7.0404999E-02
804.5933, 0.1213630
805.0754, 0.2283110
805.5576, 0.3067820
806.0397, 0.2241490
806.5218, 4.8765998E-02
807.0039, 3.0880000E-02
807.4860, 4.3217000E-02
807.9681, 0.1311880
808.4503, 5.4664999E-02
808.9324, 0.1360010
809.4145, 0.1430730
809.8966, 7.0479997E-02
810.3787, 0.2351270
810.8608, 0.2692840
811.3430, 0.2633560
811.8251, 0.3021850
812.3072, 0.3740050
812.7893, 0.3984730
813.2714, 0.3415160
813.7535, 0.2888160
814.2357, 0.2636880
814.7178, 0.2361420
815.1999, 0.1578990
815.6820, 6.7919999E-02
816.1641, 5.3725999E-02
816.6462, 0.1467950
817.1284, 0.2636010
817.6105, 0.3690770
818.0926, 0.4282330
818.5747, 0.3126370
819.0568, 6.1326001E-02
819.5389, 6.4401001E-02
820.0211, 3.0417001E-02
820.5032, 0.2258040
820.9853, 0.4019910
821.4674, 0.5537250
821.9495, 0.5885290
822.4316, 0.4371090
822.9138, 0.3198670
823.3959, 0.2864170
823.8780, 0.2870170
824.3601, 0.3019770
824.8422, 0.3240270
825.3243, 0.3314100
825.8065, 0.3021610
826.2886, 0.3033780
826.7707, 0.4221950
827.2528, 0.5307530
827.7349, 0.4548620
828.2170, 0.2872870
828.6992, 0.2754280
829.1813, 0.4953310
829.6634, 0.7304890
830.1455, 0.7283380
830.6276, 0.5592920
831.1097, 0.4586410
831.5919, 0.4257950
832.0740, 0.3938440
832.5561, 0.3392730
833.0382, 0.3032300
833.5203, 0.3286960
834.0024, 0.4031620
834.4846, 0.4329590
834.9667, 0.3553990
835.4488, 0.3396940
835.9309, 0.5242510
836.4130, 0.6396440
836.8951, 0.4349380
837.3773, 9.2843004E-02
837.8594, 3.9391000E-02
838.3415, 0.1350950
838.8236, 0.3279390
839.3057, 0.3882730
839.7878, 0.3985390
840.2700, 0.4256630
840.7521, 0.4589920
841.2342, 0.4941990
841.7163, 0.5250900
842.1984, 0.5161250
842.6805, 0.4193320
843.1627, 0.2792740
843.6448, 0.2331140
844.1269, 0.2800630
844.6090, 0.3695110
845.0911, 0.5113990
845.5732, 0.6093830
846.0554, 0.5769030
846.5375, 0.4643580
847.0196, 0.4186650
847.5017, 0.4925400
847.9838, 0.5123990
848.4659, 0.4048990
848.9481, 0.3313550
849.4302, 0.4220170
849.9123, 0.5388830
850.3944, 0.4761080
850.8765, 0.2342970
851.3586, 9.0263002E-02
851.8408, 0.2687560
852.3229, 0.4929900
852.8050, 0.5305900
853.2871, 0.4646730
853.7692, 0.4320920
854.2513, 0.4334010
854.7335, 0.3765230
855.2156, 0.1930030
855.6977, 1.3082000E-02
856.1798, 3.0374000E-02
856.6619, 0.1345590
857.1440, 0.2940970
857.6262, 0.4505900
858.1083, 0.5318180
858.5904, 0.4676720
859.0725, 0.3765640
859.5546, 0.4443590
860.0367, 0.6950990
860.5189, 0.8186120
861.0010, 0.7106140
861.4831, 0.6226450
861.9652, 0.6349630
862.4473, 0.6454480
862.9294, 0.5350220
863.4116, 0.3588800
863.8937, 0.2904800
864.3758, 0.4110900
864.8579, 0.5460850
865.3400, 0.5901210
865.8221, 0.5927750
866.3043, 0.6107440
866.7864, 0.6305170
867.2685, 0.6189170
867.7506, 0.5766450
868.2327, 0.5619930
868.7148, 0.6598090
869.1970, 0.8301490
869.6791, 0.9326930
870.1612, 0.9672600
870.6433, 1.021731
871.1254, 1.116322
871.6075, 1.229071
872.0897, 1.346719
872.5718, 1.466008
873.0539, 1.574061
873.5360, 1.676342
874.0181, 1.751728
874.5002, 1.762918
874.9823, 1.790997
875.4644, 1.893363
875.9465, 2.007506
876.4286, 2.048931
876.9108, 2.015714
877.3929, 2.005755
877.8750, 2.137462
878.3571, 2.217730
878.8392, 2.118173
879.3214, 1.923288
879.8035, 1.696391
880.2856, 1.473310
880.7677, 1.323227
881.2498, 1.290122
881.7319, 1.275331
882.2141, 1.116559
882.6962, 0.8830450
883.1783, 0.8245790
883.6604, 0.9262570
884.1425, 0.8862830
884.6246, 0.5821230
885.1068, 0.2669120
885.5889, 0.2357480
886.0710, 0.4452470
886.5531, 0.5473860
887.0352, 0.5032900
887.5173, 0.4857120
887.9995, 0.5388260
888.4816, 0.5910650
888.9637, 0.6098740
889.4458, 0.5939260
889.9279, 0.5247190
890.4100, 0.3684300
890.8922, 0.2955660
891.3743, 0.4347350
891.8564, 0.5408230
892.3385, 0.4481390
892.8206, 0.2987020
893.3027, 0.2851350
893.7849, 0.3941620
894.2670, 0.4323100
894.7491, 0.2514550
895.2312, 7.9490997E-02
895.7133, 0.2037350
896.1954, 0.4379410
896.6776, 0.4209800
897.1597, 0.1967350
897.6418, 9.2114002E-02
898.1239, 0.2454570
898.6060, 0.4589420
899.0881, 0.4851520
899.5703, 0.3570560
900.0524, 0.2664540
900.5345, 0.2105260
901.0166, 0.1726000
901.4987, 0.1560010
901.9808, 0.1404430
902.4630, 0.1070610
902.9451, 6.4650998E-02
903.4272, 4.0589999E-02
903.9093, 1.7405000E-02
904.3914, 4.3411002E-02
904.8735, 0.2225380
905.3557, 0.3252320
905.8378, 0.1957450
906.3199, 4.2800000E-04
906.8020, 8.3549999E-02
907.2841, 4.7798000E-02
907.7662, 1.8257000E-02
908.2484, 0.1338120
908.7305, 0.2289820
909.2126, 0.3012870
909.6947, 0.3173530
910.1768, 0.1850920
910.6589, 1.8407000E-02
911.1411, 0.1034580
911.6232, 3.0530000E-03
912.1053, 0.1629570
912.5874, 0.3000490
913.0695, 0.3898630
913.5516, 0.3674960
914.0338, 0.2664690
914.5159, 0.1842370
914.9980, 0.1431370
915.4801, 0.1208800
915.9622, 0.1014260
916.4443, 9.1637999E-02
916.9265, 0.1078560
917.4086, 0.1500670
917.8907, 0.2022140
918.3728, 0.2733870
918.8549, 0.3047230
919.3370, 0.2518700
919.8192, 0.1797270
920.3013, 0.1855490
920.7834, 0.2729700
921.2655, 0.2833150
921.7476, 0.1350770
922.2297, 5.0827999E-02
922.7119, 0.1124320
923.1940, 0.1955810
923.6761, 0.2383270
924.1582, 0.2497380
924.6403, 0.2503290
925.1224, 0.2424670
925.6046, 0.2224140
926.0867, 0.1807350
926.5688, 0.1362180
927.0509, 7.0018001E-02
927.5330, 2.4931001E-02
928.0151, 8.5653000E-02
928.4973, 0.2253790
928.9794, 0.2978650
929.4615, 0.2058200
929.9436, 8.6138003E-02
930.4257, 6.2815003E-02
930.9078, 0.1063110
931.3900, 0.2130650
931.8721, 0.3449280
932.3542, 0.3892610
932.8363, 0.3142530
933.3184, 0.2100770
933.8005, 0.1598830
934.2827, 0.1428060
934.7648, 0.1155200
935.2469, 8.2962997E-02
935.7290, 6.5142997E-02
936.2111, 6.1329000E-02
936.6932, 6.4547002E-02
937.1754, 7.2791003E-02
937.6575, 7.4547000E-02
938.1396, 3.6061000E-02
938.6217, 5.6058999E-02
939.1038, 7.1208999E-02
939.5859, 1.5025000E-02
940.0681, 0.1046210
940.5502, 0.1918920
941.0323, 0.2560650
941.5144, 0.2824210
941.9965, 0.2718210
942.4786, 0.2187860
942.9608, 3.9670002E-02
943.4429, 7.9910001E-03
943.9250, 0.2335270
944.4071, 0.4346820
944.8892, 0.4409090
945.3713, 0.3508310
945.8535, 0.2660440
946.3356, 0.1985120
946.8177, 0.1356200
947.2998, 5.5629000E-02
947.7819, 1.6760999E-02
948.2640, 5.6527998E-02
948.7462, 0.1284910
949.2283, 0.2205970
949.7104, 0.3084970
950.1925, 0.3489000
950.6746, 0.3394750
951.1567, 0.3246460
951.6389, 0.3333260
952.1210, 0.3315560
952.6031, 0.2669820
953.0852, 0.1750170
953.5673, 0.1401750
954.0494, 0.1653420
954.5316, 0.2027420
955.0137, 0.2282930
955.4958, 0.2188370
955.9779, 0.1014960
956.4600, 8.5488997E-02
956.9421, 0.1456660
957.4242, 8.0681004E-02
957.9063, 6.9738999E-02
958.3884, 0.3128290
958.8705, 0.4978920
959.3527, 0.4898040
959.8348, 0.3442870
960.3169, 0.2172200
960.7990, 9.5186003E-02
961.2811, 7.8316003E-02
961.7632, 0.1981680
962.2454, 0.3401420
962.7275, 0.5090620
963.2096, 0.6182810
963.6917, 0.5354190
964.1738, 0.2847900
964.6559, 0.1457800
965.1381, 0.2159940
965.6202, 0.2591070
966.1023, 0.2195600
966.5844, 0.2032300
967.0665, 0.2920920
967.5486, 0.4119310
968.0308, 0.4582530
968.5129, 0.4229560
968.9950, 0.3775790
969.4771, 0.3560000
969.9592, 0.3335430
970.4413, 0.2980930
970.9235, 0.2549250
971.4056, 0.1817560
971.8877, 0.1071310
972.3698, 8.5036002E-02
972.8519, 0.1300900
973.3340, 0.2115990
973.8162, 0.3884370
974.2983, 0.5159590
974.7804, 0.4188630
975.2625, 0.2298220
975.7446, 0.1089230
976.2267, 8.5571997E-02
976.7089, 0.1756050
977.1910, 0.3938530
977.6731, 0.5914240
978.1552, 0.5713320
978.6373, 0.4537190
979.1194, 0.4644170
979.6016, 0.5597560
980.0837, 0.5768160
980.5658, 0.4920670
981.0479, 0.4141430
981.5300, 0.4181950
982.0121, 0.4591550
982.4943, 0.4586180
982.9764, 0.4237000
983.4585, 0.3851070
983.9406, 0.3453550
984.4227, 0.3612500
984.9048, 0.4584300
985.3870, 0.4976770
985.8691, 0.3317390
986.3512, 5.2368999E-02
986.8333, 1.8990001E-02
987.3154, 0.1522880
987.7975, 0.2408260
988.2797, 0.2151170
988.7618, 0.1713130
989.2439, 0.1443410
989.7260, 0.1187360
990.2081, 7.1393996E-02
990.6902, 8.1390003E-03
991.1724, 1.3965000E-02
991.6545, 3.2157999E-02
992.1366, 5.4510001E-02
992.6187, 1.8600000E-02
993.1008, 2.9229999E-03
993.5829, 8.1811003E-02
994.0651, 0.1748990
994.5472, 0.1538030
995.0293, 1.5992999E-02
995.5114, 7.2131000E-02
995.9935, 9.5555000E-02
996.4756, 9.4875999E-02
996.9578, 5.2103002E-02
997.4399, 4.1780001E-03
997.9220, 3.7850000E-02
998.4041, -7.6679955E-03
998.8862, 9.9565528E-02
999.3683, 0.1614812
999.8505, 0.1805159
1000.333, 2.8232994E-02
1000.815, 9.7169906E-02
1001.297, 7.7450454E-02
1001.779, 5.4095615E-02
1002.261, 0.1541688
1002.743, 2.6800174E-02
1003.225, 0.1249160
1003.707, 0.1330225
1004.190, 0.1823321
1004.672, 0.1424297
1005.154, 0.1300796
1005.636, 6.6496000E-02
1006.118, 3.7420001E-02
1006.600, 0.1061170
1007.082, 0.1207550
1007.564, 4.5566000E-02
1008.046, 0.1348280
1008.529, 0.2633460
1009.011, 0.1578220
1009.493, 9.7380001E-03
1009.975, 5.3638000E-02
1010.457, 1.9273000E-02
1010.939, 1.9484000E-02
1011.421, 4.7075000E-02
1011.903, 6.8356998E-02
1012.385, 8.6308002E-02
1012.868, 8.9394003E-02
1013.350, 5.4278001E-02
1013.832, 3.8739999E-03
1014.314, 3.2210998E-02
1014.796, 4.6553999E-02
1015.278, 1.2650000E-02
1015.760, 0.1354190
1016.242, 0.2199380
1016.725, 0.2053320
1017.207, 0.1510160
1017.689, 0.1474610
1018.171, 0.1761640
1018.653, 0.1723050
1019.135, 0.1347600
1019.617, 6.1336000E-02
1020.099, 4.3506999E-02
1020.581, 0.1361750
1021.064, 0.1898650
1021.546, 0.2020850
1022.028, 0.1529460
1022.510, 4.8147999E-02
1022.992, 2.6007000E-02
1023.474, 7.0366003E-02
1023.956, 6.1193001E-02
1024.438, 1.3916000E-02
1024.921, 8.9642003E-02
1025.403, 0.1204470
1025.885, 0.1024690
1026.367, 2.9040000E-03
1026.849, 0.2103300
1027.331, 0.2350410
1027.813, 3.4386002E-02
1028.295, 9.0898998E-02
1028.777, 2.7641000E-02
1029.260, 1.0987000E-02
1029.742, 0.1745220
1030.224, 0.4755580
1030.706, 0.5632150
1031.188, 0.3782440
1031.670, 0.3047540
1032.152, 0.3755890
1032.634, 0.4619610
1033.116, 0.5381950
1033.599, 0.5979590
1034.081, 0.6409370
1034.563, 0.6688840
1035.045, 0.6645860
1035.527, 0.5820470
1036.009, 0.6376500
1036.491, 0.9679810
1036.973, 1.171648
1037.456, 1.082556
1037.938, 0.8961700
1038.420, 0.7287450
1038.902, 0.6016270
1039.384, 0.5963710
1039.866, 0.7732040
1040.348, 0.9022590
1040.830, 0.9405420
1041.313, 0.9921180
1041.795, 1.121505
1042.277, 1.239778
1042.759, 1.229559
1043.241, 1.152058
1043.723, 1.216486
1044.205, 1.522831
1044.687, 1.686002
1045.169, 1.570317
1045.651, 1.485866
1046.134, 1.517735
1046.616, 1.617480
1047.098, 1.761959
1047.580, 1.939126
1048.062, 2.132678
1048.544, 2.371195
1049.026, 2.515016
1049.508, 2.450557
1049.991, 2.418877
1050.473, 2.506976
1050.955, 2.650268
1051.437, 2.834362
1051.919, 3.023471
1052.401, 3.128284
1052.883, 3.093694
1053.365, 3.148468
1053.848, 3.440597
1054.330, 3.714472
1054.812, 3.860335
1055.294, 3.962677
1055.776, 4.066535
1056.258, 4.190913
1056.740, 4.370384
1057.222, 4.619048
1057.704, 4.870035
1058.187, 5.062136
1058.669, 5.306533
1059.151, 5.734780
1059.633, 6.159976
1060.115, 6.378342
1060.597, 6.474603
1061.079, 6.655915
1061.561, 6.966844
1062.043, 7.329890
1062.526, 7.749017
1063.008, 8.167795
1063.490, 8.547652
1063.972, 8.945375
1064.454, 9.386269
1064.936, 9.883659
1065.418, 10.46332
1065.900, 11.12529
1066.383, 11.79527
1066.865, 12.56641
1067.347, 13.21770
1067.829, 13.38923
1068.311, 13.61305
1068.793, 14.43541
1069.275, 15.62142
1069.757, 16.66950
1070.240, 17.48814
1070.722, 18.37947
1071.204, 19.45539
1071.686, 20.65390
1072.168, 22.04801
1072.650, 23.45599
1073.132, 24.64782
1073.614, 25.79042
1074.096, 27.20966
1074.578, 28.94666
1075.061, 30.76033
1075.543, 32.50600
1076.025, 34.37599
1076.507, 36.43979
1076.989, 38.69033
1077.471, 41.11924
1077.953, 43.74729
1078.435, 46.56014
1078.918, 49.58599
1079.400, 52.94439
1079.882, 56.74557
1080.364, 60.78946
1080.846, 64.75710
1081.328, 69.18883
1081.810, 74.65597
1082.292, 80.75244
1082.774, 86.85770
1083.257, 92.99307
1083.739, 99.69791
1084.221, 107.2071
1084.703, 115.2039
1085.185, 123.4383
1085.667, 132.2233
1086.149, 141.4942
1086.631, 151.5877
1087.114, 163.0143
1087.596, 175.6560
1088.078, 189.0517
1088.560, 203.1280
1089.042, 217.7323
1089.524, 233.4317
1090.006, 249.0957
1090.488, 264.5885
1090.970, 279.2733
1091.453, 292.2375
1091.935, 303.8817
1092.417, 315.4016
1092.899, 327.3486
1093.381, 336.7301
1093.863, 343.4550
1094.345, 346.0792
1094.827, 342.6029
1095.309, 335.8732
1095.792, 327.6909
1096.274, 318.3464
1096.756, 307.8181
1097.238, 296.1258
1097.720, 283.5204
1098.202, 269.8136
1098.684, 255.5933
1099.166, 240.4459
1099.649, 225.3284
1100.131, 210.5793
1100.613, 196.4577
1101.095, 183.1644
1101.577, 170.7164
1102.059, 158.9730
1102.541, 148.0756
1103.023, 137.6778
1103.505, 127.7042
1103.988, 118.1420
1104.470, 108.9209
1104.952, 100.1804
1105.434, 92.09840
1105.916, 84.65617
1106.398, 77.73782
1106.880, 71.26635
1107.362, 65.50580
1107.844, 60.77475
1108.327, 56.36994
1108.809, 52.11007
1109.291, 47.97653
1109.773, 43.86288
1110.255, 39.88144
1110.737, 36.39145
1111.219, 33.48491
1111.701, 30.81136
1112.184, 28.39299
1112.666, 26.15792
1113.148, 24.10995
1113.630, 22.20780
1114.112, 20.42417
1114.594, 18.79286
1115.076, 17.33827
1115.558, 16.05320
1116.041, 14.99797
1116.523, 14.35080
1117.005, 13.62479
1117.487, 12.74506
1117.969, 11.83836
1118.451, 10.90103
1118.933, 10.01761
1119.415, 9.319736
1119.897, 8.790236
1120.380, 8.202481
1120.862, 7.467168
1121.344, 6.908857
1121.826, 6.628346
1122.308, 6.327190
1122.790, 5.870406
1123.272, 5.408601
1123.754, 5.082406
1124.236, 4.851464
1124.719, 4.558291
1125.201, 4.182508
1125.683, 3.856610
1126.165, 3.576891
1126.647, 3.391901
1127.129, 3.344936
1127.611, 3.312261
1128.093, 3.205607
1128.576, 3.042381
1129.058, 2.849273
1129.540, 2.632400
1130.022, 2.485747
1130.504, 2.417983
1130.986, 2.299059
1131.468, 2.103836
1131.950, 1.937282
1132.432, 1.854775
1132.915, 1.789647
1133.397, 1.658662
1133.879, 1.484085
1134.361, 1.345123
1134.843, 1.241879
1135.325, 1.151199
1135.807, 1.073243
1136.289, 0.9713680
1136.771, 0.8350960
1137.254, 0.7649300
1137.736, 0.8540910
1138.218, 0.9791770
1138.700, 0.8924020
1139.182, 0.6645110
1139.664, 0.5102430
1140.146, 0.4353250
1140.628, 0.4333700
1141.111, 0.4937570
1141.593, 0.5885140
1142.075, 0.7051980
1142.557, 0.7229090
1143.039, 0.3724850
1143.521, 5.9179001E-02
1144.003, 1.5289000E-02
1144.485, 0.2832120
1144.968, 0.3931160
1145.450, 0.3160810
1145.932, 0.2320890
1146.414, 0.2042150
1146.896, 0.2189050
1147.378, 0.2781650
1147.860, 0.3520660
1148.342, 0.4650530
1148.824, 0.5321140
1149.307, 0.4062180
1149.789, 0.1849170
1150.271, 2.7365999E-02
1150.753, 3.7046999E-02
1151.235, 5.2042000E-02
1151.717, 2.6171001E-02
1152.199, 1.3060000E-03
1152.681, 1.0098000E-02
1153.163, 1.2602000E-02
1153.646, 1.4805000E-02
1154.128, 1.4794000E-02
1154.610, 1.0548000E-02
1155.092, 1.2810000E-03
1155.574, 1.8407000E-02
1156.056, 5.3126998E-02
1156.538, 5.6210998E-02
1157.020, 6.5094002E-02
1157.503, 0.1419810
1157.985, 8.2241997E-02
1158.467, 1.3161000E-02
1158.949, 2.7310001E-02
1159.431, 6.4590000E-02
1159.913, 3.6008000E-02
1160.395, 5.2722000E-02
1160.877, 0.1220470
1161.359, 0.1855710
1161.842, 0.1925400
1162.324, 9.7871996E-02
1162.806, 1.4429000E-02
1163.288, 4.1630000E-02
1163.770, 5.6561001E-02
1164.252, 4.8890002E-03
1164.734, 9.5925003E-02
1165.216, 0.1053590
1165.698, 2.3613000E-02
1166.181, 8.2799997E-03
1166.663, 2.9192001E-02
1167.145, 4.5782998E-02
1167.627, 3.1357002E-02
1168.109, 1.6321000E-02
1168.591, 0.1055320
1169.073, 0.2095250
1169.555, 0.3105920
1170.037, 0.3839490
1170.520, 0.3170690
1171.002, 0.1143320
1171.484, 7.5342000E-02
1171.966, 0.2428660
1172.448, 0.3284810
1172.930, 0.3166310
1173.412, 0.2363930
1173.894, 9.9817000E-02
1174.377, 2.4071001E-02
1174.859, 1.3327000E-02
1175.341, 8.1845999E-02
1175.823, 0.1348900
1176.305, 0.1510250
1176.787, 0.1381810
1177.269, 0.1030370
1177.751, 7.2218999E-02
1178.234, 5.1421002E-02
1178.716, 7.8119999E-03
1179.198, 0.1709700
1179.680, 0.3279950
1180.162, 0.1953720
1180.644, 4.4940002E-03
1181.126, 0.1526920
1181.608, 0.2341680
1182.090, 0.2535990
1182.573, 2.6100000E-02
1183.055, 0.1173580
1183.537, 8.0803998E-02
1184.019, 0.1395970
1184.501, 4.5828000E-02
1184.983, 3.5441998E-02
1185.465, 4.8520002E-03
1185.947, 5.1403999E-02
1186.429, 4.6822999E-02
1186.912, 1.7355001E-02
1187.394, 4.4980001E-02
1187.876, 0.1352890
1188.358, 0.2098120
1188.840, 0.2607250
1189.322, 0.2881050
1189.804, 0.2773790
1190.286, 0.2633960
1190.769, 0.2681040
1191.251, 0.2562760
1191.733, 0.1541440
1192.215, 4.0856000E-02
1192.697, 0.1606060
1193.179, 0.5728890
1193.661, 0.6725740
1194.143, 0.3465640
1194.625, 0.1334280
1195.108, 0.1257640
1195.590, 0.1945700
1196.072, 0.2967050
1196.554, 0.3587420
1197.036, 0.2762260
1197.518, 0.1263820
1198.000, 0.1938440
1198.482, 0.4396370
1198.964, 0.4782130
1199.447, 0.3258970
1199.929, 0.2750760
1200.411, 0.3813190
1200.893, 0.4759360
1201.375, 0.4605050
1201.857, 0.4072330
1202.339, 0.3916850
1202.821, 0.3946560
1203.304, 0.3726150
1203.786, 0.3531870
1204.268, 0.4147000
1204.750, 0.5159140
1205.232, 0.5413670
1205.714, 0.4694510
1206.196, 0.3534150
1206.678, 0.1791670
1207.161, 9.8898999E-02
1207.643, 0.3156400
1208.125, 0.5359290
1208.607, 0.5580770
1209.089, 0.4754290
1209.571, 0.3386420
1210.053, 0.2042500
1210.535, 0.1846480
1211.017, 0.3039520
1211.500, 0.3766800
1211.982, 0.3798100
1212.464, 0.3331090
1212.946, 7.4421003E-02
1213.428, 2.5830001E-02
1213.910, 0.3260220
1214.392, 0.7104490
1214.874, 0.6909620
1215.356, 0.4147690
1215.839, 0.3376440
1216.321, 0.4823610
1216.803, 0.6223310
1217.285, 0.7703840
1217.767, 0.8134010
1218.249, 0.7198180
1218.731, 0.6211450
1219.213, 0.5808290
1219.696, 0.5620350
1220.178, 0.5268520
1220.660, 0.4871130
1221.142, 0.4543400
1221.624, 0.4425530
1222.106, 0.5294090
1222.588, 0.6750760
1223.070, 0.7491980
1223.552, 0.7419160
1224.035, 0.7183540
1224.517, 0.7070120
1224.999, 0.7114210
1225.481, 0.7788460
1225.963, 0.8169600
1226.445, 0.6929810
1226.927, 0.5327010
1227.409, 0.4408940
1227.891, 0.4265780
1228.374, 0.5259180
1228.856, 0.7046840
1229.338, 0.7774710
1229.820, 0.6793120
1230.302, 0.5723490
1230.784, 0.4307100
1231.266, 0.3289730
1231.748, 0.3785510
1232.231, 0.4306480
1232.713, 0.3581500
1233.195, 0.2599520
1233.677, 0.2688880
1234.159, 0.3751950
1234.641, 0.3891360
1235.123, 0.2863760
1235.605, 0.2425760
1236.088, 0.2642310
1236.570, 0.2831290
1237.052, 0.2659620
1237.534, 0.2261890
1238.016, 0.1476930
1238.498, 0.1059140
1238.980, 0.2371060
1239.462, 0.4495290
1239.944, 0.5318390
1240.427, 0.5158730
1240.909, 0.4879850
1241.391, 0.4721560
1241.873, 0.4897570
1242.355, 0.5245730
1242.837, 0.4894140
1243.319, 0.3078270
1243.801, 0.1801510
1244.283, 0.3424080
1244.766, 0.5142630
1245.248, 0.4604820
1245.730, 0.3300670
1246.212, 0.2610790
1246.694, 0.2305880
1247.176, 0.1654200
1247.658, 8.2354002E-02
1248.140, 9.4104998E-02
1248.622, 0.3136940
1249.105, 0.4164130
1249.587, 0.2840390
1250.069, 0.1484900
1250.551, 0.1317370
1251.033, 0.1549980
1251.515, 0.2031250
1251.997, 0.2413790
1252.479, 0.2012370
1252.962, 0.1088230
1253.444, 0.1297130
1253.926, 0.2604220
1254.408, 0.3113930
1254.890, 0.2792050
1255.372, 0.2909850
1255.854, 0.3695230
1256.336, 0.3875450
1256.818, 0.2698110
1257.301, 0.1417620
1257.783, 0.1567210
1258.265, 0.2229190
1258.747, 0.2019180
1259.229, 0.1627620
1259.711, 0.2308690
1260.193, 0.3418800
1260.675, 0.3457830
1261.157, 0.2512900
1261.640, 0.2256230
1262.122, 0.3415130
1262.604, 0.4045860
1263.086, 0.3160200
1263.568, 0.2431100
1264.050, 0.2459630
1264.532, 0.2742190
1265.014, 0.3254000
1265.497, 0.3585300
1265.979, 0.3254340
1266.461, 0.2383280
1266.943, 0.1402240
1267.425, 8.5159997E-03
1267.907, 4.1696001E-02
1268.389, 0.2563830
1268.871, 0.2951940
1269.354, 9.5059000E-02
1269.836, 5.8157001E-02
1270.318, 2.9096000E-02
1270.800, 7.1419999E-02
1271.282, 0.1475280
1271.764, 0.1862330
1272.246, 0.1289630
1272.728, 4.6289001E-02
1273.210, 7.2633997E-02
1273.693, 0.1562960
1274.175, 0.1958620
1274.657, 0.1884060
1275.139, 0.1631330
1275.621, 0.1315210
1276.103, 0.1496310
1276.585, 0.2866670
1277.067, 0.3928770
1277.549, 0.4366160
1278.032, 0.4478660
1278.514, 0.3747660
1278.996, 0.3299760
1279.478, 0.2380980
1279.960, 0.1217870
1280.442, 4.9787000E-02
1280.924, 1.5892999E-02
1281.406, 7.4999998E-03
1281.889, 2.5478000E-02
1282.371, 7.8899004E-02
1282.853, 0.1806820
1283.335, 0.1946340
1283.817, 8.4169000E-02
1284.299, 3.8180000E-03
1284.781, 5.8779001E-02
1285.263, 0.1328070
1285.745, 0.1115800
1286.228, 0.0000000E+00
##END=



