##NAMES=Magnesiotaaffeite-2N2S
##RRUFFID=R070555
##IDEAL CHEMISTRY=Mg_3_BeAl_8_O_16_
##LOCALITY=Tunduru, Tanzania
##OWNER=RRUFF
##SOURCE=www.multicolour.com 
##DESCRIPTION=Slightly pink cut gemstone, 0.15 ct.
##STATUS=The identification of this mineral is confirmed by single-crystal X-ray diffraction and chemical analysis.
##URL=rruff.info/R070555
##MEASURED CHEMISTRY=(Mg_2.92_Fe_0.08_)_Î£=3_Be_1.00_Al_8.00_O_16_ ; BeO estimated by difference
147.5659, 0.0000000E+00
148.0480, 33.98975
148.5301, 92.98938
149.0122, 129.0024
149.4943, 129.8077
149.9765, 119.0668
150.4586, 140.8076
150.9407, 222.0519
151.4228, 289.3882
151.9049, 351.2628
152.3870, 389.1710
152.8692, 371.5566
153.3513, 290.1460
153.8334, 178.8556
154.3155, 99.61353
154.7976, 55.77869
155.2797, 64.27563
155.7619, 136.9336
156.2440, 230.5498
156.7261, 280.8180
157.2082, 262.1748
157.6903, 201.9905
158.1724, 171.8208
158.6546, 203.6854
159.1367, 225.4473
159.6188, 243.9712
160.1009, 254.1581
160.5830, 221.3793
161.0651, 142.0972
161.5473, 35.89258
162.0294, 29.42871
162.5115, 36.82446
162.9936, 20.53687
163.4757, 30.98730
163.9578, 100.7478
164.4400, 169.8821
164.9221, 229.2510
165.4042, 277.2358
165.8863, 305.6929
166.3684, 313.7311
166.8505, 303.4585
167.3327, 261.3185
167.8148, 202.8081
168.2969, 155.5919
168.7790, 164.3805
169.2611, 163.4105
169.7432, 154.7725
170.2254, 175.8859
170.7075, 177.4017
171.1896, 122.1416
171.6717, 41.02246
172.1538, 5.370850
172.6359, 23.34363
173.1181, 113.7156
173.6002, 155.5719
174.0823, 97.61401
174.5644, 55.08972
175.0465, 77.20691
175.5286, 138.9476
176.0108, 182.9773
176.4929, 170.5363
176.9750, 110.3391
177.4571, 91.43372
177.9392, 161.1752
178.4213, 213.8727
178.9035, 198.1895
179.3856, 137.6458
179.8677, 92.96912
180.3498, 101.0359
180.8319, 153.3484
181.3140, 177.5007
181.7962, 155.8204
182.2783, 131.9852
182.7604, 116.3932
183.2425, 110.2529
183.7246, 116.3405
184.2067, 125.3539
184.6889, 139.4448
185.1710, 178.3180
185.6531, 286.5865
186.1352, 372.2344
186.6173, 395.5405
187.0994, 361.3468
187.5816, 291.5009
188.0637, 192.0850
188.5458, 77.02747
189.0279, 6.313110
189.5100, 74.32019
189.9921, 108.6194
190.4743, 52.92859
190.9564, 66.37048
191.4385, 179.4060
191.9206, 239.6647
192.4027, 250.0751
192.8848, 257.9524
193.3670, 277.7842
193.8491, 281.7258
194.3312, 244.9122
194.8133, 181.4700
195.2954, 128.8008
195.7775, 109.6509
196.2597, 123.4446
196.7418, 129.9653
197.2239, 118.1362
197.7060, 109.0554
198.1881, 117.0865
198.6702, 129.6560
199.1524, 137.3320
199.6345, 131.3490
200.1166, 113.9370
200.5987, 118.7445
201.0808, 172.1846
201.5629, 207.7223
202.0451, 197.2853
202.5272, 154.8350
203.0093, 129.5167
203.4914, 155.8304
203.9735, 224.4066
204.4556, 248.9445
204.9378, 182.9009
205.4199, 133.2150
205.9020, 151.1447
206.3841, 210.2125
206.8662, 247.9077
207.3483, 222.9352
207.8305, 148.7297
208.3126, 121.8829
208.7947, 194.9125
209.2768, 249.3695
209.7589, 247.7072
210.2410, 205.6146
210.7232, 150.5992
211.2053, 94.91846
211.6874, 42.91895
212.1695, 18.79395
212.6516, 17.01257
213.1337, 45.60242
213.6159, 147.2283
214.0980, 274.9945
214.5801, 349.5492
215.0622, 326.0073
215.5443, 228.8260
216.0264, 160.5649
216.5086, 117.9889
216.9907, 106.9448
217.4728, 170.5984
217.9549, 257.0979
218.4370, 283.9386
218.9191, 208.4827
219.4013, 69.66650
219.8834, 6.437378
220.3655, 34.14404
220.8476, 82.59277
221.3297, 142.2445
221.8118, 200.6151
222.2940, 250.4067
222.7761, 288.5786
223.2582, 305.5990
223.7403, 275.2833
224.2224, 104.8772
224.7046, 3.767822
225.1867, 13.18152
225.6688, 78.12830
226.1509, 156.3464
226.6330, 230.0657
227.1151, 286.2697
227.5973, 296.9462
228.0794, 236.6534
228.5615, 163.8586
229.0436, 41.16589
229.5257, 71.47333
230.0078, 113.7143
230.4900, 68.44104
230.9721, 18.51025
231.4542, 70.33508
231.9363, 58.89246
232.4184, 64.10681
232.9005, 91.57568
233.3827, 130.2812
233.8648, 183.4188
234.3469, 247.1155
234.8290, 298.9540
235.3111, 299.4987
235.7932, 210.9532
236.2754, 165.7318
236.7575, 191.0383
237.2396, 232.3315
237.7217, 263.9547
238.2038, 280.0199
238.6859, 284.1653
239.1681, 279.7369
239.6502, 265.9802
240.1323, 246.1416
240.6144, 219.3502
241.0965, 187.2335
241.5786, 130.5876
242.0608, 61.68994
242.5429, 25.65845
243.0250, 92.14941
243.5071, 278.2426
243.9892, 359.1747
244.4713, 208.9325
244.9535, 66.59802
245.4356, 34.32263
245.9177, 89.68774
246.3998, 151.3552
246.8819, 156.5979
247.3640, 106.5602
247.8462, 59.54932
248.3283, 5.294800
248.8104, 15.76575
249.2925, 27.97839
249.7746, 108.2761
250.2567, 168.2959
250.7389, 165.2842
251.2210, 118.5729
251.7031, 103.8929
252.1852, 149.7642
252.6673, 173.9418
253.1494, 100.1366
253.6316, 8.447998
254.1137, 46.94202
254.5958, 68.50439
255.0779, 244.2112
255.5600, 279.2450
256.0421, 120.8779
256.5243, 5.715088
257.0064, 41.60620
257.4885, 167.6436
257.9706, 273.0206
258.4527, 339.1931
258.9348, 363.6875
259.4170, 324.1393
259.8991, 213.5750
260.3812, 127.0543
260.8633, 116.0839
261.3454, 144.8477
261.8275, 168.5818
262.3097, 185.5773
262.7918, 190.4230
263.2739, 164.8088
263.7560, 115.4363
264.2381, 93.67761
264.7202, 125.9080
265.2024, 186.6656
265.6845, 241.4985
266.1666, 296.5081
266.6487, 324.5935
267.1308, 269.1061
267.6129, 175.6042
268.0951, 175.8860
268.5772, 331.0488
269.0593, 530.4128
269.5414, 595.2170
270.0235, 517.4795
270.5056, 470.9894
270.9878, 527.9434
271.4699, 628.3585
271.9520, 694.2155
272.4341, 708.9827
272.9162, 708.9242
273.3983, 741.3083
273.8805, 817.6014
274.3626, 866.6024
274.8447, 869.7040
275.3268, 850.2052
275.8089, 810.8444
276.2910, 757.9801
276.7732, 726.8142
277.2553, 749.3895
277.7374, 828.5168
278.2195, 914.6770
278.7016, 1033.854
279.1837, 1138.949
279.6659, 1214.166
280.1480, 1256.635
280.6301, 1262.321
281.1122, 1225.723
281.5943, 1150.449
282.0764, 1075.999
282.5586, 974.8424
283.0407, 903.6646
283.5228, 901.3831
284.0049, 931.9807
284.4870, 945.7719
284.9691, 918.5986
285.4513, 853.6223
285.9334, 757.6930
286.4155, 570.1295
286.8976, 438.9641
287.3797, 390.6219
287.8618, 389.4147
288.3440, 416.6202
288.8261, 464.2899
289.3082, 508.6860
289.7903, 507.3837
290.2724, 426.4371
290.7545, 390.5988
291.2367, 455.9559
291.7188, 531.1326
292.2009, 554.5364
292.6830, 521.6940
293.1651, 478.6958
293.6472, 468.0908
294.1294, 490.9103
294.6115, 536.1392
295.0936, 624.2197
295.5757, 714.9021
296.0578, 798.3925
296.5399, 869.5439
297.0221, 914.6244
297.5042, 919.6201
297.9863, 890.3741
298.4684, 850.5286
298.9505, 798.9379
299.4326, 737.6404
299.9148, 648.8387
300.3969, 551.9800
300.8790, 490.4722
301.3611, 492.0817
301.8432, 526.5345
302.3253, 552.3146
302.8075, 567.7891
303.2896, 588.5913
303.7717, 636.9325
304.2538, 691.5226
304.7359, 708.5895
305.2180, 658.1936
305.7002, 609.0975
306.1823, 611.0248
306.6644, 652.9773
307.1465, 704.2452
307.6286, 760.8322
308.1107, 802.4803
308.5929, 777.9652
309.0750, 661.6011
309.5571, 565.1021
310.0392, 545.8787
310.5213, 554.8163
311.0034, 506.3130
311.4856, 375.8810
311.9677, 244.6805
312.4498, 233.2983
312.9319, 400.8838
313.4140, 493.8892
313.8961, 457.2145
314.3783, 387.3029
314.8604, 354.9731
315.3425, 361.7806
315.8246, 372.9089
316.3067, 356.7878
316.7888, 311.1677
317.2710, 286.6394
317.7531, 322.9316
318.2352, 337.0797
318.7173, 272.7079
319.1994, 171.3671
319.6815, 110.5433
320.1637, 139.6490
320.6458, 232.0200
321.1279, 285.3336
321.6100, 264.4520
322.0921, 259.5785
322.5742, 307.0447
323.0564, 364.8680
323.5385, 388.0487
324.0206, 361.6766
324.5027, 317.8904
324.9848, 315.3389
325.4669, 372.6923
325.9491, 370.7676
326.4312, 217.5734
326.9133, 53.77405
327.3954, 36.23645
327.8775, 48.44519
328.3596, 23.93689
328.8418, 35.12708
329.3239, 112.6958
329.8060, 131.4099
330.2881, 65.70947
330.7702, 22.62219
331.2523, 99.65356
331.7345, 163.5177
332.2166, 204.3010
332.6987, 212.6637
333.1808, 199.7225
333.6629, 176.2944
334.1451, 142.7534
334.6272, 99.51880
335.1093, 40.50720
335.5914, 26.32263
336.0735, 73.26184
336.5556, 85.96973
337.0378, 96.18201
337.5199, 119.3972
338.0020, 150.2781
338.4841, 181.7687
338.9662, 213.5363
339.4483, 233.8949
339.9305, 215.5054
340.4126, 98.18286
340.8947, 49.22437
341.3768, 156.3062
341.8589, 284.3324
342.3410, 292.8187
342.8232, 171.7279
343.3053, 38.66492
343.7874, 28.28992
344.2695, 170.7172
344.7516, 263.0394
345.2337, 267.5762
345.7159, 262.0183
346.1980, 268.2163
346.6801, 287.2009
347.1622, 315.0000
347.6443, 350.2732
348.1265, 391.1079
348.6086, 431.7396
349.0907, 484.9077
349.5728, 512.7034
350.0549, 496.9208
350.5370, 457.8682
351.0192, 412.4944
351.5013, 364.7919
351.9834, 320.9048
352.4655, 296.3551
352.9476, 291.9353
353.4297, 261.6566
353.9119, 167.0558
354.3940, 73.02454
354.8761, 53.70837
355.3582, 108.5414
355.8403, 146.1444
356.3224, 101.1362
356.8046, 16.23450
357.2867, 32.71826
357.7688, 34.98889
358.2509, 14.49878
358.7330, 16.78113
359.2151, 57.16687
359.6973, 87.25793
360.1794, 104.0393
360.6615, 112.2886
361.1436, 114.3436
361.6257, 110.2017
362.1078, 94.68518
362.5900, 61.01025
363.0721, 22.93103
363.5542, 25.23547
364.0363, 100.2159
364.5184, 175.4563
365.0005, 262.7631
365.4827, 340.4154
365.9648, 374.9943
366.4469, 363.9780
366.9290, 349.2399
367.4111, 393.1095
367.8932, 523.7334
368.3754, 599.3121
368.8575, 570.3281
369.3396, 531.2250
369.8217, 504.0106
370.3038, 496.8284
370.7859, 522.1311
371.2681, 600.7605
371.7502, 711.4685
372.2323, 783.3110
372.7144, 811.0735
373.1965, 812.2102
373.6786, 765.1963
374.1608, 706.8982
374.6429, 680.0840
375.1250, 699.4297
375.6071, 734.2766
376.0892, 764.9639
376.5714, 790.2136
377.0535, 802.2769
377.5356, 797.4060
378.0177, 781.5297
378.4998, 760.6086
378.9819, 734.9796
379.4641, 706.2700
379.9462, 677.7922
380.4283, 644.6577
380.9104, 599.1724
381.3925, 541.9485
381.8746, 480.9939
382.3568, 419.4594
382.8389, 358.1281
383.3210, 322.4053
383.8031, 327.0239
384.2852, 335.7467
384.7673, 335.9000
385.2495, 331.0026
385.7316, 344.4744
386.2137, 386.6011
386.6958, 429.4724
387.1779, 401.9861
387.6600, 247.0480
388.1422, 159.1244
388.6243, 196.5321
389.1064, 253.2805
389.5885, 256.4080
390.0706, 215.0951
390.5527, 95.20874
391.0349, 279.9601
391.5170, 402.6726
391.9991, 467.4200
392.4812, 294.6232
392.9633, 435.9274
393.4454, 456.2755
393.9276, 471.6187
394.4097, 660.1333
394.8918, 529.6019
395.3739, 715.4292
395.8560, 775.0104
396.3381, 892.4166
396.8203, 823.3010
397.3024, 888.5447
397.7845, 984.3662
398.2666, 1102.500
398.7487, 1252.899
399.2308, 1385.254
399.7130, 1470.184
400.1951, 1547.670
400.6772, 1656.742
401.1593, 1798.479
401.6414, 1944.593
402.1235, 2067.432
402.6057, 2168.264
403.0878, 2314.379
403.5699, 2582.110
404.0520, 2808.384
404.5341, 2937.505
405.0162, 3013.766
405.4984, 3096.061
405.9805, 3204.387
406.4626, 3323.204
406.9447, 3424.784
407.4268, 3501.643
407.9089, 3597.824
408.3911, 3690.142
408.8732, 3835.632
409.3553, 4061.589
409.8374, 4364.888
410.3195, 4735.699
410.8016, 5186.162
411.2838, 5694.741
411.7659, 6230.229
412.2480, 6794.403
412.7301, 7365.166
413.2122, 7942.735
413.6943, 8512.441
414.1765, 9052.047
414.6586, 9667.883
415.1407, 10106.80
415.6228, 10227.44
416.1049, 10105.40
416.5870, 9857.903
417.0692, 9518.791
417.5513, 9071.225
418.0334, 8473.718
418.5155, 7658.315
418.9976, 6915.761
419.4797, 6266.087
419.9619, 5656.005
420.4440, 5030.460
420.9261, 4421.237
421.4082, 3909.553
421.8903, 3553.378
422.3724, 3319.926
422.8546, 3104.741
423.3367, 2910.243
423.8188, 2729.110
424.3009, 2561.574
424.7830, 2405.111
425.2651, 2250.343
425.7473, 2095.438
426.2294, 1970.193
426.7115, 1895.119
427.1936, 1868.093
427.6757, 1895.784
428.1578, 1994.605
428.6400, 2089.346
429.1221, 2095.532
429.6042, 2034.317
430.0863, 2049.257
430.5684, 2207.464
431.0505, 2388.757
431.5327, 2515.613
432.0148, 2614.042
432.4969, 2754.064
432.9790, 2966.285
433.4611, 3211.329
433.9432, 3410.498
434.4254, 3553.656
434.9075, 3665.280
435.3896, 3768.124
435.8717, 3825.437
436.3538, 3802.272
436.8359, 3708.658
437.3181, 3586.163
437.8002, 3465.834
438.2823, 3341.540
438.7644, 3174.447
439.2465, 2939.808
439.7286, 2721.588
440.2108, 2546.637
440.6929, 2406.193
441.1750, 2300.255
441.6571, 2234.219
442.1392, 2177.320
442.6213, 2105.397
443.1035, 2025.891
443.5856, 1952.979
444.0677, 1885.601
444.5498, 1843.500
445.0319, 1843.396
445.5140, 1889.161
445.9962, 1973.332
446.4783, 2141.945
446.9604, 2302.556
447.4425, 2418.224
447.9246, 2492.593
448.4067, 2534.155
448.8889, 2545.993
449.3710, 2538.215
449.8531, 2535.862
450.3352, 2564.916
450.8173, 2537.693
451.2994, 2424.432
451.7816, 2281.094
452.2637, 2133.385
452.7458, 1982.056
453.2279, 1816.159
453.7100, 1622.139
454.1921, 1411.885
454.6743, 1205.559
455.1564, 998.4535
455.6385, 825.4949
456.1206, 711.3364
456.6027, 637.7173
457.0848, 568.6997
457.5670, 504.9316
458.0491, 443.2622
458.5312, 378.8094
459.0133, 317.1671
459.4954, 270.2650
459.9775, 238.4888
460.4597, 207.2443
460.9418, 165.3881
461.4239, 116.2833
461.9060, 63.84119
462.3881, 33.51404
462.8702, 91.94666
463.3524, 62.44873
463.8345, 4.038452
464.3166, 48.26782
464.7987, 48.29639
465.2808, 18.64880
465.7629, 31.72888
466.2451, 107.7664
466.7272, 123.4669
467.2093, 31.49768
467.6914, 70.26416
468.1735, 129.3593
468.6556, 155.6212
469.1378, 151.6510
469.6199, 95.87683
470.1020, 32.05872
470.5841, 2.128540
471.0662, 11.07178
471.5483, 0.5863040
472.0305, 35.63525
472.5126, 74.68335
472.9947, 74.95898
473.4768, 7.489502
473.9589, 24.55151
474.4410, 9.240967
474.9232, 31.03186
475.4053, 98.06287
475.8874, 177.8536
476.3695, 240.4409
476.8516, 268.5946
477.3337, 270.3789
477.8159, 267.4565
478.2980, 250.7064
478.7801, 255.7268
479.2622, 297.7284
479.7443, 356.1208
480.2264, 420.0933
480.7086, 491.0635
481.1907, 570.9523
481.6728, 650.9999
482.1549, 736.6312
482.6370, 868.7522
483.1191, 1053.790
483.6013, 1195.199
484.0834, 1219.538
484.5655, 1160.178
485.0476, 1156.208
485.5297, 1240.244
486.0118, 1325.384
486.4940, 1387.828
486.9761, 1448.217
487.4582, 1528.195
487.9403, 1630.476
488.4224, 1746.189
488.9045, 1874.358
489.3867, 2012.986
489.8688, 2095.079
490.3509, 2082.556
490.8330, 2071.258
491.3151, 2116.763
491.7972, 2169.365
492.2794, 2162.557
492.7615, 2073.019
493.2436, 1972.426
493.7257, 1949.584
494.2078, 1963.120
494.6899, 1875.441
495.1721, 1654.440
495.6542, 1401.652
496.1363, 1186.403
496.6184, 1012.716
497.1005, 890.6777
497.5826, 852.6071
498.0648, 825.5151
498.5469, 777.3177
499.0290, 728.0479
499.5111, 713.1611
499.9932, 741.0552
500.4753, 779.3860
500.9575, 789.2021
501.4396, 769.2336
501.9217, 722.7539
502.4038, 606.1190
502.8859, 520.8464
503.3680, 533.2209
503.8502, 597.5234
504.3323, 629.5914
504.8144, 587.4795
505.2965, 542.1744
505.7786, 566.6904
506.2607, 643.0154
506.7429, 712.0432
507.2250, 761.6652
507.7071, 790.1302
508.1892, 799.9114
508.6713, 793.9177
509.1534, 747.8795
509.6356, 593.8704
510.1177, 460.0059
510.5998, 420.2035
511.0819, 430.7693
511.5641, 420.9622
512.0461, 363.7778
512.5283, 286.9838
513.0104, 232.9015
513.4925, 204.9816
513.9746, 168.1912
514.4567, 105.0291
514.9388, 53.56348
515.4210, 36.91504
515.9031, 47.04846
516.3852, 69.29822
516.8673, 123.5735
517.3494, 156.9083
517.8315, 106.0825
518.3137, 0.9317630
518.7958, 81.09283
519.2779, 118.2177
519.7600, 124.0052
520.2421, 112.2883
520.7242, 80.24841
521.2064, 52.78900
521.6885, 46.78058
522.1706, 26.31787
522.6527, 32.51953
523.1348, 109.6898
523.6169, 190.2509
524.0991, 268.1116
524.5812, 307.7397
525.0633, 231.0017
525.5454, 39.09406
526.0275, 70.74554
526.5096, 50.37695
526.9918, 2.920471
527.4739, 10.32434
527.9560, 9.183716
528.4381, 2.145996
528.9202, 109.8438
529.4023, 189.6320
529.8845, 142.2444
530.3666, 30.60986
530.8487, 33.45551
531.3308, 20.20703
531.8129, 20.69592
532.2950, 30.55975
532.7772, 3.153198
533.2593, 2.390076
533.7414, 66.35150
534.2235, 112.3380
534.7056, 113.4129
535.1877, 86.06818
535.6699, 45.19263
536.1520, 7.842346
536.6341, 45.65930
537.1162, 25.75238
537.5983, 31.06671
538.0804, 43.98169
538.5626, 5.722534
539.0447, 38.65997
539.5268, 20.32385
540.0089, 153.2300
540.4910, 215.2858
540.9731, 145.0802
541.4553, 89.72217
541.9374, 65.45300
542.4195, 82.64777
542.9016, 179.0235
543.3837, 344.6464
543.8658, 495.2517
544.3480, 548.5172
544.8301, 513.9368
545.3122, 461.6628
545.7943, 374.7296
546.2764, 311.5236
546.7585, 319.4456
547.2407, 350.6666
547.7228, 344.8776
548.2049, 288.0314
548.6870, 250.0551
549.1691, 285.4226
549.6512, 344.3248
550.1334, 370.7059
550.6155, 359.8439
551.0976, 315.2723
551.5797, 230.5297
552.0618, 130.6286
552.5439, 107.4482
553.0261, 232.7401
553.5082, 311.5668
553.9903, 299.3680
554.4724, 270.0018
554.9545, 277.2141
555.4366, 313.8481
555.9188, 333.0887
556.4009, 302.1168
556.8830, 243.1464
557.3651, 181.4426
557.8472, 118.5384
558.3293, 80.93323
558.8115, 79.59314
559.2936, 103.2791
559.7757, 141.2778
560.2578, 201.7523
560.7399, 241.7094
561.2220, 256.3079
561.7042, 254.8042
562.1863, 237.5760
562.6684, 208.6569
563.1505, 169.0482
563.6326, 118.9705
564.1147, 74.75500
564.5969, 71.22937
565.0790, 110.5619
565.5611, 106.4431
566.0432, 14.54529
566.5253, 54.81396
567.0074, 8.277100
567.4896, 147.4605
567.9717, 235.4464
568.4538, 239.4656
568.9359, 214.0149
569.4180, 165.2874
569.9001, 110.9182
570.3823, 74.62372
570.8644, 60.68628
571.3465, 60.04211
571.8286, 65.35999
572.3107, 76.41351
572.7928, 91.08875
573.2750, 113.7559
573.7571, 132.4184
574.2392, 136.2036
574.7213, 140.2748
575.2034, 165.2472
575.6855, 211.5668
576.1677, 239.6241
576.6498, 199.0688
577.1319, 142.5650
577.6140, 161.4519
578.0961, 243.1320
578.5782, 271.6359
579.0604, 179.6471
579.5425, 39.53107
580.0246, 4.870667
580.5067, 138.4130
580.9888, 240.7017
581.4709, 334.5015
581.9531, 378.4730
582.4352, 315.7670
582.9173, 194.1698
583.3994, 104.0131
583.8815, 79.10809
584.3636, 99.41400
584.8458, 158.8345
585.3279, 240.6543
585.8100, 268.2842
586.2921, 222.4988
586.7742, 160.2360
587.2563, 116.2244
587.7385, 92.38904
588.2206, 108.7462
588.7027, 212.3555
589.1848, 292.6955
589.6669, 317.8607
590.1490, 307.6999
590.6312, 282.4427
591.1133, 255.3246
591.5954, 236.7382
592.0775, 232.7301
592.5597, 242.5049
593.0418, 262.6371
593.5239, 294.8317
594.0060, 323.3793
594.4882, 353.2454
594.9703, 363.7554
595.4524, 307.2463
595.9345, 167.1916
596.4166, 92.54272
596.8987, 148.8948
597.3809, 241.8173
597.8630, 332.0059
598.3451, 402.6224
598.8272, 433.5258
599.3093, 416.0698
599.7914, 360.7885
600.2736, 259.1659
600.7557, 104.6271
601.2378, 47.64783
601.7199, 131.2335
602.2020, 245.3622
602.6841, 349.7511
603.1663, 435.7843
603.6484, 481.5988
604.1305, 463.2279
604.6126, 451.1948
605.0947, 491.2583
605.5768, 541.2390
606.0590, 551.2277
606.5411, 521.1006
607.0232, 480.6339
607.5053, 447.8457
607.9874, 426.3242
608.4695, 428.3656
608.9517, 457.9189
609.4338, 498.4313
609.9159, 549.9237
610.3980, 609.5188
610.8801, 685.5546
611.3622, 770.4404
611.8444, 830.4952
612.3265, 823.3359
612.8086, 821.1525
613.2907, 893.5764
613.7728, 999.5017
614.2549, 1057.609
614.7371, 1049.675
615.2192, 1022.427
615.7013, 1026.346
616.1834, 1058.698
616.6655, 1058.409
617.1476, 1012.587
617.6298, 958.1678
618.1119, 897.8263
618.5940, 837.5924
619.0761, 781.9231
619.5582, 731.1068
620.0403, 687.5785
620.5225, 658.7201
621.0046, 632.3993
621.4867, 606.2559
621.9688, 572.2135
622.4509, 492.8168
622.9330, 350.7502
623.4152, 214.2511
623.8973, 199.5028
624.3794, 336.9539
624.8615, 420.0356
625.3436, 409.3450
625.8257, 388.6982
626.3079, 391.6178
626.7900, 403.4211
627.2721, 400.6233
627.7542, 375.2421
628.2363, 356.2222
628.7184, 380.5977
629.2006, 409.3422
629.6827, 372.4812
630.1648, 279.3386
630.6469, 205.1244
631.1290, 191.4857
631.6111, 224.4850
632.0933, 277.8977
632.5754, 371.3666
633.0575, 426.0391
633.5396, 414.1965
634.0217, 390.9541
634.5038, 378.3567
634.9860, 373.4003
635.4681, 370.6567
635.9502, 374.9603
636.4323, 365.8092
636.9144, 314.8545
637.3965, 247.1833
637.8787, 200.8683
638.3608, 182.8571
638.8429, 185.1764
639.3250, 207.8752
639.8071, 237.9210
640.2892, 219.0024
640.7714, 108.7769
641.2535, 55.03040
641.7356, 143.7004
642.2177, 229.9845
642.6998, 215.9672
643.1819, 127.7206
643.6641, 57.54504
644.1462, 34.86206
644.6283, 35.47205
645.1104, 70.51794
645.5925, 108.3572
646.0746, 69.11902
646.5568, 49.43628
647.0389, 133.7415
647.5210, 74.72229
648.0031, 90.74988
648.4852, 151.4551
648.9673, 62.61560
649.4495, 16.56628
649.9316, 53.67920
650.4137, 70.92627
650.8958, 90.05701
651.3779, 106.8529
651.8600, 94.15955
652.3422, 21.43164
652.8243, 59.94128
653.3064, 121.7626
653.7885, 168.9701
654.2706, 213.1826
654.7527, 255.5040
655.2349, 279.7134
655.7170, 263.2646
656.1991, 217.3182
656.6812, 218.8495
657.1633, 289.2050
657.6454, 341.4399
658.1276, 346.8197
658.6097, 330.2462
659.0918, 298.3362
659.5739, 255.2612
660.0560, 270.1443
660.5381, 410.5145
661.0203, 556.2739
661.5024, 658.9835
661.9845, 716.9727
662.4666, 714.7455
662.9487, 657.2601
663.4308, 599.0474
663.9130, 607.9307
664.3951, 658.5040
664.8772, 601.9363
665.3593, 406.4629
665.8414, 276.0958
666.3235, 295.0946
666.8057, 381.8696
667.2878, 445.4895
667.7699, 486.4368
668.2520, 512.2856
668.7341, 522.9075
669.2162, 519.3799
669.6984, 493.0876
670.1805, 457.1239
670.6626, 429.0138
671.1447, 412.0605
671.6268, 395.0732
672.1089, 367.9957
672.5911, 333.2904
673.0732, 297.6486
673.5553, 261.0652
674.0374, 225.1273
674.5195, 188.8551
675.0016, 157.0635
675.4838, 139.0143
675.9659, 139.1937
676.4480, 120.6200
676.9301, 41.54993
677.4122, 4.830200
677.8943, 38.40259
678.3765, 111.7059
678.8586, 154.3186
679.3407, 154.5813
679.8228, 129.3423
680.3049, 71.11487
680.7870, 5.380737
681.2692, 23.97180
681.7513, 21.56775
682.2334, 15.73230
682.7155, 16.41089
683.1976, 11.27258
683.6797, 19.95032
684.1619, 81.31177
684.6440, 100.9469
685.1261, 27.51074
685.6082, 14.88416
686.0903, 35.01453
686.5724, 102.8289
687.0546, 116.3817
687.5367, 72.13110
688.0188, 25.11389
688.5009, 5.342651
688.9830, 23.29871
689.4651, 40.02808
689.9473, 45.89966
690.4294, 14.58691
690.9115, 59.75293
691.3936, 155.6511
691.8757, 260.0441
692.3578, 366.2991
692.8400, 406.5468
693.3221, 350.0186
693.8042, 320.6096
694.2863, 376.5818
694.7684, 450.7021
695.2505, 463.1624
695.7327, 419.5432
696.2148, 407.7231
696.6969, 458.5101
697.1790, 525.1615
697.6611, 594.2531
698.1432, 662.5148
698.6254, 725.7488
699.1075, 784.1870
699.5896, 841.8795
700.0717, 901.0471
700.5538, 962.8599
701.0359, 1031.386
701.5181, 1106.100
702.0002, 1184.803
702.4823, 1272.708
702.9644, 1345.175
703.4465, 1377.186
703.9286, 1369.821
704.4108, 1351.447
704.8929, 1272.706
705.3750, 1252.548
705.8571, 1367.548
706.3392, 1494.302
706.8214, 1542.389
707.3035, 1511.894
707.7856, 1447.078
708.2677, 1350.886
708.7498, 1260.561
709.2319, 1206.641
709.7141, 1190.764
710.1962, 1229.323
710.6783, 1316.796
711.1604, 1403.183
711.6425, 1452.818
712.1246, 1468.943
712.6068, 1458.696
713.0889, 1410.068
713.5710, 1373.401
714.0531, 1362.842
714.5352, 1355.919
715.0173, 1341.187
715.4995, 1318.590
715.9816, 1289.101
716.4637, 1267.042
716.9458, 1212.455
717.4279, 1087.820
717.9100, 941.1162
718.3922, 803.8291
718.8743, 686.7029
719.3564, 604.5496
719.8385, 567.9032
720.3206, 552.2795
720.8027, 527.5067
721.2849, 493.0156
721.7670, 438.6664
722.2491, 359.9850
722.7312, 287.0713
723.2133, 229.9404
723.6954, 199.1044
724.1776, 226.7900
724.6597, 372.1266
725.1418, 443.2434
725.6239, 380.0784
726.1060, 307.9357
726.5881, 284.1691
727.0703, 281.7839
727.5524, 249.1421
728.0345, 170.5520
728.5166, 118.5699
728.9987, 162.4116
729.4808, 242.7992
729.9630, 290.8186
730.4451, 307.9431
730.9272, 317.4774
731.4093, 330.5562
731.8914, 338.1656
732.3735, 322.8708
732.8557, 286.7538
733.3378, 280.9895
733.8199, 311.9785
734.3020, 353.4041
734.7841, 408.8264
735.2662, 458.6395
735.7484, 471.6344
736.2305, 446.5764
736.7126, 434.9382
737.1947, 452.0461
737.6768, 468.0560
738.1589, 468.0582
738.6411, 464.6949
739.1232, 469.3135
739.6053, 484.8817
740.0874, 508.6799
740.5695, 539.2766
741.0516, 576.3595
741.5338, 629.4983
742.0159, 688.8163
742.4980, 714.1761
742.9801, 698.6270
743.4622, 691.8827
743.9443, 739.3871
744.4265, 824.5568
744.9086, 871.9104
745.3907, 860.9094
745.8728, 875.1913
746.3549, 937.6300
746.8370, 1009.839
747.3192, 1071.082
747.8013, 1123.165
748.2834, 1170.213
748.7655, 1214.888
749.2476, 1246.819
749.7297, 1244.899
750.2119, 1244.470
750.6940, 1266.358
751.1761, 1314.270
751.6582, 1395.251
752.1403, 1513.263
752.6224, 1639.116
753.1046, 1749.497
753.5867, 1841.190
754.0688, 1896.475
754.5509, 1917.101
755.0330, 1944.763
755.5151, 1999.447
755.9973, 2060.682
756.4794, 2091.100
756.9615, 2081.166
757.4436, 2122.106
757.9257, 2240.447
758.4078, 2366.453
758.8900, 2491.579
759.3721, 2607.768
759.8542, 2707.966
760.3363, 2792.308
760.8184, 2862.492
761.3005, 2931.237
761.7827, 2972.494
762.2648, 2987.482
762.7469, 2959.468
763.2290, 2850.953
763.7111, 2671.244
764.1932, 2483.807
764.6754, 2328.435
765.1575, 2194.544
765.6396, 2066.953
766.1217, 1946.354
766.6038, 1838.713
767.0859, 1745.983
767.5681, 1632.080
768.0502, 1461.563
768.5323, 1266.284
769.0144, 1148.747
769.4965, 1150.240
769.9786, 1117.120
770.4608, 1022.690
770.9429, 919.1554
771.4250, 814.6899
771.9071, 723.8734
772.3892, 678.0930
772.8713, 696.2523
773.3535, 692.6671
773.8356, 632.7419
774.3177, 555.2615
774.7998, 478.9987
775.2819, 412.5309
775.7640, 368.8402
776.2462, 349.7084
776.7283, 337.0902
777.2104, 325.6034
777.6925, 305.1870
778.1746, 240.3921
778.6567, 144.8353
779.1389, 88.11688
779.6210, 90.67932
780.1031, 116.9697
780.5852, 138.6201
781.0673, 150.9416
781.5494, 115.2260
782.0316, 4.134094
782.5137, 70.84668
782.9958, 81.13788
783.4779, 64.87628
783.9600, 37.68469
784.4421, 5.332153
784.9243, 12.77954
785.4064, 13.04315
785.8885, 1.181030
786.3706, 42.95508
786.8527, 78.39050
787.3348, 78.63177
787.8170, 47.09406
788.2991, 12.27240
788.7812, 99.70044
789.2633, 162.3138
789.7454, 141.3651
790.2275, 81.43610
790.7097, 43.41412
791.1918, 26.36804
791.6739, 10.26276
792.1560, 10.45966
792.6381, 12.30029
793.1202, 32.82458
793.6024, 109.8102
794.0845, 147.6428
794.5666, 144.3259
795.0487, 132.8306
795.5308, 112.3182
796.0129, 111.5148
796.4951, 162.9421
796.9772, 249.3030
797.4593, 288.4344
797.9414, 228.4277
798.4235, 203.4419
798.9056, 272.9669
799.3878, 330.1226
799.8699, 278.1667
800.3520, 169.0056
800.8341, 130.3324
801.3162, 217.8190
801.7983, 296.7245
802.2805, 280.6483
802.7626, 238.6776
803.2447, 216.6635
803.7268, 223.7856
804.2089, 298.8069
804.6910, 450.1611
805.1732, 611.2136
805.6553, 720.1253
806.1374, 783.5134
806.6195, 799.1419
807.1016, 772.8517
807.5837, 800.1260
808.0659, 916.1703
808.5480, 1029.100
809.0301, 1025.955
809.5122, 930.8679
809.9943, 933.1183
810.4764, 1082.431
810.9586, 1186.636
811.4407, 1201.499
811.9228, 1185.523
812.4049, 1166.164
812.8870, 1147.206
813.3691, 1140.332
813.8513, 1153.981
814.3334, 1162.455
814.8155, 1169.235
815.2976, 1161.949
815.7797, 1121.885
816.2618, 1067.756
816.7440, 1034.742
817.2261, 1030.662
817.7082, 1011.211
818.1903, 929.0051
818.6724, 834.1580
819.1545, 786.4776
819.6367, 765.0654
820.1188, 716.6398
820.6009, 633.5830
821.0830, 559.4275
821.5651, 532.0494
822.0472, 534.3209
822.5294, 534.6513
823.0115, 531.0458
823.4936, 489.0864
823.9757, 398.0818
824.4578, 317.0307
824.9399, 283.5558
825.4221, 287.7712
825.9042, 311.8661
826.3863, 379.7422
826.8684, 385.7565
827.3505, 278.5977
827.8326, 190.3966
828.3148, 193.9005
828.7969, 234.3751
829.2790, 245.6564
829.7611, 226.5390
830.2432, 184.2134
830.7253, 65.33484
831.2075, 9.859253
831.6896, 38.29260
832.1717, 123.6776
832.6538, 160.5056
833.1359, 149.6393
833.6180, 144.2709
834.1002, 165.3087
834.5823, 204.8885
835.0644, 291.1546
835.5465, 372.1776
836.0286, 359.3203
836.5107, 268.1024
836.9929, 174.8210
837.4750, 114.4073
837.9571, 81.07391
838.4392, 76.55188
838.9213, 93.20514
839.4034, 105.2507
839.8856, 111.6088
840.3677, 93.90247
840.8498, 46.65381
841.3319, 0.9624020
841.8140, 20.93573
842.2961, 13.35510
842.7783, 29.81470
843.2604, 136.3134
843.7425, 184.5341
844.2246, 124.8538
844.7067, 45.57025
845.1888, 2.154907
845.6710, 16.17780
846.1531, 8.605042
846.6352, 99.16125
847.1173, 165.0102
847.5994, 214.4153
848.0815, 227.5921
848.5637, 174.5302
849.0458, 90.72723
849.5279, 11.21149
850.0100, 57.69006
850.4921, 85.65759
850.9742, 29.93842
851.4564, 38.20245
851.9385, 99.95355
852.4206, 132.3052
852.9027, 72.11243
853.3848, 54.27197
853.8669, 118.7639
854.3491, 35.60492
854.8312, 92.86401
855.3133, 155.4849
855.7954, 170.3196
856.2775, 168.0189
856.7596, 154.8956
857.2418, 140.7153
857.7239, 129.8162
858.2060, 127.1003
858.6881, 151.5044
859.1702, 192.3766
859.6523, 150.9108
860.1345, 17.19769
860.6166, 39.48163
861.0987, 41.18719
861.5808, 153.3530
862.0629, 206.7957
862.5450, 205.7994
863.0272, 167.5956
863.5093, 60.81781
863.9914, 9.4481997E-02
864.4735, 26.22729
864.9556, 51.62610
865.4377, 4.080688
865.9199, 78.46063
866.4020, 32.19293
866.8841, 189.8583
867.3662, 296.6976
867.8483, 132.3014
868.3304, 9.742676
868.8126, 97.91553
869.2947, 242.3826
869.7768, 279.8317
870.2589, 209.6223
870.7410, 134.7851
871.2231, 77.79694
871.7053, 47.23468
872.1874, 60.01331
872.6695, 92.21863
873.1516, 119.9323
873.6337, 144.9782
874.1158, 187.2925
874.5980, 255.2549
875.0801, 304.0162
875.5622, 277.3894
876.0443, 216.2211
876.5264, 179.6487
877.0085, 163.8530
877.4907, 149.5190
877.9728, 132.6025
878.4549, 127.7150
878.9370, 151.2966
879.4191, 186.3551
879.9012, 189.6206
880.3834, 164.7127
880.8655, 141.7222
881.3476, 123.8165
881.8297, 123.4399
882.3118, 149.4423
882.7939, 189.7585
883.2761, 224.5564
883.7582, 254.2618
884.2403, 272.9086
884.7224, 280.2344
885.2045, 276.5648
885.6866, 259.0670
886.1688, 235.5477
886.6509, 213.4235
887.1330, 192.2242
887.6151, 167.1120
888.0972, 129.2478
888.5793, 102.5972
889.0615, 78.70264
889.5436, 76.06860
890.0257, 128.0159
890.5078, 192.0750
890.9899, 186.7469
891.4720, 89.01770
891.9542, 33.80017
892.4363, 77.80566
892.9184, 129.1451
893.4005, 153.2906
893.8826, 165.1096
894.3647, 183.1329
894.8469, 205.5634
895.3290, 215.3827
895.8111, 201.6387
896.2932, 184.1872
896.7753, 177.3224
897.2574, 169.8756
897.7396, 145.5980
898.2217, 112.9489
898.7038, 88.04126
899.1859, 75.31543
899.6680, 79.65131
900.1501, 125.9529
900.6323, 179.3626
901.1144, 185.2106
901.5965, 160.0504
902.0786, 145.7859
902.5607, 145.3058
903.0428, 121.2073
903.5250, 45.26123
904.0071, 30.07440
904.4892, 10.02844
904.9713, 74.49506
905.4534, 109.5004
905.9355, 93.45428
906.4177, 87.38696
906.8998, 114.8546
907.3819, 137.1473
907.8640, 100.8009
908.3461, 26.26324
908.8282, 10.68866
909.3104, 56.00092
909.7925, 125.2261
910.2746, 222.2017
910.7567, 288.5584
911.2388, 276.4370
911.7209, 214.9734
912.2031, 178.2490
912.6852, 172.4269
913.1673, 136.8875
913.6494, 44.65540
914.1315, 7.068054
914.6136, 28.72314
915.0958, 94.87109
915.5779, 140.8118
916.0600, 166.0745
916.5421, 165.7323
917.0242, 111.5273
917.5063, 79.79944
917.9885, 89.03711
918.4706, 101.5615
918.9527, 109.2249
919.4348, 112.6842
919.9169, 118.6335
920.3990, 128.1540
920.8812, 134.4699
921.3633, 118.0516
921.8455, 121.0538
922.3276, 188.7833
922.8097, 258.6923
923.2918, 271.6180
923.7739, 234.0497
924.2560, 196.9955
924.7382, 167.8627
925.2203, 147.8105
925.7024, 133.7706
926.1845, 134.8583
926.6666, 181.5404
927.1487, 234.5431
927.6309, 226.4142
928.1130, 153.0767
928.5951, 89.84326
929.0772, 80.52197
929.5593, 87.25671
930.0414, 77.60254
930.5236, 73.88696
931.0057, 122.2732
931.4878, 198.8030
931.9699, 227.9228
932.4520, 180.3383
932.9341, 122.9936
933.4163, 107.0549
933.8984, 120.5969
934.3805, 155.5718
934.8626, 205.0221
935.3447, 256.7202
935.8268, 302.3039
936.3090, 318.6573
936.7911, 288.6355
937.2732, 234.6658
937.7553, 176.3766
938.2374, 121.2535
938.7195, 79.70508
939.2017, 57.13983
939.6838, 81.80511
940.1659, 162.1238
940.6480, 242.0177
941.1301, 269.1828
941.6122, 264.2660
942.0944, 290.0469
942.5765, 333.8223
943.0586, 302.0615
943.5407, 188.8124
944.0228, 118.6155
944.5049, 159.5511
944.9871, 253.5704
945.4692, 325.0107
945.9513, 371.1863
946.4334, 348.9886
946.9155, 256.4595
947.3976, 241.8356
947.8798, 350.1203
948.3619, 463.1979
948.8440, 490.0535
949.3261, 458.2382
949.8082, 437.3948
950.2903, 428.3595
950.7725, 427.3256
951.2546, 438.2684
951.7367, 434.6806
952.2188, 402.9671
952.7009, 362.9222
953.1830, 332.2159
953.6652, 313.1702
954.1473, 327.9104
954.6294, 391.3923
955.1115, 436.5709
955.5936, 466.4150
956.0757, 452.2144
956.5579, 350.3997
957.0400, 224.5497
957.5221, 188.4552
958.0042, 253.4721
958.4863, 272.4269
958.9684, 202.2317
959.4506, 183.9370
959.9327, 288.5912
960.4148, 383.1512
960.8969, 352.1890
961.3790, 252.4957
961.8611, 241.9992
962.3433, 376.7196
962.8254, 436.8225
963.3075, 357.2625
963.7896, 301.0643
964.2717, 341.9274
964.7538, 390.6504
965.2360, 370.7892
965.7181, 294.1188
966.2002, 232.0458
966.6823, 177.1231
967.1644, 149.5257
967.6465, 180.0961
968.1287, 202.4756
968.6108, 171.1362
969.0929, 128.9874
969.5750, 139.2721
970.0571, 201.4865
970.5392, 225.6102
971.0214, 164.1072
971.5035, 120.8384
971.9856, 122.3910
972.4677, 136.1729
972.9498, 134.2675
973.4319, 139.1710
973.9141, 202.9050
974.3962, 328.6821
974.8783, 368.3105
975.3604, 199.0059
975.8425, 69.92749
976.3246, 87.61322
976.8068, 149.2369
977.2889, 185.2261
977.7710, 196.4291
978.2531, 200.7498
978.7352, 203.0768
979.2173, 191.1829
979.6995, 152.9490
980.1816, 108.4404
980.6637, 44.31604
981.1458, 4.697235
981.6279, 17.33157
982.1100, 88.64114
982.5922, 110.3613
983.0743, 21.15036
983.5564, 25.41476
984.0385, 74.94543
984.5206, 173.5181
985.0027, 167.2823
985.4849, 116.9259
985.9670, 109.1417
986.4491, 146.0997
986.9312, 163.0732
987.4133, 120.6816
987.8954, 86.29065
988.3776, 100.8384
988.8597, 118.6064
989.3418, 108.8313
989.8239, 78.23172
990.3060, 24.73691
990.7881, 46.00122
991.2703, 65.20920
991.7524, 34.52707
992.2345, 139.4041
992.7166, 202.9157
993.1987, 245.1398
993.6808, 290.3121
994.1630, 325.4942
994.6451, 317.5012
995.1272, 258.1204
995.6093, 198.0294
996.0914, 166.0677
996.5735, 131.1788
997.0557, 42.99127
997.5378, 29.38196
998.0199, 10.04218
998.5020, 119.1592
998.9841, 180.2701
999.4662, 158.7805
999.9484, 115.8385
1000.430, 36.25549
1000.913, 5.890778
1001.395, 83.46127
1001.877, 197.6967
1002.359, 212.5958
1002.841, 141.9495
1003.323, 67.94916
1003.805, 4.923553
1004.287, 12.42093
1004.770, 84.11020
1005.252, 174.9823
1005.734, 156.6832
1006.216, 103.6516
1006.698, 117.4235
1007.180, 191.1293
1007.662, 241.2401
1008.144, 232.6719
1008.626, 216.9127
1009.109, 227.2889
1009.591, 228.1699
1010.073, 169.9081
1010.555, 102.1044
1011.037, 111.6021
1011.519, 187.8307
1012.001, 209.6793
1012.483, 101.6370
1012.966, 1.484375
1013.448, 36.45151
1013.930, 41.42920
1014.412, 18.09827
1014.894, 16.08524
1015.376, 35.37125
1015.858, 39.70358
1016.340, 59.56042
1016.822, 136.1017
1017.305, 181.2332
1017.787, 134.2137
1018.269, 71.30627
1018.751, 41.25217
1019.233, 34.61316
1019.715, 38.02219
1020.197, 47.30344
1020.679, 41.19925
1021.161, 34.39279
1021.644, 63.48071
1022.126, 50.06317
1022.608, 165.1179
1023.090, 171.6362
1023.572, 117.2902
1024.054, 85.96393
1024.536, 89.64890
1025.018, 100.4937
1025.500, 114.8830
1025.983, 130.8627
1026.465, 161.1982
1026.947, 179.5931
1027.429, 147.8513
1027.911, 99.68893
1028.393, 106.4077
1028.875, 181.3254
1029.357, 211.6432
1029.840, 156.5301
1030.322, 83.17926
1030.804, 63.58740
1031.286, 151.3413
1031.768, 16.73108
1032.250, 210.2195
1032.732, 266.6674
1033.214, 104.6634
1033.697, 16.89774
1034.179, 107.4067
1034.661, 169.4552
1035.143, 145.7105
1035.625, 98.10162
1036.107, 42.73111
1036.589, 0.6133120
1037.071, 12.32507
1037.553, 97.26501
1038.036, 164.5418
1038.518, 215.6837
1039.000, 247.1168
1039.482, 265.2616
1039.964, 255.4371
1040.446, 184.2887
1040.928, 90.74744
1041.410, 54.16183
1041.892, 86.12964
1042.375, 119.6462
1042.857, 156.1848
1043.339, 192.0748
1043.821, 235.4673
1044.303, 263.9233
1044.785, 259.2547
1045.267, 233.2950
1045.749, 209.0899
1046.232, 186.9431
1046.714, 164.7717
1047.196, 143.2376
1047.678, 116.8865
1048.160, 74.46500
1048.642, 51.22803
1049.124, 83.16083
1049.606, 142.1153
1050.089, 176.3011
1050.571, 185.0692
1051.053, 186.1506
1051.535, 179.0997
1052.017, 164.0115
1052.499, 137.3911
1052.981, 122.0616
1053.463, 136.8300
1053.945, 158.3555
1054.427, 137.9775
1054.910, 80.63211
1055.392, 71.65765
1055.874, 116.2644
1056.356, 156.9533
1056.838, 184.8120
1057.320, 178.8422
1057.802, 122.4844
1058.284, 52.88965
1058.767, 24.30670
1059.249, 33.68982
1059.731, 74.81494
1060.213, 140.2714
1060.695, 158.1438
1061.177, 122.2901
1061.659, 123.7247
1062.141, 213.3428
1062.624, 303.3680
1063.106, 259.1004
1063.588, 136.8893
1064.070, 75.45126
1064.552, 65.67838
1065.034, 92.51172
1065.516, 144.0561
1065.998, 183.0502
1066.480, 192.1964
1066.963, 179.6266
1067.445, 135.0800
1067.927, 88.76120
1068.409, 105.7199
1068.891, 66.55380
1069.373, 127.2364
1069.855, 59.47028
1070.337, 32.66437
1070.819, 78.82706
1071.302, 138.4046
1071.784, 176.5660
1072.266, 206.9978
1072.748, 245.4261
1073.230, 264.0988
1073.712, 197.7159
1074.194, 87.34625
1074.676, 34.12570
1075.159, 65.61267
1075.641, 124.9986
1076.123, 242.7085
1076.605, 302.9589
1077.087, 176.2399
1077.569, 24.49014
1078.051, 1.239929
1078.533, 52.73074
1079.016, 79.62070
1079.498, 63.74496
1079.980, 69.37720
1080.462, 143.3793
1080.944, 187.5132
1081.426, 143.5678
1081.908, 94.63162
1082.390, 89.44870
1082.872, 111.8492
1083.354, 140.1593
1083.837, 172.6748
1084.319, 198.1011
1084.801, 227.2323
1085.283, 230.2665
1085.765, 179.6030
1086.247, 139.7510
1086.729, 127.6875
1087.212, 144.3360
1087.694, 209.3961
1088.176, 306.9949
1088.658, 300.9016
1089.140, 125.1761
1089.622, 74.03989
1090.104, 195.4596
1090.586, 300.0895
1091.068, 325.5529
1091.551, 301.0294
1092.033, 246.3783
1092.515, 175.0503
1092.997, 137.4065
1093.479, 85.27573
1093.961, 98.40118
1094.443, 20.73383
1094.925, 21.26852
1095.407, 6.779358
1095.890, 43.41690
1096.372, 118.8129
1096.854, 197.1045
1097.336, 234.1855
1097.818, 237.8049
1098.300, 233.3087
1098.782, 225.0042
1099.264, 234.1497
1099.747, 261.7397
1100.229, 239.9683
1100.711, 124.3831
1101.193, 14.41486
1101.675, 45.49969
1102.157, 137.7304
1102.639, 182.1216
1103.121, 191.4842
1103.604, 189.3058
1104.086, 180.2942
1104.568, 165.6760
1105.050, 146.0259
1105.532, 111.7067
1106.014, 14.76004
1106.496, 51.03580
1106.978, 18.37631
1107.460, 123.6064
1107.943, 172.8646
1108.425, 169.7767
1108.907, 125.2793
1109.389, 44.70596
1109.871, 4.701508
1110.353, 69.90225
1110.835, 120.2656
1111.317, 83.80811
1111.799, 62.59348
1112.282, 138.6998
1112.764, 256.6991
1113.246, 345.0824
1113.728, 402.4653
1114.210, 411.7522
1114.692, 359.5836
1115.174, 284.3854
1115.656, 159.9900
1116.139, 64.97546
1116.621, 30.34354
1117.103, 33.37119
1117.585, 59.57199
1118.067, 100.1205
1118.549, 117.8340
1119.031, 110.7785
1119.513, 102.7899
1119.995, 94.72147
1120.478, 74.95923
1120.960, 36.97473
1121.442, 34.04617
1121.924, 110.1036
1122.406, 217.2313
1122.888, 285.7272
1123.370, 309.1711
1123.852, 221.4086
1124.334, 62.78644
1124.817, 14.90775
1125.299, 90.67038
1125.781, 178.9911
1126.263, 227.9949
1126.745, 232.0891
1127.227, 152.8591
1127.709, 56.77676
1128.191, 31.74826
1128.674, 38.13995
1129.156, 6.525238
1129.638, 65.16248
1130.120, 8.265228
1130.602, 185.8235
1131.084, 328.9273
1131.566, 279.0153
1132.048, 222.5939
1132.531, 275.7712
1133.013, 321.1452
1133.495, 243.3124
1133.977, 126.4537
1134.459, 96.82208
1134.941, 152.9270
1135.423, 193.0580
1135.905, 202.1191
1136.387, 203.3913
1136.870, 185.2106
1137.352, 176.8405
1137.834, 187.9337
1138.316, 211.3452
1138.798, 249.9846
1139.280, 289.1800
1139.762, 284.5012
1140.244, 229.5971
1140.726, 208.0695
1141.209, 226.4639
1141.691, 221.0762
1142.173, 178.7631
1142.655, 115.9141
1143.137, 37.52057
1143.619, 19.43930
1144.101, 3.357697
1144.583, 80.42548
1145.066, 162.5006
1145.548, 233.1627
1146.030, 218.3126
1146.512, 136.4769
1146.994, 89.01260
1147.476, 107.4215
1147.958, 141.7603
1148.440, 160.7151
1148.922, 170.7426
1149.405, 178.6060
1149.887, 180.2062
1150.369, 162.7186
1150.851, 140.6254
1151.333, 146.8975
1151.815, 174.0636
1152.297, 164.3748
1152.779, 74.25644
1153.261, 28.81158
1153.744, 123.5302
1154.226, 189.1584
1154.708, 132.5658
1155.190, 46.79596
1155.672, 26.75836
1156.154, 59.30902
1156.636, 33.06683
1157.118, 273.5699
1157.601, 354.5979
1158.083, 214.2522
1158.565, 119.1734
1159.047, 107.5490
1159.529, 129.8768
1160.011, 172.1809
1160.493, 197.5135
1160.975, 155.2529
1161.458, 76.65891
1161.940, 67.25748
1162.422, 111.3878
1162.904, 124.9869
1163.386, 108.0923
1163.868, 88.39175
1164.350, 65.71619
1164.832, 38.69101
1165.314, 7.386749
1165.797, 27.15155
1166.279, 70.28894
1166.761, 178.1413
1167.243, 150.7677
1167.725, 71.96838
1168.207, 63.63803
1168.689, 114.9927
1169.171, 163.2528
1169.653, 194.7434
1170.136, 181.8677
1170.618, 55.31918
1171.100, 31.28351
1171.582, 11.83411
1172.064, 36.96265
1172.546, 97.88055
1173.028, 143.3148
1173.510, 134.7072
1173.993, 80.85895
1174.475, 38.12823
1174.957, 3.698792
1175.439, 8.823273
1175.921, 1.893921
1176.403, 30.58743
1176.885, 77.03748
1177.367, 134.1499
1177.849, 198.6666
1178.332, 261.3979
1178.814, 303.5808
1179.296, 332.1673
1179.778, 400.9858
1180.260, 470.5193
1180.742, 367.4581
1181.224, 135.1151
1181.706, 28.95303
1182.188, 128.8876
1182.671, 224.5489
1183.153, 156.4311
1183.635, 58.22043
1184.117, 17.23773
1184.599, 5.582794
1185.081, 1.971710
1185.563, 4.525604
1186.045, 47.70633
1186.528, 121.4060
1187.010, 193.4437
1187.492, 275.6887
1187.974, 300.9780
1188.456, 206.6833
1188.938, 144.8701
1189.420, 171.9793
1189.902, 185.8826
1190.385, 108.8575
1190.867, 150.1678
1191.349, 34.89478
1191.831, 139.7992
1192.313, 163.1141
1192.795, 108.7762
1193.277, 55.01486
1193.759, 13.19839
1194.241, 46.42206
1194.724, 165.7558
1195.206, 252.1761
1195.688, 213.5691
1196.170, 137.3798
1196.652, 108.4831
1197.134, 120.6693
1197.616, 193.0082
1198.098, 278.8440
1198.580, 313.3522
1199.063, 295.9998
1199.545, 239.1273
1200.027, 142.8795
1200.509, 87.27045
1200.991, 130.5388
1201.473, 166.4932
1201.955, 176.4620
1202.437, 168.7382
1202.920, 131.7922
1203.402, 97.80655
1203.884, 106.3761
1204.366, 142.7648
1204.848, 141.8078
1205.330, 92.01471
1205.812, 123.3567
1206.294, 241.7740
1206.776, 286.2173
1207.259, 225.5607
1207.741, 152.7769
1208.223, 116.6921
1208.705, 120.0997
1209.187, 181.3507
1209.669, 265.1243
1210.151, 344.7221
1210.633, 388.2038
1211.115, 299.9948
1211.598, 151.1160
1212.080, 107.7242
1212.562, 178.2870
1213.044, 215.4010
1213.526, 143.0927
1214.008, 97.27652
1214.490, 147.0211
1214.972, 206.9117
1215.455, 285.1104
1215.937, 318.2648
1216.419, 230.5810
1216.901, 100.2719
1217.383, 71.15140
1217.865, 134.2308
1218.347, 143.8556
1218.829, 94.05627
1219.312, 67.84537
1219.794, 71.64270
1220.276, 52.54413
1220.758, 4.305298
1221.240, 36.29526
1221.722, 5.792633
1222.204, 72.73572
1222.686, 117.5953
1223.168, 132.6607
1223.651, 74.62332
1224.133, 3.114044
1224.615, 22.17059
1225.097, 98.71277
1225.579, 127.8837
1226.061, 86.17218
1226.543, 45.17120
1227.025, 4.694000
1227.507, 4.985535
1227.990, 109.1866
1228.472, 198.1525
1228.954, 193.2193
1229.436, 175.0391
1229.918, 222.6667
1230.400, 290.6560
1230.882, 261.9629
1231.364, 274.6675
1231.847, 284.2104
1232.329, 222.9753
1232.811, 257.7638
1233.293, 226.1777
1233.775, 164.5757
1234.257, 91.10370
1234.739, 54.18152
1235.221, 106.5291
1235.703, 158.5910
1236.186, 102.0962
1236.668, 22.40219
1237.150, 0.7242430
1237.632, 6.689667
1238.114, 1.318176
1238.596, 5.895752
1239.078, 37.22000
1239.560, 149.2359
1240.042, 205.9453
1240.525, 169.4566
1241.007, 141.2964
1241.489, 126.2555
1241.971, 132.9560
1242.453, 174.8116
1242.935, 198.3134
1243.417, 150.4952
1243.899, 72.93158
1244.382, 53.77805
1244.864, 77.36917
1245.346, 94.44983
1245.828, 106.1536
1246.310, 123.7772
1246.792, 140.7193
1247.274, 122.5737
1247.756, 63.74460
1248.239, 25.22754
1248.721, 43.57526
1249.203, 82.16138
1249.685, 159.2722
1250.167, 208.7677
1250.649, 171.2563
1251.131, 110.7119
1251.613, 84.73486
1252.095, 76.59558
1252.578, 75.11243
1253.060, 75.85150
1253.542, 37.20697
1254.024, 85.53262
1254.506, 17.90997
1254.988, 143.4417
1255.470, 245.9003
1255.952, 231.5275
1256.434, 189.0493
1256.917, 179.7632
1257.399, 182.4436
1257.881, 167.0335
1258.363, 156.9835
1258.845, 208.2220
1259.327, 255.8519
1259.809, 189.9792
1260.291, 68.90738
1260.774, 37.07611
1261.256, 111.2380
1261.738, 148.6248
1262.220, 107.9594
1262.702, 72.60117
1263.184, 17.38379
1263.666, 48.08514
1264.148, 224.2148
1264.630, 356.9969
1265.113, 319.8953
1265.595, 212.1292
1266.077, 168.6511
1266.559, 167.0928
1267.041, 158.2001
1267.523, 144.5648
1268.005, 127.8702
1268.487, 112.4372
1268.969, 105.9395
1269.452, 116.6309
1269.934, 125.4520
1270.416, 130.5634
1270.898, 116.8334
1271.380, 47.93884
1271.862, 3.725037
1272.344, 38.59427
1272.826, 65.24451
1273.309, 28.01840
1273.791, 11.25595
1274.273, 16.18890
1274.755, 83.45474
1275.237, 106.6737
1275.719, 90.56454
1276.201, 73.02164
1276.683, 57.41833
1277.166, 56.67975
1277.648, 67.74225
1278.130, 100.0325
1278.612, 129.5172
1279.094, 159.0245
1279.576, 143.1183
1280.058, 105.7803
1280.540, 37.31659
1281.022, 0.8167110
1281.505, 57.24872
1281.987, 60.00824
1282.469, 0.0000000E+00
##END=



