##NAMES=Magnesiotaaffeite-6N3S
##RRUFFID=R090019
##IDEAL CHEMISTRY=Mg_2_BeAl_6_O_12_
##LOCALITY=Ratnapura District, Sri Lanka
##OWNER=Bill Pinch
##SOURCE=William W. Pinch
##DESCRIPTION=Greyish purple flattened tabular hexagonal crystal
##STATUS=The identification of this mineral has been confirmed by single-crystal X-ray diffraction.
##URL=rruff.info/R090019
100.5729, 0.0000000E+00
101.0551, 4.012390
101.5372, 7.257629
102.0193, 3.187378
102.5014, 0.2629390
102.9835, 1.597290
103.4656, 4.427124
103.9478, 8.234436
104.4299, 12.38568
104.9120, 16.00848
105.3941, 18.40454
105.8762, 19.51428
106.3583, 20.46375
106.8405, 20.11194
107.3226, 20.34790
107.8047, 21.81934
108.2868, 24.72937
108.7689, 29.30414
109.2510, 35.46014
109.7332, 43.18970
110.2153, 54.72729
110.6974, 68.46216
111.1795, 85.87531
111.6616, 109.8439
112.1437, 141.1728
112.6259, 180.6562
113.1080, 234.6777
113.5901, 299.8050
114.0722, 353.2535
114.5543, 384.9739
115.0364, 395.0214
115.5185, 378.5620
116.0007, 309.8630
116.4828, 231.2020
116.9649, 162.4879
117.4470, 108.1093
117.9291, 67.12354
118.4112, 38.36969
118.8934, 26.45447
119.3755, 18.24255
119.8576, 12.11694
120.3397, 7.859497
120.8218, 5.545349
121.3039, 5.158081
121.7861, 6.459167
122.2682, 7.042236
122.7503, 7.734375
123.2324, 8.555481
123.7145, 6.209778
124.1966, 2.848938
124.6788, 0.1549070
125.1609, 1.083923
125.6430, 0.8349000
126.1251, 0.1259160
126.6072, 2.782898
127.0893, 4.926270
127.5715, 5.429321
128.0536, 4.822083
128.5357, 4.718811
129.0178, 4.161987
129.4999, 3.567871
129.9821, 2.799805
130.4642, 1.624268
130.9463, 0.3928220
131.4284, 0.5578000
131.9105, 1.230286
132.3926, 1.363525
132.8748, 0.2379760
133.3569, 1.582275
133.8390, 2.931458
134.3211, 2.659607
134.8032, 1.455383
135.2853, 1.708069
135.7674, 4.798584
136.2496, 7.362183
136.7317, 7.335083
137.2138, 5.486511
137.6959, 3.723572
138.1780, 3.762085
138.6601, 5.859375
139.1423, 7.014709
139.6244, 6.321594
140.1065, 5.456726
140.5886, 5.128418
141.0707, 5.235901
141.5528, 5.174255
142.0350, 4.093872
142.5171, 0.8164670
142.9992, 0.4593810
143.4813, 2.343597
143.9634, 5.360992
144.4455, 5.497101
144.9277, 2.181580
145.4098, 2.189941
145.8919, 3.630737
146.3740, 0.2022090
146.8561, 2.758240
147.3382, 2.927673
147.8204, 1.999847
148.3025, 1.596558
148.7846, 2.372253
149.2667, 3.673859
149.7488, 3.967377
150.2309, 3.074127
150.7131, 2.165070
151.1952, 1.646362
151.6773, 1.456757
152.1594, 1.435852
152.6415, 1.511871
153.1236, 1.695190
153.6058, 2.171753
154.0879, 3.237396
154.5700, 3.745850
155.0521, 2.087036
155.5342, 1.885956
156.0163, 4.760345
156.4985, 4.160950
156.9806, 2.376007
157.4627, 1.117004
157.9448, 0.7797240
158.4269, 0.2228390
158.9090, 0.2517090
159.3912, 0.5069270
159.8733, 1.070099
160.3554, 2.313629
160.8375, 3.815704
161.3196, 5.147308
161.8017, 6.140198
162.2839, 6.778900
162.7660, 6.978729
163.2481, 5.985413
163.7302, 5.588623
164.2123, 6.631622
164.6944, 8.222473
165.1766, 9.094971
165.6587, 8.457306
166.1408, 6.716858
166.6229, 6.574585
167.1050, 10.07257
167.5871, 12.94882
168.0693, 14.41821
168.5514, 14.62500
169.0335, 13.80032
169.5156, 11.91376
169.9977, 9.110718
170.4798, 7.845581
170.9620, 8.844421
171.4441, 10.31830
171.9262, 11.81406
172.4083, 13.19940
172.8904, 14.09476
173.3725, 14.07434
173.8547, 13.22491
174.3368, 12.73633
174.8189, 12.78949
175.3010, 13.07678
175.7831, 13.41980
176.2652, 13.81656
176.7474, 14.14395
177.2295, 14.42038
177.7116, 14.54175
178.1937, 14.20090
178.6758, 12.92203
179.1579, 11.31473
179.6401, 10.12469
180.1222, 9.249207
180.6043, 9.146393
181.0864, 10.91397
181.5685, 13.51462
182.0506, 15.17853
182.5328, 14.46570
183.0149, 12.26871
183.4970, 11.65851
183.9791, 13.98172
184.4612, 15.95935
184.9433, 15.82596
185.4255, 14.38126
185.9076, 13.03226
186.3897, 12.71072
186.8718, 13.32773
187.3539, 13.85480
187.8360, 14.30157
188.3182, 14.61511
188.8003, 14.85455
189.2824, 14.92673
189.7645, 14.66977
190.2466, 13.92542
190.7287, 12.73959
191.2109, 11.88425
191.6930, 10.81201
192.1751, 10.44016
192.6572, 11.64435
193.1393, 13.94113
193.6214, 16.08932
194.1036, 16.91022
194.5857, 16.19611
195.0678, 15.58902
195.5499, 15.64819
196.0320, 15.31589
196.5141, 13.55505
196.9963, 10.70718
197.4784, 8.269501
197.9605, 7.738617
198.4426, 9.457855
198.9247, 10.81491
199.4068, 11.70453
199.8890, 12.34174
200.3711, 12.86783
200.8532, 13.27206
201.3353, 13.53726
201.8174, 13.47809
202.2995, 13.02594
202.7817, 12.31302
203.2638, 10.39914
203.7459, 8.626038
204.2280, 8.915192
204.7101, 11.31927
205.1922, 13.76117
205.6744, 14.27792
206.1565, 13.18756
206.6386, 11.86179
207.1207, 10.14609
207.6028, 8.493927
208.0849, 7.549622
208.5671, 7.420868
209.0492, 7.764130
209.5313, 8.691498
210.0134, 9.913513
210.4955, 10.76260
210.9776, 10.73239
211.4598, 10.19925
211.9419, 10.07602
212.4240, 10.64011
212.9061, 11.00760
213.3882, 10.54318
213.8703, 9.382965
214.3525, 8.030884
214.8346, 6.348206
215.3167, 4.628326
215.7988, 4.159149
216.2809, 5.758270
216.7630, 7.375793
217.2451, 8.018738
217.7273, 8.077148
218.2094, 8.231110
218.6915, 8.889343
219.1736, 9.990143
219.6557, 11.28415
220.1378, 13.22061
220.6200, 14.68234
221.1021, 15.19104
221.5842, 15.06970
222.0663, 14.83594
222.5484, 14.82492
223.0305, 15.03458
223.5127, 15.15698
223.9948, 14.68036
224.4769, 14.66190
224.9590, 15.71637
225.4411, 17.26810
225.9232, 18.41190
226.4054, 18.44876
226.8875, 17.50232
227.3696, 17.06650
227.8517, 17.22812
228.3338, 17.84610
228.8159, 19.28931
229.2981, 21.16171
229.7802, 22.75870
230.2623, 23.59808
230.7444, 23.77942
231.2265, 24.41605
231.7086, 25.28506
232.1908, 26.78860
232.6729, 29.26599
233.1550, 32.45892
233.6371, 35.83087
234.1192, 39.01370
234.6013, 42.13245
235.0835, 46.20383
235.5656, 50.80640
236.0477, 56.59296
236.5298, 63.56726
237.0119, 71.85291
237.4940, 82.14862
237.9762, 95.25702
238.4583, 110.2502
238.9404, 122.7443
239.4225, 136.2958
239.9046, 144.2247
240.3867, 143.2407
240.8689, 134.7894
241.3510, 121.5735
241.8331, 103.6182
242.3152, 83.14450
242.7973, 66.50919
243.2794, 53.72098
243.7616, 43.83002
244.2437, 37.51172
244.7258, 34.05386
245.2079, 31.41412
245.6900, 28.95453
246.1721, 26.64462
246.6543, 24.36374
247.1364, 22.07010
247.6185, 19.92197
248.1006, 17.74063
248.5827, 15.70807
249.0648, 14.59259
249.5470, 15.08344
250.0291, 16.10437
250.5112, 16.08649
250.9933, 14.96494
251.4754, 13.42764
251.9576, 11.49719
252.4397, 9.357025
252.9218, 7.737885
253.4039, 6.789551
253.8860, 6.559723
254.3681, 7.187408
254.8503, 8.658234
255.3324, 10.01126
255.8145, 10.59579
256.2966, 10.54651
256.7787, 10.41528
257.2608, 9.949799
257.7430, 9.924133
258.2251, 11.11670
258.7072, 13.35828
259.1893, 15.53644
259.6714, 16.93784
260.1535, 17.66797
260.6357, 18.12192
261.1178, 17.33282
261.5999, 17.74640
262.0820, 21.44882
262.5641, 27.57184
263.0462, 33.40012
263.5284, 37.15189
264.0105, 39.09058
264.4926, 40.93246
264.9747, 43.13510
265.4568, 44.45984
265.9389, 44.71994
266.4211, 43.81900
266.9032, 41.48431
267.3853, 37.05124
267.8674, 31.09644
268.3495, 26.07550
268.8316, 22.25842
269.3138, 19.06595
269.7959, 16.36502
270.2780, 14.01819
270.7601, 11.78278
271.2422, 9.451904
271.7243, 7.226898
272.2065, 5.889282
272.6886, 6.020721
273.1707, 6.098145
273.6528, 5.943359
274.1349, 5.448608
274.6170, 4.354889
275.0992, 2.466492
275.5813, 0.2218930
276.0634, 1.286774
276.5455, 1.915924
277.0276, 2.001099
277.5097, 1.275757
277.9919, 0.3153080
278.4740, 0.4210820
278.9561, 0.7675480
279.4382, 0.7215880
279.9203, 0.1836240
280.4024, 1.256226
280.8846, 2.300659
281.3667, 3.272247
281.8488, 3.566559
282.3309, 2.308746
282.8130, 0.5108640
283.2951, 3.677277
283.7773, 5.390015
284.2594, 5.070953
284.7415, 4.375000
285.2236, 2.780579
285.7057, 1.345245
286.1878, 0.6308900
286.6700, 0.7386170
287.1521, 1.516235
287.6342, 3.071381
288.1163, 6.042480
288.5984, 7.381073
289.0805, 5.157928
289.5627, 3.063110
290.0448, 2.849304
290.5269, 4.300201
291.0090, 6.112946
291.4911, 7.224762
291.9732, 7.742981
292.4554, 7.958679
292.9375, 7.086670
293.4196, 6.736938
293.9017, 7.760406
294.3838, 9.753479
294.8659, 11.76410
295.3481, 13.06705
295.8302, 13.70471
296.3123, 14.76547
296.7944, 17.20499
297.2765, 19.06894
297.7586, 19.35614
298.2408, 18.92188
298.7229, 19.13574
299.2050, 20.76651
299.6871, 23.47113
300.1692, 25.92267
300.6513, 27.57135
301.1335, 29.64062
301.6156, 33.12378
302.0977, 36.70004
302.5798, 39.03592
303.0619, 39.62958
303.5440, 38.79684
304.0262, 37.04831
304.5083, 32.86591
304.9904, 30.13156
305.4725, 28.89178
305.9546, 28.97495
306.4367, 30.35449
306.9189, 32.97690
307.4010, 36.65710
307.8831, 41.28510
308.3652, 47.60510
308.8473, 52.87262
309.3294, 56.53458
309.8116, 59.80646
310.2937, 63.16626
310.7758, 66.79169
311.2579, 70.91733
311.7400, 75.93198
312.2221, 82.24170
312.7043, 86.68994
313.1864, 89.10306
313.6685, 90.17563
314.1506, 90.46838
314.6327, 89.67307
315.1148, 86.92657
315.5970, 81.50223
316.0791, 73.55887
316.5612, 65.23273
317.0433, 54.90897
317.5254, 45.94431
318.0075, 39.30090
318.4897, 34.44720
318.9718, 30.57819
319.4539, 27.28766
319.9360, 24.63721
320.4181, 22.82858
320.9002, 23.16638
321.3824, 22.74258
321.8645, 20.39346
322.3466, 17.71671
322.8287, 16.41208
323.3108, 17.01083
323.7929, 18.58945
324.2751, 19.59888
324.7572, 19.89575
325.2393, 19.82004
325.7214, 18.83429
326.2035, 17.91779
326.6856, 17.97379
327.1678, 18.96243
327.6499, 19.97702
328.1320, 20.03772
328.6141, 19.01270
329.0962, 17.61362
329.5783, 15.23962
330.0605, 13.10870
330.5426, 11.79050
331.0247, 11.16391
331.5068, 10.78546
331.9889, 10.29095
332.4710, 9.722015
332.9532, 9.768768
333.4353, 10.84363
333.9174, 12.09323
334.3995, 13.79471
334.8816, 15.50351
335.3637, 16.70715
335.8459, 17.13846
336.3280, 16.76678
336.8101, 15.50937
337.2922, 12.83060
337.7743, 9.966736
338.2564, 6.347137
338.7386, 2.903992
339.2206, 0.5917660
339.7028, 0.3569640
340.1849, 0.5123900
340.6670, 0.8846440
341.1491, 1.979919
341.6312, 2.250702
342.1133, 0.9710080
342.5955, 0.4163210
343.0776, 1.153778
343.5597, 1.210907
344.0418, 0.9907840
344.5239, 0.9316710
345.0060, 1.083801
345.4882, 0.5637820
345.9703, 1.844238
346.4524, 3.760468
346.9345, 4.643433
347.4166, 4.556885
347.8987, 3.522736
348.3809, 1.368652
348.8630, 1.405945
349.3451, 2.627502
349.8272, 1.080231
350.3093, 0.1937560
350.7914, 0.3450930
351.2736, 0.1013790
351.7557, 0.2804260
352.2378, 1.162292
352.7199, 2.222656
353.2020, 2.542694
353.6841, 1.882935
354.1663, 1.208466
354.6484, 0.7505190
355.1305, 0.2136840
355.6126, 0.7731630
356.0947, 2.128937
356.5768, 3.263031
357.0590, 3.553040
357.5411, 2.972900
358.0232, 2.243225
358.5053, 0.8560790
358.9874, 7.0189998E-02
359.4695, 2.0630000E-02
359.9517, 0.8122250
360.4338, 2.052673
360.9159, 3.626587
361.3980, 5.357910
361.8801, 6.784515
362.3622, 8.034088
362.8444, 8.643951
363.3265, 7.800873
363.8086, 6.576416
364.2907, 6.090057
364.7728, 6.707397
365.2549, 7.937439
365.7371, 9.333893
366.2192, 10.96329
366.7013, 12.18381
367.1834, 12.84781
367.6655, 13.00128
368.1476, 12.38144
368.6298, 11.06818
369.1119, 10.06821
369.5940, 10.31299
370.0761, 11.55225
370.5582, 12.52710
371.0403, 12.88522
371.5225, 13.44772
372.0046, 15.07892
372.4867, 17.32968
372.9688, 19.14825
373.4509, 19.58694
373.9330, 19.70370
374.4152, 21.33499
374.8973, 24.68262
375.3794, 27.81992
375.8615, 30.14413
376.3436, 31.43466
376.8257, 31.44284
377.3079, 30.04648
377.7900, 27.57925
378.2721, 23.53281
378.7542, 18.39243
379.2363, 14.36435
379.7184, 12.27832
380.2006, 11.14340
380.6827, 9.679047
381.1648, 7.889374
381.6469, 6.397003
382.1290, 5.246735
382.6111, 4.566711
383.0933, 4.842712
383.5754, 6.188324
384.0575, 7.268890
384.5396, 6.602448
385.0217, 4.573181
385.5038, 4.113556
385.9860, 6.655518
386.4681, 9.572815
386.9502, 11.33978
387.4323, 12.14429
387.9144, 12.65826
388.3965, 13.08603
388.8787, 13.59171
389.3608, 14.64014
389.8429, 16.25034
390.3250, 18.22073
390.8071, 20.50119
391.2892, 23.12506
391.7714, 26.01038
392.2535, 29.15302
392.7356, 32.91495
393.2177, 37.69412
393.6998, 43.61945
394.1819, 50.33612
394.6641, 58.71332
395.1462, 67.06024
395.6283, 74.19693
396.1104, 80.41611
396.5925, 86.51205
397.0746, 92.89084
397.5568, 99.68945
398.0389, 108.1164
398.5210, 118.0763
399.0031, 129.7307
399.4852, 143.2770
399.9673, 158.6548
400.4495, 175.9473
400.9316, 195.0364
401.4137, 215.6349
401.8958, 238.2009
402.3779, 266.3709
402.8600, 286.1606
403.3422, 298.2871
403.8243, 302.6852
404.3064, 295.9109
404.7885, 280.9687
405.2706, 264.7938
405.7527, 251.8495
406.2349, 242.5451
406.7170, 240.5013
407.1991, 246.9452
407.6812, 259.3540
408.1633, 276.6505
408.6454, 299.1152
409.1276, 327.5812
409.6097, 362.3150
410.0918, 401.3902
410.5739, 444.9725
411.0560, 495.6194
411.5381, 536.8481
412.0203, 573.1209
412.5024, 591.7946
412.9845, 583.4169
413.4666, 549.5992
413.9487, 499.7916
414.4308, 433.0092
414.9130, 354.6685
415.3951, 284.2693
415.8772, 220.9150
416.3593, 167.9318
416.8414, 130.5431
417.3235, 103.5118
417.8057, 81.01602
418.2878, 61.75739
418.7699, 46.29868
419.2520, 36.03143
419.7341, 30.56415
420.2162, 26.22543
420.6984, 22.23947
421.1805, 18.60156
421.6626, 15.39050
422.1447, 12.57480
422.6268, 9.801239
423.1089, 6.393921
423.5911, 3.192993
424.0732, 1.506378
424.5553, 1.488220
425.0374, 2.060333
425.5195, 2.647217
426.0016, 3.148956
426.4838, 3.101563
426.9659, 1.524719
427.4480, 0.4446410
427.9301, 1.067139
428.4122, 2.837708
428.8943, 4.598572
429.3765, 5.917542
429.8586, 7.048889
430.3407, 8.445282
430.8228, 10.32877
431.3049, 12.00769
431.7870, 13.11038
432.2692, 14.28006
432.7513, 16.16977
433.2334, 18.65952
433.7155, 20.96942
434.1976, 22.35715
434.6797, 22.94846
435.1619, 24.66226
435.6440, 28.11755
436.1261, 32.04333
436.6082, 36.54587
437.0903, 41.27985
437.5724, 45.71396
438.0546, 49.69220
438.5367, 53.86871
439.0188, 59.18915
439.5009, 65.61191
439.9830, 73.32101
440.4651, 82.13763
440.9473, 92.49872
441.4294, 104.3791
441.9115, 117.9831
442.3936, 133.8317
442.8757, 152.4752
443.3578, 173.4393
443.8400, 195.2701
444.3221, 219.8117
444.8042, 240.7693
445.2863, 259.8772
445.7684, 272.3938
446.2505, 272.2903
446.7327, 258.1071
447.2148, 235.7308
447.6969, 206.9979
448.1790, 173.4453
448.6611, 142.8184
449.1432, 115.5134
449.6254, 93.13934
450.1075, 78.31793
450.5896, 69.53900
451.0717, 63.30643
451.5538, 59.87024
452.0359, 57.84000
452.5181, 55.60425
453.0002, 53.38193
453.4823, 53.15720
453.9644, 56.67780
454.4465, 61.71811
454.9286, 63.06976
455.4108, 60.18790
455.8929, 56.36282
456.3750, 52.27289
456.8571, 47.64459
457.3392, 41.75806
457.8214, 34.68170
458.3035, 27.70932
458.7856, 21.94861
459.2677, 17.40103
459.7498, 13.21457
460.2319, 9.245575
460.7141, 5.727661
461.1962, 2.672974
461.6783, 0.1238100
462.1604, 1.833130
462.6425, 3.169678
463.1246, 3.941986
463.6068, 4.252533
464.0889, 4.149567
464.5710, 3.420288
465.0531, 1.008759
465.5352, 1.014679
466.0173, 1.227905
466.4995, 0.1908870
466.9816, 0.4549260
467.4637, 0.4863590
467.9458, 2.428894
468.4279, 3.366974
468.9100, 2.727417
469.3922, 2.583069
469.8743, 3.886108
470.3564, 5.724945
470.8385, 7.259033
471.3206, 8.377930
471.8027, 9.953827
472.2849, 12.94034
472.7670, 16.98535
473.2491, 20.69208
473.7312, 23.85208
474.2133, 26.89536
474.6954, 29.46167
475.1776, 32.18594
475.6597, 36.72879
476.1418, 44.36377
476.6239, 52.60886
477.1060, 59.14740
477.5881, 64.81171
478.0703, 72.61542
478.5524, 83.83582
479.0345, 96.22775
479.5166, 106.2990
479.9987, 113.3384
480.4808, 121.5553
480.9630, 132.0522
481.4451, 143.0302
481.9272, 154.3069
482.4093, 165.0871
482.8914, 173.4752
483.3735, 178.3518
483.8557, 180.0637
484.3378, 179.8209
484.8199, 175.6149
485.3020, 172.2391
485.7841, 167.8937
486.2662, 165.7655
486.7484, 168.2875
487.2305, 175.7507
487.7126, 186.8470
488.1947, 200.2723
488.6768, 216.1807
489.1589, 236.6332
489.6411, 261.6582
490.1232, 291.7788
490.6053, 328.3635
491.0874, 368.7936
491.5695, 411.8212
492.0516, 457.5430
492.5338, 499.3253
493.0159, 535.3293
493.4980, 563.8702
493.9801, 567.4517
494.4622, 540.8143
494.9443, 493.9670
495.4265, 424.1690
495.9086, 339.7429
496.3907, 264.9430
496.8728, 205.1624
497.3549, 157.3185
497.8370, 121.3281
498.3192, 95.84094
498.8013, 76.41696
499.2834, 62.16537
499.7655, 51.43524
500.2476, 41.77560
500.7297, 33.22617
501.2119, 26.29501
501.6940, 21.48099
502.1761, 17.91769
502.6582, 15.36035
503.1403, 13.53671
503.6224, 11.79236
504.1045, 9.677246
504.5866, 7.479126
505.0688, 6.300079
505.5509, 7.553802
506.0330, 7.566071
506.5151, 4.848419
506.9972, 1.878082
507.4793, 0.4546510
507.9615, 0.6781010
508.4436, 1.593414
508.9257, 2.516937
509.4078, 3.451233
509.8899, 4.441315
510.3720, 5.701721
510.8542, 6.546143
511.3363, 6.492706
511.8184, 6.022461
512.3005, 5.492004
512.7827, 4.938324
513.2648, 4.614868
513.7469, 4.857239
514.2290, 5.475891
514.7111, 5.880005
515.1932, 5.948364
515.6754, 6.015564
516.1575, 6.192383
516.6396, 6.589050
517.1217, 7.578491
517.6038, 9.946686
518.0859, 12.01227
518.5681, 12.58237
519.0502, 12.45770
519.5323, 13.10358
520.0144, 14.88934
520.4965, 16.91089
520.9786, 17.95474
521.4608, 17.63403
521.9429, 18.93091
522.4250, 23.48334
522.9071, 27.72659
523.3892, 29.13580
523.8713, 29.65005
524.3535, 32.84232
524.8356, 40.10223
525.3177, 48.57983
525.7998, 53.38358
526.2819, 53.88797
526.7640, 53.84100
527.2462, 53.82550
527.7283, 52.81448
528.2104, 50.11566
528.6925, 46.08960
529.1746, 41.52234
529.6567, 36.61621
530.1389, 31.53778
530.6210, 26.21280
531.1031, 20.71152
531.5852, 16.29993
532.0673, 13.46329
532.5494, 11.67294
533.0316, 10.49673
533.5137, 9.894257
533.9958, 9.376251
534.4779, 9.021942
534.9600, 8.572388
535.4421, 7.603271
535.9243, 6.324860
536.4064, 5.445221
536.8885, 5.327576
537.3706, 5.684326
537.8527, 5.890289
538.3348, 5.571014
538.8170, 5.898376
539.2991, 8.005707
539.7812, 9.695251
540.2633, 9.308807
540.7454, 7.397583
541.2275, 5.643311
541.7097, 5.078705
542.1918, 5.294128
542.6739, 5.321472
543.1560, 5.274658
543.6381, 4.661133
544.1202, 2.658447
544.6024, 0.6445310
545.0845, 0.3955690
545.5666, 0.5871580
546.0487, 0.7902220
546.5308, 1.510773
547.0129, 2.495544
547.4951, 3.411133
547.9772, 4.257080
548.4593, 4.951660
548.9414, 5.587280
549.4235, 5.898834
549.9056, 5.143951
550.3878, 3.087799
550.8699, 1.584625
551.3520, 1.259308
551.8341, 1.411072
552.3162, 1.717407
552.7983, 2.008881
553.2805, 1.926819
553.7626, 1.246460
554.2447, 0.1149900
554.7268, 1.139801
555.2089, 3.465179
555.6910, 4.136169
556.1732, 1.015106
556.6553, 1.786407
557.1374, 1.434967
557.6195, 1.558136
558.1016, 4.896606
558.5837, 7.241852
559.0659, 8.875244
559.5480, 10.35287
560.0301, 11.60507
560.5122, 13.09641
560.9943, 15.11307
561.4764, 17.26605
561.9586, 19.15906
562.4407, 20.80368
562.9228, 22.45480
563.4049, 23.96707
563.8870, 25.69919
564.3691, 28.29752
564.8513, 31.55554
565.3334, 34.23087
565.8155, 35.67014
566.2976, 36.81967
566.7797, 39.45377
567.2618, 44.20273
567.7440, 49.08789
568.2261, 54.39676
568.7082, 59.53705
569.1903, 63.75589
569.6724, 67.55020
570.1545, 72.10388
570.6367, 78.02396
571.1188, 85.01920
571.6009, 92.51456
572.0830, 100.7314
572.5651, 108.7917
573.0472, 115.5233
573.5294, 123.1898
574.0115, 133.8201
574.4936, 146.4152
574.9757, 158.2935
575.4578, 169.1094
575.9399, 177.7235
576.4221, 182.4973
576.9042, 183.7546
577.3863, 183.4970
577.8684, 182.4966
578.3505, 179.4906
578.8326, 172.8352
579.3148, 162.2446
579.7969, 150.3408
580.2790, 135.7494
580.7611, 121.3870
581.2432, 108.0880
581.7253, 96.11368
582.2075, 85.79736
582.6896, 77.28549
583.1717, 69.70074
583.6538, 61.81296
584.1359, 53.41098
584.6180, 46.24442
585.1002, 40.77911
585.5823, 35.99713
586.0643, 31.85092
586.5464, 28.05606
587.0286, 24.17065
587.5107, 20.01654
587.9928, 16.21698
588.4749, 13.50653
588.9570, 11.66122
589.4391, 9.799133
589.9213, 7.778259
590.4034, 5.881836
590.8855, 4.070679
591.3676, 2.588806
591.8497, 2.212585
592.3318, 3.799072
592.8140, 5.013092
593.2961, 4.995270
593.7782, 4.303314
594.2603, 3.286072
594.7424, 2.154663
595.2245, 1.443512
595.7067, 1.650970
596.1888, 2.588928
596.6709, 3.195496
597.1530, 3.545166
597.6351, 3.410095
598.1172, 2.056366
598.5994, 0.8211060
599.0815, 0.6451420
599.5636, 1.542603
600.0457, 3.022400
600.5278, 4.829834
601.0099, 6.970612
601.4921, 9.723724
601.9742, 13.08521
602.4563, 15.80164
602.9384, 17.40198
603.4205, 18.28656
603.9026, 18.74988
604.3848, 18.74542
604.8669, 18.86993
605.3490, 19.76157
605.8311, 20.30386
606.3132, 19.65283
606.7953, 18.12607
607.2775, 16.38065
607.7596, 14.74881
608.2417, 13.38351
608.7238, 12.13940
609.2059, 10.48511
609.6880, 11.18546
610.1702, 16.89404
610.6523, 21.95496
611.1344, 24.09085
611.6165, 24.73380
612.0986, 25.70193
612.5807, 27.45752
613.0629, 30.03433
613.5450, 33.41879
614.0271, 37.54257
614.5092, 42.42105
614.9913, 48.31961
615.4734, 54.84937
615.9556, 61.69092
616.4377, 68.77750
616.9198, 76.10986
617.4019, 83.91940
617.8840, 91.55267
618.3661, 99.36334
618.8483, 106.6447
619.3304, 113.0699
619.8125, 118.3796
620.2946, 122.1207
620.7767, 124.0363
621.2589, 124.0394
621.7410, 121.6969
622.2231, 116.5356
622.7052, 110.4278
623.1873, 103.3165
623.6694, 95.51688
624.1516, 86.61188
624.6337, 77.16299
625.1158, 68.86792
625.5979, 63.02191
626.0800, 57.76102
626.5621, 50.86938
627.0443, 42.98688
627.5264, 36.56781
628.0085, 32.27310
628.4906, 29.06787
628.9727, 25.91251
629.4548, 22.72949
629.9370, 19.71973
630.4191, 16.56213
630.9012, 14.06979
631.3833, 12.87814
631.8654, 12.15091
632.3475, 10.81506
632.8297, 8.841705
633.3118, 7.257965
633.7939, 7.071747
634.2760, 7.926117
634.7581, 8.470154
635.2402, 8.800842
635.7224, 8.378235
636.2045, 6.228241
636.6866, 3.972748
637.1687, 3.465576
637.6508, 4.626099
638.1329, 5.657379
638.6151, 5.841339
639.0972, 5.821259
639.5793, 6.244019
640.0614, 6.893738
640.5435, 7.076202
641.0256, 6.542786
641.5078, 5.871002
641.9899, 5.857941
642.4720, 6.595520
642.9541, 7.225433
643.4362, 7.105499
643.9183, 7.650909
644.4005, 9.845825
644.8826, 12.50711
645.3647, 14.19266
645.8468, 14.66797
646.3289, 15.11612
646.8110, 16.51886
647.2932, 18.60031
647.7753, 20.76910
648.2574, 23.01279
648.7395, 25.00876
649.2216, 26.36575
649.7037, 27.71964
650.1859, 30.36078
650.6680, 34.68625
651.1501, 38.46542
651.6322, 40.74600
652.1143, 43.22055
652.5964, 46.93692
653.0786, 51.53806
653.5607, 56.28534
654.0428, 60.88748
654.5249, 65.55573
655.0070, 70.44708
655.4891, 75.54507
655.9713, 81.34753
656.4534, 88.08102
656.9355, 95.06348
657.4176, 102.1295
657.8997, 109.1713
658.3818, 116.0560
658.8640, 122.7312
659.3461, 129.5395
659.8282, 137.1404
660.3103, 144.6161
660.7924, 150.8446
661.2745, 155.9519
661.7567, 161.1222
662.2388, 167.0476
662.7209, 172.5344
663.2030, 175.3783
663.6851, 175.3689
664.1672, 173.4014
664.6494, 168.5244
665.1315, 162.6498
665.6136, 156.4851
666.0957, 149.6573
666.5778, 141.4668
667.0599, 131.6562
667.5421, 121.2211
668.0242, 110.5196
668.5063, 99.93137
668.9884, 90.24643
669.4705, 81.53644
669.9526, 73.60202
670.4348, 66.43988
670.9169, 59.98575
671.3990, 54.28531
671.8811, 49.90283
672.3632, 44.81271
672.8453, 37.62854
673.3275, 31.08670
673.8096, 27.05698
674.2917, 24.66595
674.7738, 22.20801
675.2559, 19.04709
675.7380, 15.81845
676.2202, 13.18680
676.7023, 11.16000
677.1844, 10.09467
677.6665, 10.47018
678.1486, 10.11349
678.6307, 7.256348
679.1129, 3.349091
679.5950, 1.253815
680.0771, 1.380554
680.5592, 1.360748
681.0413, 0.1479800
681.5234, 1.011353
682.0056, 0.8460690
682.4877, 0.1304320
682.9698, 0.4498290
683.4519, 0.4632870
683.9340, 1.761444
684.4161, 2.148071
684.8983, 1.529510
685.3804, 1.626801
685.8625, 3.165070
686.3446, 4.102814
686.8267, 2.892975
687.3088, 0.9758610
687.7910, 2.6250000E-03
688.2731, 0.1956180
688.7552, 0.4994810
689.2373, 0.8623050
689.7194, 0.7917180
690.2015, 0.8062740
690.6837, 3.452393
691.1658, 5.011261
691.6479, 4.661438
692.1300, 3.534119
692.6121, 3.180115
693.0942, 3.633728
693.5764, 4.642456
694.0585, 6.078400
694.5406, 8.285797
695.0227, 12.03235
695.5048, 16.14914
695.9869, 19.44107
696.4691, 21.72739
696.9512, 23.60938
697.4333, 24.89825
697.9154, 26.32483
698.3975, 28.96872
698.8796, 32.70065
699.3618, 36.70325
699.8439, 40.61310
700.3260, 45.06766
700.8081, 51.05414
701.2902, 58.83902
701.7723, 65.62747
702.2545, 69.98044
702.7366, 75.04807
703.2187, 81.28784
703.7008, 88.57846
704.1829, 97.21307
704.6650, 106.9375
705.1472, 116.5782
705.6293, 124.5906
706.1114, 132.5150
706.5935, 143.3545
707.0756, 156.6199
707.5577, 169.0221
708.0399, 179.5232
708.5220, 189.3911
709.0041, 199.9704
709.4862, 211.1240
709.9683, 222.4576
710.4504, 235.3956
710.9326, 247.0158
711.4147, 256.2404
711.8968, 264.4178
712.3789, 273.4844
712.8610, 282.8099
713.3431, 289.2669
713.8253, 291.2031
714.3074, 289.0164
714.7895, 282.7694
715.2716, 272.7003
715.7537, 260.1313
716.2358, 245.2222
716.7180, 228.8128
717.2001, 211.3001
717.6822, 192.9903
718.1643, 175.3965
718.6464, 157.9973
719.1285, 142.1074
719.6107, 128.1418
720.0928, 115.5033
720.5749, 103.6967
721.0570, 92.80084
721.5391, 83.19293
722.0212, 75.14697
722.5034, 67.98386
722.9855, 60.63730
723.4676, 53.26810
723.9497, 47.22968
724.4318, 42.76761
724.9139, 38.91797
725.3961, 35.25095
725.8782, 31.68631
726.3603, 28.10178
726.8424, 24.44769
727.3245, 20.85190
727.8066, 16.46786
728.2888, 12.96826
728.7709, 11.97238
729.2530, 12.34882
729.7351, 12.13800
730.2172, 10.66470
730.6993, 8.666779
731.1815, 6.517303
731.6636, 4.487610
732.1457, 3.977722
732.6278, 5.171814
733.1099, 5.660248
733.5920, 4.139557
734.0742, 1.851440
734.5563, 0.7224430
735.0384, 1.030151
735.5205, 1.159119
736.0026, 0.9907230
736.4847, 0.7850040
736.9669, 0.6169740
737.4490, 0.4719850
737.9311, 0.2436830
738.4132, 3.3202998E-02
738.8953, 6.1554000E-02
739.3774, 0.6179200
739.8596, 1.486877
740.3417, 1.210236
740.8238, 0.1341250
741.3059, 1.100952
741.7880, 1.348022
742.2701, 1.066711
742.7523, 0.2590940
743.2344, 0.9909670
743.7165, 1.634888
744.1986, 0.7398070
744.6807, 0.6911930
745.1628, 2.911163
745.6450, 5.112762
746.1271, 5.504822
746.6092, 4.318878
747.0913, 2.499756
747.5734, 0.2308350
748.0555, 1.303131
748.5377, 0.1736760
749.0198, 2.963104
749.5019, 5.644043
749.9840, 7.577118
750.4661, 9.408447
750.9482, 11.62439
751.4304, 13.87543
751.9125, 15.26971
752.3946, 15.23355
752.8767, 15.68387
753.3588, 17.23361
753.8409, 18.55746
754.3231, 18.93042
754.8052, 18.81732
755.2873, 19.10367
755.7694, 19.95566
756.2515, 20.15302
756.7336, 18.42590
757.2158, 15.62763
757.6979, 12.84976
758.1800, 10.23962
758.6621, 8.632172
759.1442, 8.392456
759.6263, 8.547485
760.1085, 7.960327
760.5906, 6.633270
761.0727, 5.242767
761.5548, 3.570953
762.0369, 2.168640
762.5190, 0.8949280
763.0012, 8.7677002E-02
763.4833, 0.2677000
763.9654, 1.180786
764.4475, 1.905121
764.9296, 2.283875
765.4117, 1.998962
765.8939, 8.5510001E-02
766.3760, 2.726715
766.8581, 3.037567
767.3402, 1.005920
767.8223, 0.1735530
768.3044, 1.686401
768.7866, 5.099091
769.2687, 6.220856
769.7508, 4.382263
770.2329, 2.695099
770.7150, 1.014954
771.1971, 0.1987000
771.6793, 0.3089290
772.1614, 4.7759999E-02
772.6435, 0.4650570
773.1256, 1.746918
773.6077, 2.960724
774.0898, 3.672455
774.5720, 4.241852
775.0541, 4.987427
775.5362, 5.812225
776.0183, 6.391479
776.5004, 6.677338
776.9825, 7.163696
777.4647, 8.484680
777.9468, 10.37531
778.4289, 11.40353
778.9110, 11.39282
779.3931, 11.45361
779.8752, 11.68497
780.3574, 12.31827
780.8395, 13.92169
781.3216, 16.20700
781.8037, 17.60239
782.2858, 16.88586
782.7679, 16.96988
783.2501, 19.15567
783.7322, 21.92255
784.2143, 24.00262
784.6964, 25.55286
785.1785, 27.54120
785.6606, 30.46661
786.1428, 33.10599
786.6249, 33.26041
787.1070, 31.76785
787.5891, 32.21362
788.0712, 34.83069
788.5533, 38.30627
789.0355, 42.29590
789.5176, 46.28458
789.9997, 49.40109
790.4818, 51.47522
790.9639, 53.77823
791.4460, 56.41235
791.9282, 59.13919
792.4103, 62.34863
792.8924, 65.31836
793.3745, 66.76041
793.8566, 67.12326
794.3387, 68.98685
794.8209, 74.47583
795.3030, 80.63495
795.7851, 84.02542
796.2672, 86.06619
796.7493, 90.29834
797.2314, 97.03009
797.7136, 103.2907
798.1957, 107.0985
798.6778, 109.4152
799.1599, 112.6337
799.6420, 117.0055
800.1241, 121.5822
800.6063, 127.0310
801.0884, 131.6960
801.5705, 134.0383
802.0526, 135.4423
802.5347, 137.5185
803.0168, 140.4057
803.4990, 143.4186
803.9811, 146.6820
804.4632, 149.6759
804.9453, 152.1860
805.4274, 154.1376
805.9095, 155.6410
806.3917, 156.7125
806.8738, 156.4716
807.3559, 153.8831
807.8380, 150.0930
808.3201, 147.8539
808.8022, 147.0734
809.2844, 145.9713
809.7665, 144.3764
810.2486, 141.7796
810.7307, 137.3933
811.2128, 132.0394
811.6949, 128.4028
812.1771, 127.9380
812.6592, 126.2545
813.1413, 122.2149
813.6234, 118.2472
814.1055, 115.4590
814.5876, 113.3761
815.0698, 111.1516
815.5519, 108.6739
816.0340, 106.9419
816.5161, 106.8407
816.9982, 107.6178
817.4803, 108.8248
817.9625, 110.1496
818.4446, 110.5653
818.9267, 109.9249
819.4088, 109.5170
819.8909, 110.5040
820.3730, 112.4420
820.8552, 113.8567
821.3373, 114.8735
821.8194, 114.8539
822.3015, 112.5623
822.7836, 111.1049
823.2657, 113.0523
823.7479, 116.8502
824.2300, 119.5355
824.7121, 121.2212
825.1942, 121.8903
825.6763, 121.0103
826.1584, 119.3470
826.6406, 116.8879
827.1227, 114.2390
827.6048, 112.6359
828.0869, 111.9843
828.5690, 110.3253
829.0511, 105.6132
829.5333, 99.48517
830.0154, 94.76956
830.4975, 91.29947
830.9796, 88.23734
831.4617, 85.41431
831.9438, 82.40042
832.4260, 78.80521
832.9081, 74.90872
833.3902, 71.59900
833.8723, 69.36469
834.3544, 66.39859
834.8365, 62.00388
835.3187, 57.76477
835.8008, 54.14093
836.2829, 51.09412
836.7650, 48.79596
837.2471, 47.28262
837.7292, 45.28119
838.2114, 41.83069
838.6935, 38.33780
839.1756, 35.37650
839.6577, 33.07986
840.1398, 31.88431
840.6219, 31.60852
841.1041, 31.38171
841.5862, 30.52612
842.0683, 29.19443
842.5504, 27.31357
843.0325, 25.05017
843.5146, 23.66879
843.9968, 23.38571
844.4789, 23.11545
844.9610, 22.30487
845.4431, 21.14883
845.9252, 19.93045
846.4073, 18.35040
846.8895, 17.37045
847.3716, 17.75079
847.8537, 17.76764
848.3358, 16.63394
848.8179, 15.36621
849.3000, 14.88190
849.7822, 14.98926
850.2643, 14.97531
850.7464, 14.69501
851.2285, 14.08051
851.7106, 12.80630
852.1927, 11.37607
852.6749, 10.26614
853.1570, 9.567078
853.6391, 9.338501
854.1212, 9.608124
854.6033, 10.12085
855.0854, 10.79327
855.5676, 11.43271
856.0497, 10.92694
856.5318, 9.238831
857.0139, 8.144043
857.4960, 8.394592
857.9781, 8.729736
858.4603, 7.614838
858.9424, 5.300385
859.4245, 4.413330
859.9066, 5.799255
860.3887, 6.882904
860.8708, 7.757080
861.3530, 8.013550
861.8351, 6.709961
862.3172, 4.861969
862.7993, 4.487427
863.2814, 6.206757
863.7635, 7.642639
864.2457, 7.471802
864.7278, 7.016327
865.2099, 7.465454
865.6920, 8.209137
866.1741, 7.945557
866.6563, 6.557526
867.1384, 5.232056
867.6205, 4.802826
868.1026, 5.049164
868.5847, 5.983002
869.0668, 7.353088
869.5490, 7.281036
870.0311, 5.443024
870.5132, 3.674194
870.9953, 2.960419
871.4774, 3.150116
871.9595, 4.102417
872.4417, 6.178528
872.9238, 7.098480
873.4059, 6.315918
873.8880, 5.481079
874.3701, 4.829376
874.8522, 4.294373
875.3344, 3.843048
875.8165, 3.565521
876.2986, 3.777802
876.7807, 5.313446
877.2628, 6.203033
877.7449, 5.228149
878.2271, 3.757446
878.7092, 2.829346
879.1913, 2.441986
879.6734, 2.361572
880.1555, 2.503479
880.6376, 2.608765
881.1198, 2.516388
881.6019, 2.218170
882.0840, 1.383514
882.5661, 0.2701720
883.0482, 0.1405640
883.5303, 1.281952
884.0125, 2.452484
884.4946, 2.583862
884.9767, 1.978394
885.4588, 1.653076
885.9409, 1.671356
886.4230, 1.529419
886.9052, 1.115906
887.3873, 1.005829
887.8694, 1.828766
888.3515, 2.852509
888.8336, 2.630554
889.3157, 0.8578800
889.7979, 0.2056880
890.2800, 1.888519
890.7621, 3.191437
891.2442, 3.131714
891.7263, 2.624939
892.2084, 2.481415
892.6906, 2.604431
893.1727, 2.420807
893.6548, 1.629211
894.1369, 0.8711240
894.6190, 0.6278380
895.1011, 0.2582400
895.5833, 0.4703370
896.0654, 0.2774350
896.5475, 0.4413150
897.0296, 1.024353
897.5117, 1.338043
897.9938, 0.4450070
898.4760, 0.8601990
898.9581, 1.2543000E-02
899.4402, 2.733704
899.9223, 4.120422
900.4044, 3.500061
900.8865, 2.642700
901.3687, 2.738007
901.8508, 3.142517
902.3329, 2.312439
902.8150, 0.2754820
903.2971, 1.432953
903.7792, 0.1802060
904.2614, 0.8183590
904.7435, 0.6416930
905.2256, 3.4479999E-03
905.7077, 0.7810670
906.1898, 1.542328
906.6719, 1.468796
907.1541, 0.3354800
907.6362, 1.711609
908.1183, 2.035278
908.6004, 1.839386
909.0825, 1.257904
909.5646, 0.5188750
910.0468, 0.1011200
910.5289, 0.5223850
911.0110, 0.7962040
911.4931, 1.005753
911.9752, 1.044327
912.4573, 0.7523500
912.9395, 0.2160950
913.4216, 0.4062500
913.9037, 1.079971
914.3858, 1.970535
914.8679, 3.245087
915.3500, 4.168716
915.8321, 2.891373
916.3142, 0.1191860
916.7963, 0.9564060
917.2784, 0.6040650
917.7606, 2.193680
918.2427, 3.072388
918.7248, 3.332520
919.2069, 2.968201
919.6890, 2.088150
920.1711, 1.548218
920.6533, 1.645264
921.1354, 1.349915
921.6175, 0.1718140
922.0996, 0.8678130
922.5817, 1.411407
923.0638, 1.410339
923.5460, 0.5302890
924.0281, 1.407394
924.5102, 2.619278
924.9923, 2.428909
925.4744, 2.026062
925.9565, 1.766800
926.4387, 1.530594
926.9208, 1.128448
927.4029, 0.6383360
927.8850, 0.3091130
928.3671, 0.2148280
928.8492, 0.3491970
929.3314, 1.276230
929.8135, 1.977631
930.2956, 0.6875610
930.7777, 1.594193
931.2598, 2.576126
931.7419, 1.778259
932.2241, 0.2343600
932.7062, 1.439178
933.1883, 2.907547
933.6704, 3.385834
934.1525, 3.095291
934.6346, 3.111053
935.1168, 3.518311
935.5989, 3.558121
936.0810, 2.849670
936.5631, 1.820862
937.0452, 0.9513240
937.5273, 0.2809910
938.0095, 0.6342470
938.4916, 2.488159
938.9737, 3.312744
939.4558, 2.159012
939.9379, 0.8845060
940.4200, 0.8182530
940.9022, 1.524628
941.3843, 1.935333
941.8664, 2.087967
942.3485, 1.821564
942.8306, 2.5899999E-04
943.3127, 0.7648770
943.7949, 1.222687
944.2770, 3.758835
944.7591, 4.990234
945.2412, 4.994659
945.7233, 4.596344
946.2054, 3.819244
946.6876, 3.001099
947.1697, 1.639801
947.6518, 0.8888090
948.1339, 2.266617
948.6160, 4.549225
949.0981, 5.810623
949.5803, 5.695572
950.0624, 5.164688
950.5445, 4.563171
951.0266, 4.172241
951.5087, 4.150314
951.9908, 4.536774
952.4730, 5.960464
952.9551, 7.885605
953.4372, 8.059662
953.9193, 5.613495
954.4014, 2.889343
954.8835, 2.589691
955.3657, 4.044159
955.8478, 5.670242
956.3299, 7.309479
956.8120, 8.214981
957.2941, 8.174911
957.7762, 7.733505
958.2584, 7.175858
958.7405, 6.713516
959.2226, 6.743210
959.7047, 7.264999
960.1868, 8.409317
960.6689, 10.41359
961.1511, 11.90422
961.6332, 12.55530
962.1153, 12.90129
962.5974, 13.45712
963.0795, 14.14014
963.5616, 14.44817
964.0438, 13.94597
964.5259, 14.09166
965.0080, 15.20312
965.4901, 16.68855
965.9722, 18.89728
966.4543, 21.02777
966.9365, 21.93666
967.4186, 21.75006
967.9007, 22.16870
968.3828, 24.17709
968.8649, 25.68016
969.3470, 25.58385
969.8292, 25.50111
970.3113, 26.89893
970.7934, 28.84100
971.2755, 29.40923
971.7576, 28.40172
972.2397, 28.31029
972.7219, 31.38742
973.2040, 34.49547
973.6861, 35.33456
974.1682, 35.30028
974.6503, 36.10316
975.1324, 37.63029
975.6146, 38.70694
976.0967, 38.92763
976.5788, 38.65251
977.0609, 38.00018
977.5430, 37.18243
978.0251, 36.67976
978.5073, 36.19858
978.9894, 34.78963
979.4715, 32.55070
979.9536, 30.68172
980.4357, 29.85855
980.9178, 28.07726
981.4000, 28.05136
981.8821, 26.23991
982.3642, 25.40320
982.8463, 25.41289
983.3284, 24.95517
983.8105, 23.70985
984.2927, 22.31619
984.7748, 21.23071
985.2569, 20.38116
985.7390, 19.67191
986.2211, 19.12914
986.7032, 18.25070
987.1854, 16.95627
987.6675, 15.75531
988.1496, 14.73969
988.6317, 13.90350
989.1138, 13.52043
989.5959, 13.51189
990.0781, 13.07431
990.5602, 11.92360
991.0423, 10.88339
991.5244, 9.725800
992.0065, 9.175064
992.4886, 10.24867
992.9708, 11.28462
993.4529, 9.960403
993.9350, 6.583633
994.4171, 4.825684
994.8992, 6.098175
995.3813, 6.781494
995.8635, 6.456268
996.3456, 5.927673
996.8277, 5.465530
997.3098, 5.030930
997.7919, 4.496307
998.2740, 3.889313
998.7562, 3.550674
999.2383, 3.626297
999.7204, 3.861786
1000.203, 4.295975
1000.685, 4.733398
1001.167, 5.295853
1001.649, 5.789825
1002.131, 5.526276
1002.613, 4.446213
1003.095, 3.457230
1003.577, 3.106735
1004.059, 2.760803
1004.542, 1.832962
1005.024, 0.9254460
1005.506, 0.7227170
1005.988, 1.037994
1006.470, 1.416260
1006.952, 1.698120
1007.434, 1.654602
1007.916, 0.4819950
1008.398, 0.4243470
1008.881, 0.6881260
1009.363, 2.688309
1009.845, 4.275482
1010.327, 5.125870
1010.809, 4.753021
1011.291, 3.035812
1011.773, 1.464813
1012.255, 1.837509
1012.738, 2.895950
1013.220, 2.580963
1013.702, 1.400803
1014.184, 0.4505620
1014.666, 6.8939000E-02
1015.148, 0.1175080
1015.630, 0.3268130
1016.112, 0.8328400
1016.594, 0.7079010
1017.077, 1.339050
1017.559, 0.9031220
1018.041, 2.196625
1018.523, 3.177887
1019.005, 3.629089
1019.487, 3.133652
1019.969, 1.358673
1020.451, 0.3957060
1020.934, 3.5232998E-02
1021.416, 2.077377
1021.898, 4.337830
1022.380, 6.688522
1022.862, 6.380859
1023.344, 2.684402
1023.826, 0.4838410
1024.308, 0.6499630
1024.791, 0.9868160
1025.273, 2.445984
1025.755, 3.723221
1026.237, 4.476807
1026.719, 4.692444
1027.201, 4.343643
1027.683, 3.204376
1028.165, 2.529251
1028.647, 3.321716
1029.130, 4.801193
1029.612, 5.313400
1030.094, 4.774582
1030.576, 4.429443
1031.058, 4.492340
1031.540, 3.886703
1032.022, 1.920639
1032.504, 0.3055880
1032.986, 0.3951110
1033.469, 1.483658
1033.951, 1.951050
1034.433, 1.636093
1034.915, 1.762375
1035.397, 2.972687
1035.879, 3.166656
1036.361, 1.125320
1036.843, 0.8346710
1037.326, 1.169449
1037.808, 0.4168850
1038.290, 5.3557999E-02
1038.772, 0.1390530
1039.254, 0.4278870
1039.736, 1.287292
1040.218, 1.760574
1040.700, 1.231323
1041.182, 0.7204740
1041.665, 0.9231110
1042.147, 1.660889
1042.629, 2.714218
1043.111, 4.455231
1043.593, 4.919250
1044.075, 2.781021
1044.557, 1.185730
1045.039, 0.8770600
1045.521, 1.042252
1046.004, 1.260361
1046.486, 1.465195
1046.968, 1.493866
1047.450, 1.250092
1047.932, 1.326492
1048.414, 2.308914
1048.896, 2.948029
1049.378, 2.523880
1049.861, 2.033340
1050.343, 2.188843
1050.825, 2.799591
1051.307, 3.580856
1051.789, 4.613144
1052.271, 4.845291
1052.753, 3.060760
1053.235, 1.724655
1053.718, 1.816849
1054.200, 2.434296
1054.682, 3.224640
1055.164, 3.946152
1055.646, 4.105957
1056.128, 3.638672
1056.610, 3.111847
1057.092, 2.077667
1057.574, 1.807129
1058.057, 3.790237
1058.539, 5.706635
1059.021, 5.457214
1059.503, 4.021164
1059.985, 3.184799
1060.467, 3.288483
1060.949, 3.425278
1061.431, 3.557510
1061.913, 3.320847
1062.396, 2.008942
1062.878, 0.8314820
1063.360, 0.8961490
1063.842, 1.679199
1064.324, 2.178955
1064.806, 2.256653
1065.288, 2.527069
1065.770, 3.565048
1066.253, 4.351242
1066.735, 4.164871
1067.217, 3.918564
1067.699, 4.835373
1068.181, 5.927597
1068.663, 5.059799
1069.145, 2.285065
1069.627, 0.9053340
1070.109, 3.512527
1070.592, 5.427719
1071.074, 3.656418
1071.556, 1.338684
1072.038, 0.5262760
1072.520, 0.7855070
1073.002, 1.385056
1073.484, 2.121368
1073.966, 2.735840
1074.448, 3.115402
1074.931, 3.411957
1075.413, 3.906494
1075.895, 4.124649
1076.377, 3.372696
1076.859, 2.349258
1077.341, 2.047699
1077.823, 2.441055
1078.305, 2.807083
1078.788, 3.057495
1079.270, 2.888123
1079.752, 1.170609
1080.234, 5.5831999E-02
1080.716, 1.960068
1081.198, 4.626068
1081.680, 5.137665
1082.162, 3.841995
1082.644, 2.787613
1083.127, 2.578049
1083.609, 3.050919
1084.091, 5.423447
1084.573, 6.964554
1085.055, 4.788345
1085.537, 1.874237
1086.019, 1.740372
1086.501, 3.637848
1086.984, 4.718842
1087.466, 4.183533
1087.948, 3.641205
1088.430, 3.764313
1088.912, 3.975891
1089.394, 4.135635
1089.876, 4.213837
1090.358, 4.031570
1090.840, 3.796753
1091.323, 3.965652
1091.805, 4.629272
1092.287, 5.265945
1092.769, 6.549683
1093.251, 6.609833
1093.733, 2.615570
1094.215, 0.9046780
1094.697, 0.7667390
1095.179, 4.731491
1095.662, 6.120407
1096.144, 4.405884
1096.626, 2.974976
1097.108, 3.117218
1097.590, 3.309570
1098.072, 3.116745
1098.554, 2.765747
1099.036, 2.384933
1099.519, 1.916031
1100.001, 1.256760
1100.483, 0.4387050
1100.965, 0.3951420
1101.447, 1.596695
1101.929, 1.936066
1102.411, 8.4487997E-02
1102.893, 1.484253
1103.375, 1.334564
1103.858, 0.5341490
1104.340, 3.9841000E-02
1104.822, 0.2475280
1105.304, 0.1688390
1105.786, 1.594681
1106.268, 2.406784
1106.750, 1.520660
1107.232, 1.031647
1107.714, 2.507126
1108.197, 3.825684
1108.679, 2.588989
1109.161, 0.1223910
1109.643, 0.2350620
1110.125, 2.195251
1110.607, 3.620071
1111.089, 3.197388
1111.571, 2.414795
1112.054, 0.7387080
1112.536, 0.3390660
1113.018, 0.5511020
1113.500, 2.290298
1113.982, 3.118698
1114.464, 3.001083
1114.946, 3.062668
1115.428, 4.010956
1115.911, 3.918549
1116.393, 1.154037
1116.875, 0.4992370
1117.357, 1.437378
1117.839, 4.290527
1118.321, 5.303986
1118.803, 4.682922
1119.285, 3.522781
1119.767, 1.018829
1120.250, 0.1078950
1120.732, 1.899231
1121.214, 2.940018
1121.696, 1.614197
1122.178, 0.2821810
1122.660, 1.090759
1123.142, 3.121994
1123.624, 3.947479
1124.106, 3.389267
1124.589, 2.969940
1125.071, 2.697830
1125.553, 2.557159
1126.035, 2.593613
1126.517, 2.636215
1126.999, 2.652328
1127.481, 2.430603
1127.963, 1.513168
1128.446, 2.3972001E-02
1128.928, 0.4709930
1129.410, 0.1418910
1129.892, 0.7054600
1130.374, 1.080994
1130.856, 1.623596
1131.338, 2.551849
1131.820, 3.175507
1132.302, 2.622147
1132.785, 1.454880
1133.267, 1.561493
1133.749, 2.845642
1134.231, 3.913849
1134.713, 4.682373
1135.195, 4.391815
1135.677, 2.843338
1136.159, 1.400436
1136.641, 1.024216
1137.124, 1.401627
1137.606, 2.514664
1138.088, 3.842621
1138.570, 2.826813
1139.052, 0.1508030
1139.534, 0.7680050
1140.016, 0.4139860
1140.498, 1.892883
1140.981, 2.813599
1141.463, 3.463104
1141.945, 4.283691
1142.427, 4.853790
1142.909, 4.159653
1143.391, 2.772858
1143.873, 1.937469
1144.355, 1.594025
1144.838, 0.9292300
1145.320, 0.1353610
1145.802, 0.4011230
1146.284, 1.184372
1146.766, 3.073975
1147.248, 3.827621
1147.730, 3.892548
1148.212, 3.541489
1148.694, 3.047668
1149.177, 2.852661
1149.659, 2.909119
1150.141, 2.826141
1150.623, 2.468246
1151.105, 1.843689
1151.587, 0.2076570
1152.069, 0.8836820
1152.551, 0.7155300
1153.033, 2.727783
1153.516, 2.574783
1153.998, 1.117462
1154.480, 0.5240780
1154.962, 1.146240
1155.444, 1.561508
1155.926, 0.4501040
1156.408, 0.3381200
1156.890, 3.543549
1157.373, 6.167938
1157.855, 5.163849
1158.337, 2.973740
1158.819, 2.567123
1159.301, 3.632248
1159.783, 4.056564
1160.265, 3.359909
1160.747, 3.221985
1161.229, 4.664658
1161.712, 5.332794
1162.194, 3.646042
1162.676, 2.309891
1163.158, 3.853226
1163.640, 2.750320
1164.122, 2.632080
1164.604, 3.461533
1165.086, 2.424286
1165.568, 3.871872
1166.051, 4.981094
1166.533, 5.716064
1167.015, 5.223770
1167.497, 2.678802
1167.979, 0.3752290
1168.461, 0.7637020
1168.943, 2.930649
1169.425, 3.903931
1169.908, 3.631744
1170.390, 3.797256
1170.872, 4.506393
1171.354, 4.631470
1171.836, 3.902496
1172.318, 3.111298
1172.800, 2.722275
1173.282, 2.648911
1173.765, 2.846573
1174.247, 3.208954
1174.729, 3.390701
1175.211, 3.523392
1175.693, 3.752563
1176.175, 4.063675
1176.657, 4.467972
1177.139, 4.897995
1177.621, 4.652924
1178.104, 2.957306
1178.586, 1.299240
1179.068, 1.537964
1179.550, 2.807358
1180.032, 4.533218
1180.514, 6.145004
1180.996, 6.273849
1181.478, 5.286636
1181.960, 5.384460
1182.443, 7.415680
1182.925, 8.927704
1183.407, 8.065628
1183.889, 6.760681
1184.371, 5.886063
1184.853, 5.369949
1185.335, 5.127014
1185.817, 5.187958
1186.300, 5.897507
1186.782, 7.090546
1187.264, 7.493164
1187.746, 6.307495
1188.228, 5.324341
1188.710, 4.589890
1189.192, 4.455566
1189.674, 5.940109
1190.156, 7.196945
1190.639, 6.216461
1191.121, 4.232605
1191.603, 4.080505
1192.085, 5.970993
1192.567, 6.816711
1193.049, 6.196289
1193.531, 5.861771
1194.013, 5.956558
1194.495, 6.126297
1194.978, 6.237381
1195.460, 6.384399
1195.942, 6.648209
1196.424, 7.012039
1196.906, 7.568573
1197.388, 8.235367
1197.870, 7.939911
1198.352, 6.707977
1198.835, 6.371536
1199.317, 7.221664
1199.799, 7.805145
1200.281, 7.357758
1200.763, 6.388657
1201.245, 5.157333
1201.727, 4.207458
1202.209, 4.931747
1202.692, 6.498566
1203.174, 7.344254
1203.656, 7.420792
1204.138, 7.022751
1204.620, 6.195068
1205.102, 4.932190
1205.584, 3.100616
1206.066, 1.721512
1206.548, 1.279373
1207.031, 1.520828
1207.513, 2.827896
1207.995, 4.208755
1208.477, 4.382629
1208.959, 3.897186
1209.441, 4.245407
1209.923, 5.557144
1210.405, 6.130234
1210.887, 4.490158
1211.370, 3.442673
1211.852, 4.252975
1212.334, 4.698471
1212.816, 3.368164
1213.298, 1.791397
1213.780, 1.060577
1214.262, 1.099792
1214.744, 1.792648
1215.227, 3.199677
1215.709, 4.514191
1216.191, 5.874100
1216.673, 6.608429
1217.155, 6.656555
1217.637, 5.815353
1218.119, 3.862839
1218.601, 1.866104
1219.083, 0.9369660
1219.566, 0.7177730
1220.048, 9.9564001E-02
1220.530, 0.5689700
1221.012, 0.9723510
1221.494, 4.081406
1221.976, 5.603592
1222.458, 5.106094
1222.940, 3.437622
1223.422, 1.060730
1223.905, 0.3633880
1224.387, 1.215652
1224.869, 3.513153
1225.351, 4.256439
1225.833, 4.141953
1226.315, 3.838303
1226.797, 3.429672
1227.279, 2.709961
1227.762, 1.864578
1228.244, 1.712311
1228.726, 2.681778
1229.208, 3.342560
1229.690, 2.619431
1230.172, 2.209732
1230.654, 3.168365
1231.136, 4.128326
1231.619, 4.193176
1232.101, 3.721130
1232.583, 2.989746
1233.065, 2.152222
1233.547, 2.210571
1234.029, 3.514877
1234.511, 4.584274
1234.993, 5.559952
1235.475, 5.763992
1235.958, 4.994156
1236.440, 3.536606
1236.922, 1.408783
1237.404, 0.5527500
1237.886, 1.260574
1238.368, 0.8644260
1238.850, 0.5089720
1239.332, 2.539627
1239.814, 4.007736
1240.297, 4.880096
1240.779, 5.527664
1241.261, 5.972534
1241.743, 5.669815
1242.225, 4.283035
1242.707, 3.062683
1243.189, 3.154007
1243.671, 3.864990
1244.154, 5.353699
1244.636, 6.432327
1245.118, 5.276291
1245.600, 3.068192
1246.082, 1.872833
1246.564, 1.811966
1247.046, 1.908905
1247.528, 1.964325
1248.010, 2.099335
1248.493, 2.724091
1248.975, 2.859421
1249.457, 1.964218
1249.939, 0.8827670
1250.421, 0.2413180
1250.903, 0.8450320
1251.385, 3.3493001E-02
1251.867, 1.960083
1252.349, 2.375992
1252.832, 1.100891
1253.314, 0.3664700
1253.796, 0.2146610
1254.278, 0.3072970
1254.760, 0.4094850
1255.242, 0.4762420
1255.724, 0.7172090
1256.206, 1.050064
1256.689, 1.562851
1257.171, 1.946686
1257.653, 1.490601
1258.135, 0.7158360
1258.617, 0.3437810
1259.099, 0.4331820
1259.581, 1.281784
1260.063, 2.546188
1260.546, 2.853653
1261.028, 1.583542
1261.510, 0.7266080
1261.992, 1.772369
1262.474, 2.053207
1262.956, 0.2513890
1263.438, 1.171951
1263.920, 8.8225998E-02
1264.402, 2.231628
1264.885, 3.137787
1265.367, 3.047653
1265.849, 2.865509
1266.331, 2.622269
1266.813, 1.863480
1267.295, 0.3275600
1267.777, 0.2554780
1268.259, 0.4156340
1268.741, 0.7906040
1269.224, 1.012161
1269.706, 1.385406
1270.188, 2.357254
1270.670, 3.332916
1271.152, 2.492828
1271.634, 3.807968
1272.116, 2.040085
1272.598, 4.282898
1273.081, 4.440048
1273.563, 2.997955
1274.045, 2.479538
1274.527, 3.742401
1275.009, 4.727905
1275.491, 6.190613
1275.973, 6.600555
1276.455, 3.950089
1276.938, 1.551178
1277.420, 1.619781
1277.902, 2.697205
1278.384, 2.890442
1278.866, 2.460037
1279.348, 2.030670
1279.830, 1.613724
1280.312, 1.356903
1280.794, 1.296753
1281.276, 1.351929
1281.759, 1.470718
1282.241, 1.960190
1282.723, 2.938492
1283.205, 3.307007
1283.687, 2.368240
1284.169, 1.043076
1284.651, 0.5032500
1285.133, 0.4151920
1285.616, 0.1899110
1286.098, 0.0000000E+00
##END=



