##NAMES=Magnesiotaaffeite-2N2S
##RRUFFID=X090001
##IDEAL CHEMISTRY=Mg_3_BeAl_8_O_16_
##LOCALITY=Ratnapura, Sri Lanka
##OWNER=Bill Pinch
##SOURCE=William W. Pinch
##DESCRIPTION=Dark grey with a hint of purple, flattened tabular hexagonal crystal
##STATUS=The identification of this mineral has been confirmed by single-crystal X-ray diffraction.
##URL=rruff.info/X090001
113.5901, 0.0000000E+00
114.0722, 2.516769
114.5543, 3.315155
115.0364, 1.421921
115.5185, 0.1861110
116.0007, 1.092560
116.4828, 3.986435
116.9649, 4.774185
117.4470, 4.913528
117.9291, 4.548737
118.4112, 3.413544
118.8934, 0.5641170
119.3755, 0.7201690
119.8576, 1.091171
120.3397, 3.708038
120.8218, 5.331223
121.3039, 5.202316
121.7861, 3.924011
122.2682, 3.195816
122.7503, 3.924118
123.2324, 1.842560
123.7145, 4.770050
124.1966, 6.388657
124.6788, 6.768768
125.1609, 2.186630
125.6430, 4.022232
126.1251, 3.291595
126.6072, 2.459488
127.0893, 5.210052
127.5715, 1.371201
128.0536, 4.073853
128.5357, 4.171249
129.0178, 5.467102
129.4999, 4.181030
129.9821, 3.697403
130.4642, 5.804199
130.9463, 6.482010
131.4284, 4.911865
131.9105, 6.304413
132.3926, 2.411835
132.8748, 3.162186
133.3569, 5.917480
133.8390, 4.491135
134.3211, 5.944244
134.8032, 6.303970
135.2853, 1.686523
135.7674, 5.731369
136.2496, 6.033127
136.7317, 2.492218
137.2138, 6.247528
137.6959, 3.241180
138.1780, 2.651505
138.6601, 3.881485
139.1423, 3.220032
139.6244, 5.548111
140.1065, 5.008408
140.5886, 4.216171
141.0707, 4.550156
141.5528, 1.710022
142.0350, 4.768433
142.5171, 3.800842
142.9992, 4.838486
143.4813, 6.333328
143.9634, 4.357819
144.4455, 6.064072
144.9277, 2.066238
145.4098, 2.842545
145.8919, 3.105301
146.3740, 6.420837
146.8561, 2.454727
147.3382, 3.103180
147.8204, 5.717117
148.3025, 5.584015
148.7846, 6.601364
149.2667, 5.911011
149.7488, 5.890442
150.2309, 5.025024
150.7131, 4.134644
151.1952, 3.217621
151.6773, 2.448959
152.1594, 2.505203
152.6415, 4.037842
153.1236, 6.173187
153.6058, 7.558746
154.0879, 8.096039
154.5700, 8.174072
155.0521, 8.014221
155.5342, 7.612518
156.0163, 7.101273
156.4985, 6.081680
156.9806, 5.221039
157.4627, 5.233536
157.9448, 6.407791
158.4269, 7.966904
158.9090, 8.764969
159.3912, 8.610733
159.8733, 8.157867
160.3554, 7.118546
160.8375, 6.094635
161.3196, 5.679916
161.8017, 6.170197
162.2839, 7.248169
162.7660, 7.927658
163.2481, 7.848709
163.7302, 7.789948
164.2123, 7.983383
164.6944, 8.235992
165.1766, 8.289246
165.6587, 8.054626
166.1408, 7.679855
166.6229, 7.374588
167.1050, 6.786285
167.5871, 6.617630
168.0693, 7.462433
168.5514, 8.998016
169.0335, 10.06944
169.5156, 10.13547
169.9977, 9.326492
170.4798, 9.143082
170.9620, 10.43927
171.4441, 11.50575
171.9262, 11.18301
172.4083, 9.736832
172.8904, 8.490646
173.3725, 8.494873
173.8547, 9.629303
174.3368, 10.26041
174.8189, 10.12360
175.3010, 9.642410
175.7831, 9.047363
176.2652, 8.338043
176.7474, 7.865158
177.2295, 8.096146
177.7116, 8.854721
178.1937, 9.353607
178.6758, 9.249115
179.1579, 8.850510
179.6401, 8.593018
180.1222, 8.480896
180.6043, 8.524536
181.0864, 8.788116
181.5685, 9.193100
182.0506, 9.629013
182.5328, 10.13083
183.0149, 10.61870
183.4970, 10.81975
183.9791, 10.57716
184.4612, 10.26721
184.9433, 9.946396
185.4255, 9.688019
185.9076, 9.661621
186.3897, 10.13254
186.8718, 11.00021
187.3539, 11.14699
187.8360, 9.927032
188.3182, 8.594406
188.8003, 7.257538
189.2824, 6.085007
189.7645, 5.327393
190.2466, 5.210953
190.7287, 5.753983
191.2109, 6.487823
191.6930, 7.987015
192.1751, 9.132507
192.6572, 9.313080
193.1393, 8.771973
193.6214, 8.217270
194.1036, 8.318069
194.5857, 9.227936
195.0678, 9.508423
195.5499, 8.683151
196.0320, 7.813995
196.5141, 7.497498
196.9963, 7.662872
197.4784, 7.767120
197.9605, 7.238495
198.4426, 5.933807
198.9247, 5.285294
199.4068, 5.920486
199.8890, 6.668594
200.3711, 6.605881
200.8532, 5.715439
201.3353, 4.850494
201.8174, 4.875305
202.2995, 5.857681
202.7817, 6.475021
203.2638, 6.858322
203.7459, 6.754807
204.2280, 5.504364
204.7101, 2.959183
205.1922, 0.7510680
205.6744, 0.7965700
206.1565, 2.617004
206.6386, 3.955002
207.1207, 4.042480
207.6028, 3.533829
208.0849, 3.365692
208.5671, 3.705795
209.0492, 3.988312
209.5313, 3.647110
210.0134, 2.904388
210.4955, 2.196136
210.9776, 1.577454
211.4598, 1.111725
211.9419, 1.006516
212.4240, 1.453293
212.9061, 1.863907
213.3882, 1.841675
213.8703, 1.543503
214.3525, 1.245590
214.8346, 1.098923
215.3167, 1.060318
215.7988, 0.9999540
216.2809, 1.011536
216.7630, 0.8312380
217.2451, 0.1651460
217.7273, 0.7241360
218.2094, 1.383011
218.6915, 1.510681
219.1736, 1.180557
219.6557, 0.8103490
220.1378, 0.2707210
220.6200, 0.1364140
221.1021, 0.3533940
221.5842, 0.3836360
222.0663, 0.1897280
222.5484, 0.3242650
223.0305, 1.082565
223.5127, 1.343475
223.9948, 0.4662630
224.4769, 0.2699130
224.9590, 0.4788210
225.4411, 0.3740390
225.9232, 0.3871770
226.4054, 0.8470610
226.8875, 1.675720
227.3696, 1.939850
227.8517, 0.9372100
228.3338, 8.7906003E-02
228.8159, 0.1819610
229.2981, 9.2072003E-02
229.7802, 9.8038003E-02
230.2623, 0.5246120
230.7444, 1.298706
231.2265, 1.561020
231.7086, 1.216644
232.1908, 0.5211640
232.6729, 0.8374180
233.1550, 2.497772
233.6371, 3.845062
234.1192, 4.524780
234.6013, 4.557144
235.0835, 4.014114
235.5656, 1.845490
236.0477, 0.3412020
236.5298, 0.5428470
237.0119, 1.932571
237.4940, 3.398941
237.9762, 4.362671
238.4583, 4.885406
238.9404, 5.258804
239.4225, 5.603271
239.9046, 5.708710
240.3867, 5.120819
240.8689, 4.200699
241.3510, 3.986450
241.8331, 5.235855
242.3152, 7.254745
242.7973, 7.951111
243.2794, 6.788605
243.7616, 5.424408
244.2437, 4.295181
244.7258, 3.477585
245.2079, 3.322372
245.6900, 4.242691
246.1721, 5.593079
246.6543, 6.042542
247.1364, 5.358765
247.6185, 4.538055
248.1006, 3.970398
248.5827, 3.650269
249.0648, 3.568130
249.5470, 3.778748
250.0291, 4.174118
250.5112, 4.572845
250.9933, 4.969223
251.4754, 5.398956
251.9576, 5.940063
252.4397, 6.549408
252.9218, 7.085434
253.4039, 7.626495
253.8860, 7.900620
254.3681, 7.454575
254.8503, 6.287231
255.3324, 5.429901
255.8145, 5.690659
256.2966, 6.870667
256.7787, 7.991928
257.2608, 8.990448
257.7430, 9.734192
258.2251, 10.15042
258.7072, 10.26001
259.1893, 10.19556
259.6714, 9.866577
260.1535, 9.368240
260.6357, 9.348663
261.1178, 10.54556
261.5999, 11.26999
262.0820, 9.953888
262.5641, 7.256882
263.0462, 5.184753
263.5284, 5.278870
264.0105, 7.224915
264.4926, 9.097046
264.9747, 11.14461
265.4568, 12.67805
265.9389, 13.20395
266.4211, 13.05402
266.9032, 12.90526
267.3853, 13.24036
267.8674, 13.88893
268.3495, 14.07678
268.8316, 13.46159
269.3138, 12.88773
269.7959, 12.64886
270.2780, 12.65738
270.7601, 12.75804
271.2422, 12.81845
271.7243, 12.92940
272.2065, 13.47133
272.6886, 15.01334
273.1707, 15.98769
273.6528, 15.68549
274.1349, 14.78979
274.6170, 14.02116
275.0992, 13.67647
275.5813, 13.66760
276.0634, 13.91531
276.5455, 14.58418
277.0276, 15.35481
277.5097, 16.49774
277.9919, 17.54765
278.4740, 17.96446
278.9561, 17.54875
279.4382, 16.69855
279.9203, 16.11259
280.4024, 15.72704
280.8846, 15.70511
281.3667, 16.18190
281.8488, 17.05836
282.3309, 18.33008
282.8130, 19.88327
283.2951, 21.30779
283.7773, 21.91064
284.2594, 21.26590
284.7415, 21.06161
285.2236, 22.01382
285.7057, 22.86488
286.1878, 22.62477
286.6700, 21.31662
287.1521, 19.88583
287.6342, 19.39264
288.1163, 20.00887
288.5984, 20.76305
289.0805, 22.51711
289.5627, 23.66217
290.0448, 22.80772
290.5269, 20.46175
291.0090, 18.48808
291.4911, 18.79820
291.9732, 21.62617
292.4554, 22.97176
292.9375, 21.60425
293.4196, 20.17496
293.9017, 19.60124
294.3838, 19.65929
294.8659, 19.61307
295.3481, 18.86615
295.8302, 17.54572
296.3123, 17.10320
296.7944, 18.88809
297.2765, 20.17137
297.7586, 20.20862
298.2408, 19.45078
298.7229, 18.50778
299.2050, 17.69463
299.6871, 17.08730
300.1692, 17.00591
300.6513, 18.43405
301.1335, 19.19484
301.6156, 18.39417
302.0977, 17.12874
302.5798, 16.76868
303.0619, 17.83321
303.5440, 19.49362
304.0262, 19.95190
304.5083, 17.78592
304.9904, 16.52930
305.4725, 16.84363
305.9546, 17.62903
306.4367, 17.99596
306.9189, 17.73947
307.4010, 17.27036
307.8831, 17.22598
308.3652, 18.07230
308.8473, 18.06575
309.3294, 16.90672
309.8116, 15.29443
310.2937, 13.39442
310.7758, 11.37570
311.2579, 9.595154
311.7400, 8.437485
312.2221, 7.970688
312.7043, 7.606506
313.1864, 7.521286
313.6685, 7.350464
314.1506, 6.862534
314.6327, 6.159683
315.1148, 5.509628
315.5970, 5.116394
316.0791, 4.958832
316.5612, 4.746887
317.0433, 4.578552
317.5254, 4.245407
318.0075, 3.601471
318.4897, 2.785461
318.9718, 1.917648
319.4539, 1.043869
319.9360, 0.3108520
320.4181, 0.1970370
320.9002, 1.309692
321.3824, 2.331497
321.8645, 3.452972
322.3466, 4.329544
322.8287, 4.485977
323.3108, 3.803833
323.7929, 2.769196
324.2751, 2.228928
324.7572, 2.486313
325.2393, 2.683701
325.7214, 3.040863
326.2035, 3.193008
326.6856, 2.679825
327.1678, 1.574738
327.6499, 0.5111240
328.1320, 0.2011110
328.6141, 0.8073880
329.0962, 1.388474
329.5783, 2.275223
330.0605, 2.834915
330.5426, 2.529999
331.0247, 1.634796
331.5068, 0.8944090
331.9889, 0.9139250
332.4710, 1.624268
332.9532, 1.897369
333.4353, 1.163773
333.9174, 0.5920100
334.3995, 0.4960330
334.8816, 0.6780550
335.3637, 0.8360600
335.8459, 0.8153530
336.3280, 0.6999050
336.8101, 0.7697910
337.2922, 1.472275
337.7743, 1.662033
338.2564, 0.8320010
338.7386, 0.2643280
339.2206, 1.012222
339.7028, 1.228836
340.1849, 1.058517
340.6670, 0.6148530
341.1491, 0.4688260
341.6312, 0.8794860
342.1133, 4.0084999E-02
342.5955, 0.9968720
343.0776, 1.154007
343.5597, 0.5908970
344.0418, 1.2650000E-02
344.5239, 0.1045230
345.0060, 0.9105380
345.4882, 1.611069
345.9703, 2.413513
346.4524, 2.881424
346.9345, 2.678314
347.4166, 2.069305
347.8987, 1.574158
348.3809, 1.566498
348.8630, 1.816605
349.3451, 1.322556
349.8272, 0.6613770
350.3093, 2.249939
350.7914, 3.265427
351.2736, 3.683121
351.7557, 3.248932
352.2378, 1.891571
352.7199, 0.2908630
353.2020, 0.4208220
353.6841, 7.1442001E-02
354.1663, 0.6668400
354.6484, 2.388306
355.1305, 3.958893
355.6126, 4.507446
356.0947, 4.084625
356.5768, 3.567001
357.0590, 3.919098
357.5411, 5.189484
358.0232, 6.021698
358.5053, 6.061340
358.9874, 6.026382
359.4695, 6.186050
359.9517, 6.501770
360.4338, 6.886108
360.9159, 7.352402
361.3980, 7.808517
361.8801, 7.889191
362.3622, 7.286819
362.8444, 6.997772
363.3265, 7.435211
363.8086, 8.306992
364.2907, 9.506042
364.7728, 11.10635
365.2549, 12.45314
365.7371, 12.32300
366.2192, 10.45512
366.7013, 9.545029
367.1834, 11.11311
367.6655, 13.15138
368.1476, 14.03305
368.6298, 13.75500
369.1119, 13.59456
369.5940, 14.70822
370.0761, 16.79497
370.5582, 18.43033
371.0403, 19.50378
371.5225, 20.08195
372.0046, 20.00864
372.4867, 19.51225
372.9688, 19.10550
373.4509, 19.02126
373.9330, 19.10995
374.4152, 19.27235
374.8973, 19.55922
375.3794, 19.46371
375.8615, 18.46483
376.3436, 17.03691
376.8257, 15.85692
377.3079, 14.94023
377.7900, 14.36470
378.2721, 14.48421
378.7542, 15.10814
379.2363, 15.23842
379.7184, 14.42386
380.2006, 13.30585
380.6827, 12.60931
381.1648, 12.30145
381.6469, 12.39572
382.1290, 13.32539
382.6111, 14.48885
383.0933, 14.95776
383.5754, 14.60345
384.0575, 14.05153
384.5396, 13.57199
385.0217, 13.30292
385.5038, 13.85339
385.9860, 16.34592
386.4681, 18.67271
386.9502, 19.11742
387.4323, 18.19850
387.9144, 17.84818
388.3965, 19.12674
388.8787, 21.30544
389.3608, 22.31468
389.8429, 21.12740
390.3250, 21.11580
390.8071, 23.78369
391.2892, 27.63708
391.7714, 30.99069
392.2535, 33.44501
392.7356, 35.36150
393.2177, 37.03305
393.6998, 38.29649
394.1819, 40.27560
394.6641, 43.30078
395.1462, 46.68507
395.6283, 50.19154
396.1104, 53.73311
396.5925, 57.00610
397.0746, 59.74774
397.5568, 62.21956
398.0389, 65.87910
398.5210, 72.74402
399.0031, 78.39479
399.4852, 81.66891
399.9673, 83.71686
400.4495, 85.57042
400.9316, 87.68091
401.4137, 90.23785
401.8958, 93.57442
402.3779, 98.17778
402.8600, 102.0144
403.3422, 105.3349
403.8243, 107.8758
404.3064, 109.1156
404.7885, 109.3648
405.2706, 109.4761
405.7527, 110.1325
406.2349, 111.3462
406.7170, 113.0244
407.1991, 115.3669
407.6812, 117.9549
408.1633, 120.6478
408.6454, 123.4780
409.1276, 126.3659
409.6097, 129.2361
410.0918, 132.3587
410.5739, 136.3464
411.0560, 141.3685
411.5381, 146.4945
412.0203, 151.4214
412.5024, 156.5209
412.9845, 162.4256
413.4666, 168.8445
413.9487, 174.5141
414.4308, 178.7142
414.9130, 181.4625
415.3951, 182.9195
415.8772, 183.3126
416.3593, 181.8154
416.8414, 177.3181
417.3235, 170.8599
417.8057, 163.5058
418.2878, 155.2136
418.7699, 146.6885
419.2520, 138.4786
419.7341, 130.5769
420.2162, 122.8385
420.6984, 115.0094
421.1805, 107.6858
421.6626, 101.8435
422.1447, 97.42007
422.6268, 93.04747
423.1089, 87.30707
423.5911, 81.73447
424.0732, 78.73776
424.5553, 78.60127
425.0374, 79.20981
425.5195, 79.00581
426.0016, 78.17921
426.4838, 78.05331
426.9659, 79.02654
427.4480, 80.25114
427.9301, 81.34526
428.4122, 82.41357
428.8943, 83.68896
429.3765, 85.27205
429.8586, 87.04640
430.3407, 88.80545
430.8228, 90.48065
431.3049, 92.32442
431.7870, 94.77893
432.2692, 97.06773
432.7513, 98.44424
433.2334, 99.01633
433.7155, 99.62245
434.1976, 101.0303
434.6797, 103.1132
435.1619, 104.0076
435.6440, 102.5283
436.1261, 101.1851
436.6082, 101.0126
437.0903, 100.9220
437.5724, 99.30923
438.0546, 95.69542
438.5367, 91.48180
439.0188, 89.03401
439.5009, 89.11377
439.9830, 88.50121
440.4651, 86.29507
440.9473, 84.10519
441.4294, 82.73801
441.9115, 82.03024
442.3936, 81.34195
442.8757, 80.16985
443.3578, 78.75812
443.8400, 78.10420
444.3221, 78.66432
444.8042, 78.83197
445.2863, 78.01582
445.7684, 76.55545
446.2505, 74.64532
446.7327, 72.31216
447.2148, 69.74211
447.6969, 67.14244
448.1790, 64.47781
448.6611, 61.44856
449.1432, 57.86356
449.6254, 54.21336
450.1075, 51.14957
450.5896, 48.42101
451.0717, 45.14041
451.5538, 40.52191
452.0359, 35.65327
452.5181, 31.54272
453.0002, 28.13902
453.4823, 25.17659
453.9644, 22.67853
454.4465, 20.38177
454.9286, 17.58833
455.4108, 14.03027
455.8929, 10.89410
456.3750, 8.509644
456.8571, 6.651062
457.3392, 5.006622
457.8214, 3.559036
458.3035, 2.640945
458.7856, 2.699371
459.2677, 3.754974
459.7498, 3.765518
460.2319, 2.032913
460.7141, 0.2414700
461.1962, 1.668762
461.6783, 3.183334
462.1604, 3.264832
462.6425, 1.582138
463.1246, 0.5893100
463.6068, 0.8800660
464.0889, 1.914276
464.5710, 3.387695
465.0531, 2.389999
465.5352, 1.227081
466.0173, 1.164978
466.4995, 1.876785
466.9816, 2.230301
467.4637, 1.374023
467.9458, 0.2304380
468.4279, 1.040543
468.9100, 0.7047880
469.3922, 0.4927980
469.8743, 0.7703090
470.3564, 1.328827
470.8385, 2.142242
471.3206, 3.192764
471.8027, 4.089294
472.2849, 4.539307
472.7670, 4.588501
473.2491, 4.281708
473.7312, 3.497055
474.2133, 3.007965
474.6954, 3.499069
475.1776, 4.589447
475.6597, 5.515762
476.1418, 6.095032
476.6239, 6.646057
477.1060, 7.202927
477.5881, 7.807816
478.0703, 8.797714
478.5524, 10.41328
479.0345, 12.04620
479.5166, 12.66466
479.9987, 11.93692
480.4808, 11.91354
480.9630, 13.24081
481.4451, 14.80338
481.9272, 15.83751
482.4093, 16.42950
482.8914, 17.03381
483.3735, 17.89989
483.8557, 18.87596
484.3378, 19.50983
484.8199, 19.41869
485.3020, 19.67709
485.7841, 20.73651
486.2662, 21.86864
486.7484, 22.59406
487.2305, 22.83920
487.7126, 22.69278
488.1947, 22.14836
488.6768, 21.25220
489.1589, 20.62804
489.6411, 20.67792
490.1232, 20.36423
490.6053, 19.11333
491.0874, 17.49260
491.5695, 16.15916
492.0516, 15.30771
492.5338, 14.61203
493.0159, 13.76201
493.4980, 12.77087
493.9801, 11.71262
494.4622, 10.39420
494.9443, 9.402756
495.4265, 9.789169
495.9086, 10.95851
496.3907, 11.15002
496.8728, 9.086090
497.3549, 6.645798
497.8370, 5.238480
498.3192, 4.763428
498.8013, 4.967331
499.2834, 5.922455
499.7655, 7.085236
500.2476, 7.517303
500.7297, 6.962921
501.2119, 6.586441
501.6940, 6.432556
502.1761, 6.496902
502.6582, 6.825470
503.1403, 7.375076
503.6224, 8.089935
504.1045, 8.974442
504.5866, 9.880066
505.0688, 10.25258
505.5509, 9.580399
506.0330, 9.171066
506.5151, 9.101349
506.9972, 9.294327
507.4793, 9.902771
507.9615, 10.78981
508.4436, 11.43948
508.9257, 11.39188
509.4078, 10.73320
509.8899, 9.897507
510.3720, 8.557510
510.8542, 7.758789
511.3363, 8.315903
511.8184, 9.375259
512.3005, 10.14474
512.7827, 10.47559
513.2648, 10.60889
513.7469, 10.56522
514.2290, 10.46671
514.7111, 10.69058
515.1932, 11.31268
515.6754, 12.13387
516.1575, 13.11826
516.6396, 14.18808
517.1217, 14.99954
517.6038, 15.48010
518.0859, 15.76854
518.5681, 15.71826
519.0502, 15.50499
519.5323, 15.62169
520.0144, 16.28885
520.4965, 17.10791
520.9786, 17.45097
521.4608, 17.21870
521.9429, 16.55408
522.4250, 15.43210
522.9071, 14.08972
523.3892, 12.39217
523.8713, 10.48462
524.3535, 8.560623
524.8356, 6.746719
525.3177, 5.187927
525.7998, 4.046448
526.2819, 3.282242
526.7640, 2.824997
527.2462, 2.980728
527.7283, 3.128693
528.2104, 2.941422
528.6925, 2.519119
529.1746, 2.139832
529.6567, 2.031204
530.1389, 1.845108
530.6210, 0.7874300
531.1031, 1.049469
531.5852, 1.897629
532.0673, 0.8140870
532.5494, 0.7713170
533.0316, 0.9087520
533.5137, 0.2917630
533.9958, 1.071884
534.4779, 0.8511050
534.9600, 0.2710110
535.4421, 0.3878480
535.9243, 0.9971620
536.4064, 1.154877
536.8885, 0.6105350
537.3706, 0.1905820
537.8527, 0.2589870
538.3348, 1.159576
538.8170, 1.781250
539.2991, 1.016174
539.7812, 4.8889000E-02
540.2633, 0.7006840
540.7454, 1.067154
541.2275, 0.7634430
541.7097, 0.4997560
542.1918, 2.173782
542.6739, 2.754761
543.1560, 1.931320
543.6381, 1.007126
544.1202, 0.2202450
544.6024, 1.091187
545.0845, 1.040588
545.5666, 0.1783450
546.0487, 0.8242490
546.5308, 1.713837
547.0129, 2.482895
547.4951, 3.123413
547.9772, 3.636353
548.4593, 3.995636
548.9414, 4.201950
549.4235, 4.232834
549.9056, 3.922821
550.3878, 3.153336
550.8699, 2.760300
551.3520, 3.217773
551.8341, 3.870865
552.3162, 4.242691
552.7983, 4.317062
553.2805, 4.243713
553.7626, 4.115494
554.2447, 3.871521
554.7268, 3.273438
555.2089, 1.628479
555.6910, 0.8999790
556.1732, 1.579422
556.6553, 2.682068
557.1374, 3.876755
557.6195, 4.976135
558.1016, 5.678436
558.5837, 5.745026
559.0659, 5.373734
559.5480, 4.941040
560.0301, 4.397034
560.5122, 4.174118
560.9943, 4.602478
561.4764, 5.283844
561.9586, 5.737610
562.4407, 5.933685
562.9228, 6.095093
563.4049, 6.080078
563.8870, 6.226593
564.3691, 6.994080
564.8513, 8.116547
565.3334, 9.026764
565.8155, 9.421631
566.2976, 9.640396
566.7797, 10.13754
567.2618, 11.05417
567.7440, 11.72281
568.2261, 11.84518
568.7082, 12.06030
569.1903, 12.66447
569.6724, 13.66714
570.1545, 15.11963
570.6367, 17.10385
571.1188, 19.27756
571.6009, 20.71919
572.0830, 21.21030
572.5651, 21.62587
573.0472, 21.67265
573.5294, 22.02435
574.0115, 23.44403
574.4936, 25.54753
574.9757, 27.16087
575.4578, 27.56703
575.9399, 27.49661
576.4221, 27.76918
576.9042, 28.35155
577.3863, 29.04985
577.8684, 29.91673
578.3505, 30.59761
578.8326, 30.38463
579.3148, 29.18515
579.7969, 29.26750
580.2790, 32.36856
580.7611, 35.01538
581.2432, 35.24707
581.7253, 33.97406
582.2075, 32.81163
582.6896, 32.31914
583.1717, 31.87044
583.6538, 30.45381
584.1359, 27.79195
584.6180, 26.16733
585.1002, 26.39534
585.5823, 26.71783
586.0643, 26.89886
586.5464, 26.72206
587.0286, 25.76321
587.5107, 23.83983
587.9928, 21.88481
588.4749, 20.78374
588.9570, 20.30417
589.4391, 19.99699
589.9213, 20.01265
590.4034, 19.92708
590.8855, 19.23050
591.3676, 18.09302
591.8497, 17.36812
592.3318, 17.60120
592.8140, 17.50198
593.2961, 16.05101
593.7782, 14.37505
594.2603, 13.84752
594.7424, 14.53745
595.2245, 15.67070
595.7067, 16.79980
596.1888, 17.82217
596.6709, 17.68939
597.1530, 15.26704
597.6351, 13.60635
598.1172, 13.37106
598.5994, 13.71722
599.0815, 14.32549
599.5636, 15.06659
600.0457, 15.51207
600.5278, 15.34940
601.0099, 14.74475
601.4921, 13.84061
601.9742, 12.58946
602.4563, 11.76147
602.9384, 11.94165
603.4205, 12.41451
603.9026, 11.89932
604.3848, 10.32014
604.8669, 9.289810
605.3490, 9.527618
605.8311, 9.898148
606.3132, 9.628677
606.7953, 8.927704
607.2775, 8.381149
607.7596, 8.215210
608.2417, 8.055664
608.7238, 7.213348
609.2059, 5.393738
609.6880, 4.374268
610.1702, 4.966187
610.6523, 5.455276
611.1344, 5.175476
611.6165, 4.508133
612.0986, 3.971817
612.5807, 3.709351
613.0629, 3.621887
613.5450, 3.759460
614.0271, 4.025421
614.5092, 3.981293
614.9913, 3.534088
615.4734, 3.112167
615.9556, 3.109421
616.4377, 3.295944
616.9198, 2.849640
617.4019, 1.412521
617.8840, 9.6709996E-02
618.3661, 1.481369
618.8483, 2.422195
619.3304, 1.138016
619.8125, 1.749832
620.2946, 3.611588
620.7767, 2.587433
621.2589, 0.1631320
621.7410, 1.046463
622.2231, 0.8648680
622.7052, 1.881119
623.1873, 0.4757840
623.6694, 1.000702
624.1516, 1.127838
624.6337, 0.2207340
625.1158, 0.7000270
625.5979, 1.319336
626.0800, 1.674957
626.5621, 1.822128
627.0443, 1.733429
627.5264, 1.188858
628.0085, 7.2159000E-02
628.4906, 1.010284
628.9727, 1.469193
629.4548, 1.300018
629.9370, 1.031250
630.4191, 0.2404020
630.9012, 0.1056980
631.3833, 0.7117310
631.8654, 1.777023
632.3475, 2.082779
632.8297, 1.535492
633.3118, 0.7748410
633.7939, 0.2980190
634.2760, 7.7271000E-02
634.7581, 9.6069001E-02
635.2402, 0.4793700
635.7224, 0.5974120
636.2045, 0.1023410
636.6866, 0.6145320
637.1687, 1.233810
637.6508, 1.739639
638.1329, 1.932159
638.6151, 1.432098
639.0972, 0.8670650
639.5793, 0.8410800
640.0614, 1.173889
640.5435, 1.309464
641.0256, 1.049164
641.5078, 0.7802120
641.9899, 1.089172
642.4720, 2.112122
642.9541, 2.589615
643.4362, 1.870453
643.9183, 1.350082
644.4005, 1.393372
644.8826, 1.761337
645.3647, 2.320969
645.8468, 2.998398
646.3289, 3.412750
646.8110, 2.926620
647.2932, 2.006485
647.7753, 1.871201
648.2574, 2.570984
648.7395, 3.505432
649.2216, 4.496826
649.7037, 5.468399
650.1859, 6.281509
650.6680, 6.942810
651.1501, 7.447220
651.6322, 7.887924
652.1143, 8.082901
652.5964, 7.715302
653.0786, 7.073318
653.5607, 6.603912
654.0428, 6.488632
654.5249, 6.761032
655.0070, 7.594254
655.4891, 9.017517
655.9713, 10.21696
656.4534, 11.21880
656.9355, 11.94411
657.4176, 12.24933
657.8997, 12.29306
658.3818, 12.17778
658.8640, 11.87222
659.3461, 11.71715
659.8282, 11.82108
660.3103, 12.18401
660.7924, 13.03786
661.2745, 14.20711
661.7567, 14.93428
662.2388, 14.81110
662.7209, 14.32698
663.2030, 14.46182
663.6851, 15.56239
664.1672, 16.14474
664.6494, 15.70967
665.1315, 15.29204
665.6136, 15.35796
666.0957, 15.60321
666.5778, 15.57434
667.0599, 15.14072
667.5421, 14.55006
668.0242, 14.16650
668.5063, 13.75882
668.9884, 12.55968
669.4705, 10.51224
669.9526, 8.656616
670.4348, 7.502686
670.9169, 6.967773
671.3990, 6.965897
671.8811, 7.939682
672.3632, 8.341415
672.8453, 7.611893
673.3275, 6.830551
673.8096, 6.691071
674.2917, 6.889862
674.7738, 6.841934
675.2559, 6.316849
675.7380, 5.489609
676.2202, 4.381149
676.7023, 3.093567
677.1844, 2.479050
677.6665, 2.752777
678.1486, 3.094070
678.6307, 3.239578
679.1129, 3.122742
679.5950, 2.712204
680.0771, 2.109467
680.5592, 1.504990
681.0413, 0.3089600
681.5234, 0.4092560
682.0056, 1.072510
682.4877, 3.825607
682.9698, 5.272507
683.4519, 4.304260
683.9340, 2.434906
684.4161, 1.955429
684.8983, 3.003662
685.3804, 3.819016
685.8625, 4.242065
686.3446, 4.594162
686.8267, 4.972672
687.3088, 5.489349
687.7910, 6.272064
688.2731, 7.378769
688.7552, 8.584488
689.2373, 9.621277
689.7194, 10.70891
690.2015, 12.27728
690.6837, 14.22577
691.1658, 16.04681
691.6479, 17.51074
692.1300, 18.66888
692.6121, 19.58904
693.0942, 20.19701
693.5764, 20.86458
694.0585, 21.18419
694.5406, 22.21629
695.0227, 24.89415
695.5048, 27.98433
695.9869, 30.18336
696.4691, 31.30460
696.9512, 32.11588
697.4333, 32.71980
697.9154, 33.48901
698.3975, 35.03810
698.8796, 37.25694
699.3618, 39.63557
699.8439, 42.00648
700.3260, 44.21849
700.8081, 46.04849
701.2902, 47.47858
701.7723, 48.69835
702.2545, 49.79362
702.7366, 50.55302
703.2187, 50.88521
703.7008, 50.88670
704.1829, 50.83121
704.6650, 50.64104
705.1472, 49.65874
705.6293, 46.88310
706.1114, 43.47636
706.5935, 41.44365
707.0756, 40.58214
707.5577, 39.62238
708.0399, 38.25182
708.5220, 36.34689
709.0041, 33.61371
709.4862, 30.04773
709.9683, 27.16580
710.4504, 25.37680
710.9326, 23.67363
711.4147, 21.61639
711.8968, 19.77870
712.3789, 19.01547
712.8610, 19.04996
713.3431, 18.55025
713.8253, 16.41724
714.3074, 13.80998
714.7895, 12.75969
715.2716, 13.01967
715.7537, 12.65558
716.2358, 11.16277
716.7180, 9.574219
717.2001, 8.789139
717.6822, 8.670929
718.1643, 8.289398
718.6464, 7.719315
719.1285, 6.805832
719.6107, 4.695404
720.0928, 2.948868
720.5749, 3.088913
721.0570, 4.558029
721.5391, 5.699829
722.0212, 5.699921
722.5034, 5.079193
722.9855, 4.393127
723.4676, 3.704987
723.9497, 3.326401
724.4318, 3.364380
724.9139, 3.330856
725.3961, 2.836868
725.8782, 2.120392
726.3603, 2.233978
726.8424, 3.664017
727.3245, 4.703156
727.8066, 5.186783
728.2888, 5.490219
728.7709, 5.714813
729.2530, 5.978973
729.7351, 6.468735
730.2172, 7.234009
730.6993, 8.058578
731.1815, 8.684052
731.6636, 9.136826
732.1457, 9.714249
732.6278, 10.42362
733.1099, 11.39035
733.5920, 12.82076
734.0742, 14.25044
734.5563, 14.88124
735.0384, 14.49022
735.5205, 14.40277
736.0026, 14.68639
736.4847, 15.18898
736.9669, 15.96869
737.4490, 16.87474
737.9311, 17.66490
738.4132, 18.35207
738.8953, 19.31807
739.3774, 21.06010
739.8596, 23.10710
740.3417, 24.25424
740.8238, 24.58459
741.3059, 25.51253
741.7880, 27.53136
742.2701, 29.77327
742.7523, 31.44208
743.2344, 32.56998
743.7165, 33.56360
744.1986, 34.10190
744.6807, 34.95425
745.1628, 36.44417
745.6450, 38.09157
746.1271, 39.55066
746.6092, 40.83075
747.0913, 42.08215
747.5734, 43.34171
748.0555, 44.70973
748.5377, 46.56366
749.0198, 48.64177
749.5019, 49.81058
749.9840, 49.90948
750.4661, 49.85121
750.9482, 50.23534
751.4304, 50.75220
751.9125, 50.56361
752.3946, 48.92386
752.8767, 48.37108
753.3588, 49.97896
753.8409, 51.39908
754.3231, 51.53903
754.8052, 50.94611
755.2873, 50.29965
755.7694, 49.78897
756.2515, 49.62920
756.7336, 50.15237
757.2158, 51.04475
757.6979, 51.98589
758.1800, 52.87132
758.6621, 53.02103
759.1442, 52.12900
759.6263, 51.07207
760.1085, 50.91968
760.5906, 51.67618
761.0727, 52.15274
761.5548, 52.33868
762.0369, 52.24319
762.5190, 52.13197
763.0012, 51.54921
763.4833, 49.80925
763.9654, 47.23662
764.4475, 45.13908
764.9296, 44.54237
765.4117, 43.67635
765.8939, 40.65250
766.3760, 36.47507
766.8581, 32.97058
767.3402, 30.35287
767.8223, 27.95280
768.3044, 25.31277
768.7866, 23.46109
769.2687, 20.83783
769.7508, 20.02632
770.2329, 19.00037
770.7150, 17.69653
771.1971, 16.20744
771.6793, 14.56081
772.1614, 12.77257
772.6435, 10.70335
773.1256, 8.251007
773.6077, 6.430771
774.0898, 6.122574
774.5720, 6.169785
775.0541, 5.522552
775.5362, 4.525055
776.0183, 4.031265
776.5004, 4.251495
776.9825, 4.589020
777.4647, 4.443222
777.9468, 3.894135
778.4289, 3.390076
778.9110, 2.997803
779.3931, 2.223419
779.8752, 0.6839750
780.3574, 0.8692090
780.8395, 1.936798
781.3216, 1.555603
781.8037, 1.403862
782.2858, 1.460365
782.7679, 2.853340
783.2501, 2.134872
783.7322, 2.026901
784.2143, 1.782478
784.6964, 0.2853470
785.1785, 0.9604490
785.6606, 0.7462010
786.1428, 0.7283170
786.6249, 0.8548660
787.1070, 1.069984
787.5891, 1.147377
788.0712, 1.073448
788.5533, 1.123856
789.0355, 1.2383000E-02
789.5176, 0.7013850
789.9997, 1.038902
790.4818, 0.1282420
790.9639, 0.6483690
791.4460, 0.6466670
791.9282, 0.6136090
792.4103, 1.665260
792.8924, 0.7192460
793.3745, 1.754578
793.8566, 2.394867
794.3387, 3.676765
794.8209, 3.453705
795.3030, 4.944321
795.7851, 6.037292
796.2672, 6.754150
796.7493, 5.966553
797.2314, 7.122787
797.7136, 7.500801
798.1957, 7.847092
798.6778, 9.278168
799.1599, 8.711418
799.6420, 10.12613
800.1241, 10.75063
800.6063, 11.73774
801.0884, 11.94139
801.5705, 12.38756
802.0526, 13.61798
802.5347, 14.41476
803.0168, 14.52966
803.4990, 15.54200
803.9811, 14.95197
804.4632, 15.76859
804.9453, 16.50507
805.4274, 18.25318
805.9095, 19.60363
806.3917, 20.57800
806.8738, 20.04741
807.3559, 21.46074
807.8380, 22.09547
808.3201, 22.69862
808.8022, 24.38625
809.2844, 24.07635
809.7665, 24.92235
810.2486, 25.04221
810.7307, 24.55984
811.2128, 23.68559
811.6949, 23.07633
812.1771, 22.87839
812.6592, 22.65919
813.1413, 22.70872
813.6234, 22.41866
814.1055, 21.25576
814.5876, 19.72301
815.0698, 18.45959
815.5519, 17.60063
816.0340, 16.98212
816.5161, 16.54118
816.9982, 16.26306
817.4803, 16.46376
817.9625, 16.78334
818.4446, 16.06234
818.9267, 14.11154
819.4088, 12.18805
819.8909, 11.43517
820.3730, 11.41467
820.8552, 10.47424
821.3373, 8.294426
821.8194, 6.532700
822.3015, 5.269081
822.7836, 4.594910
823.2657, 4.998932
823.7479, 5.896019
824.2300, 6.046471
824.7121, 5.137383
825.1942, 4.592056
825.6763, 5.021255
826.1584, 5.563339
826.6406, 5.927101
827.1227, 6.057121
827.6048, 5.853958
828.0869, 5.328735
828.5690, 4.649643
829.0511, 3.853470
829.5333, 3.198555
830.0154, 2.724976
830.4975, 2.374001
830.9796, 3.093239
831.4617, 5.239868
831.9438, 6.916557
832.4260, 6.652893
832.9081, 5.049339
833.3902, 3.938232
833.8723, 3.389099
834.3544, 3.216949
834.8365, 3.414627
835.3187, 3.794273
835.8008, 4.646423
836.2829, 5.538902
836.7650, 5.943680
837.2471, 5.779915
837.7292, 5.408485
838.2114, 4.521828
838.6935, 3.792145
839.1756, 3.736839
839.6577, 4.115028
840.1398, 4.816963
840.6219, 5.600258
841.1041, 6.013130
841.5862, 5.561508
842.0683, 4.780289
842.5504, 4.785721
843.0325, 5.357933
843.5146, 5.568359
843.9968, 5.265129
844.4789, 4.854294
844.9610, 4.480698
845.4431, 4.324142
845.9252, 4.651886
846.4073, 5.436256
846.8895, 6.105652
847.3716, 6.796883
847.8537, 7.118164
848.3358, 6.627281
848.8179, 6.026627
849.3000, 6.050644
849.7822, 6.541519
850.2643, 6.587402
850.7464, 5.467003
851.2285, 4.592010
851.7106, 4.972794
852.1927, 5.794357
852.6749, 6.180290
853.1570, 6.160149
853.6391, 6.174530
854.1212, 6.426147
854.6033, 6.581375
855.0854, 6.071251
855.5676, 5.096916
856.0497, 4.544106
856.5318, 4.429924
857.0139, 4.527451
857.4960, 4.774323
857.9781, 5.142509
858.4603, 5.758202
858.9424, 6.543915
859.4245, 6.520485
859.9066, 4.775345
860.3887, 3.813782
860.8708, 4.812294
861.3530, 5.600578
861.8351, 4.592987
862.3172, 2.752823
862.7993, 1.881729
863.2814, 2.323524
863.7635, 3.013718
864.2457, 3.942581
864.7278, 4.562492
865.2099, 4.035431
865.6920, 3.041290
866.1741, 2.828003
866.6563, 3.581596
867.1384, 4.527634
867.6205, 5.160156
868.1026, 5.445084
868.5847, 5.228432
869.0668, 4.579025
869.5490, 3.801865
870.0311, 2.897812
870.5132, 2.274193
870.9953, 2.234482
871.4774, 2.458771
871.9595, 2.196465
872.4417, 1.194389
872.9238, 1.156570
873.4059, 3.088173
873.8880, 4.387215
874.3701, 3.605598
874.8522, 2.415161
875.3344, 2.279335
875.8165, 3.028000
876.2986, 3.371864
876.7807, 2.876472
877.2628, 2.223244
877.7449, 1.203568
878.2271, 0.5020370
878.7092, 1.130478
879.1913, 2.505348
879.6734, 3.168869
880.1555, 2.624191
880.6376, 1.941765
881.1198, 2.474068
881.6019, 1.530708
882.0840, 2.637878
882.5661, 0.7467730
883.0482, 0.2789150
883.5303, 6.9420002E-02
884.0125, 0.8725510
884.4946, 1.405861
884.9767, 1.686417
885.4588, 1.830292
885.9409, 1.935074
886.4230, 1.148575
886.9052, 1.383728
887.3873, 2.946304
887.8694, 1.526703
888.3515, 1.132744
888.8336, 2.044884
889.3157, 0.8943180
889.7979, 0.4266970
890.2800, 1.717407
890.7621, 2.390938
891.2442, 0.9869540
891.7263, 0.6202550
892.2084, 0.5471120
892.6906, 0.7681120
893.1727, 1.510719
893.6548, 0.9029240
894.1369, 0.2309800
894.6190, 0.5332570
895.1011, 0.1871410
895.5833, 1.019119
896.0654, 0.5124510
896.5475, 0.5057680
897.0296, 1.217293
897.5117, 1.815582
897.9938, 1.412796
898.4760, 0.4589770
898.9581, 0.2208330
899.4402, 0.6287770
899.9223, 0.7561110
900.4044, 0.4039460
900.8865, 0.3100050
901.3687, 1.087463
901.8508, 2.093163
902.3329, 1.784164
902.8150, 0.3578340
903.2971, 1.172356
903.7792, 0.2291110
904.2614, 1.431511
904.7435, 1.683205
905.2256, 1.472038
905.7077, 1.030647
906.1898, 0.4617460
906.6719, 0.3255230
907.1541, 1.277649
907.6362, 1.729523
908.1183, 0.7540820
908.6004, 0.3398060
909.0825, 0.5988310
909.5646, 0.3134310
910.0468, 9.3604997E-02
910.5289, 9.6092001E-02
911.0110, 8.2932003E-02
911.4931, 6.3896000E-02
911.9752, 0.1977920
912.4573, 1.479889
912.9395, 3.042091
913.4216, 3.100304
913.9037, 1.634644
914.3858, 0.2167820
914.8679, 0.2122570
915.3500, 1.8920000E-03
915.8321, 0.3276140
916.3142, 0.7801360
916.7963, 1.664124
917.2784, 3.035408
917.7606, 3.817589
918.2427, 3.600990
918.7248, 2.759735
919.2069, 1.536194
919.6890, 6.2820002E-02
920.1711, 0.6419450
920.6533, 0.3077470
921.1354, 0.1671980
921.6175, 0.9198840
922.0996, 1.526886
922.5817, 1.596733
923.0638, 1.462852
923.5460, 1.704269
924.0281, 2.419273
924.5102, 2.731689
924.9923, 2.329941
925.4744, 1.750069
925.9565, 0.8772960
926.4387, 0.1486050
926.9208, 6.9801003E-02
927.4029, 0.2113490
927.8850, 0.9809800
928.3671, 2.407791
928.8492, 3.425110
929.3314, 2.958374
929.8135, 1.970352
930.2956, 1.519402
930.7777, 1.424995
931.2598, 1.006439
931.7419, 0.1988980
932.2241, 0.1797330
932.7062, 0.6148760
933.1883, 1.953979
933.6704, 2.760681
934.1525, 3.101822
934.6346, 3.261078
935.1168, 3.268761
935.5989, 3.048737
936.0810, 2.528595
936.5631, 2.056862
937.0452, 2.158997
937.5273, 2.785576
938.0095, 3.096153
938.4916, 3.021080
938.9737, 2.927582
939.4558, 2.924454
939.9379, 2.808907
940.4200, 2.278587
940.9022, 1.579346
941.3843, 1.533592
941.8664, 2.409309
942.3485, 3.083412
942.8306, 3.611855
943.3127, 3.872932
943.7949, 3.551727
944.2770, 3.172516
944.7591, 3.202446
945.2412, 3.514130
945.7233, 3.611771
946.2054, 3.229607
946.6876, 2.857582
947.1697, 2.718872
947.6518, 2.660706
948.1339, 2.778198
948.6160, 2.868271
949.0981, 2.218666
949.5803, 0.8598180
950.0624, 0.3393780
950.5445, 2.219719
951.0266, 4.370773
951.5087, 4.581703
951.9908, 3.707794
952.4730, 3.150742
952.9551, 2.972893
953.4372, 2.689636
953.9193, 2.078506
954.4014, 1.724609
954.8835, 2.576538
955.3657, 2.338562
955.8478, 2.626335
956.3299, 3.309959
956.8120, 3.280960
957.2941, 4.535576
957.7762, 5.513725
958.2584, 5.108879
958.7405, 6.212723
959.2226, 4.697281
959.7047, 6.795921
960.1868, 7.638420
960.6689, 6.811050
961.1511, 6.014137
961.6332, 5.899651
962.1153, 5.916641
962.5974, 5.509148
963.0795, 5.778503
963.5616, 6.087097
964.0438, 6.137871
964.5259, 7.007271
965.0080, 7.280823
965.4901, 7.577705
965.9722, 8.276428
966.4543, 8.934486
966.9365, 9.141685
967.4186, 8.953781
967.9007, 8.687836
968.3828, 8.152328
968.8649, 7.905342
969.3470, 8.471878
969.8292, 8.880554
970.3113, 8.237366
970.7934, 7.101685
971.2755, 6.296227
971.7576, 5.999138
972.2397, 6.178101
972.7219, 7.419968
973.2040, 7.837547
973.6861, 8.595345
974.1682, 8.963982
974.6503, 8.964615
975.1324, 7.462280
975.6146, 7.903175
976.0967, 7.565071
976.5788, 7.194824
977.0609, 7.905350
977.5430, 6.590904
978.0251, 7.213127
978.5073, 7.065300
978.9894, 7.306526
979.4715, 6.780212
979.9536, 6.501404
980.4357, 7.006889
980.9178, 7.077034
981.4000, 6.466362
981.8821, 6.755463
982.3642, 5.441994
982.8463, 5.533943
983.3284, 6.230003
983.8105, 5.649757
984.2927, 5.925804
984.7748, 5.858498
985.2569, 4.295372
985.7390, 5.370819
986.2211, 5.320763
986.7032, 3.638390
987.1854, 3.485519
987.6675, 3.734474
988.1496, 4.467911
988.6317, 5.016434
989.1138, 4.655609
989.5959, 3.627510
990.0781, 3.010040
990.5602, 2.918915
991.0423, 3.130531
991.5244, 4.053085
992.0065, 4.450813
992.4886, 3.473541
992.9708, 2.151932
993.4529, 1.664986
993.9350, 1.936111
994.4171, 2.056396
994.8992, 1.878845
995.3813, 1.786034
995.8635, 1.956146
996.3456, 2.017853
996.8277, 1.489014
997.3098, 0.9561920
997.7919, 1.279739
998.2740, 2.437256
998.7562, 3.346252
999.2383, 3.912178
999.7204, 4.053833
1000.203, 3.501984
1000.685, 2.758415
1001.167, 1.793144
1001.649, 1.044746
1002.131, 1.431831
1002.613, 3.000786
1003.095, 4.061668
1003.577, 3.704216
1004.059, 2.855965
1004.542, 1.697800
1005.024, 0.5682140
1005.506, 0.4664920
1005.988, 1.128441
1006.470, 0.5912320
1006.952, 1.282440
1007.434, 2.846527
1007.916, 2.747704
1008.398, 2.086258
1008.881, 1.774429
1009.363, 1.625801
1009.845, 1.307968
1010.327, 0.8891980
1010.809, 0.6572420
1011.291, 0.7302400
1011.773, 1.090683
1012.255, 1.969185
1012.738, 2.927597
1013.220, 3.320564
1013.702, 3.232864
1014.184, 2.622246
1014.666, 1.679855
1015.148, 1.410721
1015.630, 2.309731
1016.112, 3.113838
1016.594, 1.789757
1017.077, 0.5570370
1017.559, 0.6652680
1018.041, 1.011688
1018.523, 2.243965
1019.005, 2.660370
1019.487, 2.931816
1019.969, 3.448097
1020.451, 3.888680
1020.934, 3.726082
1021.416, 3.084068
1021.898, 2.697495
1022.380, 2.556747
1022.862, 2.297119
1023.344, 1.834404
1023.826, 1.510284
1024.308, 1.591087
1024.791, 1.691246
1025.273, 0.9570390
1025.755, 0.5650710
1026.237, 0.9422760
1026.719, 2.9300000E-03
1027.201, 0.6426620
1027.683, 0.5377500
1028.165, 0.5397570
1028.647, 1.298607
1029.130, 2.377586
1029.612, 2.844604
1030.094, 2.647568
1030.576, 2.429573
1031.058, 2.077461
1031.540, 2.165657
1032.022, 3.095650
1032.504, 3.847023
1032.986, 3.628433
1033.469, 2.822197
1033.951, 2.269897
1034.433, 1.993004
1034.915, 1.875481
1035.397, 2.100960
1035.879, 2.059624
1036.361, 1.308937
1036.843, 0.7176970
1037.326, 0.9419560
1037.808, 1.748413
1038.290, 2.697578
1038.772, 4.030907
1039.254, 4.321632
1039.736, 2.360245
1040.218, 1.292130
1040.700, 2.576218
1041.182, 4.028732
1041.665, 4.129730
1042.147, 3.320908
1042.629, 2.474503
1043.111, 1.497208
1043.593, 0.9455720
1044.075, 1.064690
1044.557, 1.292473
1045.039, 1.569191
1045.521, 1.866989
1046.004, 2.230492
1046.486, 2.587013
1046.968, 2.791161
1047.450, 2.826775
1047.932, 2.707443
1048.414, 2.088165
1048.896, 1.982742
1049.378, 2.976570
1049.861, 3.983772
1050.343, 4.209404
1050.825, 3.998138
1051.307, 4.122429
1051.789, 4.730309
1052.271, 4.871597
1052.753, 3.860077
1053.235, 3.042183
1053.718, 2.769180
1054.200, 2.917549
1054.682, 3.842712
1055.164, 4.940865
1055.646, 5.014626
1056.128, 3.836662
1056.610, 2.738091
1057.092, 1.813805
1057.574, 1.378159
1058.057, 1.854561
1058.539, 2.553246
1059.021, 3.019600
1059.503, 3.293320
1059.985, 3.568909
1060.467, 3.872162
1060.949, 3.834221
1061.431, 3.246590
1061.913, 2.418007
1062.396, 0.9228440
1062.878, 0.2441330
1063.360, 6.9716997E-02
1063.842, 0.8331450
1064.324, 1.579811
1064.806, 1.985329
1065.288, 2.132301
1065.770, 1.601295
1066.253, 1.445282
1066.735, 2.703835
1067.217, 3.906639
1067.699, 3.812202
1068.181, 2.941422
1068.663, 2.026283
1069.145, 1.274353
1069.627, 1.067764
1070.109, 2.137337
1070.592, 2.775429
1071.074, 1.561943
1071.556, 0.2905650
1072.038, 0.5802000
1072.520, 1.538330
1073.002, 1.648087
1073.484, 0.8607330
1073.966, 0.3951640
1074.448, 0.7992480
1074.931, 1.338051
1075.413, 2.073898
1075.895, 2.467415
1076.377, 1.669052
1076.859, 0.5003590
1077.341, 7.2777003E-02
1077.823, 9.1224998E-02
1078.305, 0.9410930
1078.788, 2.808289
1079.270, 4.222794
1079.752, 4.387489
1080.234, 3.972260
1080.716, 2.839882
1081.198, 1.801521
1081.680, 2.025871
1082.162, 3.214134
1082.644, 3.979080
1083.127, 3.823036
1083.609, 3.562355
1084.091, 3.609039
1084.573, 3.685844
1085.055, 3.690826
1085.537, 3.471977
1086.019, 2.587982
1086.501, 1.393730
1086.984, 0.8343430
1087.466, 1.196289
1087.948, 1.693832
1088.430, 1.882957
1088.912, 2.255806
1089.394, 3.668320
1089.876, 4.867111
1090.358, 4.367470
1090.840, 2.840508
1091.323, 1.779877
1091.805, 1.491531
1092.287, 1.377960
1092.769, 1.153793
1093.251, 1.143105
1093.733, 1.975433
1094.215, 2.586708
1094.697, 1.606377
1095.179, 8.7302998E-02
1095.662, 2.5322000E-02
1096.144, 1.409439
1096.626, 2.514587
1097.108, 2.680359
1097.590, 2.478630
1098.072, 1.868996
1098.554, 1.194672
1099.036, 0.3744660
1099.519, 0.1915820
1100.001, 0.2094190
1100.483, 1.417809
1100.965, 2.205452
1101.447, 1.863762
1101.929, 2.033623
1102.411, 4.389771
1102.893, 5.837440
1103.375, 3.893890
1103.858, 1.111893
1104.340, 0.3620000
1104.822, 1.130493
1105.304, 0.8828200
1105.786, 1.306938
1106.268, 2.514069
1106.750, 1.309753
1107.232, 0.2532730
1107.714, 0.4867780
1108.197, 0.9123310
1108.679, 0.6980060
1109.161, 8.3199999E-04
1109.643, 0.8920670
1110.125, 2.093628
1110.607, 2.522362
1111.089, 1.049194
1111.571, 0.2773280
1112.054, 1.382942
1112.536, 2.555969
1113.018, 2.866455
1113.500, 2.559998
1113.982, 1.714371
1114.464, 0.3118290
1114.946, 0.1580660
1115.428, 2.945755
1115.911, 4.132683
1116.393, 2.161812
1116.875, 0.4116970
1117.357, 0.4155500
1117.839, 1.094925
1118.321, 1.257736
1118.803, 1.052284
1119.285, 1.387108
1119.767, 2.699448
1120.250, 3.463409
1120.732, 3.624687
1121.214, 3.261299
1121.696, 1.965271
1122.178, 0.8727420
1122.660, 1.099800
1123.142, 2.048370
1123.624, 2.080711
1124.106, 0.9893720
1124.589, 0.6423720
1125.071, 1.295059
1125.553, 1.860085
1126.035, 2.194504
1126.517, 2.081291
1126.999, 1.203011
1127.481, 0.2724910
1127.963, 0.5039600
1128.446, 1.765793
1128.928, 2.529831
1129.410, 2.735870
1129.892, 3.007782
1130.374, 3.476746
1130.856, 3.389397
1131.338, 2.312576
1131.820, 1.328049
1132.302, 1.668839
1132.785, 2.859711
1133.267, 3.471008
1133.749, 3.520760
1134.231, 3.072571
1134.713, 2.170547
1135.195, 2.382652
1135.677, 4.148354
1136.159, 5.443504
1136.641, 4.735733
1137.124, 3.197830
1137.606, 2.890175
1138.088, 3.434753
1138.570, 3.442413
1139.052, 2.981644
1139.534, 2.177017
1140.016, 1.196449
1140.498, 1.111748
1140.981, 2.402588
1141.463, 3.472351
1141.945, 2.141502
1142.427, 3.049156
1142.909, 0.7078250
1143.391, 2.695145
1143.873, 3.402916
1144.355, 2.868530
1144.838, 1.891060
1145.320, 0.8511580
1145.802, 0.3997800
1146.284, 1.153526
1146.766, 2.084641
1147.248, 2.134674
1147.730, 1.794395
1148.212, 1.517845
1148.694, 1.363281
1149.177, 1.489174
1149.659, 1.774284
1150.141, 1.686989
1150.623, 0.9639210
1151.105, 0.4512180
1151.587, 0.8764040
1152.069, 1.447937
1152.551, 1.640404
1153.033, 1.683716
1153.516, 1.805916
1153.998, 2.005074
1154.480, 2.227325
1154.962, 2.450523
1155.444, 2.496735
1155.926, 2.253952
1156.408, 1.901497
1156.890, 1.084694
1157.373, 0.6232070
1157.855, 1.386017
1158.337, 2.524017
1158.819, 3.057983
1159.301, 3.049561
1159.783, 3.115494
1160.265, 3.516479
1160.747, 3.437164
1161.229, 2.193993
1161.712, 1.359871
1162.194, 1.384865
1162.676, 1.806862
1163.158, 2.622421
1163.640, 3.320999
1164.122, 3.024940
1164.604, 3.092606
1165.086, 3.007423
1165.568, 2.200981
1166.051, 2.285667
1166.533, 1.252045
1167.015, 0.6270220
1167.497, 1.161201
1167.979, 1.807968
1168.461, 1.392555
1168.943, 0.3835300
1169.425, 0.4072420
1169.908, 1.511887
1170.390, 2.103241
1170.872, 2.136620
1171.354, 2.192863
1171.836, 2.408241
1172.318, 2.557693
1172.800, 2.511543
1173.282, 2.350555
1173.765, 2.122047
1174.247, 1.891731
1174.729, 1.856171
1175.211, 1.990936
1175.693, 2.339287
1176.175, 2.786171
1176.657, 2.659592
1177.139, 1.848373
1177.621, 1.258743
1178.104, 1.571487
1178.586, 2.327980
1179.068, 3.409653
1179.550, 4.257645
1180.032, 3.903915
1180.514, 2.828636
1180.996, 1.783302
1181.478, 0.9350130
1181.960, 0.2964940
1182.443, 0.1232300
1182.925, 0.3273930
1183.407, 0.3359450
1183.889, 0.1130910
1184.371, 0.6309660
1184.853, 1.358902
1185.335, 1.516434
1185.817, 1.382820
1186.300, 1.432693
1186.782, 1.693962
1187.264, 1.938828
1187.746, 2.209236
1188.228, 2.274025
1188.710, 1.967705
1189.192, 1.614799
1189.674, 1.233101
1190.156, 0.9948880
1190.639, 0.9655610
1191.121, 1.065964
1191.603, 1.348312
1192.085, 1.077057
1192.567, 1.803436
1193.049, 0.8051830
1193.531, 0.2541890
1194.013, 0.3216020
1194.495, 0.8231580
1194.978, 1.795074
1195.460, 2.822578
1195.942, 3.547394
1196.424, 3.879395
1196.906, 3.479164
1197.388, 2.423431
1197.870, 1.398926
1198.352, 0.3881230
1198.835, 9.9495001E-02
1199.317, 1.8593000E-02
1199.799, 0.5890430
1200.281, 1.542465
1200.763, 2.261826
1201.245, 1.903725
1201.727, 1.057129
1202.209, 0.7200240
1202.692, 0.7512890
1203.174, 0.8267140
1203.656, 0.9680180
1204.138, 1.394325
1204.620, 2.098206
1205.102, 2.897003
1205.584, 3.671661
1206.066, 4.037544
1206.548, 3.218971
1207.031, 2.471260
1207.513, 3.125687
1207.995, 4.049431
1208.477, 3.918304
1208.959, 3.101135
1209.441, 2.558868
1209.923, 2.444595
1210.405, 2.375916
1210.887, 2.082619
1211.370, 2.101898
1211.852, 2.899208
1212.334, 3.549240
1212.816, 3.616661
1213.298, 3.428459
1213.780, 3.200974
1214.262, 2.933479
1214.744, 2.568558
1215.227, 2.052956
1215.709, 2.127190
1216.191, 3.090599
1216.673, 3.282722
1217.155, 2.309387
1217.637, 1.468613
1218.119, 1.326492
1218.601, 1.545067
1219.083, 1.838936
1219.566, 2.093231
1220.048, 1.990768
1220.530, 1.603416
1221.012, 1.011749
1221.494, 0.4242860
1221.976, 1.045837
1222.458, 2.789322
1222.940, 4.010056
1223.422, 3.975662
1223.905, 3.469444
1224.387, 3.027939
1224.869, 2.692520
1225.351, 2.629463
1225.833, 2.599686
1226.315, 2.254318
1226.797, 1.763214
1227.279, 1.326851
1227.762, 1.065575
1228.244, 1.275711
1228.726, 2.149147
1229.208, 2.920090
1229.690, 3.360291
1230.172, 3.544876
1230.654, 3.325386
1231.136, 3.039719
1231.619, 3.110832
1232.101, 3.095856
1232.583, 2.154541
1233.065, 0.5386960
1233.547, 7.0099004E-02
1234.029, 0.7039340
1234.511, 1.174431
1234.993, 1.187073
1235.475, 1.570618
1235.958, 2.650162
1236.440, 3.215515
1236.922, 2.495911
1237.404, 1.280891
1237.886, 0.5283130
1238.368, 0.2604600
1238.850, 0.8064190
1239.332, 1.878792
1239.814, 2.238602
1240.297, 1.958038
1240.779, 1.769821
1241.261, 1.803658
1241.743, 1.720657
1242.225, 1.337692
1242.707, 0.9128570
1243.189, 0.4930570
1243.671, 0.4229810
1244.154, 1.390800
1244.636, 2.499352
1245.118, 2.904518
1245.600, 2.691933
1246.082, 1.933960
1246.564, 0.7983170
1247.046, 7.4630998E-02
1247.528, 0.7220150
1248.010, 0.5646820
1248.493, 1.474243
1248.975, 2.909729
1249.457, 2.941811
1249.939, 2.449684
1250.421, 1.641167
1250.903, 0.9222490
1251.385, 0.9398270
1251.867, 0.4739610
1252.349, 0.3706510
1252.832, 0.4610670
1253.314, 0.2339710
1253.796, 0.7536160
1254.278, 0.6486210
1254.760, 0.3375090
1255.242, 0.5309070
1255.724, 1.006851
1256.206, 2.699936
1256.689, 2.695129
1257.171, 1.888153
1257.653, 1.624687
1258.135, 1.694283
1258.617, 1.947365
1259.099, 2.149010
1259.581, 1.564842
1260.063, 0.4378970
1260.546, 0.5295180
1261.028, 2.588455
1261.510, 3.716743
1261.992, 1.467155
1262.474, 0.3797150
1262.956, 0.1248780
1263.438, 1.078079
1263.920, 1.256462
1264.402, 1.246864
1264.885, 1.959938
1265.367, 3.101707
1265.849, 3.529442
1266.331, 3.134125
1266.813, 2.449181
1267.295, 1.124031
1267.777, 0.7049480
1268.259, 1.072830
1268.741, 1.305397
1269.224, 0.9707110
1269.706, 0.8188780
1270.188, 1.650993
1270.670, 2.689621
1271.152, 2.668678
1271.634, 2.314636
1272.116, 2.571396
1272.598, 3.151215
1273.081, 3.264946
1273.563, 2.899017
1274.045, 2.696953
1274.527, 2.472984
1275.009, 2.447769
1275.491, 2.470856
1275.973, 2.660950
1276.455, 3.440613
1276.938, 3.928726
1277.420, 3.169594
1277.902, 2.336388
1278.384, 2.853348
1278.866, 2.057381
1279.348, 3.373108
1279.830, 1.430489
1280.312, 0.2678600
1280.794, 5.0026000E-02
1281.276, 0.4372790
1281.759, 1.989586
1282.241, 2.660049
1282.723, 1.855553
1283.205, 1.154305
1283.687, 1.466324
1284.169, 2.019234
1284.651, 1.470558
1285.133, 0.4432530
1285.616, 5.4020002E-03
1286.098, 0.0000000E+00
##END=



