##NAMES=Magnesioferrite
##RRUFFID=R060869
##IDEAL CHEMISTRY=MgFe^3+^_2_O_4_
##LOCALITY=Langban, Filipstad, Varmland, Sweden
##OWNER=RRUFF
##SOURCE=Michael Scott
##DESCRIPTION=Black semimetallic massive
##STATUS=The identification of this mineral is confirmed by single-crystal X-ray diffraction and chemical analysis.
##URL=rruff.info/R060869
##MEASURED CHEMISTRY=(Mg_0.67_Mn^2+^_0.30_Fe^2+^_0.03_)_Σ=1_(Fe^3+^_1.97_Al_0.03_)_Σ=2_O_4_
125.3843, 0.0000000E+00
125.8665, 2.030212
126.3486, 10.54480
126.8307, 4.355530
127.3128, 2.663086
127.7949, 10.15888
128.2770, 27.57184
128.7592, 54.30054
129.2413, 93.22961
129.7234, 151.5508
130.2055, 198.0304
130.6876, 232.8423
131.1697, 257.2139
131.6519, 270.1463
132.1340, 271.9942
132.6161, 264.6379
133.0982, 249.4996
133.5803, 219.6418
134.0624, 195.3571
134.5446, 176.9176
135.0267, 162.7106
135.5088, 152.2568
135.9909, 145.1954
136.4730, 140.6213
136.9551, 137.3456
137.4373, 140.9435
137.9194, 136.9837
138.4015, 121.5889
138.8836, 100.9899
139.3657, 78.80951
139.8478, 56.50110
140.3300, 37.10364
140.8121, 27.20319
141.2942, 30.09424
141.7763, 40.15552
142.2584, 58.74500
142.7405, 83.99542
143.2227, 114.7877
143.7048, 151.0101
144.1869, 190.5643
144.6690, 227.9124
145.1511, 261.2065
145.6333, 294.4055
146.1154, 329.8654
146.5975, 365.3867
147.0796, 398.5238
147.5617, 428.4418
148.0438, 454.0688
148.5260, 469.9907
149.0081, 466.9780
149.4902, 466.9576
149.9723, 483.3409
150.4544, 507.0655
150.9365, 518.3038
151.4187, 505.6407
151.9008, 473.7268
152.3829, 443.8286
152.8650, 415.7505
153.3471, 389.3281
153.8292, 363.9534
154.3114, 339.9404
154.7935, 319.0199
155.2756, 303.4648
155.7577, 291.3865
156.2398, 274.5391
156.7219, 244.8777
157.2041, 218.3947
157.6862, 206.1409
158.1683, 205.5574
158.6504, 203.8840
159.1325, 192.0350
159.6146, 173.8182
160.0968, 164.9755
160.5789, 169.8295
161.0610, 180.1355
161.5431, 195.2556
162.0252, 214.0049
162.5073, 224.7961
162.9895, 216.8732
163.4716, 195.3671
163.9537, 181.3032
164.4358, 180.0716
164.9179, 182.8305
165.4000, 181.3434
165.8822, 175.7770
166.3643, 174.5157
166.8464, 185.2255
167.3285, 204.0413
167.8106, 219.8242
168.2927, 233.1991
168.7749, 241.9150
169.2570, 241.3518
169.7391, 231.0115
170.2212, 221.7817
170.7033, 220.4625
171.1854, 225.2487
171.6676, 232.2002
172.1497, 244.7266
172.6318, 256.4453
173.1139, 258.0646
173.5960, 248.2135
174.0781, 240.9191
174.5603, 250.8182
175.0424, 268.4166
175.5245, 275.4864
176.0066, 259.7452
176.4887, 237.4052
176.9708, 229.2032
177.4530, 237.0074
177.9351, 248.4218
178.4172, 258.3392
178.8993, 265.5743
179.3814, 269.9274
179.8635, 270.9542
180.3457, 270.9790
180.8278, 271.6417
181.3099, 272.3352
181.7920, 274.5999
182.2741, 276.6742
182.7562, 277.6884
183.2384, 276.4862
183.7205, 275.1378
184.2026, 273.8542
184.6847, 273.2616
185.1668, 273.9863
185.6489, 274.6660
186.1311, 272.5667
186.6132, 269.7751
187.0953, 269.1782
187.5774, 271.3126
188.0595, 275.8453
188.5416, 284.0222
189.0238, 297.5189
189.5059, 307.8202
189.9880, 308.0897
190.4701, 302.7885
190.9522, 296.8127
191.4343, 290.4141
191.9165, 285.6619
192.3986, 285.8933
192.8807, 292.0169
193.3628, 300.2124
193.8449, 310.6714
194.3270, 321.4829
194.8092, 329.8975
195.2913, 334.2991
195.7734, 337.0851
196.2555, 341.7228
196.7376, 348.7113
197.2197, 355.4635
197.7019, 360.8952
198.1840, 365.3726
198.6661, 368.8036
199.1482, 370.4579
199.6303, 372.1787
200.1124, 375.8113
200.5946, 381.0430
201.0767, 389.5175
201.5588, 408.1464
202.0409, 428.3009
202.5230, 440.5631
203.0051, 440.5062
203.4873, 435.1962
203.9694, 433.1722
204.4515, 434.8678
204.9336, 437.3319
205.4157, 439.6556
205.8978, 442.0306
206.3800, 445.3198
206.8621, 450.9018
207.3442, 454.6575
207.8263, 449.7585
208.3084, 434.9201
208.7905, 422.9677
209.2727, 424.2544
209.7548, 428.0277
210.2369, 423.2251
210.7190, 406.5388
211.2011, 385.4092
211.6832, 367.1271
212.1654, 351.9180
212.6475, 336.9893
213.1296, 322.6587
213.6117, 307.4463
214.0938, 289.6494
214.5759, 268.6127
215.0581, 246.8391
215.5402, 226.2141
216.0223, 206.7837
216.5044, 187.8501
216.9865, 166.4541
217.4686, 147.9398
217.9508, 139.4821
218.4329, 143.3319
218.9150, 145.3574
219.3971, 130.8896
219.8792, 101.6056
220.3613, 78.73877
220.8435, 70.08722
221.3256, 67.88580
221.8077, 63.76697
222.2898, 57.40027
222.7719, 51.35303
223.2540, 46.82324
223.7362, 43.89600
224.2183, 43.75336
224.7004, 49.12604
225.1825, 54.10492
225.6646, 52.46112
226.1467, 44.31628
226.6289, 35.22449
227.1110, 26.68610
227.5931, 19.37347
228.0752, 16.65564
228.5573, 21.98267
229.0394, 26.95325
229.5216, 21.87970
230.0037, 8.064575
230.4858, 4.360107
230.9679, 10.62537
231.4500, 12.42517
231.9321, 12.84308
232.4143, 11.51373
232.8964, 10.79126
233.3785, 13.90625
233.8606, 19.90924
234.3427, 24.66284
234.8248, 27.96906
235.3070, 28.88123
235.7891, 24.35394
236.2712, 12.85504
236.7533, 2.291870
237.2354, 1.225525
237.7175, 7.155579
238.1997, 10.76904
238.6818, 8.851318
239.1639, 4.501099
239.6460, 0.3982540
240.1281, 3.416748
240.6102, 5.610413
241.0924, 5.509094
241.5745, 2.846313
242.0566, 2.684082
242.5387, 14.42151
243.0208, 26.56122
243.5029, 35.09418
243.9851, 40.02356
244.4672, 42.01587
244.9493, 40.92383
245.4314, 37.03259
245.9135, 32.56000
246.3956, 27.68402
246.8778, 22.05432
247.3599, 14.66742
247.8420, 6.134155
248.3241, 1.270203
248.8062, 6.670837
249.2883, 9.971191
249.7705, 10.90247
250.2526, 7.778137
250.7347, 5.052979
251.2168, 2.984070
251.6989, 2.472351
252.1810, 6.466553
252.6632, 17.03961
253.1453, 30.13611
253.6274, 36.12103
254.1095, 31.10736
254.5916, 27.55817
255.0737, 30.08936
255.5559, 34.56879
256.0380, 34.10480
256.5201, 26.45215
257.0022, 17.92493
257.4843, 18.94727
257.9665, 35.98242
258.4486, 48.71826
258.9307, 54.01050
259.4128, 56.31421
259.8949, 60.10962
260.3770, 66.00940
260.8592, 70.51880
261.3413, 68.83887
261.8234, 57.40356
262.3055, 53.45898
262.7876, 63.53613
263.2697, 74.93408
263.7519, 79.46680
264.2340, 77.42029
264.7161, 74.34790
265.1982, 75.44238
265.6803, 81.37268
266.1624, 83.46509
266.6446, 78.62158
267.1267, 73.63721
267.6088, 72.38196
268.0909, 73.01196
268.5730, 70.45935
269.0551, 60.56238
269.5373, 44.82373
270.0194, 36.47656
270.5015, 41.66101
270.9836, 48.40332
271.4657, 56.20312
271.9478, 64.18494
272.4300, 72.12231
272.9121, 80.16284
273.3942, 86.58765
273.8763, 85.89160
274.3584, 70.45959
274.8405, 60.29944
275.3227, 61.23291
275.8048, 66.13660
276.2869, 68.17334
276.7690, 65.17981
277.2511, 61.18677
277.7332, 62.83936
278.2154, 71.86536
278.6975, 81.16821
279.1796, 92.04956
279.6617, 101.5017
280.1438, 108.1016
280.6259, 111.4969
281.1081, 111.4761
281.5902, 105.6481
282.0723, 93.37415
282.5544, 86.83655
283.0365, 89.12634
283.5186, 95.46863
284.0008, 105.2976
284.4829, 117.3340
284.9650, 127.7662
285.4471, 135.1603
285.9292, 139.1049
286.4113, 136.5697
286.8935, 123.2053
287.3756, 111.7642
287.8577, 109.8761
288.3398, 114.1179
288.8219, 119.9512
289.3040, 127.4481
289.7862, 134.7971
290.2683, 137.7014
290.7504, 134.8325
291.2325, 135.8059
291.7146, 149.9498
292.1967, 169.4694
292.6789, 181.4877
293.1610, 180.5410
293.6431, 178.6842
294.1252, 187.7058
294.6073, 205.5682
295.0894, 217.6251
295.5716, 213.3020
296.0537, 205.6926
296.5358, 218.5699
297.0179, 255.9553
297.5000, 296.9850
297.9821, 339.7451
298.4643, 378.9987
298.9464, 402.2836
299.4285, 404.2086
299.9106, 400.2145
300.3927, 411.9115
300.8748, 443.3273
301.3570, 466.9839
301.8391, 473.6884
302.3212, 476.0404
302.8033, 486.4539
303.2854, 505.8202
303.7675, 524.7833
304.2497, 534.1763
304.7318, 533.0049
305.2139, 541.8378
305.6960, 566.7904
306.1781, 594.3660
306.6602, 621.2980
307.1424, 645.7458
307.6245, 665.1003
308.1066, 677.4476
308.5887, 683.7246
309.0708, 688.7391
309.5529, 693.1353
310.0351, 695.7163
310.5172, 694.7625
310.9993, 692.4246
311.4814, 690.7943
311.9635, 690.7495
312.4456, 692.5205
312.9278, 697.4697
313.4099, 710.1410
313.8920, 715.9625
314.3741, 704.4431
314.8562, 694.2222
315.3383, 699.5000
315.8205, 720.4985
316.3026, 745.3625
316.7847, 761.2065
317.2668, 766.8013
317.7489, 778.7859
318.2310, 807.5527
318.7132, 831.4663
319.1953, 836.7443
319.6774, 829.9877
320.1595, 827.9521
320.6416, 843.6182
321.1237, 869.5647
321.6059, 883.6549
322.0880, 881.7236
322.5701, 878.9591
323.0522, 879.6458
323.5343, 884.4351
324.0164, 895.0525
324.4986, 912.8834
324.9807, 934.6860
325.4628, 960.6007
325.9449, 989.9657
326.4270, 1009.749
326.9091, 1010.213
327.3913, 1004.917
327.8734, 1014.138
328.3555, 1041.788
328.8376, 1065.886
329.3197, 1076.225
329.8018, 1077.614
330.2840, 1075.630
330.7661, 1069.954
331.2482, 1063.102
331.7303, 1057.503
332.2124, 1053.289
332.6945, 1049.695
333.1767, 1047.491
333.6588, 1045.395
334.1409, 1042.704
334.6230, 1039.470
335.1051, 1036.258
335.5872, 1034.255
336.0694, 1032.603
336.5515, 1023.248
337.0336, 1001.303
337.5157, 979.0088
337.9978, 961.0154
338.4799, 942.4922
338.9621, 914.8323
339.4442, 874.5410
339.9263, 829.1597
340.4084, 794.6484
340.8905, 776.1960
341.3727, 759.6270
341.8548, 748.1293
342.3369, 735.5864
342.8190, 718.2422
343.3011, 695.4700
343.7832, 668.3826
344.2654, 635.6226
344.7475, 596.3394
345.2296, 566.9036
345.7117, 555.3413
346.1938, 544.8920
346.6759, 528.4240
347.1581, 508.5067
347.6402, 490.5420
348.1223, 477.3362
348.6044, 467.5297
349.0865, 458.7688
349.5686, 451.5192
350.0508, 443.2310
350.5329, 427.0814
351.0150, 412.4578
351.4971, 413.9689
351.9792, 439.2529
352.4613, 456.7272
352.9435, 435.6044
353.4256, 385.0940
353.9077, 341.0316
354.3898, 311.5553
354.8719, 291.6512
355.3540, 277.4463
355.8362, 268.4508
356.3183, 262.2350
356.8004, 261.7484
357.2825, 261.7474
357.7646, 255.6288
358.2467, 243.5297
358.7289, 232.7822
359.2110, 230.2828
359.6931, 234.4180
360.1752, 226.2928
360.6573, 188.5566
361.1394, 160.2415
361.6216, 158.7629
362.1037, 173.3412
362.5858, 188.0327
363.0679, 196.3704
363.5500, 199.0154
364.0321, 197.4427
364.5143, 193.3713
364.9964, 181.1290
365.4785, 148.7112
365.9606, 118.4073
366.4427, 107.1558
366.9248, 114.1881
367.4070, 125.6544
367.8891, 128.8219
368.3712, 123.9250
368.8533, 121.2875
369.3354, 121.4379
369.8175, 123.3485
370.2997, 129.4344
370.7818, 136.1976
371.2639, 138.0018
371.7460, 131.7732
372.2281, 121.3447
372.7102, 110.7479
373.1924, 99.58533
373.6745, 93.28491
374.1566, 96.39026
374.6387, 103.0177
375.1208, 107.5280
375.6029, 109.9512
376.0851, 108.3684
376.5672, 96.62244
377.0493, 81.33716
377.5314, 78.13586
378.0135, 90.86108
378.4956, 102.3361
378.9778, 95.23352
379.4599, 69.63562
379.9420, 53.06421
380.4241, 54.43518
380.9062, 56.83545
381.3883, 50.37195
381.8705, 37.33093
382.3526, 24.10608
382.8347, 13.87012
383.3168, 5.707397
383.7989, 2.868286
384.2810, 21.27893
384.7632, 26.67847
385.2453, 1.799072
385.7274, 24.75049
386.2095, 25.87732
386.6916, 0.1954350
387.1737, 30.78259
387.6559, 44.64685
388.1380, 40.53894
388.6201, 35.75793
389.1022, 29.72644
389.5843, 23.64453
390.0664, 18.00635
390.5486, 12.53772
391.0307, 6.437744
391.5128, 1.413208
391.9949, 8.468262
392.4770, 11.28357
392.9591, 9.988159
393.4413, 2.250854
393.9234, 21.15173
394.4055, 44.34912
394.8876, 49.04980
395.3697, 33.59656
395.8518, 16.85181
396.3340, 9.214355
396.8161, 6.215088
397.2982, 1.133423
397.7803, 14.34900
398.2624, 25.92810
398.7445, 29.12317
399.2267, 24.18713
399.7088, 21.50012
400.1909, 21.94141
400.6730, 23.55969
401.1551, 25.38684
401.6372, 27.78845
402.1194, 30.85107
402.6015, 34.48486
403.0836, 40.60168
403.5657, 53.53455
404.0478, 81.02356
404.5299, 101.1682
405.0121, 110.5061
405.4942, 116.4812
405.9763, 122.2820
406.4584, 128.9576
406.9405, 137.5046
407.4226, 149.8927
407.9048, 164.8962
408.3869, 173.5201
408.8690, 171.7559
409.3511, 170.9834
409.8332, 174.7549
410.3153, 181.7220
410.7975, 190.8843
411.2796, 202.2936
411.7617, 214.3395
412.2438, 225.0359
412.7259, 234.7821
413.2080, 246.6344
413.6902, 262.3167
414.1723, 277.9185
414.6544, 288.4774
415.1365, 294.6226
415.6186, 300.7672
416.1007, 306.8827
416.5829, 313.9724
417.0650, 322.0037
417.5471, 331.5352
418.0292, 344.8685
418.5113, 363.6733
418.9934, 386.5698
419.4756, 408.8873
419.9577, 430.9062
420.4398, 452.1382
420.9219, 474.0173
421.4040, 494.2180
421.8861, 509.1184
422.3683, 519.1731
422.8504, 529.3760
423.3325, 544.4347
423.8146, 564.2959
424.2967, 589.2388
424.7788, 624.7898
425.2610, 658.2881
425.7431, 681.3851
426.2252, 701.1509
426.7073, 729.3077
427.1894, 772.2520
427.6715, 817.4172
428.1537, 845.8796
428.6358, 858.6864
429.1179, 877.2980
429.6000, 907.1069
430.0821, 944.0684
430.5642, 985.7676
431.0464, 1031.939
431.5285, 1076.593
432.0106, 1120.275
432.4927, 1160.333
432.9748, 1188.625
433.4569, 1208.095
433.9391, 1238.514
434.4212, 1294.829
434.9033, 1366.749
435.3854, 1415.109
435.8675, 1421.827
436.3496, 1427.839
436.8318, 1432.764
437.3139, 1440.078
437.7960, 1455.702
438.2781, 1478.868
438.7602, 1500.623
439.2423, 1510.969
439.7245, 1509.850
440.2066, 1511.149
440.6887, 1521.841
441.1708, 1524.822
441.6529, 1511.661
442.1350, 1488.416
442.6172, 1465.281
443.0993, 1447.557
443.5814, 1426.559
444.0635, 1389.390
444.5456, 1338.457
445.0277, 1292.557
445.5099, 1256.354
445.9920, 1228.042
446.4741, 1210.957
446.9562, 1203.794
447.4383, 1184.657
447.9204, 1138.445
448.4026, 1088.498
448.8847, 1052.018
449.3668, 1027.018
449.8489, 1004.607
450.3310, 979.9402
450.8131, 955.7719
451.2953, 938.8591
451.7774, 935.9709
452.2595, 928.0239
452.7416, 914.7573
453.2237, 900.1925
453.7059, 883.4431
454.1880, 866.2397
454.6701, 854.4321
455.1522, 852.9333
455.6343, 860.6570
456.1165, 874.4592
456.5986, 898.5745
457.0807, 916.9275
457.5628, 915.5801
458.0449, 909.5094
458.5270, 915.1006
459.0092, 935.7725
459.4913, 956.9667
459.9734, 968.8083
460.4555, 974.7903
460.9376, 981.4987
461.4197, 989.6753
461.9019, 1001.903
462.3840, 1022.515
462.8661, 1050.588
463.3482, 1069.432
463.8303, 1066.656
464.3124, 1069.090
464.7946, 1088.227
465.2767, 1117.206
465.7588, 1148.156
466.2409, 1178.228
466.7230, 1204.620
467.2051, 1223.195
467.6873, 1233.082
468.1694, 1239.427
468.6515, 1228.819
469.1336, 1229.055
469.6157, 1261.814
470.0978, 1310.798
470.5800, 1345.143
471.0621, 1347.608
471.5442, 1336.364
472.0263, 1334.747
472.5084, 1343.058
472.9905, 1358.534
473.4727, 1385.294
473.9548, 1410.111
474.4369, 1414.066
474.9190, 1400.079
475.4011, 1393.150
475.8832, 1400.487
476.3654, 1410.008
476.8475, 1414.658
477.3296, 1415.209
477.8117, 1414.812
478.2938, 1414.243
478.7759, 1408.535
479.2581, 1388.664
479.7402, 1343.466
480.2223, 1307.046
480.7044, 1282.567
481.1865, 1263.590
481.6686, 1248.988
482.1508, 1236.714
482.6329, 1222.812
483.1150, 1205.886
483.5971, 1184.917
484.0792, 1155.207
484.5613, 1115.166
485.0435, 1075.688
485.5256, 1040.503
486.0077, 1008.019
486.4898, 976.6237
486.9719, 946.1121
487.4540, 911.4839
487.9362, 865.6765
488.4183, 818.8577
488.9004, 785.2317
489.3825, 763.7744
489.8646, 740.0894
490.3467, 703.9274
490.8289, 659.0894
491.3110, 621.6851
491.7931, 598.1975
492.2752, 573.9507
492.7573, 550.3652
493.2394, 524.4713
493.7216, 492.1122
494.2037, 454.0822
494.6858, 416.5479
495.1679, 383.0798
495.6500, 354.5222
496.1321, 335.9128
496.6143, 330.9700
497.0964, 324.0835
497.5785, 306.5979
498.0606, 285.1368
498.5427, 269.3070
499.0248, 261.8175
499.5070, 248.6027
499.9891, 214.2701
500.4712, 174.2701
500.9533, 151.4301
501.4354, 147.4100
501.9175, 150.5695
502.3997, 154.1506
502.8818, 157.2097
503.3639, 154.0934
503.8460, 141.2531
504.3281, 126.4294
504.8102, 107.4365
505.2924, 88.59155
505.7745, 72.39294
506.2566, 59.83813
506.7387, 52.49524
507.2208, 53.46753
507.7029, 60.84888
508.1851, 64.75818
508.6672, 64.42065
509.1493, 63.01807
509.6314, 64.01001
510.1135, 63.39758
510.5956, 54.75952
511.0778, 35.57202
511.5599, 18.03857
512.0420, 8.314209
512.5241, 3.145508
513.0062, 2.808228
513.4883, 9.532471
513.9705, 10.95398
514.4526, 1.464111
514.9347, 15.91406
515.4168, 24.91162
515.8989, 14.19275
516.3810, 10.09485
516.8632, 19.16235
517.3453, 31.96899
517.8274, 42.15662
518.3095, 48.47266
518.7916, 52.08069
519.2737, 53.98755
519.7559, 53.74792
520.2380, 48.48584
520.7201, 36.54456
521.2022, 27.72131
521.6843, 27.15918
522.1664, 31.25061
522.6486, 34.73889
523.1307, 37.99902
523.6128, 38.92212
524.0949, 35.90869
524.5770, 30.85779
525.0591, 25.37109
525.5413, 19.64124
526.0234, 13.77258
526.5055, 7.990723
526.9876, 1.667114
527.4697, 8.085327
527.9518, 28.23169
528.4340, 38.47485
528.9161, 29.20520
529.3982, 17.83984
529.8803, 16.37341
530.3624, 23.24536
530.8445, 28.32190
531.3267, 20.62781
531.8088, 11.86816
532.2909, 29.86182
532.7730, 74.00513
533.2551, 101.8363
533.7372, 94.05566
534.2194, 71.54553
534.7015, 65.98633
535.1836, 80.98462
535.6657, 84.33557
536.1478, 60.43262
536.6299, 35.36584
537.1121, 25.95911
537.5942, 28.39282
538.0763, 32.62512
538.5584, 34.08496
539.0405, 33.43005
539.5226, 31.30493
540.0048, 26.92371
540.4869, 24.54285
540.9690, 25.40051
541.4511, 27.19031
541.9332, 28.51904
542.4153, 29.82227
542.8975, 32.73206
543.3796, 40.58838
543.8617, 45.26196
544.3438, 35.30237
544.8259, 16.55664
545.3080, 6.000488
545.7902, 7.845703
546.2723, 14.99072
546.7544, 21.10449
547.2365, 26.25000
547.7186, 28.45142
548.2007, 26.89868
548.6829, 23.67578
549.1650, 16.84277
549.6471, 9.833984
550.1292, 7.477295
550.6113, 10.40625
551.0934, 13.36157
551.5756, 9.356934
552.0577, 0.1958010
552.5398, 1.387695
553.0219, 8.726318
553.5040, 11.46899
553.9861, 9.898926
554.4683, 41.18506
554.9504, 53.53540
555.4325, 39.86621
555.9146, 28.38501
556.3967, 27.05908
556.8788, 32.36572
557.3610, 44.38525
557.8431, 60.59937
558.3252, 72.68604
558.8073, 74.65942
559.2894, 70.54370
559.7715, 73.49707
560.2537, 89.54614
560.7358, 97.82690
561.2179, 86.05640
561.7000, 73.92920
562.1821, 71.17847
562.6642, 77.30469
563.1464, 88.68359
563.6285, 107.8206
564.1106, 127.0706
564.5927, 137.7559
565.0748, 141.6440
565.5569, 144.4282
566.0391, 147.6973
566.5212, 149.1316
567.0033, 144.1174
567.4854, 129.8064
567.9675, 132.1536
568.4496, 170.2317
568.9318, 199.6626
569.4139, 196.9905
569.8960, 183.1814
570.3781, 185.8086
570.8602, 211.6995
571.3423, 244.0986
571.8245, 266.8018
572.3066, 282.3442
572.7887, 301.0159
573.2708, 322.6472
573.7529, 345.5442
574.2350, 369.9045
574.7172, 396.3672
575.1993, 425.4727
575.6814, 458.4417
576.1635, 490.0762
576.6456, 516.9373
577.1277, 543.4639
577.6099, 573.8252
578.0920, 607.4641
578.5741, 641.0747
579.0562, 672.4951
579.5383, 704.9885
580.0204, 746.7871
580.5026, 800.5662
580.9847, 852.5081
581.4668, 899.1755
581.9489, 944.8411
582.4310, 987.8430
582.9131, 1031.863
583.3953, 1087.815
583.8774, 1166.641
584.3595, 1248.321
584.8416, 1318.410
585.3237, 1382.056
585.8058, 1449.578
586.2880, 1523.573
586.7701, 1599.583
587.2522, 1671.198
587.7343, 1738.150
588.2164, 1810.904
588.6985, 1891.302
589.1807, 1976.444
589.6628, 2065.780
590.1449, 2157.392
590.6270, 2251.351
591.1091, 2347.941
591.5912, 2444.492
592.0734, 2531.396
592.5555, 2620.379
593.0376, 2736.397
593.5197, 2876.509
594.0018, 3008.162
594.4839, 3115.553
594.9661, 3213.309
595.4482, 3324.421
595.9303, 3455.370
596.4124, 3579.127
596.8945, 3682.892
597.3766, 3795.163
597.8588, 3931.624
598.3409, 4082.067
598.8230, 4230.734
599.3051, 4372.692
599.7872, 4509.193
600.2693, 4639.447
600.7515, 4765.224
601.2336, 4897.894
601.7157, 5039.672
602.1978, 5176.133
602.6799, 5296.009
603.1620, 5406.134
603.6442, 5530.763
604.1263, 5689.061
604.6084, 5820.459
605.0905, 5894.454
605.5726, 5960.166
606.0547, 6059.279
606.5369, 6178.709
607.0190, 6279.953
607.5011, 6341.719
607.9832, 6379.886
608.4653, 6417.245
608.9474, 6453.592
609.4296, 6492.450
609.9117, 6537.900
610.3938, 6577.390
610.8759, 6608.928
611.3580, 6626.517
611.8401, 6610.045
612.3223, 6530.996
612.8044, 6457.185
613.2865, 6418.656
613.7686, 6387.573
614.2507, 6330.968
614.7328, 6250.615
615.2150, 6175.851
615.6971, 6130.949
616.1792, 6099.624
616.6613, 6034.195
617.1434, 5930.404
617.6255, 5818.623
618.1077, 5700.380
618.5898, 5582.098
619.0719, 5474.637
619.5540, 5374.125
620.0361, 5263.576
620.5182, 5130.815
621.0004, 4997.862
621.4825, 4878.422
621.9646, 4764.990
622.4467, 4644.444
622.9288, 4515.842
623.4109, 4392.405
623.8931, 4286.880
624.3752, 4195.514
624.8573, 4098.410
625.3394, 3998.189
625.8215, 3883.627
626.3036, 3744.521
626.7858, 3596.086
627.2679, 3445.442
627.7500, 3295.215
628.2321, 3166.238
628.7142, 3078.777
629.1964, 2998.884
629.6785, 2909.843
630.1606, 2810.453
630.6427, 2691.945
631.1248, 2554.781
631.6069, 2425.535
632.0891, 2335.957
632.5712, 2282.408
633.0533, 2218.685
633.5354, 2140.916
634.0175, 2061.325
634.4996, 1980.989
634.9818, 1902.537
635.4639, 1828.434
635.9460, 1759.117
636.4281, 1692.279
636.9102, 1624.569
637.3923, 1561.845
637.8745, 1511.812
638.3566, 1469.671
638.8387, 1423.578
639.3208, 1370.193
639.8029, 1317.782
640.2850, 1277.417
640.7672, 1248.557
641.2493, 1214.566
641.7314, 1168.993
642.2135, 1131.489
642.6956, 1121.606
643.1777, 1114.431
643.6599, 1080.027
644.1420, 1016.459
644.6241, 963.8247
645.1062, 938.4614
645.5883, 926.2485
646.0704, 925.6689
646.5526, 928.1655
647.0347, 913.1594
647.5168, 874.8848
647.9989, 833.3467
648.4810, 814.3525
648.9631, 817.3894
649.4453, 814.5156
649.9274, 804.6421
650.4095, 791.1138
650.8916, 769.2129
651.3737, 748.1975
651.8558, 741.5398
652.3380, 750.5503
652.8201, 752.7227
653.3022, 735.0095
653.7843, 714.1560
654.2664, 701.9172
654.7485, 695.8096
655.2307, 690.0593
655.7128, 682.7537
656.1949, 675.8596
656.6770, 672.4653
657.1591, 672.1003
657.6412, 666.3240
658.1234, 651.9780
658.6055, 641.6541
659.0876, 643.2957
659.5697, 648.3557
660.0518, 647.5730
660.5339, 641.1462
661.0161, 626.6248
661.4982, 588.3713
661.9803, 557.1802
662.4624, 561.1082
662.9445, 581.7234
663.4266, 588.8113
663.9088, 574.0432
664.3909, 547.8708
664.8730, 515.8540
665.3551, 481.9043
665.8372, 471.8281
666.3193, 490.7517
666.8015, 506.4751
667.2836, 508.5945
667.7657, 502.5039
668.2478, 491.2737
668.7299, 474.0601
669.2120, 468.1274
669.6942, 485.7322
670.1763, 503.7454
670.6584, 513.4019
671.1405, 516.1077
671.6226, 511.3069
672.1047, 500.5459
672.5869, 492.6565
673.0690, 498.6680
673.5511, 513.3176
674.0332, 519.0603
674.5153, 515.0071
674.9974, 510.0105
675.4796, 505.9321
675.9617, 503.1838
676.4438, 501.2166
676.9259, 499.9583
677.4080, 509.2302
677.8901, 544.5823
678.3723, 569.4373
678.8544, 570.4844
679.3365, 561.5161
679.8186, 552.9170
680.3007, 546.2502
680.7828, 540.2778
681.2650, 532.2639
681.7471, 529.1685
682.2292, 544.4382
682.7113, 572.4258
683.1934, 591.7449
683.6755, 598.0103
684.1577, 597.0564
684.6398, 591.9683
685.1219, 583.6008
685.6040, 583.2524
686.0861, 602.2200
686.5682, 610.2197
687.0504, 598.6008
687.5325, 582.6479
688.0146, 569.3032
688.4967, 560.1213
688.9788, 558.1040
689.4609, 569.1282
689.9431, 577.9622
690.4252, 565.2822
690.9073, 544.3647
691.3894, 541.7725
691.8715, 559.5920
692.3536, 582.7349
692.8358, 602.2510
693.3179, 615.3953
693.8000, 610.9006
694.2821, 579.9971
694.7642, 562.5239
695.2463, 571.3845
695.7285, 582.6770
696.2106, 582.7878
696.6927, 575.2627
697.1748, 566.6036
697.6569, 556.2024
698.1390, 547.7274
698.6212, 549.8525
699.1033, 549.5398
699.5854, 527.1719
700.0675, 491.0186
700.5496, 468.3043
701.0317, 472.0099
701.5139, 484.7224
701.9960, 478.8821
702.4781, 456.3304
702.9602, 447.1190
703.4423, 458.2437
703.9244, 457.8842
704.4066, 423.0570
704.8887, 373.4272
705.3708, 346.9049
705.8529, 351.8013
706.3350, 350.3218
706.8171, 337.1947
707.2993, 321.7395
707.7814, 306.7684
708.2635, 292.4836
708.7456, 279.0657
709.2277, 266.5122
709.7098, 254.4753
710.1920, 242.7928
710.6741, 231.1700
711.1562, 219.1166
711.6383, 206.7317
712.1204, 193.0735
712.6025, 177.2031
713.0847, 164.0900
713.5668, 161.2574
714.0489, 168.7218
714.5310, 163.0292
715.0131, 130.2684
715.4952, 107.2230
715.9774, 114.1448
716.4595, 122.6089
716.9416, 106.9861
717.4237, 71.22852
717.9058, 41.70923
718.3879, 26.29443
718.8701, 20.76099
719.3522, 31.58984
719.8343, 46.65332
720.3164, 45.19348
720.7985, 27.16748
721.2806, 9.699951
721.7628, 4.439331
722.2449, 6.835327
722.7270, 7.466797
723.2091, 6.350464
723.6912, 2.946289
724.1733, 2.989380
724.6555, 10.52783
725.1376, 20.11426
725.6197, 30.48206
726.1018, 37.64697
726.5839, 38.42554
727.0660, 43.12024
727.5482, 59.66345
728.0303, 73.27295
728.5124, 74.98071
728.9945, 67.95715
729.4766, 55.34595
729.9587, 38.06934
730.4409, 27.89856
730.9230, 42.11328
731.4051, 67.02136
731.8872, 77.79651
732.3693, 75.19653
732.8514, 67.81482
733.3336, 58.48999
733.8157, 50.15637
734.2978, 46.94189
734.7799, 48.92639
735.2620, 49.61682
735.7441, 47.02893
736.2263, 46.98877
736.7084, 55.75183
737.1905, 63.98035
737.6726, 61.57080
738.1547, 50.30237
738.6368, 43.78357
739.1190, 53.47028
739.6011, 58.59161
740.0832, 43.75531
740.5653, 22.88867
741.0474, 12.52539
741.5295, 12.89844
742.0117, 14.89752
742.4938, 13.48309
742.9759, 8.806396
743.4580, 2.082947
743.9401, 17.25732
744.4222, 21.92395
744.9044, 13.36176
745.3865, 2.711060
745.8686, 4.346069
746.3507, 7.712280
746.8328, 6.559082
747.3149, 1.493042
747.7971, 8.403137
748.2792, 12.81116
748.7613, 17.67981
749.2434, 24.33655
749.7255, 31.83282
750.2076, 39.02490
750.6898, 45.73602
751.1719, 52.15479
751.6540, 59.86285
752.1361, 65.95789
752.6182, 66.85699
753.1003, 64.49432
753.5825, 61.96753
754.0646, 60.43671
754.5467, 61.38556
755.0288, 67.24365
755.5109, 75.53143
755.9930, 77.33417
756.4752, 72.23639
756.9573, 68.96332
757.4394, 68.65753
757.9215, 72.67859
758.4036, 84.01550
758.8857, 100.5929
759.3679, 111.4506
759.8500, 115.6201
760.3321, 115.0789
760.8142, 102.5097
761.2963, 92.55249
761.7784, 95.78229
762.2606, 106.6315
762.7427, 114.3004
763.2248, 115.8173
763.7069, 114.6805
764.1890, 110.7750
764.6711, 106.9338
765.1533, 108.0557
765.6354, 112.1284
766.1175, 112.5745
766.5996, 107.2401
767.0817, 100.0383
767.5638, 95.02844
768.0460, 92.29736
768.5281, 90.45428
769.0102, 88.39697
769.4923, 97.61487
769.9744, 126.5796
770.4565, 155.9700
770.9387, 165.8130
771.4208, 157.9424
771.9029, 154.6977
772.3850, 165.5200
772.8671, 167.2717
773.3492, 142.8840
773.8314, 123.0884
774.3135, 133.3684
774.7956, 162.9655
775.2777, 186.2034
775.7598, 195.9323
776.2419, 195.3717
776.7241, 175.1136
777.2062, 153.5506
777.6883, 156.5608
778.1704, 178.4856
778.6525, 198.5427
779.1346, 208.6099
779.6168, 213.8461
780.0989, 221.0018
780.5810, 228.9345
781.0631, 229.5482
781.5452, 221.9792
782.0273, 216.6251
782.5095, 217.1089
782.9916, 218.7969
783.4737, 216.7079
783.9558, 211.1630
784.4379, 207.6577
784.9200, 205.3844
785.4022, 205.4600
785.8843, 214.7573
786.3664, 220.7275
786.8485, 212.1476
787.3306, 195.2205
787.8127, 184.0679
788.2949, 181.9051
788.7770, 183.7595
789.2591, 190.5882
789.7412, 197.6157
790.2233, 198.9379
790.7054, 197.2321
791.1876, 200.2592
791.6697, 210.1351
792.1518, 218.5875
792.6339, 215.9188
793.1160, 205.2845
793.5981, 195.6401
794.0803, 186.8398
794.5624, 179.0150
795.0445, 172.3473
795.5266, 167.8395
796.0087, 166.8867
796.4908, 168.4780
796.9730, 166.9002
797.4551, 161.8230
797.9372, 156.2451
798.4193, 147.6683
798.9014, 141.8760
799.3835, 144.8657
799.8657, 151.2928
800.3478, 151.1530
800.8299, 142.4240
801.3120, 132.1355
801.7941, 118.0149
802.2762, 106.7280
802.7584, 100.5146
803.2405, 100.2339
803.7226, 111.5439
804.2047, 133.5285
804.6868, 149.0063
805.1689, 140.7576
805.6511, 123.1160
806.1332, 115.4454
806.6153, 115.5777
807.0974, 118.4962
807.5795, 122.7914
808.0616, 125.1061
808.5438, 122.4570
809.0259, 117.7665
809.5080, 119.9857
809.9901, 130.3673
810.4722, 134.7628
810.9543, 130.8171
811.4365, 124.3983
811.9186, 115.8783
812.4007, 108.9091
812.8828, 110.8721
813.3649, 124.8304
813.8470, 134.1959
814.3292, 136.5521
814.8113, 137.1774
815.2934, 139.4288
815.7755, 139.4262
816.2576, 130.8792
816.7397, 115.8481
817.2219, 105.7568
817.7040, 106.5388
818.1861, 110.1863
818.6682, 112.2702
819.1503, 114.0065
819.6324, 119.0508
820.1146, 125.5801
820.5967, 126.6136
821.0788, 118.7618
821.5609, 108.4078
822.0430, 103.1772
822.5251, 101.5443
823.0073, 97.83234
823.4894, 92.58636
823.9716, 94.21747
824.4537, 106.0062
824.9358, 118.6091
825.4179, 121.9186
825.9000, 117.1211
826.3821, 113.0514
826.8643, 109.4279
827.3464, 108.2048
827.8285, 112.7649
828.3106, 115.3994
828.7927, 107.4568
829.2748, 93.72876
829.7570, 89.71558
830.2391, 101.9726
830.7212, 107.8544
831.2033, 101.0553
831.6854, 92.53387
832.1675, 84.46509
832.6497, 79.12988
833.1318, 80.05035
833.6139, 86.64679
834.0960, 89.01434
834.5781, 79.25311
835.0602, 66.65009
835.5424, 55.16357
836.0245, 47.33331
836.5066, 47.09100
836.9887, 53.74823
837.4708, 64.04504
837.9529, 76.87885
838.4351, 88.21857
838.9172, 92.68750
839.3993, 91.13141
839.8814, 83.37860
840.3635, 70.70636
840.8456, 66.15753
841.3278, 75.58630
841.8099, 88.13538
842.2920, 90.35614
842.7741, 83.37463
843.2562, 78.63483
843.7383, 76.51697
844.2205, 75.94672
844.7026, 78.20825
845.1847, 78.74506
845.6668, 72.26770
846.1489, 61.83972
846.6310, 58.38806
847.1132, 68.01886
847.5953, 72.96228
848.0774, 67.20557
848.5595, 63.54755
849.0416, 68.97626
849.5237, 78.41418
850.0059, 87.49927
850.4880, 95.20264
850.9701, 95.27649
851.4522, 76.59418
851.9343, 60.24817
852.4164, 61.90778
852.8986, 69.11859
853.3807, 65.88818
853.8628, 54.45813
854.3449, 49.52277
854.8270, 59.11017
855.3091, 68.78314
855.7913, 59.16901
856.2734, 41.83014
856.7555, 39.74219
857.2376, 50.39429
857.7197, 58.31549
858.2018, 58.20197
858.6840, 54.05573
859.1661, 48.92078
859.6482, 44.96069
860.1303, 53.00275
860.6124, 72.98151
861.0945, 80.33990
861.5767, 69.35278
862.0588, 56.89490
862.5409, 53.24237
863.0230, 55.49316
863.5051, 57.67389
863.9872, 60.46326
864.4694, 59.69537
864.9515, 51.65912
865.4336, 47.14130
865.9157, 52.12561
866.3978, 60.11157
866.8799, 66.86200
867.3621, 71.89832
867.8442, 66.91614
868.3263, 31.80963
868.8084, 12.38831
869.2905, 31.43121
869.7726, 54.26904
870.2548, 58.26355
870.7369, 49.57117
871.2190, 41.60297
871.7011, 36.96906
872.1832, 35.64301
872.6653, 39.29651
873.1475, 44.54425
873.6296, 52.21613
874.1117, 58.10828
874.5938, 54.22046
875.0759, 41.54010
875.5580, 30.56335
876.0402, 26.88702
876.5223, 28.78796
877.0044, 38.28522
877.4865, 50.37665
877.9686, 55.84833
878.4507, 54.36249
878.9329, 46.72852
879.4150, 33.57855
879.8971, 22.27887
880.3792, 22.08807
880.8613, 30.37750
881.3434, 39.86377
881.8256, 50.09430
882.3077, 51.01550
882.7898, 39.60547
883.2719, 30.31812
883.7540, 34.36481
884.2361, 45.25562
884.7183, 45.42639
885.2004, 31.28235
885.6825, 26.99438
886.1646, 36.38989
886.6467, 46.15350
887.1288, 55.20563
887.6110, 56.87018
888.0931, 37.78229
888.5752, 0.3622440
889.0573, 14.33374
889.5394, 17.43774
890.0215, 39.72327
890.5037, 45.91400
890.9858, 45.02747
891.4679, 38.22925
891.9500, 28.76550
892.4321, 21.69244
892.9142, 17.52148
893.3964, 15.37915
893.8785, 11.00861
894.3606, 13.58020
894.8427, 36.65222
895.3248, 61.53461
895.8069, 69.93823
896.2891, 62.29834
896.7712, 46.91913
897.2533, 21.60443
897.7354, 4.464661
898.2175, 14.60114
898.6996, 31.21411
899.1818, 34.93964
899.6639, 28.93463
900.1460, 20.82617
900.6281, 13.36487
901.1102, 8.549133
901.5923, 8.228577
902.0745, 10.89380
902.5566, 16.65076
903.0387, 23.21735
903.5208, 25.82892
904.0029, 24.10974
904.4850, 18.73871
904.9672, 10.00824
905.4493, 3.314392
905.9314, 8.723206
906.4135, 21.86121
906.8956, 25.76050
907.3777, 21.33722
907.8599, 16.67969
908.3420, 13.70209
908.8241, 14.06842
909.3062, 19.75983
909.7883, 27.81189
910.2704, 30.62579
910.7526, 28.01447
911.2347, 23.54852
911.7168, 17.39923
912.1989, 8.143250
912.6810, 6.901428
913.1631, 19.28601
913.6453, 17.73303
914.1274, 3.942871
914.6095, 1.185974
915.0916, 7.460510
915.5737, 10.47723
916.0558, 3.238586
916.5380, 5.765991
917.0201, 14.24438
917.5022, 20.02045
917.9843, 18.24969
918.4664, 7.047180
918.9485, 1.742004
919.4307, 8.971130
919.9128, 12.65009
920.3949, 12.54956
920.8770, 8.671631
921.3591, 3.181396
921.8412, 18.50220
922.3234, 24.08130
922.8055, 14.28357
923.2876, 6.886169
923.7697, 10.18463
924.2518, 10.98676
924.7339, 3.926697
925.2161, 20.02979
925.6982, 16.95715
926.1803, 2.875916
926.6624, 14.92285
927.1445, 4.336487
927.6266, 2.800659
928.1088, 12.15430
928.5909, 29.45154
929.0730, 31.51709
929.5551, 23.72852
930.0372, 17.65094
930.5193, 15.84680
931.0015, 13.29327
931.4836, 3.863220
931.9657, 3.991577
932.4478, 1.505737
932.9299, 5.853333
933.4120, 11.40503
933.8942, 14.73016
934.3763, 18.07977
934.8584, 22.34113
935.3405, 25.02307
935.8226, 22.71393
936.3047, 17.85492
936.7869, 13.50177
937.2690, 10.16901
937.7511, 7.100159
938.2332, 5.029419
938.7153, 9.394470
939.1974, 24.32184
939.6796, 38.98633
940.1617, 35.55560
940.6438, 21.04218
941.1259, 14.40253
941.6080, 14.86438
942.0901, 15.40631
942.5723, 14.00983
943.0544, 10.61212
943.5365, 4.098877
944.0186, 1.131348
944.5007, 8.008301
944.9828, 28.54376
945.4650, 39.02026
945.9471, 38.08014
946.4292, 30.25012
946.9113, 16.34741
947.3934, 4.857300
947.8755, 4.321289
948.3577, 12.03809
948.8398, 16.89203
949.3219, 18.77747
949.8040, 20.79718
950.2861, 23.42792
950.7682, 25.08667
951.2504, 24.83136
951.7325, 23.78119
952.2146, 23.80322
952.6967, 24.73065
953.1788, 22.95752
953.6609, 17.36200
954.1431, 14.97278
954.6252, 18.18524
955.1073, 20.84192
955.5894, 18.47522
956.0715, 14.01929
956.5536, 13.08081
957.0358, 15.93396
957.5179, 20.67816
958.0000, 30.42010
958.4821, 32.89233
958.9642, 18.32001
959.4464, 8.617432
959.9285, 26.70782
960.4106, 58.78717
960.8927, 63.07263
961.3748, 25.17377
961.8569, 8.707153
962.3391, 28.80530
962.8212, 44.83350
963.3033, 42.90552
963.7854, 35.65521
964.2675, 32.98914
964.7496, 34.31970
965.2318, 37.27051
965.7139, 43.40369
966.1960, 48.63257
966.6781, 56.89435
967.1602, 58.22095
967.6423, 40.11578
968.1245, 21.49005
968.6066, 22.78876
969.0887, 40.81659
969.5708, 54.05182
970.0529, 61.17303
970.5350, 64.07446
971.0172, 64.70160
971.4993, 59.12646
971.9814, 33.47906
972.4635, 8.134216
972.9456, 14.40778
973.4277, 50.61523
973.9099, 70.63068
974.3920, 51.42694
974.8741, 39.78424
975.3562, 51.81470
975.8383, 64.77142
976.3204, 66.24945
976.8026, 60.29883
977.2847, 52.34045
977.7668, 43.15070
978.2489, 35.47931
978.7310, 25.93402
979.2131, 23.76013
979.6953, 40.98920
980.1774, 56.53864
980.6595, 51.79388
981.1416, 37.02148
981.6237, 31.39325
982.1058, 37.93866
982.5880, 42.61255
983.0701, 36.42676
983.5522, 33.88904
984.0343, 47.39160
984.5164, 60.03070
984.9985, 55.13672
985.4807, 40.47675
985.9628, 33.76239
986.4449, 38.78101
986.9270, 42.43427
987.4091, 38.46844
987.8912, 34.35706
988.3734, 34.93677
988.8555, 35.63849
989.3376, 31.54761
989.8197, 24.29810
990.3018, 18.68225
990.7839, 15.95642
991.2661, 13.82971
991.7482, 10.19427
992.2303, 5.884827
992.7124, 0.2235110
993.1945, 4.575378
993.6766, 2.835144
994.1588, 3.387634
994.6409, 9.532410
995.1230, 14.51129
995.6051, 18.93024
996.0872, 18.69916
996.5693, 23.08588
997.0515, 47.29187
997.5336, 71.19952
998.0157, 67.92670
998.4978, 46.05609
998.9799, 35.93506
999.4620, 47.84357
999.9442, 59.95227
1000.426, 64.68518
1000.908, 63.93268
1001.391, 53.80139
1001.873, 42.52466
1002.355, 39.63477
1002.837, 43.61426
1003.319, 46.89020
1003.801, 46.85175
1004.283, 48.24622
1004.765, 56.65631
1005.247, 63.26434
1005.730, 60.24945
1006.212, 54.31470
1006.694, 52.13885
1007.176, 54.11017
1007.658, 59.21375
1008.140, 68.27350
1008.622, 74.39990
1009.104, 74.34021
1009.586, 70.64941
1010.069, 64.73090
1010.551, 56.07428
1011.033, 39.82294
1011.515, 20.48572
1011.997, 11.64532
1012.479, 18.65997
1012.961, 29.31927
1013.443, 43.20276
1013.926, 53.80664
1014.408, 57.57263
1014.890, 55.96008
1015.372, 46.91370
1015.854, 34.31995
1016.336, 29.25024
1016.818, 36.44781
1017.300, 42.22131
1017.782, 40.06445
1018.265, 36.72644
1018.747, 34.86188
1019.229, 34.31830
1019.711, 36.14209
1020.193, 38.88831
1020.675, 39.01752
1021.157, 35.97485
1021.639, 29.04938
1022.122, 13.86975
1022.604, 8.2703002E-02
1023.086, 9.506897
1023.568, 14.74786
1024.050, 13.72729
1024.532, 9.234436
1025.014, 9.152344
1025.496, 16.64337
1025.978, 19.95868
1026.461, 13.93225
1026.943, 5.858093
1027.425, 4.419128
1027.907, 12.84644
1028.389, 11.32471
1028.871, 6.222168
1029.353, 16.55713
1029.835, 50.39777
1030.318, 69.98553
1030.800, 59.21826
1031.282, 45.92987
1031.764, 37.05463
1032.246, 30.34454
1032.728, 19.97668
1033.210, 11.36566
1033.692, 19.98419
1034.174, 52.49500
1034.656, 70.49414
1035.139, 60.01239
1035.621, 48.96466
1036.103, 40.40100
1036.585, 36.08984
1037.067, 39.68335
1037.549, 47.42523
1038.031, 52.67450
1038.513, 55.43561
1038.996, 54.52924
1039.478, 45.76880
1039.960, 39.83307
1040.442, 39.41138
1040.924, 40.48468
1041.406, 41.56836
1041.888, 42.29547
1042.370, 41.83264
1042.853, 40.04846
1043.335, 39.57672
1043.817, 43.33972
1044.299, 41.83759
1044.781, 29.46387
1045.263, 19.76007
1045.745, 20.77545
1046.227, 26.80292
1046.709, 31.23553
1047.192, 33.78778
1047.674, 26.83966
1048.156, 4.316406
1048.638, 7.701599
1049.120, 4.821655
1049.602, 3.503662
1050.084, 15.27454
1050.566, 25.99799
1051.048, 30.06628
1051.531, 28.99280
1052.013, 29.68671
1052.495, 31.93292
1052.977, 35.31873
1053.459, 40.63153
1053.941, 41.36334
1054.423, 33.66052
1054.905, 27.82788
1055.388, 35.62366
1055.870, 50.60107
1056.352, 49.73743
1056.834, 33.27118
1057.316, 29.20209
1057.798, 38.96716
1058.280, 48.68872
1058.762, 54.46790
1059.245, 52.53918
1059.727, 38.18628
1060.209, 20.91302
1060.691, 23.72150
1061.173, 41.41852
1061.655, 44.81470
1062.137, 35.43024
1062.619, 29.30695
1063.101, 29.89709
1063.583, 31.32043
1064.066, 29.94623
1064.548, 26.97430
1065.030, 22.46716
1065.512, 18.36243
1065.994, 20.94208
1066.476, 27.75244
1066.958, 30.83820
1067.440, 29.83899
1067.923, 31.16125
1068.405, 37.87274
1068.887, 42.46185
1069.369, 33.56500
1069.851, 21.26691
1070.333, 18.70667
1070.815, 22.89838
1071.297, 31.93237
1071.780, 42.48633
1072.262, 46.59998
1072.744, 42.04742
1073.226, 36.00403
1073.708, 32.11676
1074.190, 30.40497
1074.672, 32.05011
1075.154, 34.87390
1075.636, 35.69348
1076.119, 36.22534
1076.601, 42.01654
1077.083, 52.25684
1077.565, 57.64258
1078.047, 52.45892
1078.529, 44.74713
1079.011, 34.22845
1079.493, 26.70856
1079.976, 30.36005
1080.458, 36.31171
1080.940, 30.76746
1081.422, 15.98950
1081.904, 8.756775
1082.386, 13.91919
1082.868, 23.29333
1083.350, 44.81946
1083.833, 57.50568
1084.315, 47.32062
1084.797, 31.57831
1085.279, 24.21869
1085.761, 23.44153
1086.243, 24.36792
1086.725, 28.94653
1087.207, 26.74756
1087.689, 9.376587
1088.172, 0.8920900
1088.654, 10.14398
1089.136, 21.97437
1089.618, 28.28851
1090.100, 30.16895
1090.582, 28.51337
1091.064, 23.42218
1091.546, 23.20251
1092.028, 28.76538
1092.511, 34.88995
1092.993, 41.17633
1093.475, 47.46887
1093.957, 54.25708
1094.439, 58.26648
1094.921, 55.14185
1095.403, 46.74805
1095.885, 40.25677
1096.368, 35.43774
1096.850, 25.73743
1097.332, 11.77441
1097.814, 11.79877
1098.296, 30.49188
1098.778, 43.93195
1099.260, 32.36426
1099.742, 13.84259
1100.224, 20.78601
1100.707, 41.76764
1101.189, 51.14282
1101.671, 50.01221
1102.153, 39.11847
1102.635, 22.71271
1103.117, 18.16968
1103.599, 34.02795
1104.081, 51.35321
1104.563, 52.30884
1105.046, 46.09058
1105.528, 41.56976
1106.010, 37.63141
1106.492, 31.23236
1106.974, 24.48059
1107.456, 22.11328
1107.938, 24.36591
1108.420, 23.25171
1108.903, 6.852478
1109.385, 1.866211
1109.867, 17.95898
1110.349, 38.20264
1110.831, 36.95526
1111.313, 25.52759
1111.795, 17.62207
1112.277, 15.16125
1112.760, 20.51929
1113.242, 43.73248
1113.724, 53.21417
1114.206, 29.55975
1114.688, 13.98511
1115.170, 27.49377
1115.652, 42.24261
1116.134, 34.18756
1116.616, 14.29926
1117.099, 8.837036
1117.581, 19.75354
1118.063, 24.75122
1118.545, 22.19611
1119.027, 19.59589
1119.509, 17.84344
1119.991, 17.07751
1120.473, 17.24493
1120.955, 19.09821
1121.438, 24.28723
1121.920, 31.11981
1122.402, 32.25110
1122.884, 28.36322
1123.366, 26.91162
1123.848, 27.90320
1124.330, 24.19611
1124.812, 14.29480
1125.295, 8.407349
1125.777, 14.57153
1126.259, 25.45465
1126.741, 33.74982
1127.223, 37.74103
1127.705, 30.33331
1128.187, 17.73779
1128.669, 13.78882
1129.151, 18.24323
1129.634, 22.13251
1130.116, 21.99982
1130.598, 21.34540
1131.080, 20.25745
1131.562, 22.20441
1132.044, 38.84546
1132.526, 50.92590
1133.008, 30.79388
1133.490, 1.703186
1133.973, 9.897278
1134.455, 8.143372
1134.937, 20.49939
1135.419, 15.76746
1135.901, 13.43689
1136.383, 20.48230
1136.865, 25.33813
1137.347, 20.75409
1137.830, 15.10870
1138.312, 15.98016
1138.794, 20.44183
1139.276, 20.89697
1139.758, 16.88281
1140.240, 12.26288
1140.722, 6.663757
1141.204, 1.199829
1141.687, 5.114136
1142.169, 4.334961
1142.651, 8.941406
1143.133, 23.62390
1143.615, 26.43817
1144.097, 20.27325
1144.579, 11.46283
1145.061, 1.773804
1145.543, 2.745605
1146.026, 12.61646
1146.508, 18.20685
1146.990, 16.41730
1147.472, 12.25537
1147.954, 8.469543
1148.436, 5.974426
1148.918, 6.090454
1149.400, 7.734314
1149.882, 11.81036
1150.365, 15.06616
1150.847, 11.15338
1151.329, 2.595581
1151.811, 3.467224
1152.293, 5.183716
1152.775, 3.805908
1153.257, 4.286316
1153.739, 9.405151
1154.222, 4.410950
1154.704, 0.1541140
1155.186, 1.309387
1155.668, 6.872498
1156.150, 17.58551
1156.632, 30.45117
1157.114, 32.01276
1157.596, 17.48914
1158.078, 8.717773
1158.561, 7.177612
1159.043, 7.994995
1159.525, 11.65582
1160.007, 12.90039
1160.489, 8.229858
1160.971, 0.9161990
1161.453, 5.637512
1161.935, 9.836792
1162.417, 1.802979
1162.900, 15.92334
1163.382, 23.00708
1163.864, 19.15314
1164.346, 10.98975
1164.828, 1.855896
1165.310, 4.296631
1165.792, 28.62183
1166.274, 52.53296
1166.757, 48.27521
1167.239, 32.36090
1167.721, 21.86505
1168.203, 15.81073
1168.685, 12.13049
1169.167, 10.81104
1169.649, 14.70508
1170.131, 23.91278
1170.614, 26.78235
1171.096, 8.239502
1171.578, 1.299988
1172.060, 18.18024
1172.542, 35.27502
1173.024, 29.06598
1173.506, 16.83234
1173.988, 16.43060
1174.470, 24.53717
1174.953, 31.75409
1175.435, 38.78058
1175.917, 39.54449
1176.399, 32.25891
1176.881, 26.26453
1177.363, 23.06061
1177.845, 20.92914
1178.327, 19.02802
1178.809, 17.81805
1179.292, 17.24115
1179.774, 19.36658
1180.256, 33.11243
1180.738, 52.20099
1181.220, 55.49908
1181.702, 46.33160
1182.184, 37.53070
1182.666, 32.91772
1183.149, 31.96960
1183.631, 34.66785
1184.113, 36.05206
1184.595, 30.51343
1185.077, 24.73206
1185.559, 23.58105
1186.041, 24.33447
1186.523, 24.45636
1187.005, 24.73450
1187.488, 26.43372
1187.970, 29.75824
1188.452, 35.01538
1188.934, 43.21674
1189.416, 51.36682
1189.898, 61.68420
1190.380, 67.59552
1190.862, 67.34058
1191.344, 62.32483
1191.827, 51.35309
1192.309, 40.77594
1192.791, 39.59424
1193.273, 45.65216
1193.755, 48.05530
1194.237, 47.32971
1194.719, 49.22876
1195.201, 53.08136
1195.684, 48.37494
1196.166, 34.91254
1196.648, 32.04449
1197.130, 53.68524
1197.612, 76.28448
1198.094, 73.57440
1198.576, 62.86615
1199.058, 60.52985
1199.541, 61.52576
1200.023, 61.00177
1200.505, 58.51172
1200.987, 52.21027
1201.469, 42.92542
1201.951, 40.94702
1202.433, 53.53705
1202.915, 63.59143
1203.397, 71.45160
1203.880, 72.63281
1204.362, 62.19543
1204.844, 51.01025
1205.326, 47.46466
1205.808, 45.73981
1206.290, 34.97571
1206.772, 17.25317
1207.254, 6.834534
1207.736, 3.816895
1208.219, 14.77338
1208.701, 38.45502
1209.183, 56.94440
1209.665, 65.22638
1210.147, 66.50934
1210.629, 62.38220
1211.111, 55.87183
1211.593, 48.01642
1212.076, 41.60211
1212.558, 38.47839
1213.040, 39.09021
1213.522, 48.55127
1214.004, 60.67566
1214.486, 64.28088
1214.968, 58.67786
1215.450, 53.92224
1215.932, 53.14691
1216.415, 50.95966
1216.897, 45.37238
1217.379, 40.93842
1217.861, 40.04523
1218.343, 37.09479
1218.825, 25.65820
1219.307, 16.78168
1219.789, 28.68549
1220.271, 55.19745
1220.754, 68.60480
1221.236, 70.26520
1221.718, 70.05780
1222.200, 68.66418
1222.682, 65.39380
1223.164, 60.46844
1223.646, 55.31006
1224.128, 50.45886
1224.611, 49.10883
1225.093, 58.36664
1225.575, 66.87640
1226.057, 66.14514
1226.539, 59.87598
1227.021, 46.69055
1227.503, 33.37524
1227.985, 28.76740
1228.468, 32.99445
1228.950, 43.15100
1229.432, 64.24512
1229.914, 72.10889
1230.396, 61.20868
1230.878, 51.25366
1231.360, 44.85425
1231.842, 41.65973
1232.324, 41.81598
1232.807, 43.29291
1233.289, 43.92633
1233.771, 44.51520
1234.253, 49.53052
1234.735, 54.80548
1235.217, 46.52032
1235.699, 29.51068
1236.181, 15.55511
1236.663, 6.385559
1237.146, 0.1793210
1237.628, 3.726685
1238.110, 6.258118
1238.592, 10.13654
1239.074, 8.806519
1239.556, 6.655640
1240.038, 20.16528
1240.520, 21.84265
1241.003, 19.35907
1241.485, 18.18103
1241.967, 18.92908
1242.449, 23.24646
1242.931, 30.92810
1243.413, 37.81763
1243.895, 44.21466
1244.377, 42.33301
1244.859, 32.07141
1245.342, 28.48303
1245.824, 35.35394
1246.306, 45.27844
1246.788, 54.23553
1247.270, 56.70319
1247.752, 37.55847
1248.234, 18.67157
1248.716, 30.97760
1249.198, 50.00842
1249.681, 45.42761
1250.163, 29.60211
1250.645, 23.27301
1251.127, 25.61615
1251.609, 28.67834
1252.091, 33.84265
1252.573, 29.83923
1253.055, 7.773438
1253.538, 2.184998
1254.020, 6.700989
1254.502, 20.79047
1254.984, 35.24963
1255.466, 46.42212
1255.948, 50.57263
1256.430, 49.45374
1256.912, 44.68890
1257.395, 37.98218
1257.877, 31.87299
1258.359, 25.72870
1258.841, 15.45044
1259.323, 10.16425
1259.805, 5.872314
1260.287, 2.853699
1260.769, 1.897461
1261.251, 4.062500
1261.734, 7.953491
1262.216, 20.85168
1262.698, 24.19983
1263.180, 0.0000000E+00
##END=



