##NAMES=Malayaite
##RRUFFID=R061131
##IDEAL CHEMISTRY=CaSnO(SiO_4_)
##LOCALITY=Humpolec, Czech Republic
##OWNER=RRUFF
##SOURCE=Michael Scott
##DESCRIPTION=Pale tan colored grains disseminated through the rock
##STATUS=The identification of this mineral is confirmed by single-crystal X-ray diffraction and chemical analysis.
##URL=rruff.info/R061131
##MEASURED CHEMISTRY=(Ca_1.01_Fe_0.01_)(Sn_0.99_Ti_0.01_)Si_0.99_O_5_
139.0922, 0.0000000E+00
139.5743, 10.84424
140.0565, 22.27917
140.5386, 28.89795
141.0207, 29.16760
141.5028, 13.53552
141.9849, 15.26123
142.4670, 14.66272
142.9492, 13.97974
143.4313, 14.61060
143.9134, 10.71863
144.3955, 2.821655
144.8776, 11.30493
145.3597, 11.85974
145.8419, 5.002808
146.3240, 1.438477
146.8061, 6.357300
147.2882, 11.44836
147.7703, 17.83313
148.2524, 24.75586
148.7346, 34.04944
149.2167, 47.64819
149.6988, 67.88391
150.1809, 82.20996
150.6630, 85.14880
151.1452, 83.86511
151.6273, 86.96509
152.1094, 97.24365
152.5915, 109.7812
153.0736, 123.4241
153.5557, 138.3555
154.0379, 153.1375
154.5200, 168.9456
155.0021, 184.5674
155.4842, 197.7251
155.9663, 207.7808
156.4484, 215.4517
156.9306, 220.5400
157.4127, 219.1270
157.8948, 220.5842
158.3769, 225.9299
158.8590, 235.6196
159.3411, 251.2397
159.8233, 282.9180
160.3054, 315.8579
160.7875, 339.5491
161.2696, 337.2124
161.7517, 337.7141
162.2338, 354.3469
162.7160, 385.9675
163.1981, 418.1296
163.6802, 443.3542
164.1623, 465.9905
164.6444, 490.6726
165.1265, 522.6250
165.6087, 554.6812
166.0908, 580.3706
166.5729, 599.0710
167.0550, 620.2205
167.5371, 652.9092
168.0192, 691.5146
168.5014, 727.0881
168.9835, 753.0518
169.4656, 775.2673
169.9477, 799.0674
170.4298, 826.0432
170.9119, 850.5083
171.3941, 863.9812
171.8762, 870.7327
172.3583, 881.9817
172.8404, 910.4246
173.3225, 944.7617
173.8046, 970.7532
174.2868, 985.9507
174.7689, 992.7017
175.2510, 988.3359
175.7331, 975.3533
176.2152, 965.1252
176.6973, 967.5017
177.1795, 977.5754
177.6616, 986.9194
178.1437, 996.2405
178.6258, 1000.871
179.1079, 988.0820
179.5900, 959.4231
180.0722, 935.7092
180.5543, 936.1318
181.0364, 955.0857
181.5185, 976.4414
182.0006, 998.1389
182.4827, 1018.064
182.9649, 1032.150
183.4470, 1040.039
183.9291, 1046.534
184.4112, 1056.212
184.8933, 1068.611
185.3754, 1080.618
185.8576, 1088.137
186.3397, 1094.532
186.8218, 1112.754
187.3039, 1144.398
187.7860, 1179.370
188.2681, 1203.370
188.7503, 1217.366
189.2324, 1236.615
189.7145, 1270.665
190.1966, 1316.916
190.6787, 1359.298
191.1608, 1396.706
191.6430, 1432.423
192.1251, 1472.228
192.6072, 1516.041
193.0893, 1560.573
193.5714, 1604.841
194.0535, 1649.115
194.5357, 1690.405
195.0178, 1727.287
195.4999, 1762.129
195.9820, 1799.011
196.4641, 1837.544
196.9462, 1878.604
197.4284, 1927.885
197.9105, 1985.905
198.3926, 2034.510
198.8747, 2071.342
199.3568, 2098.272
199.8389, 2118.973
200.3211, 2132.486
200.8032, 2144.557
201.2853, 2159.527
201.7674, 2177.918
202.2495, 2192.974
202.7316, 2202.719
203.2138, 2208.873
203.6959, 2220.022
204.1780, 2240.602
204.6601, 2253.056
205.1422, 2238.685
205.6243, 2191.218
206.1065, 2148.806
206.5886, 2119.489
207.0707, 2101.801
207.5528, 2083.235
208.0349, 2067.492
208.5170, 2043.722
208.9992, 1997.297
209.4813, 1919.696
209.9634, 1848.712
210.4455, 1794.274
210.9276, 1756.482
211.4097, 1713.530
211.8919, 1661.809
212.3740, 1608.167
212.8561, 1560.775
213.3382, 1523.032
213.8203, 1483.783
214.3024, 1439.172
214.7846, 1388.556
215.2667, 1340.238
215.7488, 1294.245
216.2309, 1249.992
216.7130, 1205.391
217.1951, 1158.335
217.6773, 1115.335
218.1594, 1080.497
218.6415, 1057.131
219.1236, 1022.248
219.6057, 967.0544
220.0878, 905.4700
220.5700, 862.8550
221.0521, 847.2822
221.5342, 837.3765
222.0163, 827.4568
222.4984, 819.5886
222.9805, 800.1199
223.4627, 763.8350
223.9448, 719.0713
224.4269, 683.8320
224.9090, 663.0728
225.3911, 642.8081
225.8732, 616.6074
226.3554, 580.7351
226.8375, 549.6375
227.3196, 524.3191
227.8017, 503.8582
228.2838, 486.7966
228.7659, 476.3267
229.2481, 464.4900
229.7302, 447.0752
230.2123, 419.4109
230.6944, 396.8315
231.1765, 379.8606
231.6587, 368.2405
232.1408, 362.0100
232.6229, 364.5061
233.1050, 367.7373
233.5871, 368.1318
234.0692, 366.0374
234.5514, 360.0789
235.0335, 348.0576
235.5156, 332.2510
235.9977, 320.7585
236.4798, 316.5042
236.9619, 312.5107
237.4441, 305.0862
237.9262, 293.2317
238.4083, 279.8818
238.8904, 264.2600
239.3725, 247.1345
239.8546, 231.8987
240.3368, 218.2754
240.8189, 206.9043
241.3010, 198.0813
241.7831, 191.5083
242.2652, 188.4749
242.7473, 191.6870
243.2295, 199.2158
243.7116, 199.3362
244.1937, 188.6541
244.6758, 174.9783
245.1579, 162.7712
245.6400, 150.9980
246.1222, 143.1335
246.6043, 141.5061
247.0864, 144.7446
247.5685, 142.3408
248.0506, 128.4292
248.5327, 116.5740
249.0149, 118.1873
249.4970, 145.3010
249.9791, 159.2766
250.4612, 150.6094
250.9433, 122.7832
251.4254, 107.0747
251.9076, 109.3760
252.3897, 115.8503
252.8718, 115.9287
253.3539, 104.6938
253.8360, 98.13232
254.3181, 96.84912
254.8003, 101.4177
255.2824, 118.5818
255.7645, 157.2192
256.2466, 195.7961
256.7287, 215.7249
257.2108, 207.7324
257.6930, 204.9744
258.1751, 213.0505
258.6572, 230.7136
259.1393, 247.2573
259.6214, 263.2583
260.1035, 276.7170
260.5857, 284.1948
261.0678, 281.3101
261.5499, 285.9363
262.0320, 305.6340
262.5141, 337.1738
262.9962, 350.5359
263.4784, 341.6799
263.9605, 321.4944
264.4426, 297.7092
264.9247, 269.6636
265.4068, 239.6606
265.8889, 208.1753
266.3711, 175.1331
266.8532, 136.4634
267.3353, 89.07129
267.8174, 42.54248
268.2995, 1.805176
268.7816, 34.40210
269.2638, 57.30151
269.7459, 61.46460
270.2280, 50.53052
270.7101, 46.36304
271.1922, 51.07251
271.6743, 57.75244
272.1565, 60.76440
272.6386, 59.62549
273.1207, 57.81567
273.6028, 55.93311
274.0849, 53.84131
274.5670, 50.25586
275.0492, 44.46484
275.5313, 39.35522
276.0134, 39.29272
276.4955, 45.35474
276.9776, 44.24097
277.4597, 29.97705
277.9419, 7.985352
278.4240, 1.783936
278.9061, 14.72778
279.3882, 29.30591
279.8703, 31.56714
280.3524, 21.35547
280.8346, 6.950195
281.3167, 11.91626
281.7988, 33.05859
282.2809, 48.72046
282.7630, 58.06812
283.2451, 67.72021
283.7273, 84.35400
284.2094, 107.3350
284.6915, 127.1008
285.1736, 141.2910
285.6557, 152.0269
286.1378, 164.3271
286.6200, 178.2534
287.1021, 192.8435
287.5842, 208.7490
288.0663, 225.2654
288.5484, 238.0627
289.0305, 245.6650
289.5127, 250.2271
289.9948, 254.7314
290.4769, 259.2297
290.9590, 267.0134
291.4411, 282.4016
291.9232, 303.5730
292.4054, 324.4771
292.8875, 346.5334
293.3696, 364.1748
293.8517, 362.5645
294.3338, 343.8337
294.8159, 328.4761
295.2981, 335.2017
295.7802, 356.0547
296.2623, 369.9417
296.7444, 372.9900
297.2265, 370.3171
297.7086, 366.4995
298.1908, 362.0620
298.6729, 359.5452
299.1550, 360.8372
299.6371, 365.0901
300.1192, 371.5212
300.6013, 380.9136
301.0835, 389.6082
301.5656, 388.9846
302.0477, 382.9590
302.5298, 384.5125
303.0119, 405.3081
303.4940, 436.3953
303.9762, 464.0239
304.4583, 484.1960
304.9404, 510.9082
305.4225, 560.9536
305.9046, 627.0405
306.3867, 693.2712
306.8689, 751.5149
307.3510, 805.6958
307.8331, 855.3169
308.3152, 898.7051
308.7973, 948.9175
309.2794, 1017.050
309.7616, 1097.449
310.2437, 1181.537
310.7258, 1267.716
311.2079, 1353.433
311.6900, 1437.021
312.1721, 1516.659
312.6543, 1599.100
313.1364, 1689.820
313.6185, 1785.240
314.1006, 1879.161
314.5827, 1957.496
315.0648, 2043.440
315.5470, 2151.551
316.0291, 2281.788
316.5112, 2418.107
316.9933, 2559.670
317.4754, 2700.784
317.9576, 2835.566
318.4397, 2961.590
318.9218, 3081.721
319.4039, 3201.076
319.8860, 3319.905
320.3681, 3419.829
320.8503, 3498.653
321.3324, 3556.426
321.8145, 3593.194
322.2966, 3602.643
322.7787, 3597.744
323.2608, 3588.621
323.7430, 3572.537
324.2251, 3520.214
324.7072, 3411.840
325.1893, 3276.598
325.6714, 3132.027
326.1535, 2972.927
326.6357, 2810.653
327.1178, 2645.004
327.5999, 2476.205
328.0820, 2310.702
328.5641, 2146.346
329.0462, 1988.292
329.5284, 1839.038
330.0105, 1695.799
330.4926, 1565.990
330.9747, 1448.250
331.4568, 1343.510
331.9389, 1256.182
332.4211, 1200.147
332.9032, 1143.783
333.3853, 1068.973
333.8674, 956.2493
334.3495, 878.2280
334.8316, 846.6965
335.3138, 842.9595
335.7959, 830.3291
336.2780, 806.4912
336.7601, 776.2080
337.2422, 738.8921
337.7243, 692.7012
338.2065, 658.4429
338.6886, 638.0249
339.1707, 626.4102
339.6528, 616.9241
340.1349, 609.6309
340.6170, 605.8477
341.0992, 606.0933
341.5813, 608.5552
342.0634, 608.6404
342.5455, 608.7412
343.0276, 606.5588
343.5097, 594.4749
343.9919, 572.7354
344.4740, 560.2314
344.9561, 563.5730
345.4382, 579.8352
345.9203, 602.8938
346.4024, 633.7500
346.8846, 664.2134
347.3667, 680.4443
347.8488, 687.1436
348.3309, 705.2131
348.8130, 743.1660
349.2951, 791.5298
349.7773, 834.8613
350.2594, 873.3208
350.7415, 910.6536
351.2236, 950.0598
351.7057, 990.2712
352.1878, 1027.851
352.6700, 1060.152
353.1521, 1095.222
353.6342, 1144.852
354.1163, 1205.101
354.5984, 1262.578
355.0806, 1315.943
355.5627, 1358.182
356.0448, 1380.635
356.5269, 1378.820
357.0090, 1372.140
357.4911, 1370.258
357.9733, 1372.890
358.4554, 1379.394
358.9375, 1387.381
359.4196, 1400.730
359.9017, 1422.012
360.3839, 1451.392
360.8660, 1486.912
361.3481, 1535.321
361.8302, 1586.899
362.3123, 1630.736
362.7944, 1657.693
363.2766, 1682.269
363.7587, 1715.393
364.2408, 1756.846
364.7229, 1777.407
365.2050, 1772.377
365.6871, 1743.738
366.1693, 1693.014
366.6514, 1610.685
367.1335, 1517.202
367.6156, 1409.250
368.0977, 1288.819
368.5798, 1173.187
369.0620, 1064.685
369.5441, 959.3528
370.0262, 854.2605
370.5083, 734.5527
370.9904, 641.7109
371.4725, 588.3958
371.9547, 558.3293
372.4368, 509.1345
372.9189, 427.7495
373.4010, 352.1726
373.8831, 299.1062
374.3652, 273.5669
374.8474, 245.3240
375.3295, 212.1240
375.8116, 179.1084
376.2937, 152.9058
376.7758, 134.2764
377.2579, 120.9861
377.7401, 115.1069
378.2222, 115.1387
378.7043, 107.0967
379.1864, 89.65820
379.6685, 70.14502
380.1506, 56.71045
380.6328, 48.80127
381.1149, 40.11230
381.5970, 27.53345
382.0791, 14.39575
382.5612, 9.771240
383.0433, 13.25464
383.5255, 16.19287
384.0076, 5.767578
384.4897, 9.677734
384.9718, 8.739502
385.4539, 17.96948
385.9360, 49.17627
386.4182, 58.85840
386.9003, 52.15723
387.3824, 46.74609
387.8645, 55.63037
388.3466, 69.28467
388.8287, 77.15015
389.3109, 77.30542
389.7930, 76.72729
390.2751, 78.17725
390.7572, 82.27588
391.2393, 89.94458
391.7214, 108.5483
392.2036, 125.1377
392.6857, 130.9758
393.1678, 125.6943
393.6499, 121.9766
394.1320, 132.4902
394.6141, 142.5391
395.0963, 139.5430
395.5784, 106.9106
396.0605, 75.77490
396.5426, 55.24634
397.0247, 42.96313
397.5068, 25.89429
397.9890, 15.65771
398.4711, 48.03027
398.9532, 54.12036
399.4353, 8.388428
399.9174, 21.27539
400.3995, 26.87085
400.8817, 18.50439
401.3638, 17.37476
401.8459, 30.60107
402.3280, 39.21704
402.8101, 36.32031
403.2922, 20.50806
403.7744, 2.207275
404.2565, 21.71118
404.7386, 43.56592
405.2207, 53.22656
405.7028, 48.50806
406.1849, 45.20215
406.6671, 48.31348
407.1492, 55.79541
407.6313, 58.16187
408.1134, 55.16357
408.5955, 48.96606
409.0776, 39.60229
409.5598, 27.93335
410.0419, 18.32666
410.5240, 11.49365
411.0061, 6.969482
411.4882, 7.290771
411.9703, 10.83667
412.4525, 8.781738
412.9346, 8.367920
413.4167, 32.93042
413.8988, 54.08276
414.3809, 70.88916
414.8630, 83.16406
415.3452, 89.67847
415.8273, 91.51367
416.3094, 90.36548
416.7915, 81.61816
417.2736, 74.28735
417.7557, 73.87646
418.2379, 80.40039
418.7200, 92.27710
419.2021, 113.3579
419.6842, 137.1794
420.1663, 158.5283
420.6484, 176.1914
421.1306, 191.2546
421.6127, 200.0435
422.0948, 205.6677
422.5769, 217.9468
423.0590, 247.5625
423.5411, 276.3845
424.0233, 296.8267
424.5054, 305.6482
424.9875, 313.2751
425.4696, 318.3716
425.9517, 322.8611
426.4338, 329.1504
426.9160, 336.2944
427.3981, 347.0916
427.8802, 363.6858
428.3623, 385.7178
428.8444, 403.1602
429.3265, 414.7297
429.8087, 424.4534
430.2908, 435.2644
430.7729, 447.0583
431.2550, 460.9907
431.7371, 478.3523
432.2192, 496.6943
432.7014, 508.5569
433.1835, 514.0208
433.6656, 521.4075
434.1477, 537.4585
434.6298, 559.3604
435.1119, 577.3215
435.5941, 590.2219
436.0762, 603.1528
436.5583, 625.3521
437.0404, 652.2166
437.5225, 672.5571
438.0046, 677.6978
438.4868, 676.9033
438.9689, 675.9463
439.4510, 675.5002
439.9331, 682.2864
440.4152, 705.4072
440.8973, 735.6323
441.3795, 763.8218
441.8616, 784.4727
442.3437, 807.3145
442.8258, 838.6785
443.3079, 877.1362
443.7900, 916.4958
444.2722, 953.1357
444.7543, 991.0376
445.2364, 1030.053
445.7185, 1067.300
446.2006, 1116.087
446.6827, 1175.105
447.1649, 1247.571
447.6470, 1337.178
448.1291, 1454.571
448.6112, 1570.294
449.0933, 1673.681
449.5754, 1769.557
450.0576, 1896.713
450.5397, 2066.406
451.0218, 2245.010
451.5039, 2410.107
451.9860, 2558.423
452.4681, 2728.770
452.9503, 2925.919
453.4324, 3145.114
453.9145, 3382.384
454.3966, 3638.784
454.8787, 3913.533
455.3608, 4213.375
455.8430, 4530.983
456.3251, 4852.027
456.8072, 5176.666
457.2893, 5517.633
457.7714, 5883.557
458.2535, 6266.417
458.7357, 6644.571
459.2178, 7020.246
459.6999, 7385.296
460.1820, 7746.455
460.6641, 8098.913
461.1462, 8432.077
461.6284, 8761.485
462.1105, 9057.903
462.5926, 9315.738
463.0747, 9548.035
463.5568, 9683.581
464.0389, 9708.928
464.5211, 9618.841
465.0032, 9405.553
465.4853, 9025.131
465.9674, 8568.888
466.4495, 8028.842
466.9316, 7413.689
467.4138, 6810.517
467.8959, 6207.650
468.3780, 5629.281
468.8601, 5083.080
469.3422, 4555.424
469.8243, 4096.242
470.3065, 3715.519
470.7886, 3394.514
471.2707, 3114.569
471.7528, 2880.098
472.2349, 2656.240
472.7170, 2422.216
473.1992, 2187.376
473.6813, 2007.115
474.1634, 1885.051
474.6455, 1780.580
475.1276, 1650.597
475.6097, 1507.383
476.0919, 1399.309
476.5740, 1343.141
477.0561, 1304.486
477.5382, 1242.230
478.0203, 1162.612
478.5024, 1085.460
478.9846, 1015.548
479.4667, 956.0652
479.9488, 916.4336
480.4309, 897.7097
480.9130, 872.7764
481.3951, 818.8911
481.8773, 756.2339
482.3594, 704.0356
482.8415, 671.7461
483.3236, 645.4170
483.8057, 623.4092
484.2878, 605.3618
484.7700, 589.6870
485.2521, 581.3618
485.7342, 570.5193
486.2163, 551.8962
486.6984, 520.1523
487.1805, 501.8298
487.6627, 504.9167
488.1448, 513.3462
488.6269, 506.9331
489.1090, 479.6870
489.5911, 460.8650
490.0732, 458.9373
490.5554, 468.1890
491.0375, 467.8733
491.5196, 457.0117
492.0017, 447.1509
492.4838, 450.5437
492.9659, 461.5435
493.4481, 456.7173
493.9302, 431.7966
494.4123, 404.8572
494.8944, 396.5967
495.3765, 401.6057
495.8586, 407.1028
496.3408, 406.5776
496.8229, 405.8357
497.3050, 413.2249
497.7871, 426.3096
498.2692, 432.3936
498.7513, 417.2632
499.2335, 397.7812
499.7156, 385.4143
500.1977, 382.9373
500.6798, 385.1865
501.1619, 398.0139
501.6440, 412.9097
502.1262, 417.9719
502.6083, 402.2249
503.0904, 387.9336
503.5725, 378.8240
504.0546, 374.5928
504.5367, 372.1213
505.0189, 371.5610
505.5010, 372.4871
505.9831, 375.5647
506.4652, 381.5913
506.9473, 383.6499
507.4294, 380.0779
507.9116, 374.9790
508.3937, 379.0576
508.8758, 391.1328
509.3579, 390.8250
509.8400, 363.1863
510.3221, 321.6511
510.8043, 293.5261
511.2864, 278.4170
511.7685, 268.6238
512.2506, 261.8091
512.7327, 255.8206
513.2148, 247.3967
513.6970, 234.9368
514.1791, 223.2268
514.6612, 221.5530
515.1433, 221.4116
515.6254, 209.1965
516.1075, 157.9661
516.5897, 115.6121
517.0718, 106.4795
517.5539, 129.9658
518.0360, 140.7463
518.5181, 124.8987
519.0002, 101.7190
519.4824, 80.42798
519.9645, 58.24536
520.4466, 44.00562
520.9287, 41.16528
521.4108, 43.31494
521.8929, 39.48169
522.3751, 28.01611
522.8572, 18.74756
523.3393, 15.89282
523.8214, 17.29175
524.3035, 13.51001
524.7856, 4.370850
525.2678, 5.151367
525.7499, 10.48730
526.2320, 13.33936
526.7141, 18.45435
527.1962, 27.00073
527.6783, 34.95239
528.1605, 38.68530
528.6426, 39.03833
529.1247, 37.57471
529.6068, 33.33984
530.0889, 28.86279
530.5710, 25.45752
531.0532, 23.11450
531.5353, 21.04565
532.0174, 19.90161
532.4995, 18.32422
532.9816, 15.42749
533.4637, 9.945801
533.9459, 5.856934
534.4280, 6.189453
534.9101, 6.189697
535.3922, 0.6701660
535.8743, 18.96143
536.3564, 33.58057
536.8386, 42.56494
537.3207, 45.63379
537.8028, 39.26660
538.2849, 21.82715
538.7670, 7.384277
539.2491, 2.630859
539.7313, 7.458984
540.2134, 21.77710
540.6955, 47.64502
541.1776, 68.01440
541.6597, 56.61206
542.1418, 28.07959
542.6240, 11.97900
543.1061, 24.84204
543.5882, 41.32886
544.0703, 38.74609
544.5524, 22.62280
545.0345, 8.693359
545.5167, 0.6132810
545.9988, 0.7514650
546.4809, 7.017090
546.9630, 25.57227
547.4451, 42.50195
547.9272, 59.78467
548.4094, 72.34863
548.8915, 75.03271
549.3736, 55.29834
549.8557, 49.21899
550.3378, 63.49121
550.8199, 90.19873
551.3021, 112.6692
551.7842, 130.4893
552.2663, 145.6575
552.7484, 155.5352
553.2305, 163.1177
553.7126, 185.2952
554.1948, 222.7705
554.6769, 264.2136
555.1590, 300.0198
555.6411, 333.0457
556.1232, 366.9644
556.6053, 400.1392
557.0875, 442.4641
557.5696, 505.5330
558.0517, 583.9146
558.5338, 665.7554
559.0159, 740.9377
559.4980, 825.5894
559.9802, 930.6072
560.4623, 1054.168
560.9444, 1177.260
561.4265, 1291.801
561.9086, 1410.787
562.3907, 1538.158
562.8729, 1677.297
563.3550, 1818.436
563.8371, 1963.804
564.3192, 2108.794
564.8013, 2246.587
565.2834, 2373.380
565.7656, 2518.687
566.2477, 2697.311
566.7298, 2889.266
567.2119, 3052.145
567.6940, 3188.444
568.1761, 3327.646
568.6583, 3496.538
569.1404, 3676.365
569.6225, 3844.635
570.1046, 3997.569
570.5867, 4124.753
571.0688, 4227.377
571.5510, 4294.167
572.0331, 4312.331
572.5152, 4281.396
572.9973, 4197.420
573.4794, 4050.024
573.9615, 3849.292
574.4437, 3617.891
574.9258, 3329.701
575.4079, 3038.220
575.8900, 2750.345
576.3721, 2464.988
576.8542, 2195.314
577.3364, 1940.780
577.8185, 1702.950
578.3006, 1485.061
578.7827, 1285.529
579.2648, 1117.910
579.7469, 982.5642
580.2291, 872.7598
580.7112, 787.7246
581.1933, 722.9434
581.6754, 658.2117
582.1575, 587.1882
582.6396, 517.7979
583.1218, 457.9512
583.6039, 407.0818
584.0860, 363.8403
584.5681, 334.1379
585.0502, 305.5947
585.5323, 265.6140
586.0145, 214.2437
586.4966, 176.9941
586.9787, 175.9062
587.4608, 180.7192
587.9429, 171.3174
588.4250, 134.3289
588.9072, 108.4006
589.3893, 97.31494
589.8714, 94.14453
590.3535, 90.00317
590.8356, 85.17896
591.3177, 78.55762
591.7999, 70.14697
592.2820, 59.21362
592.7641, 40.82520
593.2462, 15.75610
593.7283, 2.981445
594.2104, 0.9858400
594.6926, 9.969482
595.1747, 6.215576
595.6568, 13.40552
596.1389, 24.56348
596.6210, 4.045654
597.1031, 43.23608
597.5853, 62.21191
598.0674, 45.77417
598.5495, 24.48755
599.0316, 2.560791
599.5137, 26.93945
599.9958, 33.59473
600.4780, 3.343506
600.9601, 19.95044
601.4423, 25.93188
601.9244, 17.99756
602.4065, 16.14282
602.8886, 22.05566
603.3707, 28.76562
603.8528, 32.16528
604.3350, 32.88086
604.8171, 37.57690
605.2992, 47.29443
605.7813, 53.37720
606.2634, 40.94922
606.7455, 19.75830
607.2277, 11.28320
607.7098, 25.01758
608.1919, 41.40845
608.6740, 45.92432
609.1561, 42.22119
609.6382, 36.74634
610.1204, 19.27222
610.6025, 12.94775
611.0846, 36.85693
611.5667, 85.99365
612.0488, 110.3635
612.5309, 85.40845
613.0131, 62.76367
613.4952, 67.26172
613.9773, 104.8472
614.4594, 123.3154
614.9415, 117.7976
615.4236, 103.3928
615.9058, 94.02173
616.3879, 90.13892
616.8700, 96.03125
617.3521, 115.4309
617.8342, 136.2104
618.3163, 135.9316
618.7985, 124.2634
619.2806, 125.0198
619.7627, 164.3203
620.2448, 206.9543
620.7269, 227.5210
621.2090, 229.4084
621.6912, 229.9360
622.1733, 232.6799
622.6554, 237.1396
623.1375, 243.1694
623.6196, 251.1948
624.1017, 258.4424
624.5839, 262.0273
625.0660, 268.2302
625.5481, 283.0908
626.0302, 308.4236
626.5123, 332.1321
626.9944, 354.1091
627.4766, 372.3191
627.9587, 381.0750
628.4408, 382.1458
628.9229, 386.1921
629.4050, 399.5789
629.8871, 414.3848
630.3693, 417.3843
630.8514, 412.7842
631.3335, 414.6123
631.8156, 442.0400
632.2977, 468.5781
632.7798, 476.2163
633.2620, 463.5349
633.7441, 448.9998
634.2262, 431.6626
634.7083, 416.9971
635.1904, 409.7498
635.6725, 418.0576
636.1547, 411.2380
636.6368, 384.6711
637.1189, 349.8066
637.6010, 318.1646
638.0831, 289.5981
638.5652, 269.2078
639.0474, 260.8696
639.5295, 255.7686
640.0116, 235.0503
640.4937, 203.9255
640.9758, 180.4185
641.4579, 178.5244
641.9401, 184.6089
642.4222, 190.0803
642.9043, 194.3032
643.3864, 194.2393
643.8685, 185.7886
644.3506, 175.1143
644.8328, 165.0654
645.3149, 155.9570
645.7970, 147.1733
646.2791, 136.3640
646.7612, 128.5076
647.2433, 129.4583
647.7255, 141.1194
648.2076, 148.8018
648.6897, 151.2004
649.1718, 151.4248
649.6539, 149.9399
650.1360, 145.5303
650.6182, 139.9673
651.1003, 134.5295
651.5824, 130.4724
652.0645, 127.4421
652.5466, 124.5334
653.0287, 121.7583
653.5109, 116.6382
653.9930, 113.3184
654.4751, 115.4314
654.9572, 120.8992
655.4393, 124.4392
655.9214, 128.6528
656.4036, 128.8616
656.8857, 121.5627
657.3678, 103.4392
657.8499, 89.01929
658.3320, 80.54004
658.8141, 75.65527
659.2963, 72.60498
659.7784, 70.89404
660.2605, 69.77979
660.7426, 69.15308
661.2247, 68.81885
661.7068, 70.01050
662.1890, 71.45239
662.6711, 70.18042
663.1532, 57.25928
663.6353, 48.69702
664.1174, 60.50879
664.5995, 84.76123
665.0817, 95.84399
665.5638, 76.15918
666.0459, 54.09570
666.5280, 37.10620
667.0101, 25.20410
667.4922, 21.26978
667.9744, 29.23730
668.4565, 36.75562
668.9386, 33.72632
669.4207, 21.06348
669.9028, 15.46240
670.3849, 18.47021
670.8671, 20.86084
671.3492, 7.551025
671.8313, 12.05054
672.3134, 18.49146
672.7955, 2.779785
673.2776, 13.93457
673.7598, 15.96387
674.2419, 10.77124
674.7240, 9.254150
675.2061, 23.20679
675.6882, 30.67871
676.1703, 23.13232
676.6525, 6.290283
677.1346, 5.154785
677.6167, 10.39844
678.0988, 12.04492
678.5809, 11.46655
679.0630, 7.943115
679.5452, 6.332520
680.0273, 31.50977
680.5094, 49.86646
680.9915, 42.50293
681.4736, 22.47876
681.9557, 11.21118
682.4379, 9.899414
682.9200, 14.87964
683.4021, 26.89478
683.8842, 42.16675
684.3663, 58.29346
684.8484, 76.98193
685.3306, 91.15723
685.8127, 101.5698
686.2948, 105.8982
686.7769, 99.65137
687.2590, 75.56421
687.7411, 61.75952
688.2233, 62.86621
688.7054, 73.73560
689.1875, 87.16406
689.6696, 102.6414
690.1517, 114.7427
690.6339, 120.4956
691.1160, 122.5916
691.5981, 123.0068
692.0802, 122.5583
692.5623, 123.9976
693.0444, 131.8843
693.5266, 139.3416
694.0087, 142.1680
694.4908, 140.2861
694.9729, 137.7336
695.4550, 135.4080
695.9371, 132.2234
696.4193, 128.0547
696.9014, 123.1975
697.3835, 114.4487
697.8656, 100.6897
698.3477, 86.35205
698.8298, 74.82031
699.3120, 66.10254
699.7941, 61.38525
700.2762, 61.41504
700.7583, 61.86572
701.2404, 57.89941
701.7225, 51.75977
702.2047, 47.05298
702.6868, 48.02441
703.1689, 45.63843
703.6510, 31.24243
704.1331, 12.32910
704.6152, 2.799805
705.0974, 15.42896
705.5795, 18.50708
706.0616, 1.295166
706.5437, 26.56250
707.0258, 33.31274
707.5079, 16.25928
707.9901, 2.855469
708.4722, 10.73560
708.9543, 27.07520
709.4364, 14.28906
709.9185, 22.56323
710.4006, 47.83032
710.8828, 24.97876
711.3649, 8.586426
711.8470, 21.19897
712.3291, 10.37036
712.8112, 3.582520
713.2933, 21.94556
713.7755, 35.71191
714.2576, 39.14722
714.7397, 29.75317
715.2218, 18.97046
715.7039, 5.249268
716.1860, 6.679932
716.6682, 11.40796
717.1503, 9.437256
717.6324, 6.206787
718.1145, 2.333496
718.5966, 2.390869
719.0787, 10.77612
719.5609, 19.67822
720.0430, 23.21997
720.5251, 15.26831
721.0072, 8.358398
721.4893, 5.937744
721.9714, 9.133545
722.4536, 20.28271
722.9357, 55.29272
723.4178, 77.01221
723.8999, 77.00195
724.3820, 60.89160
724.8641, 41.83350
725.3463, 17.91748
725.8284, 5.354004
726.3105, 15.50195
726.7926, 37.87622
727.2747, 46.63794
727.7568, 43.86572
728.2390, 41.96997
728.7211, 49.24048
729.2032, 59.96826
729.6853, 67.66431
730.1674, 72.68970
730.6495, 83.03198
731.1317, 105.8804
731.6138, 128.6243
732.0959, 146.5244
732.5780, 160.4517
733.0601, 161.5471
733.5422, 144.4170
734.0244, 127.6877
734.5065, 127.4993
734.9886, 141.5259
735.4707, 157.5884
735.9528, 175.1072
736.4349, 193.3728
736.9171, 214.7041
737.3992, 235.5098
737.8813, 249.4331
738.3634, 253.8381
738.8455, 254.4878
739.3276, 253.5503
739.8098, 250.1125
740.2919, 242.5461
740.7740, 225.9739
741.2561, 213.7847
741.7382, 206.3647
742.2203, 204.4580
742.7025, 213.4580
743.1846, 233.4116
743.6667, 243.3123
744.1488, 232.5669
744.6309, 216.1299
745.1130, 220.2649
745.5952, 237.0540
746.0773, 245.0894
746.5594, 226.1597
747.0415, 203.6807
747.5236, 189.4602
748.0057, 182.0710
748.4879, 173.7893
748.9700, 158.6409
749.4521, 149.4878
749.9342, 153.2849
750.4163, 167.0784
750.8984, 166.4983
751.3806, 149.8398
751.8627, 131.6116
752.3448, 117.9963
752.8269, 109.2551
753.3090, 108.8877
753.7911, 115.8826
754.2733, 119.4199
754.7554, 107.0886
755.2375, 92.45239
755.7196, 86.81836
756.2017, 92.67090
756.6838, 96.42773
757.1660, 91.93750
757.6481, 88.89160
758.1302, 92.56177
758.6123, 102.7749
759.0944, 112.2095
759.5765, 121.8323
760.0587, 129.9385
760.5408, 137.1531
761.0229, 141.2207
761.5050, 131.5518
761.9871, 103.4631
762.4692, 78.39038
762.9514, 81.94556
763.4335, 95.53491
763.9156, 97.30566
764.3977, 69.96191
764.8798, 53.38184
765.3619, 60.65967
765.8441, 77.82861
766.3262, 91.63745
766.8083, 103.2598
767.2904, 107.6091
767.7725, 102.1375
768.2546, 92.85303
768.7368, 90.39648
769.2189, 93.43140
769.7010, 98.11548
770.1831, 101.8726
770.6652, 106.8242
771.1473, 115.9968
771.6295, 125.6082
772.1116, 129.5754
772.5937, 123.7966
773.0758, 114.6523
773.5579, 99.26172
774.0400, 81.79712
774.5222, 74.15063
775.0043, 80.44556
775.4864, 83.18188
775.9685, 75.52222
776.4506, 63.50854
776.9327, 61.69238
777.4149, 68.31201
777.8970, 74.99268
778.3791, 82.42773
778.8612, 84.08203
779.3433, 67.57642
779.8254, 39.35132
780.3076, 22.35986
780.7897, 32.26685
781.2718, 44.98999
781.7539, 52.24585
782.2360, 55.32227
782.7181, 65.60962
783.2003, 87.56323
783.6824, 99.31641
784.1645, 85.24487
784.6466, 55.14160
785.1287, 38.01611
785.6108, 33.54053
786.0930, 40.21094
786.5751, 71.69507
787.0572, 102.9695
787.5393, 108.7673
788.0214, 89.17847
788.5035, 77.95459
788.9857, 90.19092
789.4678, 106.2705
789.9499, 120.7104
790.4320, 134.0459
790.9141, 131.3157
791.3962, 108.6067
791.8784, 88.66919
792.3605, 90.84277
792.8426, 107.5818
793.3247, 118.8062
793.8068, 123.7112
794.2889, 127.8757
794.7711, 135.7068
795.2532, 143.9927
795.7353, 151.3013
796.2174, 158.3223
796.6995, 158.6047
797.1816, 145.1665
797.6638, 131.8015
798.1459, 127.0410
798.6280, 131.8606
799.1101, 137.4622
799.5922, 144.1353
800.0743, 149.7627
800.5565, 151.5537
801.0386, 151.1113
801.5207, 151.9131
802.0028, 154.5903
802.4849, 156.2551
802.9670, 152.4084
803.4492, 148.5684
803.9313, 149.5500
804.4134, 158.3196
804.8955, 166.9189
805.3776, 176.6165
805.8597, 184.4231
806.3419, 187.8110
806.8240, 186.8125
807.3061, 182.3313
807.7882, 174.5664
808.2703, 162.4319
808.7524, 141.9407
809.2346, 117.3555
809.7167, 94.65820
810.1988, 74.92896
810.6809, 58.37402
811.1630, 41.91870
811.6451, 30.69922
812.1273, 30.64404
812.6094, 51.93506
813.0915, 61.03613
813.5736, 55.70874
814.0557, 41.55371
814.5378, 19.08740
815.0200, 8.469482
815.5021, 19.41235
815.9842, 7.824219
816.4663, 6.443604
816.9484, 3.944580
817.4305, 6.686768
817.9127, 15.54785
818.3948, 22.36279
818.8769, 23.19385
819.3590, 10.84106
819.8411, 3.675293
820.3232, 10.42383
820.8054, 8.322510
821.2875, 1.562256
821.7696, 11.55615
822.2517, 23.01367
822.7338, 20.56665
823.2159, 8.738037
823.6981, 0.4428710
824.1802, 3.395508
824.6623, 6.718750
825.1444, 22.44897
825.6265, 37.40405
826.1086, 37.02466
826.5908, 10.88745
827.0729, 28.86475
827.5550, 2.255615
828.0371, 38.61157
828.5192, 56.23877
829.0013, 50.72119
829.4835, 49.64502
829.9656, 58.02490
830.4477, 65.92334
830.9298, 57.13770
831.4119, 41.72754
831.8940, 35.45508
832.3762, 43.09985
832.8583, 58.17261
833.3404, 89.47729
833.8225, 120.7361
834.3046, 133.0583
834.7867, 112.7258
835.2689, 113.0703
835.7510, 142.5024
836.2331, 180.1897
836.7152, 197.7351
837.1973, 200.4607
837.6794, 207.4990
838.1616, 222.9626
838.6437, 239.8999
839.1258, 247.4026
839.6079, 255.7324
840.0900, 277.5308
840.5721, 328.4619
841.0543, 367.6167
841.5364, 389.6235
842.0185, 402.4062
842.5006, 413.7278
842.9827, 423.7278
843.4648, 425.8037
843.9470, 416.7668
844.4291, 412.7991
844.9112, 436.8110
845.3933, 475.9800
845.8754, 510.7847
846.3575, 537.9907
846.8397, 558.2974
847.3218, 569.3984
847.8039, 575.5605
848.2860, 579.3477
848.7681, 575.2153
849.2502, 586.6772
849.7324, 619.7100
850.2145, 653.3606
850.6966, 662.1763
851.1787, 653.2046
851.6608, 655.8154
852.1429, 674.8206
852.6251, 686.8550
853.1072, 662.0728
853.5893, 629.2100
854.0714, 616.2434
854.5535, 635.8738
855.0356, 648.5151
855.5178, 651.6931
855.9999, 647.3608
856.4820, 632.9548
856.9641, 608.2861
857.4462, 600.0093
857.9283, 610.1279
858.4105, 620.7168
858.8926, 615.4229
859.3747, 601.7739
859.8568, 588.6143
860.3389, 575.8469
860.8210, 562.5803
861.3032, 548.1343
861.7853, 534.2327
862.2674, 519.4844
862.7495, 503.7527
863.2316, 510.1357
863.7137, 542.7673
864.1959, 565.8040
864.6780, 544.5710
865.1601, 500.4863
865.6422, 484.0364
866.1243, 494.8123
866.6064, 508.5647
867.0886, 517.7083
867.5707, 519.1179
868.0528, 505.8831
868.5349, 476.7886
869.0170, 462.8032
869.4991, 473.0610
869.9813, 480.5801
870.4634, 469.2000
870.9455, 445.3074
871.4276, 439.6582
871.9097, 450.8523
872.3918, 462.9272
872.8740, 469.5159
873.3561, 468.6116
873.8382, 457.3738
874.3203, 437.3157
874.8024, 417.8889
875.2845, 404.9844
875.7667, 386.7207
876.2488, 355.5789
876.7309, 317.9189
877.2130, 301.3723
877.6951, 306.1274
878.1772, 312.8452
878.6594, 316.9363
879.1415, 314.8071
879.6236, 293.4568
880.1057, 261.2866
880.5878, 240.7761
881.0699, 254.4285
881.5521, 265.6169
882.0342, 255.2327
882.5163, 237.0039
882.9984, 243.3052
883.4805, 281.2495
883.9626, 302.5632
884.4448, 289.4734
884.9269, 264.9810
885.4090, 269.1301
885.8911, 292.3945
886.3732, 316.2517
886.8553, 337.1816
887.3375, 353.2432
887.8196, 361.2622
888.3017, 364.5466
888.7838, 367.6533
889.2659, 370.3115
889.7480, 374.6511
890.2302, 382.4819
890.7123, 388.3538
891.1944, 381.4946
891.6765, 366.5771
892.1586, 358.5044
892.6407, 360.4675
893.1229, 367.1802
893.6050, 389.2090
894.0871, 405.6721
894.5692, 393.2195
895.0513, 324.2524
895.5334, 289.7356
896.0156, 302.5437
896.4977, 326.5090
896.9798, 334.6121
897.4619, 328.0439
897.9440, 310.4368
898.4261, 281.9788
898.9083, 260.6951
899.3904, 272.1543
899.8725, 289.3320
900.3546, 286.2568
900.8367, 258.7688
901.3188, 236.5161
901.8010, 226.5432
902.2831, 216.2917
902.7652, 199.1362
903.2473, 176.4263
903.7294, 159.0840
904.2115, 147.1372
904.6937, 141.2466
905.1758, 146.7649
905.6579, 154.8015
906.1400, 156.1594
906.6221, 152.0459
907.1042, 148.2290
907.5864, 148.4253
908.0685, 146.6116
908.5506, 142.0449
909.0327, 134.2708
909.5148, 119.6575
909.9969, 98.21753
910.4791, 82.29224
910.9612, 80.10376
911.4433, 78.85181
911.9254, 56.99341
912.4075, 25.47412
912.8896, 4.780762
913.3718, 10.11084
913.8539, 16.35669
914.3360, 20.41431
914.8181, 22.32227
915.3002, 22.26758
915.7823, 20.32983
916.2645, 13.53687
916.7466, 0.2590330
917.2287, 11.12549
917.7108, 3.424561
918.1929, 12.91626
918.6750, 24.83398
919.1572, 31.83545
919.6393, 26.09058
920.1214, 15.20557
920.6035, 53.26367
921.0856, 59.33545
921.5677, 27.28516
922.0499, 11.78198
922.5320, 14.52197
923.0141, 21.06812
923.4962, 20.18726
923.9783, 15.31812
924.4604, 11.32446
924.9426, 8.365234
925.4247, 4.703857
925.9068, 1.109619
926.3889, 5.147949
926.8710, 17.00830
927.3531, 33.09155
927.8353, 42.60059
928.3174, 45.44897
928.7995, 41.85669
929.2816, 25.96997
929.7637, 9.416504
930.2459, 15.54224
930.7280, 36.55298
931.2101, 50.43530
931.6923, 42.01318
932.1744, 33.01172
932.6565, 28.03101
933.1386, 27.18506
933.6207, 33.06934
934.1028, 47.69238
934.5850, 53.48145
935.0671, 45.53638
935.5492, 33.19507
936.0313, 27.47168
936.5134, 26.12817
936.9955, 24.86255
937.4777, 20.94678
937.9598, 22.29126
938.4419, 39.30151
938.9240, 56.59473
939.4061, 61.76172
939.8882, 51.46826
940.3704, 48.26489
940.8525, 52.43213
941.3346, 61.55908
941.8167, 78.18750
942.2988, 96.09619
942.7809, 106.2698
943.2631, 108.4326
943.7452, 109.0916
944.2273, 105.8987
944.7094, 107.0823
945.1915, 117.6208
945.6736, 135.4771
946.1558, 148.4199
946.6379, 156.3125
947.1200, 159.5178
947.6021, 155.2910
948.0842, 149.8140
948.5663, 148.1814
949.0485, 152.0266
949.5306, 165.0347
950.0127, 208.9448
950.4948, 234.9353
950.9769, 223.6060
951.4590, 198.6077
951.9412, 194.7781
952.4233, 212.6912
952.9054, 229.0129
953.3875, 240.4229
953.8696, 249.4866
954.3517, 259.9780
954.8339, 269.3608
955.3160, 273.3147
955.7981, 268.7773
956.2802, 268.7461
956.7623, 279.9192
957.2444, 290.8157
957.7266, 292.1106
958.2087, 284.8047
958.6908, 294.8333
959.1729, 321.9758
959.6550, 345.9214
960.1371, 347.4167
960.6193, 343.9746
961.1014, 355.6704
961.5835, 378.6633
962.0656, 390.1577
962.5477, 376.7195
963.0298, 365.8752
963.5120, 364.7588
963.9941, 368.5488
964.4762, 364.2114
964.9583, 353.2744
965.4404, 346.6382
965.9225, 349.9404
966.4047, 352.9619
966.8868, 343.3782
967.3689, 330.5659
967.8510, 327.6265
968.3331, 356.6172
968.8152, 352.8533
969.2974, 301.3364
969.7795, 248.4250
970.2616, 244.3987
970.7437, 275.1143
971.2258, 288.8274
971.7079, 282.4939
972.1901, 270.1311
972.6722, 256.9277
973.1543, 243.1882
973.6364, 228.1162
974.1185, 212.4490
974.6006, 203.6323
975.0828, 202.2209
975.5649, 203.2407
976.0470, 205.6465
976.5291, 207.7881
977.0112, 205.8774
977.4933, 201.5791
977.9755, 198.3650
978.4576, 200.2908
978.9397, 200.7458
979.4218, 201.3396
979.9039, 198.9006
980.3860, 187.4485
980.8682, 163.8064
981.3503, 150.8230
981.8324, 150.7161
982.3145, 156.0999
982.7966, 160.4983
983.2787, 166.7949
983.7609, 181.6863
984.2430, 207.3452
984.7251, 225.7756
985.2072, 227.7361
985.6893, 224.7073
986.1714, 220.4048
986.6536, 215.0464
987.1357, 209.9785
987.6178, 205.2625
988.0999, 202.2366
988.5820, 198.2278
989.0641, 199.3059
989.5463, 219.7405
990.0284, 249.0085
990.5105, 262.6318
990.9926, 240.2954
991.4747, 224.3784
991.9568, 220.0308
992.4390, 223.7805
992.9211, 230.6924
993.4032, 238.7190
993.8853, 244.5156
994.3674, 248.1990
994.8495, 250.4751
995.3317, 253.0791
995.8138, 253.6787
996.2959, 247.7266
996.7780, 233.3828
997.2601, 234.9980
997.7422, 260.0383
998.2244, 273.7559
998.7065, 247.9333
999.1886, 203.0002
999.6707, 180.2610
1000.153, 176.2849
1000.635, 180.0583
1001.117, 202.8713
1001.599, 213.3628
1002.081, 188.3130
1002.563, 151.4878
1003.046, 141.7065
1003.528, 161.0803
1004.010, 175.9412
1004.492, 181.4753
1004.974, 180.5986
1005.456, 169.2483
1005.938, 157.1975
1006.420, 159.3186
1006.902, 182.4370
1007.385, 191.7854
1007.867, 175.4517
1008.349, 157.8210
1008.831, 150.7781
1009.313, 152.6833
1009.795, 158.0391
1010.277, 165.7065
1010.759, 168.7407
1011.242, 160.6748
1011.724, 149.3389
1012.206, 137.7490
1012.688, 126.6453
1013.170, 118.0671
1013.652, 113.8450
1014.134, 106.3198
1014.616, 93.70850
1015.098, 80.31738
1015.581, 68.63696
1016.063, 61.20264
1016.545, 67.14575
1017.027, 90.27246
1017.509, 102.2881
1017.991, 79.76416
1018.473, 55.25806
1018.955, 45.39136
1019.438, 48.70801
1019.920, 50.69482
1020.402, 51.34253
1020.884, 52.22144
1021.366, 56.04712
1021.848, 58.40576
1022.330, 53.36792
1022.812, 43.86694
1023.294, 35.84766
1023.777, 32.80493
1024.259, 26.71338
1024.741, 14.77026
1025.223, 3.819580
1025.705, 3.012939
1026.187, 9.908936
1026.669, 17.67139
1027.151, 25.53125
1027.633, 30.28809
1028.116, 31.67432
1028.598, 27.66382
1029.080, 13.23950
1029.562, 9.181396
1030.044, 19.19604
1030.526, 15.40527
1031.008, 11.02759
1031.490, 12.32788
1031.973, 14.05933
1032.455, 7.922363
1032.937, 2.644287
1033.419, 11.62646
1033.901, 16.62939
1034.383, 20.57495
1034.865, 24.51489
1035.347, 26.51221
1035.829, 20.84277
1036.312, 10.49780
1036.794, 20.54663
1037.276, 50.75781
1037.758, 67.78784
1038.240, 27.66821
1038.722, 13.66431
1039.204, 12.84839
1039.686, 21.59717
1040.168, 35.95654
1040.651, 25.95996
1041.133, 14.76660
1041.615, 6.063721
1042.097, 4.706299
1042.579, 29.54956
1043.061, 63.23511
1043.543, 72.84912
1044.025, 38.95190
1044.508, 13.00635
1044.990, 6.239746
1045.472, 7.807129
1045.954, 14.43726
1046.436, 24.86450
1046.918, 21.42432
1047.400, 5.709473
1047.882, 7.261719
1048.365, 2.780762
1048.847, 2.229492
1049.329, 7.731689
1049.811, 25.06494
1050.293, 28.02319
1050.775, 12.20190
1051.257, 3.882568
1051.739, 18.36475
1052.221, 29.76758
1052.703, 34.60010
1053.186, 35.89771
1053.668, 38.03467
1054.150, 41.62622
1054.632, 45.94507
1055.114, 52.13721
1055.596, 57.80151
1056.078, 62.69336
1056.560, 66.13989
1057.043, 64.28076
1057.525, 57.71484
1058.007, 50.20361
1058.489, 40.01367
1058.971, 34.08008
1059.453, 37.67554
1059.935, 47.88916
1060.417, 61.01562
1060.900, 78.47461
1061.382, 92.65234
1061.864, 103.3501
1062.346, 110.3892
1062.828, 111.6260
1063.310, 110.4663
1063.792, 110.3306
1064.274, 111.8384
1064.756, 117.8452
1065.239, 135.5566
1065.721, 149.4072
1066.203, 156.6094
1066.685, 157.5068
1067.167, 150.0908
1067.649, 136.6475
1068.131, 126.9775
1068.613, 123.8892
1069.095, 122.9053
1069.578, 125.9370
1070.060, 126.0864
1070.542, 115.6284
1071.024, 93.48486
1071.506, 85.09424
1071.988, 91.25000
1072.470, 99.86426
1072.952, 105.1816
1073.435, 108.2656
1073.917, 108.2090
1074.399, 107.1284
1074.881, 110.1182
1075.363, 125.2515
1075.845, 133.2441
1076.327, 128.6646
1076.809, 123.2954
1077.292, 134.8037
1077.774, 156.5332
1078.256, 169.0972
1078.738, 170.0625
1079.220, 169.7881
1079.702, 175.8359
1080.184, 181.0981
1080.666, 179.5137
1081.148, 173.6274
1081.630, 178.5459
1082.113, 193.9697
1082.595, 197.5337
1083.077, 179.6553
1083.559, 159.4741
1084.041, 144.2041
1084.523, 137.2271
1085.005, 152.6191
1085.487, 199.3149
1085.970, 220.3979
1086.452, 212.6904
1086.934, 193.1558
1087.416, 162.2910
1087.898, 131.8936
1088.380, 131.5332
1088.862, 147.9946
1089.344, 145.2358
1089.827, 84.94238
1090.309, 42.77393
1090.791, 30.36719
1091.273, 33.25342
1091.755, 37.31445
1092.237, 42.53613
1092.719, 50.86572
1093.201, 62.12695
1093.683, 67.44727
1094.166, 53.69873
1094.648, 40.79150
1095.130, 41.85938
1095.612, 51.25732
1096.094, 49.15674
1096.576, 34.62598
1097.058, 27.59619
1097.540, 35.53516
1098.023, 45.89502
1098.505, 49.43115
1098.987, 47.66309
1099.469, 38.84521
1099.951, 18.70947
1100.433, 20.78760
1100.915, 51.55127
1101.397, 80.66992
1101.880, 91.97559
1102.362, 91.21045
1102.844, 86.45215
1103.326, 78.02002
1103.808, 66.53516
1104.290, 43.49756
1104.772, 30.46533
1105.254, 30.21240
1105.736, 37.98877
1106.219, 56.35742
1106.701, 79.89648
1107.183, 80.82129
1107.665, 59.77930
1108.147, 44.15186
1108.629, 61.96631
1109.111, 75.71729
1109.593, 64.18457
1110.075, 38.61768
1110.558, 18.72510
1111.040, 4.689941
1111.522, 2.955078
1112.004, 16.01025
1112.486, 33.00000
1112.968, 44.55811
1113.450, 55.73779
1113.932, 72.57275
1114.415, 95.30713
1114.897, 111.0435
1115.379, 119.9058
1115.861, 120.0166
1116.343, 108.5928
1116.825, 91.54053
1117.307, 73.67529
1117.789, 57.00098
1118.271, 44.41406
1118.754, 34.83203
1119.236, 35.99023
1119.718, 54.86963
1120.200, 69.55566
1120.682, 58.21631
1121.164, 32.40332
1121.646, 23.86377
1122.128, 30.23389
1122.610, 42.72607
1123.093, 75.43408
1123.575, 88.64355
1124.057, 63.58691
1124.539, 28.16602
1125.021, 18.31885
1125.503, 30.38428
1125.985, 44.09229
1126.467, 58.36572
1126.950, 69.18896
1127.432, 69.13770
1127.914, 67.62939
1128.396, 68.55908
1128.878, 71.96533
1129.360, 79.14990
1129.842, 90.20459
1130.324, 100.9575
1130.807, 113.2041
1131.289, 112.6372
1131.771, 72.23193
1132.253, 22.45508
1132.735, 8.308594
1133.217, 17.19775
1133.699, 18.12842
1134.181, 8.917480
1134.663, 2.879883
1135.146, 8.082520
1135.628, 14.73193
1136.110, 4.806152
1136.592, 10.86035
1137.074, 13.92627
1137.556, 12.77344
1138.038, 22.81641
1138.520, 11.90479
1139.002, 5.805176
1139.485, 28.88330
1139.967, 48.09717
1140.449, 31.11768
1140.931, 7.877930
1141.413, 22.90820
1141.895, 35.20068
1142.377, 73.31250
1142.859, 71.92188
1143.342, 56.44678
1143.824, 52.65918
1144.306, 59.09619
1144.788, 73.59619
1145.270, 94.86523
1145.752, 111.6548
1146.234, 115.4497
1146.716, 116.0469
1147.198, 115.6362
1147.681, 115.8828
1148.163, 123.9897
1148.645, 137.6499
1149.127, 136.4429
1149.609, 115.4780
1150.091, 91.55469
1150.573, 68.73291
1151.055, 54.16162
1151.537, 55.78418
1152.020, 69.82520
1152.502, 75.86572
1152.984, 74.01611
1153.466, 78.67334
1153.948, 99.72510
1154.430, 114.3970
1154.912, 86.27832
1155.394, 51.60596
1155.877, 50.93311
1156.359, 86.17236
1156.841, 140.8145
1157.323, 219.0029
1157.805, 277.8511
1158.287, 283.1494
1158.769, 270.8579
1159.251, 278.3750
1159.734, 296.5034
1160.216, 309.4585
1160.698, 313.0630
1161.180, 318.0117
1161.662, 326.6045
1162.144, 326.7378
1162.626, 297.7100
1163.108, 261.3989
1163.590, 256.4023
1164.073, 272.4814
1164.555, 274.1587
1165.037, 239.8447
1165.519, 216.6802
1166.001, 212.9224
1166.483, 209.9307
1166.965, 178.3330
1167.447, 136.5034
1167.929, 123.5483
1168.412, 138.6187
1168.894, 148.5337
1169.376, 140.0239
1169.858, 129.1479
1170.340, 115.9429
1170.822, 106.0845
1171.304, 114.0405
1171.786, 131.6875
1172.269, 137.9097
1172.751, 129.3281
1173.233, 116.6069
1173.715, 96.19873
1174.197, 81.91309
1174.679, 80.78760
1175.161, 86.61621
1175.643, 78.80664
1176.125, 63.98242
1176.608, 66.67285
1177.090, 99.74170
1177.572, 125.0308
1178.054, 121.0078
1178.536, 108.6050
1179.018, 96.78223
1179.500, 85.83301
1179.982, 76.94971
1180.464, 70.14014
1180.947, 65.38232
1181.429, 63.33740
1181.911, 62.02734
1182.393, 68.20459
1182.875, 67.47314
1183.357, 41.20508
1183.839, 7.698242
1184.321, 15.87793
1184.804, 12.43262
1185.286, 43.10791
1185.768, 63.53711
1186.250, 73.94580
1186.732, 68.98730
1187.214, 57.15723
1187.696, 44.97021
1188.178, 31.83887
1188.661, 41.92334
1189.143, 74.87354
1189.625, 98.33398
1190.107, 85.71924
1190.589, 60.83301
1191.071, 26.49707
1191.553, 3.331055
1192.035, 1.725098
1192.517, 44.45361
1193.000, 56.21777
1193.482, 29.53906
1193.964, 5.582520
1194.446, 22.20996
1194.928, 46.68604
1195.410, 58.11475
1195.892, 57.65625
1196.374, 47.92578
1196.856, 27.82031
1197.339, 22.46631
1197.821, 37.90088
1198.303, 53.55615
1198.785, 48.25537
1199.267, 34.63281
1199.749, 21.77734
1200.231, 9.920898
1200.713, 8.924316
1201.196, 19.75439
1201.678, 28.96094
1202.160, 33.61719
1202.642, 33.50537
1203.124, 18.83301
1203.606, 6.254395
1204.088, 16.06299
1204.570, 47.19727
1205.052, 69.02002
1205.535, 81.03955
1206.017, 85.30127
1206.499, 82.47119
1206.981, 71.83350
1207.463, 42.61865
1207.945, 11.41748
1208.427, 1.201172
1208.909, 6.018066
1209.391, 15.16064
1209.874, 26.61572
1210.356, 36.52295
1210.838, 44.26465
1211.320, 48.08008
1211.802, 42.30908
1212.284, 33.69678
1212.766, 32.30127
1213.248, 40.24902
1213.731, 41.87402
1214.213, 36.55664
1214.695, 33.43262
1215.177, 42.81055
1215.659, 52.26562
1216.141, 40.50635
1216.623, 23.08936
1217.105, 28.93848
1217.588, 71.67090
1218.070, 81.08398
1218.552, 54.71875
1219.034, 27.14941
1219.516, 22.40186
1219.998, 26.50293
1220.480, 26.38623
1220.962, 26.90674
1221.444, 39.81250
1221.927, 71.41113
1222.409, 81.79834
1222.891, 68.05664
1223.373, 51.04785
1223.855, 40.50586
1224.337, 38.86621
1224.819, 53.47021
1225.301, 77.66895
1225.783, 96.03711
1226.266, 109.0845
1226.748, 110.4468
1227.230, 98.91699
1227.712, 85.11670
1228.194, 76.08545
1228.676, 69.60840
1229.158, 65.96143
1229.640, 63.18799
1230.123, 53.26465
1230.605, 33.93799
1231.087, 33.81738
1231.569, 57.60840
1232.051, 83.58398
1232.533, 98.16357
1233.015, 103.9951
1233.497, 100.1143
1233.979, 89.25439
1234.462, 76.96143
1234.944, 63.17676
1235.426, 53.57275
1235.908, 49.21924
1236.390, 46.96533
1236.872, 44.09326
1237.354, 42.78760
1237.836, 43.78809
1238.318, 47.38330
1238.801, 56.92773
1239.283, 72.22754
1239.765, 79.78711
1240.247, 77.12305
1240.729, 68.20215
1241.211, 45.27979
1241.693, 26.93457
1242.175, 27.10742
1242.658, 43.43359
1243.140, 67.22168
1243.622, 95.57129
1244.104, 93.19922
1244.586, 44.92383
1245.068, 1.789063
1245.550, 0.6176760
1246.032, 10.22461
1246.515, 20.59229
1246.997, 29.68896
1247.479, 33.74414
1247.961, 33.79297
1248.443, 36.68457
1248.925, 46.70312
1249.407, 48.59424
1249.889, 18.06006
1250.371, 1.852539
1250.854, 17.67578
1251.336, 60.52344
1251.818, 62.78955
1252.300, 36.28125
1252.782, 21.97998
1253.264, 37.11865
1253.746, 46.11572
1254.228, 32.25586
1254.710, 14.79590
1255.193, 1.142090
1255.675, 11.46484
1256.157, 0.5654300
1256.639, 27.82422
1257.121, 54.18408
1257.603, 82.70215
1258.085, 85.98340
1258.567, 43.84570
1259.050, 8.625000
1259.532, 13.00342
1260.014, 39.77490
1260.496, 53.84131
1260.978, 56.42871
1261.460, 48.23193
1261.942, 18.67725
1262.424, 8.153809
1262.906, 26.19482
1263.389, 41.63037
1263.871, 32.40137
1264.353, 13.65576
1264.835, 8.335938
1265.317, 13.46143
1265.799, 24.51953
1266.281, 44.40283
1266.763, 61.44922
1267.245, 76.35986
1267.728, 83.57275
1268.210, 76.23291
1268.692, 63.13867
1269.174, 50.30957
1269.656, 41.14453
1270.138, 44.64307
1270.620, 68.72314
1271.102, 69.17041
1271.585, 44.30078
1272.067, 16.84619
1272.549, 6.788574
1273.031, 19.24414
1273.513, 11.07520
1273.995, 11.03809
1274.477, 41.22412
1274.959, 84.46484
1275.442, 84.74658
1275.924, 43.55420
1276.406, 8.414063
1276.888, 14.34717
1277.370, 26.04736
1277.852, 21.09814
1278.334, 12.68701
1278.816, 15.52197
1279.298, 29.28027
1279.781, 35.29297
1280.263, 35.06250
1280.745, 39.67041
1281.227, 67.91357
1281.709, 84.33203
1282.191, 65.55371
1282.673, 43.78320
1283.155, 51.67725
1283.637, 80.58984
1284.120, 86.55713
1284.602, 73.51416
1285.084, 57.76318
1285.566, 37.92432
1286.048, 29.84521
1286.530, 37.25928
1287.012, 50.60107
1287.494, 62.69238
1287.977, 70.35938
1288.459, 61.40771
1288.941, 42.09131
1289.423, 30.18018
1289.905, 41.22510
1290.387, 40.14062
1290.869, 21.80078
1291.351, 6.685547
1291.833, 14.69531
1292.316, 32.70898
1292.798, 51.34180
1293.280, 64.96680
1293.762, 57.05127
1294.244, 13.74951
1294.726, 2.066406
1295.208, 22.39600
1295.690, 42.52783
1296.172, 19.81982
1296.655, 1.771484
1297.137, 29.70020
1297.619, 79.35693
1298.101, 89.10205
1298.583, 54.73096
1299.065, 23.75195
1299.547, 2.386230
1300.029, 12.05664
1300.512, 20.15039
1300.994, 48.38330
1301.476, 45.72656
1301.958, 31.75293
1302.440, 19.34375
1302.922, 10.33105
1303.404, 26.14209
1303.886, 60.85742
1304.369, 82.43945
1304.851, 64.59277
1305.333, 49.84180
1305.815, 46.58105
1306.297, 45.84814
1306.779, 43.94873
1307.261, 37.72607
1307.743, 24.95557
1308.225, 8.862305
1308.708, 5.574219
1309.190, 7.624023
1309.672, 30.16699
1310.154, 67.80469
1310.636, 92.90332
1311.118, 70.95312
1311.600, 34.43018
1312.082, 24.27344
1312.564, 30.42090
1313.047, 24.70020
1313.529, 17.88965
1314.011, 13.61426
1314.493, 11.57031
1314.975, 13.28516
1315.457, 32.84229
1315.939, 45.10107
1316.421, 27.28857
1316.904, 0.0000000E+00
##END=



