##NAMES=Mammothite
##RRUFFID=R130100
##IDEAL CHEMISTRY=Pb_6_Cu_4_AlSb^5+^O_2_(SO_4_)_2_Cl_4_(OH)_16_
##LOCALITY=Rowley mine, Maricopa Co., Arizona, USA
##OWNER=RRUFF
##SOURCE=Joe Ruiz
##DESCRIPTION=Blue bladed crystals, associated with blue cubes of boleite R130099, irregular masses of blue diaboleite, colorless paralaurionite, colorless gypsum in massive cerussite
##STATUS=The identification of this mineral has been confirmed by single-crystal X-ray diffraction.
##URL=rruff.info/R130100
174.6963, 0.0000000E+00
175.1784, 0.1512790
175.6605, 0.1047670
176.1426, 0.2519190
176.6248, 0.4675050
177.1069, 0.7795090
177.5890, 0.5038280
178.0711, 0.2167190
178.5532, 4.4183999E-02
179.0353, 0.2446840
179.5175, 0.2579780
179.9996, 2.0111000E-02
180.4817, 0.4499740
180.9638, 1.187408
181.4459, 2.268896
181.9280, 3.421417
182.4102, 4.279181
182.8923, 4.862999
183.3744, 5.450249
183.8565, 6.250172
184.3386, 7.187263
184.8207, 8.010639
185.3029, 8.686764
185.7850, 9.252846
186.2671, 9.743847
186.7492, 10.16180
187.2313, 10.61924
187.7134, 11.19774
188.1956, 11.88793
188.6777, 12.59985
189.1598, 13.30566
189.6419, 14.05544
190.1240, 15.01419
190.6061, 16.20652
191.0883, 17.37619
191.5704, 18.29420
192.0525, 18.99893
192.5346, 19.76602
193.0167, 20.60795
193.4988, 21.52810
193.9810, 22.44420
194.4631, 23.30158
194.9452, 24.29941
195.4273, 25.46259
195.9094, 26.78421
196.3915, 27.87329
196.8737, 28.55597
197.3558, 28.99442
197.8379, 29.80125
198.3200, 31.01115
198.8021, 32.39573
199.2842, 33.76455
199.7664, 35.12578
200.2485, 36.48431
200.7306, 37.89317
201.2127, 39.31462
201.6948, 40.52504
202.1769, 41.48094
202.6591, 42.38486
203.1412, 43.40742
203.6233, 44.56028
204.1054, 45.79060
204.5875, 47.19411
205.0696, 48.71056
205.5518, 49.72183
206.0339, 50.14775
206.5160, 50.27122
206.9981, 50.41835
207.4802, 50.66025
207.9623, 50.58611
208.4445, 50.01824
208.9266, 48.97881
209.4087, 48.13269
209.8908, 47.61562
210.3729, 47.03664
210.8550, 45.83238
211.3372, 43.73797
211.8193, 42.00414
212.3014, 41.04026
212.7835, 40.85291
213.2656, 40.42709
213.7477, 39.74026
214.2299, 38.84835
214.7120, 37.77039
215.1941, 36.37315
215.6762, 35.13440
216.1583, 34.17924
216.6404, 33.52535
217.1226, 32.93732
217.6047, 32.45423
218.0868, 31.98898
218.5689, 31.41300
219.0510, 30.65430
219.5331, 29.94291
220.0153, 29.28720
220.4974, 28.66727
220.9795, 28.35918
221.4616, 28.46923
221.9437, 28.75139
222.4258, 28.94756
222.9080, 29.14647
223.3901, 29.06626
223.8722, 28.52187
224.3543, 27.37831
224.8364, 26.70298
225.3185, 26.80348
225.8007, 27.12426
226.2828, 26.92393
226.7649, 25.91229
227.2470, 24.95119
227.7291, 24.30934
228.2112, 24.02943
228.6934, 23.65860
229.1755, 23.18668
229.6576, 22.63310
230.1397, 22.01052
230.6218, 21.21244
231.1039, 20.53035
231.5861, 20.06378
232.0682, 19.83557
232.5503, 19.57027
233.0324, 19.38706
233.5145, 19.18879
233.9966, 18.82856
234.4788, 18.17238
234.9609, 17.59291
235.4430, 17.18107
235.9251, 16.94283
236.4072, 16.83720
236.8893, 16.96768
237.3715, 17.15060
237.8536, 17.15825
238.3357, 16.94957
238.8178, 16.60761
239.2999, 16.08553
239.7820, 15.33134
240.2642, 14.82924
240.7463, 14.68524
241.2284, 14.70109
241.7105, 14.65075
242.1926, 14.55633
242.6747, 14.34959
243.1569, 13.96445
243.6390, 13.35641
244.1211, 12.93116
244.6032, 12.75603
245.0853, 12.69845
245.5674, 12.62692
246.0496, 12.61669
246.5317, 12.44785
247.0138, 12.00707
247.4959, 11.25218
247.9780, 10.70427
248.4601, 10.41653
248.9423, 10.27768
249.4244, 10.18452
249.9065, 10.19463
250.3886, 10.13794
250.8707, 9.958755
251.3528, 9.652691
251.8350, 9.378319
252.3171, 9.155018
252.7992, 8.945683
253.2813, 8.705994
253.7634, 8.406307
254.2455, 8.146057
254.7277, 7.959305
255.2098, 7.846321
255.6919, 7.693081
256.1740, 7.491257
256.6561, 7.258259
257.1382, 7.038651
257.6204, 6.910671
258.1025, 6.590008
258.5846, 5.954556
259.0667, 5.023869
259.5488, 4.265755
260.0309, 3.691532
260.5131, 3.294952
260.9952, 3.159752
261.4773, 3.487881
261.9594, 3.487099
262.4415, 2.893200
262.9236, 1.788300
263.4058, 1.108173
263.8879, 1.004917
264.3700, 1.056141
264.8521, 0.9172290
265.3342, 0.5254100
265.8163, 0.1562460
266.2985, 0.1648480
266.7806, 0.4306070
267.2627, 0.5979920
267.7448, 0.6464810
268.2269, 0.6372300
268.7090, 0.6129300
269.1912, 0.5772860
269.6733, 0.5044860
270.1554, 0.3618240
270.6375, 0.1868250
271.1196, 0.1462590
271.6017, 0.2735180
272.0839, 0.4430770
272.5660, 0.6282580
273.0481, 0.8755610
273.5302, 0.8158840
274.0123, 0.3124580
274.4944, 0.4561500
274.9766, 0.9571340
275.4587, 1.137634
275.9408, 1.256897
276.4229, 1.483986
276.9050, 1.835079
277.3871, 2.080029
277.8693, 2.148712
278.3514, 2.164803
278.8335, 2.436848
279.3156, 3.007362
279.7977, 3.594372
280.2798, 4.017941
280.7620, 4.273735
281.2441, 4.633995
281.7262, 5.125374
282.2083, 5.687279
282.6904, 6.216595
283.1725, 6.715206
283.6547, 7.207821
284.1368, 7.654263
284.6189, 8.076557
285.1010, 8.742374
285.5831, 9.766216
286.0652, 10.82886
286.5474, 11.36955
287.0295, 11.38871
287.5116, 11.44842
287.9937, 11.93634
288.4758, 12.73744
288.9579, 13.08838
289.4401, 12.92912
289.9222, 12.62415
290.4043, 12.66094
290.8864, 12.98400
291.3685, 13.18776
291.8506, 13.03151
292.3328, 12.65467
292.8149, 12.52026
293.2970, 12.65202
293.7791, 12.77436
294.2612, 12.50400
294.7433, 11.95520
295.2255, 11.59224
295.7076, 11.65499
296.1897, 11.94701
296.6718, 12.02217
297.1539, 11.88444
297.6360, 11.87149
298.1182, 12.45083
298.6003, 13.38620
299.0824, 14.09158
299.5645, 14.35825
300.0466, 14.37151
300.5287, 14.24693
301.0109, 14.02525
301.4930, 14.01839
301.9751, 14.57440
302.4572, 15.49513
302.9393, 16.43134
303.4214, 17.32528
303.9036, 18.20009
304.3857, 19.11209
304.8678, 20.03569
305.3499, 20.89420
305.8320, 21.71776
306.3141, 22.41384
306.7963, 22.80668
307.2784, 22.78308
307.7605, 22.71726
308.2426, 23.01966
308.7247, 23.53288
309.2068, 23.86478
309.6890, 23.76831
310.1711, 23.43650
310.6532, 23.03434
311.1353, 22.59114
311.6174, 22.02714
312.0995, 21.26332
312.5817, 20.35544
313.0638, 19.38420
313.5459, 18.32054
314.0280, 17.24123
314.5101, 16.18388
314.9922, 15.15894
315.4744, 14.15209
315.9565, 13.00177
316.4386, 11.92480
316.9207, 11.18134
317.4028, 11.14319
317.8849, 11.17670
318.3671, 11.00656
318.8492, 10.63735
319.3313, 10.32938
319.8134, 10.11552
320.2955, 10.02458
320.7776, 10.08147
321.2598, 10.46845
321.7419, 10.81276
322.2240, 11.02968
322.7061, 11.13060
323.1882, 11.18003
323.6703, 11.13104
324.1525, 11.07206
324.6346, 11.05700
325.1167, 11.23070
325.5988, 11.26056
326.0809, 11.01604
326.5630, 10.59886
327.0452, 10.28568
327.5273, 10.28843
328.0094, 10.23546
328.4915, 9.991936
328.9736, 9.493845
329.4557, 8.949144
329.9379, 8.368317
330.4200, 7.732189
330.9021, 7.007376
331.3842, 6.035849
331.8663, 5.200663
332.3484, 4.628405
332.8306, 4.378710
333.3127, 4.048197
333.7948, 3.617453
334.2769, 3.120556
334.7590, 2.579250
335.2411, 1.911816
335.7233, 1.377197
336.2054, 1.066559
336.6875, 0.9616580
337.1696, 0.8013920
337.6517, 0.5463290
338.1339, 0.3133050
338.6160, 0.2248480
339.0981, 0.3190080
339.5802, 0.3524070
340.0623, 0.2547860
340.5444, 8.8839002E-02
341.0266, 0.1315590
341.5087, 0.4452290
341.9908, 0.6656420
342.4729, 0.4593390
342.9550, 0.1682190
343.4371, 0.5181410
343.9193, 0.4648650
344.4014, 0.2390270
344.8835, 0.2595540
345.3656, 0.5247270
345.8477, 0.8183100
346.3298, 1.086851
346.8120, 1.307974
347.2941, 1.350380
347.7762, 1.196501
348.2583, 0.9470670
348.7404, 0.6775860
349.2225, 0.4015960
349.7047, 0.1781670
350.1868, 3.3555999E-02
350.6689, 4.6310000E-02
351.1510, 8.8261001E-02
351.6331, 9.1697998E-02
352.1152, 4.2371999E-02
352.5974, 0.1453150
353.0795, 0.3857590
353.5616, 0.5125980
354.0437, 0.4332330
354.5258, 0.2829150
355.0079, 0.1813680
355.4901, 0.1236170
355.9722, 8.5584998E-02
356.4543, 8.6657003E-02
356.9364, 8.3508998E-02
357.4185, 4.1492000E-02
357.9006, 3.1027000E-02
358.3828, 0.1835160
358.8649, 0.5500700
359.3470, 1.017736
359.8291, 1.360546
360.3112, 1.383282
360.7933, 1.323709
361.2755, 1.319197
361.7576, 1.389683
362.2397, 1.466274
362.7218, 1.483492
363.2039, 1.497595
363.6860, 1.581301
364.1682, 1.976152
364.6503, 2.225454
365.1324, 2.048893
365.6145, 1.469862
366.0966, 1.144804
366.5787, 1.401361
367.0609, 1.807886
367.5430, 2.087797
368.0251, 2.132193
368.5072, 2.150902
368.9893, 2.186174
369.4714, 2.210911
369.9536, 2.123129
370.4357, 1.729948
370.9178, 1.427925
371.3999, 1.400051
371.8820, 1.793776
372.3641, 2.082527
372.8463, 2.257427
373.3284, 2.330841
373.8105, 2.283129
374.2926, 1.986681
374.7747, 1.861458
375.2568, 2.073948
375.7390, 2.629601
376.2211, 3.086784
376.7032, 3.429018
377.1853, 3.715292
377.6674, 4.006737
378.1495, 4.306068
378.6317, 4.579651
379.1138, 4.780102
379.5959, 4.976711
380.0780, 5.454508
380.5601, 6.239208
381.0422, 6.999710
381.5244, 7.486437
382.0065, 7.744596
382.4886, 7.955530
382.9707, 8.093706
383.4528, 8.324608
383.9349, 9.021076
384.4171, 10.09018
384.8992, 11.01662
385.3813, 11.42684
385.8634, 11.58153
386.3455, 11.96544
386.8276, 12.59985
387.3098, 13.23860
387.7919, 13.60839
388.2740, 13.84855
388.7561, 14.20916
389.2382, 14.86836
389.7203, 15.58945
390.2025, 16.14087
390.6846, 16.55922
391.1667, 17.03387
391.6488, 17.81834
392.1309, 18.61798
392.6130, 19.15280
393.0952, 19.22207
393.5773, 19.33548
394.0594, 19.79894
394.5415, 20.44430
395.0236, 20.95944
395.5057, 21.15336
395.9879, 21.28449
396.4700, 21.49416
396.9521, 21.84020
397.4342, 21.98755
397.9163, 21.64208
398.3984, 21.18259
398.8806, 20.96759
399.3627, 21.53292
399.8448, 21.76167
400.3269, 21.45959
400.8090, 20.64913
401.2911, 19.72385
401.7733, 18.50017
402.2554, 17.43283
402.7375, 16.78144
403.2196, 16.77974
403.7017, 16.55335
404.1838, 16.07387
404.6660, 15.38597
405.1481, 14.56630
405.6302, 13.59371
406.1123, 12.61575
406.5944, 11.66421
407.0765, 10.73902
407.5587, 9.926781
408.0408, 9.237577
408.5229, 8.577356
409.0050, 7.805059
409.4871, 6.937122
409.9692, 6.215137
410.4514, 5.738785
410.9335, 5.356272
411.4156, 4.701687
411.8977, 3.862471
412.3798, 3.159719
412.8619, 2.816845
413.3441, 2.687349
413.8262, 2.537851
414.3083, 2.342913
414.7904, 2.131613
415.2725, 1.923092
415.7546, 1.732422
416.2368, 1.572567
416.7189, 1.428600
417.2010, 1.317411
417.6831, 1.275475
418.1652, 1.290766
418.6473, 1.243586
419.1295, 0.9005300
419.6116, 0.5545830
420.0937, 0.4916420
420.5758, 1.015024
421.0579, 1.470026
421.5400, 1.606684
422.0222, 1.530470
422.5043, 1.491400
422.9864, 1.432814
423.4685, 1.519882
423.9506, 1.812830
424.4327, 2.341225
424.9149, 3.029463
425.3970, 4.019020
425.8791, 5.081100
426.3612, 6.001398
426.8433, 6.714354
427.3254, 7.372854
427.8076, 7.951626
428.2897, 8.481745
428.7718, 9.202248
429.2539, 10.26890
429.7360, 11.19913
430.2181, 11.68075
430.7003, 11.67513
431.1824, 11.47745
431.6645, 11.11075
432.1466, 10.54061
432.6287, 9.595818
433.1108, 8.274782
433.5930, 7.098827
434.0751, 6.265911
434.5572, 5.731939
435.0393, 5.380959
435.5214, 5.215673
436.0035, 5.161713
436.4857, 5.202600
436.9678, 5.305935
437.4499, 5.373291
437.9320, 5.331188
438.4141, 5.350824
438.8962, 5.677427
439.3784, 6.230667
439.8605, 6.775229
440.3426, 7.185701
440.8247, 7.531546
441.3068, 7.831200
441.7889, 8.070299
442.2711, 8.434673
442.7532, 9.022377
443.2353, 9.781193
443.7174, 10.65688
444.1995, 11.71284
444.6816, 12.80116
445.1638, 13.91737
445.6459, 15.04118
446.1280, 16.12903
446.6101, 17.24972
447.0922, 18.26958
447.5743, 19.10669
448.0565, 19.62942
448.5386, 20.28921
449.0207, 21.16924
449.5028, 22.13057
449.9849, 23.00592
450.4670, 23.87516
450.9492, 24.49599
451.4313, 24.80555
451.9134, 24.81971
452.3955, 24.62787
452.8776, 24.23862
453.3597, 23.63521
453.8419, 22.81734
454.3240, 21.79127
454.8061, 20.42103
455.2882, 18.62093
455.7703, 16.70079
456.2524, 15.17459
456.7346, 13.98183
457.2167, 12.86554
457.6988, 11.61241
458.1809, 10.38874
458.6630, 9.530762
459.1451, 9.024239
459.6273, 8.521177
460.1094, 7.706244
460.5915, 6.762377
461.0736, 5.926291
461.5557, 5.249512
462.0378, 4.670315
462.5200, 4.196980
463.0021, 3.786003
463.4842, 3.362450
463.9663, 2.824997
464.4484, 2.328041
464.9305, 1.939123
465.4127, 1.660391
465.8948, 1.502411
466.3769, 1.619707
466.8590, 1.769999
467.3411, 1.779854
467.8232, 1.733208
468.3054, 1.400755
468.7875, 0.4887070
469.2696, 0.6593420
469.7517, 1.154087
470.2338, 0.6881140
470.7159, 0.1242080
471.1981, 0.2861840
471.6802, 0.5454500
472.1623, 0.5449920
472.6444, 0.2186150
473.1265, 0.1851980
473.6086, 0.4324460
474.0908, 0.5246850
474.5729, 0.5336570
475.0550, 0.4501690
475.5371, 0.3247260
476.0192, 0.2468200
476.5013, 0.2131580
476.9835, 0.1986620
477.4656, 0.2520770
477.9477, 0.2959880
478.4298, 0.1475300
478.9119, 0.2026200
479.3940, 0.4972740
479.8762, 0.4065800
480.3583, 0.1787910
480.8404, 0.1565590
481.3225, 0.6286140
481.8046, 1.067987
482.2867, 1.107468
482.7689, 0.8981760
483.2510, 0.8286650
483.7331, 1.220463
484.2152, 1.614151
484.6973, 1.796541
485.1794, 1.716099
485.6616, 1.624601
486.1437, 1.433802
486.6258, 1.307564
487.1079, 1.395489
487.5900, 1.958591
488.0721, 2.254045
488.5543, 2.065336
489.0364, 1.614279
489.5185, 1.579765
490.0006, 2.081882
490.4827, 2.619768
490.9648, 2.963793
491.4470, 3.126366
491.9291, 3.347063
492.4112, 3.640263
492.8933, 3.916616
493.3754, 4.139832
493.8575, 4.284687
494.3397, 4.178761
494.8218, 3.665779
495.3039, 3.116192
495.7860, 3.040085
496.2681, 3.365202
496.7502, 3.842768
497.2324, 4.547766
497.7145, 5.217325
498.1966, 5.562469
498.6787, 5.570450
499.1608, 5.546581
499.6429, 5.680147
500.1251, 5.840340
500.6072, 5.904667
501.0893, 5.664007
501.5714, 5.576307
502.0535, 5.911034
502.5356, 6.461056
503.0178, 6.755089
503.4999, 6.602421
503.9820, 6.355253
504.4641, 6.015146
504.9462, 5.564522
505.4283, 5.515114
505.9105, 6.108768
506.3926, 6.729460
506.8747, 6.860104
507.3568, 6.412050
507.8389, 6.079967
508.3210, 5.926861
508.8032, 5.919739
509.2853, 6.033152
509.7674, 6.263090
510.2495, 6.530125
510.7316, 6.830587
511.2137, 7.132643
511.6959, 7.334742
512.1780, 7.447107
512.6601, 7.615046
513.1422, 8.062164
513.6243, 8.595999
514.1064, 8.923525
514.5886, 8.927151
515.0707, 8.916813
515.5528, 8.989691
516.0349, 9.198973
516.5170, 9.620241
516.9991, 10.64525
517.4813, 11.52045
517.9634, 11.84393
518.4455, 11.70146
518.9276, 11.83610
519.4097, 12.55113
519.8918, 13.40582
520.3740, 14.20005
520.8561, 14.86505
521.3382, 15.64907
521.8203, 16.61975
522.3024, 17.63485
522.7845, 18.52316
523.2667, 19.25155
523.7488, 20.06470
524.2309, 21.02930
524.7130, 22.12147
525.1951, 23.19684
525.6772, 24.23666
526.1594, 25.37102
526.6415, 26.87829
527.1236, 28.47081
527.6057, 29.51096
528.0878, 30.03010
528.5699, 30.49495
529.0521, 31.12678
529.5342, 31.93368
530.0163, 32.98858
530.4984, 34.54070
530.9805, 35.88885
531.4626, 36.50531
531.9448, 36.65389
532.4269, 36.83112
532.9090, 37.50528
533.3911, 37.92997
533.8732, 37.76696
534.3553, 36.98204
534.8375, 36.24340
535.3196, 35.85054
535.8017, 35.22445
536.2838, 34.02679
536.7659, 32.02429
537.2480, 30.01418
537.7302, 27.92336
538.2123, 25.93348
538.6944, 24.43743
539.1765, 23.46458
539.6586, 22.40896
540.1407, 21.09326
540.6229, 19.61764
541.1050, 18.19831
541.5871, 16.84598
542.0692, 15.66822
542.5513, 14.79590
543.0334, 14.10290
543.5156, 13.40154
543.9977, 12.67597
544.4798, 11.99544
544.9619, 11.40851
545.4440, 10.90087
545.9261, 10.45950
546.4083, 10.11183
546.8904, 9.784756
547.3725, 9.428635
547.8546, 9.080671
548.3367, 8.812620
548.8188, 8.758930
549.3010, 8.652767
549.7831, 8.391573
550.2652, 7.978865
550.7473, 7.711796
551.2294, 7.708111
551.7115, 7.650188
552.1937, 7.283957
552.6758, 6.559591
553.1579, 6.033791
553.6400, 5.777132
554.1221, 5.590744
554.6042, 5.194649
555.0864, 4.619545
555.5685, 4.041862
556.0506, 3.474852
556.5327, 2.991297
557.0148, 2.768854
557.4969, 2.743607
557.9791, 2.675053
558.4612, 2.369501
558.9433, 2.003256
559.4254, 1.728422
559.9075, 1.555426
560.3896, 1.380371
560.8718, 1.159370
561.3539, 0.9231700
561.8360, 0.6922130
562.3181, 0.4213490
562.8002, 0.2308220
563.2823, 0.1597610
563.7645, 0.1560170
564.2466, 0.1393910
564.7287, 9.0239003E-02
565.2108, 7.7647999E-02
565.6929, 0.1375850
566.1750, 0.2438760
566.6572, 0.2523650
567.1393, 0.1427460
567.6214, 8.1675000E-02
568.1035, 0.2512090
568.5856, 0.5604360
569.0677, 0.6429410
569.5499, 0.4771770
570.0320, 0.2234040
570.5141, 4.6797000E-02
570.9962, 0.2847010
571.4783, 0.4001670
571.9604, 0.3316820
572.4426, 0.2221580
572.9247, 0.1390720
573.4068, 8.2044996E-02
573.8889, 4.8794001E-02
574.3710, 7.5542003E-02
574.8531, 8.9064002E-02
575.3353, 1.7798999E-02
575.8174, 0.1228290
576.2995, 0.1095520
576.7816, 0.2290860
577.2637, 0.5245510
577.7458, 0.6038580
578.2280, 0.4211350
578.7101, 0.2583720
579.1922, 0.1172410
579.6743, 7.9750000E-03
580.1564, 0.1729370
580.6385, 0.3658220
581.1207, 0.3123740
581.6028, 0.1319870
582.0849, 0.6215780
582.5670, 0.5438420
583.0491, 5.3633001E-02
583.5313, 0.3524150
584.0134, 0.3050140
584.4955, 0.1612050
584.9776, 0.2831150
585.4597, 0.6228790
585.9418, 0.9003070
586.4240, 0.8671490
586.9061, 0.8211440
587.3882, 0.9660020
587.8703, 1.394726
588.3524, 1.730062
588.8345, 1.863420
589.3167, 1.927931
589.7988, 1.999844
590.2809, 1.970371
590.7630, 2.230537
591.2451, 2.927162
591.7272, 3.807190
592.2094, 4.354361
592.6915, 4.539740
593.1736, 4.787571
593.6557, 5.278467
594.1378, 5.899729
594.6199, 6.400723
595.1021, 6.782896
595.5842, 7.092760
596.0663, 7.223013
596.5484, 7.367764
597.0305, 7.861074
597.5126, 8.745974
597.9948, 9.447704
598.4769, 9.525913
598.9590, 9.339218
599.4411, 9.200601
599.9232, 9.285537
600.4053, 9.228430
600.8875, 9.009159
601.3696, 8.605260
601.8517, 7.939613
602.3338, 6.775160
602.8159, 5.834492
603.2980, 5.286797
603.7802, 5.042112
604.2623, 4.761315
604.7444, 4.438971
605.2265, 4.146051
605.7086, 3.875308
606.1907, 3.663389
606.6729, 3.689496
607.1550, 3.948251
607.6371, 4.200052
608.1192, 4.215357
608.6013, 4.122541
609.0834, 4.075275
609.5656, 4.091925
610.0477, 4.185673
610.5298, 4.446068
611.0119, 4.752943
611.4940, 4.974379
611.9761, 5.015688
612.4583, 5.043840
612.9404, 5.059067
613.4225, 5.081446
613.9046, 5.173155
614.3867, 5.409424
614.8688, 5.548086
615.3510, 5.476610
615.8331, 5.243481
616.3152, 5.153461
616.7973, 5.212155
617.2794, 5.358963
617.7615, 5.564315
618.2437, 5.808321
618.7258, 6.113744
619.2079, 6.495560
619.6900, 6.786079
620.1721, 6.699597
620.6542, 6.482140
621.1364, 6.466831
621.6185, 6.807351
622.1006, 7.182007
622.5827, 7.496777
623.0648, 7.766429
623.5469, 7.997595
624.0291, 8.082813
624.5112, 8.213422
624.9933, 8.449550
625.4754, 8.768982
625.9575, 9.082580
626.4396, 9.372397
626.9218, 9.730593
627.4039, 10.17049
627.8860, 10.67008
628.3681, 11.21281
628.8502, 11.80196
629.3323, 12.41314
629.8145, 13.00517
630.2966, 13.62158
630.7787, 14.35909
631.2608, 15.22861
631.7429, 16.16502
632.2250, 17.20106
632.7072, 18.23527
633.1893, 19.16841
633.6714, 19.86028
634.1535, 20.62053
634.6356, 21.49758
635.1177, 22.47574
635.5999, 23.56659
636.0820, 24.90998
636.5641, 26.17378
637.0462, 27.29241
637.5283, 28.29631
638.0104, 29.27402
638.4926, 30.21556
638.9747, 31.22554
639.4568, 32.42038
639.9389, 33.69030
640.4210, 34.75294
640.9031, 35.64528
641.3853, 36.36412
641.8674, 36.90553
642.3495, 37.28059
642.8316, 37.51231
643.3137, 37.61337
643.7958, 37.49330
644.2780, 37.10010
644.7601, 36.46846
645.2422, 35.63323
645.7243, 34.63878
646.2064, 33.35732
646.6885, 31.58381
647.1707, 29.65088
647.6528, 28.06117
648.1349, 26.93380
648.6170, 25.71794
649.0991, 24.27560
649.5812, 22.70528
650.0634, 21.15195
650.5455, 19.61023
651.0276, 18.19433
651.5097, 16.94920
651.9918, 15.85287
652.4739, 14.90470
652.9561, 14.08835
653.4382, 13.21843
653.9203, 12.07606
654.4024, 10.94329
654.8845, 9.979160
655.3666, 9.204222
655.8488, 8.612402
656.3309, 8.414522
656.8130, 8.238298
657.2951, 7.844402
657.7772, 7.104000
658.2593, 6.492031
658.7415, 6.024235
659.2236, 5.659517
659.7057, 5.375208
660.1878, 5.170424
660.6699, 4.953911
661.1520, 4.715696
661.6342, 4.453691
662.1163, 4.192551
662.5984, 3.907589
663.0805, 3.528969
663.5626, 2.897808
664.0447, 2.298071
664.5269, 1.947731
665.0090, 1.793295
665.4911, 1.667519
665.9732, 1.475668
666.4553, 1.347019
666.9374, 1.406078
667.4196, 1.628519
667.9017, 1.611191
668.3838, 1.223471
668.8659, 0.8411350
669.3480, 0.6631320
669.8301, 0.6864890
670.3123, 0.6985930
670.7944, 0.7044090
671.2765, 0.6596280
671.7586, 0.4597320
672.2407, 0.1888030
672.7228, 6.1976999E-02
673.2050, 0.1289960
673.6871, 0.1954540
674.1692, 6.8277001E-02
674.6513, 0.1221810
675.1334, 0.2191960
675.6155, 0.1048370
676.0977, 1.5064000E-02
676.5798, 5.4892998E-02
677.0619, 0.1329770
677.5440, 9.9587999E-02
678.0261, 0.1521570
678.5082, 0.2845380
678.9904, 0.2167260
679.4725, 1.1507000E-02
679.9546, 0.2278980
680.4367, 0.4996270
680.9188, 0.6088030
681.4009, 0.3844650
681.8831, 1.4990000E-03
682.3652, 0.2700080
682.8473, 0.4248330
683.3294, 0.4232900
683.8115, 2.8812001E-02
684.2936, 0.3649880
684.7758, 0.4476050
685.2579, 0.2003590
685.7400, 5.9365999E-02
686.2221, 0.3263970
686.7042, 0.5158060
687.1863, 0.5696960
687.6685, 0.4407520
688.1506, 0.3830110
688.6327, 0.4151650
689.1148, 0.4780860
689.5969, 0.5209850
690.0790, 0.5457360
690.5612, 0.6059000
691.0433, 0.7360840
691.5254, 0.9057270
692.0075, 1.137194
692.4896, 1.369011
692.9717, 1.466145
693.4539, 1.302189
693.9360, 1.175032
694.4181, 1.271404
694.9002, 1.511818
695.3823, 1.773920
695.8644, 2.140448
696.3466, 2.386562
696.8287, 2.460915
697.3108, 2.406570
697.7929, 2.306973
698.2750, 2.131718
698.7571, 2.015324
699.2393, 2.014637
699.7214, 2.095682
700.2035, 2.173782
700.6856, 2.245962
701.1677, 2.281406
701.6498, 2.217073
702.1320, 2.134050
702.6141, 2.161039
703.0962, 2.280394
703.5783, 2.319382
704.0604, 2.082266
704.5425, 1.835445
705.0247, 1.765268
705.5068, 1.941158
705.9889, 1.958662
706.4710, 1.736433
706.9531, 1.457699
707.4352, 1.260151
707.9174, 1.162777
708.3995, 0.8730010
708.8816, 0.3228800
709.3637, 0.1143740
709.8458, 0.1317180
710.3279, 0.7805350
710.8101, 1.101330
711.2922, 0.9058990
711.7743, 0.6323240
712.2564, 0.6292000
712.7385, 0.7321190
713.2206, 0.7391760
713.7028, 0.4228190
714.1849, 0.2501490
714.6670, 0.4621050
715.1491, 0.8032000
715.6312, 0.9210380
716.1133, 0.7293000
716.5955, 0.5482080
717.0776, 0.4238470
717.5597, 0.3510320
718.0418, 0.2902870
718.5239, 0.2533760
719.0060, 0.3738480
719.4882, 0.8081360
719.9703, 1.310516
720.4524, 1.606064
720.9345, 1.719816
721.4166, 1.735680
721.8987, 1.568457
722.3809, 1.427872
722.8630, 1.457138
723.3451, 1.630795
723.8272, 1.704193
724.3093, 1.596962
724.7914, 1.491253
725.2736, 1.429966
725.7557, 1.419506
726.2378, 1.561369
726.7199, 1.871897
727.2020, 2.214371
727.6841, 2.602581
728.1663, 2.937281
728.6484, 2.901073
729.1305, 2.501087
729.6126, 2.152576
730.0947, 2.195705
730.5768, 2.367510
731.0590, 2.450048
731.5411, 2.390713
732.0232, 2.375881
732.5053, 2.544548
732.9874, 2.670238
733.4695, 2.596346
733.9517, 2.215895
734.4338, 2.023897
734.9159, 2.069843
735.3980, 2.157793
735.8801, 2.033169
736.3622, 1.754686
736.8444, 1.614698
737.3265, 1.684417
737.8086, 1.749684
738.2907, 1.555906
738.7728, 1.269075
739.2549, 1.125423
739.7371, 1.294304
740.2192, 1.414309
740.7013, 1.418043
741.1834, 1.304306
741.6655, 1.046778
742.1476, 0.4613570
742.6298, 0.1569350
743.1119, 0.3164500
743.5940, 0.6755490
744.0761, 0.7279870
744.5582, 0.5041500
745.0403, 0.3340380
745.5225, 0.3629430
746.0046, 0.4051070
746.4867, 9.0365000E-02
746.9688, 0.3784030
747.4509, 0.5600510
747.9330, 4.2431999E-02
748.4152, 0.6348840
748.8973, 0.9579140
749.3794, 1.029926
749.8615, 0.9220310
750.3436, 0.4931670
750.8257, 0.1546960
751.3079, 2.2529000E-02
751.7900, 4.9915999E-02
752.2721, 0.1039640
752.7542, 0.1851530
753.2363, 0.2120340
753.7184, 9.4255000E-02
754.2006, 6.8595000E-02
754.6827, 0.1583490
755.1648, 0.1647910
755.6469, 4.1134998E-02
756.1290, 0.4512990
756.6111, 0.8855070
757.0933, 1.015508
757.5754, 0.8409050
758.0575, 0.6204230
758.5396, 0.2769740
759.0217, 3.1686999E-02
759.5038, 1.3729000E-02
759.9860, 0.1246200
760.4681, 0.2946720
760.9502, 0.5057920
761.4323, 0.6221610
761.9144, 0.4506170
762.3965, 0.1605530
762.8787, 8.0746002E-02
763.3608, 0.2063450
763.8429, 0.3549300
764.3250, 0.4300110
764.8071, 0.4805160
765.2892, 0.5518560
765.7714, 0.6599390
766.2535, 0.6866650
766.7356, 0.5862050
767.2177, 0.4530030
767.6998, 0.3375760
768.1819, 0.2306100
768.6641, 0.2088840
769.1462, 0.2815480
769.6283, 0.3718110
770.1104, 0.3589230
770.5925, 0.3338540
771.0746, 0.5729300
771.5568, 1.117904
772.0389, 1.435834
772.5210, 0.8426420
773.0031, 0.1250500
773.4852, 3.9336000E-02
773.9673, 0.7220310
774.4495, 1.130433
774.9316, 0.8875600
775.4137, 0.5676730
775.8958, 0.6384610
776.3779, 1.143932
776.8600, 1.494818
777.3422, 1.692202
777.8243, 1.788194
778.3064, 1.772347
778.7885, 1.683584
779.2706, 1.623359
779.7527, 1.622594
780.2349, 1.625698
780.7170, 1.577845
781.1991, 1.533386
781.6812, 1.536005
782.1633, 1.633153
782.6454, 1.708978
783.1276, 1.771626
783.6097, 1.807931
784.0918, 1.816241
784.5739, 1.798021
785.0560, 1.655463
785.5381, 1.345238
786.0203, 1.091370
786.5024, 1.215434
786.9845, 1.547077
787.4666, 1.811266
787.9487, 1.968730
788.4308, 1.985150
788.9130, 1.687855
789.3951, 1.325009
789.8772, 1.156991
790.3593, 1.360790
790.8414, 1.466856
791.3235, 1.428899
791.8057, 1.351051
792.2878, 1.388908
792.7699, 1.536490
793.2520, 1.570048
793.7341, 1.438198
794.2162, 1.252435
794.6984, 1.044076
795.1805, 0.8859810
795.6626, 0.9268900
796.1447, 1.353089
796.6268, 1.624423
797.1089, 1.413097
797.5911, 1.018768
798.0732, 0.7765940
798.5553, 0.7302630
799.0374, 0.7487460
799.5195, 0.8466970
800.0016, 0.9661290
800.4838, 1.053263
800.9659, 1.104637
801.4480, 1.074798
801.9301, 0.9344130
802.4122, 0.8027540
802.8943, 0.8024670
803.3765, 0.8798950
803.8586, 0.9680620
804.3407, 1.071923
804.8228, 1.132340
805.3049, 1.183362
805.7870, 1.196974
806.2692, 1.057256
806.7513, 0.6894060
807.2334, 0.4633870
807.7155, 0.4184330
808.1976, 0.5053370
808.6797, 0.7055980
809.1619, 0.9871530
809.6440, 1.286743
810.1261, 1.629538
810.6082, 1.835837
811.0903, 1.642677
811.5724, 1.301679
812.0546, 1.092004
812.5367, 1.221078
813.0188, 1.219214
813.5009, 0.9441240
813.9830, 0.6572380
814.4651, 0.7135400
814.9473, 1.147499
815.4294, 1.312325
815.9115, 1.103139
816.3936, 0.8091470
816.8757, 0.7494030
817.3578, 0.8417590
817.8400, 0.9592620
818.3221, 1.098738
818.8042, 1.175128
819.2863, 1.082818
819.7684, 0.9450810
820.2505, 0.8840140
820.7327, 0.9553790
821.2148, 0.9937920
821.6969, 1.009067
822.1790, 0.9716680
822.6611, 0.7906980
823.1432, 0.5054960
823.6254, 0.4214420
824.1075, 0.5918140
824.5896, 0.7688810
825.0717, 0.6859290
825.5538, 0.5031230
826.0359, 0.4118110
826.5181, 0.4810830
827.0002, 0.5181480
827.4823, 0.4029980
827.9644, 0.3036490
828.4465, 0.3572620
828.9286, 0.6282960
829.4108, 0.7273810
829.8929, 0.6345770
830.3750, 0.4526040
830.8571, 0.1911720
831.3392, 6.9160998E-02
831.8214, 0.1098510
832.3035, 9.8678000E-02
832.7856, 0.2815660
833.2677, 0.3236710
833.7498, 0.2574780
834.2319, 1.6737999E-02
834.7141, 0.5473880
835.1962, 0.7608510
835.6783, 0.4499320
836.1604, 5.3810000E-02
836.6425, 0.1405960
837.1246, 0.1384990
837.6068, 9.2972003E-02
838.0889, 7.7050002E-03
838.5710, 3.0170999E-02
839.0531, 9.4286002E-02
839.5352, 0.2914680
840.0173, 0.4638760
840.4995, 0.5877460
840.9816, 0.6373820
841.4637, 0.5095800
841.9458, 0.4190980
842.4279, 0.4766540
842.9100, 0.6747000
843.3922, 0.8177990
843.8743, 0.9087840
844.3564, 0.9554300
844.8385, 0.9352460
845.3206, 0.8920650
845.8027, 0.9022950
846.2849, 0.9403640
846.7670, 0.9545050
847.2491, 0.8951300
847.7312, 0.8500250
848.2133, 0.9350350
848.6954, 1.119089
849.1776, 1.077699
849.6597, 0.6248790
850.1418, 0.3009640
850.6239, 0.3319330
851.1060, 0.5983690
851.5881, 0.7017360
852.0703, 0.6577970
852.5524, 0.5971730
853.0345, 0.5634350
853.5166, 0.5619480
853.9987, 0.6305110
854.4808, 0.7349790
854.9630, 0.7889450
855.4451, 0.7179450
855.9272, 0.6495050
856.4093, 0.5893220
856.8914, 0.5565720
857.3735, 0.6046290
857.8557, 0.7402620
858.3378, 0.8840880
858.8199, 1.030194
859.3020, 1.146269
859.7841, 1.175145
860.2662, 1.138213
860.7484, 1.075511
861.2305, 0.9648000
861.7126, 0.8854310
862.1947, 0.8612960
862.6768, 0.8912650
863.1589, 0.9736050
863.6411, 1.135612
864.1232, 1.274703
864.6053, 1.380651
865.0874, 1.463755
865.5695, 1.513604
866.0516, 1.551852
866.5338, 1.675498
867.0159, 1.934415
867.4980, 2.119248
867.9801, 1.968995
868.4622, 1.738622
868.9443, 1.691919
869.4265, 2.005030
869.9086, 2.161839
870.3907, 2.098021
870.8728, 1.975946
871.3549, 1.903522
871.8370, 1.883642
872.3192, 1.992761
872.8013, 2.238856
873.2834, 2.422520
873.7655, 2.285924
874.2476, 2.067058
874.7297, 2.043792
875.2119, 2.247838
875.6940, 2.338017
876.1761, 2.124992
876.6582, 1.886389
877.1403, 1.689402
877.6224, 1.545039
878.1046, 1.692854
878.5867, 2.151987
879.0688, 2.478977
879.5509, 2.241269
880.0330, 1.805791
880.5151, 1.750503
880.9973, 1.973848
881.4794, 2.078836
881.9615, 1.826050
882.4436, 1.503177
882.9257, 1.126660
883.4078, 0.7716210
883.8900, 0.6885600
884.3721, 0.9504080
884.8542, 1.079835
885.3363, 0.8767550
885.8184, 0.5730350
886.3005, 0.6336100
886.7827, 0.9216590
887.2648, 1.079375
887.7469, 0.8555370
888.2290, 0.6586280
888.7111, 0.7744680
889.1932, 0.9682760
889.6754, 0.9151420
890.1575, 0.5281910
890.6396, 0.1315870
891.1217, 0.2980400
891.6038, 0.6210960
892.0859, 0.5909600
892.5681, 0.3479980
893.0502, 0.2219430
893.5323, 0.2486720
894.0144, 0.2713760
894.4965, 0.1829480
894.9786, 8.1678003E-02
895.4608, 3.5188999E-02
895.9429, 4.6749000E-02
896.4250, 0.1734070
896.9071, 0.4872970
897.3892, 0.7425210
897.8713, 0.7348340
898.3535, 0.5143210
898.8356, 0.3647300
899.3177, 0.2860790
899.7998, 0.2189870
900.2819, 6.2876001E-02
900.7640, 5.6623999E-02
901.2462, 2.7083000E-02
901.7283, 0.1443510
902.2104, 0.3480760
902.6925, 0.6785990
903.1746, 0.8494330
903.6567, 0.7319920
904.1389, 0.4207190
904.6210, 0.1861270
905.1031, 2.9158000E-02
905.5852, 4.1616999E-02
906.0673, 6.6960000E-02
906.5494, 0.1380670
907.0316, 0.1180620
907.5137, 0.5267190
907.9958, 0.7820710
908.4779, 0.6851370
908.9600, 0.6204570
909.4421, 0.6009780
909.9243, 0.6343710
910.4064, 0.7687050
910.8885, 0.9945180
911.3706, 1.136110
911.8527, 1.161385
912.3348, 1.150899
912.8170, 1.086217
913.2991, 1.077335
913.7812, 1.282331
914.2633, 1.792872
914.7454, 2.237642
915.2275, 2.589714
915.7097, 2.832696
916.1918, 2.891814
916.6739, 2.773015
917.1560, 2.895991
917.6381, 3.260484
918.1202, 3.756023
918.6024, 4.413224
919.0845, 5.085915
919.5666, 5.574159
920.0487, 5.910988
920.5308, 6.334241
921.0129, 7.143171
921.4951, 7.749474
921.9772, 7.889084
922.4593, 7.778185
922.9414, 8.120709
923.4235, 8.904441
923.9056, 9.639297
924.3878, 10.13339
924.8699, 10.57699
925.3520, 11.13943
925.8341, 11.81964
926.3162, 12.62977
926.7983, 13.73459
927.2805, 14.72048
927.7626, 15.48337
928.2447, 16.18838
928.7268, 17.00504
929.2089, 17.93136
929.6910, 18.84848
930.1732, 19.74753
930.6553, 20.56202
931.1374, 21.14160
931.6195, 21.65218
932.1016, 22.35102
932.5837, 23.26786
933.0659, 23.99010
933.5480, 24.47934
934.0301, 24.67298
934.5122, 24.52380
934.9943, 24.04556
935.4764, 23.31340
935.9586, 22.32067
936.4407, 21.21870
936.9228, 19.96708
937.4049, 18.72350
937.8870, 17.68711
938.3691, 16.77612
938.8513, 15.82823
939.3334, 14.73609
939.8155, 13.66306
940.2976, 12.61045
940.7797, 11.62131
941.2618, 10.79244
941.7440, 10.11872
942.2261, 9.558303
942.7082, 9.124077
943.1903, 8.658293
943.6724, 7.845858
944.1545, 7.023211
944.6367, 6.577934
945.1188, 6.689827
945.6009, 6.714588
946.0830, 6.576117
946.5651, 6.376726
947.0472, 6.157272
947.5294, 5.922062
948.0115, 5.732512
948.4936, 5.583629
948.9757, 5.435225
949.4578, 5.260759
949.9399, 5.128794
950.4221, 5.172802
950.9042, 5.312117
951.3863, 5.234064
951.8684, 4.761282
952.3505, 4.373447
952.8326, 4.175768
953.3148, 4.075483
953.7969, 3.845142
954.2790, 3.541945
954.7611, 3.459201
955.2432, 3.736267
955.7253, 4.043989
956.2075, 4.143732
956.6896, 4.161595
957.1717, 4.222477
957.6538, 4.345732
958.1359, 4.499296
958.6180, 4.706377
959.1002, 4.864231
959.5823, 4.862065
960.0644, 4.746729
960.5465, 4.600880
961.0286, 4.459791
961.5107, 4.515921
961.9929, 5.230164
962.4750, 5.825178
962.9571, 5.720293
963.4392, 5.135187
963.9213, 4.921692
964.4034, 5.162313
964.8856, 5.466064
965.3677, 5.753326
965.8498, 6.015814
966.3319, 6.256239
966.8140, 6.461691
967.2961, 6.577103
967.7783, 6.516796
968.2604, 6.564346
968.7425, 6.945625
969.2246, 7.389769
969.7067, 7.706137
970.1888, 7.891176
970.6710, 7.883097
971.1531, 7.654108
971.6352, 7.497337
972.1173, 7.701735
972.5994, 8.072374
973.0815, 8.402316
973.5637, 8.674168
974.0458, 8.858878
974.5279, 8.867381
975.0100, 8.875889
975.4921, 8.890940
975.9742, 8.957102
976.4564, 9.218119
976.9385, 9.665030
977.4206, 10.11693
977.9027, 10.57443
978.3848, 10.86233
978.8669, 10.60336
979.3491, 10.18100
979.8312, 10.06526
980.3133, 10.46351
980.7954, 10.88684
981.2775, 11.38033
981.7596, 11.79231
982.2418, 11.95933
982.7239, 11.94438
983.2060, 12.08322
983.6881, 12.36798
984.1702, 12.71387
984.6523, 13.22544
985.1345, 13.62926
985.6166, 13.64265
986.0987, 13.40526
986.5808, 13.45935
987.0629, 13.93186
987.5450, 14.29941
988.0272, 14.46021
988.5093, 14.47797
988.9914, 14.35024
989.4735, 14.17353
989.9556, 14.19082
990.4377, 14.53063
990.9199, 14.73576
991.4020, 14.55427
991.8841, 14.21913
992.3662, 13.87886
992.8483, 13.53989
993.3304, 13.14622
993.8126, 12.69058
994.2947, 12.30434
994.7768, 12.15026
995.2589, 12.05250
995.7410, 11.73024
996.2231, 11.28373
996.7053, 10.99518
997.1874, 11.16398
997.6695, 11.20606
998.1516, 11.01968
998.6337, 10.70127
999.1158, 10.37352
999.5980, 10.03589
1000.080, 9.689342
1000.562, 9.319594
1001.044, 9.055511
1001.526, 8.916209
1002.009, 8.913815
1002.491, 9.097000
1002.973, 9.496015
1003.455, 9.752700
1003.937, 9.829232
1004.419, 9.850354
1004.901, 9.837695
1005.383, 9.852339
1005.865, 10.06252
1006.348, 10.40144
1006.830, 10.69585
1007.312, 10.69329
1007.794, 10.84982
1008.276, 11.39672
1008.758, 12.11722
1009.240, 12.82903
1009.722, 13.53012
1010.205, 14.12108
1010.687, 14.56918
1011.169, 15.05799
1011.651, 15.79187
1012.133, 16.62743
1012.615, 17.49505
1013.097, 18.37483
1013.579, 19.11023
1014.061, 19.52725
1014.544, 20.01078
1015.026, 20.65071
1015.508, 21.43661
1015.990, 22.39886
1016.472, 23.50582
1016.954, 24.62662
1017.436, 25.75986
1017.918, 26.81072
1018.401, 27.66733
1018.883, 28.44137
1019.365, 29.27283
1019.847, 30.19741
1020.329, 31.03822
1020.811, 31.83231
1021.293, 32.37378
1021.775, 32.42148
1022.257, 32.17390
1022.740, 31.96543
1023.222, 31.74798
1023.704, 31.31210
1024.186, 30.66503
1024.668, 29.65281
1025.150, 28.15075
1025.632, 26.38174
1026.114, 24.68676
1026.596, 23.07267
1027.079, 21.27642
1027.561, 19.22038
1028.043, 17.32615
1028.525, 16.04763
1029.007, 14.99450
1029.489, 13.85951
1029.971, 12.61358
1030.453, 11.34388
1030.936, 9.963316
1031.418, 8.860263
1031.900, 8.302431
1032.382, 7.988821
1032.864, 7.326935
1033.346, 6.435238
1033.828, 5.605576
1034.310, 4.899530
1034.792, 4.338948
1035.275, 3.997350
1035.757, 3.743373
1036.239, 3.480958
1036.721, 3.212520
1037.203, 2.849320
1037.685, 2.395844
1038.167, 1.993463
1038.649, 1.752954
1039.132, 1.603725
1039.614, 1.516569
1040.096, 1.474910
1040.578, 1.400107
1041.060, 1.250340
1041.542, 1.182595
1042.024, 1.268513
1042.506, 1.348290
1042.989, 1.092438
1043.471, 0.6688240
1043.953, 0.4253960
1044.435, 0.4362920
1044.917, 0.5643010
1045.399, 1.021493
1045.881, 1.297783
1046.363, 1.036724
1046.845, 0.3423400
1047.328, 9.9793002E-02
1047.810, 0.2807620
1048.292, 0.4421220
1048.774, 0.3082330
1049.256, 0.1731240
1049.738, 0.3378940
1050.220, 0.6356210
1050.702, 0.7943130
1051.184, 0.7522400
1051.667, 0.6444790
1052.149, 0.4279490
1052.631, 0.2955290
1053.113, 0.4853160
1053.595, 0.8488310
1054.077, 1.150220
1054.559, 1.363963
1055.041, 1.418669
1055.523, 1.077845
1056.006, 0.8417690
1056.488, 0.9557420
1056.970, 1.163391
1057.452, 0.7994360
1057.934, 4.0426001E-02
1058.416, 0.4018840
1058.898, 3.4929998E-02
1059.380, 0.3843850
1059.863, 0.2680200
1060.345, 3.1109999E-03
1060.827, 9.4848998E-02
1061.309, 1.8188000E-02
1061.791, 3.3910000E-03
1062.273, 0.1723890
1062.755, 0.3192000
1063.237, 0.3430260
1063.719, 0.3049140
1064.202, 0.2943290
1064.684, 0.2941310
1065.166, 0.2664080
1065.648, 0.1139590
1066.130, 0.1057800
1066.612, 0.3925120
1067.094, 0.6398020
1067.576, 0.5038130
1068.059, 7.1690999E-02
1068.541, 0.1854490
1069.023, 0.2610950
1069.505, 0.1597900
1069.987, 0.3334080
1070.469, 0.7744870
1070.951, 0.9078930
1071.433, 0.8290000
1071.916, 0.6789250
1072.398, 0.4426510
1072.880, 0.2765440
1073.362, 0.2038510
1073.844, 0.1950010
1074.326, 0.2976620
1074.808, 0.3980170
1075.290, 0.3436230
1075.772, 0.1215830
1076.255, 8.9309998E-03
1076.737, 2.4646999E-02
1077.219, 1.1196000E-02
1077.701, 0.1481660
1078.183, 0.3471000
1078.665, 0.3407560
1079.147, 0.2137510
1079.629, 0.1820920
1080.111, 0.3690200
1080.594, 0.4534380
1081.076, 0.1534890
1081.558, 0.1162300
1082.040, 7.4320003E-02
1082.522, 0.2362030
1083.004, 0.3454010
1083.486, 0.2756860
1083.968, 0.2343120
1084.450, 0.3681450
1084.933, 0.5297840
1085.415, 0.6532870
1085.897, 0.7314840
1086.379, 0.7546060
1086.861, 0.7046500
1087.343, 0.6652450
1087.825, 0.6346830
1088.307, 0.6511110
1088.790, 0.7709890
1089.272, 0.9413270
1089.754, 1.131516
1090.236, 1.323155
1090.718, 1.429593
1091.200, 1.383991
1091.682, 1.348588
1092.164, 1.353943
1092.646, 1.374465
1093.129, 1.351047
1093.611, 1.315284
1094.093, 1.356488
1094.575, 1.493209
1095.057, 1.624347
1095.539, 1.688749
1096.021, 1.758569
1096.503, 1.908902
1096.986, 2.075221
1097.468, 1.943356
1097.950, 1.557412
1098.432, 1.302804
1098.914, 1.322499
1099.396, 1.444347
1099.878, 1.599409
1100.360, 1.759555
1100.843, 1.900522
1101.325, 2.024563
1101.807, 2.108425
1102.289, 2.148390
1102.771, 2.189826
1103.253, 2.207846
1103.735, 2.290316
1104.217, 2.684726
1104.699, 3.185268
1105.182, 3.391503
1105.664, 2.923337
1106.146, 2.752562
1106.628, 2.999789
1107.110, 3.283895
1107.592, 3.190143
1108.074, 2.917661
1108.556, 2.876879
1109.038, 3.053936
1109.521, 3.281014
1110.003, 3.541932
1110.485, 3.790668
1110.967, 4.052956
1111.449, 4.261203
1111.931, 4.272078
1112.413, 4.133555
1112.895, 4.051602
1113.377, 4.049717
1113.860, 4.121754
1114.342, 4.283799
1114.824, 4.503915
1115.306, 4.820669
1115.788, 5.165518
1116.270, 5.223745
1116.752, 5.042448
1117.234, 5.091928
1117.717, 5.554141
1118.199, 6.028138
1118.681, 6.081727
1119.163, 6.032902
1119.645, 6.188122
1120.127, 6.563402
1120.609, 6.893927
1121.091, 7.202293
1121.573, 7.358135
1122.056, 7.182777
1122.538, 7.018625
1123.020, 7.400612
1123.502, 8.071465
1123.984, 8.604802
1124.466, 8.794835
1124.948, 9.065935
1125.430, 9.481617
1125.913, 9.933089
1126.395, 10.31449
1126.877, 10.64769
1127.359, 10.98137
1127.841, 11.30141
1128.323, 11.63987
1128.805, 12.15737
1129.287, 12.52450
1129.770, 12.60742
1130.252, 12.69177
1130.734, 13.16172
1131.216, 13.85662
1131.698, 14.02765
1132.180, 13.72600
1132.662, 13.59939
1133.144, 14.24104
1133.626, 14.85751
1134.109, 15.17444
1134.591, 15.27936
1135.073, 15.22921
1135.555, 15.06221
1136.037, 15.21413
1136.519, 15.74239
1137.001, 16.26901
1137.483, 16.71660
1137.965, 16.91548
1138.448, 16.46356
1138.930, 15.67188
1139.412, 15.62855
1139.894, 16.40802
1140.376, 16.78728
1140.858, 16.43905
1141.340, 15.93171
1141.822, 15.84322
1142.304, 15.81534
1142.787, 15.44037
1143.269, 14.70329
1143.751, 14.24679
1144.233, 14.14384
1144.715, 13.93091
1145.197, 13.43386
1145.679, 12.81264
1146.161, 12.24514
1146.644, 11.70431
1147.126, 11.14364
1147.608, 10.54617
1148.090, 10.00433
1148.572, 9.575313
1149.054, 9.014220
1149.536, 8.098330
1150.018, 7.100662
1150.500, 6.468994
1150.983, 6.117880
1151.465, 5.878822
1151.947, 5.771132
1152.429, 5.641338
1152.911, 5.475035
1153.393, 5.295187
1153.875, 5.174911
1154.357, 5.031805
1154.840, 4.549700
1155.322, 3.837802
1155.804, 3.267346
1156.286, 3.120727
1156.768, 2.921463
1157.250, 2.536894
1157.732, 2.169209
1158.214, 2.038308
1158.697, 2.085423
1159.179, 2.040833
1159.661, 1.921760
1160.143, 1.873082
1160.625, 2.069423
1161.107, 2.221603
1161.589, 2.246268
1162.071, 2.170203
1162.553, 2.010318
1163.036, 1.789280
1163.518, 1.665073
1164.000, 1.645889
1164.482, 1.679852
1164.964, 1.925627
1165.446, 1.997771
1165.928, 1.545146
1166.410, 0.8983850
1166.892, 0.7016660
1167.375, 0.9217080
1167.857, 1.083078
1168.339, 1.119558
1168.821, 1.196233
1169.303, 1.604149
1169.785, 1.926734
1170.267, 1.823332
1170.749, 1.432139
1171.231, 1.099949
1171.714, 0.8252160
1172.196, 0.6174260
1172.678, 0.4759780
1173.160, 0.4317140
1173.642, 0.5843520
1174.124, 0.7826420
1174.606, 0.9279440
1175.088, 1.014806
1175.571, 0.9964500
1176.053, 0.8672190
1176.535, 0.7478430
1177.017, 0.6811600
1177.499, 0.6000060
1177.981, 0.3711160
1178.463, 0.1440450
1178.945, 7.1694002E-02
1179.427, 0.1595020
1179.910, 0.3300940
1180.392, 0.6040400
1180.874, 0.7467500
1181.356, 0.6352720
1181.838, 0.4433320
1182.320, 0.3284790
1182.802, 0.2537790
1183.284, 0.1678170
1183.767, 5.7027001E-02
1184.249, 2.5720000E-03
1184.731, 2.7000000E-05
1185.213, 0.1019040
1185.695, 0.4358780
1186.177, 0.7242920
1186.659, 0.5347020
1187.141, 0.1365050
1187.624, 7.1222000E-02
1188.106, 1.9471001E-02
1188.588, 7.6407000E-02
1189.070, 9.7782001E-02
1189.552, 9.2504002E-02
1190.034, 3.5420001E-02
1190.516, 1.2975000E-02
1190.998, 7.5278997E-02
1191.480, 0.2089490
1191.963, 0.2146380
1192.445, 6.3694999E-02
1192.927, 8.2690001E-02
1193.409, 0.2316360
1193.891, 0.4640360
1194.373, 0.1954090
1194.855, 0.2135880
1195.337, 0.3204100
1195.819, 0.2065550
1196.302, 1.1966000E-02
1196.784, 0.3719620
1197.266, 0.4899210
1197.748, 0.2711690
1198.230, 5.1344998E-02
1198.712, 0.1868590
1199.194, 0.4231060
1199.676, 0.3561880
1200.158, 9.9271998E-02
1200.641, 1.5206000E-02
1201.123, 0.2891220
1201.605, 0.4461130
1202.087, 0.4503770
1202.569, 0.3833730
1203.051, 0.2594600
1203.533, 0.1494980
1204.015, 0.1749200
1204.498, 0.3181260
1204.980, 0.4353730
1205.462, 0.4959190
1205.944, 0.4686690
1206.426, 0.3314700
1206.908, 0.2163700
1207.390, 0.2828320
1207.872, 0.4286270
1208.354, 0.5620460
1208.837, 0.6610540
1209.319, 0.6376710
1209.801, 0.3977540
1210.283, 0.2770520
1210.765, 0.3294760
1211.247, 0.4490940
1211.729, 0.5947780
1212.211, 0.6977690
1212.694, 0.6059400
1213.176, 0.3604290
1213.658, 0.2483120
1214.140, 0.3326090
1214.622, 0.4339830
1215.104, 0.5398790
1215.586, 0.6024010
1216.068, 0.5319160
1216.551, 0.4138090
1217.033, 0.3743410
1217.515, 0.3984390
1217.997, 0.2975140
1218.479, 4.0174998E-02
1218.961, 0.1148830
1219.443, 0.2124450
1219.925, 0.5860180
1220.407, 0.5746460
1220.890, 0.4107060
1221.372, 0.3461360
1221.854, 0.3931260
1222.336, 0.4370800
1222.818, 0.4742380
1223.300, 0.5049830
1223.782, 0.5318120
1224.264, 0.5400730
1224.746, 0.4415100
1225.229, 0.3679940
1225.711, 0.5502040
1226.193, 0.9466300
1226.675, 0.9649310
1227.157, 0.4930130
1227.639, 0.2672420
1228.121, 0.4853370
1228.603, 0.7873170
1229.085, 0.8630390
1229.568, 0.7819590
1230.050, 0.5001990
1230.532, 7.8374997E-02
1231.014, 2.7988000E-02
1231.496, 0.4011530
1231.978, 0.6716700
1232.460, 0.7047400
1232.942, 0.6835170
1233.425, 0.8105050
1233.907, 0.9438750
1234.389, 0.9307280
1234.871, 0.7982750
1235.353, 0.7673390
1235.835, 0.8472880
1236.317, 0.7795120
1236.799, 0.4687390
1237.281, 0.1913040
1237.764, 0.2275470
1238.246, 0.3510340
1238.728, 0.3550910
1239.210, 0.2852160
1239.692, 0.4105900
1240.174, 0.7165010
1240.656, 0.8440210
1241.138, 0.6849540
1241.621, 0.4702710
1242.103, 0.2534020
1242.585, 0.1647840
1243.067, 0.3514180
1243.549, 0.7123830
1244.031, 0.8741580
1244.513, 0.8730420
1244.995, 1.061939
1245.478, 1.583979
1245.960, 1.870282
1246.442, 1.233616
1246.924, 0.6368540
1247.406, 0.6571970
1247.888, 1.065039
1248.370, 1.187030
1248.852, 1.037996
1249.334, 0.8296960
1249.817, 0.5721050
1250.299, 0.3916920
1250.781, 0.4713340
1251.263, 0.4960400
1251.745, 0.2953630
1252.227, 2.9539999E-03
1252.709, 4.0351000E-02
1253.191, 9.4922997E-02
1253.673, 0.1923860
1254.156, 0.1953140
1254.638, 0.2786000
1255.120, 0.6973690
1255.602, 0.8830710
1256.084, 0.5602050
1256.566, 1.6884999E-02
1257.048, 0.2370580
1257.530, 0.2528440
1258.012, 7.6265000E-02
1258.495, 0.3145480
1258.977, 0.5484970
1259.459, 0.5175890
1259.941, 0.4741630
1260.423, 0.5182280
1260.905, 0.5258060
1261.387, 0.1946690
1261.869, 0.2302170
1262.352, 0.3419800
1262.834, 6.0022000E-02
1263.316, 0.1823790
1263.798, 0.3557840
1264.280, 0.4979440
1264.762, 0.6043820
1265.244, 0.7286610
1265.726, 1.056225
1266.208, 1.360436
1266.691, 1.311995
1267.173, 0.9041940
1267.655, 0.7433090
1268.137, 0.8738100
1268.619, 0.8447640
1269.101, 0.4909040
1269.583, 0.1594280
1270.065, 0.2410620
1270.548, 0.4408980
1271.030, 0.4519470
1271.512, 0.3360850
1271.994, 0.4501250
1272.476, 0.7828490
1272.958, 0.9223330
1273.440, 0.7455070
1273.922, 0.5822890
1274.405, 0.7366700
1274.887, 0.9083760
1275.369, 0.8977310
1275.851, 0.7822770
1276.333, 0.8061860
1276.815, 0.9307000
1277.297, 0.9334600
1277.779, 0.7701210
1278.261, 0.6113530
1278.744, 0.4400220
1279.226, 0.3816140
1279.708, 0.4359400
1280.190, 0.5711870
1280.672, 0.8309310
1281.154, 1.064958
1281.636, 1.047228
1282.118, 0.6840140
1282.600, 0.3173170
1283.083, 0.1539230
1283.565, 0.1439700
1284.047, 0.3389440
1284.529, 0.5767980
1285.011, 0.6018250
1285.493, 0.5298260
1285.975, 0.5183030
1286.457, 0.5934690
1286.939, 0.7218930
1287.422, 0.9476250
1287.904, 1.049685
1288.386, 0.9739780
1288.868, 0.8084640
1289.350, 0.5250570
1289.832, 0.2962530
1290.314, 0.3918090
1290.796, 0.7093860
1291.279, 0.7596430
1291.761, 0.5054920
1292.243, 0.2916090
1292.725, 0.1599000
1293.207, 0.1330390
1293.689, 0.3559830
1294.171, 0.5707400
1294.653, 0.5459330
1295.135, 0.4279100
1295.618, 0.5052980
1296.100, 0.7438280
1296.582, 0.8097920
1297.064, 0.6780660
1297.546, 0.4898730
1298.028, 0.2152060
1298.510, 8.1679001E-02
1298.992, 0.2130480
1299.475, 0.4000520
1299.957, 0.2853140
1300.439, 9.1410000E-03
1300.921, 9.6020997E-02
1301.403, 0.2752890
1301.885, 0.0000000E+00
##END=



