##NAMES=Manganite
##RRUFFID=R070269
##IDEAL CHEMISTRY=Mn^3+^O(OH)
##LOCALITY=Wessels Mine (Wessel's Mine), Hotazel, Kalahari manganese fields, Northern Cape Province, South Africa
##OWNER=RRUFF
##SOURCE=Michael Scott
##DESCRIPTION=Divergent black acicular crystals (with dark brown lights) associated with gaudefroyite in gypsum cleavage plate
##STATUS=The identification of this mineral is confirmed by single-crystal X-ray diffraction and chemical analysis.
##URL=rruff.info/R070269
##MEASURED CHEMISTRY=lighter phase: (Mn^3+^_0.99_Fe^3+^_0.01_)_Î£=1_O(OH) ; trace amounts of Cr and Ca; OH by difference; darker phase: gypsum 
151.3928, 0.0000000E+00
151.8749, 0.8267820
152.3570, 9.357788
152.8391, 24.38257
153.3212, 36.64856
153.8033, 47.83118
154.2855, 54.91211
154.7676, 49.17603
155.2497, 38.53046
155.7318, 29.21967
156.2139, 16.92346
156.6960, 7.907654
157.1782, 2.603943
157.6603, 3.538208
158.1424, 5.595276
158.6245, 3.065674
159.1066, 1.782959
159.5887, 2.700500
160.0709, 4.507813
160.5530, 16.25720
161.0351, 25.72998
161.5172, 31.45819
161.9993, 38.25354
162.4814, 53.05920
162.9636, 71.71954
163.4457, 85.10352
163.9278, 87.57819
164.4099, 84.02490
164.8920, 82.27313
165.3741, 82.33545
165.8563, 81.64398
166.3384, 79.41815
166.8205, 76.08960
167.3026, 73.14050
167.7847, 73.28027
168.2668, 73.54321
168.7490, 68.43677
169.2311, 55.06458
169.7132, 43.28259
170.1953, 39.83270
170.6774, 41.33594
171.1595, 42.28375
171.6417, 40.25684
172.1238, 35.40161
172.6059, 28.15240
173.0880, 16.65265
173.5701, 7.065796
174.0522, 2.354248
174.5344, 1.022583
175.0165, 1.245789
175.4986, 2.771606
175.9807, 5.144165
176.4628, 6.089600
176.9449, 4.974854
177.4271, 3.999329
177.9092, 3.826538
178.3913, 2.581055
178.8734, 3.369568
179.3555, 8.416138
179.8376, 15.17535
180.3197, 18.89130
180.8019, 18.33966
181.2840, 18.79218
181.7661, 23.22571
182.2482, 29.16394
182.7303, 30.69977
183.2124, 23.54852
183.6946, 11.04047
184.1767, 4.613708
184.6588, 7.384766
185.1409, 10.88739
185.6230, 12.89032
186.1051, 14.35541
186.5873, 16.62830
187.0694, 20.15479
187.5515, 24.32098
188.0336, 29.10944
188.5157, 37.23566
188.9978, 41.38501
189.4800, 38.16577
189.9621, 31.40131
190.4442, 24.70337
190.9263, 20.01422
191.4084, 16.30078
191.8905, 15.44476
192.3727, 19.33704
192.8548, 23.27148
193.3369, 27.28131
193.8190, 32.38599
194.3011, 35.62299
194.7832, 36.11774
195.2654, 34.87079
195.7475, 31.16211
196.2296, 22.73047
196.7117, 16.27356
197.1938, 12.25183
197.6759, 10.17603
198.1581, 10.77924
198.6402, 14.12158
199.1223, 18.22876
199.6044, 19.08392
200.0865, 14.02759
200.5686, 11.02881
201.0508, 12.80280
201.5329, 15.28033
202.0150, 15.11121
202.4971, 11.44928
202.9792, 6.202393
203.4613, 1.938354
203.9435, 2.644531
204.4256, 2.916260
204.9077, 6.455139
205.3898, 15.97919
205.8719, 18.30365
206.3540, 12.41211
206.8362, 3.579407
207.3183, 0.8068850
207.8004, 1.681152
208.2825, 2.595520
208.7646, 1.413330
209.2467, 1.110168
209.7289, 1.673584
210.2110, 5.924500
210.6931, 7.515198
211.1752, 0.2777100
211.6573, 22.81360
212.1395, 34.56189
212.6216, 27.26044
213.1037, 17.01855
213.5858, 8.828308
214.0679, 4.501282
214.5500, 5.808350
215.0322, 16.64233
215.5143, 40.16345
215.9964, 52.57880
216.4785, 41.26239
216.9606, 30.43414
217.4427, 30.22955
217.9249, 39.32928
218.4070, 50.48029
218.8891, 58.43353
219.3712, 63.20367
219.8533, 62.89722
220.3354, 53.53125
220.8176, 42.63922
221.2997, 28.98608
221.7818, 15.33618
222.2639, 6.736694
222.7460, 7.417786
223.2281, 16.36499
223.7103, 22.65540
224.1924, 26.04663
224.6745, 26.61761
225.1566, 21.83710
225.6387, 14.75854
226.1208, 9.810913
226.6030, 9.681396
227.0851, 13.29718
227.5672, 16.52563
228.0493, 22.01642
228.5314, 23.21985
229.0135, 14.97211
229.4957, 3.621399
229.9778, 3.600281
230.4599, 3.398865
230.9420, 1.962830
231.4241, 7.306885
231.9062, 13.91986
232.3884, 18.12982
232.8705, 19.38202
233.3526, 18.57330
233.8347, 16.29688
234.3168, 12.75531
234.7989, 8.098389
235.2811, 1.915833
235.7632, 8.442566
236.2453, 13.81952
236.7274, 10.86761
237.2095, 5.116821
237.6916, 0.5823970
238.1738, 5.250916
238.6559, 9.083130
239.1380, 13.22168
239.6201, 18.42078
240.1022, 22.56915
240.5843, 26.60999
241.0665, 28.67920
241.5486, 25.58752
242.0307, 18.62207
242.5128, 13.59326
242.9949, 17.79315
243.4770, 32.70093
243.9592, 41.52637
244.4413, 36.06903
244.9234, 31.06140
245.4055, 33.24158
245.8876, 41.09998
246.3697, 49.11292
246.8519, 53.87073
247.3340, 55.40771
247.8161, 53.56628
248.2982, 44.06061
248.7803, 36.73962
249.2624, 36.10638
249.7446, 39.52057
250.2267, 42.70001
250.7088, 43.32812
251.1909, 42.25909
251.6730, 41.75439
252.1551, 41.40417
252.6373, 42.56586
253.1194, 46.29041
253.6015, 51.42328
254.0836, 57.19885
254.5657, 63.75012
255.0478, 69.35211
255.5300, 71.10913
256.0121, 68.51727
256.4942, 64.03088
256.9763, 55.17285
257.4584, 46.46985
257.9406, 41.60498
258.4227, 41.45520
258.9048, 42.98175
259.3869, 42.40613
259.8690, 39.51312
260.3511, 39.63330
260.8333, 48.02234
261.3154, 55.84949
261.7975, 55.98053
262.2796, 48.76154
262.7617, 40.55505
263.2438, 34.45728
263.7260, 30.39557
264.2081, 28.39233
264.6902, 29.13757
265.1723, 30.81427
265.6544, 32.71301
266.1365, 34.65875
266.6187, 36.38605
267.1008, 37.82410
267.5829, 38.81885
268.0650, 38.85522
268.5471, 37.52930
269.0292, 37.83484
269.5114, 43.33838
269.9935, 51.00732
270.4756, 55.52582
270.9577, 53.07605
271.4398, 48.93774
271.9219, 50.15369
272.4041, 56.97723
272.8862, 61.56830
273.3683, 57.77014
273.8504, 50.32178
274.3325, 48.49164
274.8146, 54.42078
275.2968, 62.84424
275.7789, 72.82935
276.2610, 83.08997
276.7431, 87.49420
277.2252, 81.49792
277.7073, 71.87866
278.1895, 70.07965
278.6716, 76.87976
279.1537, 85.27594
279.6358, 94.56720
280.1179, 103.4561
280.6000, 109.5521
281.0822, 112.2768
281.5643, 112.7854
282.0464, 111.5388
282.5285, 108.2179
283.0106, 107.1479
283.4927, 114.3646
283.9749, 120.5149
284.4570, 115.1696
284.9391, 98.27966
285.4212, 79.87164
285.9033, 67.78064
286.3854, 62.13519
286.8676, 57.17834
287.3497, 55.75354
287.8318, 52.00018
288.3139, 40.55634
288.7960, 24.70355
289.2781, 12.86584
289.7603, 10.25128
290.2424, 14.52014
290.7245, 15.98376
291.2066, 11.63855
291.6887, 8.379822
292.1708, 8.206177
292.6530, 9.320190
293.1351, 9.823120
293.6172, 8.536621
294.0993, 5.378418
294.5814, 4.4128001E-02
295.0635, 11.62848
295.5457, 16.78284
296.0278, 10.74902
296.5099, 2.476868
296.9920, 1.634888
297.4741, 1.044067
297.9562, 0.7069090
298.4384, 0.3018190
298.9205, 4.846130
299.4026, 6.600708
299.8847, 4.349121
300.3668, 0.6069950
300.8489, 6.768494
301.3311, 14.88495
301.8131, 17.62439
302.2953, 9.932190
302.7774, 5.321716
303.2595, 13.15131
303.7416, 8.286926
304.2237, 3.328918
304.7058, 0.8479000
305.1880, 3.029602
305.6701, 0.8054810
306.1522, 6.894470
306.6343, 15.68665
307.1164, 17.47015
307.5985, 9.768982
308.0807, 4.272034
308.5628, 6.439331
309.0449, 9.061157
309.5270, 6.991394
310.0091, 0.1256710
310.4912, 6.514648
310.9734, 8.897400
311.4555, 7.224426
311.9376, 3.276917
312.4197, 4.121094
312.9018, 11.99872
313.3839, 18.87952
313.8661, 24.80676
314.3482, 29.77869
314.8303, 34.15613
315.3124, 37.42548
315.7945, 37.93512
316.2766, 35.07086
316.7588, 33.06635
317.2409, 34.79175
317.7230, 38.68695
318.2051, 42.31244
318.6872, 45.77057
319.1693, 48.21686
319.6515, 48.24292
320.1336, 46.44409
320.6157, 45.49280
321.0978, 46.33539
321.5799, 48.35663
322.0620, 51.07971
322.5442, 54.88141
323.0263, 57.22137
323.5084, 53.74951
323.9905, 49.95575
324.4726, 55.58563
324.9547, 72.21503
325.4369, 87.40686
325.9190, 87.16888
326.4011, 69.43781
326.8832, 64.40582
327.3653, 83.65649
327.8474, 104.4326
328.3296, 114.4472
328.8117, 115.2266
329.2938, 112.9161
329.7759, 110.6376
330.2580, 108.8959
330.7401, 110.0806
331.2223, 117.1317
331.7044, 123.4975
332.1865, 127.0220
332.6686, 130.2222
333.1507, 136.6595
333.6328, 147.1379
334.1150, 158.3303
334.5971, 164.7601
335.0792, 162.9730
335.5613, 165.8380
336.0434, 177.9248
336.5255, 190.0410
337.0077, 196.0895
337.4898, 197.5392
337.9719, 200.7085
338.4540, 211.6460
338.9361, 228.9239
339.4182, 239.2839
339.9004, 237.7178
340.3825, 236.2645
340.8646, 237.2322
341.3467, 240.7719
341.8288, 247.5809
342.3109, 258.3602
342.7931, 270.4488
343.2752, 278.9811
343.7573, 283.0273
344.2394, 290.4219
344.7215, 306.3361
345.2036, 323.7378
345.6858, 336.9988
346.1679, 345.9154
346.6500, 353.8878
347.1321, 362.3214
347.6142, 371.4509
348.0963, 382.4353
348.5785, 396.0627
349.0606, 409.4952
349.5427, 419.6151
350.0248, 427.6450
350.5069, 437.2367
350.9890, 450.8580
351.4712, 464.8674
351.9533, 476.9905
352.4354, 487.1400
352.9175, 494.0712
353.3996, 496.4368
353.8817, 497.3432
354.3639, 504.2052
354.8460, 519.8470
355.3281, 533.2826
355.8102, 544.3734
356.2923, 550.9682
356.7744, 547.8417
357.2566, 534.5554
357.7387, 519.9092
358.2208, 514.5028
358.7029, 521.1227
359.1850, 519.6944
359.6671, 502.0607
360.1493, 486.5587
360.6314, 484.5010
361.1135, 490.3870
361.5956, 491.1448
362.0777, 478.2924
362.5598, 457.1379
363.0420, 447.1262
363.5241, 454.0192
364.0062, 463.4186
364.4883, 477.2353
364.9704, 490.4146
365.4525, 496.9525
365.9347, 496.3027
366.4168, 495.7584
366.8989, 504.7913
367.3810, 524.2216
367.8631, 539.5534
368.3452, 546.5795
368.8274, 553.3234
369.3095, 561.8868
369.7916, 573.6338
370.2737, 591.5646
370.7558, 619.8657
371.2379, 652.5388
371.7201, 678.4258
372.2022, 696.5312
372.6843, 716.2514
373.1664, 741.1923
373.6485, 770.5322
374.1306, 802.8756
374.6128, 839.0069
375.0949, 874.8718
375.5770, 907.6362
376.0591, 938.5615
376.5412, 969.6061
377.0233, 1000.959
377.5055, 1033.546
377.9876, 1069.818
378.4697, 1110.399
378.9518, 1144.929
379.4339, 1169.129
379.9160, 1190.905
380.3982, 1215.095
380.8803, 1240.335
381.3624, 1263.594
381.8445, 1284.085
382.3266, 1299.630
382.8087, 1302.933
383.2909, 1290.787
383.7730, 1268.247
384.2551, 1228.894
384.7372, 1184.239
385.2193, 1143.714
385.7014, 1108.081
386.1836, 1071.531
386.6657, 1028.351
387.1478, 978.6844
387.6299, 926.6137
388.1120, 871.0377
388.5941, 814.0104
389.0763, 751.5096
389.5584, 688.1691
390.0405, 633.5038
390.5226, 591.9208
391.0047, 557.7841
391.4868, 520.8719
391.9690, 480.4842
392.4511, 446.7721
392.9332, 427.5966
393.4153, 410.8055
393.8974, 384.4877
394.3795, 348.7036
394.8617, 314.6514
395.3438, 287.8076
395.8259, 266.8143
396.3080, 249.4058
396.7901, 234.9792
397.2722, 220.9393
397.7544, 205.8511
398.2365, 190.8985
398.7186, 178.6151
399.2007, 172.6957
399.6828, 165.2523
400.1649, 149.4279
400.6471, 130.2811
401.1292, 117.3920
401.6113, 114.1848
402.0934, 115.7726
402.5755, 114.6995
403.0576, 111.2173
403.5398, 103.9163
404.0219, 84.61798
404.5040, 69.92432
404.9861, 72.75000
405.4682, 87.25488
405.9503, 98.14917
406.4325, 95.36652
406.9146, 82.75293
407.3967, 73.91724
407.8788, 69.29230
408.3609, 67.12762
408.8430, 70.91418
409.3252, 74.98718
409.8073, 73.90668
410.2894, 67.31091
410.7715, 60.64758
411.2536, 59.30182
411.7357, 62.04828
412.2179, 62.27374
412.7000, 58.48523
413.1821, 54.87677
413.6642, 55.57275
414.1463, 58.50043
414.6284, 59.26147
415.1106, 56.34186
415.5927, 51.86475
416.0748, 45.73004
416.5569, 38.98608
417.0390, 35.63403
417.5211, 37.67963
418.0033, 41.23151
418.4854, 40.22461
418.9675, 32.77533
419.4496, 27.05676
419.9317, 21.99530
420.4138, 19.88947
420.8960, 24.46649
421.3781, 33.71875
421.8602, 41.73419
422.3423, 44.82465
422.8244, 43.48560
423.3065, 39.66260
423.7887, 30.22034
424.2708, 23.21466
424.7529, 19.66058
425.2350, 18.47681
425.7171, 20.22156
426.1992, 24.23615
426.6814, 26.90942
427.1635, 23.53528
427.6456, 14.79871
428.1277, 9.258240
428.6098, 7.746277
429.0919, 7.898315
429.5741, 9.793579
430.0562, 12.18109
430.5383, 13.00903
431.0204, 11.26312
431.5025, 9.025635
431.9846, 7.945068
432.4668, 7.791931
432.9489, 7.650574
433.4310, 7.173157
433.9131, 7.090576
434.3952, 8.865479
434.8773, 12.86322
435.3595, 14.17963
435.8416, 10.55414
436.3237, 5.961487
436.8058, 1.814575
437.2879, 1.304565
437.7701, 2.078613
438.2522, 0.3336180
438.7343, 4.411743
439.2164, 6.129700
439.6985, 3.044495
440.1806, 1.964905
440.6628, 5.564453
441.1449, 8.889954
441.6270, 7.315308
442.1091, 2.039001
442.5912, 1.201965
443.0733, 3.157288
443.5555, 12.43298
444.0376, 15.82983
444.5197, 11.61322
445.0018, 6.341370
445.4839, 0.8467410
445.9660, 6.072876
446.4482, 3.463379
446.9303, 8.938171
447.4124, 19.18927
447.8945, 18.38629
448.3766, 10.55792
448.8587, 3.035828
449.3409, 3.430359
449.8230, 6.801697
450.3051, 4.296021
450.7872, 3.251465
451.2693, 6.995972
451.7514, 6.282776
452.2336, 2.886963
452.7157, 6.742249
453.1978, 17.23804
453.6799, 19.54572
454.1620, 11.58258
454.6441, 1.184143
455.1263, 1.257813
455.6084, 5.896606
456.0905, 11.70966
456.5726, 17.89111
457.0547, 20.75311
457.5368, 16.30377
458.0190, 8.416687
458.5011, 3.788208
458.9832, 5.801880
459.4653, 9.245911
459.9474, 4.350342
460.4295, 9.092529
460.9117, 14.69604
461.3938, 6.073914
461.8759, 6.942261
462.3580, 16.70758
462.8401, 23.48401
463.3222, 28.13812
463.8044, 32.57977
464.2865, 33.70972
464.7686, 26.00360
465.2507, 11.87164
465.7328, 0.6853030
466.2149, 3.443542
466.6971, 2.631714
467.1792, 0.6041870
467.6613, 4.449097
468.1434, 6.718994
468.6255, 3.642639
469.1076, 6.2622003E-02
469.5898, 1.232544
470.0719, 0.3555300
470.5540, 1.958069
471.0361, 5.716797
471.5182, 9.332092
472.0003, 7.431702
472.4825, 2.593262
472.9646, 10.92822
473.4467, 13.31055
473.9288, 14.83032
474.4109, 20.65533
474.8930, 30.02283
475.3752, 34.76654
475.8573, 25.14368
476.3394, 9.867798
476.8215, 2.663757
477.3036, 3.889771
477.7857, 14.05151
478.2679, 38.15582
478.7500, 67.71106
479.2321, 80.60504
479.7142, 70.60120
480.1963, 62.16425
480.6784, 59.32538
481.1606, 60.39697
481.6427, 64.86194
482.1248, 71.96838
482.6069, 79.43329
483.0890, 85.38068
483.5711, 90.62927
484.0533, 99.93018
484.5354, 117.6065
485.0175, 132.0100
485.4996, 142.4982
485.9817, 148.6234
486.4638, 146.6007
486.9460, 137.9034
487.4281, 133.3919
487.9102, 146.7812
488.3923, 170.5583
488.8744, 180.6214
489.3565, 174.7654
489.8387, 166.8290
490.3208, 164.3298
490.8029, 163.6628
491.2850, 157.0525
491.7671, 142.1033
492.2492, 128.3821
492.7314, 118.2335
493.2135, 111.5339
493.6956, 110.8896
494.1777, 114.9524
494.6598, 114.6429
495.1419, 101.7990
495.6241, 79.68854
496.1062, 68.76672
496.5883, 78.36847
497.0704, 86.62720
497.5525, 92.58051
498.0346, 95.35938
498.5168, 92.13281
498.9989, 83.93744
499.4810, 77.78320
499.9631, 82.31360
500.4452, 93.39667
500.9273, 92.41736
501.4095, 74.57843
501.8916, 65.75690
502.3737, 83.76904
502.8558, 113.4978
503.3379, 129.6146
503.8200, 128.0842
504.3022, 128.7372
504.7843, 141.7688
505.2664, 159.2857
505.7485, 171.4435
506.2306, 178.3462
506.7127, 187.4705
507.1949, 204.6495
507.6770, 227.2502
508.1591, 243.0538
508.6412, 246.1993
509.1233, 251.4045
509.6054, 256.9955
510.0876, 266.2783
510.5697, 282.9680
511.0518, 305.7974
511.5339, 329.1486
512.0161, 348.3083
512.4982, 366.1776
512.9803, 392.3925
513.4624, 428.6870
513.9445, 457.6391
514.4266, 470.9205
514.9088, 475.6741
515.3909, 479.7177
515.8730, 482.6183
516.3551, 492.4222
516.8372, 511.8660
517.3193, 538.3600
517.8015, 576.0776
518.2836, 620.6440
518.7657, 655.9102
519.2478, 672.5051
519.7299, 678.0965
520.2120, 691.7619
520.6942, 717.7318
521.1763, 744.7112
521.6584, 777.5302
522.1405, 806.8881
522.6226, 826.2546
523.1047, 838.8563
523.5869, 851.7388
524.0690, 868.1428
524.5511, 886.8605
525.0332, 907.1051
525.5153, 928.7018
525.9974, 947.3450
526.4796, 961.5928
526.9617, 973.7877
527.4438, 985.8638
527.9259, 997.8254
528.4080, 1009.451
528.8901, 1019.856
529.3723, 1030.657
529.8544, 1046.203
530.3365, 1062.625
530.8186, 1070.173
531.3007, 1065.907
531.7828, 1058.506
532.2650, 1060.477
532.7471, 1073.911
533.2292, 1083.754
533.7113, 1085.695
534.1934, 1088.995
534.6755, 1098.225
535.1577, 1109.771
535.6398, 1117.650
536.1219, 1119.629
536.6040, 1123.229
537.0861, 1136.358
537.5682, 1156.742
538.0504, 1177.417
538.5325, 1197.557
539.0146, 1217.195
539.4967, 1235.573
539.9788, 1253.377
540.4609, 1273.534
540.9431, 1298.380
541.4252, 1322.370
541.9073, 1342.116
542.3894, 1361.947
542.8715, 1386.961
543.3536, 1417.068
543.8358, 1447.756
544.3179, 1475.603
544.8000, 1501.251
545.2821, 1527.035
545.7642, 1553.237
546.2463, 1578.759
546.7285, 1604.687
547.2106, 1628.575
547.6927, 1647.389
548.1748, 1661.551
548.6569, 1676.797
549.1390, 1696.010
549.6211, 1717.122
550.1032, 1739.616
550.5853, 1762.403
551.0674, 1781.065
551.5496, 1794.138
552.0317, 1801.651
552.5138, 1803.512
552.9959, 1798.679
553.4780, 1791.446
553.9601, 1774.827
554.4423, 1763.548
554.9244, 1774.585
555.4065, 1791.434
555.8886, 1786.183
556.3707, 1748.122
556.8528, 1698.847
557.3350, 1665.499
557.8171, 1645.451
558.2992, 1617.754
558.7813, 1580.820
559.2634, 1534.506
559.7455, 1470.277
560.2277, 1397.603
560.7098, 1347.825
561.1919, 1342.152
561.6740, 1322.347
562.1561, 1253.405
562.6382, 1171.612
563.1204, 1119.177
563.6025, 1096.154
564.0846, 1071.377
564.5667, 1020.515
565.0488, 952.1434
565.5309, 900.3307
566.0131, 872.2201
566.4952, 842.7052
566.9773, 809.2418
567.4594, 771.3408
567.9415, 725.7908
568.4236, 674.5753
568.9058, 626.2444
569.3879, 581.1962
569.8700, 543.2006
570.3521, 519.3145
570.8342, 505.8362
571.3163, 490.5664
571.7985, 469.8181
572.2806, 445.7485
572.7627, 420.2666
573.2448, 392.5648
573.7269, 370.4058
574.2090, 361.0551
574.6912, 347.9835
575.1733, 320.5713
575.6554, 290.7162
576.1375, 273.9983
576.6196, 272.8120
577.1017, 272.5154
577.5839, 256.7400
578.0660, 231.2479
578.5481, 216.8672
579.0302, 215.1873
579.5123, 213.3801
579.9944, 206.1488
580.4766, 194.9659
580.9587, 182.4863
581.4408, 168.9292
581.9229, 153.5975
582.4050, 130.8584
582.8871, 111.4647
583.3693, 104.4432
583.8514, 106.2998
584.3335, 108.5205
584.8156, 107.2416
585.2977, 105.0425
585.7798, 107.4242
586.2620, 115.1946
586.7441, 116.6500
587.2262, 109.7922
587.7083, 98.86548
588.1904, 81.46466
588.6725, 62.83258
589.1547, 52.41333
589.6368, 53.63715
590.1189, 57.50293
590.6010, 64.45056
591.0831, 68.54211
591.5652, 58.48901
592.0474, 36.42145
592.5295, 18.78918
593.0116, 16.72998
593.4937, 25.42377
593.9758, 30.44519
594.4579, 30.12189
594.9401, 30.21063
595.4222, 32.71204
595.9043, 34.29095
596.3864, 33.81836
596.8685, 31.26349
597.3506, 25.75354
597.8328, 14.77637
598.3149, 4.320862
598.7970, 2.253967
599.2791, 5.039429
599.7612, 1.676575
600.2433, 9.900146
600.7255, 18.81226
601.2076, 15.49902
601.6897, 1.644714
602.1718, 8.926208
602.6539, 16.12823
603.1360, 19.83795
603.6182, 17.04401
604.1003, 13.18188
604.5824, 11.37067
605.0645, 12.43866
605.5466, 16.76251
606.0287, 24.93359
606.5109, 35.30414
606.9930, 49.26880
607.4751, 65.34778
607.9572, 68.78613
608.4393, 53.06805
608.9214, 35.47467
609.4036, 33.72540
609.8857, 47.79437
610.3678, 57.53021
610.8499, 61.65125
611.3320, 63.40674
611.8141, 61.46826
612.2963, 58.90161
612.7784, 58.58728
613.2605, 60.86102
613.7426, 63.92755
614.2247, 66.26123
614.7068, 69.29950
615.1890, 75.47980
615.6711, 84.64648
616.1532, 92.34070
616.6353, 97.34595
617.1174, 99.67181
617.5995, 97.21033
618.0817, 89.96429
618.5638, 90.55927
619.0459, 107.6119
619.5280, 123.3046
620.0101, 131.2291
620.4922, 133.8353
620.9744, 133.3032
621.4565, 130.8374
621.9386, 128.4227
622.4207, 128.3465
622.9028, 129.9510
623.3849, 128.6301
623.8671, 124.1046
624.3492, 120.6486
624.8313, 119.1318
625.3134, 119.0322
625.7955, 121.8560
626.2776, 127.0924
626.7598, 125.0179
627.2419, 106.2311
627.7240, 89.36414
628.2061, 86.42957
628.6882, 90.76495
629.1703, 92.24561
629.6525, 88.12604
630.1346, 81.05011
630.6167, 72.62457
631.0988, 63.44971
631.5809, 58.07678
632.0630, 57.92596
632.5452, 56.73755
633.0273, 51.27283
633.5094, 45.42395
633.9915, 45.62378
634.4736, 51.36646
634.9557, 50.26678
635.4379, 29.05963
635.9200, 11.80890
636.4021, 17.34174
636.8842, 33.71680
637.3663, 41.89880
637.8484, 37.52960
638.3306, 28.93286
638.8127, 24.13971
639.2948, 22.18768
639.7769, 17.29327
640.2590, 7.716370
640.7411, 2.518555
641.2233, 8.257507
641.7054, 15.71088
642.1875, 13.70142
642.6696, 3.227051
643.1517, 3.046143
643.6339, 1.619080
644.1160, 6.522644
644.5981, 4.850830
645.0802, 2.3800000E-03
645.5623, 2.458252
646.0444, 1.527222
646.5266, 0.6370850
647.0087, 3.449768
647.4908, 8.558350
647.9729, 8.270935
648.4550, 0.4974980
648.9371, 3.997070
649.4193, 0.1102910
649.9014, 5.285278
650.3835, 5.681396
650.8656, 1.638062
651.3477, 3.140015
651.8298, 11.15674
652.3120, 16.12988
652.7941, 13.60779
653.2762, 7.148438
653.7583, 3.5399999E-02
654.2404, 6.386475
654.7225, 9.641968
655.2047, 6.743652
655.6868, 5.6945998E-02
656.1689, 2.924927
656.6510, 1.351624
657.1331, 1.195313
657.6152, 6.117737
658.0974, 9.217590
658.5795, 3.856934
659.0616, 7.805908
659.5437, 15.06012
660.0258, 14.78375
660.5079, 12.38257
660.9901, 8.673889
661.4722, 4.403137
661.9543, 0.8814700
662.4364, 6.253174
662.9185, 8.503479
663.4006, 5.027283
663.8828, 1.610046
664.3649, 6.626526
664.8470, 10.06769
665.3291, 9.864685
665.8112, 4.311584
666.2933, 1.698669
666.7755, 4.754822
667.2576, 5.240417
667.7397, 5.200195
668.2218, 4.268982
668.7039, 3.400574
669.1860, 4.106628
669.6682, 3.851624
670.1503, 2.238342
670.6324, 10.98444
671.1145, 13.06812
671.5966, 3.262756
672.0787, 10.54590
672.5609, 18.13293
673.0430, 19.93994
673.5251, 18.66827
674.0072, 14.41943
674.4893, 8.198975
674.9714, 0.5993040
675.4536, 10.23767
675.9357, 16.04224
676.4178, 16.95581
676.8999, 16.29053
677.3820, 13.23206
677.8641, 9.410645
678.3463, 2.955017
678.8284, 2.676453
679.3105, 3.0884000E-02
679.7926, 13.44025
680.2747, 25.27271
680.7568, 21.70306
681.2390, 8.518921
681.7211, 1.837463
682.2032, 8.697266
682.6853, 11.14703
683.1674, 8.573425
683.6495, 1.786926
684.1317, 9.441345
684.6138, 28.09821
685.0959, 35.15649
685.5780, 19.91010
686.0601, 5.770325
686.5422, 2.604004
687.0244, 6.559387
687.5065, 7.445801
687.9886, 5.547852
688.4707, 1.011841
688.9528, 8.824158
689.4349, 19.18939
689.9171, 24.72803
690.3992, 26.25800
690.8813, 25.84949
691.3634, 24.12366
691.8455, 21.95404
692.3276, 20.15350
692.8098, 18.70404
693.2919, 17.34528
693.7740, 15.70667
694.2561, 14.99390
694.7382, 16.42871
695.2203, 17.95801
695.7025, 16.70660
696.1846, 14.12073
696.6667, 15.87781
697.1488, 27.49158
697.6309, 37.54950
698.1130, 38.94965
698.5952, 35.92493
699.0773, 33.13513
699.5594, 31.27679
700.0415, 29.20721
700.5236, 25.95465
701.0057, 23.44611
701.4879, 26.66174
701.9700, 35.83466
702.4521, 43.50128
702.9342, 50.02814
703.4163, 52.24066
703.8984, 45.58435
704.3806, 34.38513
704.8627, 29.01294
705.3448, 30.92621
705.8269, 33.74738
706.3090, 38.74066
706.7911, 42.46484
707.2733, 41.91150
707.7554, 38.94342
708.2375, 36.70120
708.7196, 36.30923
709.2017, 37.73883
709.6838, 43.05029
710.1660, 49.59674
710.6481, 48.20734
711.1302, 39.51627
711.6123, 37.30939
712.0944, 47.54282
712.5765, 60.66611
713.0587, 64.96851
713.5408, 60.15747
714.0229, 55.05707
714.5050, 43.99365
714.9871, 40.60080
715.4692, 54.30472
715.9514, 70.36765
716.4335, 77.32642
716.9156, 75.59778
717.3977, 71.97510
717.8798, 68.29700
718.3619, 65.03564
718.8441, 61.41635
719.3262, 58.90469
719.8083, 60.80692
720.2904, 66.80179
720.7725, 73.29163
721.2546, 78.29926
721.7368, 81.35840
722.2189, 79.77612
722.7010, 72.32462
723.1831, 68.52353
723.6652, 70.47394
724.1473, 73.10504
724.6295, 74.20789
725.1116, 74.22247
725.5937, 73.83252
726.0758, 73.04578
726.5579, 72.09262
727.0400, 71.18384
727.5222, 69.82251
728.0043, 66.45749
728.4864, 63.14447
728.9685, 64.79248
729.4506, 71.80682
729.9327, 75.54501
730.4149, 65.02841
730.8970, 48.41183
731.3791, 45.35614
731.8612, 54.62946
732.3433, 63.19714
732.8254, 67.84604
733.3076, 68.04779
733.7897, 61.91153
734.2718, 50.60617
734.7539, 49.45639
735.2360, 68.90033
735.7181, 80.80994
736.2003, 74.86673
736.6824, 67.04501
737.1645, 70.46860
737.6466, 80.84317
738.1287, 83.09045
738.6108, 69.17151
739.0930, 56.14560
739.5751, 55.92996
740.0572, 60.07407
740.5393, 59.19296
741.0214, 53.94894
741.5035, 48.29346
741.9857, 44.22351
742.4678, 42.62152
742.9499, 46.14792
743.4320, 54.06284
743.9141, 56.21243
744.3962, 51.42175
744.8784, 46.77820
745.3605, 44.06705
745.8426, 44.89703
746.3247, 53.54907
746.8068, 72.24405
747.2889, 79.59656
747.7711, 66.39105
748.2532, 53.92084
748.7353, 45.08600
749.2174, 40.53223
749.6995, 42.99805
750.1816, 50.52911
750.6638, 55.41391
751.1459, 51.72430
751.6280, 48.49304
752.1101, 58.38998
752.5922, 73.16690
753.0743, 75.50647
753.5565, 64.99683
754.0386, 54.11771
754.5207, 50.33823
755.0028, 51.00717
755.4849, 50.25601
755.9670, 47.58972
756.4492, 47.43384
756.9313, 52.38391
757.4134, 53.14169
757.8955, 42.05035
758.3776, 27.15527
758.8597, 21.81744
759.3419, 27.18069
759.8240, 30.10638
760.3061, 24.99155
760.7882, 22.49771
761.2703, 28.87344
761.7524, 38.30820
762.2346, 45.48508
762.7167, 49.40369
763.1988, 50.27890
763.6809, 46.48764
764.1630, 42.62146
764.6451, 46.94229
765.1273, 54.71707
765.6094, 50.49167
766.0915, 34.10995
766.5736, 26.35089
767.0557, 41.24777
767.5378, 66.15356
768.0200, 72.57779
768.5021, 56.45990
768.9842, 45.85306
769.4663, 42.90457
769.9484, 42.30414
770.4305, 43.95062
770.9127, 44.95471
771.3948, 39.42950
771.8769, 26.35831
772.3590, 19.99606
772.8411, 28.22470
773.3232, 36.32715
773.8054, 38.26236
774.2875, 37.17560
774.7696, 36.40326
775.2517, 36.27414
775.7338, 35.64426
776.2159, 34.06516
776.6981, 31.15268
777.1802, 24.55768
777.6623, 16.80222
778.1444, 14.51657
778.6265, 17.85168
779.1086, 21.46490
779.5908, 22.40024
780.0729, 21.64062
780.5550, 20.57913
781.0371, 19.00470
781.5192, 19.72705
782.0013, 24.20721
782.4835, 27.08163
782.9656, 25.87512
783.4477, 22.49103
783.9298, 18.59897
784.4119, 14.08292
784.8940, 12.03827
785.3762, 14.82584
785.8583, 17.26816
786.3404, 15.68466
786.8225, 14.99460
787.3046, 23.07401
787.7867, 36.08411
788.2689, 40.59210
788.7510, 29.00134
789.2331, 13.81226
789.7152, 2.075043
790.1973, 4.689850
790.6794, 1.607971
791.1616, 9.240387
791.6437, 18.91211
792.1258, 23.54187
792.6079, 25.36493
793.0900, 27.46927
793.5721, 29.58585
794.0543, 28.77267
794.5364, 24.30814
795.0185, 21.62094
795.5006, 22.83047
795.9827, 25.21646
796.4648, 27.03229
796.9470, 27.94556
797.4291, 24.39026
797.9112, 8.023682
798.3933, 0.7344060
798.8754, 4.807068
799.3575, 12.42685
799.8397, 16.42050
800.3218, 17.03329
800.8039, 14.66357
801.2860, 8.643066
801.7681, 5.104980
802.2502, 9.784363
802.7324, 15.96259
803.2145, 17.76419
803.6966, 16.41046
804.1787, 14.44312
804.6608, 12.66333
805.1429, 11.06070
805.6251, 9.594055
806.1072, 8.344086
806.5893, 7.773499
807.0714, 7.694672
807.5535, 6.661896
808.0356, 4.357788
808.5178, 1.722168
808.9999, 1.045471
809.4820, 2.849182
809.9641, 0.1862790
810.4462, 9.582306
810.9283, 13.85440
811.4105, 8.570313
811.8926, 4.433350
812.3747, 6.815186
812.8568, 11.59128
813.3389, 14.47913
813.8210, 15.41156
814.3032, 14.80890
814.7853, 9.801605
815.2674, 6.991394
815.7495, 10.93887
816.2316, 16.21194
816.7137, 18.44681
817.1959, 17.54535
817.6780, 14.31491
818.1601, 8.346924
818.6422, 3.569061
819.1243, 4.999023
819.6064, 8.847198
820.0886, 8.360840
820.5707, 4.936676
821.0528, 4.527954
821.5349, 9.277740
822.0170, 14.04962
822.4991, 12.87988
822.9813, 7.090912
823.4634, 1.372803
823.9455, 4.507507
824.4276, 5.430573
824.9097, 0.9449160
825.3918, 7.504669
825.8740, 8.653839
826.3561, 6.092682
826.8382, 5.456909
827.3203, 7.008179
827.8024, 9.968781
828.2845, 18.48862
828.7667, 23.24884
829.2488, 16.44452
829.7309, 6.781830
830.2130, 5.575073
830.6951, 13.47958
831.1772, 19.63708
831.6594, 23.06528
832.1415, 22.66492
832.6236, 11.53702
833.1057, 0.7626340
833.5878, 4.731476
834.0699, 19.55499
834.5521, 29.18991
835.0342, 25.97238
835.5163, 18.80487
835.9984, 13.61145
836.4805, 11.16272
836.9626, 15.34634
837.4448, 23.96295
837.9269, 25.72110
838.4090, 17.83167
838.8911, 9.596283
839.3732, 11.98792
839.8553, 20.89169
840.3375, 19.25253
840.8196, 6.764313
841.3017, 2.5451999E-02
841.7838, 2.461731
842.2659, 7.820618
842.7480, 12.50937
843.2302, 16.11008
843.7123, 17.29358
844.1944, 14.90948
844.6765, 3.542419
845.1586, 16.20728
845.6407, 23.25079
846.1229, 25.40762
846.6050, 6.305878
847.0871, 14.21323
847.5692, 10.99802
848.0513, 7.068420
848.5334, 18.64874
849.0156, 2.148529
849.4977, 13.70563
849.9798, 14.10120
850.4619, 19.59912
850.9440, 14.01712
851.4261, 11.85187
851.9083, 20.75885
852.3904, 23.53152
852.8725, 16.66541
853.3546, 22.47339
853.8367, 5.637299
854.3188, 8.672180
854.8010, 20.29898
855.2831, 14.03012
855.7652, 20.00299
856.2473, 21.20010
856.7294, 1.138580
857.2115, 18.20352
857.6937, 10.11667
858.1758, 12.19510
858.6579, 13.91861
859.1400, 16.47916
859.6221, 20.75134
860.1042, 24.47015
860.5864, 24.13254
861.0685, 9.322998
861.5506, 21.94855
862.0327, 28.94617
862.5148, 30.61368
862.9969, 11.00684
863.4791, 18.85800
863.9612, 15.69876
864.4433, 12.08649
864.9254, 23.79745
865.4075, 7.269440
865.8896, 18.72491
866.3718, 18.98901
866.8539, 24.33655
867.3360, 18.56128
867.8181, 16.27197
868.3002, 25.11700
868.7823, 27.84229
869.2645, 20.92297
869.7466, 26.66113
870.2287, 9.754730
870.7108, 12.73883
871.1929, 24.30161
871.6750, 17.94479
872.1572, 23.90756
872.6393, 25.17078
873.1214, 5.099579
873.6035, 22.12875
874.0856, 23.12265
874.5677, 25.64243
875.0499, 32.69019
875.5320, 34.90332
876.0141, 33.74643
876.4962, 29.60880
876.9783, 21.51862
877.4604, 7.460266
877.9426, 5.345184
878.4247, 1.905853
878.9068, 12.80905
879.3889, 20.03406
879.8710, 18.84332
880.3531, 15.22510
880.8353, 11.37839
881.3174, 8.453156
881.7995, 7.707733
882.2816, 9.092682
882.7637, 12.83859
883.2458, 19.58722
883.7280, 22.25192
884.2101, 17.77136
884.6922, 13.77866
885.1743, 15.73331
885.6564, 20.55182
886.1385, 21.32321
886.6207, 16.92679
887.1028, 13.63055
887.5849, 13.29819
888.0670, 10.98911
888.5491, 2.076477
889.0313, 6.335907
889.5134, 7.485687
889.9955, 2.790192
890.4776, 1.380920
890.9597, 4.518005
891.4418, 7.228546
891.9240, 8.760315
892.4061, 10.78006
892.8882, 17.55539
893.3703, 23.56091
893.8524, 18.38977
894.3345, 2.076447
894.8167, 7.851318
895.2988, 1.069214
895.7809, 11.50952
896.2630, 14.94647
896.7451, 14.74423
897.2272, 13.60168
897.7094, 12.07248
898.1915, 9.868073
898.6736, 6.866638
899.1557, 5.258514
899.6378, 8.655518
900.1199, 13.05756
900.6021, 12.59634
901.0842, 9.530914
901.5663, 10.17914
902.0484, 14.40210
902.5305, 14.21127
903.0126, 3.863251
903.4948, 8.201691
903.9769, 8.226227
904.4590, 0.5182190
904.9411, 6.945038
905.4232, 10.59363
905.9053, 10.32175
906.3875, 5.723907
906.8696, 0.9575810
907.3517, 0.1294860
907.8338, 2.153839
908.3159, 3.636597
908.7980, 4.569458
909.2802, 5.904449
909.7623, 7.795837
910.2444, 10.00104
910.7265, 12.84961
911.2086, 14.33176
911.6907, 10.62952
912.1729, 1.889130
912.6550, 9.8511003E-02
913.1371, 7.811981
913.6192, 12.27295
914.1013, 9.426941
914.5834, 5.748840
915.0656, 5.962830
915.5477, 8.017242
916.0298, 6.878601
916.5119, 0.8926700
916.9940, 2.077759
917.4761, 1.082703
917.9583, 1.634827
918.4404, 8.248566
918.9225, 14.10562
919.4046, 14.63733
919.8867, 11.24936
920.3688, 9.151062
920.8510, 8.356415
921.3331, 9.687531
921.8152, 15.75977
922.2973, 21.09937
922.7794, 22.50992
923.2615, 22.27875
923.7437, 23.81705
924.2258, 26.80499
924.7079, 26.92441
925.1900, 21.42883
925.6721, 15.29590
926.1542, 8.885437
926.6364, 4.280731
927.1185, 4.297180
927.6006, 6.888397
928.0827, 7.823456
928.5648, 6.520569
929.0469, 7.642365
929.5291, 17.39926
930.0112, 26.37878
930.4933, 26.92487
930.9754, 23.08347
931.4575, 19.09244
931.9396, 15.47958
932.4218, 11.15112
932.9039, 5.753082
933.3860, 2.620758
933.8681, 6.943024
934.3502, 13.27856
934.8323, 13.53290
935.3145, 10.76672
935.7966, 12.51260
936.2787, 18.63260
936.7608, 20.25162
937.2429, 12.28479
937.7250, 3.877045
938.2072, 8.195313
938.6893, 19.55789
939.1714, 26.70471
939.6535, 29.02716
940.1356, 22.16565
940.6177, 6.675690
941.0999, 2.478455
941.5820, 6.235352
942.0641, 21.96741
942.5462, 24.24426
943.0283, 15.90201
943.5104, 11.43155
943.9926, 11.25253
944.4747, 13.19455
944.9568, 16.69022
945.4389, 17.95883
945.9210, 12.86703
946.4031, 4.767181
946.8853, 2.965393
947.3674, 7.061737
947.8495, 16.16327
948.3316, 31.14673
948.8137, 36.23416
949.2958, 23.46918
949.7780, 8.787140
950.2601, 12.30829
950.7422, 29.56982
951.2243, 35.98343
951.7064, 29.67960
952.1885, 23.03409
952.6707, 16.10077
953.1528, 12.84741
953.6349, 15.48810
954.1170, 19.81644
954.5991, 19.90720
955.0812, 16.01010
955.5634, 14.65393
956.0455, 16.96344
956.5276, 18.04568
957.0097, 15.57474
957.4918, 15.88321
957.9739, 25.22269
958.4561, 36.21283
958.9382, 35.88052
959.4203, 23.13269
959.9024, 14.80817
960.3845, 14.30039
960.8666, 11.06000
961.3488, 2.199829
961.8309, 10.75436
962.3130, 2.897614
962.7951, 13.15256
963.2772, 24.17365
963.7593, 29.84280
964.2415, 32.62296
964.7236, 30.68826
965.2057, 28.48257
965.6878, 28.05423
966.1699, 26.30566
966.6520, 18.13165
967.1342, 8.347076
967.6163, 7.660583
968.0984, 18.79208
968.5805, 25.45660
969.0626, 25.42166
969.5447, 22.83099
970.0269, 14.90717
970.5090, 8.217285
970.9911, 8.480927
971.4732, 13.84912
971.9553, 19.77679
972.4374, 27.03159
972.9196, 30.57645
973.4017, 29.11084
973.8838, 24.66022
974.3659, 12.49362
974.8480, 2.070465
975.3301, 4.110657
975.8123, 15.09985
976.2944, 23.01477
976.7765, 25.27576
977.2586, 26.66119
977.7407, 29.66516
978.2228, 30.23734
978.7050, 21.41205
979.1871, 13.33279
979.6692, 19.88525
980.1513, 36.28052
980.6334, 43.42206
981.1155, 34.82434
981.5977, 24.40402
982.0798, 10.70917
982.5619, 2.604309
983.0440, 8.486084
983.5261, 19.42099
984.0082, 27.85452
984.4904, 32.16000
984.9725, 29.87695
985.4546, 16.88202
985.9367, 7.713531
986.4188, 10.61914
986.9009, 15.38409
987.3831, 16.65176
987.8652, 16.19733
988.3473, 14.38107
988.8294, 12.62326
989.3115, 15.40170
989.7936, 27.04184
990.2758, 34.41980
990.7579, 28.98898
991.2400, 20.97266
991.7221, 14.71777
992.2042, 11.19785
992.6863, 12.02505
993.1685, 16.36447
993.6506, 21.02481
994.1327, 25.46851
994.6148, 26.87106
995.0969, 19.97870
995.5790, 13.74991
996.0612, 15.84399
996.5433, 21.28055
997.0254, 23.36905
997.5075, 22.11929
997.9896, 22.09329
998.4717, 25.95010
998.9539, 27.66785
999.4360, 21.91211
999.9181, 16.57706
1000.400, 19.68427
1000.882, 25.05685
1001.364, 23.44696
1001.847, 15.81674
1002.329, 11.36346
1002.811, 15.04321
1003.293, 16.55276
1003.775, 6.279541
1004.257, 2.653839
1004.739, 2.730408
1005.221, 12.30472
1005.703, 11.17532
1006.186, 1.006409
1006.668, 4.177887
1007.150, 2.164764
1007.632, 7.541138
1008.114, 4.226074
1008.596, 0.3393860
1009.078, 0.5470580
1009.560, 4.102295
1010.043, 12.86426
1010.525, 23.90656
1011.007, 26.51199
1011.489, 13.91824
1011.971, 5.796631
1012.453, 15.06357
1012.935, 26.22226
1013.417, 31.32803
1013.899, 32.13989
1014.382, 30.14780
1014.864, 25.77954
1015.346, 20.39560
1015.828, 13.10211
1016.310, 10.13760
1016.792, 19.65781
1017.274, 27.32764
1017.756, 24.52972
1018.239, 16.60950
1018.721, 6.531433
1019.203, 3.164185
1019.685, 6.359344
1020.167, 1.102753
1020.649, 7.290894
1021.131, 7.330566
1021.613, 5.979828
1022.095, 4.565063
1022.578, 3.516632
1023.060, 4.121063
1023.542, 5.162323
1024.024, 2.529449
1024.506, 5.913818
1024.988, 8.807770
1025.470, 2.299561
1025.952, 12.25946
1026.435, 14.87503
1026.917, 14.60938
1027.399, 14.05841
1027.881, 13.78232
1028.363, 14.06824
1028.845, 14.78757
1029.327, 17.72321
1029.809, 29.13120
1030.292, 34.33734
1030.774, 23.50623
1031.256, 11.32785
1031.738, 6.864319
1032.220, 8.372925
1032.702, 13.73172
1033.184, 23.69458
1033.666, 27.61703
1034.148, 18.18552
1034.630, 11.77087
1035.113, 13.53018
1035.595, 16.18051
1036.077, 15.44315
1036.559, 13.25394
1037.041, 13.14429
1037.523, 15.28992
1038.005, 14.40759
1038.487, 5.416779
1038.970, 1.617371
1039.452, 7.786316
1039.934, 14.06808
1040.416, 16.79980
1040.898, 16.86722
1041.380, 14.19498
1041.862, 9.253052
1042.344, 7.476471
1042.826, 10.76395
1043.309, 13.21698
1043.791, 15.73886
1044.273, 14.95786
1044.755, 6.318817
1045.237, 1.315857
1045.719, 2.619171
1046.201, 14.82736
1046.683, 19.53052
1047.166, 13.51263
1047.648, 10.92847
1048.130, 12.03445
1048.612, 17.26163
1049.094, 30.21198
1049.576, 37.72168
1050.058, 25.99023
1050.540, 4.108582
1051.022, 2.137024
1051.505, 9.390717
1051.987, 15.24478
1052.469, 14.77072
1052.951, 11.96338
1053.433, 7.187073
1053.915, 3.186523
1054.397, 1.652527
1054.879, 2.545624
1055.361, 6.563202
1055.844, 12.93408
1056.326, 14.10187
1056.808, 10.10211
1057.290, 7.605194
1057.772, 7.758636
1058.254, 8.596222
1058.736, 9.171722
1059.218, 8.864899
1059.701, 5.989594
1060.183, 2.251068
1060.665, 4.126190
1061.147, 10.59137
1061.629, 17.03821
1062.111, 22.17917
1062.593, 22.94806
1063.075, 17.92291
1063.557, 13.41724
1064.040, 16.73099
1064.522, 21.44424
1065.004, 12.62674
1065.486, 1.850372
1065.968, 1.346039
1066.450, 17.83649
1066.932, 27.31818
1067.414, 24.87778
1067.896, 18.82803
1068.379, 13.97293
1068.861, 11.18533
1069.343, 13.96310
1069.825, 17.50174
1070.307, 13.90112
1070.789, 6.325775
1071.271, 0.5421450
1071.753, 4.300079
1072.236, 0.7604060
1072.718, 18.96515
1073.200, 33.72214
1073.682, 31.52975
1074.164, 22.52469
1074.646, 9.127075
1075.128, 1.684387
1075.610, 1.094269
1076.093, 13.09421
1076.575, 20.66739
1077.057, 19.75076
1077.539, 19.23584
1078.021, 26.21777
1078.503, 31.11581
1078.985, 27.01199
1079.467, 21.81042
1079.949, 23.45230
1080.432, 27.38400
1080.914, 24.59506
1081.396, 14.53775
1081.878, 7.097412
1082.360, 4.514832
1082.842, 3.015564
1083.324, 3.629761
1083.806, 4.464233
1084.288, 5.275574
1084.771, 5.728210
1085.253, 5.513672
1085.735, 4.632721
1086.217, 2.802734
1086.699, 1.920135
1087.181, 2.169525
1087.663, 4.685364
1088.145, 10.96118
1088.628, 16.14282
1089.110, 17.20514
1089.592, 10.26541
1090.074, 0.3344120
1090.556, 4.966797
1091.038, 3.489777
1091.520, 1.109558
1092.002, 9.671448
1092.484, 15.94968
1092.967, 19.01974
1093.449, 18.58340
1093.931, 13.82443
1094.413, 9.235626
1094.895, 10.88644
1095.377, 16.95084
1095.859, 21.96930
1096.341, 25.46918
1096.823, 21.73050
1097.306, 11.50269
1097.788, 4.862762
1098.270, 5.081390
1098.752, 9.657501
1099.234, 17.24539
1099.716, 25.43076
1100.198, 31.03745
1100.680, 34.26819
1101.163, 34.79755
1101.645, 33.50522
1102.127, 32.35556
1102.609, 31.68335
1103.091, 30.17819
1103.573, 27.48984
1104.055, 27.50259
1104.537, 38.89163
1105.020, 48.74652
1105.502, 43.24435
1105.984, 30.74457
1106.466, 17.97775
1106.948, 8.101990
1107.430, 6.253601
1107.912, 13.01279
1108.394, 19.84943
1108.876, 23.69635
1109.359, 26.32013
1109.841, 28.23932
1110.323, 28.57086
1110.805, 27.45160
1111.287, 23.94043
1111.769, 12.71036
1112.251, 2.814331
1112.733, 4.247742
1113.215, 19.91568
1113.698, 33.54431
1114.180, 30.65625
1114.662, 24.94073
1115.144, 17.69446
1115.626, 10.66397
1116.108, 3.897675
1116.590, 0.6639710
1117.072, 1.693420
1117.555, 11.03131
1118.037, 13.09396
1118.519, 5.969147
1119.001, 2.440369
1119.483, 4.158875
1119.965, 9.223755
1120.447, 17.54712
1120.929, 23.64639
1121.411, 20.86185
1121.894, 14.08807
1122.376, 17.92252
1122.858, 29.47748
1123.340, 34.08002
1123.822, 31.88379
1124.304, 23.53821
1124.786, 10.74792
1125.268, 3.478790
1125.750, 7.591095
1126.233, 15.58914
1126.715, 21.48224
1127.197, 24.13177
1127.679, 18.18945
1128.161, 10.22641
1128.643, 12.71689
1129.125, 22.20773
1129.607, 25.27814
1130.090, 19.95120
1130.572, 19.41107
1131.054, 36.94058
1131.536, 49.16565
1132.018, 38.20123
1132.500, 24.19714
1132.982, 21.57089
1133.464, 23.36456
1133.947, 18.74188
1134.429, 9.658295
1134.911, 7.362183
1135.393, 15.90103
1135.875, 21.89960
1136.357, 23.24295
1136.839, 23.44217
1137.321, 21.87564
1137.803, 21.05872
1138.286, 22.54691
1138.768, 25.51395
1139.250, 29.13388
1139.732, 33.13165
1140.214, 35.33350
1140.696, 36.02783
1141.178, 31.09393
1141.660, 19.26981
1142.142, 14.00574
1142.625, 19.99557
1143.107, 26.55530
1143.589, 25.05984
1144.071, 21.02780
1144.553, 27.24692
1145.035, 37.68005
1145.517, 30.79553
1145.999, 12.48203
1146.482, 0.1912540
1146.964, 3.736084
1147.446, 1.527130
1147.928, 5.553345
1148.410, 12.49985
1148.892, 15.65298
1149.374, 18.25916
1149.856, 24.92664
1150.339, 30.43613
1150.821, 25.77158
1151.303, 18.69861
1151.785, 24.06857
1152.267, 39.12909
1152.749, 44.70450
1153.231, 33.06235
1153.713, 24.25635
1154.195, 23.86209
1154.677, 25.45404
1155.160, 31.12451
1155.642, 33.65518
1156.124, 25.72589
1156.606, 15.05173
1157.088, 11.62921
1157.570, 15.33661
1158.052, 18.13480
1158.534, 19.47910
1159.017, 23.28717
1159.499, 30.98486
1159.981, 32.43430
1160.463, 23.74622
1160.945, 17.11774
1161.427, 22.18381
1161.909, 31.65717
1162.391, 32.85446
1162.874, 28.13647
1163.356, 23.37042
1163.838, 19.95172
1164.320, 25.60965
1164.802, 37.51727
1165.284, 41.18143
1165.766, 32.79413
1166.248, 23.46201
1166.730, 20.35788
1167.213, 19.29977
1167.695, 17.22125
1168.177, 15.25809
1168.659, 12.69803
1169.141, 12.14371
1169.623, 19.69989
1170.105, 31.67868
1170.587, 35.53635
1171.069, 28.22510
1171.552, 23.62531
1172.034, 26.07874
1172.516, 28.34250
1172.998, 30.56812
1173.480, 30.46567
1173.962, 25.25751
1174.444, 19.83032
1174.926, 19.74625
1175.409, 23.21408
1175.891, 23.66367
1176.373, 20.67398
1176.855, 21.76852
1177.337, 27.17288
1177.819, 27.03867
1178.301, 19.71725
1178.783, 13.52313
1179.266, 12.49969
1179.748, 14.19650
1180.230, 17.09372
1180.712, 19.17322
1181.194, 16.29102
1181.676, 10.85846
1182.158, 3.976532
1182.640, 0.6630250
1183.122, 7.589203
1183.604, 25.29227
1184.087, 31.60925
1184.569, 17.14267
1185.051, 4.991058
1185.533, 6.752350
1186.015, 11.66064
1186.497, 16.89383
1186.979, 21.96918
1187.461, 28.02704
1187.944, 32.64697
1188.426, 31.34818
1188.908, 25.41446
1189.390, 22.84158
1189.872, 24.92795
1190.354, 25.86127
1190.836, 25.69443
1191.318, 23.51199
1191.801, 18.48203
1192.283, 16.56219
1192.765, 21.69598
1193.247, 26.91058
1193.729, 22.33414
1194.211, 13.16733
1194.693, 13.40979
1195.175, 18.90363
1195.657, 17.72601
1196.140, 11.92523
1196.622, 8.161865
1197.104, 8.186829
1197.586, 13.14746
1198.068, 24.36600
1198.550, 31.86899
1199.032, 25.21365
1199.514, 18.50320
1199.996, 20.77701
1200.479, 25.12527
1200.961, 27.58496
1201.443, 27.62457
1201.925, 24.05762
1202.407, 17.49969
1202.889, 12.55624
1203.371, 9.176147
1203.853, 7.763977
1204.336, 8.587250
1204.818, 10.56070
1205.300, 13.54932
1205.782, 17.84457
1206.264, 24.05652
1206.746, 28.44287
1207.228, 25.57504
1207.710, 19.54510
1208.193, 22.25928
1208.675, 29.68271
1209.157, 28.98978
1209.639, 22.71786
1210.121, 20.23782
1210.603, 22.23526
1211.085, 23.58908
1211.567, 22.28110
1212.049, 19.51501
1212.531, 16.00714
1213.014, 11.25552
1213.496, 1.302399
1213.978, 8.245056
1214.460, 7.387665
1214.942, 28.42929
1215.424, 33.15555
1215.906, 24.48785
1216.388, 15.72989
1216.871, 6.366302
1217.353, 4.7545999E-02
1217.835, 3.971527
1218.317, 1.857452
1218.799, 8.101501
1219.281, 14.29706
1219.763, 11.64514
1220.245, 7.492249
1220.728, 8.305298
1221.210, 12.56113
1221.692, 20.47775
1222.174, 28.08707
1222.656, 24.74988
1223.138, 15.83997
1223.620, 12.34735
1224.102, 14.07196
1224.584, 15.70837
1225.067, 15.95664
1225.549, 17.90079
1226.031, 27.02100
1226.513, 29.75104
1226.995, 12.55771
1227.477, 0.3143620
1227.959, 6.146820
1228.441, 16.34079
1228.923, 17.79178
1229.406, 14.01971
1229.888, 18.00125
1230.370, 26.59406
1230.852, 25.85388
1231.334, 13.35425
1231.816, 14.57272
1232.298, 27.80209
1232.780, 33.38715
1233.263, 26.76535
1233.745, 16.66461
1234.227, 7.813995
1234.709, 2.484344
1235.191, 4.613342
1235.673, 9.606628
1236.155, 13.02347
1236.637, 16.01126
1237.120, 13.03882
1237.602, 7.977722
1238.084, 8.614807
1238.566, 13.48962
1239.048, 13.25269
1239.530, 3.617004
1240.012, 0.8242490
1240.494, 3.985931
1240.976, 7.485748
1241.458, 7.579834
1241.941, 8.691620
1242.423, 9.616058
1242.905, 12.25702
1243.387, 8.612732
1243.869, 0.0000000E+00
##END=



