##NAMES=Margarite
##RRUFFID=R060839
##IDEAL CHEMISTRY=CaAl_2_(Si_2_Al_2_)O_10_(OH)_2_
##LOCALITY=Old Emery mine, Chester, Massachusetts, USA
##OWNER=RRUFF
##SOURCE=Michael Scott
##DESCRIPTION=Pale lilac mica associated with lilac colored axinite
##STATUS=The identification of this mineral has been confirmed by X-ray diffraction and chemical analysis
##URL=rruff.info/R060839
##MEASURED CHEMISTRY=(Ca_0.83_Na_0.17_)_Σ=1_(Al_1.97_Fe^3+^_0.02_Mg_0.01_)_Σ=2_(Si_2.18_Al_1.82_)O_10_(OH)_2_
179.8635, 0.0000000E+00
180.3457, 0.3437500
180.8278, 0.4345700
181.3099, 37.62305
181.7920, 68.89062
182.2741, 60.29297
182.7562, 35.03809
183.2384, 14.79199
183.7205, 1.278320
184.2026, 0.2900390
184.6847, 24.98926
185.1668, 84.77344
185.6489, 133.7236
186.1311, 138.1045
186.6132, 124.8770
187.0953, 120.3164
187.5774, 134.6494
188.0595, 155.2188
188.5416, 163.3662
189.0238, 156.3682
189.5059, 150.0264
189.9880, 157.2529
190.4701, 166.0791
190.9522, 161.9834
191.4343, 135.9092
191.9165, 105.8721
192.3986, 96.50098
192.8807, 110.0684
193.3628, 134.8623
193.8449, 176.9287
194.3270, 224.1592
194.8092, 267.1328
195.2913, 305.5908
195.7734, 334.4893
196.2555, 341.0879
196.7376, 317.8252
197.2197, 307.2607
197.7019, 336.9258
198.1840, 381.3594
198.6661, 421.7539
199.1482, 454.5059
199.6303, 477.8672
200.1124, 488.4004
200.5946, 485.0273
201.0767, 474.8799
201.5588, 449.0098
202.0409, 422.5850
202.5230, 410.9307
203.0051, 420.4512
203.4873, 432.5234
203.9694, 422.6719
204.4515, 387.4619
204.9336, 352.9580
205.4157, 319.5391
205.8978, 294.4473
206.3800, 288.4014
206.8621, 305.8184
207.3442, 326.5166
207.8263, 321.1523
208.3084, 285.1621
208.7905, 268.6729
209.2727, 298.9736
209.7548, 347.0781
210.2369, 398.0898
210.7190, 451.1748
211.2011, 489.5400
211.6832, 483.8760
212.1654, 448.6914
212.6475, 432.1621
213.1296, 464.9287
213.6117, 518.2188
214.0938, 555.0938
214.5760, 570.5381
215.0581, 577.3887
215.5402, 588.4141
216.0223, 612.4092
216.5044, 638.3828
216.9865, 651.1533
217.4687, 658.9658
217.9508, 669.7451
218.4329, 683.7783
218.9150, 702.4238
219.3971, 727.4092
219.8792, 758.6670
220.3614, 792.3809
220.8435, 826.7871
221.3256, 865.7207
221.8077, 920.6045
222.2898, 989.0752
222.7719, 1039.982
223.2541, 1042.129
223.7362, 1005.203
224.2183, 980.3535
224.7004, 984.1709
225.1825, 985.9844
225.6646, 964.3516
226.1468, 920.8486
226.6289, 863.1055
227.1110, 785.5654
227.5931, 695.9111
228.0752, 617.7158
228.5573, 559.3271
229.0395, 516.0723
229.5216, 487.4111
230.0037, 472.7158
230.4858, 451.9434
230.9679, 410.6045
231.4500, 358.5273
231.9322, 312.4131
232.4143, 266.6543
232.8964, 233.9014
233.3785, 234.1836
233.8606, 254.4404
234.3427, 264.0977
234.8249, 242.3242
235.3070, 208.6895
235.7891, 195.4414
236.2712, 207.3799
236.7533, 216.4795
237.2354, 196.4463
237.7176, 160.7305
238.1997, 136.0967
238.6818, 137.3037
239.1639, 146.2617
239.6460, 143.8916
240.1281, 129.9727
240.6103, 112.7734
241.0924, 91.10352
241.5745, 71.40625
242.0566, 69.65039
242.5387, 115.2734
243.0208, 149.4629
243.5030, 105.4453
243.9851, 4.652344
244.4672, 81.72266
244.9493, 63.58789
245.4314, 12.68945
245.9135, 49.99023
246.3957, 33.68164
246.8778, 3.953125
247.3599, 22.26758
247.8420, 45.18359
248.3241, 66.73438
248.8062, 90.59180
249.2884, 109.5449
249.7705, 106.3398
250.2526, 72.84375
250.7347, 42.37891
251.2168, 27.92969
251.6989, 24.68164
252.1811, 27.89453
252.6632, 39.37695
253.1453, 46.12109
253.6274, 20.07812
254.1095, 50.19141
254.5916, 106.1641
255.0738, 128.6855
255.5559, 134.0977
256.0380, 142.4355
256.5201, 158.3125
257.0022, 173.2832
257.4843, 172.5703
257.9665, 144.2832
258.4486, 151.1230
258.9307, 222.0527
259.4128, 311.3828
259.8949, 387.6113
260.3770, 445.5352
260.8592, 485.9688
261.3413, 505.6191
261.8234, 498.9902
262.3055, 519.1543
262.7876, 591.0566
263.2697, 664.8789
263.7519, 707.8496
264.2340, 726.1465
264.7161, 751.4883
265.1982, 811.2695
265.6803, 904.0293
266.1624, 952.3145
266.6446, 922.8223
267.1267, 891.6797
267.6088, 886.1445
268.0909, 895.1934
268.5730, 894.4609
269.0551, 869.0762
269.5373, 826.0059
270.0194, 796.5098
270.5015, 827.5781
270.9836, 817.6699
271.4657, 735.5938
271.9478, 615.1328
272.4300, 491.5059
272.9121, 378.7578
273.3942, 277.4609
273.8763, 185.6426
274.3584, 93.91016
274.8405, 32.14453
275.3227, 21.66797
275.8048, 24.96094
276.2869, 9.068359
276.7690, 31.90234
277.2511, 74.27539
277.7332, 84.00000
278.2154, 50.42578
278.6975, 19.55469
279.1796, 7.035156
279.6617, 31.00977
280.1438, 57.33594
280.6259, 83.47070
281.1081, 98.63086
281.5902, 89.78711
282.0723, 56.30664
282.5544, 25.74609
283.0365, 16.90039
283.5186, 37.68164
284.0008, 8.083984
284.4829, 53.20703
284.9650, 104.9160
285.4471, 122.2324
285.9292, 111.3574
286.4113, 90.77734
286.8935, 53.24805
287.3756, 21.61914
287.8577, 4.310547
288.3398, 1.085938
288.8219, 4.976563
289.3040, 27.91406
289.7862, 53.77539
290.2683, 53.95703
290.7504, 21.60742
291.2325, 17.36133
291.7146, 90.19727
292.1967, 190.4570
292.6789, 261.2988
293.1610, 290.8223
293.6431, 308.2695
294.1252, 332.7109
294.6073, 363.3672
295.0894, 394.7148
295.5716, 421.3828
296.0537, 453.7031
296.5358, 503.5566
297.0179, 570.1191
297.5000, 648.5723
297.9821, 744.3086
298.4643, 847.9043
298.9464, 942.9004
299.4285, 1024.908
299.9106, 1103.297
300.3927, 1185.729
300.8748, 1271.691
301.3570, 1370.568
301.8391, 1487.459
302.3212, 1608.072
302.8033, 1734.592
303.2854, 1868.055
303.7675, 1989.998
304.2497, 2085.527
304.7318, 2155.906
305.2139, 2234.781
305.6960, 2337.029
306.1781, 2432.078
306.6602, 2502.395
307.1424, 2556.885
307.6245, 2616.738
308.1066, 2694.240
308.5887, 2782.008
309.0708, 2857.133
309.5529, 2911.896
310.0351, 2960.332
310.5172, 3015.588
310.9993, 3057.920
311.4814, 3069.816
311.9635, 3047.092
312.4456, 2993.523
312.9278, 2915.797
313.4099, 2805.295
313.8920, 2692.301
314.3741, 2572.494
314.8562, 2454.807
315.3383, 2346.178
315.8205, 2245.324
316.3026, 2146.445
316.7847, 2049.180
317.2668, 1953.447
317.7489, 1821.891
318.2310, 1620.014
318.7132, 1420.875
319.1953, 1232.971
319.6774, 1065.672
320.1595, 932.3770
320.6416, 846.1094
321.1237, 789.9160
321.6059, 726.1582
322.0880, 651.1191
322.5701, 576.7441
323.0522, 490.0469
323.5343, 413.4434
324.0164, 373.7812
324.4986, 380.6250
324.9807, 400.8262
325.4628, 408.9648
325.9449, 404.4434
326.4270, 377.6484
326.9091, 313.3027
327.3913, 240.8848
327.8734, 191.3555
328.3555, 164.2559
328.8376, 142.7773
329.3197, 113.1191
329.8018, 86.30078
330.2840, 89.06250
330.7661, 129.4707
331.2482, 165.8789
331.7303, 158.8789
332.2124, 112.6426
332.6945, 76.56250
333.1767, 52.61328
333.6588, 41.10938
334.1409, 45.40625
334.6230, 61.57617
335.1051, 80.37500
335.5872, 98.41602
336.0694, 120.1074
336.5515, 154.3691
337.0336, 200.8867
337.5157, 256.6426
337.9979, 321.7754
338.4800, 396.3613
338.9621, 481.9141
339.4442, 578.7148
339.9263, 683.7832
340.4084, 792.4980
340.8906, 909.6367
341.3727, 1017.496
341.8548, 1105.482
342.3369, 1196.932
342.8190, 1314.135
343.3011, 1450.812
343.7833, 1577.898
344.2654, 1669.643
344.7475, 1727.410
345.2296, 1789.447
345.7117, 1869.469
346.1938, 1935.807
346.6760, 1979.746
347.1581, 2005.217
347.6402, 2017.885
348.1223, 2020.547
348.6044, 2011.078
349.0865, 1988.848
349.5687, 1957.262
350.0508, 1897.326
350.5329, 1790.436
351.0150, 1659.936
351.4971, 1513.682
351.9792, 1352.520
352.4614, 1207.410
352.9435, 1117.396
353.4256, 1065.080
353.9077, 978.9082
354.3898, 836.8105
354.8719, 688.9258
355.3541, 586.8008
355.8362, 520.5645
356.3183, 451.9531
356.8004, 361.9785
357.2825, 273.6152
357.7646, 209.1562
358.2468, 167.9590
358.7289, 141.4180
359.2110, 129.4219
359.6931, 125.9512
360.1752, 104.4629
360.6573, 39.66602
361.1395, 8.708984
361.6216, 13.54297
362.1037, 2.976563
362.5858, 4.236328
363.0679, 20.66016
363.5500, 43.74805
364.0322, 18.88086
364.5143, 89.04492
364.9964, 155.0195
365.4785, 157.1484
365.9606, 142.8184
366.4427, 130.8945
366.9249, 125.8086
367.4070, 127.2891
367.8891, 132.6172
368.3712, 144.3613
368.8533, 187.1758
369.3354, 288.4043
369.8176, 382.0664
370.2997, 448.9570
370.7818, 500.7656
371.2639, 549.2188
371.7460, 597.9375
372.2281, 647.9492
372.7103, 700.6797
373.1924, 755.7500
373.6745, 815.7305
374.1566, 883.4004
374.6387, 954.0879
375.1208, 1022.518
375.6030, 1089.125
376.0851, 1160.832
376.5672, 1240.029
377.0493, 1327.145
377.5314, 1423.330
378.0135, 1528.842
378.4957, 1642.326
378.9778, 1767.695
379.4599, 1900.809
379.9420, 2022.875
380.4241, 2104.562
380.9063, 2204.848
381.3884, 2360.443
381.8705, 2555.346
382.3526, 2758.078
382.8347, 2955.957
383.3168, 3152.885
383.7990, 3354.619
384.2811, 3571.982
384.7632, 3775.312
385.2453, 3952.252
385.7274, 4125.107
386.2095, 4306.330
386.6917, 4498.162
387.1738, 4702.311
387.6559, 4925.586
388.1380, 5166.428
388.6201, 5350.266
389.1022, 5412.932
389.5844, 5496.744
390.0665, 5663.641
390.5486, 5859.844
391.0307, 6017.135
391.5128, 6110.496
391.9949, 6158.842
392.4771, 6185.371
392.9592, 6189.010
393.4413, 6180.576
393.9234, 6166.379
394.4055, 6134.195
394.8876, 6079.627
395.3698, 6001.994
395.8519, 5897.084
396.3340, 5750.676
396.8161, 5580.367
397.2982, 5422.598
397.7803, 5281.574
398.2625, 5114.039
398.7446, 4878.908
399.2267, 4594.910
399.7088, 4348.377
400.1909, 4169.555
400.6730, 3991.746
401.1552, 3794.867
401.6373, 3578.473
402.1194, 3328.486
402.6015, 3041.854
403.0836, 2757.775
403.5657, 2541.252
404.0479, 2428.939
404.5300, 2274.736
405.0121, 2030.121
405.4942, 1794.551
405.9763, 1625.822
406.4584, 1511.416
406.9406, 1408.676
407.4227, 1287.371
407.9048, 1153.191
408.3869, 1031.463
408.8690, 922.2441
409.3511, 829.7305
409.8333, 768.4082
410.3154, 718.1055
410.7975, 652.8359
411.2796, 564.5410
411.7617, 484.1270
412.2438, 444.2012
412.7260, 439.3633
413.2081, 437.0527
413.6902, 432.3945
414.1723, 428.7969
414.6544, 424.5215
415.1365, 422.6992
415.6187, 434.7227
416.1008, 472.1406
416.5829, 512.3984
417.0650, 544.1426
417.5471, 566.5547
418.0292, 570.2090
418.5114, 546.9531
418.9935, 513.9375
419.4756, 508.9258
419.9577, 557.4570
420.4398, 587.9375
420.9219, 590.1328
421.4041, 579.1406
421.8862, 565.0469
422.3683, 549.5098
422.8504, 531.1660
423.3325, 508.1426
423.8146, 481.2578
424.2968, 458.8145
424.7789, 439.4336
425.2610, 427.2324
425.7431, 438.1133
426.2252, 449.0820
426.7073, 429.6719
427.1895, 370.2344
427.6716, 302.5840
428.1537, 267.6543
428.6358, 262.6758
429.1179, 241.2227
429.6000, 185.1797
430.0822, 130.3887
430.5643, 104.0371
431.0464, 102.4727
431.5285, 116.8340
432.0106, 144.7910
432.4927, 187.6562
432.9749, 256.9219
433.4570, 345.5352
433.9391, 421.6602
434.4212, 468.9160
434.9033, 498.7402
435.3854, 537.3027
435.8676, 587.6562
436.3497, 641.1602
436.8318, 704.7383
437.3139, 766.0879
437.7960, 814.8906
438.2781, 851.3047
438.7603, 884.6445
439.2424, 924.2324
439.7245, 967.7461
440.2066, 990.7051
440.6887, 977.3301
441.1708, 966.1562
441.6530, 970.8457
442.1351, 979.6230
442.6172, 979.2422
443.0993, 965.9473
443.5814, 949.4238
444.0635, 949.0137
444.5457, 958.4375
445.0278, 927.1758
445.5099, 832.1836
445.9920, 732.7168
446.4741, 689.8320
446.9562, 685.4688
447.4384, 658.9355
447.9205, 584.3652
448.4026, 498.8027
448.8847, 422.5645
449.3668, 355.7031
449.8489, 301.9707
450.3311, 264.2988
450.8132, 229.7070
451.2953, 171.8770
451.7774, 60.74414
452.2595, 0.6621090
452.7416, 29.80664
453.2238, 69.29492
453.7059, 68.16016
454.1880, 33.87891
454.6701, 1.169922
455.1522, 6.916016
455.6343, 1.683594
456.1165, 1.933594
456.5986, 8.128906
457.0807, 22.13281
457.5628, 49.24805
458.0449, 73.19922
458.5270, 79.41797
459.0092, 67.02148
459.4913, 51.75391
459.9734, 42.65625
460.4555, 37.94336
460.9376, 33.16406
461.4197, 27.79688
461.9019, 26.25391
462.3840, 32.62305
462.8661, 44.86328
463.3482, 54.50000
463.8303, 70.38867
464.3124, 71.86523
464.7946, 38.80273
465.2767, 6.041016
465.7588, 37.75586
466.2409, 50.06836
466.7230, 44.33398
467.2051, 17.52734
467.6873, 33.76562
468.1694, 58.47461
468.6515, 28.26367
469.1336, 2.345703
469.6157, 4.857422
470.0978, 17.16992
470.5800, 8.941406
471.0621, 32.67383
471.5442, 75.04883
472.0263, 70.89844
472.5084, 24.28711
472.9905, 3.615234
473.4727, 1.777344
473.9548, 17.34570
474.4369, 55.63867
474.9190, 105.7539
475.4011, 135.5430
475.8832, 119.9727
476.3654, 100.0254
476.8475, 102.5762
477.3296, 122.9688
477.8117, 149.4336
478.2938, 178.0977
478.7759, 207.6094
479.2581, 238.2812
479.7402, 273.4707
480.2223, 302.5469
480.7044, 320.2324
481.1865, 338.3242
481.6686, 368.9141
482.1508, 404.2070
482.6329, 423.2090
483.1150, 409.9492
483.5971, 387.6016
484.0792, 409.5391
484.5613, 484.5273
485.0435, 547.8750
485.5256, 584.8203
486.0077, 604.0938
486.4898, 609.8828
486.9719, 603.6191
487.4540, 602.8652
487.9362, 615.0391
488.4183, 635.0938
488.9004, 669.6777
489.3825, 711.6504
489.8646, 721.5469
490.3467, 674.5840
490.8289, 595.5625
491.3110, 543.9688
491.7931, 546.2422
492.2752, 533.1895
492.7573, 483.7969
493.2394, 436.1191
493.7216, 427.3926
494.2037, 446.2383
494.6858, 447.6074
495.1679, 395.5527
495.6500, 312.2227
496.1321, 268.1328
496.6143, 273.3516
497.0964, 282.0215
497.5785, 280.1172
498.0606, 279.2949
498.5427, 296.9297
499.0248, 331.6992
499.5070, 346.5488
499.9891, 300.8613
500.4712, 238.3672
500.9533, 219.6543
501.4355, 244.0215
501.9176, 276.6504
502.3997, 301.5898
502.8818, 316.8555
503.3639, 316.6426
503.8460, 286.1426
504.3282, 261.6621
504.8103, 245.4453
505.2924, 234.8594
505.7745, 230.4258
506.2566, 230.3105
506.7387, 229.8848
507.2209, 226.0352
507.7030, 219.3652
508.1851, 210.3906
508.6672, 198.1133
509.1493, 191.3926
509.6314, 188.6094
510.1136, 193.3242
510.5957, 216.8574
511.0778, 259.4062
511.5599, 287.0293
512.0420, 262.2383
512.5241, 226.4492
513.0062, 242.2832
513.4883, 303.9863
513.9705, 344.9395
514.4526, 323.8105
514.9347, 267.6348
515.4168, 248.9727
515.8989, 312.8750
516.3810, 347.3359
516.8632, 337.7031
517.3453, 313.0488
517.8274, 284.7754
518.3095, 259.5117
518.7916, 245.4355
519.2737, 247.4160
519.7559, 256.4102
520.2380, 237.0098
520.7201, 179.7695
521.2022, 145.5117
521.6843, 160.1855
522.1664, 196.9434
522.6486, 236.8887
523.1307, 282.7715
523.6128, 303.8555
524.0949, 256.6523
524.5770, 198.2734
525.0591, 191.6660
525.5413, 223.3105
526.0234, 242.3047
526.5055, 226.0410
526.9876, 191.6152
527.4697, 173.0801
527.9518, 178.8809
528.4340, 182.5625
528.9161, 187.4883
529.3982, 190.4434
529.8803, 184.6719
530.3624, 172.7051
530.8445, 164.3027
531.3267, 170.7207
531.8088, 183.3633
532.2909, 178.5078
532.7730, 161.1758
533.2551, 159.9609
533.7372, 193.1270
534.2194, 221.3203
534.7015, 189.1367
535.1836, 102.8184
535.6657, 52.15820
536.1478, 62.73438
536.6299, 93.95312
537.1121, 132.5996
537.5942, 174.4180
538.0763, 217.1445
538.5584, 259.7441
539.0405, 291.6152
539.5226, 294.1426
540.0048, 260.4141
540.4869, 248.6953
540.9690, 289.6953
541.4511, 313.4453
541.9332, 276.2930
542.4153, 214.2832
542.8975, 183.8164
543.3796, 206.3359
543.8617, 232.5117
544.3438, 217.0273
544.8259, 175.4102
545.3080, 145.8359
545.7902, 133.9766
546.2723, 134.2598
546.7544, 144.9355
547.2365, 164.4570
547.7186, 179.0039
548.2007, 198.0527
548.6829, 200.4883
549.1650, 165.4980
549.6471, 123.7715
550.1292, 102.0684
550.6113, 103.9590
551.0934, 120.0605
551.5756, 150.3535
552.0577, 185.5938
552.5398, 182.6191
553.0219, 127.9883
553.5040, 90.44141
553.9861, 109.2402
554.4683, 144.7578
554.9504, 138.4121
555.4325, 84.38086
555.9146, 57.53320
556.3967, 107.1816
556.8788, 173.1035
557.3610, 208.2031
557.8431, 212.6465
558.3252, 195.7773
558.8073, 160.7734
559.2894, 119.4082
559.7715, 95.86523
560.2537, 95.16797
560.7358, 98.78516
561.2179, 113.3984
561.7000, 125.5254
562.1821, 127.3906
562.6642, 122.8828
563.1464, 121.7090
563.6285, 130.8750
564.1106, 135.6152
564.5927, 118.8145
565.0748, 84.76953
565.5569, 46.44336
566.0391, 4.947266
566.5212, 31.11914
567.0033, 53.39453
567.4854, 62.42969
567.9675, 70.35742
568.4496, 79.09277
568.9318, 84.35840
569.4139, 86.95605
569.8960, 84.47852
570.3781, 71.33105
570.8602, 48.58594
571.3423, 26.66211
571.8245, 14.91406
572.3066, 10.97461
572.7887, 7.492188
573.2708, 5.447266
573.7529, 3.554688
574.2350, 33.38477
574.7172, 62.53125
575.1993, 51.35352
575.6814, 8.352539
576.1635, 37.07910
576.6456, 15.30664
577.1277, 76.65918
577.6099, 91.74609
578.0920, 71.46582
578.5741, 53.62891
579.0562, 55.14551
579.5383, 60.57227
580.0204, 35.32812
580.5026, 34.83887
580.9847, 66.62500
581.4668, 39.27637
581.9489, 3.290039
582.4310, 56.20605
582.9132, 104.8291
583.3953, 117.8213
583.8774, 73.69922
584.3596, 32.93555
584.8417, 52.15234
585.3238, 95.07617
585.8059, 89.39355
586.2880, 29.12891
586.7701, 24.07910
587.2523, 19.61426
587.7344, 26.72656
588.2165, 31.35645
588.6986, 69.16895
589.1807, 107.7900
589.6628, 11.25293
590.1450, 96.13965
590.6271, 126.5098
591.1092, 88.04102
591.5913, 43.69336
592.0734, 19.59570
592.5555, 15.97363
593.0377, 48.89062
593.5198, 107.9795
594.0019, 129.9795
594.4840, 92.04297
594.9661, 33.62988
595.4482, 5.637695
595.9304, 26.43848
596.4125, 22.85547
596.8946, 21.00293
597.3767, 66.84180
597.8588, 114.2217
598.3409, 152.7217
598.8231, 163.8936
599.3052, 147.6543
599.7873, 132.7285
600.2694, 155.1436
600.7515, 199.1104
601.2336, 203.2998
601.7158, 162.4502
602.1979, 130.2842
602.6800, 135.0615
603.1621, 153.4062
603.6442, 136.2041
604.1263, 65.30176
604.6085, 50.43066
605.0906, 169.6846
605.5727, 282.6396
606.0548, 294.9189
606.5369, 243.7451
607.0190, 207.2559
607.5012, 215.9697
607.9833, 242.3359
608.4654, 248.9521
608.9475, 236.5225
609.4296, 232.5303
609.9117, 238.6123
610.3939, 250.9131
610.8760, 274.3047
611.3581, 299.4697
611.8402, 307.3242
612.3223, 289.3486
612.8044, 276.5381
613.2866, 288.1650
613.7687, 300.2646
614.2508, 288.4521
614.7329, 257.4980
615.2150, 229.5703
615.6971, 217.1035
616.1793, 213.9424
616.6614, 203.9033
617.1435, 182.5938
617.6256, 188.2119
618.1077, 247.4961
618.5898, 300.2598
619.0720, 299.9316
619.5541, 266.0879
620.0362, 236.2588
620.5183, 204.2266
621.0004, 199.0137
621.4825, 271.8027
621.9647, 358.2422
622.4468, 361.7471
622.9289, 287.7148
623.4110, 227.5439
623.8931, 246.2012
624.3752, 314.3760
624.8574, 342.7930
625.3395, 319.5850
625.8216, 300.9834
626.3037, 300.6963
626.7858, 300.2275
627.2679, 283.7559
627.7501, 257.5527
628.2322, 240.9297
628.7143, 244.0410
629.1964, 251.1416
629.6785, 254.3369
630.1606, 253.7041
630.6428, 249.5684
631.1249, 242.1514
631.6070, 230.7500
632.0891, 211.7197
632.5712, 191.4092
633.0533, 206.3770
633.5355, 275.5713
634.0176, 325.5312
634.4997, 334.9248
634.9818, 334.1523
635.4639, 345.8818
635.9460, 366.6348
636.4282, 379.4902
636.9103, 371.2422
637.3924, 362.4570
637.8745, 362.2012
638.3566, 369.8789
638.8387, 394.8594
639.3209, 439.9551
639.8030, 487.5547
640.2851, 519.9277
640.7672, 537.1553
641.2493, 538.2920
641.7314, 508.0967
642.2136, 497.3818
642.6957, 540.4229
643.1778, 586.4424
643.6599, 593.2148
644.1420, 567.7734
644.6241, 552.5420
645.1063, 569.0039
645.5884, 597.0479
646.0705, 626.5225
646.5526, 651.7217
647.0347, 676.5137
647.5168, 706.5596
647.9990, 715.5537
648.4811, 678.3145
648.9632, 604.4600
649.4453, 561.8115
649.9274, 558.9258
650.4095, 565.7129
650.8917, 579.8887
651.3738, 598.2139
651.8559, 618.9932
652.3380, 641.6699
652.8201, 664.1299
653.3022, 682.5322
653.7844, 702.8643
654.2665, 742.2988
654.7486, 782.7539
655.2307, 783.8721
655.7128, 742.5771
656.1949, 702.5645
656.6771, 702.6504
657.1592, 737.0518
657.6413, 780.7686
658.1234, 844.1914
658.6055, 880.8789
659.0876, 853.2754
659.5698, 823.4658
660.0519, 860.0439
660.5340, 947.9268
661.0161, 1000.365
661.4982, 957.2402
661.9803, 922.4326
662.4625, 962.8086
662.9446, 1036.405
663.4267, 1088.267
663.9088, 1109.152
664.3909, 1116.356
664.8730, 1120.932
665.3552, 1126.752
665.8373, 1147.003
666.3194, 1182.803
666.8015, 1228.359
667.2836, 1293.692
667.7657, 1352.273
668.2479, 1374.318
668.7300, 1366.623
669.2121, 1363.910
669.6942, 1357.218
670.1763, 1370.362
670.6584, 1435.130
671.1406, 1508.338
671.6227, 1543.445
672.1048, 1539.270
672.5869, 1523.800
673.0690, 1516.396
673.5511, 1508.688
674.0333, 1477.067
674.5154, 1421.739
674.9975, 1386.479
675.4796, 1384.117
675.9617, 1389.811
676.4438, 1386.160
676.9260, 1373.719
677.4081, 1356.760
677.8902, 1326.009
678.3723, 1304.064
678.8544, 1304.795
679.3365, 1306.511
679.8187, 1288.832
680.3008, 1257.170
680.7829, 1232.574
681.2650, 1228.046
681.7471, 1226.906
682.2292, 1210.186
682.7114, 1178.677
683.1935, 1128.569
683.6756, 1057.674
684.1577, 998.1738
684.6398, 972.5400
685.1219, 973.6426
685.6041, 978.5713
686.0862, 999.8809
686.5683, 1003.117
687.0504, 977.6406
687.5325, 950.0303
688.0146, 930.6621
688.4968, 914.2217
688.9789, 900.4443
689.4610, 893.0996
689.9431, 886.0459
690.4252, 867.7246
690.9073, 848.7676
691.3895, 847.4297
691.8716, 863.9805
692.3537, 893.5156
692.8358, 935.5840
693.3179, 976.8438
693.8000, 989.9971
694.2822, 966.4424
694.7643, 952.1416
695.2464, 949.0537
695.7285, 954.9648
696.2106, 975.3477
696.6927, 994.1543
697.1749, 989.2314
697.6570, 955.8643
698.1391, 942.0625
698.6212, 977.7266
699.1033, 1023.259
699.5854, 1049.149
700.0676, 1062.026
700.5497, 1076.008
701.0318, 1095.971
701.5139, 1121.888
701.9960, 1154.810
702.4781, 1194.338
702.9603, 1237.061
703.4424, 1283.229
703.9245, 1333.181
704.4066, 1387.680
704.8887, 1443.011
705.3708, 1490.365
705.8530, 1528.873
706.3351, 1594.778
706.8172, 1728.496
707.2993, 1841.882
707.7814, 1890.886
708.2635, 1913.367
708.7457, 1946.258
709.2278, 1995.383
709.7099, 2054.583
710.1920, 2127.002
710.6741, 2187.568
711.1563, 2192.854
711.6384, 2155.432
712.1205, 2123.886
712.6026, 2106.118
713.0847, 2076.328
713.5668, 2012.349
714.0490, 1922.046
714.5311, 1842.395
715.0132, 1779.413
715.4953, 1717.868
715.9774, 1660.906
716.4595, 1602.065
716.9417, 1536.889
717.4238, 1463.863
717.9059, 1381.895
718.3880, 1282.469
718.8701, 1199.026
719.3522, 1166.076
719.8344, 1153.901
720.3165, 1119.926
720.7986, 1064.214
721.2807, 1014.829
721.7628, 987.2627
722.2449, 962.4219
722.7271, 901.1406
723.2092, 800.8281
723.6913, 726.6855
724.1734, 687.6445
724.6555, 654.0400
725.1376, 612.1670
725.6198, 569.2646
726.1019, 536.1582
726.5840, 513.1221
727.0661, 497.2539
727.5482, 507.7852
728.0303, 504.2021
728.5125, 459.7480
728.9946, 396.0020
729.4767, 335.7344
729.9588, 285.5332
730.4409, 245.1094
730.9230, 208.4922
731.4052, 186.0225
731.8873, 211.2168
732.3694, 270.0928
732.8515, 289.0459
733.3336, 248.0947
733.8157, 198.1992
734.2979, 186.6787
734.7800, 206.9453
735.2621, 214.5264
735.7442, 204.4824
736.2263, 191.7432
736.7084, 176.5088
737.1906, 160.0381
737.6727, 139.8135
738.1548, 119.3213
738.6369, 108.4434
739.1190, 115.9189
739.6011, 117.9580
740.0833, 90.71094
740.5654, 63.30664
741.0475, 71.60547
741.5296, 105.7754
742.0117, 132.3965
742.4938, 136.3906
742.9760, 128.4463
743.4581, 134.9824
743.9402, 145.7109
744.4223, 77.02832
744.9044, 85.50293
745.3865, 194.5479
745.8687, 178.8320
746.3508, 97.89062
746.8329, 33.26758
747.3150, 14.12305
747.7971, 48.21191
748.2792, 71.10254
748.7614, 77.81641
749.2435, 49.06738
749.7256, 16.42773
750.2077, 13.15723
750.6898, 37.14551
751.1719, 55.82031
751.6541, 59.63379
752.1362, 47.92676
752.6183, 1.514648
753.1004, 53.13379
753.5825, 62.99023
754.0646, 28.55762
754.5468, 1.583008
755.0289, 19.38184
755.5110, 58.07129
755.9931, 61.87402
756.4752, 29.33691
756.9573, 8.791992
757.4395, 7.333984
757.9216, 9.190430
758.4037, 6.084961
758.8858, 0.5234380
759.3679, 8.104492
759.8500, 20.56934
760.3322, 23.76953
760.8143, 5.833008
761.2964, 7.940430
761.7785, 3.168945
762.2606, 9.128906
762.7427, 11.70996
763.2249, 2.593750
763.7070, 0.5957030
764.1891, 24.48340
764.6712, 54.11523
765.1533, 74.61719
765.6354, 82.67285
766.1176, 62.78906
766.5997, 15.89746
767.0818, 22.41406
767.5639, 18.34277
768.0460, 10.97070
768.5281, 3.588867
769.0103, 47.70801
769.4924, 63.85742
769.9745, 19.86133
770.4566, 27.19434
770.9387, 34.25000
771.4208, 16.63574
771.9030, 25.32812
772.3851, 92.67871
772.8672, 119.4277
773.3493, 59.54883
773.8314, 4.056641
774.3135, 1.616211
774.7957, 24.36621
775.2778, 61.76465
775.7599, 105.0811
776.2420, 122.1084
776.7241, 66.60254
777.2062, 4.024414
777.6884, 23.45898
778.1705, 8.093750
778.6526, 2.381836
779.1347, 16.25879
779.6168, 25.05176
780.0989, 3.786133
780.5811, 35.65625
781.0632, 49.93359
781.5453, 36.22852
782.0274, 40.05762
782.5095, 74.96094
782.9916, 110.2822
783.4738, 124.3105
783.9559, 121.8555
784.4380, 119.0078
784.9201, 108.3877
785.4022, 111.0625
785.8843, 137.1465
786.3665, 164.6973
786.8486, 194.6934
787.3307, 214.9785
787.8128, 200.2373
788.2949, 145.2051
788.7770, 107.3564
789.2592, 126.9346
789.7413, 165.7900
790.2234, 199.6279
790.7055, 224.4756
791.1876, 236.5488
791.6697, 235.2871
792.1519, 221.8916
792.6340, 193.2715
793.1161, 160.8076
793.5982, 152.6689
794.0803, 167.1260
794.5624, 183.6094
795.0446, 200.2168
795.5267, 208.2100
796.0088, 199.3477
796.4909, 181.3008
796.9730, 175.5908
797.4551, 189.9541
797.9373, 194.5029
798.4194, 176.9863
798.9015, 165.2451
799.3836, 178.3994
799.8657, 197.1182
800.3478, 195.2422
800.8300, 170.4180
801.3121, 152.7158
801.7942, 153.1875
802.2763, 158.9707
802.7584, 151.4697
803.2405, 143.7773
803.7227, 177.9238
804.2048, 247.8164
804.6869, 292.4814
805.1690, 266.0654
805.6511, 220.6611
806.1332, 224.6533
806.6154, 264.3916
807.0975, 304.8896
807.5796, 337.8662
808.0617, 361.8428
808.5438, 377.0645
809.0259, 387.7549
809.5081, 402.2686
809.9902, 421.5381
810.4723, 424.6582
810.9544, 395.9590
811.4365, 377.3311
811.9186, 383.7832
812.4008, 406.3975
812.8829, 440.1104
813.3650, 483.3818
813.8471, 510.1094
814.3292, 519.1514
814.8113, 518.7441
815.2935, 505.9648
815.7756, 490.6602
816.2577, 468.8242
816.7398, 443.9795
817.2219, 426.3730
817.7040, 416.4941
818.1862, 422.2344
818.6683, 468.5596
819.1504, 516.0576
819.6325, 528.7920
820.1146, 510.6650
820.5967, 467.4814
821.0789, 404.4180
821.5610, 344.4580
822.0431, 309.3975
822.5252, 293.9707
823.0073, 291.3496
823.4894, 299.6230
823.9716, 306.4609
824.4537, 309.6650
824.9358, 297.3066
825.4179, 259.0811
825.9000, 212.4385
826.3821, 211.4189
826.8643, 272.6953
827.3464, 302.6260
827.8285, 284.2090
828.3106, 269.3174
828.7927, 286.3457
829.2748, 314.3271
829.7570, 318.0303
830.2391, 293.1309
830.7212, 283.3682
831.2033, 307.4697
831.6854, 326.5029
832.1675, 334.6211
832.6497, 330.7686
833.1318, 298.7471
833.6139, 249.9248
834.0960, 229.0674
834.5781, 268.9883
835.0602, 301.9238
835.5424, 270.6172
836.0245, 218.8281
836.5066, 194.7891
836.9887, 194.5713
837.4708, 198.3467
837.9529, 199.9697
838.4351, 201.4648
838.9172, 207.0381
839.3993, 210.6055
839.8814, 189.5166
840.3635, 148.4746
840.8456, 124.8008
841.3278, 128.9746
841.8099, 136.0898
842.2920, 122.9023
842.7741, 99.09473
843.2562, 104.0469
843.7383, 149.4971
844.2205, 169.3379
844.7026, 148.9570
845.1847, 123.3857
845.6668, 110.0859
846.1489, 101.8838
846.6310, 80.21191
847.1132, 32.95996
847.5953, 30.74316
848.0774, 125.8027
848.5595, 197.9033
849.0416, 196.9336
849.5237, 174.8125
850.0059, 183.3330
850.4880, 214.3330
850.9701, 218.2734
851.4522, 164.7959
851.9343, 113.7090
852.4164, 97.21094
852.8986, 94.63574
853.3807, 88.03125
853.8628, 79.49707
854.3449, 79.38379
854.8270, 90.51270
855.3091, 101.5215
855.7913, 101.2217
856.2734, 95.32422
856.7555, 95.09766
857.2376, 96.93359
857.7197, 84.24121
858.2018, 56.25977
858.6840, 41.56152
859.1661, 63.27148
859.6482, 102.3652
860.1303, 116.4199
860.6124, 106.1143
861.0945, 101.7363
861.5767, 107.6719
862.0588, 99.59961
862.5409, 64.27539
863.0230, 14.76270
863.5051, 35.68164
863.9872, 87.72266
864.4694, 102.7666
864.9515, 56.76367
865.4336, 23.41699
865.9157, 17.85938
866.3978, 26.43848
866.8799, 57.86816
867.3621, 94.62402
867.8442, 80.97559
868.3263, 23.74414
868.8084, 87.06836
869.2905, 66.10254
869.7726, 30.67578
870.2548, 0.8525390
870.7369, 16.57812
871.2190, 4.708008
871.7011, 32.60156
872.1832, 46.89453
872.6653, 15.41699
873.1475, 67.86719
873.6296, 41.42969
874.1117, 12.61523
874.5938, 34.52637
875.0759, 28.39258
875.5580, 30.65234
876.0402, 57.26953
876.5223, 82.96387
877.0044, 78.36816
877.4865, 59.11426
877.9686, 49.33008
878.4507, 49.26660
878.9329, 56.79688
879.4150, 71.29004
879.8971, 93.60449
880.3792, 125.1865
880.8613, 163.1797
881.3434, 208.2412
881.8256, 257.5605
882.3077, 271.4990
882.7898, 243.8926
883.2719, 217.4033
883.7540, 211.8818
884.2361, 220.8730
884.7183, 237.8984
885.2004, 263.1348
885.6825, 266.3682
886.1646, 236.8906
886.6467, 218.6299
887.1288, 222.9307
887.6110, 236.7393
888.0931, 246.7266
888.5752, 258.9121
889.0573, 295.6172
889.5394, 375.1445
890.0215, 440.3613
890.5037, 500.8359
890.9858, 535.7100
891.4679, 507.8730
891.9500, 470.3770
892.4321, 486.4297
892.9142, 554.6895
893.3964, 613.8037
893.8785, 635.2080
894.3606, 667.6602
894.8427, 752.4658
895.3248, 830.1357
895.8069, 833.0645
896.2891, 798.8662
896.7712, 810.2686
897.2533, 890.9326
897.7354, 985.4404
898.2175, 1077.776
898.6996, 1155.215
899.1818, 1202.294
899.6639, 1230.104
900.1460, 1247.104
900.6281, 1261.465
901.1102, 1294.688
901.5923, 1361.962
902.0745, 1437.669
902.5566, 1480.495
903.0387, 1517.834
903.5208, 1619.674
904.0029, 1766.427
904.4850, 1868.841
904.9672, 1900.167
905.4493, 1920.788
905.9314, 1988.878
906.4135, 2084.653
906.8956, 2159.087
907.3777, 2215.686
907.8599, 2282.835
908.3420, 2363.908
908.8241, 2440.544
909.3062, 2502.592
909.7883, 2557.383
910.2704, 2617.367
910.7526, 2681.965
911.2347, 2734.905
911.7168, 2772.088
912.1990, 2829.435
912.6811, 2928.735
913.1632, 3006.349
913.6453, 3007.386
914.1274, 2954.517
914.6096, 2918.532
915.0917, 2899.080
915.5738, 2898.964
916.0559, 2929.961
916.5380, 2957.978
917.0201, 2966.405
917.5023, 2972.313
917.9844, 3006.608
918.4665, 3065.104
918.9486, 3067.885
919.4307, 2955.639
919.9128, 2877.747
920.3950, 2866.352
920.8771, 2863.552
921.3592, 2849.329
921.8413, 2818.370
922.3234, 2755.519
922.8055, 2659.551
923.2877, 2606.054
923.7698, 2662.583
924.2519, 2689.893
924.7340, 2619.299
925.2161, 2517.068
925.6982, 2434.169
926.1804, 2376.231
926.6625, 2325.669
927.1446, 2280.443
927.6267, 2236.222
928.1088, 2185.809
928.5909, 2138.967
929.0731, 2118.584
929.5552, 2099.379
930.0373, 2032.249
930.5194, 1926.176
931.0015, 1851.555
931.4836, 1858.829
931.9658, 1874.441
932.4479, 1831.047
932.9300, 1766.366
933.4121, 1716.322
933.8942, 1684.588
934.3763, 1681.778
934.8585, 1703.063
935.3406, 1699.807
935.8227, 1620.609
936.3048, 1523.742
936.7869, 1491.699
937.2690, 1493.036
937.7512, 1462.502
938.2333, 1403.547
938.7154, 1358.237
939.1975, 1343.007
939.6796, 1339.031
940.1617, 1334.064
940.6439, 1319.763
941.1260, 1263.350
941.6081, 1180.032
942.0902, 1136.711
942.5723, 1139.299
943.0544, 1137.233
943.5366, 1101.783
944.0187, 1053.421
944.5008, 1022.925
944.9829, 1007.316
945.4650, 992.6455
945.9471, 978.7041
946.4293, 959.5332
946.9114, 933.3984
947.3935, 910.7334
947.8756, 900.4277
948.3577, 895.4199
948.8398, 876.2393
949.3220, 842.5459
949.8041, 831.4404
950.2862, 847.8818
950.7683, 845.3906
951.2504, 803.9189
951.7325, 764.6650
952.2147, 770.5791
952.6968, 805.9287
953.1789, 804.3252
953.6610, 756.6787
954.1431, 724.2354
954.6252, 714.1611
955.1074, 705.9033
955.5895, 692.9219
956.0716, 674.0879
956.5537, 645.6123
957.0358, 609.2881
957.5179, 588.3652
958.0001, 589.3789
958.4822, 587.8506
958.9643, 583.1816
959.4464, 573.0098
959.9285, 555.5186
960.4106, 532.5283
960.8928, 504.6152
961.3749, 471.1582
961.8570, 448.6895
962.3391, 443.8555
962.8212, 437.4307
963.3033, 424.7939
963.7855, 412.8135
964.2676, 406.2900
964.7497, 402.5127
965.2318, 398.6025
965.7139, 397.8291
966.1960, 378.6318
966.6782, 315.8223
967.1603, 269.5996
967.6424, 253.4785
968.1245, 253.5703
968.6066, 271.9307
969.0887, 297.4434
969.5709, 302.0537
970.0530, 276.9756
970.5351, 260.7051
971.0172, 269.1992
971.4993, 269.4199
971.9814, 237.3877
972.4636, 206.5645
972.9457, 208.7383
973.4278, 234.8281
973.9099, 255.3086
974.3920, 270.1045
974.8741, 269.8379
975.3563, 253.8975
975.8384, 221.5322
976.3205, 143.5527
976.8026, 71.30762
977.2847, 65.10059
977.7668, 110.4365
978.2490, 134.8691
978.7311, 109.3516
979.2132, 102.8320
979.6953, 159.0469
980.1774, 206.5391
980.6595, 207.5674
981.1417, 182.2324
981.6238, 145.2734
982.1059, 103.5898
982.5880, 77.44141
983.0701, 77.32910
983.5522, 81.45801
984.0344, 80.61133
984.5165, 84.66895
984.9986, 107.1025
985.4807, 133.4209
985.9628, 149.0391
986.4449, 150.6084
986.9271, 131.8086
987.4092, 73.23438
987.8913, 25.50293
988.3734, 19.19434
988.8555, 18.33203
989.3376, 10.64160
989.8198, 45.42285
990.3019, 46.25098
990.7840, 12.85938
991.2661, 8.791992
991.7482, 1.216797
992.2303, 19.39648
992.7125, 63.20117
993.1946, 100.7109
993.6767, 108.0723
994.1588, 94.41309
994.6409, 72.85449
995.1230, 46.89551
995.6052, 23.10352
996.0873, 8.836914
996.5694, 9.531250
997.0515, 40.35059
997.5336, 75.70410
998.0157, 119.5312
998.4979, 158.5498
998.9800, 164.2432
999.4621, 135.5986
999.9442, 121.6475
1000.426, 171.2598
1000.908, 202.0635
1001.391, 143.5312
1001.873, 78.70117
1002.355, 85.14355
1002.837, 133.2920
1003.319, 166.0254
1003.801, 172.1045
1004.283, 168.7256
1004.765, 154.5010
1005.247, 143.3125
1005.730, 141.3867
1006.212, 146.3096
1006.694, 155.0664
1007.176, 169.4238
1007.658, 204.7031
1008.140, 262.1250
1008.622, 281.0498
1009.104, 195.8701
1009.587, 115.5352
1010.069, 94.50781
1010.551, 100.7617
1011.033, 121.0088
1011.515, 143.5146
1011.997, 145.1699
1012.479, 124.0781
1012.961, 108.5781
1013.443, 106.0625
1013.926, 116.5957
1014.408, 161.7070
1014.890, 200.2422
1015.372, 176.1670
1015.854, 130.0801
1016.336, 148.7324
1016.818, 243.0088
1017.300, 299.1221
1017.783, 238.3330
1018.265, 179.9092
1018.747, 185.3535
1019.229, 200.2158
1019.711, 179.8281
1020.193, 143.5000
1020.675, 117.4492
1021.157, 108.5713
1021.639, 117.8877
1022.122, 176.6963
1022.604, 210.6250
1023.086, 177.8701
1023.568, 129.7988
1024.050, 90.17285
1024.532, 65.04688
1025.014, 64.77832
1025.496, 88.44043
1025.979, 106.0703
1026.461, 99.79395
1026.943, 102.5137
1027.425, 137.8438
1027.907, 166.7080
1028.389, 151.4951
1028.871, 124.4834
1029.353, 133.1797
1029.835, 180.5439
1030.318, 233.1953
1030.800, 322.1738
1031.282, 362.9385
1031.764, 305.7734
1032.246, 235.8359
1032.728, 176.0439
1033.210, 142.1865
1033.692, 172.0059
1034.174, 258.0518
1034.657, 296.2686
1035.139, 237.1699
1035.621, 191.4570
1036.103, 168.4912
1036.585, 160.6396
1037.067, 169.1758
1037.549, 188.3594
1038.031, 222.9199
1038.514, 267.6650
1038.996, 275.9463
1039.478, 205.7031
1039.960, 172.1865
1040.442, 205.0449
1040.924, 233.0889
1041.406, 233.7988
1041.888, 217.3896
1042.370, 184.9238
1042.853, 143.0908
1043.335, 127.8613
1043.817, 152.8652
1044.299, 171.5566
1044.781, 190.1533
1045.263, 188.5137
1045.745, 146.5273
1046.227, 104.1680
1046.709, 99.35156
1047.192, 119.4141
1047.674, 121.0088
1048.156, 99.68750
1048.638, 90.84766
1049.120, 99.64551
1049.602, 98.67480
1050.084, 73.50391
1050.566, 52.96582
1051.049, 63.37305
1051.531, 91.54785
1052.013, 102.8584
1052.495, 96.31934
1052.977, 97.13867
1053.459, 107.3584
1053.941, 100.5459
1054.423, 63.42188
1054.906, 54.92676
1055.388, 120.0205
1055.870, 212.6406
1056.352, 256.0342
1056.834, 252.2334
1057.316, 214.8379
1057.798, 144.0273
1058.280, 89.95801
1058.762, 60.94531
1059.245, 41.88184
1059.727, 25.18066
1060.209, 10.69531
1060.691, 2.675781
1061.173, 13.30469
1061.655, 14.30078
1062.137, 7.211914
1062.619, 0.6464840
1063.101, 4.649414
1063.584, 14.62305
1064.066, 31.26074
1064.548, 37.06543
1065.030, 8.435547
1065.512, 31.60645
1065.994, 40.62793
1066.476, 25.97949
1066.958, 6.272461
1067.441, 44.89648
1067.923, 49.80371
1068.405, 13.95117
1068.887, 15.01562
1069.369, 1.793945
1069.851, 30.01465
1070.333, 29.77539
1070.815, 15.11816
1071.297, 3.847656
1071.780, 4.119141
1072.262, 14.61328
1072.744, 26.38770
1073.226, 26.95801
1073.708, 6.386719
1074.190, 12.58789
1074.672, 3.353516
1075.154, 11.79102
1075.636, 55.81348
1076.119, 134.8525
1076.601, 117.6523
1077.083, 26.35645
1077.565, 21.58398
1078.047, 17.34863
1078.529, 52.58496
1079.011, 34.67480
1079.494, 14.81445
1079.976, 24.55566
1080.458, 39.39941
1080.940, 36.24414
1081.422, 20.31641
1081.904, 5.203125
1082.386, 7.416992
1082.868, 13.66895
1083.350, 7.644531
1083.833, 2.334961
1084.315, 6.989258
1084.797, 5.942383
1085.279, 22.70117
1085.761, 55.43359
1086.243, 51.88281
1086.725, 13.44238
1087.207, 5.495117
1087.689, 7.370117
1088.172, 13.72070
1088.654, 3.931641
1089.136, 2.485352
1089.618, 21.35449
1090.100, 48.35840
1090.582, 74.96484
1091.064, 97.08594
1091.546, 91.91504
1092.029, 46.61426
1092.511, 56.25781
1092.993, 136.0127
1093.475, 189.5098
1093.957, 189.2959
1094.439, 164.9590
1094.921, 134.9561
1095.403, 105.0645
1095.885, 87.26172
1096.368, 80.20312
1096.850, 74.24121
1097.332, 69.42188
1097.814, 67.03711
1098.296, 67.04395
1098.778, 64.35840
1099.260, 56.36621
1099.742, 56.65430
1100.224, 88.74316
1100.707, 130.7090
1101.189, 132.0859
1101.671, 111.0439
1102.153, 112.4170
1102.635, 132.3164
1103.117, 141.0625
1103.599, 131.1748
1104.081, 121.2979
1104.564, 126.9805
1105.046, 130.9580
1105.528, 113.5498
1106.010, 89.06055
1106.492, 60.42480
1106.974, 42.80469
1107.456, 73.88086
1107.938, 140.6953
1108.421, 169.6826
1108.903, 121.3135
1109.385, 91.19238
1109.867, 143.8682
1110.349, 197.9395
1110.831, 213.2988
1111.313, 209.1396
1111.795, 193.6328
1112.277, 176.5879
1112.760, 176.0244
1113.242, 194.3330
1113.724, 222.9131
1114.206, 282.2686
1114.688, 318.8926
1115.170, 315.6758
1115.652, 303.6768
1116.134, 298.2422
1116.616, 290.6289
1117.099, 265.8096
1117.581, 228.2520
1118.063, 212.3418
1118.545, 224.1465
1119.027, 229.4375
1119.509, 223.5801
1119.991, 234.8164
1120.473, 277.2725
1120.956, 310.2598
1121.438, 300.1445
1121.920, 263.0137
1122.402, 223.9326
1122.884, 186.6729
1123.366, 185.6758
1123.848, 218.2422
1124.330, 259.8008
1124.813, 304.0352
1125.295, 335.4482
1125.777, 347.2090
1126.259, 338.3906
1126.741, 295.0635
1127.223, 248.3965
1127.705, 251.4854
1128.187, 273.9209
1128.669, 263.3682
1129.151, 232.3242
1129.634, 222.9668
1130.116, 241.1416
1130.598, 256.3027
1131.080, 253.4873
1131.562, 248.6885
1132.044, 255.4043
1132.526, 256.1484
1133.008, 231.9697
1133.491, 202.6553
1133.973, 183.4922
1134.455, 177.0469
1134.937, 185.8643
1135.419, 211.6855
1135.901, 235.5908
1136.383, 253.1973
1136.865, 265.8975
1137.348, 280.3848
1137.830, 281.4746
1138.312, 249.6162
1138.794, 210.5869
1139.276, 197.8486
1139.758, 209.4463
1140.240, 231.3906
1140.722, 272.1855
1141.204, 283.4873
1141.687, 259.5195
1142.169, 220.1982
1142.651, 166.1035
1143.133, 137.8994
1143.615, 169.2744
1144.097, 225.3662
1144.579, 246.2852
1145.061, 238.4473
1145.543, 208.1904
1146.026, 158.6758
1146.508, 143.3906
1146.990, 162.6279
1147.472, 176.5029
1147.954, 169.7930
1148.436, 167.3574
1148.918, 199.3994
1149.400, 230.9707
1149.883, 213.3193
1150.365, 179.9766
1150.847, 166.9434
1151.329, 167.7383
1151.811, 171.5664
1152.293, 176.5098
1152.775, 183.8213
1153.257, 196.0596
1153.740, 202.7197
1154.222, 189.6377
1154.704, 184.4414
1155.186, 211.6260
1155.668, 237.1162
1156.150, 239.0029
1156.632, 218.7598
1157.114, 172.5986
1157.596, 100.4590
1158.078, 65.28027
1158.561, 71.44629
1159.043, 106.8057
1159.525, 185.8711
1160.007, 240.8975
1160.489, 247.7383
1160.971, 222.9766
1161.453, 175.2910
1161.935, 121.7871
1162.418, 100.8271
1162.900, 107.5166
1163.382, 110.4707
1163.864, 111.3232
1164.346, 124.1182
1164.828, 146.5527
1165.310, 150.4336
1165.792, 125.0381
1166.275, 100.0381
1166.757, 105.2158
1167.239, 113.9863
1167.721, 88.35547
1168.203, 58.31543
1168.685, 57.75293
1169.167, 78.52930
1169.649, 114.0723
1170.131, 154.2061
1170.614, 167.6338
1171.096, 137.6289
1171.578, 115.6445
1172.060, 135.6699
1172.542, 138.9365
1173.024, 86.67188
1173.506, 33.17676
1173.988, 9.344727
1174.470, 8.227539
1174.953, 26.16797
1175.435, 59.50977
1175.917, 67.42285
1176.399, 39.67090
1176.881, 42.81250
1177.363, 86.56641
1177.845, 106.8408
1178.327, 82.97461
1178.810, 66.22656
1179.292, 94.58691
1179.774, 134.3691
1180.256, 131.3750
1180.738, 101.2051
1181.220, 80.94629
1181.702, 69.32715
1182.184, 62.39062
1182.667, 59.41992
1183.149, 64.40234
1183.631, 75.53027
1184.113, 69.87305
1184.595, 21.65723
1185.077, 10.84668
1185.559, 36.37109
1186.041, 82.21387
1186.523, 54.21484
1187.005, 9.644531
1187.488, 16.34766
1187.970, 56.03125
1188.452, 70.17090
1188.934, 50.30078
1189.416, 33.84668
1189.898, 16.81641
1190.380, 13.93652
1190.862, 33.39062
1191.345, 48.56104
1191.827, 46.19189
1192.309, 47.62451
1192.791, 75.07715
1193.273, 112.9102
1193.755, 125.0024
1194.237, 113.9077
1194.719, 87.59082
1195.202, 52.79688
1195.684, 46.26025
1196.166, 68.38232
1196.648, 94.34180
1197.130, 113.7930
1197.612, 125.7021
1198.094, 132.2529
1198.576, 124.3066
1199.058, 64.05176
1199.541, 15.08301
1200.023, 65.29346
1200.505, 143.9346
1200.987, 159.5952
1201.469, 117.2480
1201.951, 53.97754
1202.433, 36.03760
1202.915, 66.12842
1203.397, 36.59619
1203.880, 97.69189
1204.362, 85.65771
1204.844, 59.01221
1205.326, 38.97656
1205.808, 18.46338
1206.290, 11.58008
1206.772, 43.59277
1207.254, 59.04004
1207.737, 59.85449
1208.219, 40.85156
1208.701, 4.758301
1209.183, 33.67432
1209.665, 69.34277
1210.147, 83.78076
1210.629, 72.25293
1211.111, 72.23975
1211.594, 119.3730
1212.076, 167.0322
1212.558, 164.9341
1213.040, 149.2144
1213.522, 151.2754
1214.004, 162.6191
1214.486, 171.5073
1214.968, 176.9116
1215.450, 181.8853
1215.932, 187.9136
1216.415, 183.6377
1216.897, 150.5049
1217.379, 140.4082
1217.861, 169.7729
1218.343, 196.8916
1218.825, 209.8037
1219.307, 205.8193
1219.789, 177.8584
1220.272, 141.7661
1220.754, 131.5757
1221.236, 142.5747
1221.718, 153.8604
1222.200, 168.1196
1222.682, 197.1333
1223.164, 237.2485
1223.646, 264.3555
1224.129, 272.1968
1224.611, 272.2031
1225.093, 271.4297
1225.575, 264.1348
1226.057, 233.3062
1226.539, 209.6450
1227.021, 230.8398
1227.503, 257.6899
1227.985, 242.1504
1228.468, 199.8945
1228.950, 154.7241
1229.432, 108.6201
1229.914, 98.45117
1230.396, 133.2949
1230.878, 181.0132
1231.360, 251.2896
1231.842, 287.1787
1232.324, 271.9395
1232.807, 227.8760
1233.289, 164.7817
1233.771, 109.3877
1234.253, 104.0420
1234.735, 127.9062
1235.217, 130.4419
1235.699, 109.5552
1236.181, 117.6416
1236.664, 136.4355
1237.146, 157.0049
1237.628, 163.7119
1238.110, 129.0327
1238.592, 49.99609
1239.074, 2.656250
1239.556, 22.25781
1240.038, 50.85596
1240.521, 80.76514
1241.003, 100.9487
1241.485, 99.35840
1241.967, 94.17773
1242.449, 107.3828
1242.931, 130.3516
1243.413, 132.5449
1243.895, 113.6035
1244.377, 104.6831
1244.859, 105.1162
1245.342, 102.5596
1245.824, 96.01465
1246.306, 93.07031
1246.788, 96.62061
1247.270, 104.4185
1247.752, 114.8916
1248.234, 128.9604
1248.716, 161.7373
1249.199, 182.7603
1249.681, 152.9819
1250.163, 106.9727
1250.645, 78.16260
1251.127, 65.90283
1251.609, 59.94385
1252.091, 59.88330
1252.573, 79.32764
1253.056, 143.3843
1253.538, 156.6372
1254.020, 96.26611
1254.502, 58.03369
1254.984, 65.22412
1255.466, 78.57275
1255.948, 75.46533
1256.430, 67.20850
1256.912, 64.53076
1257.395, 70.86670
1257.877, 105.9019
1258.359, 145.7983
1258.841, 142.4746
1259.323, 112.3931
1259.805, 87.33057
1260.287, 73.02539
1260.769, 66.94580
1261.251, 68.68408
1261.734, 73.37402
1262.216, 83.98535
1262.698, 90.44092
1263.180, 99.11768
1263.662, 88.04736
1264.144, 31.82861
1264.626, 8.152344
1265.108, 23.56836
1265.591, 84.53174
1266.073, 92.28418
1266.555, 23.11816
1267.037, 19.91016
1267.519, 38.60498
1268.001, 0.0000000E+00
##END=



