##NAMES=Marialite
##RRUFFID=R070689
##IDEAL CHEMISTRY=Na_4_Al_3_Si_9_O_24_Cl
##LOCALITY=Itaguassu, Espirito Santo State, Brazil
##OWNER=RRUFF
##SOURCE=Michael Scott
##DESCRIPTION=Pale yellow striated prism; bright orange-pink fluorescence under SW UV light
##STATUS=The identification of this mineral has been confirmed by X-ray diffraction and chemical analysis
##URL=rruff.info/R070689
##MEASURED CHEMISTRY=(Na_2.48_Ca_1.28_K_0.24_)_Σ=4_(Si_7.91_Al_4.09_)_Σ=12_O_24_(Cl_0.81_(CO_3_)_0.19_)_Σ=1_; CO_2_ estimated by difference and charge balance
103.4355, 0.0000000E+00
103.9176, 0.1064450
104.3997, 1.022461
104.8818, 13.79297
105.3640, 15.77441
105.8461, 9.670898
106.3282, 56.83887
106.8103, 59.65527
107.2924, 60.84961
107.7745, 52.00000
108.2567, 24.35254
108.7388, 15.49805
109.2209, 24.70312
109.7030, 7.077148
110.1851, 56.93652
110.6672, 134.5732
111.1494, 228.4580
111.6315, 311.3350
112.1136, 356.3633
112.5957, 357.6553
113.0778, 401.9834
113.5599, 509.2549
114.0421, 640.9531
114.5242, 776.3301
115.0063, 911.4424
115.4884, 1040.657
115.9705, 1151.604
116.4526, 1244.349
116.9348, 1339.501
117.4169, 1439.464
117.8990, 1545.365
118.3811, 1659.075
118.8632, 1781.639
119.3453, 1912.670
119.8275, 2051.919
120.3096, 2201.256
120.7917, 2348.400
121.2738, 2491.257
121.7559, 2630.932
122.2381, 2746.808
122.7202, 2804.504
123.2023, 2844.543
123.6844, 2900.217
124.1665, 2987.352
124.6486, 3081.711
125.1308, 3135.917
125.6129, 3128.455
126.0950, 3114.565
126.5771, 3117.386
127.0592, 3123.197
127.5413, 3117.379
128.0235, 3093.522
128.5056, 3050.312
128.9877, 2986.827
129.4698, 2875.557
129.9519, 2769.547
130.4340, 2702.145
130.9162, 2656.800
131.3983, 2585.442
131.8804, 2435.042
132.3625, 2173.741
132.8446, 1971.978
133.3267, 1847.788
133.8089, 1755.684
134.2910, 1677.390
134.7731, 1608.568
135.2552, 1540.340
135.7373, 1461.930
136.2194, 1366.609
136.7016, 1281.762
137.1837, 1206.371
137.6658, 1140.730
138.1479, 1091.828
138.6300, 1059.608
139.1121, 1033.860
139.5943, 1010.109
140.0764, 988.0049
140.5585, 952.9878
141.0406, 883.1978
141.5227, 800.9995
142.0048, 740.9131
142.4870, 712.5889
142.9691, 704.9014
143.4512, 679.4458
143.9333, 628.6240
144.4154, 568.3193
144.8975, 514.4961
145.3797, 467.0825
145.8618, 424.9019
146.3439, 387.1934
146.8260, 354.9980
147.3081, 332.2573
147.7902, 326.3057
148.2724, 329.2715
148.7545, 319.3687
149.2366, 284.4712
149.7187, 256.5903
150.2008, 250.5771
150.6829, 259.6616
151.1651, 271.0723
151.6472, 274.2300
152.1293, 269.2358
152.6114, 275.1768
153.0935, 300.1797
153.5757, 330.4131
154.0578, 361.4229
154.5399, 393.5747
155.0220, 429.8452
155.5041, 474.9956
155.9862, 535.1206
156.4684, 585.0469
156.9505, 633.2036
157.4326, 667.5298
157.9147, 675.2764
158.3968, 656.3740
158.8789, 626.0566
159.3611, 608.2119
159.8432, 611.8833
160.3253, 615.8604
160.8074, 615.1699
161.2895, 625.4170
161.7716, 648.2773
162.2538, 688.2554
162.7359, 735.4136
163.2180, 764.1616
163.7001, 789.8145
164.1822, 779.7983
164.6643, 703.0200
165.1465, 587.9082
165.6286, 486.2910
166.1107, 423.9644
166.5928, 392.5205
167.0749, 363.3125
167.5570, 349.4551
168.0392, 326.6787
168.5213, 273.4966
169.0034, 196.4102
169.4855, 129.7612
169.9676, 100.1338
170.4497, 98.41162
170.9319, 86.51074
171.4140, 57.19238
171.8961, 20.55762
172.3782, 16.44043
172.8603, 54.50879
173.3424, 87.38086
173.8246, 107.8008
174.3067, 119.6167
174.7888, 129.0894
175.2709, 139.5874
175.7530, 148.5278
176.2351, 150.7656
176.7173, 145.8193
177.1994, 134.4546
177.6815, 110.3975
178.1636, 80.16650
178.6457, 59.35791
179.1278, 69.65576
179.6100, 103.1494
180.0921, 106.8657
180.5742, 66.66406
181.0563, 8.045898
181.5384, 67.50586
182.0205, 152.3984
182.5027, 224.3813
182.9848, 256.6733
183.4669, 243.5645
183.9490, 246.7173
184.4311, 285.2432
184.9132, 328.1826
185.3954, 361.8306
185.8775, 386.0571
186.3596, 410.2930
186.8417, 448.6909
187.3238, 511.2544
187.8059, 558.3823
188.2881, 577.7705
188.7702, 591.6885
189.2523, 614.3174
189.7344, 648.4639
190.2165, 685.8125
190.6986, 712.2241
191.1808, 716.3887
191.6629, 728.4297
192.1450, 754.5938
192.6271, 784.7646
193.1092, 813.1240
193.5914, 837.1040
194.0735, 854.1733
194.5556, 858.5376
195.0377, 828.4351
195.5198, 810.3730
196.0019, 819.0605
196.4841, 835.8018
196.9662, 834.1650
197.4483, 800.9541
197.9304, 750.1606
198.4125, 730.5869
198.8946, 770.7607
199.3768, 806.5908
199.8589, 831.4517
200.3410, 844.2710
200.8231, 839.5693
201.3052, 810.3857
201.7873, 765.6016
202.2695, 749.7568
202.7516, 783.4062
203.2337, 817.9893
203.7158, 832.3877
204.1979, 832.4136
204.6800, 837.0869
205.1622, 859.1514
205.6443, 895.1113
206.1264, 922.7837
206.6085, 938.2109
207.0906, 949.2021
207.5727, 955.7808
208.0549, 959.5361
208.5370, 972.1865
209.0191, 1006.043
209.5012, 1055.628
209.9833, 1094.401
210.4654, 1109.095
210.9476, 1121.123
211.4297, 1148.464
211.9118, 1191.587
212.3939, 1243.488
212.8760, 1308.543
213.3581, 1378.935
213.8403, 1431.402
214.3224, 1441.584
214.8045, 1440.746
215.2866, 1472.116
215.7687, 1542.543
216.2508, 1617.450
216.7330, 1672.817
217.2151, 1714.573
217.6972, 1750.525
218.1793, 1790.199
218.6614, 1824.359
219.1435, 1829.535
219.6257, 1792.251
220.1078, 1757.424
220.5899, 1762.917
221.0720, 1792.495
221.5541, 1813.035
222.0362, 1806.458
222.5184, 1778.924
223.0005, 1747.508
223.4826, 1708.248
223.9647, 1672.174
224.4468, 1646.221
224.9289, 1627.814
225.4111, 1611.108
225.8932, 1595.482
226.3753, 1579.410
226.8574, 1555.787
227.3395, 1525.442
227.8216, 1484.995
228.3038, 1424.948
228.7859, 1353.508
229.2680, 1291.171
229.7501, 1261.767
230.2322, 1261.120
230.7143, 1232.243
231.1965, 1139.100
231.6786, 1057.039
232.1607, 1035.105
232.6428, 1055.360
233.1249, 1063.214
233.6070, 1002.788
234.0892, 871.2451
234.5713, 777.0205
235.0534, 751.9346
235.5355, 740.4658
236.0176, 724.6040
236.4998, 703.8145
236.9819, 683.6899
237.4640, 671.9951
237.9461, 672.9595
238.4282, 664.8037
238.9103, 628.2378
239.3925, 599.5513
239.8746, 591.4849
240.3567, 602.7417
240.8388, 624.4053
241.3209, 648.5435
241.8030, 674.9233
242.2852, 706.9653
242.7673, 749.9248
243.2494, 793.7534
243.7315, 830.8057
244.2136, 863.2734
244.6957, 900.5830
245.1779, 953.1787
245.6600, 1023.946
246.1421, 1095.058
246.6242, 1163.762
247.1063, 1234.846
247.5884, 1307.721
248.0706, 1384.185
248.5527, 1469.031
249.0348, 1568.445
249.5169, 1686.184
249.9990, 1803.242
250.4811, 1913.263
250.9633, 2027.283
251.4454, 2154.216
251.9275, 2291.958
252.4096, 2431.216
252.8917, 2559.245
253.3738, 2666.006
253.8560, 2807.086
254.3381, 2999.223
254.8202, 3203.657
255.3023, 3400.109
255.7844, 3588.692
256.2665, 3786.197
256.7487, 4014.097
257.2308, 4288.770
257.7129, 4529.128
258.1950, 4720.650
258.6771, 4894.461
259.1592, 5071.517
259.6414, 5253.598
260.1235, 5426.409
260.6056, 5579.758
261.0877, 5724.608
261.5698, 5789.575
262.0519, 5757.139
262.5341, 5678.314
263.0162, 5582.131
263.4983, 5469.627
263.9804, 5320.625
264.4625, 5110.963
264.9446, 4824.181
265.4268, 4552.956
265.9089, 4315.649
266.3910, 4075.163
266.8731, 3802.920
267.3552, 3506.732
267.8373, 3221.415
268.3195, 2982.671
268.8016, 2801.234
269.2837, 2607.137
269.7658, 2378.846
270.2479, 2158.451
270.7300, 1962.055
271.2122, 1791.363
271.6943, 1643.250
272.1764, 1515.445
272.6585, 1409.722
273.1406, 1310.779
273.6227, 1210.762
274.1049, 1121.873
274.5870, 1057.384
275.0691, 1011.526
275.5512, 962.7734
276.0333, 891.8057
276.5154, 794.8394
276.9976, 722.2075
277.4797, 679.0498
277.9618, 648.6836
278.4439, 630.2607
278.9260, 619.5249
279.4081, 606.2266
279.8903, 580.7354
280.3724, 542.4106
280.8545, 526.2036
281.3366, 536.2129
281.8187, 559.1250
282.3008, 599.2329
282.7830, 649.2236
283.2651, 693.3350
283.7472, 720.0498
284.2293, 730.2129
284.7114, 742.7183
285.1935, 744.1255
285.6757, 761.0142
286.1578, 814.8525
286.6399, 890.8008
287.1220, 954.6084
287.6041, 982.6689
288.0862, 981.8481
288.5684, 1012.216
289.0505, 1105.288
289.5326, 1191.800
290.0147, 1241.981
290.4968, 1275.550
290.9789, 1326.196
291.4611, 1412.463
291.9432, 1530.083
292.4253, 1658.916
292.9074, 1799.387
293.3895, 1950.176
293.8716, 2113.155
294.3538, 2286.034
294.8359, 2475.882
295.3180, 2689.579
295.8001, 2904.219
296.2823, 3046.021
296.7644, 3120.696
297.2465, 3106.689
297.7286, 2967.973
298.2107, 2751.062
298.6928, 2497.300
299.1750, 2223.074
299.6571, 1943.732
300.1392, 1691.724
300.6213, 1472.614
301.1034, 1278.408
301.5855, 1117.438
302.0677, 977.0435
302.5498, 847.1245
303.0319, 724.5811
303.5140, 610.1411
303.9961, 507.0151
304.4782, 413.1338
304.9604, 336.8682
305.4425, 282.6182
305.9246, 241.4341
306.4067, 208.4243
306.8888, 181.7944
307.3709, 159.9990
307.8531, 142.1758
308.3352, 134.4590
308.8173, 115.2153
309.2994, 75.32275
309.7815, 32.84375
310.2636, 3.141113
310.7458, 30.34814
311.2279, 49.70117
311.7100, 61.59229
312.1921, 64.21387
312.6742, 65.94043
313.1563, 63.94971
313.6385, 63.70215
314.1206, 72.40869
314.6027, 86.71289
315.0848, 94.42578
315.5669, 81.18213
316.0490, 43.37012
316.5312, 26.05713
317.0133, 48.27979
317.4954, 72.48975
317.9775, 90.33789
318.4596, 100.3696
318.9417, 101.8828
319.4239, 92.59668
319.9060, 73.63965
320.3881, 63.59375
320.8702, 73.95801
321.3523, 81.16748
321.8344, 79.93506
322.3166, 72.02686
322.7987, 59.81250
323.2808, 43.89453
323.7629, 26.08301
324.2450, 13.75098
324.7271, 7.423828
325.2093, 6.751465
325.6914, 16.87549
326.1735, 30.01074
326.6556, 38.28320
327.1377, 38.44727
327.6198, 30.88916
328.1020, 15.28711
328.5841, 11.64941
329.0662, 39.58105
329.5483, 72.52783
330.0304, 102.2539
330.5125, 119.1714
330.9947, 120.4180
331.4768, 116.7212
331.9589, 124.2617
332.4410, 146.4131
332.9231, 165.3037
333.4052, 169.3652
333.8874, 174.9204
334.3695, 198.2158
334.8516, 239.5967
335.3337, 275.2080
335.8158, 271.8940
336.2979, 227.7817
336.7801, 207.4224
337.2622, 237.6177
337.7443, 275.3184
338.2264, 293.0063
338.7085, 292.6753
339.1906, 293.0454
339.6728, 307.4561
340.1549, 333.8936
340.6370, 356.3989
341.1191, 353.7510
341.6012, 382.6328
342.0833, 513.6885
342.5655, 705.6313
343.0476, 846.6938
343.5297, 854.1367
344.0118, 781.9043
344.4939, 741.7446
344.9760, 737.7026
345.4582, 752.9287
345.9403, 789.2495
346.4224, 836.6538
346.9045, 879.1382
347.3866, 908.0024
347.8687, 934.6831
348.3509, 974.3579
348.8330, 1027.459
349.3151, 1076.392
349.7972, 1106.638
350.2793, 1130.048
350.7614, 1169.601
351.2436, 1231.717
351.7257, 1300.684
352.2078, 1371.027
352.6899, 1441.023
353.1720, 1500.278
353.6541, 1541.307
354.1363, 1574.453
354.6184, 1618.475
355.1005, 1674.064
355.5826, 1734.491
356.0647, 1805.312
356.5468, 1877.743
357.0290, 1935.922
357.5111, 1975.495
357.9932, 2003.407
358.4753, 2030.432
358.9574, 2059.858
359.4395, 2070.385
359.9217, 2062.041
360.4038, 2032.432
360.8859, 1970.306
361.3680, 1876.893
361.8501, 1781.112
362.3322, 1712.176
362.8144, 1673.949
363.2965, 1614.087
363.7786, 1505.651
364.2607, 1402.125
364.7428, 1334.241
365.2249, 1297.044
365.7071, 1268.534
366.1892, 1233.843
366.6713, 1195.055
367.1534, 1171.977
367.6355, 1174.277
368.1176, 1178.886
368.5998, 1179.379
369.0819, 1179.553
369.5640, 1185.272
370.0461, 1199.493
370.5282, 1220.339
371.0103, 1243.412
371.4925, 1274.030
371.9746, 1297.362
372.4567, 1311.815
372.9388, 1319.569
373.4209, 1321.473
373.9030, 1319.684
374.3852, 1316.465
374.8673, 1313.093
375.3494, 1307.479
375.8315, 1308.212
376.3136, 1328.441
376.7957, 1344.938
377.2779, 1346.020
377.7600, 1333.291
378.2421, 1315.055
378.7242, 1299.309
379.2064, 1285.498
379.6885, 1255.421
380.1706, 1193.354
380.6527, 1136.294
381.1348, 1100.916
381.6169, 1079.784
382.0991, 1060.208
382.5812, 1038.489
383.0633, 1010.922
383.5454, 964.3740
384.0275, 888.6182
384.5096, 824.5361
384.9918, 802.8560
385.4739, 795.6772
385.9560, 776.3804
386.4381, 738.0845
386.9202, 690.6919
387.4023, 639.3408
387.8845, 584.9473
388.3666, 543.2373
388.8487, 527.5249
389.3308, 516.5508
389.8129, 484.3179
390.2950, 429.6152
390.7772, 374.4385
391.2593, 324.1396
391.7414, 281.3203
392.2235, 254.0742
392.7056, 246.4229
393.1877, 242.0776
393.6699, 224.0493
394.1520, 193.5464
394.6341, 166.5894
395.1162, 147.1060
395.5983, 130.5420
396.0804, 112.0039
396.5626, 92.07764
397.0447, 75.81592
397.5268, 67.04199
398.0089, 64.74658
398.4910, 61.74756
398.9731, 54.59570
399.4553, 50.70312
399.9374, 56.51025
400.4195, 66.34473
400.9016, 70.48242
401.3837, 64.85938
401.8658, 52.83887
402.3480, 40.94922
402.8301, 20.04395
403.3122, 14.56152
403.7943, 33.04541
404.2764, 60.66357
404.7585, 88.65088
405.2407, 114.2407
405.7228, 135.9561
406.2049, 150.0586
406.6870, 153.4438
407.1691, 169.3755
407.6512, 202.6875
408.1334, 243.9238
408.6155, 294.6704
409.0976, 350.8154
409.5797, 404.1851
410.0618, 448.6992
410.5439, 487.5098
411.0261, 532.0083
411.5082, 581.5908
411.9903, 638.1968
412.4724, 705.1113
412.9545, 776.9204
413.4366, 846.2759
413.9188, 910.1646
414.4009, 977.7275
414.8830, 1064.307
415.3651, 1170.727
415.8472, 1268.611
416.3293, 1346.227
416.8115, 1418.102
417.2936, 1504.361
417.7757, 1603.480
418.2578, 1681.741
418.7399, 1722.905
419.2220, 1729.818
419.7042, 1704.909
420.1863, 1646.123
420.6684, 1567.247
421.1505, 1478.054
421.6326, 1377.156
422.1147, 1257.193
422.5969, 1098.407
423.0790, 937.1709
423.5611, 785.5747
424.0432, 649.5063
424.5253, 553.1436
425.0074, 516.1699
425.4896, 516.4722
425.9717, 487.2256
426.4538, 398.8682
426.9359, 331.3374
427.4180, 310.8838
427.9001, 312.3789
428.3823, 308.4629
428.8644, 292.2686
429.3465, 271.2979
429.8286, 253.8760
430.3107, 236.7700
430.7928, 236.2075
431.2750, 257.6914
431.7571, 286.9590
432.2392, 318.9165
432.7213, 352.8457
433.2034, 390.7129
433.6855, 435.1938
434.1677, 483.1855
434.6498, 516.7168
435.1319, 513.4287
435.6140, 530.9658
436.0961, 596.4795
436.5782, 678.8403
437.0604, 744.2300
437.5425, 781.6421
438.0246, 812.8145
438.5067, 870.1260
438.9888, 956.4663
439.4709, 1029.741
439.9531, 1075.514
440.4352, 1112.251
440.9173, 1148.786
441.3994, 1185.985
441.8815, 1232.235
442.3636, 1295.645
442.8458, 1372.793
443.3279, 1456.353
443.8100, 1545.467
444.2921, 1642.052
444.7742, 1742.705
445.2563, 1851.889
445.7385, 1979.585
446.2206, 2123.070
446.7027, 2288.229
447.1848, 2486.131
447.6669, 2707.804
448.1490, 2930.925
448.6312, 3145.191
449.1133, 3363.197
449.5954, 3610.322
450.0775, 3915.103
450.5596, 4187.686
451.0417, 4409.728
451.5239, 4606.056
452.0060, 4800.879
452.4881, 4992.730
452.9702, 5160.021
453.4523, 5281.510
453.9344, 5357.371
454.4166, 5433.699
454.8987, 5531.734
455.3808, 5605.349
455.8629, 5637.738
456.3450, 5642.677
456.8271, 5639.507
457.3093, 5636.489
457.7914, 5626.098
458.2735, 5597.080
458.7556, 5550.782
459.2377, 5479.353
459.7198, 5368.646
460.2020, 5240.665
460.6841, 5103.846
461.1662, 4960.236
461.6483, 4814.601
462.1305, 4675.174
462.6126, 4535.814
463.0947, 4377.283
463.5768, 4193.648
464.0589, 4006.158
464.5410, 3825.447
465.0232, 3650.398
465.5053, 3478.450
465.9874, 3306.852
466.4695, 3140.954
466.9516, 2985.287
467.4337, 2838.259
467.9159, 2699.406
468.3980, 2569.370
468.8801, 2441.752
469.3622, 2304.860
469.8443, 2146.470
470.3264, 2009.936
470.8086, 1910.156
471.2907, 1822.967
471.7728, 1731.222
472.2549, 1634.711
472.7370, 1543.025
473.2191, 1464.420
473.7013, 1397.800
474.1834, 1327.766
474.6655, 1245.807
475.1476, 1171.444
475.6297, 1108.725
476.1118, 1054.934
476.5940, 1006.671
477.0761, 962.9209
477.5582, 923.5225
478.0403, 890.9385
478.5224, 866.9414
479.0045, 832.8071
479.4867, 781.5659
479.9688, 724.1748
480.4509, 663.9805
480.9330, 603.3374
481.4151, 549.8154
481.8972, 509.5269
482.3794, 477.3672
482.8615, 447.3740
483.3436, 419.7329
483.8257, 388.3149
484.3078, 348.5205
484.7899, 303.8286
485.2721, 262.7876
485.7542, 224.1089
486.2363, 191.6836
486.7184, 169.5713
487.2005, 153.4512
487.6826, 137.5645
488.1648, 120.7383
488.6469, 105.0884
489.1290, 93.00781
489.6111, 84.97119
490.0932, 77.85889
490.5753, 73.88525
491.0575, 68.40967
491.5396, 58.20508
492.0217, 45.62598
492.5038, 34.37061
492.9859, 26.38232
493.4680, 20.94385
493.9502, 17.45459
494.4323, 18.23535
494.9144, 14.25098
495.3965, 1.967773
495.8786, 13.76855
496.3607, 33.46143
496.8429, 55.37305
497.3250, 71.87305
497.8071, 78.29150
498.2892, 75.21436
498.7713, 59.97900
499.2534, 28.19287
499.7356, 4.737305
500.2177, 7.135254
500.6998, 27.44385
501.1819, 46.94775
501.6640, 67.90332
502.1461, 82.68750
502.6283, 85.82617
503.1104, 80.67188
503.5925, 72.38281
504.0746, 62.20654
504.5567, 52.37549
505.0388, 45.31836
505.5210, 41.07812
506.0031, 40.23926
506.4852, 44.22900
506.9673, 49.77051
507.4494, 60.22217
507.9315, 70.58057
508.4137, 70.25195
508.8958, 53.02100
509.3779, 26.21387
509.8600, 7.461426
510.3421, 1.161621
510.8242, 6.895020
511.3064, 4.593262
511.7885, 4.426758
512.2706, 13.71484
512.7527, 32.05762
513.2349, 52.78857
513.7170, 70.36035
514.1991, 86.99170
514.6812, 110.1646
515.1633, 141.3677
515.6454, 170.3657
516.1276, 183.5874
516.6097, 194.0669
517.0918, 231.3853
517.5739, 310.0747
518.0560, 389.4014
518.5381, 452.1768
519.0203, 504.3208
519.5024, 553.2544
519.9845, 600.9209
520.4666, 650.2090
520.9487, 701.5923
521.4308, 752.2905
521.9130, 832.7324
522.3951, 957.7217
522.8772, 1091.877
523.3593, 1227.011
523.8414, 1362.481
524.3235, 1499.126
524.8057, 1636.701
525.2878, 1775.582
525.7699, 1907.437
526.2520, 2022.098
526.7341, 2180.934
527.2162, 2420.851
527.6984, 2678.646
528.1805, 2914.021
528.6626, 3133.348
529.1447, 3369.590
529.6268, 3635.339
530.1089, 3927.513
530.5911, 4248.445
531.0732, 4597.131
531.5553, 4950.331
532.0374, 5305.305
532.5195, 5653.741
533.0016, 5987.015
533.4838, 6326.444
533.9659, 6594.615
534.4480, 6779.896
534.9301, 6886.959
535.4122, 6919.288
535.8943, 6878.698
536.3765, 6766.579
536.8586, 6578.010
537.3407, 6319.732
537.8228, 6044.722
538.3049, 5758.656
538.7870, 5443.681
539.2692, 5073.641
539.7513, 4687.627
540.2334, 4316.706
540.7155, 3969.249
541.1976, 3648.075
541.6797, 3361.475
542.1619, 3105.199
542.6440, 2853.900
543.1261, 2596.946
543.6082, 2367.637
544.0903, 2201.908
544.5724, 2077.374
545.0546, 1951.789
545.5367, 1813.195
546.0188, 1681.872
546.5009, 1572.021
546.9830, 1476.696
547.4651, 1381.796
547.9473, 1282.856
548.4294, 1191.118
548.9115, 1119.450
549.3936, 1070.580
549.8757, 1028.160
550.3578, 996.5586
550.8400, 965.5566
551.3221, 933.8325
551.8042, 899.5396
552.2863, 856.5127
552.7684, 801.9067
553.2505, 749.0811
553.7327, 724.0161
554.2148, 731.7275
554.6969, 727.3608
555.1790, 696.4883
555.6611, 664.6362
556.1432, 651.4634
556.6254, 652.3247
557.1075, 649.8286
557.5896, 630.9902
558.0717, 608.5493
558.5538, 598.6313
559.0359, 597.9741
559.5181, 588.3008
560.0002, 560.7749
560.4823, 529.9229
560.9644, 520.3374
561.4465, 544.0908
561.9286, 556.7637
562.4108, 548.7554
562.8929, 537.5425
563.3750, 532.6812
563.8571, 533.2139
564.3392, 534.7354
564.8214, 534.9663
565.3035, 533.4980
565.7856, 529.4619
566.2677, 521.8691
566.7498, 518.4888
567.2319, 525.0361
567.7141, 532.9678
568.1962, 535.8813
568.6783, 534.3428
569.1604, 533.5747
569.6425, 539.5171
570.1246, 546.9868
570.6068, 545.4873
571.0889, 535.4927
571.5710, 530.7856
572.0531, 539.3691
572.5352, 553.9658
573.0173, 559.6450
573.4995, 553.1860
573.9816, 547.1621
574.4637, 538.5049
574.9458, 534.0684
575.4279, 542.3530
575.9100, 560.0376
576.3922, 576.3555
576.8743, 584.7026
577.3564, 585.6436
577.8385, 577.0552
578.3206, 545.0215
578.8027, 537.7651
579.2849, 596.6060
579.7670, 658.5767
580.2491, 680.2700
580.7312, 662.9727
581.2133, 640.4385
581.6954, 625.7036
582.1776, 619.7251
582.6597, 630.1270
583.1418, 655.6313
583.6239, 670.9678
584.1060, 661.4531
584.5881, 638.8950
585.0703, 629.0752
585.5524, 637.2490
586.0345, 644.7271
586.5166, 648.5947
586.9987, 652.3843
587.4808, 661.0186
587.9630, 672.8867
588.4451, 679.6812
588.9272, 673.7822
589.4093, 661.1519
589.8914, 662.2700
590.3735, 688.4551
590.8557, 700.3984
591.3378, 671.1992
591.8199, 639.0234
592.3020, 629.0542
592.7841, 637.2783
593.2662, 648.8091
593.7484, 665.0215
594.2305, 675.6328
594.7126, 662.7637
595.1947, 630.7412
595.6768, 600.7271
596.1589, 578.8442
596.6411, 568.9019
597.1232, 580.5757
597.6053, 632.8032
598.0874, 660.4893
598.5695, 625.7222
599.0516, 640.9258
599.5338, 645.8643
600.0159, 640.1431
600.4980, 595.4668
600.9801, 601.0625
601.4622, 586.5088
601.9443, 571.1304
602.4265, 583.7944
602.9086, 544.7803
603.3907, 557.0229
603.8728, 548.7891
604.3549, 549.9136
604.8370, 530.7681
605.3192, 517.8789
605.8013, 525.2710
606.2834, 521.5166
606.7655, 507.7500
607.2476, 522.8682
607.7297, 533.7031
608.2119, 537.3496
608.6940, 531.4282
609.1761, 510.1387
609.6582, 466.0903
610.1403, 440.3086
610.6224, 439.3047
611.1046, 446.0039
611.5867, 465.3560
612.0688, 485.9829
612.5509, 489.8896
613.0330, 470.3809
613.5151, 439.7437
613.9973, 409.5571
614.4794, 382.0776
614.9615, 362.4346
615.4436, 351.4766
615.9257, 345.6387
616.4078, 346.2334
616.8900, 350.7991
617.3721, 348.6062
617.8542, 329.4609
618.3363, 314.7090
618.8184, 317.5447
619.3005, 325.4502
619.7827, 321.0659
620.2648, 302.8904
620.7469, 283.3987
621.2290, 274.5537
621.7111, 275.8604
622.1932, 279.8164
622.6754, 294.4204
623.1575, 297.9346
623.6396, 274.4966
624.1217, 244.7209
624.6038, 229.3489
625.0859, 231.3069
625.5681, 232.4810
626.0502, 218.7358
626.5323, 197.6721
627.0144, 185.3013
627.4965, 182.0205
627.9786, 179.6614
628.4608, 173.7412
628.9429, 165.9048
629.4250, 160.5049
629.9071, 158.8787
630.3892, 157.5154
630.8713, 162.1768
631.3535, 162.0359
631.8356, 145.6868
632.3177, 118.4365
632.7998, 94.90039
633.2819, 83.29541
633.7640, 80.08887
634.2462, 79.94775
634.7283, 83.07739
635.2104, 85.37280
635.6925, 85.62549
636.1746, 85.43750
636.6567, 89.14746
637.1389, 95.04956
637.6210, 92.00537
638.1031, 67.34180
638.5852, 44.72559
639.0673, 41.26465
639.5494, 47.48535
640.0316, 45.73242
640.5137, 31.31470
640.9958, 14.07422
641.4779, 5.306396
641.9600, 5.202393
642.4421, 8.674316
642.9243, 20.93726
643.4064, 28.74463
643.8885, 26.91040
644.3706, 19.43823
644.8527, 8.377197
645.3348, 6.559570
645.8170, 15.61719
646.2991, 3.516357
646.7812, 14.80078
647.2633, 11.19727
647.7454, 14.59814
648.2275, 42.52881
648.7097, 63.70801
649.1918, 74.70850
649.6739, 64.77734
650.1560, 8.634766
650.6381, 26.82080
651.1202, 35.29883
651.6024, 29.73218
652.0845, 10.72412
652.5666, 15.62280
653.0487, 39.35693
653.5308, 57.50708
654.0129, 64.50073
654.4951, 42.37695
654.9772, 5.247070
655.4593, 29.54614
655.9414, 14.08740
656.4235, 8.795166
656.9056, 9.426025
657.3878, 11.68091
657.8699, 28.23828
658.3520, 43.02686
658.8341, 49.98730
659.3162, 40.90283
659.7983, 25.99292
660.2805, 15.71167
660.7626, 12.87622
661.2447, 17.45654
661.7268, 33.57837
662.2089, 56.91699
662.6910, 58.52100
663.1732, 30.18579
663.6553, 5.916992
664.1374, 3.914307
664.6195, 2.777100
665.1016, 9.354004
665.5837, 33.92114
666.0659, 45.47974
666.5480, 23.25195
667.0302, 4.048828
667.5123, 11.88965
667.9944, 4.798828
668.4765, 1.721191
668.9586, 1.017090
669.4407, 1.330811
669.9229, 6.596436
670.4050, 30.59668
670.8871, 34.43408
671.3692, 1.366211
671.8513, 32.24292
672.3334, 36.86499
672.8156, 26.75195
673.2977, 17.39087
673.7798, 11.11499
674.2619, 10.23120
674.7440, 23.28296
675.2261, 39.75952
675.7083, 42.31738
676.1904, 29.94287
676.6725, 10.46729
677.1546, 12.50366
677.6367, 36.09717
678.1188, 50.93433
678.6010, 54.77637
679.0831, 53.71875
679.5652, 43.22803
680.0473, 32.77075
680.5294, 27.84082
681.0115, 27.19531
681.4937, 27.08643
681.9758, 26.90161
682.4579, 24.64185
682.9400, 10.34009
683.4221, 8.363770
683.9042, 0.7949220
684.3864, 46.63843
684.8685, 88.44019
685.3506, 87.09106
685.8327, 47.58667
686.3148, 31.06030
686.7969, 68.24243
687.2791, 88.60132
687.7612, 66.00854
688.2433, 37.66919
688.7254, 34.74146
689.2075, 57.44824
689.6896, 86.48535
690.1718, 114.7156
690.6539, 136.7244
691.1360, 137.0610
691.6181, 118.3123
692.1002, 111.8811
692.5823, 129.5068
693.0645, 153.2124
693.5466, 162.0593
694.0287, 154.1838
694.5108, 153.9688
694.9929, 168.5500
695.4750, 181.4922
695.9572, 187.6548
696.4393, 189.9404
696.9214, 188.2373
697.4035, 184.4102
697.8856, 188.2061
698.3677, 213.9724
698.8499, 252.0942
699.3320, 271.5571
699.8141, 271.1838
700.2962, 280.7407
700.7783, 316.7810
701.2604, 357.9614
701.7426, 370.0747
702.2247, 343.4819
702.7068, 335.1216
703.1889, 361.7747
703.6710, 387.9067
704.1531, 402.1570
704.6353, 406.3840
705.1174, 399.8198
705.5995, 382.8945
706.0816, 369.3794
706.5637, 380.1458
707.0458, 408.7517
707.5280, 425.0369
708.0101, 430.1516
708.4922, 433.2373
708.9743, 438.3796
709.4564, 443.6543
709.9385, 445.9346
710.4207, 444.3027
710.9028, 436.9028
711.3849, 420.1709
711.8670, 402.4260
712.3491, 383.0918
712.8312, 370.8535
713.3134, 377.3965
713.7955, 407.1111
714.2776, 439.6892
714.7597, 457.1357
715.2418, 460.6023
715.7239, 446.7437
716.2061, 412.3936
716.6882, 379.7371
717.1703, 358.6294
717.6524, 347.2314
718.1345, 343.0129
718.6166, 348.4084
719.0988, 352.7749
719.5809, 359.9053
720.0630, 361.2412
720.5451, 342.0598
721.0272, 316.1064
721.5093, 311.3530
721.9915, 338.0181
722.4736, 369.2095
722.9557, 368.2571
723.4378, 342.2124
723.9199, 331.8677
724.4020, 341.0564
724.8842, 354.0542
725.3663, 366.9939
725.8484, 376.2715
726.3305, 369.5332
726.8126, 334.7039
727.2947, 313.6750
727.7769, 322.2603
728.2590, 332.1167
728.7411, 327.7297
729.2232, 312.9185
729.7053, 292.8452
730.1874, 271.4666
730.6696, 258.3079
731.1517, 271.7876
731.6338, 301.8103
732.1159, 305.2905
732.5980, 276.2026
733.0801, 251.9338
733.5623, 254.7996
734.0444, 274.4023
734.5265, 287.2476
735.0086, 291.0566
735.4907, 290.4321
735.9728, 280.3242
736.4550, 271.0706
736.9371, 263.4595
737.4192, 261.3176
737.9013, 273.4866
738.3834, 303.3262
738.8655, 331.3389
739.3477, 333.1636
739.8298, 320.2632
740.3119, 324.5574
740.7940, 347.3132
741.2761, 365.9189
741.7582, 369.4404
742.2404, 365.9221
742.7225, 372.9768
743.2046, 397.8367
743.6867, 412.1995
744.1688, 400.8259
744.6509, 396.6201
745.1331, 415.7119
745.6152, 447.6702
746.0973, 478.3591
746.5794, 504.2561
747.0615, 527.9380
747.5436, 550.4019
748.0258, 572.2466
748.5079, 593.9771
748.9900, 615.8953
749.4721, 639.4001
749.9542, 664.9460
750.4363, 693.9727
750.9185, 730.6904
751.4006, 778.8950
751.8827, 812.3477
752.3648, 808.0239
752.8469, 819.3638
753.3290, 874.4282
753.8112, 946.2429
754.2933, 1003.856
754.7754, 1043.114
755.2575, 1082.992
755.7396, 1136.861
756.2217, 1191.966
756.7039, 1227.936
757.1860, 1254.737
757.6681, 1302.491
758.1502, 1381.634
758.6323, 1473.958
759.1144, 1557.837
759.5966, 1633.532
760.0787, 1713.010
760.5608, 1794.116
761.0429, 1881.183
761.5250, 1983.934
762.0071, 2088.328
762.4893, 2173.465
762.9714, 2239.164
763.4535, 2319.245
763.9356, 2435.646
764.4177, 2553.291
764.8998, 2648.552
765.3820, 2732.915
765.8641, 2827.279
766.3462, 2934.763
766.8283, 3040.599
767.3104, 3134.276
767.7925, 3216.357
768.2747, 3282.465
768.7568, 3329.739
769.2389, 3378.236
769.7210, 3441.487
770.2031, 3494.586
770.6852, 3510.688
771.1674, 3489.238
771.6495, 3459.587
772.1316, 3426.869
772.6137, 3380.269
773.0958, 3317.103
773.5779, 3238.574
774.0601, 3147.498
774.5422, 3042.791
775.0243, 2918.738
775.5064, 2769.214
775.9885, 2606.663
776.4706, 2439.686
776.9528, 2271.811
777.4349, 2122.170
777.9170, 1995.010
778.3991, 1867.638
778.8812, 1720.221
779.3633, 1558.907
779.8455, 1415.603
780.3276, 1291.376
780.8097, 1187.748
781.2918, 1114.069
781.7739, 1045.037
782.2560, 967.0554
782.7382, 886.1118
783.2203, 815.2961
783.7024, 762.6245
784.1845, 707.3562
784.6666, 620.9780
785.1487, 534.1843
785.6309, 495.2405
786.1130, 496.8777
786.5951, 494.4497
787.0772, 464.7937
787.5593, 420.0894
788.0414, 380.4758
788.5236, 346.2424
789.0057, 316.5684
789.4878, 288.7200
789.9699, 266.9031
790.4520, 253.9775
790.9341, 247.4888
791.4163, 242.3623
791.8984, 240.1902
792.3805, 232.3813
792.8626, 207.6462
793.3447, 187.4746
793.8268, 191.2231
794.3090, 204.6057
794.7911, 201.5310
795.2732, 177.4749
795.7553, 152.0952
796.2374, 143.5852
796.7195, 145.7966
797.2017, 145.1707
797.6838, 141.9861
798.1659, 140.3748
798.6480, 141.8154
799.1301, 144.4883
799.6122, 147.5769
800.0944, 150.8950
800.5765, 143.0737
801.0586, 111.4622
801.5407, 88.28198
802.0228, 79.54517
802.5049, 79.12158
802.9871, 88.21094
803.4692, 102.3406
803.9513, 104.6548
804.4334, 74.26587
804.9155, 53.37646
805.3976, 89.82568
805.8798, 142.6238
806.3619, 145.5022
806.8440, 100.1069
807.3261, 61.70361
807.8082, 66.81323
808.2903, 92.73511
808.7725, 87.30029
809.2546, 49.02661
809.7367, 36.40967
810.2188, 66.10767
810.7009, 86.98462
811.1830, 62.31250
811.6652, 12.05420
812.1473, 14.97485
812.6294, 13.43970
813.1115, 4.087158
813.5936, 23.12622
814.0757, 46.03564
814.5579, 53.50146
815.0400, 50.02979
815.5221, 42.16260
816.0042, 31.73975
816.4863, 19.47900
816.9684, 1.062500
817.4506, 15.79272
817.9327, 18.66113
818.4148, 9.478760
818.8969, 6.090820
819.3790, 26.30884
819.8611, 41.86694
820.3433, 41.77222
820.8254, 27.57739
821.3075, 14.95264
821.7896, 2.458008
822.2717, 4.031982
822.7538, 0.9978030
823.2360, 7.885986
823.7181, 9.969971
824.2002, 7.245361
824.6823, 1.155762
825.1644, 26.56836
825.6465, 42.50098
826.1287, 33.86157
826.6108, 18.45459
827.0929, 11.30103
827.5750, 11.60132
828.0571, 11.65063
828.5392, 7.723877
829.0214, 3.119629
829.5035, 3.136230
829.9856, 5.288818
830.4678, 0.9616700
830.9499, 10.01807
831.4320, 17.73291
831.9141, 17.21167
832.3962, 11.36035
832.8784, 3.945801
833.3605, 6.932373
833.8426, 7.070557
834.3247, 13.27783
834.8068, 28.86230
835.2889, 27.42432
835.7711, 19.82959
836.2532, 19.01074
836.7353, 24.92773
837.2174, 19.18237
837.6995, 22.19946
838.1816, 53.87451
838.6638, 46.49561
839.1459, 20.68457
839.6280, 2.366699
840.1101, 17.43652
840.5922, 22.94946
841.0743, 14.91992
841.5565, 3.932617
842.0386, 8.737305
842.5207, 25.44434
843.0028, 35.82568
843.4849, 37.23462
843.9670, 38.79810
844.4492, 48.02295
844.9313, 57.76245
845.4134, 47.39600
845.8955, 5.006836
846.3776, 21.10742
846.8597, 27.52368
847.3419, 22.07373
847.8240, 2.927246
848.3061, 32.00073
848.7882, 43.62012
849.2703, 34.59668
849.7524, 27.02222
850.2346, 31.21509
850.7167, 33.81641
851.1988, 16.39697
851.6809, 2.336914
852.1630, 12.40552
852.6451, 60.12036
853.1273, 98.34473
853.6094, 91.40381
854.0915, 63.69336
854.5736, 55.78271
855.0557, 62.54688
855.5378, 59.08032
856.0200, 40.99390
856.5021, 26.11157
856.9842, 27.69141
857.4663, 41.49194
857.9484, 57.24805
858.4305, 80.22876
858.9127, 85.21875
859.3948, 56.02979
859.8769, 32.11938
860.3590, 39.39062
860.8411, 61.39038
861.3232, 71.76245
861.8054, 66.96753
862.2875, 64.87085
862.7696, 74.68774
863.2517, 81.21802
863.7338, 71.13599
864.2159, 56.33398
864.6981, 53.65479
865.1802, 64.61475
865.6623, 76.15186
866.1444, 80.70264
866.6265, 80.25586
867.1086, 74.73560
867.5908, 66.74316
868.0729, 64.00537
868.5550, 67.12256
869.0371, 68.60767
869.5192, 62.28564
870.0013, 53.45752
870.4835, 60.56055
870.9656, 87.53589
871.4477, 97.12012
871.9298, 79.64844
872.4119, 63.02124
872.8940, 61.97339
873.3762, 69.45508
873.8583, 72.46143
874.3404, 69.68530
874.8225, 67.25049
875.3046, 62.41040
875.7867, 60.14062
876.2689, 66.34790
876.7510, 73.91992
877.2331, 74.99219
877.7152, 69.22681
878.1973, 62.43359
878.6794, 56.97803
879.1616, 51.85596
879.6437, 44.34937
880.1258, 37.84497
880.6079, 38.73999
881.0900, 46.30737
881.5721, 54.49561
882.0543, 59.56885
882.5364, 63.84790
883.0185, 74.27759
883.5006, 87.95898
883.9827, 81.39624
884.4648, 51.32617
884.9470, 27.48022
885.4291, 22.34253
885.9112, 30.70215
886.3933, 47.97119
886.8754, 75.92847
887.3575, 86.56909
887.8397, 68.12891
888.3218, 53.86670
888.8039, 54.64429
889.2860, 59.38159
889.7681, 57.29492
890.2502, 50.83716
890.7324, 52.64575
891.2145, 76.72852
891.6966, 89.67456
892.1787, 71.90137
892.6608, 49.08032
893.1429, 41.35815
893.6251, 45.33203
894.1072, 49.95508
894.5893, 51.45703
895.0714, 52.66138
895.5535, 55.20215
896.0356, 56.22729
896.5178, 53.23218
896.9999, 49.11035
897.4820, 51.21875
897.9641, 59.84058
898.4462, 64.18970
898.9283, 51.31738
899.4105, 28.93896
899.8926, 26.07910
900.3747, 43.41968
900.8568, 61.10645
901.3389, 77.29370
901.8210, 86.49756
902.3032, 83.92578
902.7853, 72.65259
903.2674, 61.09863
903.7495, 48.93188
904.2316, 34.87866
904.7137, 14.29321
905.1959, 1.156494
905.6780, 4.951416
906.1601, 16.24951
906.6422, 27.73242
907.1243, 38.73340
907.6064, 41.33789
908.0886, 24.56299
908.5707, 10.09644
909.0528, 10.69043
909.5349, 15.74048
910.0170, 14.30151
910.4991, 7.858643
910.9813, 7.805420
911.4634, 23.45972
911.9455, 38.46802
912.4276, 32.58252
912.9097, 17.85059
913.3918, 15.28101
913.8740, 24.38086
914.3561, 38.33643
914.8382, 54.46411
915.3203, 66.32886
915.8024, 62.65967
916.2845, 69.15649
916.7667, 70.04419
917.2488, 59.91772
917.7309, 63.15625
918.2130, 48.08838
918.6951, 29.97534
919.1772, 20.87915
919.6594, 19.74658
920.1415, 22.74487
920.6236, 34.72876
921.1057, 38.39624
921.5878, 25.73730
922.0699, 14.49390
922.5521, 13.90747
923.0342, 19.85864
923.5163, 27.98291
923.9984, 39.18726
924.4805, 44.39868
924.9626, 34.74316
925.4448, 9.932129
925.9269, 33.66260
926.4090, 47.05615
926.8911, 50.56567
927.3732, 14.97388
927.8553, 29.52051
928.3375, 23.93604
928.8196, 17.56934
929.3017, 39.23413
929.7838, 9.197754
930.2659, 30.33350
930.7480, 30.99487
931.2302, 41.03149
931.7123, 30.79004
932.1944, 26.78198
932.6765, 43.02441
933.1586, 48.00903
933.6407, 35.33081
934.1229, 45.86694
934.6050, 14.96704
935.0871, 20.43115
935.5692, 41.54858
936.0513, 29.82153
936.5334, 40.60669
937.0156, 42.76782
937.4977, 5.853516
937.9798, 36.78564
938.4619, 38.35156
938.9440, 18.53296
939.4261, 36.73828
939.9083, 57.23877
940.3904, 49.07812
940.8725, 5.083740
941.3546, 12.59570
941.8367, 17.32764
942.3188, 42.36377
942.8010, 50.35132
943.2831, 52.40234
943.7652, 54.95459
944.2473, 58.38794
944.7294, 63.56299
945.2115, 74.82764
945.6937, 78.59717
946.1758, 66.02319
946.6579, 50.27002
947.1400, 35.44165
947.6221, 24.89990
948.1042, 23.94531
948.5864, 33.18872
949.0685, 44.82886
949.5506, 57.07764
950.0327, 66.99976
950.5148, 71.38696
950.9969, 71.80298
951.4791, 69.59277
951.9612, 65.84204
952.4433, 63.60693
952.9254, 65.01050
953.4075, 65.14233
953.8896, 53.70435
954.3718, 36.96045
954.8539, 33.05127
955.3360, 41.03613
955.8181, 49.25879
956.3002, 53.59399
956.7823, 56.01782
957.2645, 58.27100
957.7466, 60.89111
958.2287, 68.13550
958.7108, 80.72607
959.1929, 80.76587
959.6750, 62.67480
960.1572, 46.35571
960.6393, 44.09937
961.1214, 50.77148
961.6035, 55.95239
962.0856, 59.54541
962.5677, 62.94531
963.0499, 69.54150
963.5320, 69.01636
964.0141, 51.75977
964.4962, 33.15161
964.9783, 31.14746
965.4604, 42.97412
965.9426, 44.69580
966.4247, 28.47852
966.9068, 14.17456
967.3889, 7.475098
967.8710, 15.52661
968.3531, 19.65015
968.8353, 67.03760
969.3174, 76.19360
969.7995, 38.71143
970.2816, 1.772705
970.7637, 28.16357
971.2458, 44.28369
971.7280, 32.48022
972.2101, 12.56274
972.6922, 6.744629
973.1743, 12.71338
973.6564, 14.04346
974.1385, 2.739990
974.6207, 8.404785
975.1028, 6.708984
975.5849, 2.095459
976.0670, 8.512695
976.5491, 20.77979
977.0313, 22.94165
977.5134, 12.88867
977.9955, 8.789063
978.4776, 28.34033
978.9597, 56.25146
979.4418, 71.17261
979.9240, 74.26782
980.4061, 63.36060
980.8882, 41.56567
981.3703, 30.33032
981.8524, 40.72510
982.3345, 57.44312
982.8167, 55.44238
983.2988, 40.64966
983.7809, 49.07080
984.2630, 80.16870
984.7451, 110.5876
985.2272, 135.0896
985.7094, 150.8372
986.1915, 153.8806
986.6736, 149.6448
987.1557, 154.6770
987.6378, 170.5930
988.1199, 182.2026
988.6021, 188.2224
989.0842, 191.9231
989.5663, 194.4143
990.0484, 195.5554
990.5305, 194.5178
991.0126, 191.4666
991.4948, 191.1038
991.9769, 192.0159
992.4590, 199.7158
992.9411, 221.3057
993.4232, 240.5222
993.9053, 248.0823
994.3875, 247.4192
994.8696, 242.9204
995.3517, 232.7786
995.8339, 224.9001
996.3160, 217.7830
996.7981, 214.5671
997.2802, 214.5659
997.7623, 220.8679
998.2444, 244.1592
998.7266, 275.7534
999.2087, 286.5789
999.6908, 263.4897
1000.173, 243.9502
1000.655, 242.7424
1001.137, 242.9082
1001.619, 231.1614
1002.101, 216.5249
1002.583, 212.2837
1003.066, 219.1641
1003.548, 226.7471
1004.030, 231.9285
1004.512, 234.4917
1004.994, 237.4873
1005.476, 235.3096
1005.958, 218.5881
1006.440, 192.9917
1006.923, 169.2495
1007.405, 150.9868
1007.887, 141.2974
1008.369, 149.3533
1008.851, 160.7502
1009.333, 161.6968
1009.815, 155.0679
1010.297, 140.7212
1010.779, 123.1584
1011.262, 119.4836
1011.744, 139.5874
1012.226, 157.3513
1012.708, 136.5139
1013.190, 98.08813
1013.672, 79.62305
1014.154, 77.34644
1014.636, 76.74219
1015.119, 74.08862
1015.601, 71.78931
1016.083, 71.90405
1016.565, 72.38965
1017.047, 68.25195
1017.529, 61.42432
1018.011, 59.82959
1018.493, 63.43652
1018.975, 67.87109
1019.458, 71.45776
1019.940, 72.50317
1020.422, 68.33276
1020.904, 61.28271
1021.386, 58.94678
1021.868, 60.98291
1022.350, 64.51270
1022.832, 69.42798
1023.315, 69.91260
1023.797, 62.30908
1024.279, 52.38062
1024.761, 48.68604
1025.243, 50.49194
1025.725, 54.09717
1026.207, 61.99341
1026.689, 57.59424
1027.171, 34.22925
1027.654, 13.76611
1028.136, 10.45898
1028.618, 19.47656
1029.100, 37.17358
1029.582, 68.99658
1030.064, 76.72803
1030.546, 49.99316
1031.028, 31.22754
1031.510, 34.93945
1031.993, 45.04858
1032.475, 47.63916
1032.957, 43.91992
1033.439, 37.58032
1033.921, 23.11694
1034.403, 23.65991
1034.885, 47.58301
1035.367, 69.57837
1035.849, 81.03198
1036.332, 85.93848
1036.814, 84.61084
1037.296, 79.00928
1037.778, 91.18652
1038.260, 144.7720
1038.742, 169.3477
1039.224, 146.4287
1039.706, 114.9558
1040.189, 86.03809
1040.671, 62.01270
1041.153, 45.71875
1041.635, 37.25244
1042.117, 36.51196
1042.599, 57.22314
1043.081, 65.32739
1043.563, 47.69971
1044.046, 26.91724
1044.528, 10.08594
1045.010, 0.1953130
1045.492, 5.661621
1045.974, 30.36890
1046.456, 42.59058
1046.938, 28.23975
1047.420, 16.97363
1047.902, 20.69141
1048.385, 24.72388
1048.867, 14.53369
1049.349, 2.398926
1049.831, 6.363525
1050.313, 9.320313
1050.795, 16.64136
1051.277, 4.015625
1051.759, 8.606689
1052.241, 16.46680
1052.724, 19.66968
1053.206, 16.09546
1053.688, 8.207520
1054.170, 3.565918
1054.652, 5.308350
1055.134, 4.523682
1055.616, 3.137207
1056.098, 6.087158
1056.581, 38.74707
1057.063, 71.90137
1057.545, 75.94263
1058.027, 57.31250
1058.509, 52.17944
1058.991, 77.96436
1059.473, 98.39990
1059.955, 95.00171
1060.438, 88.06958
1060.920, 87.58057
1061.402, 93.18384
1061.884, 103.1191
1062.366, 117.4805
1062.848, 137.6628
1063.330, 169.8430
1063.812, 196.3665
1064.294, 206.2434
1064.776, 212.4954
1065.259, 222.9182
1065.741, 236.4133
1066.223, 252.1987
1066.705, 269.0537
1067.187, 280.0500
1067.669, 272.9951
1068.151, 274.8137
1068.633, 305.3940
1069.116, 341.2017
1069.598, 364.5486
1070.080, 380.0955
1070.562, 398.0457
1071.044, 419.9243
1071.526, 437.5474
1072.008, 440.3601
1072.490, 447.8230
1072.973, 478.7600
1073.455, 509.1226
1073.937, 512.7664
1074.419, 502.7939
1074.901, 505.8337
1075.383, 527.0564
1075.865, 549.5547
1076.347, 566.8708
1076.829, 582.5073
1077.312, 599.2351
1077.794, 614.3242
1078.276, 621.3821
1078.758, 625.9189
1079.240, 640.6626
1079.722, 668.6013
1080.204, 692.9697
1080.686, 707.9575
1081.169, 721.4653
1081.651, 740.4001
1082.133, 760.8606
1082.615, 785.5327
1083.097, 806.1189
1083.579, 803.2720
1084.061, 771.4233
1084.543, 748.8691
1085.026, 754.0496
1085.508, 771.9456
1085.990, 810.4570
1086.472, 844.5618
1086.954, 844.1575
1087.436, 821.1287
1087.918, 805.2974
1088.400, 804.3137
1088.882, 814.1201
1089.365, 839.7673
1089.847, 867.6792
1090.329, 897.1599
1090.811, 920.7705
1091.293, 924.1462
1091.775, 916.8823
1092.257, 927.4224
1092.739, 964.9004
1093.221, 982.2087
1093.704, 935.9194
1094.186, 896.8687
1094.668, 913.9541
1095.150, 939.9270
1095.632, 931.8057
1096.114, 903.1489
1096.596, 889.2134
1097.078, 902.2236
1097.561, 900.8110
1098.043, 864.4985
1098.525, 817.2070
1099.007, 759.4082
1099.489, 703.8354
1099.971, 663.3125
1100.453, 634.4438
1100.935, 607.9468
1101.417, 583.2329
1101.900, 552.2808
1102.382, 505.6006
1102.864, 461.9365
1103.346, 432.9380
1103.828, 405.0054
1104.310, 363.1084
1104.792, 314.1113
1105.274, 274.1943
1105.756, 244.9419
1106.239, 227.1978
1106.721, 225.9365
1107.203, 229.6982
1107.685, 241.2954
1108.167, 250.7207
1108.649, 244.0049
1109.131, 230.9585
1109.613, 236.2812
1110.096, 266.8037
1110.578, 289.4917
1111.060, 300.6011
1111.542, 304.5386
1112.024, 296.0576
1112.506, 286.7446
1112.988, 291.8276
1113.470, 299.6494
1113.953, 285.4692
1114.435, 247.8530
1114.917, 193.7695
1115.399, 97.10938
1115.881, 23.81982
1116.363, 11.61084
1116.845, 25.55273
1117.327, 20.28809
1117.809, 4.471680
1118.292, 5.875000
1118.774, 10.44580
1119.256, 11.89014
1119.738, 6.947754
1120.220, 5.508789
1120.702, 8.819336
1121.184, 16.80420
1121.666, 32.26074
1122.148, 49.21484
1122.631, 56.25098
1123.113, 53.38916
1123.595, 59.93213
1124.077, 79.44238
1124.559, 97.78027
1125.041, 112.6152
1125.523, 125.5884
1126.005, 134.9121
1126.488, 147.4976
1126.970, 169.0933
1127.452, 181.3530
1127.934, 181.2646
1128.416, 176.4834
1128.898, 164.8218
1129.380, 143.6611
1129.862, 132.2188
1130.344, 138.7969
1130.827, 145.1865
1131.309, 138.5166
1131.791, 120.0513
1132.273, 94.59863
1132.755, 66.42236
1133.237, 62.51221
1133.719, 80.72705
1134.201, 85.37451
1134.683, 62.63037
1135.166, 30.57617
1135.648, 7.153809
1136.130, 0.2373050
1136.612, 5.150879
1137.094, 8.308105
1137.576, 0.0000000E+00
##END=



