##NAMES=Marialite
##RRUFFID=R040113
##IDEAL CHEMISTRY=Na_4_Al_3_Si_9_O_24_Cl
##LOCALITY=Gouverneur, New York, USA
##OWNER=RRUFF
##SOURCE=University of Arizona Mineral Museum
##DESCRIPTION=Green prismatic crystal
##STATUS=The identification of this mineral has been confirmed by X-ray diffraction and chemical analysis
##URL=rruff.info/R040113
##MEASURED CHEMISTRY=(Na_0.50_Ca_0.43_K_0.07_)_4_(Si_0.64_Al_0.36_)_12_O_24_(Cl_0.60_(CO_3_)_0.40_)
150.1439, 0.0000000E+00
150.6261, 3.027832
151.1082, 26.41504
151.5903, 91.33105
152.0724, 195.7061
152.5545, 297.8516
153.0366, 394.4658
153.5188, 482.3760
154.0009, 557.6611
154.4830, 614.3447
154.9651, 661.2510
155.4472, 702.3564
155.9293, 734.4209
156.4115, 765.0039
156.8936, 798.4639
157.3757, 834.7031
157.8578, 866.3076
158.3399, 892.4756
158.8221, 911.3174
159.3042, 922.6406
159.7863, 915.5576
160.2684, 911.7559
160.7505, 923.3691
161.2326, 947.9531
161.7148, 965.0361
162.1969, 965.9463
162.6790, 955.3047
163.1611, 941.8438
163.6432, 921.9707
164.1253, 912.2754
164.6075, 922.8740
165.0896, 939.9775
165.5717, 952.9600
166.0538, 928.8535
166.5359, 870.9502
167.0180, 813.4814
167.5002, 765.6680
167.9823, 722.2686
168.4644, 680.1562
168.9465, 639.4209
169.4286, 597.7090
169.9107, 551.4229
170.3929, 502.9668
170.8750, 456.3730
171.3571, 416.7412
171.8392, 379.1680
172.3213, 338.2305
172.8034, 293.0518
173.2856, 246.3164
173.7677, 199.4932
174.2498, 152.7988
174.7319, 107.7041
175.2140, 60.98047
175.6961, 17.25195
176.1783, 15.55566
176.6604, 34.00000
177.1425, 44.17773
177.6246, 54.45117
178.1067, 63.80078
178.5888, 65.77930
179.0710, 46.00977
179.5531, 15.54785
180.0352, 1.134766
180.5173, 17.47266
180.9994, 44.44336
181.4815, 47.02344
181.9637, 25.81836
182.4458, 0.6513670
182.9279, 6.782227
183.4100, 2.825195
183.8921, 12.42773
184.3742, 49.70215
184.8564, 102.0791
185.3385, 138.1621
185.8206, 157.3799
186.3027, 171.5566
186.7848, 193.2900
187.2669, 221.4492
187.7491, 248.4766
188.2312, 274.5508
188.7133, 297.4727
189.1954, 306.5371
189.6775, 299.2773
190.1596, 288.7676
190.6418, 291.4551
191.1239, 307.0654
191.6060, 324.6455
192.0881, 342.3418
192.5702, 359.3789
193.0524, 368.8955
193.5345, 370.2480
194.0166, 365.7695
194.4987, 356.6084
194.9808, 342.2979
195.4629, 330.3701
195.9451, 323.0332
196.4272, 320.3145
196.9093, 327.6123
197.3914, 348.8984
197.8735, 374.2188
198.3556, 383.3086
198.8378, 374.0557
199.3199, 361.8906
199.8020, 355.5527
200.2841, 355.6650
200.7662, 351.3906
201.2483, 338.7236
201.7305, 324.4092
202.2126, 330.1924
202.6947, 363.1553
203.1768, 389.8936
203.6589, 381.4883
204.1410, 329.3164
204.6232, 305.7617
205.1053, 325.2998
205.5874, 373.9756
206.0695, 406.3975
206.5516, 420.5420
207.0337, 423.8086
207.5159, 418.4375
207.9980, 399.6807
208.4801, 385.1533
208.9622, 375.8174
209.4443, 371.9727
209.9264, 378.5361
210.4086, 401.8486
210.8907, 422.7637
211.3728, 425.4209
211.8549, 405.6504
212.3370, 380.8096
212.8191, 348.0420
213.3013, 310.4736
213.7834, 294.3779
214.2655, 306.4609
214.7476, 329.3145
215.2297, 348.1846
215.7118, 361.7393
216.1940, 375.7402
216.6761, 391.9658
217.1582, 410.2461
217.6403, 425.1299
218.1224, 437.6533
218.6045, 445.1582
219.0867, 442.9932
219.5688, 424.4648
220.0509, 412.3799
220.5330, 413.7754
221.0151, 429.0967
221.4972, 438.6006
221.9794, 442.3115
222.4615, 440.2871
222.9436, 430.7832
223.4257, 406.3340
223.9078, 389.9365
224.3899, 389.5156
224.8721, 406.5752
225.3542, 418.6055
225.8363, 428.0742
226.3184, 430.8252
226.8005, 419.4551
227.2827, 382.3291
227.7648, 353.9727
228.2469, 348.7275
228.7290, 372.7598
229.2111, 369.8770
229.6932, 323.6104
230.1754, 263.7773
230.6575, 229.9961
231.1396, 235.6025
231.6217, 244.4971
232.1038, 249.7588
232.5859, 253.5586
233.0681, 240.1631
233.5502, 198.3076
234.0323, 146.4668
234.5144, 113.1924
234.9965, 107.8574
235.4786, 106.8555
235.9608, 104.9248
236.4429, 103.8164
236.9250, 96.21582
237.4071, 78.96289
237.8892, 57.01660
238.3713, 37.69336
238.8535, 19.47852
239.3356, 6.022461
239.8177, 1.059570
240.2998, 2.105469
240.7819, 5.006836
241.2640, 26.71484
241.7462, 52.75684
242.2283, 62.98730
242.7104, 41.58691
243.1925, 30.63184
243.6746, 48.34766
244.1567, 108.9463
244.6389, 148.6826
245.1210, 157.2656
245.6031, 151.1006
246.0852, 159.3096
246.5673, 188.3721
247.0494, 220.6426
247.5316, 247.4561
248.0137, 261.2070
248.4958, 297.4668
248.9779, 367.9678
249.4600, 454.6025
249.9421, 520.5127
250.4243, 554.1299
250.9064, 586.6074
251.3885, 629.1572
251.8706, 683.9609
252.3527, 742.6494
252.8348, 803.8018
253.3170, 870.3643
253.7991, 949.0176
254.2812, 1043.179
254.7633, 1138.029
255.2454, 1226.739
255.7275, 1303.908
256.2097, 1391.368
256.6918, 1493.705
257.1739, 1602.371
257.6560, 1701.516
258.1381, 1786.066
258.6202, 1874.247
259.1024, 1977.713
259.5845, 2103.870
260.0666, 2208.680
260.5487, 2290.489
261.0308, 2349.708
261.5129, 2391.092
261.9951, 2414.405
262.4772, 2425.003
262.9593, 2424.564
263.4414, 2413.316
263.9235, 2382.579
264.4056, 2329.872
264.8878, 2261.486
265.3699, 2189.723
265.8520, 2119.613
266.3341, 2025.635
266.8162, 1884.750
267.2983, 1684.856
267.7805, 1530.271
268.2626, 1439.702
268.7447, 1379.705
269.2268, 1287.864
269.7089, 1149.671
270.1910, 1014.212
270.6732, 901.7539
271.1553, 815.5771
271.6374, 732.6582
272.1195, 651.8896
272.6016, 576.2432
273.0837, 514.3398
273.5659, 467.7207
274.0480, 424.3564
274.5301, 378.1162
275.0122, 329.2822
275.4943, 289.7705
275.9764, 259.8271
276.4586, 234.7871
276.9407, 206.6729
277.4228, 175.3330
277.9049, 146.4697
278.3870, 119.9639
278.8691, 96.25098
279.3513, 89.65430
279.8334, 105.8740
280.3155, 124.5869
280.7976, 111.6172
281.2798, 65.24316
281.7619, 29.51660
282.2440, 25.57422
282.7261, 48.83398
283.2082, 64.21777
283.6903, 70.52344
284.1725, 73.37207
284.6546, 75.27344
285.1367, 76.65820
285.6188, 90.71484
286.1009, 127.2646
286.5830, 180.7598
287.0652, 226.5713
287.5473, 263.0742
288.0294, 298.8682
288.5115, 349.2139
288.9936, 411.2256
289.4757, 458.1016
289.9579, 468.7539
290.4400, 461.0732
290.9221, 489.4336
291.4042, 555.9736
291.8863, 631.8486
292.3684, 684.3857
292.8506, 719.9668
293.3327, 767.9697
293.8148, 847.3711
294.2969, 939.6299
294.7790, 1009.000
295.2611, 1055.686
295.7433, 1094.766
296.2254, 1155.092
296.7075, 1220.820
297.1896, 1245.271
297.6717, 1208.340
298.1538, 1130.204
298.6360, 1029.996
299.1181, 908.9199
299.6002, 792.1572
300.0823, 702.1836
300.5644, 628.7734
301.0465, 550.1240
301.5287, 452.1943
302.0108, 357.3037
302.4929, 292.8984
302.9750, 255.8174
303.4571, 231.2754
303.9392, 218.3682
304.4214, 208.9570
304.9035, 191.2021
305.3856, 159.5996
305.8677, 123.7617
306.3498, 85.73340
306.8319, 48.95020
307.3141, 25.03906
307.7962, 29.04395
308.2783, 45.74316
308.7604, 62.97363
309.2425, 83.39062
309.7246, 91.76953
310.2068, 68.62305
310.6889, 24.56934
311.1710, 12.96191
311.6531, 29.87402
312.1352, 35.81055
312.6173, 36.37695
313.0995, 30.76367
313.5816, 25.02051
314.0637, 19.89844
314.5458, 16.68652
315.0279, 17.68945
315.5100, 29.78027
315.9922, 41.82129
316.4743, 48.68555
316.9564, 50.14355
317.4385, 44.91992
317.9206, 22.62988
318.4027, 4.351563
318.8849, 18.73242
319.3670, 0.3027340
319.8491, 17.82910
320.3312, 21.38477
320.8133, 6.258789
321.2954, 4.755859
321.7776, 1.020508
322.2597, 6.502930
322.7418, 6.132813
323.2239, 18.79199
323.7060, 36.81250
324.1881, 40.48340
324.6703, 28.99023
325.1524, 10.34277
325.6345, 36.67285
326.1166, 79.01562
326.5987, 90.20508
327.0808, 37.27539
327.5630, 8.213867
328.0451, 38.38281
328.5272, 53.60449
329.0093, 61.10645
329.4914, 51.06348
329.9735, 41.88086
330.4557, 47.64160
330.9378, 90.19824
331.4199, 108.1367
331.9020, 83.24512
332.3841, 27.91797
332.8662, 5.400391
333.3484, 34.30566
333.8305, 68.02051
334.3126, 78.58691
334.7947, 53.52246
335.2768, 44.61035
335.7589, 60.75781
336.2411, 90.92578
336.7232, 106.7979
337.2053, 103.6328
337.6874, 99.43066
338.1695, 104.9727
338.6516, 122.3896
339.1338, 127.5898
339.6159, 114.6631
340.0980, 98.24023
340.5801, 109.0889
341.0622, 151.0947
341.5443, 182.8262
342.0265, 179.8730
342.5086, 147.5029
342.9907, 134.6445
343.4728, 142.2188
343.9549, 166.2207
344.4370, 211.6152
344.9192, 274.8516
345.4013, 324.4062
345.8834, 340.9258
346.3655, 337.4180
346.8476, 346.8975
347.3297, 369.5127
347.8119, 397.2324
348.2940, 419.2783
348.7761, 439.8584
349.2582, 471.9541
349.7403, 527.7373
350.2225, 589.0352
350.7046, 626.9492
351.1867, 644.5000
351.6688, 661.9463
352.1509, 695.4189
352.6331, 737.7979
353.1152, 778.8232
353.5973, 816.9844
354.0794, 851.8711
354.5615, 883.4580
355.0436, 911.5391
355.5258, 935.6084
356.0079, 949.4443
356.4900, 962.4062
356.9721, 985.5869
357.4542, 1025.835
357.9363, 1058.770
358.4185, 1061.031
358.9006, 1047.742
359.3827, 1045.021
359.8648, 1083.768
360.3469, 1119.313
360.8290, 1127.115
361.3112, 1102.416
361.7933, 1069.267
362.2754, 1041.186
362.7575, 1006.394
363.2396, 951.8604
363.7217, 841.7266
364.2039, 745.0146
364.6860, 686.4639
365.1681, 666.5195
365.6502, 639.1963
366.1323, 585.6523
366.6144, 531.3467
367.0966, 493.8398
367.5787, 489.3047
368.0608, 482.3271
368.5429, 467.8799
369.0250, 446.7832
369.5071, 430.8486
369.9893, 429.0986
370.4714, 423.8770
370.9535, 403.5693
371.4356, 349.2402
371.9177, 325.2939
372.3998, 346.7021
372.8820, 391.3711
373.3641, 406.2461
373.8462, 377.5400
374.3283, 355.3320
374.8104, 366.6699
375.2925, 417.4775
375.7747, 437.0967
376.2568, 417.1865
376.7389, 383.0107
377.2210, 365.4551
377.7031, 364.5654
378.1852, 378.1514
378.6674, 416.1826
379.1495, 468.3750
379.6316, 488.5439
380.1137, 473.6221
380.5958, 450.1738
381.0779, 443.0674
381.5601, 448.8008
382.0422, 453.8965
382.5243, 456.6631
383.0064, 455.1035
383.4885, 444.6182
383.9706, 425.4678
384.4528, 399.9863
384.9349, 366.3545
385.4170, 331.5518
385.8991, 305.8750
386.3812, 291.2979
386.8633, 281.9961
387.3455, 277.9434
387.8276, 275.1475
388.3097, 264.7363
388.7918, 232.0527
389.2739, 196.4404
389.7560, 176.5225
390.2382, 174.8740
390.7203, 169.0020
391.2024, 140.4043
391.6845, 104.7627
392.1666, 80.20020
392.6487, 84.97852
393.1309, 90.47070
393.6130, 84.65039
394.0951, 68.33203
394.5772, 53.01074
395.0593, 45.17578
395.5414, 37.02832
396.0236, 23.67578
396.5057, 7.199219
396.9878, 29.53809
397.4699, 38.65332
397.9520, 37.09766
398.4341, 32.87988
398.9163, 23.67871
399.3984, 14.20508
399.8805, 5.614258
400.3626, 3.242188
400.8447, 7.246094
401.3268, 2.749023
401.8090, 3.900391
402.2911, 2.492188
402.7732, 11.09375
403.2553, 21.43750
403.7374, 22.47070
404.2195, 15.06348
404.7017, 15.06348
405.1838, 23.13281
405.6659, 37.03223
406.1480, 55.05078
406.6301, 77.29785
407.1122, 104.3057
407.5944, 139.9619
408.0765, 176.6289
408.5586, 190.6445
409.0407, 182.5693
409.5228, 177.0068
410.0049, 190.7627
410.4871, 219.4697
410.9692, 251.1475
411.4513, 284.3242
411.9334, 322.0527
412.4155, 368.0010
412.8976, 422.2812
413.3798, 482.6318
413.8619, 567.3047
414.3440, 647.6572
414.8261, 687.0732
415.3082, 685.2295
415.7903, 683.7959
416.2725, 710.6553
416.7546, 752.9258
417.2367, 796.9102
417.7188, 834.4648
418.2009, 875.7910
418.6830, 942.1406
419.1652, 1020.671
419.6473, 1061.305
420.1294, 1014.002
420.6115, 949.5791
421.0937, 908.3818
421.5758, 915.2246
422.0579, 904.3818
422.5400, 848.9648
423.0221, 774.6035
423.5042, 722.6699
423.9864, 723.6016
424.4685, 714.6387
424.9506, 676.4902
425.4327, 606.1543
425.9148, 551.7832
426.3969, 522.3320
426.8791, 498.6875
427.3612, 461.6338
427.8433, 401.3125
428.3254, 359.2744
428.8075, 344.3594
429.2896, 350.7031
429.7718, 358.5879
430.2539, 367.3301
430.7360, 381.0508
431.2181, 403.3652
431.7002, 433.7451
432.1823, 463.3301
432.6645, 490.2949
433.1466, 521.2051
433.6287, 564.3955
434.1108, 618.8506
434.5929, 680.7744
435.0750, 753.7432
435.5572, 830.4111
436.0393, 896.6680
436.5214, 952.9229
437.0035, 1008.150
437.4856, 1064.755
437.9677, 1126.836
438.4499, 1196.353
438.9320, 1272.000
439.4141, 1358.136
439.8962, 1461.483
440.3783, 1578.099
440.8604, 1700.217
441.3426, 1812.966
441.8247, 1937.313
442.3068, 2093.339
442.7889, 2292.009
443.2710, 2475.088
443.7531, 2609.079
444.2353, 2726.490
444.7174, 2864.299
445.1995, 3042.514
445.6816, 3222.964
446.1637, 3390.111
446.6458, 3546.513
447.1280, 3742.046
447.6101, 3992.864
448.0922, 4266.172
448.5743, 4542.491
449.0564, 4828.697
449.5385, 5108.662
450.0207, 5379.889
450.5028, 5645.250
450.9849, 5915.073
451.4670, 6192.758
451.9491, 6451.197
452.4312, 6693.029
452.9134, 6910.060
453.3955, 7034.857
453.8776, 7058.959
454.3597, 7049.398
454.8418, 7073.875
455.3239, 7121.061
455.8061, 7140.498
456.2882, 7114.424
456.7703, 7066.187
457.2524, 7027.505
457.7345, 6995.512
458.2166, 6957.816
458.6988, 6912.088
459.1809, 6854.463
459.6630, 6784.953
460.1451, 6704.908
460.6272, 6598.276
461.1093, 6449.926
461.5915, 6271.106
462.0736, 6078.331
462.5557, 5880.579
463.0378, 5666.185
463.5199, 5419.949
464.0020, 5148.857
464.4842, 4894.996
464.9663, 4674.559
465.4484, 4470.592
465.9305, 4274.828
466.4126, 4098.289
466.8947, 3904.989
467.3769, 3680.933
467.8590, 3447.090
468.3411, 3234.348
468.8232, 3047.539
469.3053, 2874.452
469.7874, 2711.125
470.2696, 2557.632
470.7517, 2417.382
471.2338, 2293.962
471.7159, 2173.823
472.1980, 2042.608
472.6801, 1900.426
473.1623, 1778.312
473.6444, 1687.331
474.1265, 1603.312
474.6086, 1473.765
475.0907, 1307.018
475.5728, 1156.883
476.0550, 1048.189
476.5371, 975.2178
477.0192, 942.5088
477.5013, 950.5469
477.9834, 953.8096
478.4655, 911.1113
478.9477, 844.2646
479.4298, 782.7100
479.9119, 742.6250
480.3940, 699.5898
480.8761, 627.8252
481.3582, 541.4141
481.8404, 481.7939
482.3225, 495.0479
482.8046, 511.3613
483.2867, 496.2754
483.7688, 435.9883
484.2509, 382.0576
484.7331, 332.0479
485.2152, 294.0605
485.6973, 277.3340
486.1794, 303.4863
486.6615, 313.3584
487.1436, 293.9014
487.6258, 251.6934
488.1079, 218.5342
488.5900, 197.9648
489.0721, 177.1680
489.5542, 145.5293
490.0363, 102.7158
490.5185, 75.29004
491.0006, 66.24219
491.4827, 65.50293
491.9648, 61.11035
492.4470, 53.81543
492.9291, 48.15723
493.4112, 49.51562
493.8933, 50.08203
494.3754, 31.94531
494.8575, 1.436523
495.3397, 27.48340
495.8218, 23.04102
496.3039, 7.725586
496.7860, 4.809570
497.2681, 21.57520
497.7502, 35.19727
498.2324, 28.07227
498.7145, 12.08984
499.1966, 3.170898
499.6787, 22.58984
500.1608, 33.15723
500.6429, 23.00586
501.1251, 7.396484
501.6072, 46.08008
502.0893, 126.9854
502.5714, 185.8184
503.0535, 188.4941
503.5356, 104.9424
504.0178, 35.94629
504.4999, 19.85645
504.9820, 59.12793
505.4641, 72.61914
505.9462, 54.72168
506.4283, 41.21777
506.9105, 47.49316
507.3926, 64.87500
507.8747, 55.71094
508.3568, 18.72656
508.8389, 23.20996
509.3210, 60.14258
509.8032, 89.42773
510.2853, 101.4863
510.7674, 92.23730
511.2495, 78.21191
511.7316, 75.19824
512.2137, 80.01758
512.6959, 86.09277
513.1780, 82.60254
513.6601, 86.23926
514.1422, 114.0498
514.6243, 162.1924
515.1064, 204.1816
515.5886, 215.4326
516.0707, 228.4990
516.5528, 264.1787
517.0349, 337.6729
517.5170, 401.6738
517.9991, 442.6533
518.4813, 475.8447
518.9634, 520.2080
519.4455, 580.7490
519.9276, 643.8125
520.4097, 706.4980
520.8918, 768.7988
521.3740, 836.9307
521.8561, 909.5645
522.3382, 991.6074
522.8203, 1087.892
523.3024, 1197.087
523.7845, 1312.403
524.2667, 1435.338
524.7488, 1560.075
525.2309, 1680.092
525.7130, 1798.968
526.1951, 1926.123
526.6772, 2066.080
527.1594, 2216.866
527.6415, 2374.351
528.1236, 2538.486
528.6057, 2713.410
529.0878, 2907.526
529.5699, 3107.673
530.0521, 3302.450
530.5342, 3492.835
531.0163, 3675.170
531.4984, 3854.694
531.9805, 4024.784
532.4626, 4179.347
532.9448, 4330.687
533.4269, 4450.246
533.9090, 4539.432
534.3911, 4595.039
534.8732, 4600.741
535.3553, 4549.946
535.8375, 4460.816
536.3196, 4339.775
536.8017, 4184.894
537.2838, 4007.748
537.7659, 3804.432
538.2480, 3586.243
538.7302, 3356.692
539.2123, 3117.743
539.6944, 2896.470
540.1765, 2699.862
540.6586, 2519.973
541.1407, 2343.110
541.6229, 2170.491
542.1050, 1999.398
542.5871, 1804.483
543.0692, 1622.064
543.5513, 1498.098
544.0334, 1435.541
544.5156, 1366.379
544.9977, 1235.691
545.4798, 1098.411
545.9619, 1000.646
546.4440, 990.0684
546.9261, 963.7666
547.4083, 891.2207
547.8904, 794.2080
548.3725, 714.4424
548.8546, 652.6035
549.3367, 607.3408
549.8188, 585.6416
550.3010, 584.0283
550.7831, 558.3311
551.2652, 502.3105
551.7473, 442.8330
552.2294, 396.6016
552.7115, 362.9727
553.1937, 344.0703
553.6758, 345.2109
554.1579, 348.4482
554.6400, 327.7500
555.1221, 288.5244
555.6042, 249.0225
556.0864, 211.1455
556.5685, 184.8857
557.0506, 181.6016
557.5327, 193.2686
558.0148, 200.1133
558.4969, 188.6035
558.9791, 176.4414
559.4612, 174.8838
559.9433, 189.4795
560.4254, 194.9951
560.9075, 186.5176
561.3896, 170.0049
561.8718, 148.2461
562.3539, 103.4434
562.8360, 82.41895
563.3181, 97.29785
563.8002, 134.2676
564.2823, 157.9287
564.7645, 166.8271
565.2466, 164.2109
565.7287, 150.3877
566.2108, 129.5322
566.6929, 109.8477
567.1750, 89.30762
567.6572, 75.41016
568.1393, 79.25977
568.6214, 93.48535
569.1035, 104.3955
569.5856, 110.9512
570.0677, 110.1318
570.5499, 92.51758
571.0320, 67.40039
571.5141, 49.42676
571.9962, 55.37891
572.4783, 58.09668
572.9604, 38.18945
573.4426, 2.500977
573.9247, 14.21680
574.4068, 8.203125
574.8889, 38.06934
575.3710, 66.39062
575.8531, 95.48926
576.3353, 108.6289
576.8174, 104.5400
577.2995, 92.00977
577.7816, 71.58105
578.2637, 40.75586
578.7458, 37.45020
579.2280, 77.67676
579.7101, 130.1582
580.1922, 130.8838
580.6743, 89.30859
581.1564, 57.51367
581.6385, 69.43066
582.1207, 99.90234
582.6028, 118.6777
583.0849, 126.2588
583.5670, 128.3428
584.0491, 127.2607
584.5313, 122.6133
585.0134, 111.7910
585.4955, 89.63184
585.9776, 77.07715
586.4597, 90.52539
586.9418, 111.8525
587.4240, 120.4502
587.9061, 109.3848
588.3882, 96.35938
588.8703, 80.84082
589.3524, 65.23535
589.8345, 57.38379
590.3167, 58.86719
590.7988, 62.08398
591.2809, 63.81543
591.7630, 64.50195
592.2451, 66.23242
592.7272, 69.03613
593.2094, 71.88574
593.6915, 76.42188
594.1736, 79.78906
594.6557, 75.98145
595.1378, 62.70605
595.6199, 47.77734
596.1021, 31.78223
596.5842, 19.19043
597.0663, 16.38770
597.5485, 45.29785
598.0306, 63.37988
598.5127, 44.61523
598.9948, 0.3964840
599.4769, 19.02930
599.9590, 12.26855
600.4412, 40.43555
600.9233, 45.10547
601.4054, 23.95996
601.8875, 20.41699
602.3696, 42.48535
602.8517, 62.47949
603.3339, 47.59766
603.8160, 1.910156
604.2981, 18.70117
604.7802, 6.268555
605.2623, 26.48633
605.7444, 81.98535
606.2266, 146.1172
606.7087, 177.1572
607.1908, 130.1006
607.6729, 76.16992
608.1550, 82.37305
608.6371, 130.4326
609.1193, 161.2969
609.6014, 135.3281
610.0835, 100.0518
610.5656, 75.57422
611.0477, 63.44141
611.5298, 62.16895
612.0120, 89.79688
612.4941, 110.0117
612.9762, 93.19043
613.4583, 22.11328
613.9404, 22.71973
614.4225, 34.18066
614.9047, 25.28906
615.3868, 6.473633
615.8689, 20.64648
616.3510, 28.20020
616.8331, 6.289063
617.3152, 45.75391
617.7974, 14.29980
618.2795, 67.45508
618.7616, 121.4082
619.2437, 74.84766
619.7258, 6.082031
620.2079, 27.27246
620.6901, 21.97363
621.1722, 10.49219
621.6543, 4.572266
622.1364, 16.11133
622.6185, 18.10352
623.1006, 2.470703
623.5828, 4.892578
624.0649, 1.296875
624.5470, 8.049805
625.0291, 18.53223
625.5112, 31.51270
625.9933, 37.90039
626.4755, 34.44531
626.9576, 25.53809
627.4397, 18.82715
627.9218, 14.38477
628.4039, 12.75000
628.8860, 17.90332
629.3682, 24.09375
629.8503, 20.03223
630.3324, 7.618164
630.8145, 1.080078
631.2966, 14.08789
631.7787, 30.55176
632.2609, 44.41113
632.7430, 57.82422
633.2251, 52.33789
633.7072, 3.927734
634.1893, 63.02051
634.6714, 84.34473
635.1536, 50.26270
635.6357, 15.17871
636.1178, 22.32031
636.5999, 52.94531
637.0820, 52.10938
637.5641, 17.91504
638.0463, 5.459961
638.5284, 0.4316410
639.0105, 22.20312
639.4926, 35.45410
639.9747, 40.97461
640.4568, 42.95508
640.9390, 42.61621
641.4211, 40.92578
641.9032, 40.02637
642.3853, 40.05859
642.8674, 35.17871
643.3495, 8.450195
643.8317, 14.20801
644.3138, 12.85938
644.7959, 37.93652
645.2780, 67.17285
645.7601, 63.76074
646.2422, 48.47852
646.7244, 46.89551
647.2065, 62.56641
647.6886, 73.51855
648.1707, 75.84961
648.6528, 71.43457
649.1349, 62.54004
649.6171, 49.61816
650.0992, 35.86719
650.5813, 11.49805
651.0634, 5.909180
651.5455, 14.27441
652.0276, 65.20020
652.5098, 108.8184
652.9919, 133.7979
653.4740, 138.3203
653.9561, 110.7959
654.4382, 40.21973
654.9203, 0.6728520
655.4025, 26.16113
655.8846, 62.07715
656.3667, 63.20410
656.8488, 2.809570
657.3309, 11.54980
657.8130, 40.38867
658.2952, 115.9453
658.7773, 158.0586
659.2594, 168.7725
659.7415, 170.1611
660.2236, 165.5957
660.7057, 159.1162
661.1879, 160.2695
661.6700, 163.9863
662.1521, 158.6172
662.6342, 128.8838
663.1163, 101.0479
663.5984, 94.02441
664.0806, 104.9072
664.5627, 108.1934
665.0448, 86.18262
665.5269, 65.70996
666.0090, 58.35156
666.4911, 65.61914
666.9733, 76.54199
667.4554, 95.95898
667.9375, 109.4131
668.4196, 99.84180
668.9017, 68.28809
669.3839, 48.40723
669.8660, 43.70410
670.3481, 48.44727
670.8302, 63.84668
671.3123, 82.99902
671.7944, 87.64355
672.2766, 64.57520
672.7587, 43.75000
673.2408, 49.90430
673.7229, 71.58789
674.2050, 85.73340
674.6871, 73.93945
675.1693, 63.64355
675.6514, 72.92090
676.1335, 95.89355
676.6156, 101.1768
677.0977, 82.70410
677.5798, 59.70215
678.0620, 35.27441
678.5441, 12.93262
679.0262, 11.82227
679.5083, 33.52344
679.9904, 54.11621
680.4725, 44.47949
680.9547, 23.49316
681.4368, 32.28320
681.9189, 80.22168
682.4010, 118.7676
682.8831, 103.3203
683.3652, 66.64062
683.8474, 41.95996
684.3295, 45.68750
684.8116, 47.27441
685.2937, 33.69922
685.7758, 19.49902
686.2579, 26.93164
686.7401, 69.39746
687.2222, 96.10254
687.7043, 95.28613
688.1864, 75.78906
688.6685, 51.79004
689.1506, 24.60742
689.6328, 13.06250
690.1149, 41.20215
690.5970, 79.68066
691.0791, 76.77734
691.5612, 40.75977
692.0433, 11.51270
692.5255, 25.91602
693.0076, 50.56152
693.4897, 60.90430
693.9718, 52.07129
694.4539, 47.93555
694.9360, 57.91016
695.4182, 67.75586
695.9003, 70.19629
696.3824, 64.84180
696.8645, 51.99121
697.3466, 26.89062
697.8287, 6.725586
698.3109, 12.26465
698.7930, 39.94434
699.2751, 74.48633
699.7572, 116.9590
700.2393, 150.7744
700.7214, 147.5898
701.2036, 125.9668
701.6857, 116.7373
702.1678, 151.3447
702.6499, 177.8350
703.1320, 166.0947
703.6141, 131.7773
704.0963, 114.6992
704.5784, 127.0420
705.0605, 141.2773
705.5426, 153.5420
706.0247, 163.1689
706.5068, 165.5430
706.9890, 159.8604
707.4711, 154.1201
707.9532, 153.5811
708.4353, 155.7930
708.9174, 150.8662
709.3995, 140.3145
709.8817, 137.3389
710.3638, 163.9668
710.8459, 193.8291
711.3280, 200.0928
711.8101, 177.0703
712.2922, 158.4619
712.7744, 159.6357
713.2565, 164.0547
713.7386, 159.4062
714.2207, 137.3311
714.7028, 129.1855
715.1849, 139.8506
715.6671, 155.7744
716.1492, 163.4512
716.6313, 162.8408
717.1134, 152.0146
717.5955, 127.4121
718.0776, 103.1709
718.5598, 97.69238
719.0419, 105.2275
719.5240, 114.3701
720.0061, 115.4932
720.4882, 124.2080
720.9703, 164.6953
721.4525, 217.0039
721.9346, 235.7891
722.4167, 185.9453
722.8988, 139.7939
723.3809, 108.0459
723.8630, 90.16992
724.3452, 86.19727
724.8273, 97.50781
725.3094, 112.8408
725.7915, 129.2168
726.2736, 144.9189
726.7557, 158.3682
727.2379, 168.5898
727.7200, 167.9033
728.2021, 133.0908
728.6842, 98.27930
729.1663, 98.50293
729.6484, 137.8359
730.1306, 164.4951
730.6127, 151.2256
731.0948, 131.3857
731.5769, 123.4580
732.0590, 130.5732
732.5411, 136.6953
733.0233, 141.6348
733.5054, 146.0537
733.9875, 151.3867
734.4696, 157.1729
734.9517, 156.9590
735.4338, 148.0605
735.9160, 145.1641
736.3981, 171.8711
736.8802, 211.4941
737.3623, 238.7920
737.8444, 241.4902
738.3266, 241.8721
738.8087, 242.8799
739.2908, 248.9229
739.7729, 269.1045
740.2551, 319.3506
740.7372, 344.5625
741.2193, 327.0977
741.7014, 293.0332
742.1835, 307.8906
742.6656, 372.3594
743.1478, 410.3779
743.6299, 382.9678
744.1120, 332.8203
744.5941, 332.7344
745.0762, 370.2188
745.5583, 404.4658
746.0405, 405.0723
746.5226, 406.1729
747.0047, 425.2783
747.4868, 461.1631
747.9689, 504.8184
748.4510, 568.8369
748.9332, 621.5674
749.4153, 647.1982
749.8974, 650.0508
750.3795, 676.9795
750.8616, 729.4072
751.3438, 788.6562
751.8259, 845.3574
752.3080, 898.9121
752.7901, 949.0879
753.2722, 995.7734
753.7543, 1041.299
754.2365, 1094.764
754.7186, 1142.629
755.2007, 1164.179
755.6828, 1145.719
756.1649, 1165.342
756.6470, 1272.342
757.1292, 1390.723
757.6113, 1474.301
758.0934, 1513.352
758.5755, 1557.938
759.0576, 1605.659
759.5397, 1668.648
760.0219, 1778.852
760.5040, 1917.444
760.9861, 2010.787
761.4682, 2036.041
761.9503, 2054.338
762.4324, 2108.569
762.9146, 2189.249
763.3967, 2284.698
763.8788, 2411.140
764.3609, 2515.272
764.8430, 2582.033
765.3251, 2626.740
765.8073, 2665.028
766.2894, 2695.355
766.7715, 2727.174
767.2536, 2765.945
767.7357, 2798.092
768.2178, 2793.274
768.7000, 2760.277
769.1821, 2737.464
769.6642, 2748.530
770.1463, 2755.494
770.6284, 2711.386
771.1105, 2641.479
771.5927, 2594.758
772.0748, 2637.343
772.5569, 2644.698
773.0390, 2580.362
773.5211, 2463.221
774.0032, 2330.822
774.4854, 2172.674
774.9675, 2040.328
775.4496, 1956.939
775.9317, 1902.447
776.4138, 1832.248
776.8959, 1747.163
777.3781, 1648.223
777.8602, 1519.850
778.3423, 1391.099
778.8244, 1293.701
779.3065, 1218.674
779.7886, 1126.672
780.2708, 966.4111
780.7529, 829.2490
781.2350, 748.0801
781.7171, 717.0820
782.1992, 684.2998
782.6813, 651.8838
783.1635, 609.9199
783.6456, 544.9814
784.1277, 470.2441
784.6098, 424.2715
785.0919, 403.2432
785.5740, 383.8086
786.0562, 349.9854
786.5383, 310.1465
787.0204, 265.3076
787.5025, 215.7412
787.9846, 186.0381
788.4667, 206.1416
788.9489, 224.5303
789.4310, 218.2705
789.9131, 186.2822
790.3952, 154.6367
790.8773, 122.6934
791.3594, 95.76465
791.8416, 77.32520
792.3237, 66.51074
792.8058, 60.11523
793.2879, 58.25391
793.7700, 62.77441
794.2521, 88.03027
794.7343, 111.0371
795.2164, 110.8828
795.6985, 80.95801
796.1806, 46.71680
796.6627, 10.94141
797.1448, 49.93652
797.6270, 32.08789
798.1091, 54.92871
798.5912, 97.28711
799.0733, 90.43262
799.5554, 61.10742
800.0375, 20.21875
800.5197, 20.38281
801.0018, 35.58008
801.4839, 19.84961
801.9660, 4.741211
802.4481, 39.14941
802.9302, 67.78809
803.4124, 75.41895
803.8945, 43.86133
804.3766, 28.98340
804.8587, 41.34082
805.3408, 56.94141
805.8229, 52.42480
806.3051, 29.01074
806.7872, 6.467773
807.2693, 14.33789
807.7514, 29.17383
808.2335, 36.18945
808.7156, 33.77148
809.1978, 15.87598
809.6799, 26.02246
810.1620, 58.80371
810.6441, 68.69531
811.1262, 62.77539
811.6083, 46.33398
812.0905, 7.641602
812.5726, 12.52344
813.0547, 8.952148
813.5368, 4.899414
814.0189, 14.04590
814.5010, 19.54199
814.9832, 29.09180
815.4653, 45.61328
815.9474, 58.18848
816.4295, 58.06836
816.9116, 47.64355
817.3937, 27.78125
817.8759, 15.69043
818.3580, 39.82812
818.8401, 15.09375
819.3222, 19.21680
819.8043, 22.14746
820.2864, 18.00488
820.7686, 32.95703
821.2507, 12.01074
821.7328, 21.23730
822.2149, 40.87598
822.6970, 48.26367
823.1791, 44.26758
823.6613, 25.16504
824.1434, 7.591797
824.6255, 1.097656
825.1076, 3.073242
825.5897, 10.67188
826.0718, 31.19824
826.5540, 46.80078
827.0361, 59.36914
827.5182, 65.30176
828.0003, 56.75488
828.4824, 34.19727
828.9645, 18.26562
829.4467, 11.17871
829.9288, 15.00977
830.4109, 44.98828
830.8930, 83.22559
831.3751, 100.8037
831.8572, 81.06152
832.3394, 60.79004
832.8215, 47.77832
833.3036, 43.52539
833.7857, 50.99121
834.2678, 79.55664
834.7499, 90.75098
835.2321, 78.59473
835.7142, 56.97754
836.1963, 38.68652
836.6784, 25.97070
837.1605, 25.63379
837.6426, 42.98047
838.1248, 60.48242
838.6069, 64.82129
839.0890, 61.49902
839.5711, 57.01660
840.0532, 57.66699
840.5353, 46.82812
841.0175, 7.674805
841.4996, 26.46973
841.9817, 13.75000
842.4638, 48.29590
842.9459, 88.21484
843.4280, 97.35059
843.9102, 94.76367
844.3923, 103.4844
844.8744, 113.8096
845.3565, 104.7236
845.8386, 61.75000
846.3207, 38.06543
846.8029, 87.32520
847.2850, 144.8623
847.7671, 149.8340
848.2492, 66.35352
848.7313, 31.48828
849.2134, 60.23535
849.6956, 99.96680
850.1777, 87.93555
850.6598, 42.44922
851.1419, 35.54785
851.6240, 80.04004
852.1061, 118.0068
852.5883, 91.06738
853.0704, 46.26270
853.5525, 27.45898
854.0346, 50.39844
854.5167, 72.54980
854.9988, 93.06738
855.4810, 108.6318
855.9631, 114.5254
856.4452, 109.4658
856.9273, 100.0703
857.4094, 85.76855
857.8915, 77.17285
858.3737, 92.59668
858.8558, 113.6455
859.3379, 117.4785
859.8200, 100.2803
860.3021, 80.22852
860.7842, 61.27051
861.2664, 42.47754
861.7485, 20.68066
862.2306, 6.819336
862.7127, 4.509766
863.1948, 33.40039
863.6769, 75.99512
864.1591, 103.8379
864.6412, 119.3115
865.1233, 128.5352
865.6054, 131.4385
866.0875, 127.4727
866.5696, 102.2285
867.0518, 81.62598
867.5339, 88.65430
868.0160, 127.2725
868.4981, 148.6357
868.9802, 143.9492
869.4623, 133.4619
869.9445, 127.0088
870.4266, 123.7842
870.9087, 126.5508
871.3908, 134.7559
871.8729, 135.3359
872.3550, 109.0928
872.8372, 83.74805
873.3193, 87.57031
873.8014, 109.0820
874.2835, 113.8564
874.7656, 64.34180
875.2477, 32.64746
875.7299, 39.23438
876.2120, 75.02148
876.6941, 114.1367
877.1762, 155.9756
877.6583, 187.3594
878.1404, 204.5264
878.6226, 205.1953
879.1047, 173.2607
879.5869, 122.7764
880.0690, 88.60742
880.5511, 86.85742
881.0332, 100.2314
881.5153, 139.1396
881.9974, 184.8037
882.4796, 199.2812
882.9617, 179.5078
883.4438, 148.3213
883.9259, 101.9668
884.4080, 60.62207
884.8901, 60.35254
885.3723, 88.49902
885.8544, 115.9189
886.3365, 124.2754
886.8186, 132.8584
887.3007, 156.1631
887.7828, 180.9834
888.2650, 187.7129
888.7471, 167.2031
889.2292, 150.7031
889.7113, 139.3330
890.1934, 135.7559
890.6755, 143.5078
891.1577, 161.8281
891.6398, 199.0918
892.1219, 266.5059
892.6040, 299.7900
893.0861, 209.3135
893.5682, 89.49902
894.0504, 33.86426
894.5325, 93.40137
895.0146, 117.7656
895.4967, 91.30371
895.9788, 59.03027
896.4609, 63.38281
896.9431, 97.24805
897.4252, 117.1611
897.9073, 120.7930
898.3894, 115.9463
898.8715, 93.22070
899.3536, 73.11621
899.8358, 81.98047
900.3179, 126.0830
900.8000, 161.0654
901.2821, 191.1494
901.7642, 197.9648
902.2463, 159.4717
902.7285, 87.08008
903.2106, 73.64746
903.6927, 116.9092
904.1748, 156.2012
904.6569, 146.6924
905.1390, 121.9053
905.6212, 114.5391
906.1033, 121.9316
906.5854, 129.1514
907.0675, 140.8447
907.5496, 141.6768
908.0317, 122.1777
908.5139, 91.47168
908.9960, 82.13965
909.4781, 98.89160
909.9602, 109.9023
910.4423, 93.81836
910.9244, 71.16016
911.4066, 57.40430
911.8887, 55.03027
912.3708, 61.66016
912.8529, 81.86621
913.3350, 101.3965
913.8171, 125.0166
914.2993, 143.5967
914.7814, 140.4180
915.2635, 113.2041
915.7456, 95.97852
916.2277, 95.69727
916.7098, 96.68555
917.1920, 72.15625
917.6741, 40.47852
918.1562, 31.52734
918.6383, 58.73926
919.1204, 81.63672
919.6025, 86.94434
920.0847, 83.05762
920.5668, 74.21484
921.0489, 58.72852
921.5310, 69.75977
922.0131, 111.6357
922.4952, 139.6973
922.9774, 97.44336
923.4595, 28.27930
923.9416, 1.279297
924.4237, 17.70410
924.9058, 29.12500
925.3879, 1.936523
925.8701, 19.00098
926.3522, 11.66309
926.8343, 19.66406
927.3164, 41.06543
927.7985, 52.78809
928.2806, 53.67578
928.7628, 39.95898
929.2449, 18.05469
929.7270, 17.08496
930.2091, 52.39453
930.6912, 53.74414
931.1733, 37.86523
931.6555, 111.4570
932.1376, 127.5996
932.6197, 107.9004
933.1018, 82.19922
933.5839, 49.21484
934.0660, 27.91797
934.5482, 23.26172
935.0303, 23.91211
935.5124, 14.03125
935.9945, 0.3222660
936.4766, 9.154297
936.9587, 11.17383
937.4409, 4.867188
937.9230, 23.81250
938.4051, 50.66016
938.8872, 55.57422
939.3693, 34.03711
939.8514, 14.32031
940.3336, 4.966797
940.8157, 10.68750
941.2978, 29.32227
941.7799, 79.21484
942.2620, 73.06055
942.7441, 12.07812
943.2263, 21.76758
943.7084, 27.38672
944.1905, 85.98242
944.6726, 131.1504
945.1547, 161.0977
945.6368, 155.7168
946.1190, 112.1543
946.6011, 82.89844
947.0832, 103.2734
947.5653, 137.4375
948.0474, 136.3594
948.5295, 111.5410
949.0117, 89.75391
949.4938, 78.29492
949.9759, 73.38672
950.4580, 71.84766
950.9401, 77.66992
951.4222, 102.6055
951.9044, 146.6523
952.3865, 174.6270
952.8686, 179.8926
953.3507, 166.7656
953.8328, 120.3105
954.3149, 67.81055
954.7971, 45.12891
955.2792, 65.63281
955.7613, 91.66602
956.2434, 126.5000
956.7255, 153.8047
957.2076, 164.6309
957.6898, 159.3574
958.1719, 139.2637
958.6540, 104.4199
959.1361, 74.54102
959.6182, 69.73633
960.1003, 70.73242
960.5825, 55.69141
961.0646, 28.35156
961.5467, 14.81641
962.0288, 30.89062
962.5109, 43.20898
962.9930, 40.75586
963.4752, 32.21289
963.9573, 44.47266
964.4394, 72.68945
964.9215, 88.77344
965.4036, 85.67969
965.8857, 62.79102
966.3679, 13.06250
966.8500, 95.22266
967.3321, 119.7070
967.8142, 18.50195
968.2963, 27.42188
968.7784, 1.542969
969.2606, 48.79492
969.7427, 59.51367
970.2248, 40.45312
970.7069, 8.689453
971.1890, 33.81836
971.6711, 60.95703
972.1533, 38.75195
972.6354, 8.802734
973.1175, 1.564453
973.5996, 8.537109
974.0817, 23.89258
974.5638, 47.92188
975.0460, 64.52734
975.5281, 64.63867
976.0102, 55.17188
976.4923, 43.79297
976.9744, 34.86133
977.4565, 42.28906
977.9387, 100.9238
978.4208, 143.3242
978.9029, 134.1289
979.3850, 100.5840
979.8671, 76.25195
980.3492, 60.86719
980.8314, 58.27539
981.3135, 70.15039
981.7956, 84.21094
982.2777, 91.01367
982.7598, 92.81055
983.2419, 89.51758
983.7241, 79.97852
984.2062, 78.50586
984.6883, 100.7305
985.1704, 121.6191
985.6525, 133.9980
986.1346, 136.3809
986.6168, 104.6094
987.0989, 39.68164
987.5810, 14.18555
988.0631, 33.76367
988.5452, 26.05664
989.0273, 26.78516
989.5095, 99.75977
989.9916, 139.3926
990.4737, 111.0938
990.9558, 85.79492
991.4379, 69.36914
991.9200, 62.18945
992.4022, 69.00195
992.8843, 87.02734
993.3664, 105.1992
993.8485, 121.8496
994.3306, 132.4492
994.8127, 131.9043
995.2949, 126.2930
995.7770, 119.8633
996.2591, 110.7773
996.7412, 107.8848
997.2233, 112.3418
997.7054, 117.9141
998.1876, 128.3164
998.6697, 134.3770
999.1518, 102.8223
999.6339, 44.54102
1000.116, 9.820313
1000.598, 48.77734
1001.080, 80.29297
1001.562, 66.60547
1002.044, 37.08789
1002.527, 61.43750
1003.009, 146.2910
1003.491, 179.5039
1003.973, 131.5137
1004.455, 64.33984
1004.937, 37.71094
1005.419, 37.11719
1005.901, 46.43555
1006.384, 64.35547
1006.866, 87.03711
1007.348, 127.4043
1007.830, 151.4648
1008.312, 131.2871
1008.794, 77.13477
1009.276, 51.39453
1009.758, 51.29492
1010.240, 52.72852
1010.723, 36.47656
1011.205, 22.44922
1011.687, 32.21680
1012.169, 52.91406
1012.651, 46.55273
1013.133, 6.373047
1013.615, 27.42188
1014.097, 2.337891
1014.580, 48.18555
1015.062, 62.12695
1015.544, 56.75586
1016.026, 55.98828
1016.508, 64.98828
1016.990, 73.85547
1017.472, 75.41406
1017.954, 79.21094
1018.436, 96.13281
1018.919, 124.1836
1019.401, 112.2988
1019.883, 60.31055
1020.365, 24.34961
1020.847, 54.13281
1021.329, 100.8926
1021.811, 115.7520
1022.293, 109.2969
1022.776, 108.8887
1023.258, 141.5566
1023.740, 137.1836
1024.222, 64.37109
1024.704, 11.98047
1025.186, 38.75586
1025.668, 177.4570
1026.150, 223.9922
1026.632, 146.5469
1027.115, 71.61523
1027.597, 84.97266
1028.079, 125.3457
1028.561, 155.6914
1029.043, 174.0352
1029.525, 174.6641
1030.007, 154.3418
1030.489, 142.4961
1030.972, 155.1328
1031.454, 180.8809
1031.936, 218.1543
1032.418, 254.5703
1032.900, 263.1582
1033.382, 195.2930
1033.864, 157.7305
1034.346, 173.7480
1034.828, 205.6562
1035.311, 216.5801
1035.793, 206.6895
1036.275, 164.7207
1036.757, 89.28320
1037.239, 33.57031
1037.721, 45.07227
1038.203, 81.08789
1038.685, 116.4863
1039.167, 149.7676
1039.650, 187.2969
1040.132, 234.9688
1040.614, 256.8027
1041.096, 229.7969
1041.578, 188.3711
1042.060, 194.5605
1042.542, 225.1270
1043.024, 234.5820
1043.507, 188.4219
1043.989, 163.3828
1044.471, 188.5762
1044.953, 220.9043
1045.435, 221.6289
1045.917, 194.3496
1046.399, 196.7578
1046.881, 228.5918
1047.364, 258.1855
1047.846, 263.4141
1048.328, 260.0859
1048.810, 256.8730
1049.292, 254.0957
1049.774, 251.2324
1050.256, 247.9707
1050.738, 245.3594
1051.220, 243.0449
1051.703, 243.0273
1052.185, 250.7422
1052.667, 261.7344
1053.149, 267.2695
1053.631, 263.4160
1054.113, 264.7988
1054.595, 285.3496
1055.077, 299.8398
1055.559, 287.4785
1056.042, 256.4121
1056.524, 270.6152
1057.006, 324.4883
1057.488, 372.0762
1057.970, 382.5234
1058.452, 384.8770
1058.934, 402.4902
1059.416, 422.8828
1059.899, 419.2715
1060.381, 377.2109
1060.863, 363.3047
1061.345, 386.2832
1061.827, 423.7812
1062.309, 467.5430
1062.791, 504.0605
1063.273, 500.2090
1063.755, 455.3066
1064.238, 439.8457
1064.720, 498.7715
1065.202, 557.2832
1065.684, 592.5312
1066.166, 613.1406
1066.648, 646.1094
1067.130, 686.4668
1067.612, 712.7246
1068.094, 712.4805
1068.577, 709.8965
1069.059, 724.7910
1069.541, 740.7031
1070.023, 737.7871
1070.505, 707.5723
1070.987, 713.1191
1071.469, 757.9375
1071.951, 803.4336
1072.434, 808.4434
1072.916, 809.3105
1073.398, 863.8477
1073.880, 953.5156
1074.362, 1010.842
1074.844, 999.3262
1075.326, 992.6621
1075.808, 998.1348
1076.291, 1014.635
1076.773, 1049.611
1077.255, 1093.637
1077.737, 1112.811
1078.219, 1100.383
1078.701, 1099.354
1079.183, 1148.240
1079.665, 1196.797
1080.147, 1217.201
1080.630, 1215.463
1081.112, 1222.262
1081.594, 1238.131
1082.076, 1283.008
1082.558, 1380.910
1083.040, 1479.604
1083.522, 1518.574
1084.004, 1532.434
1084.486, 1580.924
1084.969, 1697.453
1085.451, 1774.369
1085.933, 1799.605
1086.415, 1814.734
1086.897, 1851.553
1087.379, 1906.416
1087.861, 1974.537
1088.343, 2047.049
1088.826, 2105.977
1089.308, 2125.686
1089.790, 2166.205
1090.272, 2247.203
1090.754, 2333.375
1091.236, 2366.928
1091.718, 2359.986
1092.200, 2373.318
1092.682, 2417.963
1093.165, 2450.178
1093.647, 2424.137
1094.129, 2393.693
1094.611, 2396.510
1095.093, 2426.635
1095.575, 2443.020
1096.057, 2445.377
1096.539, 2441.219
1097.022, 2435.900
1097.504, 2428.393
1097.986, 2411.002
1098.468, 2383.416
1098.950, 2357.719
1099.432, 2346.807
1099.914, 2305.424
1100.396, 2222.441
1100.879, 2147.238
1101.361, 2121.191
1101.843, 2125.264
1102.325, 2120.945
1102.807, 2112.893
1103.289, 2119.602
1103.771, 2168.742
1104.253, 2208.637
1104.735, 2226.076
1105.218, 2227.318
1105.700, 2225.727
1106.182, 2220.521
1106.664, 2206.414
1107.146, 2183.256
1107.628, 2141.939
1108.110, 2059.650
1108.592, 1974.709
1109.074, 1910.193
1109.557, 1860.711
1110.039, 1814.014
1110.521, 1770.324
1111.003, 1689.920
1111.485, 1548.012
1111.967, 1406.025
1112.449, 1347.842
1112.931, 1308.732
1113.414, 1210.816
1113.896, 1031.861
1114.378, 871.8750
1114.860, 730.7949
1115.342, 609.4766
1115.824, 509.1113
1116.306, 427.6074
1116.788, 361.3359
1117.271, 311.6875
1117.753, 280.6621
1118.235, 294.1328
1118.717, 285.9746
1119.199, 240.1992
1119.681, 194.5938
1120.163, 191.0898
1120.645, 216.5586
1121.127, 240.0762
1121.609, 257.9961
1122.092, 253.6953
1122.574, 201.3965
1123.056, 144.8184
1123.538, 85.82031
1124.020, 40.70508
1124.502, 54.09766
1124.984, 117.7715
1125.466, 161.8535
1125.949, 172.2266
1126.431, 170.3477
1126.913, 161.4238
1127.395, 153.9219
1127.877, 161.9707
1128.359, 180.5098
1128.841, 154.8770
1129.323, 81.09375
1129.806, 37.00391
1130.288, 63.94531
1130.770, 103.6074
1131.252, 85.17969
1131.734, 49.41797
1132.216, 55.49414
1132.698, 131.8125
1133.180, 165.2559
1133.662, 147.9160
1134.145, 119.8945
1134.627, 103.1191
1135.109, 93.68164
1135.591, 89.82812
1136.073, 88.16992
1136.555, 80.24023
1137.037, 56.49609
1137.519, 35.38477
1138.001, 14.41992
1138.484, 3.863281
1138.966, 31.28906
1139.448, 73.11133
1139.930, 57.36914
1140.412, 11.27930
1140.894, 55.44141
1141.376, 10.15039
1141.858, 20.18945
1142.341, 0.1191410
1142.823, 41.14844
1143.305, 41.96094
1143.787, 14.09180
1144.269, 16.18359
1144.751, 61.88281
1145.233, 93.45508
1145.715, 57.73047
1146.198, 19.67188
1146.680, 22.71289
1147.162, 52.53906
1147.644, 32.05273
1148.126, 33.90430
1148.608, 77.08008
1149.090, 69.28320
1149.572, 52.30859
1150.054, 61.37891
1150.536, 73.72852
1151.019, 63.05469
1151.501, 26.10352
1151.983, 17.63672
1152.465, 39.02930
1152.947, 53.85938
1153.429, 41.84180
1153.911, 15.15625
1154.393, 37.62109
1154.876, 89.84180
1155.358, 88.16797
1155.840, 5.783203
1156.322, 51.93164
1156.804, 81.84570
1157.286, 94.56836
1157.768, 88.16211
1158.250, 76.77539
1158.733, 79.78906
1159.215, 93.76953
1159.697, 105.4629
1160.179, 125.7598
1160.661, 110.2227
1161.143, 41.08398
1161.625, 28.98633
1162.107, 31.11133
1162.589, 3.255859
1163.072, 23.60938
1163.554, 26.04883
1164.036, 24.67969
1164.518, 9.966797
1165.000, 16.81836
1165.482, 63.38281
1165.964, 120.1367
1166.446, 132.8164
1166.928, 113.8789
1167.411, 85.43750
1167.893, 47.68750
1168.375, 29.96484
1168.857, 58.02148
1169.339, 88.42188
1169.821, 107.1621
1170.303, 114.9980
1170.785, 111.8438
1171.268, 99.72266
1171.750, 83.82422
1172.232, 60.93164
1172.714, 47.37500
1173.196, 62.01367
1173.678, 76.11133
1174.160, 69.93945
1174.642, 47.47852
1175.125, 31.11523
1175.607, 22.96680
1176.089, 35.46680
1176.571, 103.1855
1177.053, 154.9219
1177.535, 137.2383
1178.017, 105.4609
1178.499, 118.5312
1178.981, 175.6230
1179.464, 178.0840
1179.946, 128.8008
1180.428, 92.60156
1180.910, 129.2656
1181.392, 169.7402
1181.874, 172.4258
1182.356, 158.0898
1182.838, 162.0781
1183.320, 185.8086
1183.803, 186.5605
1184.285, 159.9688
1184.767, 138.4258
1185.249, 165.4590
1185.731, 196.3340
1186.213, 191.4688
1186.695, 167.3105
1187.177, 177.2246
1187.660, 221.8887
1188.142, 244.7539
1188.624, 236.6777
1189.106, 218.4609
1189.588, 191.2344
1190.070, 168.8262
1190.552, 169.7227
1191.034, 189.0938
1191.516, 185.0801
1191.999, 152.8125
1192.481, 147.4375
1192.963, 187.9668
1193.445, 239.8379
1193.927, 284.4375
1194.409, 312.1367
1194.891, 305.3809
1195.373, 262.9199
1195.855, 236.8008
1196.338, 228.3457
1196.820, 224.6348
1197.302, 226.5977
1197.784, 218.9141
1198.266, 157.8164
1198.748, 88.13281
1199.230, 83.44922
1199.712, 161.1035
1200.195, 212.5254
1200.677, 234.3379
1201.159, 237.0879
1201.641, 216.5430
1202.123, 191.4570
1202.605, 189.6250
1203.087, 195.3359
1203.569, 182.7402
1204.052, 134.1895
1204.534, 110.4180
1205.016, 111.3262
1205.498, 128.3906
1205.980, 180.5605
1206.462, 222.7402
1206.944, 175.1035
1207.426, 85.01562
1207.908, 71.27539
1208.391, 185.5918
1208.873, 235.2012
1209.355, 203.5156
1209.837, 156.5879
1210.319, 143.6582
1210.801, 151.5195
1211.283, 183.5312
1211.765, 224.2773
1212.247, 213.2754
1212.730, 118.9512
1213.212, 73.45117
1213.694, 103.2520
1214.176, 145.7383
1214.658, 134.5137
1215.140, 108.7012
1215.622, 121.8594
1216.104, 165.9160
1216.587, 174.4805
1217.069, 127.0723
1217.551, 107.7773
1218.033, 137.0977
1218.515, 168.0742
1218.997, 139.3672
1219.479, 86.30664
1219.961, 49.51758
1220.443, 36.20508
1220.926, 50.53320
1221.408, 101.2598
1221.890, 137.4980
1222.372, 145.4043
1222.854, 140.5352
1223.336, 140.0293
1223.818, 136.9336
1224.300, 119.2754
1224.782, 85.38867
1225.265, 71.89258
1225.747, 82.26367
1226.229, 96.40430
1226.711, 111.1855
1227.193, 121.7969
1227.675, 114.0488
1228.157, 104.0117
1228.639, 115.7246
1229.122, 155.0586
1229.604, 170.6250
1230.086, 160.4277
1230.568, 137.2207
1231.050, 96.10156
1231.532, 65.37695
1232.014, 95.31250
1232.496, 144.6836
1232.979, 160.2461
1233.461, 134.3164
1233.943, 113.5371
1234.425, 99.62500
1234.907, 96.32227
1235.389, 111.2324
1235.871, 122.4512
1236.353, 91.40625
1236.835, 50.62500
1237.318, 47.65820
1237.800, 90.38281
1238.282, 112.1719
1238.764, 112.1094
1239.246, 111.6934
1239.728, 138.2793
1240.210, 149.4141
1240.692, 79.73242
1241.175, 11.50977
1241.657, 40.97852
1242.139, 2.861328
1242.621, 46.86133
1243.103, 91.75586
1243.585, 107.9297
1244.067, 43.76172
1244.549, 18.05078
1245.031, 8.316406
1245.514, 30.71484
1245.996, 30.94336
1246.478, 14.89258
1246.960, 8.021484
1247.442, 97.52344
1247.924, 170.3359
1248.406, 154.2090
1248.888, 126.1875
1249.370, 119.0254
1249.853, 131.8359
1250.335, 175.2148
1250.817, 246.2344
1251.299, 259.7422
1251.781, 215.2188
1252.263, 163.2637
1252.745, 117.3730
1253.227, 92.29102
1253.710, 102.8066
1254.192, 131.0723
1254.674, 165.1699
1255.156, 200.8047
1255.638, 195.3613
1256.120, 150.3711
1256.602, 118.2715
1257.084, 158.6914
1257.567, 177.8906
1258.049, 131.5684
1258.531, 65.29492
1259.013, 36.73438
1259.495, 42.29102
1259.977, 83.00000
1260.459, 153.5703
1260.941, 198.9961
1261.423, 168.5059
1261.906, 143.2910
1262.388, 142.1055
1262.870, 151.7539
1263.352, 165.1484
1263.834, 171.2559
1264.316, 125.5176
1264.798, 32.27344
1265.280, 15.06836
1265.762, 53.76367
1266.245, 100.8379
1266.727, 95.54102
1267.209, 75.09961
1267.691, 96.21484
1268.173, 134.8262
1268.655, 145.6914
1269.137, 126.6387
1269.619, 116.4883
1270.102, 118.7031
1270.584, 132.9102
1271.066, 161.5977
1271.548, 192.8594
1272.030, 224.9180
1272.512, 241.5723
1272.994, 208.9258
1273.476, 130.3516
1273.958, 88.78711
1274.441, 87.92188
1274.923, 120.9629
1275.405, 195.0566
1275.887, 263.2852
1276.369, 282.6328
1276.851, 270.1621
1277.333, 225.5898
1277.815, 158.8633
1278.297, 113.0586
1278.780, 104.9941
1279.262, 116.2227
1279.744, 141.1992
1280.226, 159.2363
1280.708, 128.2773
1281.190, 103.8867
1281.672, 137.0625
1282.154, 202.3926
1282.637, 201.1758
1283.119, 142.6016
1283.601, 118.8789
1284.083, 154.7363
1284.565, 186.5020
1285.047, 166.8301
1285.529, 142.8457
1286.011, 141.1836
1286.494, 149.8262
1286.976, 127.8848
1287.458, 87.42188
1287.940, 66.33594
1288.422, 72.85742
1288.904, 87.69727
1289.386, 117.5176
1289.868, 135.2969
1290.350, 130.4785
1290.833, 111.8691
1291.315, 51.56641
1291.797, 20.19727
1292.279, 35.54102
1292.761, 27.14648
1293.243, 59.20508
1293.725, 35.86914
1294.207, 15.17188
1294.689, 14.20508
1295.172, 28.63672
1295.654, 64.11133
1296.136, 103.0527
1296.618, 116.3730
1297.100, 96.97461
1297.582, 113.6836
1298.064, 177.9863
1298.546, 200.4355
1299.029, 139.1719
1299.511, 72.04492
1299.993, 98.60156
1300.475, 146.3398
1300.957, 130.9805
1301.439, 64.88867
1301.921, 54.41016
1302.403, 97.30664
1302.885, 118.4824
1303.368, 78.76367
1303.850, 41.90234
1304.332, 105.2168
1304.814, 151.3203
1305.296, 110.9414
1305.778, 18.93555
1306.260, 6.623047
1306.742, 54.42188
1307.224, 81.31055
1307.707, 62.68359
1308.189, 51.10742
1308.671, 80.19141
1309.153, 104.5664
1309.635, 105.0156
1310.117, 94.06836
1310.599, 95.72656
1311.081, 107.5020
1311.564, 92.18750
1312.046, 38.58789
1312.528, 5.416016
1313.010, 1.226563
1313.492, 16.34961
1313.974, 22.02539
1314.456, 0.0000000E+00
##END=



