##NAMES=Marialite
##RRUFFID=R060526
##IDEAL CHEMISTRY=Na_4_Al_3_Si_9_O_24_Cl
##LOCALITY=Minas Gerais, Brazil
##OWNER=RRUFF
##SOURCE=Michael Scott
##DESCRIPTION=Heavily striated pale yellow elongated prism
##STATUS=The identification of this mineral has been confirmed by X-ray diffraction and chemical analysis
##URL=rruff.info/R060526
##MEASURED CHEMISTRY=(Na_0.62_Ca_0.33_K_0.05_)_4_(Si_0.66_Al_0.34_)_12_O_24_(Cl_0.77_(CO_3_)_0.23_)
134.0535, 0.0000000E+00
134.5356, 2.246735
135.0178, 1.192017
135.4999, 1.994354
135.9820, 0.8574220
136.4641, 0.5998540
136.9462, 2.140747
137.4283, 0.8070070
137.9105, 3.670837
138.3926, 10.30896
138.8747, 17.47937
139.3568, 25.19836
139.8389, 33.54913
140.3210, 42.28601
140.8032, 51.16962
141.2853, 61.96844
141.7674, 74.90997
142.2495, 89.52997
142.7316, 103.6629
143.2137, 114.2739
143.6959, 122.2948
144.1780, 132.3380
144.6601, 145.8246
145.1422, 158.1436
145.6243, 168.9471
146.1064, 178.5711
146.5886, 188.7687
147.0707, 200.0871
147.5528, 211.3336
148.0349, 221.6333
148.5170, 230.6847
148.9991, 239.4008
149.4813, 247.0081
149.9634, 253.8710
150.4455, 262.8302
150.9276, 276.5040
151.4097, 290.4984
151.8918, 301.7693
152.3740, 308.8420
152.8561, 315.2724
153.3382, 320.8922
153.8203, 325.7058
154.3024, 331.4772
154.7845, 339.3900
155.2667, 347.6467
155.7488, 355.0359
156.2309, 360.4154
156.7130, 365.7211
157.1951, 371.4269
157.6772, 377.5444
158.1594, 383.5053
158.6415, 389.7910
159.1236, 395.5924
159.6057, 400.1434
160.0878, 402.5137
160.5699, 404.2671
161.0521, 406.3303
161.5342, 408.9483
162.0163, 409.9337
162.4984, 408.1562
162.9805, 404.4085
163.4626, 399.6969
163.9448, 395.2997
164.4269, 389.3813
164.9090, 380.4935
165.3911, 368.0876
165.8732, 355.2357
166.3553, 344.2400
166.8375, 333.7438
167.3196, 321.4989
167.8017, 304.5883
168.2838, 286.7789
168.7659, 270.8491
169.2480, 257.5479
169.7302, 244.4261
170.2123, 229.2477
170.6944, 212.8939
171.1765, 197.6206
171.6586, 184.7336
172.1407, 173.2590
172.6229, 161.9271
173.1050, 150.2771
173.5871, 139.4960
174.0692, 130.7824
174.5513, 123.8538
175.0334, 118.0294
175.5156, 113.4591
175.9977, 109.5580
176.4798, 105.5817
176.9619, 101.2588
177.4440, 97.02771
177.9261, 93.36230
178.4083, 90.22467
178.8904, 87.51111
179.3725, 84.83441
179.8546, 82.57941
180.3367, 81.69427
180.8188, 82.73987
181.3010, 84.53015
181.7831, 85.31598
182.2652, 85.22815
182.7473, 85.38043
183.2294, 86.81653
183.7115, 89.14374
184.1937, 91.20520
184.6758, 92.71814
185.1579, 94.10999
185.6400, 95.94452
186.1221, 98.20691
186.6042, 101.1007
187.0864, 105.0150
187.5685, 109.3211
188.0506, 112.4785
188.5327, 113.7469
189.0148, 113.8169
189.4969, 114.4794
189.9791, 116.0701
190.4612, 117.8085
190.9433, 119.7239
191.4254, 121.8901
191.9075, 122.4964
192.3896, 121.2758
192.8718, 118.9099
193.3539, 117.4611
193.8360, 117.0521
194.3181, 116.5953
194.8002, 114.7177
195.2823, 111.5140
195.7645, 109.2750
196.2466, 108.7587
196.7287, 109.5271
197.2108, 109.8593
197.6929, 109.6799
198.1750, 109.3273
198.6572, 109.0859
199.1393, 108.9462
199.6214, 108.8180
200.1035, 108.6085
200.5856, 108.3707
201.0677, 108.4981
201.5499, 109.0587
202.0320, 109.7537
202.5141, 110.2103
202.9962, 110.3649
203.4783, 110.9315
203.9604, 112.4521
204.4426, 114.6781
204.9247, 115.2365
205.4068, 113.7747
205.8889, 111.5746
206.3710, 110.1866
206.8531, 110.0368
207.3353, 108.5449
207.8174, 104.8503
208.2995, 99.12189
208.7816, 93.51465
209.2637, 88.08533
209.7458, 82.77026
210.2280, 77.49805
210.7101, 72.21057
211.1922, 67.08978
211.6743, 61.88361
212.1564, 56.67694
212.6385, 53.21417
213.1207, 52.12787
213.6028, 51.80316
214.0849, 50.44250
214.5670, 47.53247
215.0491, 45.20227
215.5313, 44.04108
216.0134, 44.03796
216.4955, 43.85748
216.9776, 43.25415
217.4597, 42.80804
217.9418, 43.26221
218.4240, 45.09900
218.9061, 46.55090
219.3882, 47.14093
219.8703, 46.85620
220.3524, 46.72858
220.8345, 46.79877
221.3167, 46.96997
221.7988, 47.26300
222.2809, 48.02844
222.7630, 48.03778
223.2451, 46.65753
223.7272, 43.84308
224.2094, 42.49304
224.6915, 43.45886
225.1736, 44.91699
225.6557, 45.07532
226.1378, 43.70123
226.6199, 41.49908
227.1021, 38.29083
227.5842, 34.04187
228.0663, 30.68060
228.5484, 28.53168
229.0305, 26.87146
229.5126, 25.04230
229.9948, 23.00623
230.4769, 20.87280
230.9590, 18.61420
231.4411, 16.23669
231.9232, 13.82526
232.4053, 11.11072
232.8875, 8.614075
233.3696, 6.894653
233.8517, 6.591064
234.3338, 5.797729
234.8159, 4.034790
235.2980, 1.317993
235.7802, 0.9244380
236.2623, 2.519104
236.7444, 3.816345
237.2265, 5.076355
237.7086, 6.228638
238.1907, 7.493530
238.6729, 9.090820
239.1550, 10.96149
239.6371, 12.05341
240.1192, 12.06207
240.6013, 11.64178
241.0834, 11.30383
241.5656, 11.18158
242.0477, 10.91357
242.5298, 10.53308
243.0119, 10.01758
243.4940, 9.002441
243.9761, 7.096985
244.4583, 5.170959
244.9404, 3.907104
245.4225, 3.881470
245.9046, 3.356567
246.3867, 2.024719
246.8688, 4.6999999E-03
247.3510, 2.012329
247.8331, 4.201843
248.3152, 6.216492
248.7973, 7.658875
249.2794, 7.866516
249.7615, 8.759583
250.2437, 10.71405
250.7258, 13.56958
251.2079, 16.30914
251.6900, 18.45428
252.1721, 21.16931
252.6542, 25.22296
253.1364, 31.27179
253.6185, 36.86780
254.1006, 41.71875
254.5827, 46.16199
255.0648, 51.27148
255.5469, 57.30060
256.0291, 63.14429
256.5112, 68.31335
256.9933, 72.65247
257.4754, 76.95264
257.9575, 80.88336
258.4396, 84.82941
258.9218, 89.97729
259.4039, 97.04645
259.8860, 104.0154
260.3681, 110.0004
260.8502, 114.7930
261.3323, 119.4442
261.8145, 124.4634
262.2966, 129.0294
262.7787, 131.2368
263.2608, 130.3986
263.7429, 128.6315
264.2250, 126.8738
264.7072, 125.4412
265.1893, 122.5596
265.6714, 117.8145
266.1535, 111.9456
266.6356, 106.3765
267.1177, 101.3540
267.5999, 95.81134
268.0820, 88.98389
268.5641, 80.42053
269.0462, 73.80322
269.5283, 69.83539
270.0104, 66.87695
270.4926, 62.08246
270.9747, 54.60474
271.4568, 48.21454
271.9389, 44.41284
272.4210, 43.26111
272.9031, 41.75482
273.3853, 39.75299
273.8674, 37.67133
274.3495, 36.13611
274.8316, 35.24878
275.3137, 34.29755
275.7958, 32.91357
276.2780, 31.17664
276.7601, 30.12396
277.2422, 29.70074
277.7243, 30.06317
278.2064, 31.73291
278.6885, 34.91345
279.1707, 37.51495
279.6528, 38.84131
280.1349, 39.19562
280.6170, 40.02484
281.0991, 41.28070
281.5812, 43.24774
282.0634, 46.44415
282.5455, 50.95935
283.0276, 55.11267
283.5097, 58.42627
283.9918, 61.28125
284.4739, 64.94489
284.9561, 69.50519
285.4382, 74.23907
285.9203, 78.81921
286.4024, 83.17352
286.8845, 86.84363
287.3666, 89.63184
287.8488, 91.78717
288.3309, 94.10895
288.8130, 96.61957
289.2951, 98.02356
289.7772, 97.19916
290.2593, 94.40833
290.7415, 91.15051
291.2236, 87.61652
291.7057, 83.63239
292.1878, 78.57391
292.6699, 72.55322
293.1520, 66.86383
293.6342, 61.76642
294.1163, 57.47363
294.5984, 55.17804
295.0805, 55.13202
295.5626, 56.17847
296.0447, 57.37982
296.5269, 58.57220
297.0090, 59.03174
297.4911, 58.30292
297.9732, 56.71838
298.4553, 55.11804
298.9374, 53.58612
299.4196, 51.09882
299.9017, 46.09613
300.3838, 39.25952
300.8659, 32.44220
301.3480, 25.98486
301.8301, 20.28949
302.3123, 15.99225
302.7944, 13.00525
303.2765, 10.74207
303.7586, 9.258179
304.2407, 8.201904
304.7228, 6.800049
305.2050, 4.229736
305.6871, 1.670471
306.1692, 0.8268430
306.6513, 1.434631
307.1334, 2.005920
307.6155, 1.503662
308.0977, 0.4104610
308.5798, 0.7344360
309.0619, 2.035706
309.5440, 2.963440
310.0261, 2.655212
310.5082, 1.531250
310.9904, 0.8686520
311.4725, 2.235168
311.9546, 3.893372
312.4367, 4.048340
312.9188, 1.897278
313.4009, 9.5702998E-02
313.8831, 9.1858000E-02
314.3652, 1.125732
314.8473, 2.067505
315.3294, 2.416748
315.8115, 2.057556
316.2936, 0.6833500
316.7758, 1.898010
317.2579, 4.369934
317.7400, 6.088867
318.2221, 7.414185
318.7042, 8.848633
319.1863, 11.34638
319.6685, 13.27869
320.1506, 13.61902
320.6327, 12.30774
321.1148, 11.39172
321.5969, 11.05090
322.0790, 11.56458
322.5612, 13.17303
323.0433, 17.04553
323.5254, 20.83020
324.0075, 23.95819
324.4896, 26.50470
324.9717, 28.99030
325.4539, 31.80054
325.9360, 34.40558
326.4181, 36.45703
326.9002, 36.75629
327.3823, 38.01642
327.8644, 40.90601
328.3466, 44.94763
328.8287, 48.67725
329.3108, 51.84216
329.7929, 54.93213
330.2750, 58.02557
330.7571, 61.11743
331.2393, 64.32892
331.7214, 68.24817
332.2035, 72.07892
332.6856, 74.39697
333.1677, 74.13074
333.6498, 73.93329
334.1320, 74.58936
334.6141, 76.21375
335.0962, 77.70160
335.5783, 79.91254
336.0604, 81.09741
336.5425, 78.99945
337.0247, 71.89874
337.5068, 65.89905
337.9889, 62.53131
338.4710, 61.43054
338.9531, 59.04382
339.4352, 54.82581
339.9174, 50.60370
340.3995, 48.40222
340.8816, 48.81250
341.3637, 47.41827
341.8458, 42.82715
342.3279, 36.78418
342.8101, 33.96588
343.2922, 34.72699
343.7743, 35.75079
344.2564, 35.27502
344.7385, 33.40704
345.2206, 31.96796
345.7028, 31.02582
346.1849, 30.49615
346.6670, 30.48010
347.1491, 30.97571
347.6312, 31.68213
348.1133, 32.66504
348.5955, 33.76550
349.0776, 34.31244
349.5597, 34.24957
350.0418, 34.30548
350.5239, 35.42786
351.0060, 37.30969
351.4882, 38.91583
351.9703, 39.69238
352.4524, 40.22412
352.9345, 41.27356
353.4166, 42.83557
353.8987, 44.84448
354.3809, 47.41675
354.8630, 50.35303
355.3451, 53.29950
355.8272, 56.21619
356.3093, 59.06689
356.7914, 61.48956
357.2736, 63.78412
357.7557, 66.69971
358.2378, 71.83405
358.7199, 77.00732
359.2020, 80.29608
359.6841, 81.31897
360.1663, 81.35913
360.6484, 81.04559
361.1305, 80.22760
361.6126, 78.69818
362.0947, 76.39386
362.5768, 73.34467
363.0590, 69.37482
363.5411, 64.47314
364.0232, 59.29651
364.5053, 53.88519
364.9874, 48.47424
365.4695, 43.20966
365.9517, 37.31549
366.4338, 32.38855
366.9159, 28.91766
367.3980, 26.70599
367.8801, 24.94904
368.3622, 23.92297
368.8444, 23.07935
369.3265, 22.08246
369.8086, 20.96313
370.2907, 19.61615
370.7728, 17.65039
371.2549, 15.74243
371.7371, 14.92242
372.2192, 15.66461
372.7013, 16.69714
373.1834, 17.91718
373.6655, 19.49445
374.1476, 20.14423
374.6298, 19.18036
375.1119, 18.14166
375.5940, 18.84448
376.0761, 22.20935
376.5582, 24.23303
377.0403, 23.92596
377.5225, 21.82117
378.0046, 20.13184
378.4867, 18.78162
378.9688, 18.15106
379.4509, 18.91119
379.9330, 21.09448
380.4152, 22.41736
380.8973, 22.57965
381.3794, 22.04065
381.8615, 21.50574
382.3436, 20.95758
382.8257, 20.20740
383.3079, 18.96417
383.7900, 17.42871
384.2721, 16.36615
384.7542, 15.81079
385.2363, 15.32648
385.7184, 14.64209
386.2006, 13.70123
386.6827, 12.27484
387.1648, 9.825073
387.6469, 7.368835
388.1290, 6.431091
388.6111, 6.796387
389.0933, 7.189941
389.5754, 6.943726
390.0575, 6.215576
390.5396, 5.050171
391.0217, 3.209778
391.5038, 1.713135
391.9860, 1.546204
392.4681, 2.194824
392.9502, 2.733337
393.4323, 2.501038
393.9144, 2.221313
394.3965, 2.638672
394.8787, 3.863037
395.3608, 4.093567
395.8429, 1.559204
396.3250, 1.718811
396.8071, 3.940247
397.2892, 3.737061
397.7714, 3.494019
398.2535, 3.816406
398.7356, 4.560791
399.2177, 5.026184
399.6998, 5.610840
400.1819, 5.504089
400.6641, 4.140564
401.1462, 2.4400000E-04
401.6283, 2.216675
402.1104, 1.286316
402.5925, 1.010925
403.0746, 1.927979
403.5568, 0.8027950
404.0389, 0.5031130
404.5210, 1.589539
405.0031, 2.452393
405.4852, 3.091370
405.9673, 3.505920
406.4495, 3.699158
406.9316, 3.467957
407.4137, 2.667480
407.8958, 2.700134
408.3779, 4.010498
408.8600, 6.040710
409.3422, 7.385864
409.8243, 8.006042
410.3064, 8.483398
410.7885, 8.742249
411.2706, 9.041809
411.7527, 10.87140
412.2349, 14.49768
412.7170, 18.47601
413.1991, 21.18738
413.6812, 22.84308
414.1633, 23.98419
414.6454, 24.15704
415.1276, 24.40015
415.6097, 26.49268
416.0918, 30.16620
416.5739, 33.68658
417.0560, 35.83875
417.5381, 37.18475
418.0203, 38.45789
418.5024, 39.95581
418.9845, 40.99994
419.4666, 40.67480
419.9487, 39.62195
420.4308, 39.03027
420.9130, 40.26874
421.3951, 41.33850
421.8772, 40.91162
422.3593, 38.75183
422.8414, 37.35614
423.3235, 38.07721
423.8057, 39.47760
424.2878, 40.39148
424.7699, 39.89038
425.2520, 39.79071
425.7341, 40.42114
426.2162, 41.62079
426.6984, 42.88727
427.1805, 43.98438
427.6626, 45.39441
428.1447, 47.40662
428.6268, 50.24103
429.1089, 52.78302
429.5911, 54.97424
430.0732, 56.97607
430.5553, 59.12738
431.0374, 61.58685
431.5195, 63.49548
432.0016, 64.53577
432.4838, 64.88873
432.9659, 65.20660
433.4480, 65.34131
433.9301, 66.33142
434.4122, 69.24817
434.8943, 73.84961
435.3765, 78.30151
435.8586, 82.28717
436.3407, 86.53369
436.8228, 92.55304
437.3049, 99.93182
437.7870, 106.6842
438.2692, 111.0586
438.7513, 114.7616
439.2334, 120.4801
439.7155, 128.1184
440.1976, 135.8799
440.6797, 141.6584
441.1619, 147.1384
441.6440, 154.5690
442.1261, 165.3471
442.6082, 176.4167
443.0903, 185.1343
443.5724, 192.8235
444.0546, 202.3378
444.5367, 216.2114
445.0188, 230.9094
445.5009, 244.2639
445.9830, 255.4579
446.4651, 269.6055
446.9473, 288.3590
447.4294, 310.1459
447.9115, 333.5020
448.3936, 358.2433
448.8757, 384.7643
449.3578, 414.2505
449.8400, 445.2955
450.3221, 474.9200
450.8042, 501.9722
451.2863, 529.6023
451.7684, 559.8396
452.2505, 593.4854
452.7327, 625.0796
453.2148, 654.8020
453.6969, 681.8732
454.1790, 704.5401
454.6611, 722.9729
455.1432, 737.4758
455.6254, 747.3727
456.1075, 753.7193
456.5896, 759.0369
457.0717, 763.3806
457.5538, 765.8887
458.0359, 766.5494
458.5181, 765.0261
459.0002, 760.2560
459.4823, 751.8255
459.9644, 740.8451
460.4465, 728.9928
460.9286, 715.3389
461.4108, 698.4178
461.8929, 676.7887
462.3750, 652.3599
462.8571, 625.8469
463.3392, 597.4016
463.8214, 568.8694
464.3035, 540.8652
464.7856, 512.9125
465.2677, 484.3334
465.7498, 454.2711
466.2319, 425.7661
466.7141, 400.2031
467.1962, 376.4879
467.6783, 352.8925
468.1604, 328.0352
468.6425, 304.8291
469.1246, 284.1227
469.6068, 265.7272
470.0889, 247.3554
470.5710, 227.9613
471.0531, 209.9930
471.5352, 194.9984
472.0173, 183.4928
472.4995, 172.7749
472.9816, 163.1408
473.4637, 153.7715
473.9458, 143.1168
474.4279, 130.9859
474.9100, 120.0587
475.3922, 111.3792
475.8743, 104.4436
476.3564, 97.91168
476.8385, 91.78247
477.3206, 85.76514
477.8027, 79.24066
478.2849, 72.75885
478.7670, 67.66077
479.2491, 64.28247
479.7312, 61.55194
480.2133, 58.75519
480.6954, 55.83423
481.1776, 52.67706
481.6597, 48.68359
482.1418, 44.91278
482.6239, 42.32935
483.1060, 40.72882
483.5881, 38.75964
484.0703, 35.21832
484.5524, 31.59839
485.0345, 28.85181
485.5166, 27.50067
485.9987, 26.21100
486.4808, 25.50696
486.9630, 24.55487
487.4451, 22.13385
487.9272, 15.98651
488.4093, 11.64899
488.8914, 10.77783
489.3735, 12.88708
489.8557, 13.40491
490.3378, 11.79919
490.8199, 9.889709
491.3020, 8.679321
491.7841, 8.192566
492.2662, 8.291138
492.7484, 9.204163
493.2305, 10.06128
493.7126, 9.307251
494.1947, 7.172668
494.6768, 5.434875
495.1589, 4.788025
495.6411, 4.738159
496.1232, 4.305969
496.6053, 3.591919
497.0874, 3.266968
497.5695, 4.225586
498.0516, 5.574585
498.5338, 6.344543
499.0159, 6.379028
499.4980, 5.950806
499.9801, 4.559326
500.4622, 3.039185
500.9443, 2.376526
501.4265, 4.400879
501.9086, 5.724792
502.3907, 4.821960
502.8728, 2.268799
503.3549, 0.4638060
503.8370, 0.7363890
504.3192, 0.8941040
504.8013, 3.3570000E-03
505.2834, 2.349609
505.7655, 3.883484
506.2476, 4.401550
506.7297, 4.321106
507.2119, 3.950378
507.6940, 3.203857
508.1761, 2.615417
508.6582, 2.319519
509.1403, 2.176819
509.6224, 1.787537
510.1046, 1.148438
510.5867, 0.6673580
511.0688, 0.6712650
511.5509, 0.9943240
512.0330, 1.181335
512.5151, 1.223022
512.9973, 1.058411
513.4794, 0.6590580
513.9615, 1.3550000E-02
514.4436, 1.037170
514.9257, 2.825439
515.4078, 4.335632
515.8900, 4.465698
516.3721, 3.811096
516.8542, 3.513794
517.3363, 3.831665
517.8184, 4.768433
518.3005, 6.393066
518.7827, 8.699402
519.2648, 11.33032
519.7469, 15.07874
520.2290, 18.48743
520.7111, 20.61829
521.1932, 19.97986
521.6754, 21.12817
522.1575, 24.61853
522.6396, 29.57690
523.1217, 34.92297
523.6038, 40.84998
524.0859, 45.96423
524.5681, 49.51416
525.0502, 52.16003
525.5323, 56.29517
526.0144, 61.98535
526.4965, 68.40515
526.9786, 75.51758
527.4608, 83.03711
527.9429, 89.70874
528.4250, 95.44470
528.9071, 101.4706
529.3892, 108.8169
529.8713, 117.3145
530.3535, 126.5129
530.8356, 136.4674
531.3177, 147.0063
531.7998, 158.2527
532.2819, 170.0376
532.7640, 181.3923
533.2462, 191.7166
533.7283, 202.0457
534.2104, 213.5994
534.6925, 226.6222
535.1746, 237.1329
535.6567, 244.6293
536.1389, 249.5699
536.6210, 252.1431
537.1031, 252.8412
537.5852, 250.0712
538.0673, 243.0973
538.5494, 233.2869
539.0316, 222.7317
539.5137, 211.3521
539.9958, 199.1932
540.4779, 185.9655
540.9600, 172.1301
541.4421, 159.0139
541.9243, 146.6522
542.4064, 134.6538
542.8885, 122.5806
543.3706, 110.8468
543.8527, 99.95544
544.3348, 89.88208
544.8170, 81.51086
545.2991, 76.60327
545.7812, 73.44019
546.2633, 69.82263
546.7454, 64.77625
547.2275, 59.62866
547.7097, 54.58301
548.1918, 49.82336
548.6739, 45.84875
549.1560, 43.01624
549.6381, 40.69653
550.1202, 38.86707
550.6024, 37.54236
551.0845, 36.11072
551.5666, 34.77087
552.0487, 33.05603
552.5308, 30.48792
553.0129, 26.78284
553.4951, 23.66956
553.9772, 21.17432
554.4593, 19.34412
554.9414, 18.63745
555.4235, 18.92871
555.9056, 18.63635
556.3878, 17.03906
556.8699, 14.89270
557.3520, 13.32727
557.8341, 12.29187
558.3162, 11.59595
558.7983, 11.20679
559.2805, 11.08020
559.7626, 11.40979
560.2447, 12.21973
560.7268, 12.45117
561.2089, 11.10156
561.6910, 9.297852
562.1732, 7.937256
562.6553, 7.508667
563.1374, 6.868896
563.6195, 5.590332
564.1016, 4.240234
564.5837, 3.674927
565.0659, 4.533936
565.5480, 5.066406
566.0301, 4.764526
566.5122, 3.803467
566.9943, 3.074219
567.4764, 2.598755
567.9586, 2.404785
568.4407, 2.772339
568.9228, 3.473145
569.4049, 3.154907
569.8870, 1.703613
570.3691, 0.2591550
570.8513, 4.8096001E-02
571.3334, 0.4526370
571.8155, 1.158081
572.2976, 2.111938
572.7797, 2.817505
573.2618, 2.858643
573.7440, 2.507446
574.2261, 1.906494
574.7082, 0.7685550
575.1903, 2.5630000E-03
575.6724, 0.2019040
576.1545, 1.278687
576.6367, 2.014038
577.1188, 2.046753
577.6009, 1.727051
578.0830, 1.357422
578.5651, 1.028076
579.0472, 0.2791750
579.5294, 1.200684
580.0115, 2.507813
580.4936, 2.606323
580.9757, 1.446899
581.4578, 0.5029300
581.9399, 3.4545999E-02
582.4221, 0.2608640
582.9042, 0.8305660
583.3863, 1.634521
583.8684, 2.595215
584.3505, 3.965698
584.8326, 5.218994
585.3148, 5.755127
585.7969, 5.668945
586.2790, 5.349365
586.7611, 4.092163
587.2432, 3.331665
587.7253, 4.445923
588.2075, 8.029541
588.6896, 10.47107
589.1717, 10.53662
589.6538, 9.578613
590.1359, 8.538330
590.6180, 7.097412
591.1002, 6.023560
591.5823, 5.399902
592.0644, 5.171265
592.5465, 5.500977
593.0286, 6.576416
593.5107, 6.786621
593.9929, 5.226685
594.4750, 2.906494
594.9571, 2.718750
595.4392, 4.459106
595.9213, 6.023071
596.4034, 6.001099
596.8856, 5.172363
597.3677, 4.484009
597.8498, 3.992188
598.3319, 3.669556
598.8140, 3.202515
599.2961, 3.058960
599.7783, 3.702759
600.2604, 5.557861
600.7425, 7.407471
601.2246, 9.528564
601.7067, 11.26526
602.1888, 11.65857
602.6710, 9.176514
603.1531, 7.935913
603.6352, 8.924072
604.1173, 11.30127
604.5994, 12.63672
605.0815, 12.80811
605.5637, 12.40649
606.0458, 11.43445
606.5279, 10.11572
607.0100, 9.335205
607.4921, 9.096802
607.9742, 9.143799
608.4564, 9.179810
608.9385, 9.458862
609.4206, 10.57764
609.9027, 12.80835
610.3848, 14.56812
610.8669, 14.40833
611.3491, 13.48364
611.8312, 12.98950
612.3133, 13.40625
612.7954, 13.98340
613.2775, 15.04602
613.7596, 16.03772
614.2418, 15.87854
614.7239, 13.49976
615.2060, 11.79761
615.6881, 11.78906
616.1702, 12.90417
616.6523, 12.10693
617.1345, 9.027832
617.6166, 6.282104
618.0987, 5.720703
618.5808, 6.737061
619.0629, 7.020020
619.5450, 6.548340
620.0272, 5.729736
620.5093, 4.637939
620.9914, 3.511230
621.4735, 2.607544
621.9556, 1.915039
622.4377, 1.685425
622.9199, 2.012085
623.4020, 2.898560
623.8841, 4.324097
624.3662, 7.826660
624.8483, 9.956665
625.3304, 9.542480
625.8126, 7.561401
626.2947, 6.135620
626.7768, 5.490967
627.2589, 4.904297
627.7410, 3.901978
628.2231, 2.703125
628.7053, 3.534424
629.1874, 6.681641
629.6695, 8.629639
630.1516, 5.598267
630.6337, 5.4320998E-02
631.1158, 1.888428
631.5980, 0.1187740
632.0801, 1.976563
632.5622, 2.001221
633.0443, 0.9987790
633.5264, 4.5166001E-02
634.0085, 1.244995
634.4907, 1.623779
634.9728, 0.1779790
635.4549, 2.558228
635.9370, 3.607544
636.4191, 1.733276
636.9012, 0.7664790
637.3834, 0.7687990
637.8655, 1.175049
638.3476, 1.184448
638.8297, 0.7987060
639.3118, 0.5271000
639.7939, 0.5076900
640.2761, 0.6253660
640.7582, 0.5673830
641.2403, 0.4310300
641.7224, 0.5438230
642.2045, 1.458130
642.6866, 2.642822
643.1688, 3.279663
643.6509, 3.351807
644.1330, 3.348022
644.6151, 4.003052
645.0972, 4.469360
645.5793, 3.895630
646.0615, 1.458862
646.5436, 0.3170170
647.0257, 1.097290
647.5078, 1.003662
647.9899, 4.8799999E-04
648.4720, 2.504883
648.9542, 4.515259
649.4363, 5.870728
649.9184, 6.632324
650.4005, 7.090210
650.8826, 7.223267
651.3647, 6.454468
651.8469, 3.789063
652.3290, 0.9334720
652.8111, 1.193237
653.2932, 4.003418
653.7753, 6.929321
654.2574, 9.117310
654.7396, 10.51379
655.2217, 10.67517
655.7038, 9.677002
656.1859, 8.977783
656.6680, 9.333252
657.1501, 9.867676
657.6323, 10.10742
658.1144, 10.02344
658.5965, 9.858887
659.0786, 9.608154
659.5607, 9.349121
660.0428, 9.276611
660.5250, 9.450684
661.0071, 9.050415
661.4892, 7.911865
661.9713, 6.604370
662.4534, 5.801514
662.9355, 5.419800
663.4177, 5.206787
663.8998, 5.046997
664.3819, 5.095337
664.8640, 5.889160
665.3461, 6.925781
665.8282, 7.254761
666.3104, 5.636353
666.7925, 4.185547
667.2746, 3.860107
667.7567, 4.406250
668.2388, 4.203735
668.7209, 2.397949
669.2031, 1.213013
669.6852, 1.550903
670.1673, 3.324341
670.6494, 5.221558
671.1315, 7.302002
671.6136, 9.151978
672.0958, 10.81665
672.5779, 11.99304
673.0600, 11.36182
673.5421, 8.789795
674.0242, 6.297485
674.5063, 5.476929
674.9885, 5.590942
675.4706, 5.619995
675.9527, 5.059326
676.4348, 5.536377
676.9169, 8.831299
677.3990, 12.80908
677.8812, 15.07056
678.3633, 14.83252
678.8454, 14.16577
679.3275, 13.29004
679.8096, 12.02319
680.2917, 9.493408
680.7739, 5.562622
681.2560, 3.265625
681.7381, 4.095581
682.2202, 6.324341
682.7023, 6.762207
683.1844, 5.682251
683.6666, 4.064575
684.1487, 1.567749
684.6308, 0.5620120
685.1129, 1.178467
685.5950, 0.4747310
686.0771, 0.4281010
686.5593, 1.926392
687.0414, 2.832764
687.5235, 2.046143
688.0056, 0.6771240
688.4877, 1.839233
688.9698, 0.9635010
689.4520, 0.5827640
689.9341, 1.832153
690.4162, 2.725586
690.8983, 3.625488
691.3804, 4.554932
691.8625, 5.298706
692.3447, 6.431030
692.8268, 7.288208
693.3089, 5.513916
693.7910, 0.1790770
694.2731, 4.783447
694.7552, 3.400391
695.2374, 0.4656980
695.7195, 2.753174
696.2016, 0.7883300
696.6837, 0.7403560
697.1658, 1.533447
697.6479, 1.412842
698.1301, 0.2598880
698.6122, 4.498657
699.0943, 7.217041
699.5764, 7.192261
700.0585, 5.622192
700.5406, 5.701172
701.0228, 7.186768
701.5049, 7.488892
701.9870, 4.081055
702.4691, 1.1841000E-02
702.9512, 0.3989260
703.4333, 2.178345
703.9155, 4.807251
704.3976, 6.973633
704.8797, 7.986450
705.3618, 6.969482
705.8439, 4.006592
706.3260, 2.003174
706.8082, 1.352539
707.2903, 1.439575
707.7724, 2.033813
708.2545, 3.145996
708.7366, 4.797852
709.2188, 7.208740
709.7009, 9.047607
710.1830, 8.691650
710.6651, 6.845337
711.1472, 5.610107
711.6293, 5.146240
712.1115, 5.262207
712.5936, 6.497314
713.0757, 7.900757
713.5578, 8.216309
714.0399, 6.580933
714.5220, 5.615845
715.0042, 6.918213
715.4863, 8.866943
715.9684, 9.777100
716.4505, 9.278564
716.9326, 8.563354
717.4147, 7.716431
717.8969, 6.695557
718.3790, 5.099976
718.8611, 2.989624
719.3432, 1.852417
719.8253, 2.266113
720.3074, 3.316650
720.7896, 3.723389
721.2717, 3.788086
721.7538, 4.293457
722.2359, 5.944336
722.7180, 7.706787
723.2001, 9.473022
723.6823, 10.95325
724.1644, 11.12488
724.6465, 8.472900
725.1286, 6.328979
725.6107, 5.817383
726.0928, 6.456421
726.5750, 5.465210
727.0571, 2.440308
727.5392, 0.5251460
728.0213, 2.084229
728.5034, 5.598877
728.9855, 6.874634
729.4677, 6.120361
729.9498, 4.985352
730.4319, 4.560059
730.9140, 4.171265
731.3961, 2.525757
731.8782, 0.4265140
732.3604, 1.103271
732.8425, 4.680420
733.3246, 10.23669
733.8067, 11.99927
734.2888, 9.309937
734.7709, 6.767944
735.2531, 4.001587
735.7352, 2.270874
736.2173, 3.364624
736.6994, 6.675415
737.1815, 8.166870
737.6636, 7.507935
738.1458, 6.125244
738.6279, 5.146484
739.1100, 4.294556
739.5921, 2.990601
740.0742, 0.7344970
740.5563, 0.4324950
741.0385, 1.159058
741.5206, 3.737549
742.0027, 5.623047
742.4848, 6.772827
742.9669, 6.941772
743.4490, 5.922729
743.9312, 4.371582
744.4133, 2.856323
744.8954, 1.394287
745.3775, 0.7835690
745.8596, 1.183350
746.3417, 2.227417
746.8239, 4.429077
747.3060, 6.966187
747.7881, 8.041016
748.2702, 6.004395
748.7523, 3.947144
749.2344, 3.063721
749.7166, 3.223267
750.1987, 4.206421
750.6808, 7.386353
751.1629, 9.164429
751.6450, 7.796875
752.1271, 5.197632
752.6093, 8.000244
753.0914, 16.82141
753.5735, 22.92871
754.0556, 22.26050
754.5377, 18.65710
755.0198, 18.75037
755.5020, 21.55554
755.9841, 23.86023
756.4662, 22.68152
756.9483, 21.70349
757.4304, 23.68494
757.9125, 27.76636
758.3947, 30.77393
758.8768, 31.27966
759.3589, 31.72119
759.8410, 32.41284
760.3231, 33.42908
760.8052, 35.25610
761.2874, 38.04993
761.7695, 41.07373
762.2516, 44.17432
762.7337, 47.27844
763.2158, 49.67346
763.6979, 51.71350
764.1801, 55.21045
764.6622, 63.98877
765.1443, 72.37744
765.6264, 75.57971
766.1085, 73.67322
766.5906, 73.01306
767.0728, 75.21790
767.5549, 78.27197
768.0370, 81.73401
768.5191, 85.56726
769.0012, 88.33203
769.4833, 89.87073
769.9655, 91.05200
770.4476, 92.34900
770.9297, 93.78857
771.4118, 95.69897
771.8939, 98.05420
772.3760, 99.88599
772.8582, 99.80579
773.3403, 99.49402
773.8224, 100.4774
774.3045, 103.1300
774.7866, 104.8032
775.2687, 105.4879
775.7509, 104.6671
776.2330, 101.4066
776.7151, 95.20251
777.1972, 92.01172
777.6793, 92.62390
778.1614, 93.09314
778.6436, 89.59912
779.1257, 83.33936
779.6078, 77.06750
780.0899, 70.98962
780.5720, 64.59351
781.0541, 56.03625
781.5363, 47.93787
782.0184, 43.07800
782.5005, 43.14087
782.9826, 41.20386
783.4647, 35.17969
783.9468, 28.75842
784.4290, 24.63757
784.9111, 23.16248
785.3932, 20.48779
785.8753, 16.26843
786.3574, 12.50061
786.8395, 11.80640
787.3217, 12.90833
787.8038, 12.98669
788.2859, 11.55530
788.7680, 9.962891
789.2501, 8.796631
789.7322, 7.891113
790.2144, 7.096558
790.6965, 6.336426
791.1786, 6.121948
791.6607, 7.028198
792.1428, 7.887939
792.6249, 7.152466
793.1071, 4.823120
793.5892, 4.898926
794.0713, 8.024780
794.5534, 11.40173
795.0355, 12.18372
795.5176, 11.29407
795.9998, 9.873291
796.4819, 7.916748
796.9640, 7.068604
797.4461, 9.398193
797.9282, 12.47217
798.4103, 13.92834
798.8925, 12.35889
799.3746, 12.22705
799.8567, 14.32397
800.3388, 16.52502
800.8209, 15.88367
801.3030, 12.79907
801.7852, 12.49524
802.2673, 15.80151
802.7494, 20.08276
803.2315, 23.28516
803.7136, 25.54333
804.1957, 26.73865
804.6779, 26.37500
805.1600, 26.65320
805.6421, 29.28943
806.1242, 32.24792
806.6063, 33.57678
807.0884, 31.98633
807.5706, 32.57861
808.0527, 36.22974
808.5348, 39.86487
809.0169, 39.80200
809.4990, 36.82483
809.9811, 34.58984
810.4633, 33.77454
810.9454, 32.43152
811.4275, 27.79956
811.9096, 22.36682
812.3917, 19.09595
812.8738, 19.70300
813.3560, 19.28674
813.8381, 16.43066
814.3202, 12.88867
814.8023, 9.990356
815.2844, 7.891968
815.7665, 5.279175
816.2487, 1.759766
816.7308, 0.8341060
817.2129, 0.4133300
817.6950, 3.770264
818.1771, 5.400391
818.6592, 4.553833
819.1414, 3.322388
819.6235, 2.739502
820.1056, 2.483887
820.5877, 2.312378
821.0698, 2.229248
821.5519, 2.123291
822.0341, 1.852295
822.5162, 1.819824
822.9983, 2.685669
823.4804, 4.395020
823.9625, 4.984375
824.4446, 4.296509
824.9268, 3.192871
825.4089, 1.734619
825.8910, 0.6777340
826.3731, 1.260010
826.8552, 3.861450
827.3373, 6.140381
827.8195, 7.861328
828.3016, 8.459106
828.7837, 7.443481
829.2658, 4.340698
829.7479, 1.976807
830.2300, 0.3715820
830.7122, 0.4074710
831.1943, 0.3121340
831.6764, 0.6721190
832.1585, 3.535522
832.6406, 8.283447
833.1227, 11.37732
833.6049, 9.326538
834.0870, 5.291260
834.5691, 0.9910890
835.0512, 3.692383
835.5333, 5.482788
836.0154, 2.317139
836.4976, 1.111328
836.9797, 2.192505
837.4618, 0.9637450
837.9439, 0.6975100
838.4260, 1.390381
838.9081, 2.708130
839.3903, 5.318359
839.8724, 7.940796
840.3545, 8.298218
840.8366, 6.550659
841.3187, 5.234009
841.8008, 6.587158
842.2830, 7.627930
842.7651, 6.711182
843.2472, 4.013184
843.7293, 1.461426
844.2114, 1.264893
844.6935, 2.638062
845.1757, 1.216431
845.6578, 1.845215
846.1399, 3.217651
846.6220, 3.076660
847.1041, 2.488159
847.5862, 1.897095
848.0684, 1.209351
848.5505, 7.9223998E-02
849.0326, 1.704834
849.5147, 2.102905
849.9968, 0.1234130
850.4789, 1.653931
850.9611, 2.840576
851.4432, 3.038086
851.9253, 1.953247
852.4074, 0.3289790
852.8895, 0.9970700
853.3716, 2.485352
853.8538, 6.555054
854.3359, 6.341431
854.8180, 3.333618
855.3001, 1.046753
855.7822, 0.6325680
856.2643, 1.276978
856.7465, 3.748901
857.2286, 6.775146
857.7107, 7.899780
858.1928, 6.739014
858.6749, 5.272339
859.1570, 3.656738
859.6392, 2.585205
860.1213, 3.518311
860.6034, 5.628662
861.0855, 7.224243
861.5676, 7.850342
862.0497, 7.832520
862.5319, 7.213257
863.0140, 6.124512
863.4961, 4.642212
863.9782, 2.208984
864.4603, 0.6252440
864.9424, 5.2979000E-02
865.4246, 0.2070310
865.9067, 0.5429690
866.3888, 1.202759
866.8709, 3.654297
867.3530, 8.502563
867.8351, 12.63684
868.3173, 13.15491
868.7994, 11.80835
869.2815, 10.12793
869.7636, 7.559570
870.2457, 7.261597
870.7278, 11.61902
871.2100, 15.70227
871.6921, 15.15955
872.1742, 9.765747
872.6563, 7.370728
873.1384, 8.281250
873.6205, 9.834595
874.1027, 9.885254
874.5848, 9.206177
875.0669, 9.050171
875.5490, 9.475830
876.0311, 9.208740
876.5132, 7.036133
876.9954, 4.750854
877.4775, 3.039673
877.9596, 1.910522
878.4417, 1.813477
878.9238, 2.924927
879.4059, 4.116089
879.8881, 4.911743
880.3702, 5.246094
880.8523, 4.335693
881.3344, 2.657471
881.8165, 2.210327
882.2986, 5.678101
882.7808, 8.930786
883.2629, 9.319580
883.7450, 7.722412
884.2271, 7.808350
884.7092, 10.82983
885.1913, 11.72656
885.6735, 8.317383
886.1556, 3.143066
886.6377, 2.196289
887.1198, 4.303955
887.6019, 5.282959
888.0840, 2.522949
888.5662, 0.1176760
889.0483, 2.8320000E-02
889.5304, 1.915283
890.0125, 3.919678
890.4946, 7.145996
890.9767, 8.404297
891.4589, 6.810547
891.9410, 4.079102
892.4231, 2.399414
892.9052, 1.526123
893.3873, 0.6716310
893.8694, 3.0762000E-02
894.3516, 0.1582030
894.8337, 0.5798340
895.3158, 1.876465
895.7979, 3.613770
896.2800, 6.157471
896.7621, 7.525391
897.2443, 6.702637
897.7264, 5.851807
898.2085, 6.421631
898.6906, 8.352051
899.1727, 10.74707
899.6548, 13.59937
900.1370, 15.38794
900.6191, 14.14502
901.1012, 11.78271
901.5833, 10.21924
902.0654, 9.422852
902.5475, 8.540771
903.0297, 7.125000
903.5118, 6.287354
903.9939, 6.481201
904.4760, 7.386719
904.9581, 7.406738
905.4402, 6.511963
905.9224, 6.275391
906.4045, 8.456055
906.8866, 10.23145
907.3687, 6.529297
907.8508, 0.1240230
908.3329, 3.186523
908.8151, 1.360352
909.2972, 5.853027
909.7793, 9.326416
910.2614, 11.44409
910.7435, 11.31543
911.2256, 8.875244
911.7078, 7.114258
912.1899, 6.600342
912.6720, 6.656250
913.1541, 7.007080
913.6362, 7.189697
914.1183, 6.161133
914.6005, 3.023193
915.0826, 1.123291
915.5647, 3.255127
916.0468, 5.484863
916.5289, 4.519287
917.0110, 0.6118160
917.4932, 1.002441
917.9753, 3.804932
918.4574, 9.481201
918.9395, 13.69629
919.4216, 16.12524
919.9037, 15.56274
920.3859, 12.31177
920.8680, 9.231201
921.3501, 7.320801
921.8322, 6.074219
922.3143, 5.235107
922.7964, 4.854492
923.2786, 5.747803
923.7607, 8.228760
924.2428, 9.647217
924.7249, 8.632568
925.2070, 6.526611
925.6891, 4.996338
926.1713, 4.028076
926.6534, 3.603516
927.1355, 4.373047
927.6176, 4.853271
928.0997, 4.328857
928.5818, 3.465576
929.0640, 3.062500
929.5461, 3.189941
930.0282, 3.275879
930.5103, 3.192627
930.9924, 3.211914
931.4745, 3.972900
931.9567, 4.862061
932.4388, 4.780273
932.9209, 3.416260
933.4030, 2.234619
933.8851, 1.493896
934.3672, 1.455566
934.8494, 2.529785
935.3315, 4.826660
935.8136, 5.532227
936.2957, 4.442627
936.7778, 3.636719
937.2599, 5.166016
937.7421, 7.331055
938.2242, 7.410156
938.7063, 5.754395
939.1884, 3.892578
939.6705, 1.255615
940.1526, 4.3212999E-02
940.6348, 1.362305
941.1169, 4.158447
941.5990, 5.220459
942.0811, 4.368164
942.5632, 4.201660
943.0453, 5.698975
943.5275, 7.055176
944.0096, 5.008789
944.4917, 1.692627
944.9738, 0.8249510
945.4559, 4.989990
945.9380, 7.528076
946.4202, 5.804688
946.9023, 2.742432
947.3844, 2.9300000E-03
947.8665, 2.474609
948.3486, 3.476318
948.8307, 3.022705
949.3129, 1.514404
949.7950, 1.699707
950.2771, 5.159424
950.7592, 6.964355
951.2413, 7.163086
951.7234, 6.916992
952.2056, 5.254395
952.6877, 5.025635
953.1698, 7.813721
953.6519, 12.33936
954.1340, 14.16113
954.6161, 13.39697
955.0983, 11.73901
955.5804, 9.205078
956.0625, 7.209473
956.5446, 7.521729
957.0267, 9.205322
957.5089, 10.84155
957.9910, 12.38403
958.4731, 13.25293
958.9552, 13.12988
959.4373, 12.67212
959.9194, 12.11475
960.4016, 11.57935
960.8837, 13.15869
961.3658, 16.98145
961.8479, 20.26709
962.3300, 19.90161
962.8121, 18.73975
963.2943, 19.59814
963.7764, 22.50244
964.2585, 23.72168
964.7406, 22.12915
965.2227, 21.00537
965.7048, 22.25806
966.1870, 24.12622
966.6691, 22.10767
967.1512, 16.90210
967.6333, 12.11255
968.1154, 7.916992
968.5975, 6.133057
969.0797, 10.02441
969.5618, 16.21582
970.0439, 19.49902
970.5260, 18.76074
971.0081, 17.35498
971.4902, 15.04419
971.9724, 13.26538
972.4545, 14.04590
972.9366, 16.39209
973.4187, 18.10889
973.9008, 18.96289
974.3829, 19.98022
974.8651, 21.88721
975.3472, 23.53540
975.8293, 24.26123
976.3114, 24.11792
976.7935, 24.62842
977.2756, 25.91138
977.7578, 27.14233
978.2399, 27.64136
978.7220, 28.32104
979.2041, 31.03540
979.6862, 34.92334
980.1683, 38.07690
980.6505, 39.87427
981.1326, 40.89307
981.6147, 41.48682
982.0968, 41.20703
982.5789, 39.04224
983.0610, 34.95288
983.5432, 32.13794
984.0253, 30.88037
984.5074, 30.30396
984.9895, 30.19678
985.4716, 29.97852
985.9537, 28.50342
986.4359, 25.60791
986.9180, 25.00879
987.4001, 28.96533
987.8822, 31.95312
988.3643, 31.71802
988.8464, 29.21265
989.3286, 26.78345
989.8107, 24.58447
990.2928, 23.39478
990.7749, 24.19189
991.2570, 25.18042
991.7391, 25.83643
992.2213, 25.71729
992.7034, 24.05566
993.1855, 19.68042
993.6676, 16.85986
994.1497, 15.74365
994.6318, 16.06592
995.1140, 18.91431
995.5961, 22.52783
996.0782, 22.64209
996.5603, 19.09131
997.0424, 16.24731
997.5245, 17.77710
998.0067, 18.71265
998.4888, 16.08521
998.9709, 11.03491
999.4530, 9.067383
999.9351, 10.36841
1000.417, 11.69678
1000.899, 12.16211
1001.381, 11.92041
1001.864, 10.59912
1002.346, 8.927979
1002.828, 8.176270
1003.310, 10.50049
1003.792, 10.25903
1004.274, 5.668945
1004.756, 0.5739750
1005.238, 1.766357
1005.721, 1.784424
1006.203, 1.635010
1006.685, 1.318359
1007.167, 0.3020020
1007.649, 2.368408
1008.131, 5.153320
1008.613, 7.221680
1009.095, 8.435303
1009.577, 8.677734
1010.060, 7.353516
1010.542, 6.764160
1011.024, 7.653809
1011.506, 8.990234
1011.988, 8.780762
1012.470, 7.827148
1012.952, 7.891846
1013.434, 9.681152
1013.917, 11.51489
1014.399, 13.48462
1014.881, 14.55811
1015.363, 13.91309
1015.845, 11.54858
1016.327, 8.756836
1016.809, 5.546387
1017.291, 3.758789
1017.773, 6.256104
1018.256, 9.433838
1018.738, 10.12866
1019.220, 8.658936
1019.702, 5.924072
1020.184, 9.4971001E-02
1020.666, 3.545166
1021.148, 4.091797
1021.630, 2.691650
1022.112, 0.1860350
1022.595, 2.810791
1023.077, 4.034668
1023.559, 3.010254
1024.041, 1.477051
1024.523, 0.3286130
1025.005, 1.610107
1025.487, 1.818115
1025.969, 1.020508
1026.452, 0.5673830
1026.934, 3.123047
1027.416, 5.209229
1027.898, 6.414063
1028.380, 6.564453
1028.862, 4.466309
1029.344, 1.314697
1029.826, 0.6477050
1030.308, 0.8144530
1030.791, 1.256348
1031.273, 0.2441410
1031.755, 2.074463
1032.237, 2.713379
1032.719, 2.253174
1033.201, 1.389404
1033.683, 0.1584470
1034.165, 1.107910
1034.647, 1.320313
1035.130, 2.239746
1035.612, 6.062744
1036.094, 11.81714
1036.576, 14.76733
1037.058, 14.46729
1037.540, 12.64160
1038.022, 9.140137
1038.504, 5.656250
1038.987, 4.931641
1039.469, 5.791992
1039.951, 6.174072
1040.433, 5.153320
1040.915, 5.201416
1041.397, 7.236084
1041.879, 9.975342
1042.361, 13.36743
1042.844, 17.01514
1043.326, 17.73730
1043.808, 15.80200
1044.290, 13.63843
1044.772, 13.16675
1045.254, 12.36987
1045.736, 8.700195
1046.218, 4.247314
1046.700, 3.310303
1047.183, 7.399902
1047.665, 10.18384
1048.147, 10.95386
1048.629, 10.83838
1049.111, 10.57861
1049.593, 10.41650
1050.075, 10.76196
1050.557, 11.62378
1051.040, 12.71289
1051.522, 13.97583
1052.004, 15.26685
1052.486, 16.48950
1052.968, 17.66260
1053.450, 19.14233
1053.932, 20.76001
1054.414, 21.36572
1054.896, 20.23022
1055.379, 19.17041
1055.861, 19.18872
1056.343, 20.14502
1056.825, 22.29126
1057.307, 26.15210
1057.789, 27.67969
1058.271, 26.51587
1058.753, 25.25073
1059.235, 26.24341
1059.718, 27.71045
1060.200, 26.50757
1060.682, 23.54785
1061.164, 21.44824
1061.646, 21.07324
1062.128, 21.48438
1062.610, 22.27368
1063.092, 23.89990
1063.574, 28.15918
1064.057, 34.20264
1064.539, 38.50098
1065.021, 40.76392
1065.503, 40.72510
1065.985, 36.30762
1066.467, 31.43188
1066.949, 27.93042
1067.431, 25.96118
1067.914, 26.86792
1068.396, 31.06470
1068.878, 33.77979
1069.360, 33.04639
1069.842, 31.99268
1070.324, 34.81934
1070.806, 39.30249
1071.288, 42.57935
1071.771, 43.99756
1072.253, 44.25562
1072.735, 42.79517
1073.217, 41.41309
1073.699, 41.21606
1074.181, 41.83154
1074.663, 42.00684
1075.145, 42.07373
1075.627, 43.28687
1076.110, 47.21313
1076.592, 50.44531
1077.074, 52.18994
1077.556, 53.01099
1078.038, 53.44946
1078.520, 53.20508
1079.002, 50.91528
1079.484, 46.56909
1079.967, 42.92944
1080.449, 42.59009
1080.931, 43.20947
1081.413, 43.26318
1081.895, 42.65820
1082.377, 41.47314
1082.859, 39.18726
1083.341, 38.47070
1083.823, 40.49902
1084.306, 43.00635
1084.788, 41.76270
1085.270, 39.20654
1085.752, 39.41748
1086.234, 43.77002
1086.716, 47.03491
1087.198, 48.07300
1087.680, 48.23657
1088.162, 47.58716
1088.645, 46.86450
1089.127, 49.89917
1089.609, 55.37915
1090.091, 58.51318
1090.573, 55.72046
1091.055, 52.99292
1091.537, 52.35498
1092.019, 53.90601
1092.501, 57.55371
1092.984, 63.24390
1093.466, 66.16113
1093.948, 66.23657
1094.430, 66.49097
1094.912, 70.30664
1095.394, 74.14722
1095.876, 74.00562
1096.358, 71.45166
1096.841, 71.56323
1097.323, 75.31738
1097.805, 79.99170
1098.287, 85.86401
1098.769, 90.10474
1099.251, 87.08643
1099.733, 81.34546
1100.215, 80.48730
1100.698, 85.16064
1101.180, 88.83838
1101.662, 91.34106
1102.144, 89.98486
1102.626, 81.88940
1103.108, 71.57153
1103.590, 71.09473
1104.072, 77.52710
1104.554, 81.99487
1105.037, 82.01318
1105.519, 80.36011
1106.001, 75.25757
1106.483, 71.88452
1106.965, 74.33911
1107.447, 82.06128
1107.929, 87.11694
1108.411, 89.59473
1108.894, 91.28735
1109.376, 91.48804
1109.858, 93.30249
1110.340, 100.2021
1110.822, 109.8530
1111.304, 118.9043
1111.786, 127.0225
1112.268, 134.2903
1112.750, 140.6968
1113.233, 145.8140
1113.715, 151.5540
1114.197, 154.3599
1114.679, 149.2300
1115.161, 137.3174
1115.643, 123.1047
1116.125, 106.2766
1116.607, 89.22900
1117.089, 71.51489
1117.572, 55.53442
1118.054, 45.23901
1118.536, 38.68604
1119.018, 31.05566
1119.500, 22.02832
1119.982, 16.57812
1120.464, 20.22778
1120.946, 23.48267
1121.428, 23.51367
1121.911, 21.20923
1122.393, 17.41870
1122.875, 12.93774
1123.357, 12.30151
1123.839, 17.74487
1124.321, 21.10815
1124.803, 14.72827
1125.285, 7.227051
1125.768, 4.374756
1126.250, 5.717529
1126.732, 6.705322
1127.214, 7.509521
1127.696, 8.656250
1128.178, 10.60352
1128.660, 12.19067
1129.142, 12.43799
1129.625, 11.63647
1130.107, 9.832764
1130.589, 6.570313
1131.071, 5.406250
1131.553, 6.740967
1132.035, 7.143066
1132.517, 2.433350
1132.999, 3.011719
1133.481, 3.271484
1133.964, 0.3371580
1134.446, 1.165527
1134.928, 1.040283
1135.410, 1.607910
1135.892, 1.7578000E-02
1136.374, 2.456299
1136.856, 5.318604
1137.338, 7.529541
1137.821, 6.274170
1138.303, 2.116699
1138.785, 0.9484860
1139.267, 1.770264
1139.749, 0.6416020
1140.231, 3.495605
1140.713, 7.852539
1141.195, 7.423096
1141.677, 4.003906
1142.160, 2.596191
1142.642, 3.850342
1143.124, 6.202881
1143.606, 10.75513
1144.088, 13.93726
1144.570, 13.85815
1145.052, 11.87061
1145.534, 11.56641
1146.016, 12.71191
1146.499, 14.45557
1146.981, 17.04907
1147.463, 17.90356
1147.945, 15.03052
1148.427, 10.07031
1148.909, 2.842041
1149.391, 5.716309
1149.873, 6.253662
1150.355, 0.8405760
1150.838, 6.194824
1151.320, 5.637207
1151.802, 3.601563
1152.284, 2.462158
1152.766, 2.314453
1153.248, 3.621094
1153.730, 6.704590
1154.212, 7.364990
1154.695, 5.372070
1155.177, 3.907471
1155.659, 4.943359
1156.141, 7.154785
1156.623, 10.20435
1157.105, 13.25586
1157.587, 14.67896
1158.069, 14.22412
1158.552, 12.43750
1159.034, 8.982910
1159.516, 6.125488
1159.998, 5.890625
1160.480, 7.069580
1160.962, 9.156738
1161.444, 11.44775
1161.926, 11.45312
1162.408, 6.649902
1162.891, 4.902832
1163.373, 7.720947
1163.855, 11.25269
1164.337, 11.26147
1164.819, 9.294189
1165.301, 7.520752
1165.783, 6.153809
1166.265, 5.425293
1166.748, 6.839355
1167.230, 6.273193
1167.712, 2.292725
1168.194, 2.444580
1168.676, 4.092285
1169.158, 3.588867
1169.640, 2.886719
1170.122, 2.208740
1170.604, 0.8381350
1171.087, 2.067627
1171.569, 5.019775
1172.051, 8.160645
1172.533, 10.45483
1173.015, 8.442627
1173.497, 4.023682
1173.979, 2.822266
1174.461, 6.449707
1174.943, 10.00342
1175.426, 12.28296
1175.908, 13.09814
1176.390, 11.66382
1176.872, 9.122803
1177.354, 10.36768
1177.836, 13.88647
1178.318, 13.79736
1178.800, 6.214111
1179.282, 1.299072
1179.765, 7.192383
1180.247, 13.51172
1180.729, 13.50830
1181.211, 8.805908
1181.693, 9.632568
1182.175, 14.77100
1182.657, 17.67847
1183.139, 15.10718
1183.622, 10.75146
1184.104, 3.879395
1184.586, 1.719727
1185.068, 2.595703
1185.550, 1.010986
1186.032, 3.934326
1186.514, 6.310547
1186.996, 8.805664
1187.479, 12.95264
1187.961, 15.86426
1188.443, 14.90845
1188.925, 12.74121
1189.407, 12.47070
1189.889, 14.16431
1190.371, 13.02075
1190.853, 8.989990
1191.335, 6.830811
1191.818, 11.26611
1192.300, 16.58960
1192.782, 20.13013
1193.264, 22.13525
1193.746, 22.93042
1194.228, 22.37622
1194.710, 21.59937
1195.192, 20.64014
1195.675, 20.62256
1196.157, 23.73193
1196.639, 26.62817
1197.121, 26.83081
1197.603, 27.71704
1198.085, 27.41016
1198.567, 25.92554
1199.049, 24.84375
1199.531, 21.55322
1200.014, 18.94238
1200.496, 20.44165
1200.978, 22.46387
1201.460, 22.38013
1201.942, 20.82886
1202.424, 19.59082
1202.906, 18.61011
1203.388, 18.73877
1203.870, 20.19360
1204.353, 21.88647
1204.835, 23.07788
1205.317, 23.92065
1205.799, 24.76465
1206.281, 25.25000
1206.763, 23.41479
1207.245, 18.76758
1207.727, 15.39624
1208.209, 14.66138
1208.692, 14.58105
1209.174, 14.08569
1209.656, 13.33447
1210.138, 12.04126
1210.620, 10.54980
1211.102, 11.74512
1211.584, 15.74268
1212.066, 16.03125
1212.549, 9.548584
1213.031, 3.854736
1213.513, 6.602783
1213.995, 12.10913
1214.477, 16.04370
1214.959, 18.24902
1215.441, 18.57642
1215.923, 17.04932
1216.406, 13.90820
1216.888, 8.471680
1217.370, 3.922119
1217.852, 4.037109
1218.334, 5.578857
1218.816, 5.264160
1219.298, 3.224365
1219.780, 3.478516
1220.262, 6.000000
1220.745, 7.934814
1221.227, 7.787842
1221.709, 7.857178
1222.191, 11.11401
1222.673, 14.45215
1223.155, 13.80298
1223.637, 17.84253
1224.119, 22.46973
1224.602, 23.08447
1225.084, 31.55298
1225.566, 33.56812
1226.048, 32.54224
1226.530, 29.15723
1227.012, 25.59717
1227.494, 24.34717
1227.976, 21.33789
1228.458, 23.39917
1228.941, 18.45898
1229.423, 14.95630
1229.905, 16.05981
1230.387, 17.59277
1230.869, 16.46191
1231.351, 14.97876
1231.833, 15.76562
1232.315, 18.79492
1232.797, 19.61914
1233.280, 18.35376
1233.762, 16.36230
1234.244, 12.14722
1234.726, 10.20020
1235.208, 16.74805
1235.690, 23.52490
1236.172, 21.94312
1236.654, 12.49316
1237.136, 8.116455
1237.619, 8.325928
1238.101, 8.579834
1238.583, 6.200928
1239.065, 3.662354
1239.547, 1.095215
1240.029, 0.3947750
1240.511, 0.7341310
1240.993, 4.138916
1241.476, 6.337646
1241.958, 7.495850
1242.440, 8.923340
1242.922, 11.57422
1243.404, 14.83008
1243.886, 19.60889
1244.368, 22.87305
1244.850, 19.53442
1245.333, 11.90576
1245.815, 11.74951
1246.297, 17.75586
1246.779, 22.13818
1247.261, 20.13501
1247.743, 17.74146
1248.225, 15.48779
1248.707, 14.48413
1249.189, 17.38110
1249.672, 22.04468
1250.154, 21.91919
1250.636, 17.77881
1251.118, 13.79126
1251.600, 10.72607
1252.082, 9.789063
1252.564, 12.39209
1253.046, 14.48267
1253.529, 10.16968
1254.011, 3.108154
1254.493, 0.5229490
1254.975, 1.880615
1255.457, 3.498535
1255.939, 3.792236
1256.421, 5.624268
1256.903, 9.801514
1257.385, 13.40894
1257.868, 13.24048
1258.350, 10.91089
1258.832, 7.776611
1259.314, 4.522461
1259.796, 3.378906
1260.278, 5.409424
1260.760, 7.031250
1261.242, 7.930664
1261.724, 8.221191
1262.207, 7.006104
1262.689, 5.928223
1263.171, 7.338623
1263.653, 10.43359
1264.135, 11.88257
1264.617, 11.11328
1265.099, 10.89160
1265.581, 11.49878
1266.063, 12.31567
1266.546, 13.49487
1267.028, 13.96704
1267.510, 11.82422
1267.992, 8.489990
1268.474, 7.483398
1268.956, 8.914551
1269.438, 11.55835
1269.920, 15.33325
1270.403, 19.34448
1270.885, 23.85620
1271.367, 27.17407
1271.849, 28.03589
1272.331, 26.93457
1272.813, 24.69385
1273.295, 21.39624
1273.777, 17.74805
1274.260, 13.88013
1274.742, 11.67578
1275.224, 14.04761
1275.706, 16.16333
1276.188, 16.35864
1276.670, 15.13013
1277.152, 11.97949
1277.634, 7.950684
1278.116, 8.535889
1278.599, 13.45508
1279.081, 16.04639
1279.563, 11.40649
1280.045, 6.459961
1280.527, 2.338379
1281.009, 0.7187500
1281.491, 2.833008
1281.973, 3.872314
1282.456, 2.726074
1282.938, 0.3896480
1283.420, 3.289307
1283.902, 6.196289
1284.384, 6.882568
1284.866, 4.256348
1285.348, 1.344482
1285.830, 0.8937990
1286.313, 2.323975
1286.795, 6.058105
1287.277, 11.42969
1287.759, 14.70654
1288.241, 15.15186
1288.723, 14.99731
1289.205, 14.23999
1289.687, 14.46069
1290.169, 19.16113
1290.651, 23.76489
1291.134, 22.77661
1291.616, 25.60815
1292.098, 25.67163
1292.580, 23.66650
1293.062, 20.84619
1293.544, 10.34937
1294.026, 4.467285
1294.508, 11.41187
1294.990, 17.42310
1295.473, 14.02051
1295.955, 7.516602
1296.437, 2.945068
1296.919, 0.1274410
1297.401, 1.732910
1297.883, 7.402344
1298.365, 11.49292
1298.847, 9.980469
1299.330, 8.343994
1299.812, 8.053955
1300.294, 8.153320
1300.776, 7.206787
1301.258, 6.596680
1301.740, 5.237305
1302.222, 2.950928
1302.704, 1.205078
1303.187, 0.5463870
1303.669, 4.8583999E-02
1304.151, 0.0000000E+00
##END=



