##NAMES=Marshite
##RRUFFID=R100001
##IDEAL CHEMISTRY=CuI
##LOCALITY=Rubtsovskiy, Altai Kray, Russia
##OWNER=RRUFF
##SOURCE=Marcus Origlieri
##DESCRIPTION= Pale yellow vitreous tetrahedra associated with colorless cerussite
##STATUS=The identification of this mineral has been confirmed by single-crystal X-ray diffraction.
##URL=rruff.info/R100001
107.9240, 0.0000000E+00
108.4061, 12.84883
108.8882, 24.32174
109.3703, 30.73199
109.8524, 37.82726
110.3345, 42.19291
110.8167, 51.12978
111.2988, 69.62379
111.7809, 77.73891
112.2630, 74.98756
112.7451, 56.65221
113.2272, 36.32862
113.7094, 16.64777
114.1915, 1.662720
114.6736, 6.276657
115.1557, 10.37260
115.6378, 12.73560
116.1199, 16.23024
116.6021, 13.33682
117.0842, 1.002121
117.5663, 19.89885
118.0484, 46.79707
118.5305, 78.86588
119.0126, 116.3919
119.4948, 159.1423
119.9769, 207.7131
120.4590, 261.1437
120.9411, 317.4994
121.4232, 377.3152
121.9053, 442.6827
122.3875, 512.0847
122.8696, 588.3841
123.3517, 675.5577
123.8338, 769.3489
124.3159, 878.1971
124.7980, 1005.284
125.2802, 1150.685
125.7623, 1325.365
126.2444, 1541.333
126.7265, 1794.731
127.2086, 2075.276
127.6907, 2406.219
128.1729, 2757.227
128.6550, 3071.951
129.1371, 3349.981
129.6192, 3585.581
130.1013, 3774.154
130.5834, 3915.150
131.0656, 4018.651
131.5477, 4085.360
132.0298, 4117.351
132.5119, 4121.103
132.9940, 4090.602
133.4761, 4042.013
133.9583, 4002.889
134.4404, 3973.149
134.9225, 3953.717
135.4046, 3942.767
135.8867, 3939.989
136.3688, 3957.750
136.8510, 4001.929
137.3331, 4066.290
137.8152, 4131.876
138.2973, 4198.754
138.7794, 4267.250
139.2615, 4343.367
139.7437, 4432.398
140.2258, 4503.460
140.7079, 4551.123
141.1900, 4575.255
141.6721, 4580.544
142.1542, 4566.757
142.6364, 4534.719
143.1185, 4484.396
143.6006, 4414.174
144.0827, 4329.279
144.5648, 4228.794
145.0469, 4108.072
145.5291, 3991.778
146.0112, 3881.261
146.4933, 3773.144
146.9754, 3659.605
147.4575, 3529.472
147.9396, 3408.886
148.4218, 3304.660
148.9039, 3222.554
149.3860, 3144.536
149.8681, 3067.123
150.3502, 2995.008
150.8323, 2937.557
151.3145, 2898.949
151.7966, 2871.885
152.2787, 2853.947
152.7608, 2846.637
153.2429, 2846.362
153.7250, 2854.362
154.2072, 2869.444
154.6893, 2888.254
155.1714, 2897.875
155.6535, 2889.531
156.1356, 2884.326
156.6177, 2889.395
157.0999, 2893.764
157.5820, 2894.894
158.0641, 2893.600
158.5462, 2893.140
159.0283, 2894.317
159.5104, 2896.613
159.9926, 2899.675
160.4747, 2906.259
160.9568, 2910.818
161.4389, 2911.392
161.9210, 2908.203
162.4031, 2903.229
162.8853, 2898.566
163.3674, 2891.876
163.8495, 2881.016
164.3316, 2865.475
164.8137, 2845.486
165.2958, 2820.457
165.7780, 2787.959
166.2601, 2753.001
166.7422, 2715.479
167.2243, 2676.311
167.7064, 2637.135
168.1885, 2595.731
168.6707, 2556.075
169.1528, 2522.004
169.6349, 2493.876
170.1170, 2466.356
170.5991, 2435.377
171.0812, 2402.153
171.5634, 2369.244
172.0455, 2336.218
172.5276, 2304.738
173.0097, 2277.766
173.4918, 2256.199
173.9739, 2233.880
174.4561, 2204.196
174.9382, 2169.666
175.4203, 2135.499
175.9024, 2104.638
176.3845, 2076.037
176.8666, 2049.797
177.3488, 2027.037
177.8309, 2001.967
178.3130, 1966.236
178.7951, 1921.898
179.2772, 1877.877
179.7593, 1839.413
180.2415, 1804.553
180.7236, 1768.970
181.2057, 1732.121
181.6878, 1694.273
182.1699, 1653.322
182.6520, 1610.574
183.1342, 1569.994
183.6163, 1537.147
184.0984, 1508.943
184.5805, 1477.308
185.0626, 1440.119
185.5447, 1400.061
186.0269, 1359.425
186.5090, 1318.469
186.9911, 1280.013
187.4732, 1247.612
187.9553, 1219.801
188.4374, 1191.388
188.9196, 1161.690
189.4017, 1130.272
189.8838, 1094.996
190.3659, 1055.227
190.8480, 1015.788
191.3301, 981.1824
191.8123, 950.5046
192.2944, 917.3593
192.7765, 879.9460
193.2586, 839.5582
193.7407, 800.8928
194.2228, 764.0310
194.7050, 728.2838
195.1871, 693.0983
195.6692, 658.4758
196.1513, 624.7172
196.6334, 592.1708
197.1155, 560.5828
197.5977, 527.9967
198.0798, 494.3093
198.5619, 460.5194
199.0440, 428.0352
199.5261, 396.7646
200.0082, 365.6443
200.4904, 333.2950
200.9725, 300.5690
201.4546, 272.4518
201.9367, 249.5559
202.4188, 229.3740
202.9009, 210.1252
203.3831, 191.8624
203.8652, 173.2817
204.3473, 153.1819
204.8294, 132.0216
205.3115, 115.5913
205.7936, 104.9355
206.2758, 96.77332
206.7579, 87.38293
207.2400, 76.26099
207.7221, 66.64697
208.2042, 59.75134
208.6863, 55.48706
209.1685, 50.65869
209.6506, 45.04309
210.1327, 39.22302
210.6148, 33.35291
211.0969, 26.74951
211.5790, 22.75598
212.0612, 23.16614
212.5433, 28.12207
213.0254, 30.54517
213.5075, 29.66968
213.9896, 27.28076
214.4717, 25.37109
214.9538, 23.76123
215.4360, 23.02600
215.9181, 23.51245
216.4002, 25.32312
216.8823, 26.56580
217.3644, 26.57739
217.8465, 26.75220
218.3287, 28.82556
218.8108, 33.13354
219.2929, 38.69043
219.7750, 45.99500
220.2571, 55.59094
220.7392, 61.97607
221.2214, 64.03455
221.7035, 64.07361
222.1856, 64.93640
222.6677, 66.77704
223.1498, 69.16309
223.6319, 72.08710
224.1141, 75.63593
224.5962, 79.25183
225.0783, 83.62183
225.5604, 87.43420
226.0425, 88.42017
226.5246, 84.12067
227.0068, 81.88464
227.4889, 84.97919
227.9710, 95.00793
228.4531, 99.50134
228.9352, 96.68213
229.4173, 89.85986
229.8995, 83.50928
230.3816, 77.88196
230.8637, 72.10858
231.3458, 65.83136
231.8279, 58.62598
232.3100, 52.69110
232.7922, 48.71277
233.2743, 45.46753
233.7564, 41.19647
234.2385, 35.27930
234.7206, 29.29895
235.2027, 23.82855
235.6849, 19.11224
236.1670, 14.65802
236.6491, 10.15692
237.1312, 5.934387
237.6133, 2.577881
238.0954, 0.6225590
238.5776, 1.983582
239.0597, 5.921753
239.5418, 11.31610
240.0239, 15.50006
240.5060, 19.05371
240.9881, 21.59467
241.4703, 22.11017
241.9524, 19.12549
242.4345, 16.10498
242.9166, 14.06628
243.3987, 13.28455
243.8808, 11.91357
244.3630, 9.730286
244.8451, 7.130127
245.3272, 4.723633
245.8093, 3.049805
246.2914, 1.005005
246.7735, 2.007629
247.2557, 6.261719
247.7378, 9.820496
248.2199, 12.09723
248.7020, 14.32495
249.1841, 17.73517
249.6662, 22.28992
250.1484, 27.79150
250.6305, 34.68695
251.1126, 43.11432
251.5947, 49.85632
252.0768, 53.62244
252.5589, 56.93298
253.0411, 62.86334
253.5232, 73.39874
254.0053, 82.50098
254.4874, 88.37604
254.9695, 90.89520
255.4516, 94.71521
255.9338, 100.9413
256.4159, 107.1162
256.8980, 110.4669
257.3801, 109.2390
257.8622, 109.7443
258.3444, 113.6129
258.8265, 120.6342
259.3086, 126.2148
259.7907, 130.1827
260.2728, 133.3062
260.7549, 136.2740
261.2371, 139.3004
261.7192, 141.2664
262.2013, 141.3315
262.6834, 139.8433
263.1655, 141.2559
263.6476, 147.0502
264.1298, 153.1742
264.6119, 155.9348
265.0940, 153.9114
265.5761, 153.3600
266.0582, 155.7408
266.5403, 160.4620
267.0225, 164.2664
267.5046, 167.4484
267.9867, 169.0202
268.4688, 167.6562
268.9509, 162.2774
269.4330, 158.3484
269.9152, 156.9856
270.3973, 157.3905
270.8794, 156.6100
271.3615, 154.6925
271.8436, 151.7368
272.3257, 147.6401
272.8079, 142.0964
273.2900, 137.1365
273.7721, 133.0289
274.2542, 129.5152
274.7363, 125.7478
275.2184, 121.6954
275.7006, 117.4612
276.1827, 113.5755
276.6648, 110.1367
277.1469, 105.3576
277.6290, 98.66699
278.1111, 90.98926
278.5933, 84.33936
279.0754, 78.69888
279.5575, 73.71683
280.0396, 69.53552
280.5217, 66.23904
281.0038, 61.69135
281.4860, 55.36951
281.9681, 48.57486
282.4502, 43.99768
282.9323, 41.80621
283.4144, 39.30954
283.8965, 34.71509
284.3787, 28.32013
284.8608, 23.04208
285.3429, 19.13147
285.8250, 15.72412
286.3071, 11.41354
286.7892, 6.247620
287.2714, 1.452820
287.7535, 2.517151
288.2356, 5.749756
288.7177, 8.175690
289.1998, 9.831909
289.6819, 10.96011
290.1641, 11.86972
290.6462, 12.52802
291.1283, 12.64499
291.6104, 11.13754
292.0925, 9.123749
292.5746, 10.29340
293.0568, 14.89227
293.5389, 20.13159
294.0210, 23.48599
294.5031, 25.10916
294.9852, 25.30951
295.4673, 23.15292
295.9495, 20.21008
296.4316, 20.25919
296.9137, 23.18777
297.3958, 25.46481
297.8779, 22.79349
298.3600, 17.09274
298.8422, 13.27960
299.3243, 13.29248
299.8064, 14.97604
300.2885, 15.62589
300.7706, 15.32181
301.2527, 14.69116
301.7349, 14.55521
302.2170, 14.26834
302.6991, 12.39453
303.1812, 7.918732
303.6633, 3.234894
304.1454, 0.8574220
304.6276, 0.4323120
305.1097, 0.7712710
305.5918, 2.022339
306.0739, 3.269928
306.5560, 3.224915
307.0381, 1.493744
307.5203, 0.8202510
308.0024, 2.876877
308.4845, 4.809921
308.9666, 6.928101
309.4487, 10.34137
309.9308, 13.47060
310.4130, 14.57939
310.8951, 13.12234
311.3772, 11.81044
311.8593, 12.50325
312.3414, 14.53616
312.8235, 16.79744
313.3057, 19.47247
313.7878, 21.72418
314.2699, 22.47220
314.7520, 21.56448
315.2341, 21.68439
315.7162, 25.57430
316.1984, 30.70808
316.6805, 34.25639
317.1626, 33.72748
317.6447, 32.91844
318.1268, 33.37619
318.6089, 35.04291
319.0911, 36.71565
319.5732, 38.01088
320.0553, 39.13005
320.5374, 40.24814
321.0195, 41.14554
321.5016, 42.29242
321.9838, 44.18501
322.4659, 46.57790
322.9480, 48.23045
323.4301, 48.18304
323.9122, 47.81120
324.3943, 47.84232
324.8765, 48.21448
325.3586, 49.18335
325.8407, 50.80244
326.3228, 53.03528
326.8049, 55.79466
327.2870, 60.65929
327.7692, 64.66437
328.2513, 66.57802
328.7334, 65.09514
329.2155, 64.53929
329.6976, 65.42504
330.1797, 67.06277
330.6619, 68.35426
331.1440, 68.52393
331.6261, 69.38740
332.1082, 71.80614
332.5903, 76.21205
333.0724, 79.04042
333.5546, 79.21545
334.0367, 78.80019
334.5188, 80.21560
335.0009, 84.58107
335.4830, 88.16078
335.9651, 89.95749
336.4473, 90.15652
336.9294, 91.26274
337.4115, 93.80849
337.8936, 96.21859
338.3757, 97.13728
338.8578, 96.27797
339.3399, 95.28851
339.8221, 94.18121
340.3042, 93.21445
340.7863, 93.26711
341.2684, 94.28901
341.7505, 96.42738
342.2326, 100.5355
342.7148, 106.5575
343.1969, 110.6552
343.6790, 112.3187
344.1611, 112.4140
344.6432, 112.0302
345.1253, 111.0764
345.6075, 110.3012
346.0896, 110.1069
346.5717, 110.4191
347.0538, 111.1810
347.5359, 112.5498
348.0180, 113.5539
348.5002, 112.5058
348.9823, 109.9698
349.4644, 108.2471
349.9465, 108.3490
350.4286, 109.5541
350.9107, 111.0166
351.3929, 112.6622
351.8750, 113.8670
352.3571, 114.3319
352.8392, 114.0863
353.3213, 113.0726
353.8034, 110.8680
354.2856, 108.3721
354.7677, 106.3611
355.2498, 104.8268
355.7319, 103.8131
356.2140, 103.6671
356.6961, 103.8857
357.1783, 103.8793
357.6604, 103.5018
358.1425, 102.8113
358.6246, 101.8112
359.1067, 100.5767
359.5888, 99.18263
360.0710, 97.06653
360.5531, 95.36816
361.0352, 95.08074
361.5173, 96.43584
361.9994, 97.61546
362.4815, 97.98583
362.9637, 97.68276
363.4458, 96.81886
363.9279, 94.96169
364.4100, 93.04233
364.8921, 91.24877
365.3742, 89.65639
365.8564, 88.80890
366.3385, 90.63615
366.8206, 92.03422
367.3027, 91.19160
367.7848, 82.85889
368.2669, 78.28090
368.7491, 80.87138
369.2312, 87.76305
369.7133, 90.70487
370.1954, 86.29749
370.6775, 81.74380
371.1596, 79.85255
371.6418, 81.65812
372.1239, 83.04935
372.6060, 84.27038
373.0881, 84.82436
373.5702, 83.80761
374.0523, 80.20731
374.5345, 77.40444
375.0166, 76.48596
375.4987, 77.39250
375.9808, 77.07912
376.4629, 75.13604
376.9450, 72.99709
377.4272, 71.86243
377.9093, 71.76826
378.3914, 72.40495
378.8735, 74.20499
379.3556, 76.34039
379.8377, 75.89969
380.3199, 72.64004
380.8020, 69.89484
381.2841, 70.69969
381.7662, 74.20498
382.2483, 75.66618
382.7304, 74.43590
383.2126, 71.98417
383.6947, 69.98605
384.1768, 68.44861
384.6589, 67.31002
385.1410, 66.60130
385.6231, 66.25090
386.1053, 66.26273
386.5874, 66.57971
387.0695, 66.83725
387.5516, 66.65993
388.0337, 66.27465
388.5158, 66.05148
388.9980, 66.49789
389.4801, 66.67334
389.9622, 65.65341
390.4443, 63.69110
390.9264, 61.59843
391.4085, 59.02284
391.8907, 56.92905
392.3728, 56.31560
392.8549, 57.93915
393.3370, 59.67397
393.8191, 60.47382
394.3012, 60.74602
394.7834, 61.23653
395.2655, 63.42105
395.7476, 64.77344
396.2297, 63.90280
396.7118, 60.39822
397.1939, 57.34206
397.6761, 55.54124
398.1582, 54.19588
398.6403, 52.66359
399.1224, 49.61299
399.6045, 47.96613
400.0866, 48.68515
400.5688, 51.32701
401.0509, 53.10477
401.5330, 53.94388
402.0151, 53.96799
402.4972, 53.07549
402.9793, 50.66415
403.4615, 48.89164
403.9436, 47.85678
404.4257, 47.42009
404.9078, 47.49251
405.3899, 48.29172
405.8720, 48.79112
406.3542, 48.58519
406.8363, 47.70229
407.3184, 46.56562
407.8005, 45.05228
408.2826, 43.90559
408.7647, 44.33382
409.2469, 46.13869
409.7290, 46.68997
410.2111, 44.99623
410.6932, 42.39077
411.1753, 41.53490
411.6574, 42.27921
412.1396, 43.22312
412.6217, 43.85939
413.1038, 44.01142
413.5859, 43.13196
414.0680, 41.03463
414.5501, 38.77400
415.0323, 37.43706
415.5144, 36.65034
415.9965, 35.65816
416.4786, 33.89123
416.9607, 31.98995
417.4428, 30.06488
417.9250, 28.22984
418.4071, 27.37670
418.8892, 29.59070
419.3713, 32.16411
419.8534, 32.53127
420.3355, 27.90911
420.8177, 24.67976
421.2998, 26.24849
421.7819, 30.60963
422.2640, 33.45411
422.7461, 32.86037
423.2282, 31.42958
423.7104, 30.01357
424.1925, 28.72346
424.6746, 27.26295
425.1567, 25.10193
425.6388, 23.02691
426.1209, 21.77538
426.6031, 21.78736
427.0852, 22.12352
427.5673, 22.75784
428.0494, 23.58547
428.5315, 24.25061
429.0136, 24.94604
429.4958, 25.10072
429.9779, 24.09260
430.4600, 21.62008
430.9421, 20.06633
431.4242, 19.56167
431.9063, 19.81384
432.3885, 20.79852
432.8706, 22.53183
433.3527, 23.50164
433.8348, 22.76601
434.3169, 20.97862
434.7990, 20.26936
435.2812, 20.65014
435.7633, 21.07211
436.2454, 20.33462
436.7275, 18.99346
437.2096, 18.41447
437.6917, 19.10686
438.1739, 20.15762
438.6560, 20.85248
439.1381, 21.17824
439.6202, 21.06919
440.1023, 20.44099
440.5844, 19.37613
441.0666, 17.53162
441.5487, 14.86591
442.0308, 13.05583
442.5129, 13.55468
442.9950, 15.04951
443.4771, 16.30273
443.9593, 17.59578
444.4414, 17.89050
444.9235, 16.13281
445.4056, 13.03043
445.8877, 10.96956
446.3698, 11.12408
446.8520, 11.67539
447.3341, 11.98602
447.8162, 12.09219
448.2983, 11.77522
448.7804, 10.64391
449.2625, 9.362991
449.7447, 8.736397
450.2268, 8.989182
450.7089, 9.379494
451.1910, 9.759605
451.6731, 10.13685
452.1552, 10.79913
452.6374, 11.95582
453.1195, 12.61702
453.6016, 11.66308
454.0837, 9.184113
454.5658, 8.147766
455.0479, 9.029694
455.5301, 10.48769
456.0122, 10.43690
456.4943, 9.137779
456.9764, 8.173889
457.4585, 8.572800
457.9406, 9.427017
458.4228, 8.790085
458.9049, 6.876770
459.3870, 5.685707
459.8691, 7.683708
460.3512, 10.61317
460.8333, 11.57800
461.3155, 9.584793
461.7976, 7.331635
462.2797, 6.035538
462.7618, 5.731308
463.2439, 6.488686
463.7260, 10.83113
464.2082, 14.01849
464.6903, 13.04773
465.1724, 7.863861
465.6545, 3.750740
466.1366, 1.387299
466.6187, 0.6585540
467.1009, 1.612427
467.5830, 6.996346
468.0651, 10.35589
468.5472, 10.92696
469.0293, 9.641899
469.5114, 8.468246
469.9936, 7.373802
470.4757, 6.447906
470.9578, 5.695763
471.4399, 5.077965
471.9220, 5.241165
472.4041, 6.545189
472.8863, 7.622169
473.3684, 6.691246
473.8505, 3.868408
474.3326, 2.641647
474.8147, 3.869156
475.2968, 5.975143
475.7790, 6.652153
476.2611, 6.050919
476.7432, 5.031242
477.2253, 3.657463
477.7074, 2.264252
478.1895, 1.271736
478.6717, 0.6996770
479.1538, 0.7526700
479.6359, 2.316597
480.1180, 4.322800
480.6001, 5.428017
481.0822, 4.875458
481.5644, 4.008598
482.0465, 3.272667
482.5286, 2.737274
483.0107, 2.551956
483.4928, 3.154572
483.9749, 3.777374
484.4571, 4.101349
484.9392, 4.076927
485.4213, 4.027725
485.9034, 3.847946
486.3855, 3.740524
486.8676, 3.859726
487.3498, 4.412788
487.8319, 4.806076
488.3140, 4.952423
488.7961, 4.938560
489.2782, 4.993782
489.7603, 5.192764
490.2425, 5.255692
490.7246, 5.021576
491.2067, 4.440605
491.6888, 3.850174
492.1709, 3.290443
492.6530, 2.476570
493.1352, 0.4027100
493.6173, 2.348854
494.0994, 2.767738
494.5815, 0.4357530
495.0636, 4.448784
495.5457, 5.618904
496.0279, 4.537987
496.5100, 2.955925
496.9921, 0.9552920
497.4742, 0.6444780
497.9563, 0.7731550
498.4384, 0.5193250
498.9206, 1.577400
499.4027, 1.512390
499.8848, 0.8636930
500.3669, 9.1930004E-03
500.8490, 1.658318
501.3311, 2.463959
501.8133, 1.457466
502.2954, 0.5280760
502.7775, 1.925156
503.2596, 2.581429
503.7417, 2.655228
504.2238, 1.981552
504.7060, 0.5854570
505.1881, 0.3639300
505.6702, 0.7879100
506.1523, 1.081215
506.6344, 1.582703
507.1165, 2.336769
507.5987, 2.796463
508.0808, 3.119370
508.5629, 3.193489
509.0450, 2.750252
509.5271, 1.812851
510.0092, 0.6362840
510.4914, 0.7794490
510.9735, 2.040527
511.4556, 2.466919
511.9377, 2.147415
512.4199, 1.684555
512.9020, 1.333336
513.3841, 1.150894
513.8662, 1.307487
514.3483, 1.955269
514.8304, 2.292679
515.3126, 1.724831
515.7947, 0.5180590
516.2768, 0.9964140
516.7589, 4.313538
517.2410, 6.268089
517.7231, 4.827003
518.2053, 0.8189090
518.6874, 1.681725
519.1695, 0.7758710
519.6516, 0.4084400
520.1337, 0.7960970
520.6158, 0.2307050
521.0980, 0.3922730
521.5801, 1.366943
522.0622, 2.061630
522.5443, 1.417572
523.0264, 1.014961
523.5085, 1.878128
523.9907, 2.2125000E-02
524.4728, 2.972778
524.9549, 3.156448
525.4370, 0.6804660
525.9191, 1.149376
526.4012, 0.4896240
526.8834, 3.708328
527.3655, 3.914787
527.8476, 1.151985
528.3297, 1.633629
528.8118, 1.883614
529.2939, 0.8918690
529.7761, 0.1966550
530.2582, 0.1349560
530.7403, 0.4532390
531.2224, 1.787895
531.7045, 3.275658
532.1866, 3.493195
532.6688, 0.4756470
533.1509, 2.291748
533.6330, 3.455093
534.1151, 3.063316
534.5972, 3.474167
535.0793, 6.050674
535.5615, 8.023270
536.0436, 7.864189
536.5257, 4.745682
537.0078, 2.381714
537.4899, 0.7669300
537.9720, 7.0877001E-02
538.4542, 0.2740940
538.9363, 1.937378
539.4184, 2.922974
539.9005, 2.537865
540.3826, 1.482254
540.8647, 1.084251
541.3469, 1.314514
541.8290, 1.927895
542.3111, 3.502747
542.7932, 5.096359
543.2753, 4.919479
543.7574, 2.957642
544.2396, 1.069382
544.7217, 0.4831700
545.2038, 0.6957170
545.6859, 1.195091
546.1680, 2.242470
546.6501, 2.771011
547.1323, 1.546928
547.6144, 0.2630080
548.0965, 0.6522600
548.5786, 3.176125
549.0607, 5.642685
549.5428, 4.989250
550.0250, 1.606407
550.5071, 0.3266980
550.9892, 0.3465730
551.4713, 0.2004170
551.9534, 0.7275310
552.4355, 1.295227
552.9177, 1.832581
553.3998, 2.353752
553.8819, 2.784355
554.3640, 3.122131
554.8461, 3.414597
555.3282, 3.241409
555.8104, 2.321983
556.2925, 1.518867
556.7746, 2.419998
557.2567, 4.430542
557.7388, 5.684570
558.2209, 4.273857
558.7031, 2.367264
559.1852, 1.734375
559.6673, 2.427567
560.1494, 3.259232
560.6315, 4.321388
561.1136, 4.927200
561.5958, 4.449478
562.0779, 1.443428
562.5600, 2.9213000E-02
563.0421, 1.900513
563.5242, 4.627594
564.0063, 4.895447
564.4885, 0.9779740
564.9706, 1.214417
565.4527, 0.1588060
565.9348, 3.682953
566.4169, 4.176697
566.8990, 1.270882
567.3812, 1.424522
567.8633, 1.746658
568.3454, 0.3340530
568.8275, 0.4458010
569.3096, 0.5585940
569.7917, 0.7053220
570.2739, 1.986664
570.7560, 3.553375
571.2381, 3.892662
571.7202, 2.166847
572.2023, 0.6473460
572.6844, 1.230980
573.1666, 2.922508
573.6487, 4.176659
574.1308, 4.180717
574.6129, 3.891327
575.0950, 3.741325
575.5771, 3.803612
576.0593, 3.445007
576.5414, 2.024246
577.0235, 0.7170940
577.5056, 0.2152940
577.9877, 0.8467940
578.4698, 5.6869999E-02
578.9520, 3.171829
579.4341, 6.123833
579.9162, 6.349342
580.3983, 4.059830
580.8804, 2.400215
581.3625, 1.846672
581.8447, 2.006485
582.3268, 2.222687
582.8089, 2.572014
583.2910, 3.318932
583.7731, 5.083183
584.2552, 6.824821
584.7373, 7.379021
585.2194, 6.992256
585.7015, 6.586792
586.1837, 6.593613
586.6658, 6.627579
587.1479, 6.342979
587.6300, 5.547958
588.1121, 5.442276
588.5942, 7.479759
589.0764, 9.229248
589.5585, 8.953377
590.0406, 5.333054
590.5227, 3.173134
591.0048, 2.904266
591.4869, 3.553215
591.9691, 3.572273
592.4512, 2.919365
592.9333, 2.572922
593.4154, 2.948624
593.8975, 3.640404
594.3796, 3.851891
594.8618, 3.610855
595.3439, 3.089371
595.8260, 1.810341
596.3081, 0.6369090
596.7902, 0.6974560
597.2723, 1.995705
597.7545, 3.334923
598.2366, 4.548508
598.7187, 5.224960
599.2008, 4.879158
599.6829, 2.567291
600.1650, 1.135094
600.6472, 2.017746
601.1293, 3.526703
601.6114, 3.679825
602.0935, 1.416496
602.5756, 6.6760001E-03
603.0577, 4.1389000E-02
603.5399, 0.9766770
604.0220, 2.475739
604.5041, 4.556816
604.9862, 5.935303
605.4683, 5.649971
605.9504, 4.314034
606.4326, 3.798981
606.9147, 4.001579
607.3968, 4.201103
607.8789, 3.518822
608.3610, 2.656776
608.8431, 2.787262
609.3253, 4.242126
609.8074, 5.493347
610.2895, 5.823021
610.7716, 5.323936
611.2537, 4.142899
611.7358, 0.6658940
612.2180, 1.177094
612.7001, 0.3337400
613.1822, 3.325722
613.6643, 4.573120
614.1464, 2.999649
614.6285, 2.078156
615.1107, 2.953232
615.5928, 5.021698
616.0749, 5.470490
616.5570, 4.165253
617.0391, 3.041283
617.5212, 3.656982
618.0034, 5.203583
618.4855, 5.968399
618.9676, 5.927048
619.4497, 5.390503
619.9318, 3.812828
620.4139, 2.267136
620.8961, 2.212006
621.3782, 4.366341
621.8603, 6.347710
622.3424, 7.298080
622.8245, 7.328522
623.3066, 6.817299
623.7888, 4.683952
624.2709, 3.328674
624.7530, 3.262978
625.2351, 3.909157
625.7172, 4.320671
626.1993, 4.659843
626.6815, 4.570442
627.1636, 3.791832
627.6457, 2.505516
628.1278, 1.291946
628.6099, 0.1257930
629.0920, 0.4288710
629.5742, 0.3789440
630.0563, 1.901405
630.5384, 3.297127
631.0205, 4.510834
631.5026, 5.019981
631.9847, 3.664833
632.4669, 1.856056
632.9490, 1.020561
633.4311, 1.881721
633.9132, 2.704872
634.3953, 2.629097
634.8774, 2.422432
635.3596, 3.101517
635.8417, 5.702118
636.3238, 7.549789
636.8059, 8.266251
637.2880, 8.050011
637.7701, 7.234673
638.2523, 5.639511
638.7344, 4.790428
639.2165, 5.755028
639.6986, 7.609009
640.1807, 7.366188
640.6628, 5.259644
641.1450, 3.512459
641.6271, 4.289253
642.1092, 5.778465
642.5913, 5.577354
643.0734, 3.503136
643.5555, 2.055222
644.0377, 3.074913
644.5198, 4.797325
645.0019, 5.902924
645.4840, 5.937714
645.9661, 5.905083
646.4482, 5.664345
646.9304, 5.532394
647.4125, 6.052635
647.8946, 7.770401
648.3767, 8.110497
648.8588, 6.237358
649.3409, 3.516899
649.8231, 2.626617
650.3052, 3.413284
650.7873, 4.397614
651.2694, 5.359283
651.7515, 5.901596
652.2336, 4.831825
652.7158, 2.690529
653.1979, 1.399323
653.6800, 3.208206
654.1621, 5.202576
654.6442, 5.358261
655.1263, 3.591125
655.6085, 2.219574
656.0906, 1.665146
656.5727, 1.749184
657.0548, 2.600510
657.5369, 4.710342
658.0190, 5.317490
658.5012, 3.750366
658.9833, 1.994896
659.4654, 2.126419
659.9475, 4.062752
660.4296, 6.047508
660.9117, 8.066315
661.3939, 9.523880
661.8760, 9.006378
662.3581, 7.271843
662.8402, 6.190720
663.3223, 6.859650
663.8044, 7.690979
664.2866, 7.583931
664.7687, 6.820984
665.2508, 6.004768
665.7329, 5.763214
666.2150, 5.016838
666.6971, 2.748329
667.1793, 0.5378190
667.6614, 2.062180
668.1435, 1.424942
668.6256, 0.1833270
669.1077, 2.758018
669.5898, 6.124748
670.0720, 7.552444
670.5541, 7.070625
671.0362, 6.384155
671.5183, 6.867752
672.0004, 7.996353
672.4825, 8.942223
672.9647, 9.696442
673.4468, 9.353539
673.9289, 5.486946
674.4110, 1.101967
674.8931, 0.4021910
675.3752, 3.613335
675.8574, 6.307129
676.3395, 4.937546
676.8216, 1.989067
677.3037, 0.1331860
677.7858, 0.7843550
678.2679, 4.4922002E-02
678.7501, 3.147186
679.2322, 7.321793
679.7143, 9.781647
680.1964, 10.49848
680.6785, 9.840149
681.1606, 7.158592
681.6428, 4.003166
682.1249, 3.281876
682.6070, 4.535065
683.0891, 5.699028
683.5712, 5.895012
684.0533, 5.670692
684.5355, 5.278687
685.0176, 4.758087
685.4997, 4.305191
685.9818, 3.756866
686.4639, 3.446365
686.9460, 3.605469
687.4282, 4.386093
687.9103, 5.112823
688.3924, 5.789726
688.8745, 6.301460
689.3566, 6.512337
689.8387, 6.448067
690.3209, 6.488403
690.8030, 6.679619
691.2851, 6.648872
691.7672, 5.632034
692.2493, 4.188202
692.7314, 3.234200
693.2136, 2.989288
693.6957, 3.190826
694.1778, 4.095253
694.6599, 5.211868
695.1420, 5.939880
695.6241, 5.926674
696.1063, 5.805527
696.5884, 5.828140
697.0705, 5.691345
697.5526, 4.485710
698.0347, 1.587959
698.5168, 0.3291630
698.9990, 2.119041
699.4811, 5.451241
699.9632, 6.797829
700.4453, 6.353271
700.9274, 5.268486
701.4095, 3.374741
701.8917, 1.640816
702.3738, 1.387764
702.8559, 2.327744
703.3380, 3.123642
703.8201, 2.886948
704.3022, 2.629318
704.7844, 2.978905
705.2665, 4.005760
705.7486, 5.084785
706.2307, 6.564034
706.7128, 7.589264
707.1949, 7.650024
707.6771, 6.729553
708.1592, 5.405060
708.6413, 3.575821
709.1234, 1.999313
709.6055, 1.118759
710.0876, 1.033569
710.5698, 2.412209
711.0519, 5.543983
711.5340, 8.063972
712.0161, 7.565697
712.4982, 5.917900
712.9803, 5.188248
713.4625, 6.592972
713.9446, 7.238220
714.4267, 5.946327
714.9088, 3.960022
715.3909, 2.440559
715.8730, 1.279556
716.3552, 1.049248
716.8373, 2.071007
717.3194, 3.638054
717.8015, 4.669563
718.2836, 5.189461
718.7657, 5.259972
719.2479, 4.756813
719.7300, 4.068748
720.2121, 3.716568
720.6942, 3.546791
721.1763, 3.204002
721.6584, 2.206200
722.1406, 1.345833
722.6227, 0.7900090
723.1048, 0.6249010
723.5869, 1.228836
724.0690, 3.389465
724.5511, 5.069695
725.0333, 5.667130
725.5154, 5.211021
725.9975, 3.680092
726.4796, 0.9639970
726.9617, 0.9892270
727.4438, 0.7171630
727.9260, 0.9186400
728.4081, 2.176186
728.8902, 3.097778
729.3723, 4.091713
729.8544, 6.350334
730.3365, 8.068680
730.8187, 7.301666
731.3008, 3.648727
731.7829, 1.496162
732.2650, 3.297455
732.7471, 5.189606
733.2292, 5.231331
733.7114, 2.762299
734.1935, 2.390877
734.6756, 4.682625
735.1577, 7.065994
735.6398, 7.018623
736.1219, 5.217720
736.6041, 3.615234
737.0862, 2.309120
737.5683, 1.728706
738.0504, 3.412041
738.5325, 5.475166
739.0146, 5.402138
739.4968, 1.292931
739.9789, 1.228157
740.4610, 1.166618
740.9431, 4.908585
741.4252, 6.380974
741.9073, 4.609962
742.3895, 2.863197
742.8716, 1.053146
743.3537, 0.2138520
743.8358, 0.3580700
744.3179, 2.502487
744.8000, 4.078224
745.2822, 4.566444
745.7643, 4.421074
746.2464, 3.930367
746.7285, 3.226273
747.2106, 2.528778
747.6927, 1.346008
748.1749, 0.8661350
748.6570, 2.219315
749.1391, 4.437126
749.6212, 5.437561
750.1033, 4.392807
750.5854, 3.728088
751.0676, 4.133820
751.5497, 4.959816
752.0318, 4.197433
752.5139, 1.909615
752.9960, 0.5287400
753.4781, 1.459679
753.9603, 3.265114
754.4424, 4.026985
754.9245, 3.942848
755.4066, 3.565384
755.8887, 2.743431
756.3708, 2.082726
756.8530, 1.884674
757.3351, 2.166168
757.8172, 2.695328
758.2993, 3.725037
758.7814, 4.579819
759.2635, 5.231560
759.7457, 5.541092
760.2278, 4.218285
760.7099, 1.145370
761.1920, 0.8899920
761.6741, 0.4963230
762.1563, 3.537270
762.6384, 5.363831
763.1205, 6.075264
763.6026, 6.266533
764.0847, 5.714806
764.5668, 5.199936
765.0490, 5.405014
765.5311, 6.352768
766.0132, 6.583534
766.4953, 5.615440
766.9774, 4.526817
767.4595, 3.778076
767.9417, 3.348961
768.4238, 2.965187
768.9059, 2.657730
769.3880, 2.060616
769.8701, 0.3946300
770.3522, 1.546745
770.8344, 2.347733
771.3165, 1.970833
771.7986, 0.9685210
772.2807, 1.487648
772.7628, 3.568489
773.2449, 3.630341
773.7271, 0.9692920
774.2092, 2.8214000E-02
774.6913, 2.086082
775.1734, 4.092491
775.6555, 3.747742
776.1376, 0.8818210
776.6198, 0.3002780
777.1019, 0.3167040
777.5840, 1.408798
778.0661, 1.874695
778.5482, 2.036659
779.0303, 2.469711
779.5125, 3.250137
779.9946, 4.066330
780.4767, 5.256256
780.9588, 6.079819
781.4409, 5.797424
781.9230, 3.623863
782.4052, 2.565315
782.8873, 3.232376
783.3694, 4.165421
783.8515, 4.082703
784.3336, 2.979057
784.8157, 2.710602
785.2979, 3.547745
785.7800, 4.417419
786.2621, 3.870430
786.7442, 2.726639
787.2263, 2.311951
787.7084, 2.919380
788.1906, 3.650055
788.6727, 4.417778
789.1548, 4.908295
789.6369, 4.754288
790.1190, 3.446350
790.6011, 2.919701
791.0833, 3.503029
791.5654, 4.331978
792.0475, 4.538246
792.5296, 4.185181
793.0117, 4.064964
793.4938, 4.274773
793.9760, 4.430519
794.4581, 3.937965
794.9402, 3.252640
795.4223, 3.074211
795.9044, 3.745514
796.3865, 4.212341
796.8687, 4.121208
797.3508, 3.822784
797.8329, 3.440262
798.3150, 2.625038
798.7971, 3.377304
799.2792, 6.443344
799.7614, 9.412132
800.2435, 9.606384
800.7256, 7.508453
801.2077, 5.339516
801.6898, 3.324905
802.1719, 1.819496
802.6541, 1.006622
803.1362, 0.9824910
803.6183, 2.147774
804.1004, 5.423515
804.5825, 7.351448
805.0646, 5.984467
805.5468, 3.879211
806.0289, 2.901054
806.5110, 3.333115
806.9931, 3.777435
807.4752, 4.282516
807.9573, 4.472519
808.4395, 3.322594
808.9216, 1.599060
809.4037, 1.652672
809.8858, 4.043762
810.3679, 6.207527
810.8500, 5.851402
811.3322, 4.698265
811.8143, 4.430962
812.2964, 6.251320
812.7785, 6.646530
813.2606, 4.823898
813.7427, 2.432503
814.2249, 0.4821780
814.7070, 1.084450
815.1891, 0.8271260
815.6712, 1.529488
816.1533, 4.058861
816.6354, 4.796974
817.1176, 4.484428
817.5997, 4.330414
818.0818, 4.574005
818.5639, 4.460922
819.0460, 2.931450
819.5281, 1.419128
820.0103, 0.9711910
820.4924, 1.856758
820.9745, 2.811302
821.4566, 3.924782
821.9387, 4.917068
822.4208, 5.796600
822.9030, 6.413910
823.3851, 5.314957
823.8672, 2.382065
824.3493, 0.1538390
824.8314, 1.799522
825.3135, 4.535622
825.7957, 5.260559
826.2778, 3.224335
826.7599, 2.264351
827.2420, 4.413147
827.7241, 6.810989
828.2062, 8.001984
828.6884, 7.938972
829.1705, 7.638618
829.6526, 7.123474
830.1347, 6.500778
830.6168, 5.558342
831.0989, 4.611359
831.5811, 4.493896
832.0632, 5.181068
832.5453, 5.614624
833.0274, 4.779121
833.5095, 3.796211
833.9916, 3.480377
834.4738, 3.971275
834.9559, 4.041176
835.4380, 3.618439
835.9201, 2.848892
836.4022, 1.413940
836.8843, 0.5112150
837.3665, 0.6735760
837.8486, 4.793961
838.3307, 7.974342
838.8128, 6.332481
839.2949, 3.480446
839.7770, 3.285812
840.2592, 5.329735
840.7413, 6.757492
841.2234, 5.851501
841.7055, 5.036690
842.1876, 5.271950
842.6697, 6.339851
843.1519, 6.971992
843.6340, 7.162971
844.1161, 6.922165
844.5982, 6.047417
845.0803, 4.892502
845.5624, 4.067810
846.0446, 3.567795
846.5267, 3.393082
847.0088, 3.554230
847.4909, 4.030464
847.9730, 5.324661
848.4551, 6.999329
848.9373, 7.430740
849.4194, 5.831894
849.9015, 4.279732
850.3836, 3.262627
850.8657, 2.760536
851.3478, 3.209702
851.8300, 4.342300
852.3121, 4.332794
852.7942, 1.266586
853.2763, 1.286491
853.7584, 1.034599
854.2405, 5.808327
854.7227, 8.792236
855.2048, 7.102890
855.6869, 5.863319
856.1690, 5.557846
856.6511, 5.753090
857.1332, 5.969070
857.6154, 6.212624
858.0975, 6.396034
858.5796, 6.543076
859.0617, 6.495926
859.5438, 5.859482
860.0259, 4.939560
860.5081, 4.295204
860.9902, 4.191063
861.4723, 4.080940
861.9544, 3.566414
862.4365, 3.076622
862.9186, 3.078148
863.4008, 3.851456
863.8829, 4.144005
864.3650, 3.718513
864.8471, 3.438026
865.3292, 4.706757
865.8113, 6.791565
866.2935, 7.385681
866.7756, 6.133560
867.2577, 5.034447
867.7398, 6.538605
868.2219, 7.958839
868.7040, 6.644066
869.1862, 1.111038
869.6683, 1.561150
870.1504, 0.5475850
870.6325, 1.887093
871.1146, 5.181816
871.5967, 8.991997
872.0789, 9.824959
872.5610, 7.760887
873.0431, 5.103348
873.5252, 2.657082
874.0073, 0.8977130
874.4894, 0.6314930
874.9716, 1.710686
875.4537, 2.539085
875.9358, 2.408485
876.4179, 2.354240
876.9000, 2.715813
877.3821, 3.384575
877.8643, 3.705193
878.3464, 3.667442
878.8285, 4.125526
879.3106, 5.813576
879.7927, 7.843224
880.2748, 9.562027
880.7570, 10.66849
881.2391, 10.41858
881.7212, 6.984818
882.2033, 4.024025
882.6854, 2.294540
883.1675, 1.779579
883.6497, 2.729507
884.1318, 5.597885
884.6139, 6.928604
885.0960, 5.630943
885.5781, 3.661133
886.0602, 4.101204
886.5424, 5.970535
887.0245, 7.208755
887.5066, 7.205963
887.9887, 6.623642
888.4708, 4.910500
888.9529, 3.255432
889.4351, 3.034309
889.9172, 5.388000
890.3993, 5.599617
890.8814, 2.866631
891.3635, 0.2360990
891.8456, 1.853882
892.3278, 5.771202
892.8099, 5.875931
893.2920, 1.573441
893.7741, 1.970490
894.2562, 0.2931900
894.7383, 2.479202
895.2205, 3.500069
895.7026, 2.345932
896.1847, 1.161118
896.6668, 0.3876270
897.1489, 1.130280
897.6310, 7.6583996E-02
898.1132, 2.484665
898.5953, 2.745560
899.0774, 1.204468
899.5595, 0.1508790
900.0416, 1.346497
900.5237, 3.124207
901.0059, 4.528450
901.4880, 5.517029
901.9701, 5.845566
902.4522, 5.184814
902.9343, 4.454628
903.4164, 3.803276
903.8986, 3.212746
904.3807, 2.703857
904.8628, 2.238037
905.3449, 1.446533
905.8270, 9.3079001E-02
906.3091, 1.237740
906.7913, 0.8817600
907.2734, 0.4237060
907.7555, 2.001854
908.2376, 4.381393
908.7197, 5.893867
909.2018, 6.279045
909.6840, 6.096008
910.1661, 5.866608
910.6482, 5.575714
911.1303, 4.985023
911.6124, 4.229263
912.0945, 3.152985
912.5767, 0.4318010
913.0588, 1.866318
913.5409, 1.020760
914.0230, 3.581375
914.5051, 6.433563
914.9872, 5.632202
915.4694, 4.432533
915.9515, 4.221779
916.4336, 4.833771
916.9157, 5.067322
917.3978, 4.928337
917.8799, 4.580368
918.3621, 3.485825
918.8442, 2.726166
919.3263, 4.080994
919.8084, 6.685257
920.2905, 8.077271
920.7726, 6.386856
921.2548, 4.969200
921.7369, 4.531967
922.2190, 4.518250
922.7011, 3.515617
923.1832, 1.631660
923.6653, 1.100281
924.1475, 2.749092
924.6296, 4.737381
925.1117, 5.208878
925.5938, 4.864594
926.0759, 4.574593
926.5580, 4.497978
927.0402, 4.548103
927.5223, 4.660507
928.0044, 4.891548
928.4865, 5.077637
928.9686, 5.185760
929.4507, 5.865150
929.9329, 7.135742
930.4150, 7.845436
930.8971, 6.573593
931.3792, 4.676453
931.8613, 3.128181
932.3434, 2.101288
932.8256, 2.267555
933.3077, 5.832481
933.7898, 7.855606
934.2719, 6.295441
934.7540, 2.431053
935.2361, 0.7942810
935.7183, 1.255287
936.2004, 2.220123
936.6825, 3.561241
937.1646, 4.399529
937.6467, 3.433128
938.1288, 1.508629
938.6110, 1.9791000E-02
939.0931, 1.390610
939.5752, 1.399658
940.0573, 0.5323100
940.5394, 3.095978
941.0215, 5.224457
941.5037, 6.740700
941.9858, 6.313614
942.4679, 3.678833
942.9500, 1.769920
943.4321, 4.448837
943.9142, 8.024391
944.3964, 9.156174
944.8785, 7.308960
945.3606, 5.245232
945.8427, 2.531410
946.3248, 0.8529660
946.8069, 1.279114
947.2891, 3.217896
947.7712, 4.157005
948.2533, 4.230431
948.7354, 4.267570
949.2175, 4.918472
949.6996, 5.453957
950.1818, 5.351761
950.6639, 4.761253
951.1460, 3.940475
951.6281, 2.191261
952.1102, 1.582329
952.5923, 2.464561
953.0745, 3.973434
953.5566, 5.017334
954.0387, 5.727310
954.5208, 6.756577
955.0029, 8.311401
955.4850, 9.188843
955.9672, 8.247581
956.4493, 6.353951
956.9314, 3.734489
957.4135, 0.1814650
957.8956, 0.7902220
958.3777, 1.674217
958.8599, 4.157501
959.3420, 4.680305
959.8241, 3.920280
960.3062, 3.314217
960.7883, 2.908188
961.2704, 2.895485
961.7526, 3.669098
962.2347, 4.526344
962.7168, 5.648636
963.1989, 6.496376
963.6810, 5.817665
964.1631, 3.099487
964.6453, 1.166779
965.1274, 0.3582000
965.6095, 0.4817280
966.0916, 2.065552
966.5737, 4.154625
967.0558, 4.952126
967.5380, 3.978241
968.0201, 2.756081
968.5022, 1.342979
968.9843, 0.3188170
969.4664, 0.1434100
969.9485, 3.5934001E-02
970.4307, 1.960716
970.9128, 5.856140
971.3949, 8.455322
971.8770, 6.423927
972.3591, 2.854836
972.8412, 1.433853
973.3234, 1.661125
973.8055, 2.052078
974.2876, 1.631569
974.7697, 2.148270
975.2518, 4.468140
975.7339, 7.255859
976.2161, 8.347557
976.6982, 7.853157
977.1803, 6.880898
977.6624, 5.542358
978.1445, 4.304764
978.6266, 3.069016
979.1088, 2.445427
979.5909, 3.577782
980.0730, 7.335892
980.5551, 8.233231
981.0372, 4.674622
981.5193, 1.212051
982.0015, 0.2720570
982.4836, 1.172348
982.9657, 1.643394
983.4478, 1.792038
983.9299, 2.118294
984.4120, 3.024673
984.8942, 4.020798
985.3763, 5.226250
985.8584, 6.232758
986.3405, 6.276314
986.8226, 5.097740
987.3047, 3.752586
987.7869, 2.224945
988.2690, 1.007927
988.7511, 0.5855410
989.2332, 0.9356920
989.7153, 2.435501
990.1974, 5.257408
990.6796, 7.154282
991.1617, 6.462990
991.6438, 5.346413
992.1259, 4.886658
992.6080, 4.976746
993.0901, 4.580536
993.5723, 3.690376
994.0544, 3.018066
994.5365, 2.903122
995.0186, 3.146103
995.5007, 3.945656
995.9828, 4.843147
996.4650, 5.006393
996.9471, 3.625534
997.4292, 2.118202
997.9113, 0.2086560
998.3934, 1.154686
998.8755, 0.4252620
999.3577, 1.977196
999.8398, 3.577774
1000.322, 4.218018
1000.804, 4.503296
1001.286, 4.712646
1001.768, 4.847397
1002.250, 4.970932
1002.732, 5.051109
1003.215, 4.646873
1003.697, 3.424042
1004.179, 3.048401
1004.661, 4.521835
1005.143, 6.627502
1005.625, 6.829353
1006.107, 5.773605
1006.589, 4.610359
1007.072, 3.427376
1007.554, 2.705994
1008.036, 2.945045
1008.518, 3.412621
1009.000, 3.556969
1009.482, 3.338478
1009.964, 3.362686
1010.446, 3.639282
1010.928, 3.893021
1011.411, 4.322861
1011.893, 4.325348
1012.375, 2.758621
1012.857, 9.4031997E-02
1013.339, 1.399536
1013.821, 1.027195
1014.303, 8.3228998E-02
1014.785, 1.444260
1015.268, 3.071747
1015.750, 3.973946
1016.232, 4.360077
1016.714, 4.429169
1017.196, 4.167763
1017.678, 3.983299
1018.160, 4.389130
1018.642, 4.792572
1019.124, 4.729996
1019.607, 4.251846
1020.089, 3.329971
1020.571, 1.883415
1021.053, 0.5850070
1021.535, 0.6371080
1022.017, 1.105007
1022.499, 0.9479290
1022.981, 4.427082
1023.464, 6.846466
1023.946, 6.733173
1024.428, 6.370293
1024.910, 5.942970
1025.392, 5.499893
1025.874, 5.130947
1026.356, 4.814548
1026.838, 4.219414
1027.320, 3.311356
1027.803, 2.744698
1028.285, 3.264496
1028.767, 4.039581
1029.249, 4.503006
1029.731, 4.660706
1030.213, 4.920868
1030.695, 5.421673
1031.177, 5.448383
1031.660, 4.681927
1032.142, 3.588184
1032.624, 2.774155
1033.106, 2.210224
1033.588, 1.869877
1034.070, 1.784840
1034.552, 1.819256
1035.034, 1.947201
1035.516, 2.175480
1035.999, 2.398117
1036.481, 2.660545
1036.963, 4.103485
1037.445, 6.557453
1037.927, 8.208473
1038.409, 7.608963
1038.891, 6.142601
1039.373, 4.055912
1039.855, 1.941212
1040.338, 1.294365
1040.820, 2.801918
1041.302, 3.929249
1041.784, 4.392445
1042.266, 4.564133
1042.748, 4.773830
1043.230, 5.038906
1043.712, 5.484173
1044.195, 6.125263
1044.677, 6.479801
1045.159, 6.324009
1045.641, 5.879604
1046.123, 5.143337
1046.605, 4.222801
1047.087, 3.371159
1047.569, 2.617229
1048.052, 2.383343
1048.534, 3.027905
1049.016, 3.649082
1049.498, 2.908451
1049.980, 2.123737
1050.462, 3.085117
1050.944, 6.632473
1051.426, 8.715824
1051.908, 9.298370
1052.391, 8.569069
1052.873, 5.477287
1053.355, 1.763573
1053.837, 0.6992680
1054.319, 1.723469
1054.801, 3.004253
1055.283, 4.034367
1055.765, 5.115887
1056.247, 6.728893
1056.730, 7.931175
1057.212, 6.714169
1057.694, 3.534954
1058.176, 1.802170
1058.658, 1.880970
1059.140, 2.567749
1059.622, 3.509651
1060.104, 4.293026
1060.587, 4.978401
1061.069, 5.342937
1061.551, 3.440609
1062.033, 1.523663
1062.515, 3.831894
1062.997, 0.9836460
1063.479, 3.284954
1063.961, 4.058743
1064.443, 2.945454
1064.926, 2.562325
1065.408, 3.794338
1065.890, 4.649010
1066.372, 4.977180
1066.854, 4.815220
1067.336, 3.746548
1067.818, 2.296764
1068.300, 3.015858
1068.782, 5.376232
1069.265, 7.149323
1069.747, 7.361794
1070.229, 6.578438
1070.711, 3.802231
1071.193, 0.8555340
1071.675, 0.1595610
1072.157, 1.927574
1072.639, 3.505703
1073.122, 4.762577
1073.604, 5.297867
1074.086, 4.375351
1074.568, 2.879749
1075.050, 1.166313
1075.532, 0.4918710
1076.014, 0.7403760
1076.496, 1.139915
1076.979, 2.865768
1077.461, 3.950367
1077.943, 4.471249
1078.425, 4.332504
1078.907, 3.788357
1079.389, 3.239300
1079.871, 2.746162
1080.353, 2.487152
1080.835, 2.387703
1081.318, 2.523632
1081.800, 2.957283
1082.282, 3.643948
1082.764, 4.480206
1083.246, 5.433479
1083.728, 6.314705
1084.210, 7.259884
1084.692, 7.703480
1085.174, 6.941414
1085.656, 5.715034
1086.139, 4.728111
1086.621, 3.955753
1087.103, 3.765041
1087.585, 4.197021
1088.067, 4.736748
1088.549, 5.232914
1089.031, 5.501839
1089.513, 5.153599
1089.996, 4.434673
1090.478, 3.950356
1090.960, 3.368820
1091.442, 4.250927
1091.924, 7.240314
1092.406, 9.885788
1092.888, 8.865067
1093.370, 5.912750
1093.853, 4.896164
1094.335, 5.916870
1094.817, 6.485535
1095.299, 5.335579
1095.781, 3.750931
1096.263, 1.669300
1096.745, 0.2059140
1097.227, 5.0087001E-02
1097.709, 1.817417
1098.192, 3.447849
1098.674, 4.436249
1099.156, 5.290672
1099.638, 6.701660
1100.120, 7.808372
1100.602, 7.835316
1101.084, 6.896996
1101.566, 6.049438
1102.048, 5.271461
1102.531, 4.919109
1103.013, 5.163647
1103.495, 5.840275
1103.977, 7.236805
1104.459, 8.736717
1104.941, 9.538509
1105.423, 9.497833
1105.905, 8.588806
1106.388, 6.444073
1106.870, 4.617519
1107.352, 4.146900
1107.834, 4.638542
1108.316, 6.009727
1108.798, 7.696972
1109.280, 8.166534
1109.762, 5.188831
1110.245, 3.515297
1110.727, 4.271534
1111.209, 5.485352
1111.691, 4.770222
1112.173, 2.775761
1112.655, 1.860542
1113.137, 2.126358
1113.619, 3.390553
1114.101, 7.280819
1114.583, 10.12631
1115.066, 9.754463
1115.548, 7.863750
1116.030, 7.361980
1116.512, 8.203331
1116.994, 8.595741
1117.476, 8.281723
1117.958, 7.442841
1118.440, 5.668911
1118.923, 3.895691
1119.405, 3.012352
1119.887, 2.746231
1120.369, 1.623547
1120.851, 0.2340240
1121.333, 0.9619980
1121.815, 0.1348300
1122.297, 1.861053
1122.780, 2.920067
1123.262, 3.832241
1123.744, 5.532658
1124.226, 8.588478
1124.708, 9.416153
1125.190, 7.172157
1125.672, 5.296265
1126.154, 5.785748
1126.636, 7.046265
1127.119, 6.087364
1127.601, 3.776798
1128.083, 1.640911
1128.565, 0.7687030
1129.047, 0.7622300
1129.529, 3.082855
1130.011, 7.032860
1130.493, 8.481953
1130.975, 8.017876
1131.458, 7.688641
1131.940, 7.323048
1132.422, 6.261093
1132.904, 3.205883
1133.386, 0.6732560
1133.868, 0.9277080
1134.350, 1.486164
1134.832, 0.5310330
1135.315, 1.684788
1135.797, 2.730873
1136.279, 2.621628
1136.761, 2.804504
1137.243, 4.882156
1137.725, 6.720200
1138.207, 7.133797
1138.689, 6.633347
1139.172, 5.799263
1139.654, 4.602245
1140.136, 4.271938
1140.618, 4.993107
1141.100, 5.740982
1141.582, 5.452892
1142.064, 5.084641
1142.546, 5.463558
1143.028, 6.442764
1143.510, 7.366714
1143.993, 8.314095
1144.475, 7.823589
1144.957, 5.297035
1145.439, 2.875935
1145.921, 3.192268
1146.403, 4.642376
1146.885, 6.027321
1147.367, 7.168785
1147.850, 5.947296
1148.332, 1.354027
1148.814, 1.879406
1149.296, 2.051552
1149.778, 0.4736100
1150.260, 1.603973
1150.742, 3.801266
1151.224, 5.581028
1151.707, 6.887497
1152.189, 7.367912
1152.671, 6.778393
1153.153, 5.999500
1153.635, 5.453499
1154.117, 4.962444
1154.599, 4.665394
1155.081, 4.669373
1155.563, 5.264374
1156.046, 7.338860
1156.528, 7.939980
1157.010, 6.200230
1157.492, 4.020199
1157.974, 2.140450
1158.456, 0.9382480
1158.938, 2.771713
1159.420, 6.473427
1159.902, 8.294983
1160.385, 4.586174
1160.867, 1.837563
1161.349, 1.425682
1161.831, 2.275311
1162.313, 4.112225
1162.795, 6.539852
1163.277, 6.771561
1163.759, 5.206013
1164.242, 4.313229
1164.724, 6.852695
1165.206, 8.417557
1165.688, 6.428654
1166.170, 3.607193
1166.652, 3.552666
1167.134, 5.835419
1167.616, 5.632446
1168.099, 2.901630
1168.581, 0.7657660
1169.063, 1.089817
1169.545, 2.602882
1170.027, 5.904926
1170.509, 9.343262
1170.991, 10.28261
1171.473, 8.799278
1171.955, 5.988220
1172.438, 1.938770
1172.920, 0.7279430
1173.402, 1.118500
1173.884, 3.859947
1174.366, 5.607037
1174.848, 6.360287
1175.330, 5.713577
1175.812, 3.616570
1176.294, 2.775692
1176.777, 3.735188
1177.259, 4.967201
1177.741, 5.342361
1178.223, 5.350224
1178.705, 5.271179
1179.187, 5.104927
1179.669, 4.975880
1180.151, 4.819092
1180.634, 4.683529
1181.116, 4.592079
1181.598, 4.471497
1182.080, 4.179928
1182.562, 3.883865
1183.044, 3.896656
1183.526, 4.155899
1184.008, 3.394073
1184.490, 1.376141
1184.973, 0.7985000
1185.455, 2.996914
1185.937, 5.325554
1186.419, 4.874371
1186.901, 3.227901
1187.383, 1.654968
1187.865, 8.0585003E-02
1188.347, 0.6020550
1188.829, 3.546875
1189.312, 5.952721
1189.794, 6.589848
1190.276, 6.353462
1190.758, 5.830635
1191.240, 5.261864
1191.722, 4.873028
1192.204, 4.734776
1192.686, 4.914394
1193.169, 5.470196
1193.651, 5.729023
1194.133, 5.222389
1194.615, 4.544590
1195.097, 4.273846
1195.579, 4.345863
1196.061, 4.799957
1196.543, 5.915405
1197.026, 5.893776
1197.508, 4.419029
1197.990, 3.742607
1198.472, 6.263584
1198.954, 8.947384
1199.436, 7.447758
1199.918, 3.750126
1200.400, 0.9500350
1200.882, 0.7836420
1201.365, 0.5807150
1201.847, 1.853783
1202.329, 4.600327
1202.811, 6.811470
1203.293, 8.262531
1203.775, 8.002853
1204.257, 6.984791
1204.739, 7.221634
1205.221, 10.68230
1205.704, 10.32088
1206.186, 5.377495
1206.668, 0.4805600
1207.150, 0.7878380
1207.632, 4.7802001E-02
1208.114, 1.962132
1208.596, 4.277275
1209.078, 5.590401
1209.561, 5.698364
1210.043, 4.140755
1210.525, 0.4596020
1211.007, 1.986336
1211.489, 1.077084
1211.971, 5.356052
1212.453, 5.711521
1212.935, 3.435692
1213.417, 2.053875
1213.900, 1.886250
1214.382, 2.722828
1214.864, 4.775463
1215.346, 6.320839
1215.828, 5.310902
1216.310, 3.564510
1216.792, 2.985195
1217.274, 3.276009
1217.756, 3.321072
1218.239, 2.743870
1218.721, 3.201206
1219.203, 4.930065
1219.685, 6.826542
1220.167, 8.348618
1220.649, 9.226109
1221.131, 8.675629
1221.613, 7.287411
1222.096, 6.981884
1222.578, 8.207512
1223.060, 8.666592
1223.542, 8.116932
1224.024, 7.052467
1224.506, 4.812447
1224.988, 3.208588
1225.470, 4.516411
1225.953, 7.805275
1226.435, 9.737743
1226.917, 10.17671
1227.399, 9.857876
1227.881, 8.864544
1228.363, 7.919834
1228.845, 8.175888
1229.327, 8.382153
1229.809, 7.121262
1230.292, 6.805042
1230.774, 6.007462
1231.256, 4.562954
1231.738, 4.123528
1232.220, 2.405804
1232.702, 0.8687520
1233.184, 0.4879040
1233.666, 0.8911510
1234.148, 2.437489
1234.631, 4.406300
1235.113, 4.873924
1235.595, 3.812519
1236.077, 3.965187
1236.559, 5.739628
1237.041, 6.989193
1237.523, 5.390362
1238.005, 3.537857
1238.488, 3.167957
1238.970, 3.643036
1239.452, 3.548988
1239.934, 2.992779
1240.416, 3.704956
1240.898, 5.914223
1241.380, 7.826126
1241.862, 8.453979
1242.344, 8.212143
1242.827, 7.201778
1243.309, 5.564442
1243.791, 2.931374
1244.273, 0.2581940
1244.755, 0.7204020
1245.237, 1.979137
1245.719, 4.055702
1246.201, 2.408295
1246.683, 1.044502
1247.166, 1.643208
1247.648, 3.149696
1248.130, 3.653923
1248.612, 3.451378
1249.094, 3.438416
1249.576, 3.735825
1250.058, 4.541721
1250.540, 7.400734
1251.023, 8.619129
1251.505, 6.563858
1251.987, 3.487213
1252.469, 3.575386
1252.951, 5.568661
1253.433, 6.670807
1253.915, 6.628334
1254.397, 6.787834
1254.880, 8.484982
1255.362, 8.598663
1255.844, 5.901211
1256.326, 2.553257
1256.808, 1.197803
1257.290, 1.519272
1257.772, 2.555321
1258.254, 4.155014
1258.736, 5.706425
1259.219, 7.442047
1259.701, 8.258526
1260.183, 7.796619
1260.665, 6.928852
1261.147, 6.789162
1261.629, 6.781315
1262.111, 5.568821
1262.593, 6.753597
1263.075, 4.053810
1263.558, 8.289799
1264.040, 10.95198
1264.522, 11.15567
1265.004, 9.558720
1265.486, 5.038456
1265.968, 0.4866600
1266.450, 1.476162
1266.932, 0.9518240
1267.415, 0.7195170
1267.897, 3.683971
1268.379, 6.127285
1268.861, 7.809326
1269.343, 8.371651
1269.825, 6.116905
1270.307, 4.035023
1270.789, 5.063896
1271.271, 7.487682
1271.754, 7.684574
1272.236, 5.795837
1272.718, 4.176186
1273.200, 3.107319
1273.682, 2.598728
1274.164, 3.748024
1274.646, 4.924934
1275.128, 5.496082
1275.610, 5.780453
1276.093, 6.235428
1276.575, 6.844345
1277.057, 7.906143
1277.539, 9.308380
1278.021, 9.563046
1278.503, 6.220947
1278.985, 4.150227
1279.467, 4.810734
1279.950, 6.366055
1280.432, 6.416107
1280.914, 5.671471
1281.396, 6.102894
1281.878, 5.443626
1282.360, 4.646965
1282.842, 4.858131
1283.324, 3.259804
1283.807, 3.667572
1284.289, 4.201447
1284.771, 1.544807
1285.253, 0.9117010
1285.735, 0.4884720
1286.217, 2.184940
1286.699, 4.485153
1287.181, 6.426117
1287.663, 6.761391
1288.146, 5.168324
1288.628, 3.813461
1289.110, 5.259163
1289.592, 6.945423
1290.074, 6.524422
1290.556, 4.750618
1291.038, 3.255066
1291.520, 1.992359
1292.002, 1.957039
1292.485, 3.151306
1292.967, 4.246758
1293.449, 4.392174
1293.931, 3.612442
1294.413, 2.737530
1294.895, 2.440186
1295.377, 2.408070
1295.859, 2.734097
1296.342, 4.757999
1296.824, 8.034637
1297.306, 9.929241
1297.788, 9.006989
1298.270, 7.251160
1298.752, 4.657719
1299.234, 2.200840
1299.716, 0.5948640
1300.198, 5.3093001E-02
1300.681, 0.9569590
1301.163, 2.538700
1301.645, 1.467133
1302.127, 0.0000000E+00
##END=



