##NAMES=Marsturite
##RRUFFID=R141210
##IDEAL CHEMISTRY=NaCaMn^2+^_3_Si_5_O_14_(OH)
##LOCALITY=Wessels mine, Kalahari Manganese Field, Northern Cape Province, South Africa
##OWNER=RRUFF
##SOURCE=Jaco and Tania Janse van Nieuwenhuizen
##DESCRIPTION=Colorless granular crystals in a vein. The matrix is a mixture of quartz and bixbyite, associated with marshallsussmanite.
##STATUS=The identification of this mineral is confirmed by single-crystal X-ray diffraction and chemical analysis.
##URL=rruff.info/R141210
##MEASURED CHEMISTRY=(Na_0.80_Ca_0.13_)_Σ=0.93_Ca_1.00_(Mn^2+^_2.81_Mg_0.12_Fe^2+^_0.01_)_Σ=2.94_Si_5.00_O_14_(OH)
93.64014, 0.0000000E+00
94.12225, 1.022583
94.60437, 1.966431
95.08649, 2.539429
95.56860, 2.509583
96.05072, 3.338318
96.53284, 5.579895
97.01495, 7.649597
97.49707, 8.386536
97.97919, 6.440125
98.46130, 5.664734
98.94342, 6.638855
99.42554, 5.178345
99.90765, 4.111206
100.3898, 2.706482
100.8719, 1.143494
101.3540, 0.8014530
101.8361, 2.120789
102.3182, 2.962219
102.8004, 2.178284
103.2825, 0.9976200
103.7646, 2.176147
104.2467, 0.5413820
104.7288, 2.657471
105.2109, 4.255310
105.6931, 2.662170
106.1752, 1.889404
106.6573, 3.726074
107.1394, 9.291992
107.6215, 15.47229
108.1036, 22.91870
108.5858, 31.20306
109.0679, 37.83081
109.5500, 41.26691
110.0321, 44.27942
110.5142, 48.32025
110.9963, 54.19879
111.4785, 60.19952
111.9606, 66.07391
112.4427, 71.84174
112.9248, 77.86926
113.4069, 85.17065
113.8890, 92.27734
114.3712, 98.08417
114.8533, 102.7115
115.3354, 105.7043
115.8175, 106.8187
116.2996, 106.0204
116.7817, 103.9834
117.2639, 100.5421
117.7460, 96.11987
118.2281, 91.25696
118.7102, 85.39093
119.1923, 79.63367
119.6744, 74.63135
120.1566, 70.41156
120.6387, 67.00092
121.1208, 65.02466
121.6029, 63.82800
122.0850, 62.32520
122.5671, 58.80206
123.0493, 55.13171
123.5314, 53.44946
124.0135, 54.66931
124.4956, 56.71906
124.9777, 57.97906
125.4598, 58.47620
125.9420, 58.33740
126.4241, 57.27203
126.9062, 55.65222
127.3883, 54.19611
127.8704, 53.15326
128.3525, 52.18787
128.8347, 50.61877
129.3168, 48.47534
129.7989, 46.51129
130.2810, 45.59912
130.7631, 45.51514
131.2452, 44.96973
131.7274, 43.44885
132.2095, 41.36774
132.6916, 39.83160
133.1737, 38.86981
133.6558, 38.17047
134.1379, 37.36041
134.6201, 36.47223
135.1022, 35.81976
135.5843, 35.37982
136.0664, 35.20209
136.5485, 35.68097
137.0306, 36.73383
137.5128, 38.71405
137.9949, 42.32953
138.4770, 47.90216
138.9591, 53.68439
139.4412, 59.18347
139.9233, 64.34161
140.4055, 69.95728
140.8876, 76.81873
141.3697, 83.39679
141.8518, 87.35327
142.3339, 88.69690
142.8160, 87.75110
143.2982, 84.27441
143.7803, 77.53833
144.2624, 70.05682
144.7445, 61.67212
145.2266, 53.00342
145.7087, 45.49725
146.1909, 39.00293
146.6730, 33.49017
147.1551, 28.73413
147.6372, 24.24152
148.1193, 21.29010
148.6014, 20.30322
149.0836, 20.70898
149.5657, 20.99817
150.0478, 21.30914
150.5299, 21.57843
151.0120, 22.07794
151.4941, 22.56525
151.9763, 24.18262
152.4584, 27.63324
152.9405, 32.49731
153.4226, 36.71619
153.9047, 39.59692
154.3868, 42.14282
154.8690, 44.89941
155.3511, 48.62573
155.8332, 51.80927
156.3153, 54.11780
156.7974, 55.60767
157.2795, 56.76672
157.7617, 57.75623
158.2438, 58.42914
158.7259, 58.67468
159.2080, 58.34747
159.6901, 57.78851
160.1722, 57.12476
160.6544, 56.33392
161.1365, 55.11816
161.6186, 53.50543
162.1007, 51.63000
162.5828, 49.37231
163.0649, 45.99719
163.5471, 42.69452
164.0292, 40.02716
164.5113, 38.03381
164.9934, 36.37134
165.4755, 35.29449
165.9576, 34.29340
166.4398, 32.79318
166.9219, 29.55795
167.4040, 26.42685
167.8861, 24.81647
168.3682, 24.84219
168.8503, 25.18893
169.3325, 25.08008
169.8146, 24.72882
170.2967, 24.48804
170.7788, 24.54871
171.2609, 24.76743
171.7430, 25.06946
172.2252, 25.46759
172.7073, 25.80814
173.1894, 26.13879
173.6715, 26.32806
174.1536, 26.09772
174.6357, 25.05099
175.1179, 23.61404
175.6000, 22.24164
176.0821, 20.97101
176.5642, 19.85220
177.0463, 18.94046
177.5284, 18.22162
178.0106, 17.67389
178.4927, 17.53622
178.9748, 17.50220
179.4569, 16.89127
179.9390, 15.45383
180.4211, 14.13046
180.9033, 14.22144
181.3854, 15.49115
181.8675, 16.80713
182.3496, 17.52158
182.8317, 17.80777
183.3138, 18.17081
183.7960, 18.76025
184.2781, 19.15173
184.7602, 18.69562
185.2423, 17.43457
185.7244, 15.81198
186.2065, 13.94666
186.6887, 11.89395
187.1708, 9.799591
187.6529, 7.634399
188.1350, 5.524414
188.6171, 3.767578
189.0992, 2.339386
189.5814, 1.040466
190.0635, 0.3489380
190.5456, 1.785736
191.0277, 2.799103
191.5098, 3.285309
191.9919, 3.420868
192.4741, 3.584900
192.9562, 3.788483
193.4383, 3.762787
193.9204, 3.121674
194.4025, 1.920685
194.8846, 1.139893
195.3668, 0.9669800
195.8489, 1.196167
196.3310, 1.433594
196.8131, 1.708252
197.2952, 1.780792
197.7773, 1.286346
198.2595, 0.1973880
198.7416, 0.3267210
199.2237, 1.6357001E-02
199.7058, 0.8720090
200.1879, 1.191467
200.6700, 0.8594360
201.1522, 0.5146790
201.6343, 0.6540530
202.1164, 1.333527
202.5985, 1.906799
203.0806, 2.348450
203.5627, 2.601654
204.0449, 2.358551
204.5270, 1.466949
205.0091, 0.5917050
205.4912, 0.4245300
205.9733, 1.207977
206.4554, 1.109161
206.9376, 0.4430850
207.4197, 2.929932
207.9018, 4.353363
208.3839, 4.444977
208.8660, 4.170929
209.3481, 4.141724
209.8303, 4.387024
210.3124, 4.778931
210.7945, 5.231262
211.2766, 5.824768
211.7587, 7.078247
212.2408, 9.309296
212.7230, 11.54797
213.2051, 13.09686
213.6872, 13.69736
214.1693, 14.47021
214.6514, 15.47635
215.1335, 16.73404
215.6157, 18.39536
216.0978, 20.75052
216.5799, 22.97086
217.0620, 24.53619
217.5441, 25.33911
218.0262, 25.76212
218.5084, 25.78400
218.9905, 25.44919
219.4726, 24.94794
219.9547, 24.13196
220.4368, 23.39941
220.9189, 23.04178
221.4011, 23.21088
221.8832, 23.38342
222.3653, 23.54507
222.8474, 23.68973
223.3295, 23.76407
223.8116, 23.69843
224.2938, 23.67419
224.7759, 23.82669
225.2580, 24.29819
225.7401, 24.55368
226.2222, 24.42346
226.7043, 24.04861
227.1865, 24.09137
227.6686, 24.86252
228.1507, 25.57108
228.6328, 25.73438
229.1149, 25.13339
229.5970, 24.49896
230.0792, 23.86594
230.5613, 23.23517
231.0434, 22.59726
231.5255, 21.86526
232.0076, 21.27646
232.4897, 21.02560
232.9719, 21.42969
233.4540, 21.45810
233.9361, 20.91626
234.4182, 19.99124
234.9003, 19.30051
235.3824, 18.81763
235.8646, 18.61053
236.3467, 18.76645
236.8288, 19.54614
237.3109, 20.08902
237.7930, 20.31482
238.2751, 20.28491
238.7573, 20.13586
239.2394, 19.60892
239.7215, 19.32874
240.2036, 19.62628
240.6857, 20.85504
241.1678, 21.81619
241.6500, 22.34103
242.1321, 22.63324
242.6142, 23.26132
243.0963, 24.45447
243.5784, 25.63104
244.0605, 26.58200
244.5427, 27.42767
245.0248, 27.72208
245.5069, 27.18512
245.9890, 26.20941
246.4711, 25.69278
246.9532, 25.96689
247.4354, 26.15372
247.9175, 25.86911
248.3996, 24.97479
248.8817, 24.02756
249.3638, 23.06967
249.8459, 22.12189
250.3281, 21.12430
250.8102, 19.84366
251.2923, 18.94580
251.7744, 18.75388
252.2565, 19.45703
252.7386, 20.23523
253.2208, 21.09866
253.7029, 21.93832
254.1850, 22.57248
254.6671, 22.70126
255.1492, 23.22473
255.6313, 24.61404
256.1135, 27.11115
256.5956, 28.96729
257.0777, 29.91583
257.5598, 30.29907
258.0419, 30.46661
258.5240, 29.95746
259.0062, 30.39502
259.4883, 32.45789
259.9704, 36.19397
260.4525, 39.53546
260.9346, 42.43982
261.4167, 44.97852
261.8989, 47.20526
262.3810, 49.04706
262.8631, 50.88806
263.3452, 52.82220
263.8273, 54.82452
264.3094, 56.35370
264.7916, 57.38367
265.2737, 58.22888
265.7558, 59.33002
266.2379, 60.90344
266.7200, 61.94568
267.2021, 62.23163
267.6843, 61.80359
268.1664, 61.08966
268.6485, 60.06140
269.1306, 58.79871
269.6127, 57.32581
270.0948, 55.58630
270.5770, 53.89551
271.0591, 52.40674
271.5412, 50.99176
272.0233, 48.97510
272.5054, 46.24658
272.9875, 43.26215
273.4697, 40.26807
273.9518, 37.19153
274.4339, 34.43774
274.9160, 32.06451
275.3981, 30.03528
275.8802, 28.23413
276.3624, 26.70129
276.8445, 25.35303
277.3266, 24.18475
277.8087, 23.21149
278.2908, 22.22247
278.7729, 21.15961
279.2551, 20.12946
279.7372, 19.44543
280.2193, 19.15741
280.7014, 18.89630
281.1835, 18.43292
281.6656, 17.77228
282.1478, 17.19843
282.6299, 16.71753
283.1120, 16.33789
283.5941, 16.05176
284.0762, 15.85632
284.5583, 15.83270
285.0405, 15.98431
285.5226, 16.32269
286.0047, 17.03180
286.4868, 18.18689
286.9689, 19.46082
287.4510, 20.44147
287.9332, 21.13354
288.4153, 21.66266
288.8974, 21.87170
289.3795, 21.93256
289.8616, 22.48029
290.3438, 23.52698
290.8259, 24.97168
291.3080, 26.92987
291.7901, 29.30194
292.2722, 31.54510
292.7543, 33.41321
293.2365, 35.01624
293.7186, 36.51239
294.2007, 37.86646
294.6828, 39.38037
295.1649, 41.47595
295.6470, 44.00031
296.1292, 46.50659
296.6113, 48.88550
297.0934, 51.12732
297.5755, 53.28491
298.0576, 55.36816
298.5397, 57.32581
299.0219, 58.85358
299.5040, 60.27838
299.9861, 62.36029
300.4682, 65.46185
300.9503, 68.76837
301.4324, 71.24487
301.9146, 73.05811
302.3967, 74.99933
302.8788, 77.16388
303.3609, 79.86926
303.8430, 83.74652
304.3251, 89.13708
304.8073, 94.71228
305.2894, 99.04663
305.7715, 102.5936
306.2536, 106.5966
306.7357, 111.9431
307.2178, 117.8829
307.7000, 123.7358
308.1821, 129.4778
308.6642, 134.7556
309.1463, 139.4354
309.6284, 143.4313
310.1105, 146.6760
310.5927, 148.9078
311.0748, 150.4811
311.5569, 151.6979
312.0390, 152.5569
312.5211, 152.8087
313.0032, 152.5384
313.4854, 151.5308
313.9675, 149.5542
314.4496, 146.2001
314.9317, 142.1952
315.4138, 137.7513
315.8959, 132.9061
316.3781, 127.7415
316.8602, 121.8856
317.3423, 116.0205
317.8244, 110.6798
318.3065, 106.2988
318.7886, 102.0122
319.2708, 97.15613
319.7529, 92.14661
320.2350, 88.14166
320.7171, 86.47540
321.1992, 85.18671
321.6813, 83.28247
322.1635, 80.31702
322.6456, 77.43762
323.1277, 75.12292
323.6098, 72.97949
324.0919, 70.34497
324.5740, 66.34406
325.0562, 62.56610
325.5383, 59.58325
326.0204, 57.63672
326.5025, 55.61072
326.9846, 53.60266
327.4667, 51.42780
327.9489, 48.86743
328.4310, 45.56116
328.9131, 42.28040
329.3952, 39.05145
329.8773, 35.87311
330.3594, 33.06897
330.8416, 30.60480
331.3237, 28.56500
331.8058, 27.09717
332.2879, 26.84180
332.7700, 26.03156
333.2521, 24.28491
333.7343, 21.81293
334.2164, 19.65759
334.6985, 17.64490
335.1806, 16.24799
335.6627, 15.90405
336.1448, 17.15637
336.6270, 17.72681
337.1091, 17.28662
337.5912, 16.33337
338.0733, 15.98969
338.5554, 16.53485
339.0375, 16.80103
339.5197, 16.24164
340.0018, 14.81683
340.4839, 13.37628
340.9660, 11.88959
341.4481, 10.50787
341.9302, 9.467102
342.4124, 8.768677
342.8945, 8.284790
343.3766, 8.192871
343.8587, 8.273254
344.3408, 7.292419
344.8229, 5.106201
345.3051, 2.859863
345.7872, 1.653992
346.2693, 1.364014
346.7514, 1.175781
347.2335, 1.004089
347.7156, 0.7581180
348.1978, 0.2397460
348.6799, 0.5349120
349.1620, 1.415955
349.6441, 2.595520
350.1262, 3.783630
350.6083, 4.229492
351.0905, 3.754089
351.5726, 2.857178
352.0547, 1.726257
352.5368, 0.5788570
353.0189, 7.2998002E-02
353.5010, 1.353943
353.9832, 3.079895
354.4653, 3.368591
354.9474, 2.092896
355.4295, 0.8473510
355.9116, 1.078979
356.3937, 2.110779
356.8759, 2.924805
357.3580, 3.222168
357.8401, 3.127014
358.3222, 2.542236
358.8043, 1.544922
359.2864, 0.6339110
359.7686, 0.2415770
360.2507, 4.3517999E-02
360.7328, 0.6347050
361.2149, 2.080627
361.6970, 3.074585
362.1791, 2.600708
362.6613, 1.268372
363.1434, 0.4846190
363.6255, 1.026428
364.1076, 1.943176
364.5897, 2.824951
365.0718, 3.584045
365.5540, 4.381104
366.0361, 5.397400
366.5182, 6.415039
367.0003, 7.174805
367.4824, 7.634583
367.9645, 7.859009
368.4467, 7.672546
368.9288, 7.047791
369.4109, 6.961121
369.8930, 7.985107
370.3751, 9.125610
370.8572, 9.731079
371.3394, 9.677246
371.8215, 9.276367
372.3036, 8.302185
372.7857, 7.000488
373.2678, 6.221436
373.7499, 5.995422
374.2321, 6.214355
374.7142, 6.991272
375.1963, 8.618042
375.6784, 9.566711
376.1605, 9.801941
376.6426, 9.372437
377.1248, 7.980957
377.6069, 5.291809
378.0890, 3.610046
378.5711, 4.218689
379.0532, 6.655334
379.5353, 7.249573
380.0175, 5.717957
380.4996, 3.806091
380.9817, 3.221436
381.4638, 3.822388
381.9459, 4.479248
382.4280, 5.089844
382.9102, 5.455811
383.3923, 5.040466
383.8744, 3.897522
384.3565, 2.648865
384.8386, 1.484070
385.3207, 0.5269170
385.8029, 0.1880490
386.2850, 0.5905760
386.7671, 1.133301
387.2492, 1.009277
387.7313, 0.5459590
388.2134, 0.4942020
388.6956, 1.993896
389.1777, 3.542114
389.6598, 3.437683
390.1419, 1.769836
390.6240, 0.3563230
391.1061, 0.6027220
391.5883, 1.556274
392.0704, 2.204590
392.5525, 1.947632
393.0346, 1.844849
393.5167, 2.507568
393.9988, 3.668945
394.4810, 4.688843
394.9631, 5.414917
395.4452, 5.967224
395.9273, 6.302429
396.4094, 6.273560
396.8915, 6.271240
397.3737, 6.110107
397.8558, 6.185364
398.3379, 6.925781
398.8200, 9.322327
399.3021, 11.26990
399.7842, 12.21716
400.2664, 12.20331
400.7485, 12.28247
401.2306, 12.31146
401.7127, 12.56146
402.1948, 13.25055
402.6769, 14.67706
403.1591, 15.88898
403.6412, 16.73438
404.1233, 17.35925
404.6054, 18.14667
405.0875, 19.10297
405.5696, 20.20361
406.0518, 21.62756
406.5339, 23.40411
407.0160, 24.15112
407.4981, 23.49902
407.9802, 22.77155
408.4623, 24.13232
408.9445, 27.61157
409.4266, 29.85999
409.9087, 29.55365
410.3908, 27.74329
410.8729, 26.47827
411.3550, 25.70911
411.8372, 25.16266
412.3193, 24.83453
412.8014, 24.70447
413.2835, 24.56671
413.7656, 24.34674
414.2477, 23.99078
414.7299, 23.27905
415.2120, 22.41602
415.6941, 21.87860
416.1762, 22.25262
416.6583, 22.83099
417.1404, 22.94830
417.6226, 22.57233
418.1047, 22.02490
418.5868, 21.31061
419.0689, 20.57886
419.5510, 19.96930
420.0331, 19.59607
420.5153, 19.26678
420.9974, 19.09772
421.4795, 18.93994
421.9616, 18.37683
422.4437, 16.83881
422.9258, 15.28015
423.4080, 14.19122
423.8901, 13.82861
424.3722, 13.12628
424.8543, 11.41467
425.3364, 9.630005
425.8185, 8.719666
426.3007, 9.436646
426.7828, 9.916382
427.2649, 9.716248
427.7470, 8.999329
428.2291, 8.874023
428.7112, 9.539978
429.1934, 10.44067
429.6755, 11.44013
430.1576, 12.69916
430.6397, 13.05499
431.1218, 12.21332
431.6039, 10.87744
432.0861, 10.08099
432.5682, 9.841736
433.0503, 9.966980
433.5324, 10.59778
434.0145, 11.50629
434.4966, 11.82129
434.9788, 11.53369
435.4609, 11.10260
435.9430, 10.92767
436.4251, 10.91614
436.9072, 10.78497
437.3893, 10.44678
437.8715, 10.07678
438.3536, 9.859924
438.8357, 9.770691
439.3178, 9.735962
439.7999, 9.894043
440.2820, 9.968872
440.7642, 9.494690
441.2463, 8.434998
441.7284, 7.772400
442.2105, 8.482666
442.6926, 9.628662
443.1747, 10.31085
443.6569, 10.17358
444.1390, 9.667480
444.6211, 8.695129
445.1032, 7.411377
445.5853, 6.301025
446.0674, 5.738953
446.5496, 5.127869
447.0317, 4.177979
447.5138, 2.684814
447.9959, 1.544678
448.4780, 0.9472050
448.9601, 0.5882570
449.4423, 0.1190800
449.9244, 0.6499020
450.4065, 1.081665
450.8886, 0.8995970
451.3707, 0.3178100
451.8528, 0.3812870
452.3350, 1.378296
452.8171, 2.164978
453.2992, 1.899719
453.7813, 0.5671390
454.2634, 5.3711001E-02
454.7455, 0.5738530
455.2277, 1.380981
455.7098, 1.618530
456.1919, 1.316345
456.6740, 0.6026610
457.1561, 0.7327880
457.6382, 2.224487
458.1204, 3.053589
458.6025, 3.267761
459.0846, 3.140991
459.5667, 2.549072
460.0488, 1.861206
460.5309, 1.606384
461.0131, 1.934326
461.4952, 2.366211
461.9773, 2.742310
462.4594, 2.968689
462.9415, 2.909912
463.4236, 2.114014
463.9058, 1.392517
464.3879, 1.300293
464.8700, 1.735779
465.3521, 1.718689
465.8342, 4.5170002E-03
466.3163, 1.510742
466.7985, 1.627197
467.2806, 1.000000
467.7627, 2.670166
468.2448, 2.714111
468.7269, 2.013000
469.2090, 1.822021
469.6912, 2.441284
470.1733, 3.029602
470.6554, 3.436951
471.1375, 3.659912
471.6196, 3.606201
472.1017, 3.154602
472.5839, 2.761963
473.0660, 2.813721
473.5481, 3.316162
474.0302, 3.609192
474.5123, 3.585693
474.9944, 3.512207
475.4766, 4.046997
475.9587, 5.031128
476.4408, 5.369873
476.9229, 3.981995
477.4050, 2.086792
477.8871, 1.884338
478.3693, 3.230896
478.8514, 4.779602
479.3335, 5.796570
479.8156, 6.393433
480.2977, 6.611633
480.7798, 6.336853
481.2620, 6.096069
481.7441, 6.379578
482.2262, 6.838867
482.7083, 6.962097
483.1904, 5.733398
483.6725, 4.940735
484.1547, 5.656067
484.6368, 7.729919
485.1189, 9.044067
485.6010, 8.660400
486.0831, 7.935303
486.5652, 7.526917
487.0474, 7.457275
487.5295, 7.670898
488.0116, 8.348511
488.4937, 9.171814
488.9758, 9.627014
489.4579, 9.495117
489.9401, 9.722778
490.4222, 10.77319
490.9043, 12.32996
491.3864, 12.74335
491.8685, 11.83655
492.3506, 11.01776
492.8328, 11.59070
493.3149, 13.16058
493.7970, 13.87830
494.2791, 13.54047
494.7612, 12.69824
495.2433, 11.49780
495.7255, 10.26935
496.2076, 9.873291
496.6897, 11.28137
497.1718, 13.02051
497.6539, 13.66730
498.1360, 13.41711
498.6182, 13.02454
499.1003, 12.65540
499.5824, 12.44208
500.0645, 12.47681
500.5466, 12.77142
501.0287, 13.29053
501.5109, 14.07855
501.9930, 15.05475
502.4751, 16.12909
502.9572, 17.71985
503.4393, 18.86694
503.9214, 19.05615
504.4036, 18.68878
504.8857, 19.27490
505.3678, 21.49805
505.8499, 23.50067
506.3320, 24.45959
506.8141, 24.30096
507.2963, 24.20734
507.7784, 24.09906
508.2605, 24.19312
508.7426, 25.02875
509.2247, 26.54181
509.7068, 27.26355
510.1890, 26.71704
510.6711, 25.50378
511.1532, 24.75458
511.6353, 24.38568
512.1174, 23.65717
512.5995, 21.27393
513.0817, 18.70740
513.5638, 18.24048
514.0459, 19.84558
514.5280, 21.18787
515.0101, 20.39838
515.4922, 18.78961
515.9744, 17.59552
516.4565, 17.18909
516.9386, 17.04004
517.4207, 17.12158
517.9028, 17.26648
518.3849, 17.22491
518.8671, 16.50879
519.3492, 16.12659
519.8313, 16.50568
520.3134, 17.59766
520.7955, 18.14960
521.2776, 17.85938
521.7598, 17.35510
522.2419, 17.00250
522.7240, 16.88678
523.2061, 16.47589
523.6882, 15.54779
524.1703, 14.56244
524.6525, 14.35614
525.1346, 15.04187
525.6167, 15.72577
526.0988, 16.27972
526.5809, 16.60156
527.0630, 16.49176
527.5452, 15.91943
528.0273, 14.79822
528.5094, 12.27539
528.9915, 9.599548
529.4736, 8.252563
529.9557, 8.382202
530.4379, 8.977905
530.9200, 9.669067
531.4021, 10.33997
531.8842, 10.88104
532.3663, 11.29584
532.8484, 11.52502
533.3306, 11.18158
533.8127, 10.69330
534.2948, 10.91357
534.7769, 12.74762
535.2590, 14.25848
535.7411, 15.05719
536.2233, 15.18298
536.7054, 14.92151
537.1875, 13.81750
537.6696, 13.10925
538.1517, 13.93195
538.6339, 16.46045
539.1160, 18.30438
539.5981, 19.25836
540.0802, 19.62274
540.5623, 19.73322
541.0444, 19.61761
541.5266, 19.35077
542.0087, 18.92633
542.4908, 18.42688
542.9729, 17.83813
543.4550, 17.16870
543.9371, 16.56335
544.4193, 16.03546
544.9014, 15.69916
545.3835, 15.76691
545.8656, 16.28534
546.3477, 16.64978
546.8298, 16.54865
547.3120, 16.20758
547.7941, 15.78705
548.2762, 15.14520
548.7583, 14.64868
549.2404, 14.66394
549.7225, 14.77423
550.2047, 14.16028
550.6868, 12.14001
551.1689, 10.72992
551.6510, 10.64203
552.1331, 11.63129
552.6152, 12.08899
553.0974, 11.96564
553.5795, 11.60315
554.0616, 11.13483
554.5437, 10.60400
555.0258, 10.18115
555.5079, 9.863159
555.9901, 9.799194
556.4722, 10.32959
556.9543, 11.21436
557.4364, 11.95996
557.9185, 12.44763
558.4006, 12.70935
558.8828, 12.74103
559.3649, 12.55927
559.8470, 12.21478
560.3291, 11.39471
560.8112, 10.69208
561.2933, 10.34613
561.7755, 10.36121
562.2576, 10.58496
562.7397, 11.40289
563.2218, 12.07190
563.7039, 12.18622
564.1860, 11.43317
564.6682, 11.00525
565.1503, 11.19147
565.6324, 11.35730
566.1145, 10.43140
566.5966, 8.224243
567.0787, 6.840637
567.5609, 6.985046
568.0430, 7.914490
568.5251, 8.066833
569.0072, 7.514160
569.4893, 6.769348
569.9714, 6.108765
570.4536, 5.421936
570.9357, 4.268372
571.4178, 2.713806
571.8999, 1.785889
572.3820, 3.063660
572.8641, 4.748169
573.3463, 5.028992
573.8284, 2.831604
574.3105, 1.284546
574.7926, 2.018555
575.2747, 3.658203
575.7568, 4.466919
576.2390, 3.820190
576.7211, 2.945496
577.2032, 1.577576
577.6853, 0.1086430
578.1674, 0.1967160
578.6495, 2.557617
579.1317, 4.369324
579.6138, 4.214294
580.0959, 2.375427
580.5780, 1.092590
581.0601, 0.3603520
581.5422, 0.1776120
582.0244, 1.080627
582.5065, 2.497803
582.9886, 2.790955
583.4707, 1.562134
583.9528, 0.2652590
584.4349, 0.3139040
584.9171, 1.107727
585.3992, 1.757874
585.8813, 2.039978
586.3634, 2.016907
586.8455, 1.400574
587.3276, 0.4637450
587.8098, 2.0873999E-02
588.2919, 0.4594120
588.7740, 1.039185
589.2561, 1.585083
589.7382, 2.102722
590.2203, 2.019958
590.7025, 1.010193
591.1846, 1.8616000E-02
591.6667, 0.3501590
592.1488, 9.7534001E-02
592.6309, 5.8228001E-02
593.1130, 1.015747
593.5952, 1.993774
594.0773, 1.784668
594.5594, 0.7202760
595.0415, 0.1663820
595.5236, 0.6652830
596.0057, 1.401062
596.4879, 1.447205
596.9700, 1.020630
597.4521, 0.6332400
597.9342, 0.1254270
598.4163, 7.3669001E-02
598.8984, 1.311584
599.3806, 3.616882
599.8627, 4.908081
600.3448, 3.806335
600.8269, 2.354492
601.3090, 1.491455
601.7911, 1.351013
602.2733, 1.308655
602.7554, 1.357483
603.2375, 1.515930
603.7196, 1.936096
604.2017, 2.694519
604.6838, 2.838745
605.1660, 2.110535
605.6481, 1.056885
606.1302, 0.5471190
606.6123, 0.4971310
607.0944, 0.5347900
607.5765, 0.5809940
608.0587, 0.5871580
608.5408, 0.4708250
609.0229, 0.2620240
609.5050, 4.9011000E-02
609.9871, 7.6476999E-02
610.4692, 0.2163090
610.9514, 0.4396360
611.4335, 0.7548830
611.9156, 1.052917
612.3977, 1.357971
612.8798, 1.597107
613.3619, 1.705261
613.8441, 1.562683
614.3262, 1.625977
614.8083, 2.033569
615.2904, 2.472412
615.7725, 2.470459
616.2546, 1.998352
616.7368, 1.689575
617.2189, 1.690796
617.7010, 1.883362
618.1831, 2.130859
618.6652, 2.400330
619.1473, 2.552307
619.6295, 2.280945
620.1116, 2.017944
620.5937, 2.209900
621.0758, 2.805176
621.5579, 3.568237
622.0400, 4.422852
622.5222, 5.356445
623.0043, 6.437317
623.4864, 7.749390
623.9685, 8.733582
624.4506, 9.142151
624.9327, 9.368408
625.4149, 9.601929
625.8970, 9.674011
626.3791, 10.29480
626.8612, 11.63135
627.3433, 13.27838
627.8254, 14.55487
628.3076, 15.49677
628.7897, 16.96527
629.2718, 19.40723
629.7539, 22.08417
630.2360, 23.56360
630.7181, 24.24280
631.2003, 25.38153
631.6824, 28.15167
632.1645, 31.18420
632.6466, 33.15295
633.1287, 34.31036
633.6108, 36.23682
634.0930, 40.22614
634.5751, 44.51929
635.0572, 48.01636
635.5393, 50.32196
636.0214, 53.62537
636.5035, 58.18079
636.9857, 63.51648
637.4678, 69.16870
637.9499, 74.97577
638.4320, 82.15240
638.9141, 90.96136
639.3962, 100.3876
639.8784, 110.0847
640.3605, 119.4180
640.8426, 126.0474
641.3247, 129.0256
641.8068, 129.3947
642.2889, 126.8691
642.7711, 122.7368
643.2532, 119.7885
643.7353, 119.2343
644.2174, 120.2004
644.6995, 123.0577
645.1816, 127.4108
645.6638, 130.9105
646.1459, 131.6284
646.6280, 133.1382
647.1101, 136.6227
647.5922, 142.0918
648.0743, 148.7063
648.5565, 156.4562
649.0386, 165.1944
649.5207, 174.4644
650.0028, 184.4014
650.4849, 196.0792
650.9670, 209.4768
651.4492, 224.1373
651.9313, 239.3973
652.4134, 255.6476
652.8955, 273.1547
653.3776, 292.2194
653.8597, 312.5552
654.3419, 334.0208
654.8240, 356.8352
655.3061, 380.9314
655.7882, 405.4027
656.2703, 432.2291
656.7524, 462.5204
657.2346, 495.3633
657.7167, 528.5871
658.1988, 562.4924
658.6809, 596.8060
659.1630, 632.2751
659.6451, 668.0658
660.1273, 699.8561
660.6094, 728.0223
661.0915, 751.4900
661.5736, 771.1212
662.0557, 785.4343
662.5378, 792.0639
663.0200, 790.9034
663.5021, 781.1627
663.9842, 759.3061
664.4663, 730.0527
664.9484, 697.6233
665.4305, 661.7797
665.9127, 625.1627
666.3948, 587.5411
666.8769, 549.9510
667.3590, 513.0349
667.8411, 476.1221
668.3232, 442.0083
668.8054, 411.3628
669.2875, 383.5604
669.7696, 357.7791
670.2517, 334.0119
670.7338, 312.4199
671.2159, 293.2540
671.6981, 276.3638
672.1802, 262.0089
672.6623, 250.0002
673.1444, 239.1458
673.6265, 229.0029
674.1086, 219.8211
674.5908, 211.8378
675.0729, 205.0826
675.5550, 199.2336
676.0371, 194.5948
676.5192, 190.5224
677.0013, 186.6180
677.4835, 182.8181
677.9656, 179.7689
678.4477, 177.8228
678.9298, 175.9481
679.4119, 173.4977
679.8940, 170.4341
680.3762, 167.1018
680.8583, 163.4896
681.3404, 159.4447
681.8225, 154.7309
682.3046, 149.4460
682.7867, 143.5945
683.2689, 137.0975
683.7510, 130.4729
684.2331, 124.1423
684.7152, 118.0055
685.1973, 112.0823
685.6794, 106.6052
686.1616, 100.9863
686.6437, 94.62579
687.1258, 88.16791
687.6079, 82.96515
688.0900, 79.55420
688.5721, 76.15906
689.0543, 72.41919
689.5364, 68.42078
690.0185, 64.13019
690.5006, 59.58679
690.9827, 55.57886
691.4648, 52.66199
691.9470, 50.40552
692.4291, 48.07275
692.9112, 45.71600
693.3933, 43.63599
693.8754, 42.04260
694.3575, 40.72894
694.8397, 39.52698
695.3218, 38.40790
695.8039, 37.68286
696.2860, 37.95123
696.7681, 38.09418
697.2502, 37.36499
697.7324, 35.36578
698.2145, 34.59070
698.6966, 35.22699
699.1787, 36.57178
699.6608, 38.33405
700.1429, 40.29871
700.6251, 41.38605
701.1072, 41.36005
701.5893, 40.95660
702.0714, 40.59680
702.5535, 40.41571
703.0356, 40.68933
703.5178, 41.95929
703.9999, 42.88354
704.4820, 42.97681
704.9641, 42.39172
705.4462, 41.33270
705.9283, 39.41718
706.4105, 37.72058
706.8926, 36.53656
707.3747, 35.55585
707.8568, 34.00128
708.3389, 31.83746
708.8210, 29.54541
709.3032, 27.27118
709.7853, 25.00647
710.2674, 22.72729
710.7495, 20.45892
711.2316, 18.34167
711.7137, 16.31879
712.1959, 14.60071
712.6780, 13.45129
713.1601, 12.72552
713.6422, 11.85858
714.1243, 10.62842
714.6064, 9.436768
715.0886, 8.334351
715.5707, 7.300354
716.0528, 7.091370
716.5349, 8.098450
717.0170, 8.764160
717.4991, 7.815002
717.9813, 5.561523
718.4634, 4.633789
718.9455, 5.101868
719.4276, 5.860779
719.9097, 6.053589
720.3918, 6.021729
720.8740, 5.995361
721.3561, 5.833191
721.8382, 6.461975
722.3203, 9.550293
722.8024, 12.97498
723.2845, 14.83472
723.7667, 13.80536
724.2488, 13.37549
724.7309, 13.65009
725.2130, 14.12024
725.6951, 14.32391
726.1772, 14.26599
726.6594, 14.22070
727.1415, 14.23932
727.6236, 14.35291
728.1057, 14.72522
728.5878, 15.19751
729.0699, 15.43866
729.5521, 14.94226
730.0342, 14.38745
730.5163, 14.19177
730.9984, 14.36200
731.4805, 14.84552
731.9626, 16.44385
732.4448, 17.35229
732.9269, 16.85986
733.4090, 15.50110
733.8911, 14.89520
734.3732, 15.23615
734.8553, 15.90167
735.3375, 16.61646
735.8196, 17.35297
736.3017, 18.36627
736.7838, 19.61908
737.2659, 20.85083
737.7480, 22.50031
738.2302, 23.62677
738.7123, 23.42548
739.1944, 21.93805
739.6765, 19.45398
740.1586, 14.23792
740.6407, 9.773132
741.1229, 8.317383
741.6050, 9.656555
742.0871, 8.968628
742.5692, 5.134583
743.0513, 1.913452
743.5334, 1.769531
744.0156, 4.223145
744.4977, 5.172424
744.9798, 4.627686
745.4619, 3.569946
745.9440, 2.249573
746.4261, 1.125305
746.9083, 0.9225460
747.3904, 1.714722
747.8725, 2.500122
748.3546, 2.946289
748.8367, 3.104553
749.3188, 2.843811
749.8010, 1.813232
750.2831, 1.741943
750.7652, 3.175842
751.2473, 4.714172
751.7294, 5.200928
752.2115, 4.645813
752.6937, 4.019958
753.1758, 3.339111
753.6579, 2.879700
754.1400, 3.197815
754.6221, 3.851196
755.1042, 3.959045
755.5864, 3.107788
756.0685, 2.760254
756.5506, 4.643188
757.0327, 6.952698
757.5148, 7.826721
757.9969, 6.146606
758.4791, 4.301575
758.9612, 1.767639
759.4433, 0.3613280
759.9254, 0.3093870
760.4075, 2.049805
760.8896, 3.462158
761.3718, 3.303040
761.8539, 2.444580
762.3360, 1.760620
762.8181, 1.271790
763.3002, 1.050720
763.7823, 1.248718
764.2645, 1.476563
764.7466, 1.658997
765.2287, 1.698975
765.7108, 1.445923
766.1929, 0.4467160
766.6750, 0.2108150
767.1572, 0.2942500
767.6393, 8.7830000E-02
768.1214, 0.1156620
768.6035, 0.3896480
769.0856, 0.7844240
769.5677, 1.430420
770.0499, 1.891357
770.5320, 1.203003
771.0141, 0.2210080
771.4962, 1.327942
771.9783, 1.657166
772.4604, 1.553711
772.9426, 0.7429200
773.4247, 0.3478390
773.9068, 0.6724850
774.3889, 0.9750980
774.8710, 1.789001
775.3531, 0.9478150
775.8353, 0.8760990
776.3174, 1.669128
776.7995, 1.370789
777.2816, 1.151245
777.7637, 1.550110
778.2458, 2.136292
778.7280, 2.053894
779.2101, 1.516663
779.6922, 1.221130
780.1743, 1.489441
780.6564, 2.091003
781.1385, 3.397522
781.6207, 5.063843
782.1028, 5.531860
782.5849, 4.078003
783.0670, 2.496948
783.5491, 1.194702
784.0313, 0.1397710
784.5134, 1.063538
784.9955, 2.435974
785.4776, 2.796143
785.9597, 0.7749630
786.4418, 2.008423
786.9240, 2.851501
787.4061, 2.166016
787.8882, 1.435974
788.3703, 1.382202
788.8524, 1.497437
789.3345, 1.669861
789.8167, 1.837158
790.2988, 1.628479
790.7809, 0.6492920
791.2630, 3.3142000E-02
791.7451, 0.4367680
792.2272, 1.445374
792.7094, 0.9299930
793.1915, 1.037476
793.6736, 2.690186
794.1557, 2.595154
794.6378, 1.867615
795.1199, 1.862244
795.6021, 2.480042
796.0842, 3.229675
796.5663, 3.750000
797.0484, 4.489319
797.5305, 5.751343
798.0126, 7.460571
798.4948, 9.080139
798.9769, 10.65906
799.4590, 11.98865
799.9411, 12.80621
800.4232, 13.34631
800.9053, 14.53833
801.3875, 16.33081
801.8696, 18.18280
802.3517, 19.68939
802.8338, 21.18799
803.3159, 22.98340
803.7980, 25.06390
804.2802, 27.27777
804.7623, 29.44348
805.2444, 31.87512
805.7265, 34.77783
806.2086, 38.06354
806.6907, 41.03741
807.1729, 43.68579
807.6550, 46.06281
808.1371, 48.15936
808.6192, 50.03845
809.1013, 51.90540
809.5834, 53.73523
810.0656, 55.37512
810.5477, 56.68878
811.0298, 57.83112
811.5119, 58.63757
811.9940, 59.25391
812.4761, 60.68585
812.9583, 63.44482
813.4404, 66.65918
813.9225, 70.49500
814.4046, 74.61517
814.8867, 76.83618
815.3688, 77.04602
815.8510, 77.27557
816.3331, 78.70868
816.8152, 80.72742
817.2973, 82.25909
817.7794, 83.43073
818.2615, 84.71594
818.7437, 86.51758
819.2258, 88.26373
819.7079, 89.90509
820.1900, 91.31561
820.6721, 91.83466
821.1542, 91.11780
821.6364, 90.25043
822.1185, 89.54553
822.6006, 88.97333
823.0827, 88.51453
823.5648, 88.13202
824.0469, 87.46021
824.5291, 86.31006
825.0112, 84.78259
825.4933, 82.80493
825.9754, 80.50580
826.4575, 78.28259
826.9396, 75.41510
827.4218, 73.68866
827.9039, 74.34894
828.3860, 76.44415
828.8681, 76.41119
829.3502, 73.82629
829.8323, 71.00189
830.3145, 68.54425
830.7966, 66.49725
831.2787, 65.17676
831.7608, 64.34552
832.2429, 63.32428
832.7250, 60.74567
833.2072, 58.75873
833.6893, 58.91486
834.1714, 60.47308
834.6535, 61.44989
835.1356, 61.62592
835.6177, 61.29327
836.0999, 60.26160
836.5820, 59.00275
837.0641, 58.78766
837.5462, 59.46637
838.0283, 59.32684
838.5104, 57.33716
838.9926, 55.11536
839.4747, 54.93561
839.9568, 55.78339
840.4389, 55.88263
840.9210, 53.77448
841.4031, 51.81915
841.8853, 50.74109
842.3674, 49.95435
842.8495, 48.47449
843.3316, 46.00946
843.8137, 44.26312
844.2958, 43.41571
844.7780, 43.19775
845.2601, 43.80768
845.7422, 44.66614
846.2243, 44.20972
846.7064, 41.53229
847.1885, 38.70459
847.6707, 37.09265
848.1528, 35.93274
848.6349, 34.29694
849.1170, 31.13281
849.5991, 29.26270
850.0812, 29.10223
850.5634, 29.68372
851.0455, 30.08441
851.5276, 30.19757
852.0097, 29.57996
852.4918, 28.01843
852.9739, 26.90485
853.4561, 28.58331
853.9382, 30.85620
854.4203, 30.97150
854.9024, 27.53766
855.3845, 25.02338
855.8666, 25.12183
856.3488, 25.62598
856.8309, 25.03259
857.3130, 23.12231
857.7951, 21.66931
858.2772, 20.69196
858.7593, 20.07812
859.2415, 20.02002
859.7236, 20.14777
860.2057, 19.85254
860.6878, 19.08124
861.1699, 18.05872
861.6520, 16.31909
862.1342, 14.84247
862.6163, 14.35748
863.0984, 14.89441
863.5805, 15.46606
864.0626, 16.28308
864.5447, 16.53851
865.0269, 15.48798
865.5090, 13.56476
865.9911, 12.15051
866.4732, 11.24939
866.9553, 10.82495
867.4374, 11.15015
867.9196, 11.70392
868.4017, 12.08698
868.8838, 12.33014
869.3659, 12.83649
869.8480, 14.00311
870.3301, 14.74835
870.8123, 14.53284
871.2944, 13.76422
871.7765, 13.90247
872.2586, 14.87628
872.7407, 16.07166
873.2228, 17.36938
873.7050, 18.57153
874.1871, 19.76611
874.6692, 20.68567
875.1513, 20.75684
875.6334, 18.82257
876.1155, 17.24182
876.5977, 16.38379
877.0798, 16.13599
877.5619, 16.40137
878.0440, 17.22327
878.5261, 18.05548
879.0082, 18.86951
879.4904, 19.45215
879.9725, 19.46399
880.4546, 19.07831
880.9367, 18.57739
881.4188, 17.96222
881.9009, 17.40027
882.3831, 17.37555
882.8652, 17.14368
883.3473, 15.84955
883.8294, 12.96899
884.3115, 11.08258
884.7936, 10.40070
885.2758, 10.31494
885.7579, 10.33252
886.2400, 10.34796
886.7221, 10.14453
887.2042, 9.698059
887.6863, 9.396179
888.1685, 9.402283
888.6506, 9.659546
889.1327, 10.26373
889.6148, 11.35986
890.0969, 12.12280
890.5790, 12.45734
891.0612, 12.52740
891.5433, 12.21765
892.0254, 11.70245
892.5075, 11.76202
892.9896, 12.32684
893.4717, 12.94556
893.9539, 13.48547
894.4360, 13.85400
894.9181, 13.85559
895.4002, 13.57587
895.8823, 13.64331
896.3644, 14.71436
896.8466, 14.91888
897.3287, 13.44666
897.8108, 11.08380
898.2929, 9.892761
898.7750, 9.745544
899.2571, 9.775696
899.7393, 9.930359
900.2214, 9.725403
900.7035, 8.209778
901.1856, 6.180725
901.6677, 5.007935
902.1498, 6.005920
902.6320, 6.431213
903.1141, 5.989319
903.5962, 5.044006
904.0783, 3.862244
904.5604, 2.492798
905.0425, 1.899963
905.5247, 2.328430
906.0068, 2.871704
906.4889, 2.436707
906.9710, 1.772461
907.4531, 1.817871
907.9352, 3.022766
908.4174, 3.795776
908.8995, 3.307190
909.3816, 3.076965
909.8637, 4.373779
910.3458, 7.205688
910.8279, 8.236938
911.3101, 7.434937
911.7922, 6.376526
912.2743, 6.077271
912.7564, 6.205444
913.2385, 6.308472
913.7206, 6.437805
914.2028, 7.103149
914.6849, 9.328613
915.1670, 11.08179
915.6491, 11.55212
916.1312, 11.15015
916.6133, 11.54657
917.0955, 12.76508
917.5776, 13.85864
918.0597, 14.61578
918.5418, 14.89905
919.0239, 14.28394
919.5060, 13.10565
919.9882, 12.02362
920.4703, 11.58948
920.9524, 10.77130
921.4345, 8.979614
921.9166, 7.064148
922.3987, 6.179749
922.8809, 6.389954
923.3630, 6.420227
923.8451, 6.099731
924.3272, 5.689087
924.8093, 5.260864
925.2914, 5.012634
925.7736, 5.447021
926.2557, 6.858826
926.7378, 7.500244
927.2199, 6.017639
927.7020, 4.443420
928.1841, 3.839050
928.6663, 4.212341
929.1484, 4.278442
929.6305, 4.013550
930.1126, 4.047974
930.5947, 5.161316
931.0768, 6.558472
931.5590, 7.088074
932.0411, 6.951599
932.5232, 7.021545
933.0053, 8.123657
933.4874, 8.795349
933.9695, 8.458435
934.4517, 7.572632
934.9338, 7.318115
935.4159, 7.714722
935.8980, 8.016663
936.3801, 8.051758
936.8622, 7.851440
937.3444, 7.187378
937.8265, 6.406677
938.3086, 6.050232
938.7907, 6.626160
939.2728, 6.912231
939.7549, 6.648804
940.2371, 6.086487
940.7192, 5.452332
941.2013, 4.753723
941.6834, 3.334778
942.1655, 1.119019
942.6476, 0.7131350
943.1298, 0.8419190
943.6119, 0.2553710
944.0940, 1.3977000E-02
944.5761, 9.6252002E-02
945.0582, 0.1341550
945.5403, 0.5098270
946.0225, 0.5861820
946.5046, 0.5216060
946.9867, 2.443481
947.4688, 3.732300
947.9509, 4.392578
948.4330, 4.755554
948.9152, 4.900757
949.3973, 4.887085
949.8794, 4.729187
950.3615, 4.461914
950.8436, 4.145691
951.3257, 3.790710
951.8079, 3.406006
952.2900, 3.074646
952.7721, 2.600586
953.2542, 1.567688
953.7363, 9.4054997E-02
954.2184, 0.8866580
954.7006, 1.254517
955.1827, 1.372009
955.6648, 1.392944
956.1469, 1.407776
956.6290, 1.436462
957.1111, 1.460754
957.5933, 1.799622
958.0754, 2.254578
958.5575, 3.477905
959.0396, 6.208313
959.5217, 9.773376
960.0038, 11.72559
960.4860, 12.30798
960.9681, 12.79272
961.4502, 13.82184
961.9323, 14.97455
962.4144, 15.93408
962.8965, 16.84338
963.3787, 18.03082
963.8608, 19.71027
964.3429, 21.04657
964.8250, 21.76227
965.3071, 22.54901
965.7892, 24.40289
966.2714, 27.05029
966.7535, 29.97992
967.2356, 33.14795
967.7177, 36.04865
968.1998, 38.30939
968.6819, 40.22998
969.1641, 41.78693
969.6462, 42.91675
970.1283, 45.17230
970.6104, 48.72491
971.0925, 52.57910
971.5746, 56.04254
972.0568, 59.53687
972.5389, 64.26965
973.0210, 69.79773
973.5031, 74.52118
973.9852, 76.75800
974.4673, 79.30621
974.9495, 82.87738
975.4316, 87.29260
975.9137, 92.31348
976.3958, 97.94617
976.8779, 103.9147
977.3600, 110.2849
977.8422, 116.4357
978.3243, 121.5638
978.8064, 126.2540
979.2885, 131.1663
979.7706, 136.4677
980.2527, 141.7545
980.7349, 146.9525
981.2170, 152.1454
981.6991, 157.1572
982.1812, 162.0916
982.6633, 168.0714
983.1454, 174.9293
983.6276, 180.8707
984.1097, 184.7283
984.5918, 187.3524
985.0739, 188.9655
985.5560, 189.8365
986.0381, 190.5995
986.5203, 191.1325
987.0024, 192.1522
987.4845, 194.2451
987.9666, 195.9058
988.4487, 194.1800
988.9308, 190.2718
989.4130, 187.9111
989.8951, 187.9775
990.3772, 187.6717
990.8593, 185.0710
991.3414, 181.7177
991.8235, 178.5257
992.3057, 175.4753
992.7878, 173.5198
993.2699, 172.8971
993.7520, 171.7542
994.2341, 168.4700
994.7162, 164.4949
995.1984, 162.1399
995.6805, 161.1789
996.1626, 161.0678
996.6447, 162.3033
997.1268, 163.4291
997.6089, 163.5714
998.0911, 163.8961
998.5732, 166.2272
999.0553, 170.5501
999.5374, 174.7170
1000.020, 178.3044
1000.502, 182.5099
1000.984, 188.8416
1001.466, 196.0933
1001.948, 203.0325
1002.430, 209.4391
1002.912, 216.3986
1003.394, 224.4088
1003.876, 231.9276
1004.359, 237.8343
1004.841, 242.9138
1005.323, 249.6897
1005.805, 258.0517
1006.287, 266.8245
1006.769, 275.1443
1007.251, 284.4432
1007.733, 295.6827
1008.216, 308.3210
1008.698, 321.3103
1009.180, 334.9332
1009.662, 347.8653
1010.144, 359.7318
1010.626, 372.2281
1011.108, 387.9507
1011.590, 404.7211
1012.072, 419.4081
1012.555, 431.8093
1013.037, 441.4470
1013.519, 448.4207
1014.001, 452.0759
1014.483, 452.4335
1014.965, 449.3171
1015.447, 442.1362
1015.929, 430.9818
1016.411, 416.5123
1016.894, 398.3180
1017.376, 378.4324
1017.858, 357.8371
1018.340, 337.1527
1018.822, 317.6105
1019.304, 300.5058
1019.786, 280.9708
1020.268, 257.8922
1020.751, 235.2110
1021.233, 215.7888
1021.715, 199.1133
1022.197, 184.5989
1022.679, 171.9305
1023.161, 159.8215
1023.643, 146.9697
1024.125, 135.3069
1024.607, 125.8119
1025.090, 117.9087
1025.572, 110.6390
1026.054, 103.9623
1026.536, 97.69891
1027.018, 91.73462
1027.500, 86.11566
1027.982, 80.74762
1028.464, 75.83032
1028.947, 71.72253
1029.429, 68.71307
1029.911, 65.39801
1030.393, 61.37103
1030.875, 57.57440
1031.357, 54.48309
1031.839, 52.03131
1032.321, 50.28143
1032.803, 49.07629
1033.286, 47.64990
1033.768, 45.67438
1034.250, 43.37427
1034.732, 40.22675
1035.214, 37.08917
1035.696, 35.26288
1036.178, 34.96381
1036.660, 34.77081
1037.143, 34.63885
1037.625, 34.16937
1038.107, 32.40173
1038.589, 30.41010
1039.071, 29.73706
1039.553, 30.38647
1040.035, 30.76495
1040.517, 30.57330
1041.000, 29.95245
1041.482, 28.70276
1041.964, 27.29895
1042.446, 27.19080
1042.928, 28.02704
1043.410, 28.35345
1043.892, 27.67487
1044.374, 26.65137
1044.856, 25.74731
1045.339, 24.64868
1045.821, 22.92419
1046.303, 20.39075
1046.785, 18.86090
1047.267, 18.45349
1047.749, 18.04327
1048.231, 16.82788
1048.713, 15.24579
1049.195, 13.74817
1049.677, 12.34406
1050.160, 11.09442
1050.642, 9.980286
1051.124, 9.097290
1051.606, 8.549622
1052.088, 8.081421
1052.570, 7.388916
1053.052, 6.483398
1053.534, 5.340637
1054.017, 3.941284
1054.499, 2.826416
1054.981, 2.359253
1055.463, 2.267883
1055.945, 2.609741
1056.427, 3.232849
1056.909, 3.208740
1057.391, 2.481079
1057.874, 1.862915
1058.356, 1.763000
1058.838, 1.633423
1059.320, 0.6303100
1059.802, 0.7548830
1060.284, 1.889038
1060.766, 2.743958
1061.248, 3.005554
1061.730, 2.607727
1062.213, 1.756897
1062.695, 0.1661990
1063.177, 1.723816
1063.659, 2.213318
1064.141, 1.498657
1064.623, 0.5285640
1065.105, 0.6298220
1065.587, 1.501099
1066.070, 1.824158
1066.552, 1.811096
1067.034, 1.813965
1067.516, 1.856445
1067.998, 1.130554
1068.480, 0.5497440
1068.962, 2.001160
1069.444, 1.895691
1069.927, 1.252197
1070.409, 1.024292
1070.891, 1.294617
1071.373, 1.306335
1071.855, 0.9739990
1072.337, 0.5692140
1072.819, 0.1138920
1073.301, 0.2606810
1073.783, 0.3209230
1074.266, 0.1240840
1074.748, 0.2767330
1075.230, 1.120483
1075.712, 1.444397
1076.194, 0.4755860
1076.676, 0.5280150
1077.158, 0.8291020
1077.640, 0.4724730
1078.122, 7.1654998E-02
1078.604, 0.7921140
1079.087, 1.629944
1079.569, 2.802307
1080.051, 3.811218
1080.533, 3.885620
1081.015, 3.772217
1081.497, 4.898376
1081.979, 7.649963
1082.461, 9.773865
1082.944, 11.07190
1083.426, 11.88867
1083.908, 12.45380
1084.390, 12.78052
1084.872, 12.73853
1085.354, 12.39166
1085.836, 12.34003
1086.318, 12.77954
1086.801, 13.34131
1087.283, 14.07367
1087.765, 14.68964
1088.247, 14.41504
1088.729, 13.61920
1089.211, 13.35175
1089.693, 13.96820
1090.175, 14.37970
1090.657, 14.12384
1091.140, 13.49426
1091.622, 12.53363
1092.104, 11.31818
1092.586, 10.55737
1093.068, 10.20807
1093.550, 9.763489
1094.032, 8.567627
1094.514, 7.830139
1094.997, 9.119019
1095.479, 11.06720
1095.961, 11.69708
1096.443, 10.21924
1096.925, 10.13440
1097.407, 11.63403
1097.889, 13.33838
1098.371, 14.27368
1098.854, 14.70374
1099.336, 14.57166
1099.818, 14.16412
1100.300, 14.56494
1100.782, 16.87366
1101.264, 18.42499
1101.746, 18.48236
1102.228, 18.37585
1102.710, 20.39667
1103.193, 23.65601
1103.675, 25.59167
1104.157, 25.84802
1104.639, 26.95703
1105.121, 31.28802
1105.603, 35.30743
1106.085, 37.29871
1106.567, 38.15149
1107.049, 40.72888
1107.531, 44.90015
1108.014, 49.09320
1108.496, 52.77594
1108.978, 56.71393
1109.460, 61.56848
1109.942, 66.82556
1110.424, 72.20831
1110.906, 77.79333
1111.388, 81.86615
1111.871, 84.38763
1112.353, 86.57599
1112.835, 89.18549
1113.317, 91.39551
1113.799, 92.08490
1114.281, 91.74628
1114.763, 91.21765
1115.245, 91.55096
1115.728, 89.58044
1116.210, 84.79742
1116.692, 79.45758
1117.174, 75.78516
1117.656, 72.66925
1118.138, 67.89478
1118.620, 61.83539
1119.102, 56.20721
1119.584, 51.33130
1120.067, 47.56824
1120.549, 45.47797
1121.031, 43.70026
1121.513, 40.15668
1121.995, 35.44476
1122.477, 31.66028
1122.959, 28.90918
1123.441, 26.73358
1123.924, 25.79846
1124.406, 24.41626
1124.888, 21.47345
1125.370, 17.78015
1125.852, 15.90393
1126.334, 15.68311
1126.816, 14.77545
1127.298, 12.56555
1127.781, 10.12323
1128.263, 7.651794
1128.745, 5.767761
1129.227, 5.338440
1129.709, 6.245544
1130.191, 6.071960
1130.673, 4.736389
1131.155, 3.437317
1131.637, 2.687683
1132.120, 2.187805
1132.602, 1.479248
1133.084, 0.8474120
1133.566, 0.8292850
1134.048, 1.822388
1134.530, 2.081909
1135.012, 1.472595
1135.494, 0.8265990
1135.976, 0.6412960
1136.458, 0.7413330
1136.941, 1.028748
1137.423, 1.381714
1137.905, 1.501343
1138.387, 1.008240
1138.869, 0.7132570
1139.351, 0.6353760
1139.833, 0.8077390
1140.315, 1.610168
1140.798, 2.593201
1141.280, 2.482178
1141.762, 1.407227
1142.244, 0.5100710
1142.726, 0.1082150
1143.208, 6.5796003E-02
1143.690, 1.442993
1144.172, 3.223022
1144.655, 4.184143
1145.137, 4.489990
1145.619, 4.813904
1146.101, 5.237366
1146.583, 5.738281
1147.065, 6.580994
1147.547, 7.244263
1148.029, 7.524963
1148.511, 7.473694
1148.994, 7.071838
1149.476, 6.383728
1149.958, 5.996155
1150.440, 6.074463
1150.922, 6.234680
1151.404, 6.238281
1151.886, 6.212402
1152.368, 6.346863
1152.851, 6.575256
1153.333, 5.926086
1153.815, 4.379395
1154.297, 4.099854
1154.779, 6.557251
1155.261, 9.055786
1155.743, 9.015930
1156.225, 7.667908
1156.708, 6.364868
1157.190, 5.258423
1157.672, 3.666077
1158.154, 1.474854
1158.636, 0.1738890
1159.118, 0.2711790
1159.600, 0.1207890
1160.082, 0.2277830
1160.564, 0.8930050
1161.047, 1.102295
1161.529, 0.3431400
1162.011, 0.1459350
1162.493, 0.6472170
1162.975, 1.129517
1163.457, 0.8610840
1163.939, 0.3644410
1164.421, 0.5637210
1164.903, 1.169434
1165.385, 1.251587
1165.868, 9.5825002E-02
1166.350, 0.5877690
1166.832, 0.5750120
1167.314, 0.2991330
1167.796, 0.2748410
1168.278, 0.2650760
1168.760, 0.4755250
1169.242, 1.754028
1169.725, 2.139343
1170.207, 0.2407230
1170.689, 1.192505
1171.171, 1.681030
1171.653, 1.688599
1172.135, 1.553467
1172.617, 1.522278
1173.099, 2.296082
1173.582, 3.931274
1174.064, 5.462769
1174.546, 6.117554
1175.028, 7.242676
1175.510, 9.465088
1175.992, 11.96436
1176.474, 12.62042
1176.956, 12.18994
1177.438, 12.91199
1177.921, 15.29938
1178.403, 17.95764
1178.885, 20.29413
1179.367, 22.88971
1179.849, 26.06805
1180.331, 29.61554
1180.813, 32.80145
1181.295, 35.69604
1181.778, 38.62939
1182.260, 41.85596
1182.742, 44.51599
1183.224, 45.67767
1183.706, 46.75098
1184.188, 48.75677
1184.670, 51.32776
1185.152, 52.15088
1185.635, 51.51074
1186.117, 50.95117
1186.599, 51.29010
1187.081, 51.31177
1187.563, 50.59869
1188.045, 49.11676
1188.527, 46.57214
1189.009, 43.12543
1189.491, 40.81036
1189.974, 39.47711
1190.456, 38.02069
1190.938, 35.95258
1191.420, 33.56061
1191.902, 30.86920
1192.384, 27.97205
1192.866, 24.94501
1193.348, 21.77490
1193.830, 18.08215
1194.313, 13.95496
1194.795, 10.60938
1195.277, 8.976440
1195.759, 8.080750
1196.241, 8.070679
1196.723, 8.105225
1197.205, 6.970642
1197.687, 4.626282
1198.169, 2.891357
1198.652, 1.850830
1199.134, 1.228149
1199.616, 1.075684
1200.098, 1.049622
1200.580, 0.9815670
1201.062, 0.9173580
1201.544, 0.8965450
1202.026, 0.9134520
1202.509, 0.8346560
1202.991, 0.6401980
1203.473, 0.8383180
1203.955, 2.599792
1204.437, 4.071167
1204.919, 3.671448
1205.401, 2.189758
1205.883, 1.352295
1206.365, 1.157959
1206.848, 0.8965450
1207.330, 0.4388430
1207.812, 0.4589840
1208.294, 2.367432
1208.776, 4.107605
1209.258, 3.799255
1209.740, 2.225769
1210.222, 1.500916
1210.705, 1.631470
1211.187, 2.003479
1211.669, 2.518677
1212.151, 3.171082
1212.633, 4.000427
1213.115, 4.936401
1213.597, 6.116333
1214.079, 7.364502
1214.562, 7.783508
1215.044, 7.402771
1215.526, 7.624756
1216.008, 8.816772
1216.490, 10.38257
1216.972, 12.72693
1217.454, 14.55951
1217.936, 14.25500
1218.418, 12.44055
1218.901, 12.67993
1219.383, 14.90448
1219.865, 16.43842
1220.347, 16.26788
1220.829, 16.20227
1221.311, 18.27332
1221.793, 20.40247
1222.275, 20.73450
1222.757, 19.55884
1223.240, 19.43835
1223.722, 20.39349
1224.204, 21.59094
1224.686, 23.01202
1225.168, 23.92163
1225.650, 23.14478
1226.132, 22.28235
1226.614, 22.71362
1227.096, 24.15619
1227.579, 24.23926
1228.061, 23.27698
1228.543, 22.63971
1229.025, 22.79041
1229.507, 23.50946
1229.989, 25.51129
1230.471, 27.25897
1230.953, 27.40900
1231.436, 26.18341
1231.918, 25.59473
1232.400, 25.58264
1232.882, 25.88824
1233.364, 26.81024
1233.846, 27.24579
1234.328, 26.44843
1234.810, 25.11896
1235.292, 23.58441
1235.775, 21.94965
1236.257, 20.97864
1236.739, 20.61206
1237.221, 20.49139
1237.703, 20.44263
1238.185, 20.64941
1238.667, 21.84186
1239.149, 22.62958
1239.632, 21.65497
1240.114, 19.34290
1240.596, 18.08661
1241.078, 17.76593
1241.560, 17.85059
1242.042, 18.73315
1242.524, 19.02069
1243.006, 17.95642
1243.489, 16.77612
1243.971, 16.45099
1244.453, 16.81885
1244.935, 17.41431
1245.417, 18.11395
1245.899, 18.72589
1246.381, 19.04944
1246.863, 19.51105
1247.345, 20.37183
1247.828, 21.01520
1248.310, 20.61395
1248.792, 19.67987
1249.274, 19.67279
1249.756, 20.37024
1250.238, 20.92010
1250.720, 21.02527
1251.202, 20.96301
1251.684, 20.77429
1252.167, 20.41119
1252.649, 19.49847
1253.131, 18.55420
1253.613, 18.78143
1254.095, 19.79016
1254.577, 20.47125
1255.059, 20.73792
1255.541, 20.15875
1256.023, 18.34003
1256.506, 16.68225
1256.988, 16.90173
1257.470, 17.78094
1257.952, 17.64935
1258.434, 16.71582
1258.916, 15.71844
1259.398, 14.79816
1259.880, 13.64124
1260.363, 12.12891
1260.845, 11.02789
1261.327, 11.54718
1261.809, 12.33649
1262.291, 11.97314
1262.773, 10.73346
1263.255, 9.371521
1263.737, 7.707275
1264.219, 7.058594
1264.702, 7.563721
1265.184, 8.337097
1265.666, 9.096680
1266.148, 9.457886
1266.630, 8.569702
1267.112, 7.266235
1267.594, 7.484558
1268.076, 9.410828
1268.559, 9.816467
1269.041, 8.505615
1269.523, 7.111450
1270.005, 6.990356
1270.487, 6.850037
1270.969, 5.594543
1271.451, 4.069580
1271.933, 3.450256
1272.416, 3.680908
1272.898, 4.166626
1273.380, 4.826111
1273.862, 5.250122
1274.344, 5.572693
1274.826, 5.069031
1275.308, 3.105774
1275.790, 0.7116700
1276.272, 1.303833
1276.755, 2.637756
1277.237, 1.297546
1277.719, 2.276428
1278.201, 4.453613
1278.683, 2.063477
1279.165, 0.2988890
1279.647, 0.2463990
1280.129, 0.8329470
1280.611, 0.9915160
1281.094, 0.8315430
1281.576, 0.3684690
1282.058, 0.2487790
1282.540, 0.3103030
1283.022, 0.7819210
1283.504, 1.636597
1283.986, 2.086853
1284.468, 2.373413
1284.950, 2.615112
1285.433, 2.922668
1285.915, 3.610840
1286.397, 4.504333
1286.879, 4.801880
1287.361, 4.089905
1287.843, 4.261902
1288.325, 5.548767
1288.807, 7.085266
1289.290, 8.064331
1289.772, 7.647705
1290.254, 7.337280
1290.736, 6.054749
1291.218, 5.348755
1291.700, 5.407959
1292.182, 5.326660
1292.664, 5.381958
1293.146, 5.822266
1293.629, 6.232727
1294.111, 6.491638
1294.593, 6.482483
1295.075, 6.190613
1295.557, 5.880249
1296.039, 5.562012
1296.521, 4.820313
1297.003, 3.719666
1297.486, 3.321777
1297.968, 5.707886
1298.450, 6.686462
1298.932, 4.808289
1299.414, 2.087585
1299.896, 0.6961670
1300.378, 0.2783200
1300.860, 0.1032100
1301.343, 0.1023560
1301.825, 0.0000000E+00
##END=



