##NAMES=Matlockite
##RRUFFID=R140538
##IDEAL CHEMISTRY=PbClF
##LOCALITY=Mammoth mine, Tiger, Pinal County, Arizona, USA
##OWNER=RRUFF
##SOURCE=The University of Arizona Mineral Museum 5194 and 10550
##DESCRIPTION=Pale yellowish or colorless platy crystals, associated with bright orange georgerobinsonite (R110148), quartz, and cerussite.
##STATUS=The identification of this mineral has been confirmed by single-crystal X-ray diffraction.
##URL=rruff.info/R140538
93.97052, 0.0000000E+00
94.45264, 2.324768
94.93475, 1.321228
95.41687, 0.1661380
95.89898, 2.022644
96.38110, 5.250671
96.86321, 7.773865
97.34533, 8.463318
97.82745, 6.327942
98.30956, 4.868225
98.79168, 5.368713
99.27380, 5.972809
99.75591, 6.027435
100.2380, 5.563232
100.7201, 5.096497
101.2023, 5.179901
101.6844, 5.934814
102.1665, 6.693970
102.6486, 9.092651
103.1307, 13.51114
103.6128, 16.54926
104.0950, 17.46204
104.5771, 17.94424
105.0592, 18.14243
105.5413, 18.38644
106.0234, 18.97546
106.5055, 19.96341
106.9877, 21.21564
107.4698, 22.30475
107.9519, 23.87305
108.4340, 24.14523
108.9161, 22.60501
109.3982, 19.53571
109.8804, 15.41281
110.3625, 10.15421
110.8446, 3.138123
111.3267, 1.572479
111.8088, 3.354187
112.2909, 3.638580
112.7731, 2.625214
113.2552, 0.5567630
113.7373, 2.059937
114.2194, 4.487915
114.7015, 6.440582
115.1836, 8.776520
115.6658, 12.29553
116.1479, 15.83990
116.6300, 18.12662
117.1121, 18.66083
117.5942, 18.18597
118.0763, 18.44043
118.5584, 19.59448
119.0406, 20.88809
119.5227, 21.99307
120.0048, 23.04608
120.4869, 24.40240
120.9690, 26.12994
121.4511, 28.40433
121.9333, 31.25433
122.4154, 34.59641
122.8975, 38.63754
123.3796, 43.75363
123.8617, 50.05200
124.3438, 56.50162
124.8260, 62.95059
125.3081, 69.14108
125.7902, 74.68015
126.2723, 79.14023
126.7544, 83.16779
127.2365, 88.08130
127.7187, 93.76428
128.2008, 100.7742
128.6829, 109.0315
129.1650, 118.5098
129.6471, 129.1949
130.1292, 141.1570
130.6114, 154.3447
131.0935, 167.9774
131.5756, 182.5649
132.0577, 197.2222
132.5398, 212.9130
133.0219, 228.6804
133.5041, 242.7076
133.9862, 253.7912
134.4683, 262.2864
134.9504, 263.7220
135.4325, 257.2711
135.9146, 246.2225
136.3968, 230.8925
136.8789, 211.8943
137.3610, 191.6415
137.8431, 172.6907
138.3252, 154.9061
138.8073, 140.0034
139.2895, 128.3333
139.7716, 119.4277
140.2537, 113.0115
140.7358, 109.3045
141.2179, 107.4405
141.7000, 106.4411
142.1821, 106.2172
142.6643, 106.8105
143.1464, 108.0800
143.6285, 109.9789
144.1106, 112.8681
144.5927, 116.9845
145.0748, 122.0284
145.5570, 127.6940
146.0391, 133.9674
146.5212, 140.6455
147.0033, 147.7353
147.4854, 155.3135
147.9675, 162.5551
148.4497, 169.0806
148.9318, 175.4338
149.4139, 181.7521
149.8960, 188.0703
150.3781, 194.6390
150.8602, 201.8472
151.3424, 210.1833
151.8245, 219.2866
152.3066, 227.5390
152.7887, 235.7218
153.2708, 244.5765
153.7529, 254.3433
154.2351, 264.6920
154.7172, 274.7591
155.1993, 284.1276
155.6814, 293.6585
156.1635, 303.7727
156.6456, 313.9824
157.1278, 323.5983
157.6099, 332.2649
158.0920, 340.2025
158.5741, 348.3222
159.0562, 356.8970
159.5383, 365.3485
160.0205, 373.3802
160.5026, 381.1292
160.9847, 389.0568
161.4668, 397.5668
161.9489, 406.3507
162.4310, 413.9824
162.9131, 421.3576
163.3953, 426.9258
163.8774, 430.1245
164.3595, 430.9216
164.8416, 428.8345
165.3237, 423.5503
165.8058, 414.7337
166.2880, 402.3789
166.7701, 386.0727
167.2522, 366.4243
167.7343, 343.5010
168.2164, 316.8135
168.6985, 289.1885
169.1807, 261.3474
169.6628, 233.9176
170.1449, 207.5087
170.6270, 182.1057
171.1091, 158.2943
171.5912, 137.3593
172.0734, 119.7442
172.5555, 104.3436
173.0376, 90.48907
173.5197, 78.04013
174.0018, 66.71130
174.4839, 56.32376
174.9661, 46.93341
175.4482, 39.16104
175.9303, 34.15915
176.4124, 29.67844
176.8945, 25.05600
177.3766, 20.50592
177.8588, 16.54538
178.3409, 13.56464
178.8230, 11.56564
179.3051, 9.731934
179.7872, 8.005737
180.2693, 6.498138
180.7515, 5.374695
181.2336, 4.512451
181.7157, 3.662872
182.1978, 2.595154
182.6799, 1.261932
183.1620, 0.1962890
183.6441, 0.6302800
184.1263, 1.242279
184.6084, 1.634277
185.0905, 1.812561
185.5726, 1.775360
186.0547, 1.468430
186.5368, 0.8361510
187.0190, 0.4437560
187.5011, 0.4226230
187.9832, 0.5295870
188.4653, 0.5929260
188.9474, 0.5897060
189.4296, 0.6022190
189.9117, 0.7385710
190.3938, 0.9883120
190.8759, 1.143921
191.3580, 1.293839
191.8401, 1.282532
192.3223, 0.7746430
192.8044, 0.3786320
193.2865, 1.440384
193.7686, 1.361038
194.2507, 0.5105130
194.7328, 5.0491001E-02
195.2150, 0.5918580
195.6971, 1.716187
196.1792, 2.585739
196.6613, 3.048050
197.1434, 3.439819
197.6255, 4.035889
198.1077, 4.765076
198.5898, 5.453415
199.0719, 5.916611
199.5540, 6.239334
200.0361, 6.780945
200.5182, 7.555145
201.0004, 8.579346
201.4825, 10.05396
201.9646, 11.77722
202.4467, 13.24451
202.9288, 13.95970
203.4109, 13.98459
203.8930, 14.36383
204.3752, 15.33009
204.8573, 16.45633
205.3394, 17.60516
205.8215, 18.77791
206.3036, 20.02194
206.7857, 21.41559
207.2679, 22.97740
207.7500, 24.33051
208.2321, 25.03963
208.7142, 25.93329
209.1963, 27.42793
209.6784, 29.36336
210.1606, 31.28110
210.6427, 32.75327
211.1248, 33.70494
211.6069, 34.82921
212.0890, 36.16061
212.5711, 37.60815
213.0533, 39.09885
213.5354, 40.66679
214.0175, 42.45963
214.4996, 44.66556
214.9817, 47.41452
215.4638, 49.60306
215.9460, 50.85178
216.4281, 52.01587
216.9102, 53.53824
217.3923, 55.39951
217.8744, 57.30286
218.3565, 58.94131
218.8387, 60.25847
219.3208, 61.94913
219.8029, 64.18961
220.2850, 66.60794
220.7671, 69.16183
221.2492, 71.77200
221.7314, 74.09105
222.2135, 75.76935
222.6956, 76.74355
223.1777, 77.78741
223.6598, 78.93692
224.1419, 80.12923
224.6240, 81.34134
225.1062, 82.56598
225.5883, 83.75150
226.0704, 84.88322
226.5525, 85.94182
227.0346, 86.85272
227.5167, 87.66428
227.9989, 88.29372
228.4810, 88.55910
228.9631, 88.44031
229.4452, 88.34320
229.9273, 88.57703
230.4094, 89.07086
230.8916, 89.62880
231.3737, 90.34183
231.8558, 91.03831
232.3379, 91.55077
232.8200, 91.87799
233.3021, 91.97554
233.7843, 91.43709
234.2664, 90.69547
234.7485, 90.49323
235.2306, 91.35770
235.7127, 92.58658
236.1948, 93.18285
236.6770, 93.02878
237.1591, 92.73328
237.6412, 92.51584
238.1233, 92.37662
238.6054, 92.34279
239.0875, 92.47772
239.5697, 92.58701
240.0518, 92.36252
240.5339, 91.73996
241.0160, 90.92102
241.4981, 90.11548
241.9802, 89.07858
242.4624, 87.56596
242.9445, 85.50427
243.4266, 83.02939
243.9087, 80.32120
244.3908, 77.37358
244.8729, 74.24628
245.3550, 70.68442
245.8372, 67.08449
246.3193, 63.82390
246.8014, 61.02071
247.2835, 58.47968
247.7656, 55.79153
248.2477, 52.83862
248.7299, 50.05296
249.2120, 47.57890
249.6941, 45.26778
250.1762, 42.97849
250.6583, 40.65759
251.1404, 38.45309
251.6226, 36.68500
252.1047, 35.67213
252.5868, 34.40765
253.0689, 32.51976
253.5510, 30.60597
254.0331, 29.07347
254.5153, 28.02448
254.9974, 27.21971
255.4795, 26.32121
255.9616, 25.41107
256.4437, 24.20224
256.9258, 22.18550
257.4080, 20.28230
257.8901, 19.19160
258.3722, 18.99080
258.8543, 19.15192
259.3364, 18.96344
259.8185, 18.24326
260.3007, 17.62029
260.7828, 17.13870
261.2649, 16.68010
261.7470, 16.10483
262.2291, 15.44115
262.7112, 14.91048
263.1934, 14.79568
263.6755, 15.28401
264.1576, 15.50235
264.6397, 15.50598
265.1218, 15.26102
265.6039, 14.63588
266.0861, 13.69844
266.5682, 12.69447
267.0503, 11.85715
267.5324, 11.20506
268.0145, 10.64763
268.4966, 10.23817
268.9788, 9.851547
269.4609, 9.506241
269.9430, 9.151337
270.4251, 8.619629
270.9072, 7.714584
271.3893, 6.416107
271.8715, 5.649673
272.3536, 5.681442
272.8357, 5.859787
273.3178, 6.029022
273.7999, 6.133148
274.2820, 6.096252
274.7642, 5.863113
275.2463, 5.440063
275.7284, 4.904251
276.2105, 3.995071
276.6926, 3.273132
277.1747, 3.014191
277.6568, 3.082901
278.1389, 3.186661
278.6211, 3.174026
279.1032, 3.064835
279.5853, 2.932175
280.0674, 2.759872
280.5495, 2.584885
281.0316, 2.316025
281.5138, 2.062302
281.9959, 2.084625
282.4780, 2.541611
282.9601, 3.191071
283.4422, 3.388397
283.9243, 2.985138
284.4065, 2.500732
284.8886, 1.945786
285.3707, 1.396149
285.8528, 0.9809880
286.3349, 0.7501530
286.8170, 0.6094670
287.2992, 0.3929290
287.7813, 7.6629996E-02
288.2634, 0.2112430
288.7455, 0.4781800
289.2276, 0.6907960
289.7097, 0.8053890
290.1919, 0.8133240
290.6740, 0.7268070
291.1561, 0.5171360
291.6382, 0.1483310
292.1203, 7.0404001E-02
292.6024, 8.0642998E-02
293.0846, 0.2900540
293.5667, 0.1450040
294.0488, 0.3954620
294.5309, 0.8263700
295.0130, 0.6050260
295.4951, 0.2827150
295.9773, 0.9184270
296.4594, 1.209427
296.9415, 1.284180
297.4236, 1.185120
297.9057, 0.9309080
298.3878, 0.6280060
298.8700, 0.3022920
299.3521, 6.6530001E-03
299.8342, 0.1278230
300.3163, 0.2071840
300.7984, 0.4835820
301.2805, 0.2764590
301.7627, 0.2978210
302.2448, 0.6827390
302.7269, 0.5303500
303.2090, 2.4857000E-02
303.6911, 0.2651820
304.1732, 0.2971040
304.6554, 0.2117690
305.1375, 5.0407000E-02
305.6196, 0.3895340
306.1017, 0.5153660
306.5838, 0.2692490
307.0659, 0.1470720
307.5481, 0.3436200
308.0302, 0.3081590
308.5123, 0.1905290
308.9944, 6.4400002E-02
309.4765, 0.3484040
309.9586, 0.4151310
310.4408, 0.1565480
310.9229, 0.1178510
311.4050, 9.0026997E-02
311.8871, 0.7938610
312.3692, 1.337189
312.8513, 1.488380
313.3335, 1.463753
313.8156, 1.516151
314.2977, 1.684235
314.7798, 1.866966
315.2619, 1.976738
315.7440, 2.011543
316.2262, 2.013962
316.7083, 1.891090
317.1904, 1.806633
317.6725, 1.987617
318.1546, 2.408165
318.6367, 2.688622
319.1188, 2.503464
319.6010, 1.973763
320.0831, 1.711647
320.5652, 1.875946
321.0473, 2.135208
321.5294, 2.337067
322.0115, 2.490402
322.4937, 2.637276
322.9758, 2.821075
323.4579, 2.983208
323.9400, 2.953346
324.4221, 2.620186
324.9042, 2.354111
325.3864, 2.295601
325.8685, 2.398552
326.3506, 2.596039
326.8327, 2.886528
327.3148, 3.185768
327.7969, 3.358932
328.2791, 3.399414
328.7612, 3.391434
329.2433, 3.370941
329.7254, 3.303864
330.2075, 3.104340
330.6896, 2.757011
331.1718, 2.429794
331.6539, 2.298241
332.1360, 2.382591
332.6181, 2.487480
333.1002, 2.676086
333.5823, 2.830467
334.0645, 2.820984
334.5466, 2.669044
335.0287, 2.544327
335.5108, 2.575790
335.9929, 2.736244
336.4750, 2.822014
336.9572, 2.719261
337.4393, 2.671753
337.9214, 2.881760
338.4035, 3.226074
338.8856, 3.397438
339.3677, 3.237038
339.8499, 2.865929
340.3320, 2.583847
340.8141, 2.335342
341.2962, 2.218529
341.7783, 2.376030
342.2604, 2.627052
342.7426, 2.683823
343.2247, 2.464584
343.7068, 2.231209
344.1889, 2.390083
344.6710, 3.186951
345.1531, 3.647919
345.6353, 3.568336
346.1174, 3.265648
346.5995, 2.855865
347.0816, 2.412102
347.5637, 2.163971
348.0458, 2.393272
348.5280, 3.145126
349.0101, 3.399925
349.4922, 2.780670
349.9743, 2.163818
350.4564, 1.846436
350.9385, 1.789223
351.4207, 1.888947
351.9028, 2.097046
352.3849, 2.364929
352.8670, 2.510681
353.3491, 2.390038
353.8312, 2.276611
354.3134, 2.209053
354.7955, 2.197655
355.2776, 2.314377
355.7597, 2.577766
356.2418, 2.815201
356.7239, 2.713882
357.2061, 2.011215
357.6882, 1.493019
358.1703, 1.090530
358.6524, 0.8378140
359.1345, 0.8170090
359.6166, 1.026253
360.0987, 1.381653
360.5808, 1.848785
361.0630, 2.483681
361.5451, 2.706940
362.0272, 2.160645
362.5093, 1.643188
362.9914, 1.389725
363.4735, 1.346725
363.9557, 1.392685
364.4378, 1.464020
364.9199, 1.528229
365.4020, 1.490990
365.8841, 1.221458
366.3662, 1.072510
366.8484, 1.225212
367.3305, 1.430817
367.8126, 1.368256
368.2947, 0.9574810
368.7768, 0.4904940
369.2589, 0.5170900
369.7411, 1.322662
370.2232, 1.819305
370.7053, 1.835068
371.1874, 1.668030
371.6695, 1.367615
372.1516, 1.002602
372.6338, 0.7175450
373.1159, 0.6736370
373.5980, 0.8605650
374.0801, 0.9394000
374.5622, 0.7875370
375.0443, 0.6745380
375.5265, 0.7441100
376.0086, 0.8980560
376.4907, 0.9679110
376.9728, 0.8504330
377.4549, 0.6468810
377.9370, 0.5962830
378.4192, 0.7523040
378.9013, 0.9182280
379.3834, 1.115585
379.8655, 1.262901
380.3476, 1.202805
380.8297, 0.9169460
381.3119, 0.6980130
381.7940, 0.9988560
382.2761, 1.800659
382.7582, 2.124519
383.2403, 1.512955
383.7224, 0.7796330
384.2046, 0.4555280
384.6867, 0.4795230
385.1688, 0.5990750
385.6509, 0.7857890
386.1330, 0.9562070
386.6151, 0.8631670
387.0973, 0.4169390
387.5794, 3.0128000E-02
388.0615, 7.7510001E-03
388.5436, 0.1468810
389.0257, 0.2942430
389.5078, 0.4086460
389.9900, 0.4890210
390.4721, 0.5357590
390.9542, 0.5520550
391.4363, 0.5327220
391.9184, 0.4470830
392.4005, 0.3999630
392.8827, 0.5934680
393.3648, 1.062660
393.8469, 1.345467
394.3290, 1.105186
394.8111, 0.6163020
395.2932, 0.3357470
395.7754, 0.3416980
396.2575, 0.3965070
396.7396, 0.2540890
397.2217, 5.3764001E-02
397.7038, 0.1715850
398.1859, 6.4323001E-02
398.6681, 0.3646090
399.1501, 0.6050570
399.6323, 0.7636340
400.1144, 0.7563630
400.5965, 0.5096210
401.0786, 0.1163710
401.5607, 0.1465760
402.0428, 0.3943710
402.5250, 0.3393860
403.0071, 0.4128190
403.4892, 1.332230
403.9713, 1.782249
404.4534, 1.626030
404.9355, 1.187698
405.4177, 0.8294450
405.8998, 0.5743940
406.3819, 0.3208160
406.8640, 0.1447600
407.3461, 0.4175190
407.8282, 0.1307300
408.3104, 0.5243840
408.7925, 1.063385
409.2746, 1.182495
409.7567, 0.9592740
410.2388, 0.7518770
410.7209, 0.5349960
411.2031, 0.3702700
411.6852, 0.2508470
412.1673, 0.1910480
412.6494, 0.2554550
413.1315, 0.4393620
413.6136, 0.5989910
414.0958, 0.4981160
414.5779, 1.6098000E-02
415.0600, 0.2537160
415.5421, 7.5461999E-02
416.0242, 0.1045000
416.5063, 5.9525002E-02
416.9885, 0.1246490
417.4706, 0.1926500
417.9527, 7.6309003E-02
418.4348, 0.5177000
418.9169, 0.6122670
419.3990, 0.1528400
419.8812, 0.1404190
420.3633, 9.4962999E-02
420.8454, 0.5020070
421.3275, 0.8251800
421.8096, 1.004715
422.2917, 1.025436
422.7739, 0.7298130
423.2560, 0.1474910
423.7381, 5.4710001E-02
424.2202, 0.4897920
424.7023, 1.069160
425.1844, 1.079277
425.6666, 0.6534350
426.1487, 0.2750850
426.6308, 0.1156620
427.1129, 0.1357800
427.5950, 0.3365400
428.0771, 0.7298660
428.5593, 1.079338
429.0414, 1.261414
429.5235, 1.310921
430.0056, 1.338905
430.4877, 1.371582
430.9698, 1.328377
431.4520, 1.066849
431.9341, 0.7179490
432.4162, 0.5600200
432.8983, 0.6746060
433.3804, 0.9119110
433.8625, 1.142052
434.3447, 1.376289
434.8268, 1.420341
435.3089, 1.139656
435.7910, 0.7753680
436.2731, 0.3974610
436.7552, 6.0867000E-02
437.2374, 8.3518997E-02
437.7195, 7.3302999E-02
438.2016, 0.4432750
438.6837, 0.6923520
439.1658, 0.6965260
439.6479, 0.7398760
440.1301, 0.9358060
440.6122, 1.126602
441.0943, 1.098495
441.5764, 0.8425370
442.0585, 0.6029590
442.5406, 0.7025300
443.0227, 1.233620
443.5049, 1.434387
443.9870, 0.8162840
444.4691, 0.3717270
444.9512, 0.6060180
445.4333, 1.181244
445.9154, 1.517822
446.3976, 1.309471
446.8797, 0.7628020
447.3618, 0.2931750
447.8439, 0.1482160
448.3260, 0.3591460
448.8081, 6.7649998E-02
449.2903, 0.3158420
449.7724, 0.4990010
450.2545, 0.4556120
450.7366, 0.4120640
451.2187, 0.5065610
451.7008, 0.7328260
452.1830, 1.125671
452.6651, 1.810104
453.1472, 2.339806
453.6293, 2.396591
454.1114, 2.143127
454.5935, 1.736908
455.0757, 1.098129
455.5578, 0.5214610
456.0399, 0.3246000
456.5220, 0.4232250
457.0041, 0.4649810
457.4862, 0.3085940
457.9684, 0.1433260
458.4505, 0.2804260
458.9326, 0.7191850
459.4147, 1.006889
459.8968, 0.9394000
460.3789, 0.7886890
460.8611, 0.8420870
461.3432, 1.050209
461.8253, 1.139595
462.3074, 0.9175800
462.7895, 0.4779890
463.2716, 0.2057190
463.7538, 0.1882020
464.2359, 0.2112960
464.7180, 0.2191930
465.2001, 0.2556920
465.6822, 0.4682690
466.1643, 0.8401260
466.6465, 1.135429
467.1286, 1.066109
467.6107, 0.5672680
468.0928, 0.3151550
468.5749, 0.4872740
469.0570, 0.7215730
469.5392, 1.004456
470.0213, 1.267464
470.5034, 1.403297
470.9855, 1.360573
471.4676, 1.243996
471.9497, 1.270409
472.4319, 1.506287
472.9140, 1.572052
473.3961, 1.374985
473.8782, 1.055916
474.3603, 0.5579380
474.8424, 3.6446001E-02
475.3246, 0.4201130
475.8067, 0.2481230
476.2888, 0.2113270
476.7709, 0.3365400
477.2530, 5.6168001E-02
477.7351, 0.1227650
478.2173, 0.1963200
478.6994, 0.6952290
479.1815, 0.8517380
479.6636, 0.5443420
480.1457, 0.2604370
480.6278, 0.3083040
481.1100, 0.5250630
481.5920, 0.5610660
482.0742, 0.3567730
482.5563, 0.2411190
483.0384, 0.5776440
483.5205, 1.352821
484.0026, 1.815048
484.4847, 1.883492
484.9669, 1.751579
485.4490, 1.308868
485.9311, 0.7587200
486.4132, 0.4570770
486.8953, 0.5346530
487.3774, 0.8276210
487.8596, 1.090378
488.3417, 1.401184
488.8238, 1.454170
489.3059, 1.027985
489.7880, 0.6009220
490.2701, 0.3869400
490.7523, 0.3635560
491.2344, 0.4298480
491.7165, 0.5324780
492.1986, 0.6725160
492.6807, 0.8820800
493.1628, 1.242180
493.6450, 1.446938
494.1271, 1.285751
494.6092, 1.048889
495.0913, 0.9064330
495.5734, 0.8867420
496.0555, 0.9256740
496.5377, 1.053688
497.0198, 1.200989
497.5019, 1.138344
497.9840, 0.8135070
498.4661, 0.5023650
498.9482, 0.3443600
499.4304, 0.3024290
499.9125, 0.2881010
500.3946, 0.2662890
500.8767, 0.3439870
501.3588, 0.7268300
501.8409, 1.205750
502.3231, 1.371742
502.8052, 1.138611
503.2873, 0.7939760
503.7694, 0.6119460
504.2515, 0.5986100
504.7336, 0.5003050
505.2158, 0.2540280
505.6979, 9.4379997E-03
506.1800, 0.3521270
506.6621, 0.6178130
507.1442, 0.5485610
507.6263, 7.2959997E-02
508.1085, 0.5110780
508.5906, 0.7208330
509.0727, 0.4087520
509.5548, 0.2597200
510.0369, 0.4187700
510.5190, 0.5962910
511.0012, 0.6919250
511.4833, 0.7260060
511.9654, 0.7650300
512.4475, 0.8552170
512.9296, 0.9250870
513.4117, 0.7555310
513.8939, 0.2750090
514.3760, 0.1325230
514.8581, 0.7529370
515.3402, 1.473343
515.8223, 1.726311
516.3044, 1.566658
516.7866, 1.371590
517.2687, 1.340614
517.7508, 1.334053
518.2329, 1.124153
518.7150, 0.7291790
519.1971, 0.4076770
519.6793, 0.2720790
520.1614, 0.2951810
520.6435, 0.4618910
521.1256, 0.8643420
521.6077, 1.105904
522.0898, 0.9760210
522.5720, 0.7624510
523.0541, 0.7497560
523.5362, 0.9206240
524.0183, 1.041115
524.5004, 0.9250950
524.9825, 0.6448290
525.4647, 0.5854640
525.9468, 1.049179
526.4289, 1.305771
526.9110, 1.163109
527.3931, 0.8849560
527.8752, 0.6479490
528.3574, 0.4999470
528.8395, 0.4502330
529.3216, 0.5414510
529.8037, 0.7380750
530.2858, 0.8442460
530.7679, 0.8446040
531.2501, 0.8008880
531.7322, 0.5727230
532.2143, 0.4015200
532.6964, 0.6200260
533.1785, 1.321671
533.6606, 1.934311
534.1428, 2.013748
534.6249, 1.729736
535.1070, 1.426231
535.5891, 1.084534
536.0712, 0.9270100
536.5533, 1.239418
537.0355, 1.889824
537.5176, 2.057968
537.9997, 1.304710
538.4818, 0.6446990
538.9639, 0.3707280
539.4460, 0.3475040
539.9282, 0.4086530
540.4103, 0.5183260
540.8924, 0.7595210
541.3745, 1.261955
541.8566, 2.040932
542.3387, 2.492126
542.8209, 2.244431
543.3029, 2.100243
543.7850, 2.400833
544.2672, 2.799789
544.7493, 2.874695
545.2314, 2.520950
545.7135, 2.014214
546.1956, 1.642380
546.6777, 1.392990
547.1599, 1.098366
547.6420, 0.6378480
548.1241, 0.3700560
548.6062, 0.7422710
549.0883, 1.411766
549.5704, 1.828018
550.0526, 1.841927
550.5347, 1.704674
551.0168, 1.492119
551.4989, 1.260773
551.9810, 1.131500
552.4631, 1.128036
552.9453, 1.169800
553.4274, 1.178322
553.9095, 1.154419
554.3916, 1.213211
554.8737, 1.560852
555.3558, 1.732979
555.8380, 1.453384
556.3201, 0.9953540
556.8022, 0.6599580
557.2843, 0.5384060
557.7664, 0.6071400
558.2485, 0.8959730
558.7307, 1.420586
559.2128, 1.730446
559.6949, 1.707191
560.1770, 1.614426
560.6591, 1.537743
561.1412, 1.479202
561.6234, 1.385689
562.1055, 1.216537
562.5876, 1.076157
563.0697, 1.139458
563.5518, 1.314865
564.0339, 1.215637
564.5161, 0.7328410
564.9982, 0.3601840
565.4803, 0.5688630
565.9624, 1.173920
566.4445, 1.402390
566.9266, 0.8523860
567.4088, 0.5038600
567.8909, 0.9924090
568.3730, 1.718765
568.8551, 1.841301
569.3372, 1.269569
569.8193, 0.6133800
570.3015, 0.4473950
570.7836, 0.7474370
571.2657, 1.020187
571.7478, 1.362770
572.2299, 1.531891
572.7120, 1.406746
573.1942, 1.158302
573.6763, 0.8942410
574.1584, 0.6556930
574.6405, 0.5221330
575.1226, 0.6591260
575.6047, 0.9708480
576.0869, 1.020943
576.5690, 0.7451170
577.0511, 0.4692920
577.5332, 0.2930370
578.0153, 0.2458040
578.4974, 0.4060900
578.9796, 0.8504330
579.4617, 1.160088
579.9438, 1.023979
580.4259, 0.7619710
580.9080, 0.8216250
581.3901, 1.171120
581.8723, 1.367683
582.3544, 1.107071
582.8365, 0.5351260
583.3186, 0.1440430
583.8007, 5.2189999E-03
584.2828, 4.3900002E-02
584.7650, 7.8850001E-02
585.2471, 0.2085040
585.7292, 0.1963500
586.2113, 8.8844001E-02
586.6934, 7.1152002E-02
587.1755, 0.3010860
587.6577, 0.6180500
588.1398, 0.5945430
588.6219, 0.1641620
589.1040, 0.1635210
589.5861, 0.2985690
590.0682, 0.2487640
590.5504, 0.1209340
591.0325, 0.7270510
591.5146, 1.001312
591.9967, 0.3477170
592.4788, 0.3497770
592.9609, 0.1689070
593.4431, 0.6056820
593.9252, 1.053047
594.4073, 0.8197630
594.8894, 0.3750610
595.3715, 0.3997880
595.8536, 1.060577
596.3358, 1.446358
596.8179, 1.487541
597.3000, 1.375221
597.7821, 1.036972
598.2642, 0.6373980
598.7463, 0.4113240
599.2285, 0.4347310
599.7106, 0.5491030
600.1927, 0.5632780
600.6748, 0.4811330
601.1569, 0.4103470
601.6390, 0.3333510
602.1212, 0.3140950
602.6033, 0.3828890
603.0854, 0.5367280
603.5675, 0.8170780
604.0496, 1.317841
604.5317, 1.681656
605.0139, 1.693993
605.4960, 1.477669
605.9781, 1.113747
606.4602, 0.6558070
606.9423, 0.3582760
607.4244, 0.4406430
607.9066, 0.7951350
608.3887, 0.9274140
608.8708, 0.5034870
609.3529, 0.3381960
609.8350, 0.4555360
610.3171, 0.8363340
610.7993, 1.773239
611.2814, 3.002129
611.7635, 3.725227
612.2456, 3.332573
612.7277, 2.303009
613.2098, 1.591324
613.6920, 1.207672
614.1741, 1.004776
614.6562, 1.059097
615.1383, 1.131248
615.6204, 0.9246830
616.1025, 0.4948960
616.5847, 0.1849750
617.0668, 0.1878970
617.5489, 0.2087940
618.0310, 4.0833000E-02
618.5131, 0.3909680
618.9952, 0.4461820
619.4774, 9.8266996E-02
619.9595, 0.3483660
620.4416, 0.5259550
620.9237, 0.4117200
621.4058, 0.3856050
621.8879, 0.4726720
622.3701, 0.6255110
622.8522, 1.007477
623.3343, 1.354774
623.8164, 1.318054
624.2985, 0.8619160
624.7806, 0.3850170
625.2628, 0.2327120
625.7448, 0.3029170
626.2269, 0.3303910
626.7090, 0.3082350
627.1912, 0.2483900
627.6733, 0.1104740
628.1554, 2.0126000E-02
628.6375, 5.5098999E-02
629.1196, 0.3629840
629.6017, 0.6365430
630.0839, 0.8421480
630.5660, 1.004906
631.0481, 1.162270
631.5302, 1.291122
632.0123, 1.318672
632.4944, 1.195663
632.9766, 1.021507
633.4587, 1.031357
633.9408, 1.283127
634.4229, 1.422813
634.9050, 1.377785
635.3871, 1.303352
635.8693, 1.231514
636.3514, 1.192085
636.8335, 1.240036
637.3156, 1.403809
637.7977, 1.574188
638.2798, 1.687515
638.7620, 1.749359
639.2441, 1.812668
639.7262, 1.882858
640.2083, 1.814651
640.6904, 1.429642
641.1725, 0.8495790
641.6547, 0.5350490
642.1368, 0.6391370
642.6189, 0.8105390
643.1010, 1.265610
643.5831, 1.591141
644.0652, 1.384514
644.5474, 0.8425450
645.0295, 0.4907230
645.5116, 0.6162570
645.9937, 0.9866410
646.4758, 1.274742
646.9579, 1.474472
647.4401, 1.548653
647.9222, 1.472542
648.4043, 1.378517
648.8864, 1.312767
649.3685, 1.243958
649.8506, 1.155006
650.3328, 0.9405670
650.8149, 0.8869480
651.2970, 1.354881
651.7791, 1.886841
652.2612, 1.804939
652.7433, 1.141685
653.2255, 0.5986330
653.7076, 0.7173770
654.1897, 1.308113
654.6718, 1.638481
655.1539, 1.426712
655.6360, 1.605186
656.1182, 3.122223
656.6003, 4.356354
657.0824, 4.139069
657.5645, 2.861298
658.0466, 1.813347
658.5287, 1.552170
659.0109, 1.583611
659.4930, 1.438728
659.9751, 1.197533
660.4572, 1.123245
660.9393, 1.278206
661.4214, 1.388802
661.9036, 1.167824
662.3857, 0.6704790
662.8678, 0.5053940
663.3499, 1.028374
663.8320, 1.418633
664.3141, 1.543793
664.7963, 1.558182
665.2784, 1.595726
665.7605, 1.649849
666.2426, 1.605545
666.7247, 1.324577
667.2068, 1.014389
667.6890, 1.079544
668.1711, 1.511871
668.6532, 2.064156
669.1353, 2.847084
669.6174, 3.407974
670.0995, 3.054543
670.5817, 1.878494
671.0638, 1.095932
671.5459, 0.9109270
672.0280, 0.8906330
672.5101, 0.9512480
672.9922, 1.080696
673.4744, 1.357742
673.9565, 1.725616
674.4386, 1.916306
674.9207, 1.698608
675.4028, 1.227242
675.8849, 0.9913940
676.3671, 1.028969
676.8492, 1.074768
677.3313, 1.089455
677.8134, 1.126938
678.2955, 1.314720
678.7776, 1.566826
679.2598, 1.565315
679.7419, 1.003578
680.2240, 0.4752730
680.7061, 0.3763730
681.1882, 0.5180890
681.6703, 0.5925520
682.1525, 0.5548630
682.6346, 0.5757680
683.1167, 0.8143840
683.5988, 1.213211
684.0809, 1.490166
684.5630, 1.711403
685.0452, 1.661598
685.5273, 0.8673400
686.0094, 0.1811980
686.4915, 0.2679210
686.9736, 0.8967510
687.4557, 1.317909
687.9379, 1.216782
688.4200, 0.9028170
688.9021, 0.4707640
689.3842, 4.3853998E-02
689.8663, 7.0999999E-04
690.3484, 0.4107740
690.8306, 0.9060060
691.3127, 1.214142
691.7948, 1.351891
692.2769, 1.402245
692.7590, 1.292763
693.2411, 1.211143
693.7233, 1.276329
694.2054, 1.272453
694.6875, 0.9730760
695.1696, 0.5013730
695.6517, 0.1940840
696.1339, 0.2384490
696.6160, 0.3717270
697.0981, 0.2052540
697.5802, 0.1239930
698.0623, 2.7107000E-02
698.5444, 0.6191560
699.0266, 1.143845
699.5087, 1.027100
699.9908, 0.4578250
700.4729, 0.1473460
700.9550, 0.2998810
701.4371, 0.4051060
701.9193, 0.4560320
702.4014, 0.4569700
702.8835, 0.3952710
703.3656, 0.2933960
703.8477, 0.1789250
704.3298, 6.3683003E-02
704.8120, 5.7716001E-02
705.2941, 0.2615360
705.7762, 0.5047990
706.2583, 0.4685900
706.7404, 8.3526999E-02
707.2225, 0.3240280
707.7046, 0.6046520
708.1867, 0.7518540
708.6688, 0.7189410
709.1509, 0.3629150
709.6331, 0.2062990
710.1152, 0.5396040
710.5973, 0.8306660
711.0794, 0.6786650
711.5615, 0.2809220
712.0436, 8.0180001E-03
712.5258, 5.7167001E-02
713.0079, 7.6126002E-02
713.4900, 0.4298400
713.9721, 0.9335480
714.4542, 1.202438
714.9363, 1.213394
715.4185, 1.027611
715.9006, 0.5138470
716.3827, 1.8219000E-02
716.8648, 7.4715003E-02
717.3469, 0.9573900
717.8290, 1.411751
718.3112, 0.8942030
718.7933, 0.3981090
719.2754, 0.4653550
719.7575, 0.8455350
720.2396, 1.226639
720.7217, 1.489059
721.2039, 1.523148
721.6860, 1.073456
722.1681, 0.3316960
722.6502, 0.1210020
723.1323, 0.5085530
723.6144, 0.8638380
724.0966, 0.9993970
724.5787, 1.008919
725.0608, 1.041985
725.5429, 1.092964
726.0250, 0.8518680
726.5071, 0.2542040
726.9893, 0.9879380
727.4714, 0.6017000
727.9535, 0.2120440
728.4356, 0.7357790
728.9177, 0.8476790
729.3998, 0.7290880
729.8820, 0.4670030
730.3641, 0.1461030
730.8462, 5.9723001E-02
731.3283, 0.1509780
731.8104, 8.4297001E-02
732.2925, 0.2113270
732.7747, 0.5203020
733.2568, 0.6630710
733.7389, 0.6651920
734.2210, 0.6833880
734.7031, 0.7013240
735.1852, 0.7579650
735.6674, 0.9012830
736.1495, 1.053497
736.6316, 1.163284
737.1137, 1.224648
737.5958, 1.243233
738.0779, 1.219193
738.5601, 1.162132
739.0422, 1.004349
739.5243, 0.7835690
740.0064, 1.010818
740.4885, 1.895844
740.9706, 2.419258
741.4528, 1.820923
741.9349, 0.6354060
742.4170, 7.4265003E-02
742.8991, 0.3261030
743.3812, 0.4827880
743.8633, 0.4564670
744.3455, 0.3313830
744.8276, 4.7386002E-02
745.3097, 0.2725600
745.7918, 0.4824980
746.2739, 0.5278930
746.7560, 0.3651660
747.2382, 0.2185970
747.7203, 1.012680
748.2024, 1.290016
748.6845, 1.025444
749.1666, 0.7168730
749.6487, 0.4983520
750.1309, 0.3774570
750.6130, 0.3778530
751.0951, 0.5065840
751.5772, 0.6317600
752.0593, 0.7422490
752.5414, 0.8613970
753.0236, 1.064415
753.5057, 1.221069
753.9878, 1.184196
754.4699, 0.9885640
754.9520, 0.8171080
755.4341, 0.7837680
755.9163, 0.7869420
756.3984, 0.6086350
756.8805, 0.2974620
757.3626, 0.1441040
757.8447, 0.1992030
758.3268, 0.3680730
758.8090, 0.6559750
759.2911, 0.9612050
759.7732, 0.9399110
760.2553, 0.2710040
760.7374, 0.1357420
761.2195, 0.1029430
761.7017, 1.3054000E-02
762.1838, 0.1598210
762.6659, 0.3319400
763.1480, 0.1040500
763.6301, 0.6589430
764.1122, 1.368820
764.5944, 1.649429
765.0765, 1.581039
765.5586, 1.113846
766.0407, 0.3559800
766.5228, 0.1200100
767.0049, 8.3861999E-02
767.4871, 0.1438600
767.9692, 0.1199190
768.4513, 0.1789090
768.9334, 0.1476970
769.4155, 0.5212330
769.8976, 1.006783
770.3798, 1.017166
770.8619, 0.8971180
771.3440, 0.8821720
771.8261, 0.9648060
772.3082, 1.040718
772.7903, 1.122208
773.2725, 1.121376
773.7546, 0.8328020
774.2367, 0.4780120
774.7188, 0.4853900
775.2009, 0.8552020
775.6830, 1.236633
776.1652, 1.402130
776.6473, 1.432396
777.1294, 1.527924
777.6115, 1.712318
778.0936, 1.809929
778.5757, 1.810333
779.0579, 1.719177
779.5400, 1.428230
780.0221, 1.095177
780.5042, 1.032959
780.9863, 1.338760
781.4684, 1.468628
781.9506, 1.078773
782.4327, 0.6856380
782.9148, 0.6495290
783.3969, 0.8287960
783.8790, 0.9659650
784.3611, 0.9771880
784.8433, 0.9339450
785.3254, 0.9977800
785.8075, 1.158455
786.2896, 1.366058
786.7717, 1.623512
787.2538, 1.594566
787.7360, 1.067474
788.2181, 0.6381910
788.7002, 0.9659120
789.1823, 1.917587
789.6644, 2.352333
790.1465, 1.950066
790.6286, 1.518867
791.1107, 0.8995820
791.5928, 0.4710160
792.0750, 0.5845260
792.5571, 1.057709
793.0392, 1.516281
793.5213, 1.837433
794.0034, 2.016792
794.4855, 1.937752
794.9677, 1.760605
795.4498, 1.847160
795.9319, 2.164284
796.4140, 2.346710
796.8961, 2.237511
797.3782, 1.993370
797.8604, 1.806870
798.3425, 1.672737
798.8246, 1.743713
799.3067, 2.316132
799.7888, 2.556221
800.2709, 1.782814
800.7531, 0.9765240
801.2352, 0.9813610
801.7173, 1.648552
802.1994, 2.142120
802.6815, 2.085617
803.1636, 2.033127
803.6458, 2.470467
804.1279, 2.956764
804.6100, 2.819923
805.0921, 2.204025
805.5742, 1.831070
806.0563, 2.112968
806.5385, 2.655663
807.0206, 2.785286
807.5027, 2.545532
807.9848, 2.597672
808.4669, 3.055595
808.9490, 3.348923
809.4312, 3.181969
809.9133, 2.779022
810.3954, 2.451347
810.8775, 2.203346
811.3596, 2.017281
811.8417, 1.801506
812.3239, 1.762848
812.8060, 2.055573
813.2881, 2.480949
813.7702, 2.931839
814.2523, 3.342735
814.7344, 3.575249
815.2166, 3.527138
815.6987, 3.346230
816.1808, 3.159874
816.6629, 2.963097
817.1450, 2.684326
817.6271, 2.345985
818.1093, 2.217560
818.5914, 2.474625
819.0735, 2.881783
819.5556, 2.932404
820.0377, 2.519165
820.5198, 2.423157
821.0020, 2.909569
821.4841, 3.234283
821.9662, 2.945549
822.4483, 2.479111
822.9304, 2.325508
823.4125, 2.479767
823.8947, 2.620361
824.3768, 2.617409
824.8589, 2.668846
825.3410, 2.989174
825.8231, 3.325699
826.3052, 3.319954
826.7874, 3.036949
827.2695, 2.860680
827.7516, 3.020340
828.2337, 3.295357
828.7158, 3.326866
829.1979, 3.198540
829.6801, 3.325340
830.1622, 3.744606
830.6443, 4.032608
831.1264, 3.967575
831.6085, 3.686333
832.0906, 3.387177
832.5728, 3.048073
833.0549, 2.852905
833.5370, 2.751312
834.0191, 2.876381
834.5012, 3.602669
834.9833, 4.277527
835.4655, 4.220695
835.9476, 3.578064
836.4297, 3.202133
836.9118, 3.540878
837.3939, 3.891068
837.8760, 3.812439
838.3582, 3.578896
838.8403, 3.492622
839.3224, 3.557358
839.8045, 3.668404
840.2866, 3.777184
840.7687, 3.854355
841.2509, 3.820541
841.7330, 3.709320
842.2151, 3.741913
842.6972, 3.932816
843.1793, 4.071953
843.6614, 4.062462
844.1436, 4.032463
844.6257, 4.140350
845.1078, 4.381081
845.5899, 4.556900
846.0720, 4.746223
846.5541, 4.745232
847.0363, 4.298416
847.5184, 3.885719
848.0005, 3.858101
848.4826, 4.086716
848.9647, 4.260612
849.4468, 4.305374
849.9290, 4.272835
850.4111, 4.070938
850.8932, 3.902100
851.3753, 4.068832
851.8574, 4.421761
852.3395, 4.547531
852.8217, 4.346703
853.3038, 4.170006
853.7859, 4.430450
854.2680, 4.919914
854.7501, 4.901817
855.2322, 4.377220
855.7144, 4.068604
856.1965, 4.096382
856.6786, 4.256142
857.1607, 4.463333
857.6428, 4.675003
858.1249, 4.748085
858.6071, 4.601112
859.0892, 4.489723
859.5713, 4.413101
860.0534, 4.370483
860.5355, 4.388885
861.0176, 4.424713
861.4998, 4.416992
861.9819, 4.362091
862.4640, 4.347023
862.9461, 4.499016
863.4282, 4.625237
863.9103, 4.464371
864.3925, 4.195770
864.8746, 4.135132
865.3567, 4.301979
865.8388, 4.531395
866.3209, 4.738998
866.8030, 4.839439
867.2852, 4.621346
867.7673, 4.164825
868.2494, 3.829910
868.7315, 3.631737
869.2136, 3.605728
869.6957, 3.811020
870.1779, 4.059792
870.6600, 4.087090
871.1421, 3.890762
871.6242, 3.785767
872.1063, 3.781860
872.5884, 3.849358
873.0705, 4.282501
873.5526, 4.504074
874.0347, 3.906479
874.5168, 2.860825
874.9990, 2.276192
875.4811, 2.383286
875.9632, 2.708305
876.4453, 3.366539
876.9274, 3.924660
877.4095, 3.983376
877.8917, 3.738548
878.3738, 3.476173
878.8559, 3.310387
879.3380, 3.291222
879.8201, 3.543358
880.3022, 3.836868
880.7844, 3.740395
881.2665, 3.362656
881.7486, 3.080620
882.2307, 2.959633
882.7128, 2.954170
883.1949, 3.053383
883.6771, 3.206596
884.1592, 3.319260
884.6413, 3.400505
885.1234, 3.378174
885.6055, 3.270248
886.0876, 3.045135
886.5698, 2.479103
887.0519, 1.979088
887.5340, 2.187645
888.0161, 3.037392
888.4982, 3.407845
888.9803, 2.936180
889.4625, 2.458839
889.9446, 1.993965
890.4267, 1.679054
890.9088, 1.748871
891.3909, 2.033264
891.8730, 2.145348
892.3552, 1.970612
892.8373, 1.873009
893.3194, 2.274940
893.8015, 2.712402
894.2836, 2.615273
894.7657, 2.187592
895.2479, 1.834755
895.7300, 1.674377
896.2121, 1.702866
896.6942, 1.949646
897.1763, 2.231712
897.6584, 2.072945
898.1406, 1.534821
898.6227, 1.282745
899.1048, 1.406601
899.5869, 1.404366
900.0690, 0.9854050
900.5511, 0.4769670
901.0333, 0.4010010
901.5154, 0.7937390
901.9975, 0.9614560
902.4796, 0.7163160
902.9617, 0.5115740
903.4438, 0.4273910
903.9260, 0.4737780
904.4081, 0.8021240
904.8902, 1.248665
905.3723, 1.357788
905.8544, 0.9345780
906.3365, 0.5907290
906.8187, 0.5719830
907.3008, 0.5791470
907.7829, 0.3539510
908.2650, 8.5616998E-02
908.7471, 8.8386998E-02
909.2292, 0.3723980
909.7114, 0.6217420
910.1935, 0.6018980
910.6756, 0.5484700
911.1577, 0.8778230
911.6398, 1.274406
912.1219, 0.9734570
912.6041, 8.6448997E-02
913.0862, 0.4942470
913.5683, 0.3418050
914.0504, 0.1176680
914.5325, 0.3216320
915.0146, 0.3263320
915.4968, 0.5143130
915.9789, 0.8991780
916.4610, 1.051201
916.9431, 0.8063660
917.4252, 0.5893860
917.9073, 0.8207020
918.3895, 1.297989
918.8716, 1.253609
919.3537, 0.4174960
919.8358, 0.2732850
920.3179, 0.9510500
920.8000, 1.288773
921.2822, 0.8803480
921.7643, 0.2451250
922.2464, 4.3945000E-02
922.7285, 8.5530002E-03
923.2106, 2.6161000E-02
923.6927, 0.1218870
924.1749, 0.2047270
924.6570, 7.8217000E-02
925.1391, 7.2350003E-02
925.6212, 0.1008760
926.1033, 3.2906000E-02
926.5854, 7.1381003E-02
927.0676, 0.1986310
927.5497, 0.2752910
928.0318, 0.2033840
928.5139, 9.4481997E-02
928.9960, 8.1786998E-02
929.4781, 0.1293110
929.9603, 0.1543960
930.4424, 0.1491550
930.9245, 0.1793980
931.4066, 0.2959140
931.8887, 0.4157870
932.3708, 0.3987270
932.8530, 0.2677840
933.3351, 7.9346001E-02
933.8172, 0.1501620
934.2993, 0.1891480
934.7814, 6.1988998E-02
935.2635, 0.3090130
935.7457, 0.2029570
936.2278, 0.1687550
936.7099, 0.2769010
937.1920, 6.1896998E-02
937.6741, 0.1722950
938.1563, 0.4507450
938.6384, 0.6000750
939.1205, 0.4054640
939.6026, 0.1241380
940.0847, 0.2806780
940.5668, 1.016220
941.0490, 1.348770
941.5311, 1.073517
942.0132, 0.6965640
942.4953, 9.9097997E-02
942.9774, 0.3774870
943.4595, 0.4454570
943.9417, 0.1980440
944.4238, 0.1407090
944.9059, 0.5999760
945.3880, 0.8730550
945.8701, 0.7677990
946.3522, 0.5324330
946.8344, 0.1456530
947.3165, 0.1655650
947.7986, 1.8805999E-02
948.2807, 0.6266630
948.7628, 1.030487
949.2449, 0.8068080
949.7271, 0.4968110
950.2092, 0.5973360
950.6913, 0.9509200
951.1734, 1.544655
951.6555, 2.163673
952.1376, 2.066795
952.6198, 1.070168
953.1019, 8.0902003E-02
953.5840, 1.0941000E-02
954.0661, 0.5108180
954.5482, 0.7904890
955.0303, 0.8637160
955.5124, 0.7808990
955.9945, 0.5502090
956.4766, 0.3933940
956.9587, 0.4429700
957.4409, 0.5477450
957.9230, 0.4537730
958.4051, 0.1654130
958.8872, 7.5432003E-02
959.3693, 0.3247450
959.8514, 0.2408520
960.3336, 0.4168240
960.8157, 1.037224
961.2978, 1.143570
961.7799, 0.8807910
962.2620, 0.6365430
962.7441, 0.3613280
963.2263, 0.2621840
963.7084, 0.5294880
964.1905, 0.7166140
964.6726, 0.6111450
965.1547, 0.4567640
965.6368, 0.4390260
966.1190, 0.5533830
966.6011, 0.7635570
967.0832, 1.220131
967.5653, 1.457039
968.0474, 1.254013
968.5295, 0.9358600
969.0117, 0.5322270
969.4938, 0.2146450
969.9759, 0.2654500
970.4580, 0.6615600
970.9401, 0.9610750
971.4222, 0.9828720
971.9044, 0.9608840
972.3865, 1.060532
972.8686, 1.140923
973.3507, 0.9842530
973.8328, 0.6963650
974.3149, 0.5483020
974.7971, 0.6123430
975.2792, 0.7110210
975.7613, 0.6846010
976.2434, 0.6364360
976.7255, 0.7177050
977.2076, 0.8777690
977.6898, 1.007591
978.1719, 1.063263
978.6540, 1.051720
979.1361, 1.013535
979.6182, 0.9947890
980.1003, 1.046066
980.5825, 1.094757
981.0646, 0.8554150
981.5467, 0.3993760
982.0288, 0.3410950
982.5109, 0.8012160
982.9930, 1.211235
983.4752, 1.213432
983.9573, 0.9419860
984.4394, 0.5750500
984.9215, 0.1062470
985.4036, 4.0587999E-02
985.8857, 0.1918490
986.3679, 0.4037320
986.8500, 0.4768750
987.3321, 0.5677950
987.8142, 0.8518520
988.2963, 1.202339
988.7784, 1.186737
989.2606, 0.6336590
989.7427, 0.3358080
990.2248, 0.4462890
990.7069, 0.5062560
991.1890, 0.2476580
991.6711, 6.5919999E-03
992.1533, 0.1990890
992.6354, 0.7514270
993.1175, 1.101532
993.5996, 1.069214
994.0817, 1.128944
994.5638, 1.518074
995.0460, 1.770493
995.5281, 1.595001
996.0102, 1.248695
996.4923, 0.9761280
996.9744, 0.7946620
997.4565, 0.7060090
997.9387, 0.8069530
998.4208, 0.8587950
998.9029, 0.6847990
999.3850, 0.5634380
999.8671, 0.7214050
1000.349, 1.010727
1000.831, 1.241486
1001.313, 1.394905
1001.796, 1.410789
1002.278, 1.124832
1002.760, 0.8879090
1003.242, 0.9321140
1003.724, 1.078033
1004.206, 1.188072
1004.688, 1.252930
1005.170, 1.331383
1005.653, 1.446465
1006.135, 1.384262
1006.617, 0.8206100
1007.099, 0.2522200
1007.581, 0.1635510
1008.063, 0.3518600
1008.545, 0.6306300
1009.027, 0.9074550
1009.509, 1.034172
1009.992, 0.9623410
1010.474, 0.7795870
1010.956, 0.4758760
1011.438, 0.1883470
1011.920, 0.1813200
1012.402, 0.3365100
1012.884, 0.4040220
1013.366, 0.3753590
1013.849, 0.3725130
1014.331, 0.4512330
1014.813, 0.6002730
1015.295, 0.8523030
1015.777, 1.091881
1016.259, 1.014435
1016.741, 0.7048420
1017.223, 0.6200100
1017.705, 0.8273930
1018.188, 1.060936
1018.670, 1.149124
1019.152, 1.108459
1019.634, 0.8850330
1020.116, 0.5794530
1020.598, 0.8286290
1021.080, 1.605507
1021.562, 1.771873
1022.044, 1.068459
1022.527, 0.6034470
1023.009, 1.054955
1023.491, 1.862640
1023.973, 2.129639
1024.455, 1.885040
1024.937, 1.572060
1025.419, 1.167496
1025.901, 0.9127730
1026.384, 0.8805620
1026.866, 0.8509750
1027.348, 0.6499630
1027.830, 0.4519120
1028.312, 0.6122360
1028.794, 1.154526
1029.276, 1.404396
1029.758, 1.273468
1030.240, 1.170341
1030.723, 1.202942
1031.205, 1.193764
1031.687, 0.9796220
1032.169, 0.6959080
1032.651, 0.6112060
1033.133, 0.7327730
1033.615, 0.9977570
1034.097, 1.573769
1034.579, 1.926949
1035.062, 1.823914
1035.544, 1.663208
1036.026, 1.756844
1036.508, 1.941971
1036.990, 1.833542
1037.472, 1.326180
1037.954, 1.124313
1038.436, 1.417603
1038.919, 1.718918
1039.401, 1.999321
1039.883, 2.181320
1040.365, 2.214432
1040.847, 2.111923
1041.329, 1.860718
1041.811, 1.391953
1042.293, 1.142853
1042.776, 1.233696
1043.258, 1.386520
1043.740, 1.658272
1044.222, 1.879814
1044.704, 1.917168
1045.186, 1.839371
1045.668, 1.781540
1046.150, 1.757507
1046.632, 1.708908
1047.115, 1.674477
1047.597, 1.548927
1048.079, 1.107468
1048.561, 0.7630230
1049.043, 0.9004210
1049.525, 1.296059
1050.007, 1.517220
1050.489, 1.496696
1050.971, 1.513329
1051.454, 1.694618
1051.936, 1.816269
1052.418, 1.741837
1052.900, 1.654381
1053.382, 1.807724
1053.864, 1.995544
1054.346, 1.751564
1054.828, 0.9948270
1055.311, 0.4675520
1055.793, 0.4753190
1056.275, 0.5955890
1056.757, 0.7192920
1057.239, 0.8680420
1057.721, 1.118195
1058.203, 1.382172
1058.685, 1.508720
1059.167, 1.476234
1059.650, 1.396889
1060.132, 1.264450
1060.614, 1.149025
1061.096, 1.082733
1061.578, 1.038895
1062.060, 0.9436040
1062.542, 0.8803560
1063.024, 1.047203
1063.506, 1.445686
1063.989, 1.694374
1064.471, 1.552017
1064.953, 1.382011
1065.435, 1.271812
1065.917, 1.256248
1066.399, 1.456429
1066.881, 1.720146
1067.363, 1.849419
1067.846, 1.804527
1068.328, 1.567917
1068.810, 0.8998950
1069.292, 0.4480440
1069.774, 0.7588880
1070.256, 1.136642
1070.738, 1.077965
1071.220, 0.7437590
1071.703, 0.2669450
1072.185, 0.2354890
1072.667, 0.3530430
1073.149, 0.2671130
1073.631, 0.8730320
1074.113, 1.085617
1074.595, 1.104454
1075.077, 1.055550
1075.559, 0.9992220
1076.042, 1.051086
1076.524, 1.156517
1077.006, 1.023438
1077.488, 0.4495770
1077.970, 5.1392000E-02
1078.452, 0.3175050
1078.934, 0.3427510
1079.416, 6.7551002E-02
1079.898, 0.5884630
1080.380, 0.8367080
1080.863, 0.8335270
1081.345, 0.8034670
1081.827, 0.8102570
1082.309, 0.8344880
1082.791, 0.8048780
1083.273, 0.8630450
1083.755, 1.265793
1084.237, 1.669701
1084.720, 1.618240
1085.202, 1.256653
1085.684, 1.073242
1086.166, 1.215324
1086.648, 1.345940
1087.130, 1.357849
1087.612, 1.289017
1088.094, 1.104950
1088.577, 0.8676450
1089.059, 0.6200100
1089.541, 0.4431530
1090.023, 0.5576550
1090.505, 1.008362
1090.987, 1.189606
1091.469, 0.4394230
1091.951, 3.8093999E-02
1092.433, 0.5323790
1092.916, 1.323387
1093.398, 1.866592
1093.880, 2.075439
1094.362, 1.793198
1094.844, 1.049156
1095.326, 0.4190670
1095.808, 2.7306000E-02
1096.290, 0.1293260
1096.772, 6.1974000E-02
1097.255, 0.3505330
1097.737, 0.7343290
1098.219, 1.129601
1098.701, 1.532532
1099.183, 1.877487
1099.665, 1.806313
1100.147, 0.8865810
1100.629, 0.2675860
1101.112, 0.4659730
1101.594, 0.7792130
1102.076, 0.9261250
1102.558, 0.9569090
1103.040, 0.9014820
1103.522, 0.7944640
1104.004, 0.7275700
1104.486, 0.7003400
1104.969, 0.7609860
1105.451, 1.018280
1105.933, 1.228317
1106.415, 1.320511
1106.897, 1.326920
1107.379, 1.187309
1107.861, 1.001045
1108.343, 1.055244
1108.825, 1.460907
1109.307, 1.585930
1109.790, 1.149460
1110.272, 0.7482530
1110.754, 0.4711300
1111.236, 0.2958150
1111.718, 0.2426830
1112.200, 0.2610780
1112.682, 0.2784190
1113.164, 0.2957460
1113.647, 0.3233950
1114.129, 0.2806700
1114.611, 0.3468400
1115.093, 0.6515120
1115.575, 0.9115600
1116.057, 0.9665600
1116.539, 0.9565200
1117.021, 1.074211
1117.504, 1.285591
1117.986, 1.318741
1118.468, 1.101059
1118.950, 0.8387990
1119.432, 0.3622440
1119.914, 0.2185900
1120.396, 0.7878720
1120.878, 1.400841
1121.360, 1.467308
1121.843, 1.151390
1122.325, 0.9355930
1122.807, 0.8470760
1123.289, 0.6639560
1123.771, 0.2676850
1124.253, 0.2370990
1124.735, 0.8590470
1125.217, 1.359863
1125.699, 1.218971
1126.182, 0.7237780
1126.664, 0.3155140
1127.146, 3.2960000E-03
1127.628, 3.8474999E-02
1128.110, 0.4705810
1128.592, 0.8301010
1129.074, 1.075226
1129.556, 1.008118
1130.039, 0.4871600
1130.521, 0.1473620
1131.003, 0.5347440
1131.485, 0.6370930
1131.967, 7.3608004E-02
1132.449, 1.080620
1132.931, 1.390709
1133.413, 0.7995610
1133.896, 0.2619250
1134.378, 7.0183001E-02
1134.860, 0.1196820
1135.342, 0.3493040
1135.824, 0.6472090
1136.306, 0.8605270
1136.788, 0.9647520
1137.270, 0.7183230
1137.752, 0.2171630
1138.234, 2.1492001E-02
1138.717, 0.1985240
1139.199, 0.4328380
1139.681, 0.5644300
1140.163, 0.5881880
1140.645, 0.4556120
1141.127, 0.2546620
1141.609, 0.1197970
1142.091, 4.7072999E-02
1142.574, 4.5051999E-02
1143.056, 9.9524997E-02
1143.538, 0.2055890
1144.020, 0.3408280
1144.502, 0.3315510
1144.984, 4.9545001E-02
1145.466, 0.3725510
1145.948, 1.4880000E-03
1146.431, 0.5355530
1146.913, 0.4900890
1147.395, 0.1371690
1147.877, 5.5121999E-02
1148.359, 0.2891850
1148.841, 0.5275270
1149.323, 0.6498870
1149.805, 0.7204360
1150.287, 0.6463850
1150.770, 0.6331860
1151.252, 0.9587020
1151.734, 1.354164
1152.216, 1.648735
1152.698, 1.727341
1153.180, 1.248146
1153.662, 0.1486740
1154.144, 0.4407650
1154.626, 0.3744050
1155.109, 1.049911
1155.591, 0.9926450
1156.073, 0.7625270
1156.555, 0.4656450
1157.037, 0.2970810
1157.519, 0.6217800
1158.001, 1.327156
1158.483, 1.555779
1158.966, 0.8620990
1159.448, 0.4922490
1159.930, 0.7681350
1160.412, 1.039864
1160.894, 1.188591
1161.376, 1.212280
1161.858, 0.9969640
1162.340, 0.7138750
1162.822, 0.8320620
1163.305, 1.425667
1163.787, 1.636505
1164.269, 1.294182
1164.751, 1.078659
1165.233, 1.129143
1165.715, 1.154205
1166.197, 1.004959
1166.679, 0.8022990
1167.161, 0.6878360
1167.644, 0.6408920
1168.126, 0.5637740
1168.608, 0.4422000
1169.090, 0.5683750
1169.572, 0.9957580
1170.054, 1.007790
1170.536, 0.3943100
1171.018, 1.8143000E-02
1171.500, 0.5069730
1171.983, 1.319870
1172.465, 1.598480
1172.947, 1.492119
1173.429, 1.539726
1173.911, 1.644890
1174.393, 1.316414
1174.875, 0.6259460
1175.357, 0.2468640
1175.840, 0.4162290
1176.322, 0.7364960
1176.804, 0.8819200
1177.286, 1.003914
1177.768, 1.404892
1178.250, 1.835297
1178.732, 1.902969
1179.214, 1.703064
1179.697, 1.443001
1180.179, 1.202858
1180.661, 1.078629
1181.143, 1.113815
1181.625, 1.224174
1182.107, 1.519157
1182.589, 1.686874
1183.071, 1.258583
1183.553, 0.8332520
1184.036, 1.194839
1184.518, 1.906151
1185.000, 1.992943
1185.482, 1.367455
1185.964, 1.023720
1186.446, 1.422478
1186.928, 1.730789
1187.410, 1.837814
1187.892, 1.784660
1188.375, 1.366280
1188.857, 0.9616470
1189.339, 1.010849
1189.821, 1.394821
1190.303, 1.636185
1190.785, 1.718246
1191.267, 1.656174
1191.749, 1.365891
1192.232, 1.163345
1192.714, 1.127419
1193.196, 1.091743
1193.678, 0.9280090
1194.160, 0.8641590
1194.642, 1.240295
1195.124, 1.870995
1195.606, 1.950401
1196.089, 1.507423
1196.571, 1.404762
1197.053, 1.654724
1197.535, 1.637619
1198.017, 1.218666
1198.499, 0.9238280
1198.981, 1.087929
1199.463, 1.405487
1199.945, 1.420929
1200.427, 1.343849
1200.910, 1.698639
1201.392, 2.248894
1201.874, 2.515671
1202.356, 2.474533
1202.838, 2.163948
1203.320, 1.637627
1203.802, 1.224464
1204.284, 1.085228
1204.767, 1.056908
1205.249, 1.153938
1205.731, 1.134598
1206.213, 0.6045530
1206.695, 1.8692000E-02
1207.177, 0.2893070
1207.659, 0.1980060
1208.141, 0.2076110
1208.624, 0.9471130
1209.106, 1.470795
1209.588, 1.471634
1210.070, 1.503510
1210.552, 1.798859
1211.034, 2.011963
1211.516, 2.050079
1211.998, 1.808960
1212.480, 1.097336
1212.963, 0.1063770
1213.445, 0.2765200
1213.927, 9.4795004E-02
1214.409, 0.3216930
1214.891, 0.3557360
1215.373, 0.4455030
1215.855, 0.6521610
1216.337, 0.8546600
1216.819, 0.9947280
1217.302, 1.057060
1217.784, 1.027725
1218.266, 0.9008180
1218.748, 0.4917450
1219.230, 4.4144001E-02
1219.712, 0.3256380
1220.194, 1.400177
1220.676, 1.744240
1221.159, 1.148659
1221.641, 0.5133290
1222.123, 0.3176960
1222.605, 0.3282090
1223.087, 0.3389970
1223.569, 0.4017030
1224.051, 0.7612690
1224.533, 1.062744
1225.016, 0.6009290
1225.498, 0.1950680
1225.980, 0.3725130
1226.462, 0.1306150
1226.944, 0.5608900
1227.426, 0.6457980
1227.908, 0.6675420
1228.390, 0.5792240
1228.872, 0.6340180
1229.354, 1.170654
1229.837, 1.612915
1230.319, 1.312965
1230.801, 0.7103810
1231.283, 0.6254270
1231.765, 1.038757
1232.247, 1.217056
1232.729, 1.122742
1233.211, 0.8601230
1233.694, 0.3191380
1234.176, 8.8623002E-02
1234.658, 0.4283370
1235.140, 0.7015690
1235.622, 0.3828740
1236.104, 4.7210999E-02
1236.586, 0.3435290
1237.068, 1.255196
1237.551, 1.332008
1238.033, 0.7925490
1238.515, 0.6098250
1238.997, 0.8189540
1239.479, 1.100006
1239.961, 1.324303
1240.443, 1.349541
1240.925, 1.050545
1241.407, 0.6868440
1241.890, 0.4304960
1242.372, 0.3110810
1242.854, 0.4958880
1243.336, 0.7200930
1243.818, 0.5084530
1244.300, 0.1313550
1244.782, 0.3087310
1245.264, 1.099792
1245.746, 1.616257
1246.229, 1.451576
1246.711, 1.249084
1247.193, 1.149857
1247.675, 0.9727630
1248.157, 0.4634480
1248.639, 0.1197970
1249.121, 0.4277420
1249.603, 0.9327010
1250.085, 0.8679810
1250.568, 0.2682340
1251.050, 0.5587690
1251.532, 1.894234
1252.014, 2.223701
1252.496, 1.335823
1252.978, 0.6890180
1253.460, 0.6840520
1253.942, 0.8369830
1254.425, 0.8277660
1254.907, 0.7696910
1255.389, 0.7686080
1255.871, 0.7834010
1256.353, 0.8544390
1256.835, 0.8690110
1257.317, 0.5938870
1257.799, 0.2152940
1258.281, 0.2637480
1258.764, 0.7660980
1259.246, 1.170540
1259.728, 1.235802
1260.210, 1.172775
1260.692, 1.018921
1261.174, 0.7994770
1261.656, 0.2546840
1262.138, 0.1402440
1262.620, 0.1263580
1263.103, 0.7005080
1263.585, 1.020187
1264.067, 1.103714
1264.549, 1.132187
1265.031, 1.084732
1265.513, 1.003044
1265.995, 0.8553310
1266.477, 0.7914890
1266.960, 0.8614120
1267.442, 0.8514180
1267.924, 0.6195980
1268.406, 0.3567050
1268.888, 0.2911680
1269.370, 0.3425750
1269.852, 0.3460390
1270.334, 0.3084640
1270.817, 0.1719740
1271.299, 2.9709000E-02
1271.781, 0.2263640
1272.263, 0.6875530
1272.745, 0.8748250
1273.227, 0.5821840
1273.709, 0.3288120
1274.191, 0.7376250
1274.673, 1.016716
1275.156, 0.5905690
1275.638, 0.1347960
1276.120, 0.1790700
1276.602, 0.3746870
1277.084, 0.2017590
1277.566, 0.1578290
1278.048, 2.2560000E-02
1278.530, 0.6970210
1279.012, 1.082787
1279.495, 1.045013
1279.977, 0.9700090
1280.459, 0.8824310
1280.941, 0.8619840
1281.423, 0.8068080
1281.905, 0.9019240
1282.387, 1.034103
1282.869, 1.116486
1283.352, 1.070236
1283.834, 0.8923260
1284.316, 0.5267490
1284.798, 0.0000000E+00
##END=



