##NAMES=Medaite
##RRUFFID=R130098
##IDEAL CHEMISTRY=Mn^2+^_6_V^5+^Si_5_O_18_(OH)
##LOCALITY=Molinello Mine, Graveglia Valley, Ne, Genova Province, Liguria, Italy
##OWNER=RRUFF
##SOURCE=Donald Doell (Large Piece) and Rock Currier (Small Piece)
##DESCRIPTION=Red grains and prismatic crystals
##STATUS=The identification of this mineral has been confirmed by single-crystal X-ray diffraction.
##URL=rruff.info/R130098
177.1069, 0.0000000E+00
177.5890, 0.5079190
178.0711, 0.6363180
178.5532, 5.0236002E-02
179.0353, 0.2786060
179.5175, 0.1726800
179.9996, 0.5985260
180.4817, 1.774723
180.9638, 2.990101
181.4459, 4.258137
181.9280, 5.357815
182.4102, 5.847717
182.8923, 5.801346
183.3744, 5.917633
183.8565, 6.798428
184.3386, 8.193733
184.8207, 9.321564
185.3029, 10.05229
185.7850, 10.54163
186.2671, 11.02387
186.7492, 11.49372
187.2313, 12.00661
187.7134, 12.56059
188.1956, 13.18081
188.6777, 13.92840
189.1598, 14.81662
189.6419, 15.86622
190.1240, 17.16645
190.6061, 18.74790
191.0883, 20.39057
191.5704, 22.03056
192.0525, 23.66254
192.5346, 25.04768
193.0167, 26.08179
193.4988, 26.81232
193.9810, 27.17091
194.4631, 27.05497
194.9452, 26.99643
195.4273, 27.00280
195.9094, 27.07128
196.3915, 27.21142
196.8737, 27.42369
197.3558, 27.70314
197.8379, 28.07553
198.3200, 28.55640
198.8021, 29.05058
199.2842, 29.45893
199.7664, 29.78511
200.2485, 30.12585
200.7306, 30.52059
201.2127, 30.97334
201.6948, 31.51232
202.1769, 32.15821
202.6591, 32.80675
203.1412, 33.26147
203.6233, 33.45071
204.1054, 33.93662
204.5875, 34.96245
205.0696, 36.43978
205.5518, 37.52026
206.0339, 38.09635
206.5160, 38.53001
206.9981, 39.27670
207.4802, 40.45930
207.9623, 41.31457
208.4445, 41.48821
208.9266, 41.03243
209.4087, 41.28359
209.8908, 42.47807
210.3729, 43.93895
210.8550, 44.93604
211.3372, 45.36733
211.8193, 45.65865
212.3014, 45.84720
212.7835, 45.92734
213.2656, 46.28678
213.7477, 47.10938
214.2299, 47.95496
214.7120, 48.17883
215.1941, 47.44041
215.6762, 47.08093
216.1583, 47.72939
216.6404, 49.49595
217.1226, 49.93126
217.6047, 48.54228
218.0868, 46.41895
218.5689, 44.83171
219.0510, 43.89157
219.5331, 43.22318
220.0153, 42.81531
220.4974, 42.71648
220.9795, 42.33495
221.4616, 41.56160
221.9437, 40.62797
222.4258, 39.85054
222.9080, 39.48878
223.3901, 39.55054
223.8722, 39.93697
224.3543, 40.54483
224.8364, 41.15256
225.3185, 41.72029
225.8007, 42.25615
226.2828, 42.71712
226.7649, 42.85411
227.2470, 43.16454
227.7291, 43.94614
228.2112, 45.28882
228.6934, 46.11185
229.1755, 46.37717
229.6576, 46.33805
230.1397, 46.30321
230.6218, 46.44092
231.1039, 46.46481
231.5861, 46.20263
232.0682, 45.55037
232.5503, 45.39119
233.0324, 45.90527
233.5145, 46.75867
233.9966, 47.53543
234.4788, 48.08627
234.9609, 48.83328
235.4430, 49.88375
235.9251, 51.26657
236.4072, 52.77734
236.8893, 54.51079
237.3715, 56.30252
237.8536, 57.91114
238.3357, 59.22963
238.8178, 60.57490
239.2999, 62.00877
239.7820, 63.50006
240.2642, 65.20526
240.7463, 67.36196
241.2284, 69.52611
241.7105, 71.18126
242.1926, 72.32005
242.6747, 72.94752
243.1569, 72.96938
243.6390, 72.31497
244.1211, 71.65603
244.6032, 71.18168
245.0853, 70.53577
245.5674, 69.27520
246.0496, 67.15468
246.5317, 64.87495
247.0138, 62.60335
247.4959, 60.35695
247.9780, 57.80534
248.4601, 54.64676
248.9423, 51.46703
249.4244, 48.95715
249.9065, 47.46698
250.3886, 45.96240
250.8707, 44.21475
251.3528, 42.22761
251.8350, 40.21162
252.3171, 38.13182
252.7992, 36.08123
253.2813, 34.14227
253.7634, 32.29633
254.2455, 30.62717
254.7277, 29.14423
255.2098, 27.84126
255.6919, 26.78786
256.1740, 26.15554
256.6561, 25.55380
257.1382, 24.55494
257.6204, 22.87583
258.1025, 21.48390
258.5846, 20.67213
259.0667, 20.40010
259.5488, 19.84029
260.0309, 18.91335
260.5131, 17.82437
260.9952, 16.74928
261.4773, 15.67860
261.9594, 14.65118
262.4415, 13.75085
262.9236, 12.93567
263.4058, 11.76569
263.8879, 10.04165
264.3700, 8.289177
264.8521, 6.916618
265.3342, 6.046005
265.8163, 5.183563
266.2985, 4.299240
266.7806, 3.375946
267.2627, 2.267906
267.7448, 0.9133070
268.2269, 0.4894870
268.7090, 1.831589
269.1912, 3.159164
269.6733, 4.275505
270.1554, 5.150101
270.6375, 5.803360
271.1196, 6.275002
271.6017, 6.541199
272.0839, 6.696602
272.5660, 6.784332
273.0481, 6.789963
273.5302, 6.818886
274.0123, 6.886261
274.4944, 6.975578
274.9766, 7.074936
275.4587, 7.225334
275.9408, 7.226379
276.4229, 6.905640
276.9050, 6.228996
277.3871, 5.635986
277.8693, 5.197723
278.3514, 4.810883
278.8335, 4.215546
279.3156, 3.364479
279.7977, 2.527115
280.2798, 1.844101
280.7620, 1.325974
281.2441, 0.8668670
281.7262, 0.4772720
282.2083, 0.1220700
282.6904, 0.3074650
283.1725, 0.8252720
283.6547, 1.209595
284.1368, 1.281403
284.6189, 1.069107
285.1010, 0.9796450
285.5831, 1.047058
286.0652, 1.168503
286.5474, 1.090775
287.0295, 0.8239290
287.5116, 0.8324890
287.9937, 1.446609
288.4758, 2.567062
288.9579, 3.518677
289.4401, 4.284470
289.9222, 5.043076
290.4043, 5.940018
290.8864, 6.988602
291.3685, 8.317261
291.8506, 10.19040
292.3328, 12.35236
292.8149, 13.84579
293.2970, 14.62843
293.7791, 15.38057
294.2612, 16.82431
294.7433, 18.83527
295.2255, 20.91679
295.7076, 22.96648
296.1897, 24.93640
296.6718, 26.62440
297.1539, 28.02853
297.6360, 29.39024
298.1182, 30.88457
298.6003, 32.47987
299.0824, 34.17426
299.5645, 36.10777
300.0466, 37.99080
300.5287, 39.41721
301.0109, 40.40939
301.4930, 41.17880
301.9751, 41.70940
302.4572, 42.14049
302.9393, 42.72421
303.4214, 43.63376
303.9036, 44.51675
304.3857, 45.06311
304.8678, 45.28189
305.3499, 45.21536
305.8320, 44.76122
306.3141, 44.08134
306.7963, 43.31488
307.2784, 42.40324
307.7605, 41.63673
308.2426, 41.39116
308.7247, 41.48593
309.2068, 41.48927
309.6890, 40.86688
310.1711, 40.23151
310.6532, 40.23051
311.1353, 41.05856
311.6174, 41.83253
312.0995, 41.75432
312.5817, 41.26881
313.0638, 41.09926
313.5459, 41.61388
314.0280, 42.48351
314.5101, 43.65305
314.9922, 45.14160
315.4744, 46.43800
315.9565, 47.15115
316.4386, 47.58527
316.9207, 48.07466
317.4028, 48.51756
317.8849, 49.24207
318.3671, 50.46852
318.8492, 52.19121
319.3313, 53.96997
319.8134, 55.62880
320.2955, 57.31064
320.7776, 59.10541
321.2598, 61.35887
321.7419, 63.39809
322.2240, 65.04236
322.7061, 66.32642
323.1882, 67.44528
323.6703, 68.63881
324.1525, 69.53749
324.6346, 69.90202
325.1167, 69.08485
325.5988, 68.55896
326.0809, 68.58247
326.5630, 68.97031
327.0452, 69.22810
327.5273, 69.47923
328.0094, 69.49484
328.4915, 69.16805
328.9736, 68.30049
329.4557, 67.57516
329.9379, 67.15254
330.4200, 66.83421
330.9021, 66.28824
331.3842, 65.30786
331.8663, 64.36136
332.3484, 63.53421
332.8306, 62.80675
333.3127, 62.33226
333.7948, 62.23209
334.2769, 62.30859
334.7590, 62.26558
335.2411, 61.79132
335.7233, 61.91339
336.2054, 63.01955
336.6875, 65.05687
337.1696, 66.64442
337.6517, 67.51175
338.1339, 68.43887
338.6160, 70.13615
339.0981, 72.80006
339.5802, 75.26978
340.0623, 77.24745
340.5444, 78.97404
341.0266, 81.19467
341.5087, 84.05362
341.9908, 86.83861
342.4729, 89.08156
342.9550, 90.76193
343.4371, 92.50700
343.9193, 94.40387
344.4014, 96.27036
344.8835, 97.71530
345.3656, 98.74100
345.8477, 99.61934
346.3298, 100.6630
346.8120, 101.7229
347.2941, 102.0180
347.7762, 101.4729
348.2583, 100.5209
348.7404, 99.52054
349.2225, 98.51172
349.7047, 97.65302
350.1868, 96.98691
350.6689, 96.51906
351.1510, 96.29698
351.6331, 96.31728
352.1152, 96.43156
352.5974, 96.63000
353.0795, 96.81955
353.5616, 96.81723
354.0437, 96.49997
354.5258, 96.06369
355.0079, 95.76382
355.4901, 95.54306
355.9722, 95.14301
356.4543, 94.27930
356.9364, 93.21867
357.4185, 92.16838
357.9006, 91.07480
358.3828, 90.25719
358.8649, 90.20868
359.3470, 90.57048
359.8291, 90.61534
360.3112, 89.79630
360.7933, 88.73642
361.2755, 87.70769
361.7576, 86.70309
362.2397, 85.97118
362.7218, 85.76837
363.2039, 85.82712
363.6860, 85.84932
364.1682, 85.45181
364.6503, 85.30258
365.1324, 85.65904
365.6145, 86.50998
366.0966, 87.49545
366.5787, 88.67459
367.0609, 89.89713
367.5430, 91.06714
368.0251, 91.99507
368.5072, 93.09677
368.9893, 94.36215
369.4714, 95.80890
369.9536, 97.48007
370.4357, 99.49451
370.9178, 101.6209
371.3999, 103.7982
371.8820, 106.2130
372.3641, 108.2250
372.8463, 109.6917
373.3284, 110.8280
373.8105, 111.9546
374.2926, 113.0401
374.7747, 114.1972
375.2568, 115.5370
375.7390, 117.0672
376.2211, 118.2679
376.7032, 119.1377
377.1853, 119.6953
377.6674, 119.9136
378.1495, 119.7566
378.6317, 119.6015
379.1138, 119.6243
379.5959, 119.6348
380.0780, 118.9626
380.5601, 117.5706
381.0422, 115.9516
381.5244, 114.5576
382.0065, 113.2708
382.4886, 111.4537
382.9707, 108.9471
383.4528, 106.1393
383.9349, 103.3937
384.4171, 100.7384
384.8992, 98.33566
385.3813, 96.42722
385.8634, 94.73465
386.3455, 92.76035
386.8276, 90.49538
387.3098, 87.99405
387.7919, 85.00493
388.2740, 81.81137
388.7561, 78.93294
389.2382, 76.41302
389.7203, 74.35323
390.2025, 73.06010
390.6846, 72.41301
391.1667, 71.81323
391.6488, 70.85962
392.1309, 69.85562
392.6130, 69.05486
393.0952, 68.55920
393.5773, 68.18590
394.0594, 68.07401
394.5415, 68.02238
395.0236, 67.66524
395.5057, 66.17690
395.9879, 65.00093
396.4700, 64.94992
396.9521, 66.32568
397.4342, 67.27716
397.9163, 67.31993
398.3984, 66.91806
398.8806, 66.46640
399.3627, 65.76260
399.8448, 65.21883
400.3269, 64.92545
400.8090, 64.87350
401.2911, 64.96791
401.7733, 65.56841
402.2554, 65.85054
402.7375, 65.32414
403.2196, 63.48895
403.7017, 62.14218
404.1838, 61.46994
404.6660, 61.11301
405.1481, 60.47102
405.6302, 59.52046
406.1123, 58.42235
406.5944, 57.17291
407.0765, 55.76662
407.5587, 54.20003
408.0408, 52.41522
408.5229, 50.80568
409.0050, 50.01392
409.4871, 49.93535
409.9692, 49.15639
410.4514, 47.21942
410.9335, 44.67859
411.4156, 42.66505
411.8977, 41.14725
412.3798, 39.66142
412.8619, 37.81488
413.3441, 35.82028
413.8262, 34.09662
414.3083, 32.72803
414.7904, 31.47961
415.2725, 30.10460
415.7546, 28.66920
416.2368, 27.26431
416.7189, 25.98228
417.2010, 24.76062
417.6831, 23.48822
418.1652, 22.18854
418.6473, 21.01913
419.1295, 20.27217
419.6116, 19.60338
420.0937, 18.70041
420.5758, 17.15564
421.0579, 15.82965
421.5400, 15.09592
422.0222, 14.77609
422.5043, 14.39740
422.9864, 13.81311
423.4685, 13.20099
423.9506, 12.57439
424.4327, 11.86006
424.9149, 11.41992
425.3970, 11.41139
425.8791, 11.59984
426.3612, 11.75974
426.8433, 11.92384
427.3254, 12.00447
427.8076, 11.97899
428.2897, 11.85118
428.7718, 11.67281
429.2539, 11.42798
429.7360, 11.17226
430.2181, 10.95422
430.7003, 10.78442
431.1824, 10.54169
431.6645, 10.16528
432.1466, 9.810455
432.6287, 9.730621
433.1108, 9.930939
433.5930, 10.38570
434.0751, 11.29938
434.5572, 12.43604
435.0393, 12.95667
435.5214, 12.85486
436.0035, 12.51607
436.4857, 12.01849
436.9678, 11.55699
437.4499, 11.65707
437.9320, 12.63678
438.4141, 13.80634
438.8962, 14.42007
439.3784, 14.60043
439.8605, 14.70818
440.3426, 14.99309
440.8247, 15.25011
441.3068, 15.25587
441.7889, 14.97255
442.2711, 14.71603
442.7532, 14.83366
443.2353, 14.98286
443.7174, 14.80760
444.1995, 13.73497
444.6816, 12.82241
445.1638, 12.60301
445.6459, 12.87063
446.1280, 12.64687
446.6101, 11.49030
447.0922, 10.06191
447.5743, 8.565094
448.0565, 6.817940
448.5386, 5.531860
449.0207, 5.002090
449.5028, 4.757904
449.9849, 4.203362
450.4670, 3.195251
450.9492, 2.174843
451.4313, 1.206841
451.9134, 0.3043210
452.3955, 0.3640900
452.8776, 0.7198870
453.3597, 1.039337
453.8419, 1.513519
454.3240, 2.131393
454.8061, 2.809258
455.2882, 3.594398
455.7703, 4.271950
456.2524, 4.369431
456.7346, 3.979706
457.2167, 3.671646
457.6988, 3.815063
458.1809, 4.141609
458.6630, 4.123482
459.1451, 3.783653
459.6273, 3.529373
460.1094, 3.871269
460.5915, 4.410614
461.0736, 4.581444
461.5557, 4.088058
462.0378, 3.600586
462.5200, 3.705154
463.0021, 4.117615
463.4842, 4.275024
463.9663, 3.576408
464.4484, 2.904160
464.9305, 2.839249
465.4127, 3.462189
465.8948, 3.649704
466.3769, 2.623528
466.8590, 1.404266
467.3411, 0.7320710
467.8232, 1.241600
468.3054, 1.519440
468.7875, 1.505936
469.2696, 1.233467
469.7517, 0.7430880
470.2338, 9.7221002E-02
470.7159, 0.9080730
471.1981, 1.544510
471.6802, 2.001587
472.1623, 2.453041
472.6444, 2.839188
473.1265, 3.357941
473.6086, 4.347168
474.0908, 5.799164
474.5729, 6.945763
475.0550, 7.586723
475.5371, 7.937737
476.0192, 8.338234
476.5013, 8.798157
476.9835, 9.378334
477.4656, 10.21104
477.9477, 11.14802
478.4298, 11.94556
478.9119, 12.59241
479.3940, 13.18961
479.8762, 13.76228
480.3583, 14.35057
480.8404, 15.01157
481.3225, 15.81637
481.8046, 16.62883
482.2867, 17.36583
482.7689, 18.05784
483.2510, 18.78084
483.7331, 19.66352
484.2152, 20.49947
484.6973, 21.15007
485.1794, 21.54208
485.6616, 22.09892
486.1437, 23.07323
486.6258, 24.09431
487.1079, 24.88556
487.5900, 25.38604
488.0721, 25.76844
488.5543, 26.09376
489.0364, 26.29577
489.5185, 26.15466
490.0006, 25.61131
490.4827, 24.91164
490.9648, 24.09920
491.4470, 23.18305
491.9291, 22.51969
492.4112, 22.16370
492.8933, 21.82047
493.3754, 21.14287
493.8575, 20.20490
494.3397, 19.34467
494.8218, 18.66515
495.3039, 18.06303
495.7860, 17.44128
496.2681, 16.79852
496.7502, 16.13451
497.2324, 15.27087
497.7145, 14.48761
498.1966, 14.11417
498.6787, 14.16192
499.1608, 14.21750
499.6429, 13.99552
500.1251, 13.71419
500.6072, 13.55920
501.0893, 13.73174
501.5714, 13.81410
502.0535, 13.56571
502.5356, 13.16547
503.0178, 13.02201
503.4999, 13.21916
503.9820, 13.62716
504.4641, 14.27149
504.9462, 15.15940
505.4283, 15.94487
505.9105, 16.59251
506.3926, 17.19146
506.8747, 17.80701
507.3568, 18.44290
507.8389, 19.07433
508.3210, 19.68322
508.8032, 20.31063
509.2853, 21.06457
509.7674, 21.92664
510.2495, 22.67110
510.7316, 23.10297
511.2137, 23.40559
511.6959, 24.13843
512.1780, 25.22947
512.6601, 25.97598
513.1422, 25.60544
513.6243, 24.69189
514.1064, 24.04568
514.5886, 23.94568
515.0707, 23.71381
515.5528, 22.72166
516.0349, 21.34399
516.5170, 20.14697
516.9991, 19.43309
517.4813, 18.95205
517.9634, 18.63376
518.4455, 18.35854
518.9276, 17.80552
519.4097, 16.87881
519.8918, 15.83267
520.3740, 14.71835
520.8561, 13.46031
521.3382, 12.43324
521.8203, 11.75378
522.3024, 11.20958
522.7845, 10.47076
523.2667, 9.420738
523.7488, 8.654938
524.2309, 8.466911
524.7130, 8.616249
525.1951, 8.394890
525.6772, 7.730820
526.1594, 7.016525
526.6415, 6.479347
527.1236, 6.083267
527.6057, 5.758347
528.0878, 5.533989
528.5699, 5.321983
529.0521, 4.882820
529.5342, 4.443268
530.0163, 4.353951
530.4984, 4.907730
530.9805, 5.418892
531.4626, 5.397614
531.9448, 5.102661
532.4269, 5.016747
532.9090, 5.509956
533.3911, 5.952019
533.8732, 6.062073
534.3553, 5.822601
534.8375, 5.825592
535.3196, 6.248428
535.8017, 6.737144
536.2838, 7.107658
536.7659, 7.347755
537.2480, 7.474106
537.7302, 7.398048
538.2123, 7.327560
538.6944, 7.633873
539.1765, 8.350281
539.6586, 8.983864
540.1407, 9.372093
540.6229, 9.617790
541.1050, 9.906578
541.5871, 10.24565
542.0692, 10.69480
542.5513, 11.44147
543.0334, 12.27156
543.5156, 12.90054
543.9977, 13.31653
544.4798, 13.45399
544.9619, 12.93383
545.4440, 12.24748
545.9261, 11.95348
546.4083, 12.54285
546.8904, 13.04791
547.3725, 13.09808
547.8546, 12.83533
548.3367, 12.56437
548.8188, 12.43069
549.3010, 12.17889
549.7831, 11.71999
550.2652, 11.05645
550.7473, 10.41845
551.2294, 9.849037
551.7115, 9.230713
552.1937, 8.413574
552.6758, 7.347397
553.1579, 6.598610
553.6400, 6.237030
554.1221, 6.070549
554.6042, 5.900108
555.0864, 5.716858
555.5685, 5.454941
556.0506, 5.071892
556.5327, 4.635674
557.0148, 4.210953
557.4969, 3.808434
557.9791, 3.468895
558.4612, 3.227493
558.9433, 3.052635
559.4254, 2.973976
559.9075, 2.994415
560.3896, 2.899979
560.8718, 2.404694
561.3539, 1.884995
561.8360, 1.624916
562.3181, 1.833916
562.8002, 2.055573
563.2823, 2.323257
563.7645, 2.564934
564.2466, 2.672272
564.7287, 2.642937
565.2108, 2.464973
565.6929, 2.020561
566.1750, 1.440887
566.6572, 1.404907
567.1393, 1.994865
567.6214, 2.535233
568.1035, 2.494736
568.5856, 2.058067
569.0677, 2.021385
569.5499, 2.438538
570.0320, 2.817284
570.5141, 2.618042
570.9962, 2.089149
571.4783, 1.623871
571.9604, 1.297646
572.4426, 1.090294
572.9247, 1.236755
573.4068, 1.455727
573.8889, 1.245041
574.3710, 0.3283390
574.8531, 1.583229
575.3353, 1.779999
575.8174, 0.9853590
576.2995, 0.4094090
576.7816, 4.6753000E-02
577.2637, 4.8386000E-02
577.7458, 0.2303770
578.2280, 1.008118
578.7101, 1.461929
579.1922, 1.513069
579.6743, 1.414719
580.1564, 1.424225
580.6385, 1.535103
581.1207, 1.645294
581.6028, 1.757446
582.0849, 1.813423
582.5670, 1.676018
583.0491, 1.399971
583.5313, 1.155739
584.0134, 0.9821010
584.4955, 0.9089050
584.9776, 1.007942
585.4597, 1.252304
585.9418, 1.491562
586.4240, 1.743172
586.9061, 1.905609
587.3882, 1.866966
587.8703, 1.512138
588.3524, 1.349327
588.8345, 1.830208
589.3167, 2.275375
589.7988, 2.085381
590.2809, 0.7669910
590.7630, 4.3037001E-02
591.2451, 9.0346999E-02
591.7272, 0.2838820
592.2094, 0.4512560
592.6915, 0.3978120
593.1736, 0.3190770
593.6557, 0.2782750
594.1378, 0.2587590
594.6199, 0.2206340
595.1021, 0.1643680
595.5842, 9.1881000E-02
596.0663, 2.1911999E-02
596.5484, 7.2692998E-02
597.0305, 0.2505040
597.5126, 0.5198440
597.9948, 0.7514500
598.4769, 0.7681270
598.9590, 0.7714540
599.4411, 0.9453890
599.9232, 1.470764
600.4053, 1.929008
600.8875, 2.233932
601.3696, 2.443680
601.8517, 2.632584
602.3338, 2.801048
602.8159, 2.945473
603.2980, 3.067490
603.7802, 3.165192
604.2623, 3.154869
604.7444, 2.992310
605.2265, 3.093559
605.7086, 3.889603
606.1907, 5.123360
606.6729, 5.847534
607.1550, 6.068581
607.6371, 6.258095
608.1192, 6.874847
608.6013, 7.647575
609.0834, 8.196960
609.5656, 8.426994
610.0477, 8.601738
610.5298, 8.800323
611.0119, 9.047516
611.4940, 9.379219
611.9761, 9.845009
612.4583, 10.34599
612.9404, 10.76504
613.4225, 11.22566
613.9046, 12.06689
614.3867, 13.48460
614.8688, 14.84306
615.3510, 15.96651
615.8331, 16.88087
616.3152, 17.72123
616.7973, 18.46104
617.2794, 19.34631
617.7615, 20.63486
618.2437, 22.17575
618.7258, 23.53791
619.2079, 24.69952
619.6900, 25.91941
620.1721, 27.31776
620.6542, 28.95045
621.1364, 30.93140
621.6185, 33.49703
622.1006, 35.98959
622.5827, 38.16660
623.0648, 40.10664
623.5469, 41.91882
624.0291, 43.20035
624.5112, 44.88709
624.9933, 47.33894
625.4754, 50.29021
625.9575, 52.72530
626.4396, 54.44654
626.9218, 56.26674
627.4039, 58.49323
627.8860, 61.08572
628.3681, 63.85842
628.8502, 66.81581
629.3323, 69.75845
629.8145, 72.29295
630.2966, 74.76172
630.7787, 78.02901
631.2608, 82.23267
631.7429, 86.43166
632.2250, 89.79124
632.7072, 92.73253
633.1893, 95.86744
633.6714, 99.42168
634.1535, 103.0993
634.6356, 107.0404
635.1177, 110.9452
635.5999, 114.3988
636.0820, 116.9766
636.5641, 119.7267
637.0462, 122.9468
637.5283, 126.4622
638.0104, 129.7787
638.4926, 132.9693
638.9747, 135.6262
639.4568, 137.4199
639.9389, 138.6015
640.4210, 139.9626
640.9031, 141.5150
641.3853, 143.0522
641.8674, 144.3225
642.3495, 145.5417
642.8316, 146.9731
643.3137, 148.6742
643.7958, 150.3411
644.2780, 151.5557
644.7601, 152.8425
645.2422, 154.6620
645.7243, 157.3522
646.2064, 160.2067
646.6885, 162.8859
647.1707, 165.8148
647.6528, 169.6086
648.1349, 174.6085
648.6170, 179.6692
649.0991, 184.6381
649.5812, 189.5184
650.0634, 194.4925
650.5455, 199.6017
651.0276, 204.7180
651.5097, 209.9026
651.9918, 215.0547
652.4739, 220.2628
652.9561, 225.3660
653.4382, 229.9021
653.9203, 233.7118
654.4024, 236.6840
654.8845, 238.7236
655.3666, 239.7812
655.8488, 240.1976
656.3309, 240.5340
656.8130, 239.8411
657.2951, 237.4935
657.7772, 232.8987
658.2593, 228.2503
658.7415, 223.6271
659.2236, 218.8220
659.7057, 213.3736
660.1878, 207.3279
660.6699, 201.8396
661.1520, 197.2468
661.6342, 193.2023
662.1163, 189.2837
662.5984, 185.5457
663.0805, 182.1274
663.5626, 179.0372
664.0447, 176.3380
664.5269, 174.1882
665.0090, 172.4839
665.4911, 170.8668
665.9732, 169.2561
666.4553, 167.6934
666.9374, 166.0970
667.4196, 164.4861
667.9017, 163.4384
668.3838, 163.4940
668.8659, 163.0950
669.3480, 161.4065
669.8301, 158.4454
670.3123, 155.0664
670.7944, 151.1973
671.2765, 147.2772
671.7586, 143.7233
672.2407, 140.3496
672.7228, 136.7977
673.2050, 132.9779
673.6871, 128.9798
674.1692, 124.7067
674.6513, 120.3014
675.1334, 115.9622
675.6155, 111.6693
676.0977, 107.4793
676.5798, 103.3441
677.0619, 99.43020
677.5440, 96.07810
678.0261, 93.64550
678.5082, 91.05679
678.9904, 87.97134
679.4725, 84.75472
679.9546, 82.33695
680.4367, 80.76079
680.9188, 79.30396
681.4009, 77.60917
681.8831, 75.90907
682.3652, 74.77800
682.8473, 74.11627
683.3294, 73.45125
683.8115, 72.58681
684.2936, 71.53710
684.7758, 70.13713
685.2579, 68.38290
685.7400, 66.93111
686.2221, 66.30873
686.7042, 65.74789
687.1863, 64.82891
687.6685, 63.46030
688.1506, 62.23795
688.6327, 61.24287
689.1148, 60.18086
689.5969, 58.66872
690.0790, 56.74221
690.5612, 55.19776
691.0433, 54.16824
691.5254, 53.25087
692.0075, 52.11342
692.4896, 50.75282
692.9717, 49.17213
693.4539, 47.34631
693.9360, 45.38794
694.4181, 43.26383
694.9002, 41.08887
695.3823, 39.03356
695.8644, 36.94246
696.3466, 35.26823
696.8287, 34.25979
697.3108, 33.65356
697.7929, 32.73561
698.2750, 31.36992
698.7571, 30.22571
699.2393, 29.59446
699.7214, 29.29166
700.2035, 28.66287
700.6856, 27.76702
701.1677, 27.14101
701.6498, 27.46785
702.1320, 28.00410
702.6141, 27.70538
703.0962, 26.67292
703.5783, 25.99692
704.0604, 26.42405
704.5425, 27.14804
705.0247, 27.71040
705.5068, 28.02904
705.9889, 28.48221
706.4710, 29.23822
706.9531, 29.91043
707.4352, 30.17698
707.9174, 29.98206
708.3995, 30.03968
708.8816, 30.40660
709.3637, 30.81232
709.8458, 30.98172
710.3279, 30.96949
710.8101, 30.94880
711.2922, 30.98395
711.7743, 30.85752
712.2564, 30.31829
712.7385, 29.56126
713.2206, 28.82390
713.7028, 28.39959
714.1849, 27.68565
714.6670, 26.41833
715.1491, 24.86688
715.6312, 23.34942
716.1133, 21.85828
716.5955, 20.45554
717.0776, 19.18176
717.5597, 17.97805
718.0418, 16.73980
718.5239, 15.46474
719.0060, 14.22026
719.4882, 13.02441
719.9703, 11.87936
720.4524, 10.77079
720.9345, 9.709747
721.4166, 8.705002
721.8987, 7.753304
722.3809, 6.871872
722.8630, 6.089493
723.3451, 5.401573
723.8272, 4.760056
724.3093, 4.150406
724.7914, 3.613388
725.2736, 3.217995
725.7557, 2.938995
726.2378, 2.377121
726.7199, 1.484726
727.2020, 0.7048420
727.6841, 0.4926910
728.1663, 0.5633470
728.6484, 0.2034910
729.1305, 0.5908970
729.6126, 1.300964
730.0947, 1.439140
730.5768, 1.439507
731.0590, 1.705673
731.5411, 2.379845
732.0232, 2.831955
732.5053, 2.680908
732.9874, 2.494865
733.4695, 2.659927
733.9517, 3.375137
734.4338, 3.698700
734.9159, 3.516769
735.3980, 3.144608
735.8801, 3.027077
736.3622, 3.085976
736.8444, 2.977615
737.3265, 2.634331
737.8086, 2.103836
738.2907, 1.366524
738.7728, 0.5311890
739.2549, 0.2676090
739.7371, 0.9847180
740.2192, 1.606987
740.7013, 2.056892
741.1834, 2.473236
741.6655, 2.973068
742.1476, 3.409775
742.6298, 4.223274
743.1119, 5.518806
743.5940, 7.061249
744.0761, 8.607422
744.5582, 10.13673
745.0403, 11.30035
745.5225, 11.82256
746.0046, 12.14823
746.4867, 12.85640
746.9688, 13.79098
747.4509, 14.60814
747.9330, 15.10306
748.4152, 15.53188
748.8973, 15.93546
749.3794, 16.42773
749.8615, 17.15971
750.3436, 18.12778
750.8257, 19.38226
751.3079, 20.97655
751.7900, 22.84690
752.2721, 24.71532
752.7542, 26.59374
753.2363, 28.41939
753.7184, 30.04448
754.2006, 31.65476
754.6827, 33.50096
755.1648, 35.59540
755.6469, 37.88110
756.1290, 40.41043
756.6111, 43.08317
757.0933, 45.87277
757.5754, 48.73126
758.0575, 51.84848
758.5396, 55.13548
759.0217, 58.74434
759.5038, 62.80502
759.9860, 67.25767
760.4681, 71.95200
760.9502, 76.87785
761.4323, 81.88086
761.9144, 86.72635
762.3965, 91.62658
762.8787, 97.06564
763.3608, 102.9891
763.8429, 108.9631
764.3250, 114.4039
764.8071, 120.0006
765.2892, 126.2702
765.7714, 133.4779
766.2535, 140.2532
766.7356, 146.3083
767.2177, 152.2020
767.6998, 158.3022
768.1819, 164.7130
768.6641, 170.6089
769.1462, 175.9603
769.6283, 180.6071
770.1104, 184.1623
770.5925, 186.9654
771.0746, 189.7501
771.5568, 192.6027
772.0389, 194.9028
772.5210, 196.5103
773.0031, 197.2342
773.4852, 196.8716
773.9673, 195.1323
774.4495, 193.1059
774.9316, 191.2217
775.4137, 188.6145
775.8958, 184.3960
776.3779, 178.3986
776.8600, 172.8277
777.3422, 167.8038
777.8243, 162.8060
778.3064, 157.5680
778.7885, 151.9242
779.2706, 145.3702
779.7527, 137.7356
780.2349, 130.0922
780.7170, 123.1045
781.1991, 116.4683
781.6812, 109.9273
782.1633, 103.5319
782.6454, 97.20239
783.1276, 90.96504
783.6097, 84.75446
784.0918, 78.43277
784.5739, 71.99745
785.0560, 66.12671
785.5381, 61.02556
786.0203, 56.10493
786.5024, 50.50195
786.9845, 44.64371
787.4666, 39.23145
787.9487, 34.44652
788.4308, 30.13474
788.9130, 26.41975
789.3951, 22.90759
789.8772, 19.17863
790.3593, 14.94781
790.8414, 11.07826
791.3235, 7.563889
791.8057, 4.363602
792.2878, 1.603394
792.7699, 0.7214200
793.2520, 2.802017
793.7341, 4.666656
794.2162, 6.468811
794.6984, 8.456436
795.1805, 10.44435
795.6626, 12.15428
796.1447, 13.52588
796.6268, 14.58615
797.1089, 15.15556
797.5911, 15.52472
798.0732, 16.04420
798.5553, 16.91374
799.0374, 17.51151
799.5195, 17.81961
800.0016, 17.81596
800.4838, 17.25519
800.9659, 16.23346
801.4480, 15.43967
801.9301, 15.09010
802.4122, 14.65045
802.8943, 13.65889
803.3765, 12.29507
803.8586, 10.74515
804.3407, 9.045029
804.8228, 7.151611
805.3049, 5.094315
805.7870, 2.791931
806.2692, 0.1084590
806.7513, 3.039719
807.2334, 6.226563
807.7155, 9.335800
808.1976, 12.58723
808.6797, 16.28867
809.1619, 20.33994
809.6440, 24.45549
810.1261, 28.55951
810.6082, 32.79163
811.0903, 37.24907
811.5724, 41.83878
812.0546, 46.43314
812.5367, 50.90199
813.0188, 55.56212
813.5009, 60.44936
813.9830, 65.53075
814.4651, 70.70911
814.9473, 76.03802
815.4294, 81.50122
815.9115, 87.18631
816.3936, 92.77243
816.8757, 97.60199
817.3578, 102.1374
817.8400, 107.3132
818.3221, 113.4474
818.8042, 119.8877
819.2863, 126.5766
819.7684, 133.2625
820.2505, 139.6919
820.7327, 145.6287
821.2148, 151.6326
821.6969, 157.7009
822.1790, 163.8732
822.6611, 170.2630
823.1432, 176.8007
823.6254, 182.3482
824.1075, 186.7444
824.5896, 190.8121
825.0717, 195.2808
825.5538, 199.8123
826.0359, 203.9968
826.5181, 207.8069
827.0002, 211.1223
827.4823, 213.3741
827.9644, 215.6061
828.4465, 218.5553
828.9286, 222.3251
829.4108, 226.2315
829.8929, 230.2588
830.3750, 234.4464
830.8571, 238.7664
831.3392, 243.2748
831.8214, 248.0972
832.3035, 253.1926
832.7856, 258.8934
833.2677, 265.2101
833.7498, 272.2799
834.2319, 280.2313
834.7141, 289.1752
835.1962, 298.7286
835.6783, 308.8954
836.1604, 319.5946
836.6425, 330.5545
837.1246, 341.8159
837.6068, 354.0317
838.0889, 367.2031
838.5710, 381.3462
839.0531, 396.2222
839.5352, 412.2350
840.0173, 429.9901
840.4995, 449.6476
840.9816, 469.8365
841.4637, 490.1422
841.9458, 510.8858
842.4279, 531.9926
842.9100, 553.4933
843.3922, 577.3593
843.8743, 603.7444
844.3564, 631.5984
844.8385, 660.7224
845.3206, 690.8492
845.8027, 720.4883
846.2849, 750.0105
846.7670, 780.8924
847.2491, 815.2285
847.7312, 849.9968
848.2133, 883.2972
848.6954, 915.4119
849.1776, 948.4000
849.6597, 983.3784
850.1418, 1017.664
850.6239, 1050.012
851.1060, 1080.822
851.5881, 1111.281
852.0703, 1141.227
852.5524, 1169.267
853.0345, 1195.326
853.5166, 1218.217
853.9987, 1236.853
854.4808, 1251.634
854.9630, 1263.642
855.4451, 1273.721
855.9272, 1279.890
856.4093, 1281.380
856.8914, 1279.027
857.3735, 1274.819
857.8557, 1268.791
858.3378, 1260.054
858.8199, 1247.812
859.3020, 1233.812
859.7841, 1220.972
860.2662, 1208.374
860.7484, 1194.375
861.2305, 1178.102
861.7126, 1160.871
862.1947, 1142.497
862.6768, 1123.844
863.1589, 1106.395
863.6411, 1090.282
864.1232, 1074.523
864.6053, 1058.905
865.0874, 1043.789
865.5695, 1029.731
866.0516, 1016.465
866.5338, 1002.858
867.0159, 988.3712
867.4980, 974.6004
867.9801, 962.7858
868.4622, 952.0048
868.9443, 941.1866
869.4265, 929.7871
869.9086, 919.0042
870.3907, 908.4952
870.8728, 899.1937
871.3549, 891.8140
871.8370, 886.3568
872.3192, 883.2374
872.8013, 882.4305
873.2834, 883.2957
873.7655, 884.9132
874.2476, 888.1705
874.7297, 894.2812
875.2119, 903.4366
875.6940, 913.3174
876.1761, 922.4600
876.6582, 933.1673
877.1403, 946.9250
877.6224, 963.4132
878.1046, 978.2840
878.5867, 991.4469
879.0688, 1003.979
879.5509, 1015.958
880.0330, 1027.742
880.5151, 1040.477
880.9973, 1053.585
881.4794, 1064.799
881.9615, 1073.296
882.4436, 1079.790
882.9257, 1084.105
883.4078, 1086.569
883.8900, 1088.136
884.3721, 1088.901
884.8542, 1088.198
885.3363, 1085.911
885.8184, 1081.960
886.3005, 1075.789
886.7827, 1067.744
887.2648, 1058.998
887.7469, 1051.332
888.2290, 1041.005
888.7111, 1025.552
889.1932, 1006.666
889.6754, 986.9927
890.1575, 967.7424
890.6396, 945.1219
891.1217, 918.4611
891.6038, 889.7270
892.0859, 860.7617
892.5681, 831.4976
893.0502, 801.5054
893.5323, 770.9020
894.0144, 740.0781
894.4965, 708.9927
894.9786, 678.5758
895.4608, 649.2995
895.9429, 621.6207
896.4250, 594.3958
896.9071, 567.6005
897.3892, 541.7516
897.8713, 517.5887
898.3535, 494.8221
898.8356, 472.9390
899.3177, 452.0097
899.7998, 432.8151
900.2819, 415.9054
900.7640, 400.7133
901.2462, 386.9295
901.7283, 374.5323
902.2104, 362.3195
902.6925, 350.0208
903.1746, 338.4721
903.6567, 327.7803
904.1389, 318.0363
904.6210, 309.0872
905.1031, 301.0099
905.5852, 294.1985
906.0673, 289.5227
906.5494, 285.1876
907.0316, 279.2159
907.5137, 272.5278
907.9958, 266.6562
908.4779, 262.4725
908.9600, 258.6384
909.4421, 255.3573
909.9243, 252.0357
910.4064, 247.5285
910.8885, 241.9395
911.3706, 236.9391
911.8527, 232.8926
912.3348, 228.7028
912.8170, 222.9181
913.2991, 216.6176
913.7812, 211.0384
914.2633, 206.5210
914.7454, 202.1617
915.2275, 197.5688
915.7097, 193.3770
916.1918, 189.9314
916.6739, 187.2304
917.1560, 185.0044
917.6381, 183.2711
918.1202, 182.5561
918.6024, 183.7068
919.0845, 185.7385
919.5666, 187.4551
920.0487, 188.9989
920.5308, 191.4248
921.0129, 196.0614
921.4951, 200.4100
921.9772, 203.8809
922.4593, 206.6259
922.9414, 209.1619
923.4235, 211.4641
923.9056, 213.1888
924.3878, 214.3669
924.8699, 214.6158
925.3520, 213.8109
925.8341, 211.6979
926.3162, 207.8467
926.7983, 201.7613
927.2805, 194.4044
927.7626, 185.8299
928.2447, 176.1436
928.7268, 165.2128
929.2089, 153.0792
929.6910, 141.4453
930.1732, 130.5631
930.6553, 119.9157
931.1374, 108.8497
931.6195, 97.93784
932.1016, 87.60913
932.5837, 78.11281
933.0659, 68.88072
933.5480, 59.41080
934.0301, 50.75139
934.5122, 43.47717
934.9943, 37.41107
935.4764, 31.97542
935.9586, 27.08600
936.4407, 22.47997
936.9228, 17.81013
937.4049, 13.38711
937.8870, 9.626389
938.3691, 6.321655
938.8513, 3.113632
939.3334, 0.5359040
939.8155, 3.540573
940.2976, 5.625320
940.7797, 7.115387
941.2618, 8.288834
941.7440, 9.182083
942.2261, 10.39301
942.7082, 12.11688
943.1903, 13.74057
943.6724, 14.67467
944.1545, 15.18018
944.6367, 15.54399
945.1188, 15.84351
945.6009, 15.79744
946.0830, 15.20335
946.5651, 14.58501
947.0472, 14.25410
947.5294, 14.18504
948.0115, 14.15816
948.4936, 14.16396
948.9757, 14.04588
949.4578, 13.80879
949.9399, 13.31604
950.4221, 12.26216
950.9042, 10.82301
951.3863, 9.722595
951.8684, 9.352310
952.3505, 8.685928
952.8326, 7.496231
953.3148, 5.966278
953.7969, 4.400955
954.2790, 2.791306
954.7611, 1.161896
955.2432, 0.3797610
955.7253, 2.278839
956.2075, 4.904602
956.6896, 8.012482
957.1717, 11.42998
957.6538, 15.23764
958.1359, 18.98393
958.6180, 22.61003
959.1002, 26.34470
959.5823, 30.25241
960.0644, 34.41574
960.5465, 39.11467
961.0286, 44.33403
961.5107, 49.76111
961.9929, 55.71901
962.4750, 61.40308
962.9571, 66.34747
963.4392, 70.67050
963.9213, 75.07228
964.4034, 79.70970
964.8856, 83.70219
965.3677, 86.90540
965.8498, 89.22423
966.3319, 90.33049
966.8140, 90.49692
967.2961, 90.35910
967.7783, 90.36685
968.2604, 89.30946
968.7425, 86.02882
969.2246, 81.99628
969.7067, 78.24959
970.1888, 74.87123
970.6710, 71.58957
971.1531, 68.41028
971.6352, 65.57381
972.1173, 63.33490
972.5994, 61.55931
973.0815, 60.05150
973.5637, 58.83624
974.0458, 57.99640
974.5279, 57.63652
975.0100, 57.57915
975.4921, 57.67198
975.9742, 58.03465
976.4564, 59.15987
976.9385, 60.99590
977.4206, 62.57928
977.9027, 63.59872
978.3848, 64.54361
978.8669, 65.56503
979.3491, 66.91295
979.8312, 68.93983
980.3133, 71.93035
980.7954, 75.11868
981.2775, 78.54330
981.7596, 82.10081
982.2418, 85.93508
982.7239, 89.90030
983.2060, 93.00365
983.6881, 95.35500
984.1702, 97.97834
984.6523, 101.7758
985.1345, 105.7633
985.6166, 109.6202
986.0987, 113.1898
986.5808, 116.0386
987.0629, 117.8486
987.5450, 119.9549
988.0272, 122.6595
988.5093, 125.6711
988.9914, 128.6418
989.4735, 131.5430
989.9556, 134.3040
990.4377, 136.9263
990.9199, 139.3479
991.4020, 141.3328
991.8841, 143.2973
992.3662, 145.6668
992.8483, 148.4479
993.3304, 150.3067
993.8126, 151.2053
994.2947, 151.8443
994.7768, 152.9855
995.2589, 153.8696
995.7410, 153.4240
996.2231, 151.9598
996.7053, 150.3676
997.1874, 149.1233
997.6695, 147.2489
998.1516, 144.5381
998.6337, 141.3652
999.1158, 138.1419
999.5980, 134.8817
1000.080, 131.8648
1000.562, 129.1256
1001.044, 126.0376
1001.526, 121.6547
1002.009, 117.0965
1002.491, 113.4221
1002.973, 110.7996
1003.455, 107.9092
1003.937, 104.7082
1004.419, 101.5276
1004.901, 98.41546
1005.383, 95.43813
1005.865, 92.69811
1006.348, 90.20370
1006.830, 87.93288
1007.312, 85.93014
1007.794, 84.13747
1008.276, 82.73824
1008.758, 81.46679
1009.240, 79.98875
1009.722, 78.24772
1010.205, 76.41698
1010.687, 74.52951
1011.169, 72.51953
1011.651, 70.22251
1012.133, 67.80357
1012.615, 65.45323
1013.097, 63.17533
1013.579, 60.69537
1014.061, 57.83136
1014.544, 54.96390
1015.026, 52.16098
1015.508, 49.40176
1015.990, 46.58711
1016.472, 43.74109
1016.954, 40.95874
1017.436, 38.20203
1017.918, 35.60470
1018.401, 33.44539
1018.883, 31.35847
1019.365, 28.86996
1019.847, 25.78262
1020.329, 23.33273
1020.811, 21.64130
1021.293, 19.93444
1021.775, 17.27597
1022.257, 14.46892
1022.740, 12.94384
1023.222, 12.40356
1023.704, 11.64959
1024.186, 10.08054
1024.668, 8.451126
1025.150, 6.865410
1025.632, 5.364677
1026.114, 3.925034
1026.596, 2.605446
1027.079, 1.763245
1027.561, 1.496460
1028.043, 1.376266
1028.525, 1.114670
1029.007, 0.8016130
1029.489, 0.5279240
1029.971, 0.3068700
1030.453, 1.2070000E-02
1030.936, 0.3777390
1031.418, 0.7855000
1031.900, 1.245644
1032.382, 1.639389
1032.864, 1.692413
1033.346, 1.488327
1033.828, 1.210831
1034.310, 0.8098530
1034.792, 0.5263520
1035.275, 0.5546650
1035.757, 0.6015700
1036.239, 0.4248960
1036.721, 2.4101000E-02
1037.203, 0.6120220
1037.685, 1.475670
1038.167, 2.174599
1038.649, 2.189758
1039.132, 2.119492
1039.614, 2.447876
1040.096, 3.135963
1040.578, 3.857567
1041.060, 4.636749
1041.542, 5.320915
1042.024, 5.856415
1042.506, 6.355637
1042.989, 7.055504
1043.471, 7.836777
1043.953, 8.369850
1044.435, 8.501625
1044.917, 8.990257
1045.399, 10.71456
1045.881, 12.21352
1046.363, 12.60069
1046.845, 12.06561
1047.328, 12.14129
1047.810, 12.80968
1048.292, 13.68160
1048.774, 14.71066
1049.256, 15.71262
1049.738, 16.64079
1050.220, 17.42185
1050.702, 17.91084
1051.184, 17.97918
1051.667, 18.11651
1052.149, 18.37391
1052.631, 18.47635
1053.113, 18.06078
1053.595, 17.42015
1054.077, 17.10979
1054.559, 17.10136
1055.041, 17.10770
1055.523, 17.22338
1056.006, 17.08588
1056.488, 16.50832
1056.970, 15.71698
1057.452, 15.20582
1057.934, 14.91141
1058.416, 14.34740
1058.898, 13.40494
1059.380, 12.57851
1059.863, 12.25637
1060.345, 12.17756
1060.827, 12.18386
1061.309, 12.25835
1061.791, 12.30994
1062.273, 12.36763
1062.755, 12.24899
1063.237, 11.80392
1063.719, 11.24602
1064.202, 10.91220
1064.684, 10.71004
1065.166, 10.48140
1065.648, 10.20443
1066.130, 9.775291
1066.612, 9.030762
1067.094, 8.324196
1067.576, 8.029442
1068.059, 8.074326
1068.541, 8.085388
1069.023, 8.048660
1069.505, 7.930992
1069.987, 7.738823
1070.469, 7.444115
1070.951, 6.977623
1071.433, 6.407707
1071.916, 5.923355
1072.398, 5.555260
1072.880, 5.016418
1073.362, 4.234825
1073.844, 3.575340
1074.326, 3.521332
1074.808, 3.719337
1075.290, 3.824348
1075.772, 3.801750
1076.255, 3.735664
1076.737, 3.680313
1077.219, 3.461090
1077.701, 2.947502
1078.183, 2.364578
1078.665, 2.166618
1079.147, 2.238419
1079.629, 2.322243
1080.111, 2.345291
1080.594, 2.379860
1081.076, 2.215729
1081.558, 2.321579
1082.040, 3.179955
1082.522, 4.651283
1083.004, 5.070786
1083.486, 4.551971
1083.968, 4.174820
1084.450, 4.756653
1084.933, 5.405968
1085.415, 5.518997
1085.897, 5.361313
1086.379, 5.363708
1086.861, 5.596832
1087.343, 5.699326
1087.825, 5.636192
1088.307, 5.583427
1088.790, 5.777451
1089.272, 6.006111
1089.754, 6.002708
1090.236, 5.790001
1090.718, 5.546402
1091.200, 5.215515
1091.682, 5.093178
1092.164, 5.341660
1092.646, 5.631783
1093.129, 5.334763
1093.611, 4.684624
1094.093, 4.323410
1094.575, 4.383484
1095.057, 4.311607
1095.539, 3.644630
1096.021, 3.023148
1096.503, 2.767960
1096.986, 2.752167
1097.468, 2.397812
1097.950, 1.768730
1098.432, 1.434990
1098.914, 1.675903
1099.396, 1.980026
1099.878, 2.123558
1100.360, 2.043983
1100.843, 1.639999
1101.325, 0.8796010
1101.807, 0.1384960
1102.289, 0.6099550
1102.771, 1.113907
1103.253, 1.134720
1103.735, 0.9240950
1104.217, 0.6842800
1104.699, 0.4474790
1105.182, 0.2762070
1105.664, 0.1585620
1106.146, 0.1607740
1106.628, 0.3049700
1107.110, 0.5157390
1107.592, 0.7569500
1108.074, 1.006767
1108.556, 1.299950
1109.038, 1.595749
1109.521, 1.695709
1110.003, 1.289948
1110.485, 0.9969100
1110.967, 0.9979930
1111.449, 1.107796
1111.931, 1.020905
1112.413, 0.7915340
1112.895, 0.6725160
1113.377, 0.6960830
1113.860, 0.7452390
1114.342, 0.8410190
1114.824, 0.8382640
1115.306, 0.5314180
1115.788, 8.8852003E-02
1116.270, 0.1620640
1116.752, 0.7401960
1117.234, 1.115227
1117.717, 1.094025
1118.199, 0.8889310
1118.681, 0.6032030
1119.163, 0.2829820
1119.645, 5.4497000E-02
1120.127, 0.4108430
1120.609, 0.6525650
1121.091, 0.7909470
1121.573, 0.7174990
1122.056, 0.2757190
1122.538, 0.2228620
1123.020, 0.4445270
1123.502, 0.4381180
1123.984, 0.2603910
1124.466, 0.2364270
1124.948, 0.5106200
1125.430, 0.4872510
1125.913, 0.4261700
1126.395, 0.5582580
1126.877, 0.7464290
1127.359, 0.5964200
1127.841, 0.2396320
1128.323, 4.3938000E-02
1128.805, 0.2151340
1129.287, 0.4887850
1129.770, 0.9338000
1130.252, 1.303719
1130.734, 1.301781
1131.216, 1.018593
1131.698, 0.7879410
1132.180, 0.6262050
1132.662, 0.5502550
1133.144, 0.5512770
1133.626, 0.6661910
1134.109, 1.025002
1134.591, 1.415840
1135.073, 1.453163
1135.555, 1.174751
1136.037, 1.060440
1136.519, 1.167961
1137.001, 1.343681
1137.483, 1.519302
1137.965, 1.683830
1138.448, 1.876160
1138.930, 2.052666
1139.412, 2.037025
1139.894, 1.820656
1140.376, 1.662323
1140.858, 1.618355
1141.340, 1.622139
1141.822, 1.681587
1142.304, 1.707458
1142.787, 1.510971
1143.269, 1.100952
1143.751, 1.216354
1144.233, 1.991005
1144.715, 2.531967
1145.197, 2.483139
1145.679, 2.175507
1146.161, 1.914612
1146.644, 1.713402
1147.126, 1.571831
1147.608, 1.470467
1148.090, 1.605377
1148.572, 2.109650
1149.054, 2.421127
1149.536, 2.146950
1150.018, 1.653107
1150.500, 1.531387
1150.983, 1.687492
1151.465, 1.952042
1151.947, 2.467514
1152.429, 2.641739
1152.911, 2.259888
1153.393, 1.925453
1153.875, 2.180855
1154.357, 2.747810
1154.840, 2.840759
1155.322, 2.579872
1155.804, 2.350754
1156.286, 2.255699
1156.768, 2.300011
1157.250, 2.560936
1157.732, 2.825104
1158.214, 2.848991
1158.697, 2.703171
1159.179, 2.685364
1159.661, 2.791939
1160.143, 2.931946
1160.625, 3.228249
1161.107, 3.380821
1161.589, 3.236145
1162.071, 2.992043
1162.553, 2.903351
1163.036, 2.940125
1163.518, 2.908180
1164.000, 2.792404
1164.482, 2.676018
1164.964, 2.550705
1165.446, 2.500427
1165.928, 2.663872
1166.410, 2.869545
1166.892, 2.773705
1167.375, 2.410042
1167.857, 2.106033
1168.339, 1.891678
1168.821, 1.735497
1169.303, 1.504013
1169.785, 1.446732
1170.267, 1.912155
1170.749, 2.644424
1171.231, 2.925262
1171.714, 2.757225
1172.196, 2.491470
1172.678, 2.189087
1173.160, 1.946220
1173.642, 1.824829
1174.124, 1.778938
1174.606, 1.815491
1175.088, 1.912178
1175.571, 1.876259
1176.053, 1.709763
1176.535, 1.659035
1177.017, 1.840469
1177.499, 2.000954
1177.981, 1.773987
1178.463, 1.465958
1178.945, 1.444626
1179.427, 1.721451
1179.910, 1.653915
1180.392, 1.161560
1180.874, 0.9198990
1181.356, 1.312393
1181.838, 1.793388
1182.320, 1.824066
1182.802, 1.579308
1183.284, 1.208267
1183.767, 0.6735460
1184.249, 0.5629500
1184.731, 0.9389650
1185.213, 1.320129
1185.695, 1.507210
1186.177, 1.529816
1186.659, 1.384918
1187.141, 1.144119
1187.624, 0.8974610
1188.106, 0.6263280
1188.588, 0.5025710
1189.070, 0.5632400
1189.552, 0.5431900
1190.034, 0.1172940
1190.516, 0.2827070
1190.998, 4.8920002E-02
1191.480, 0.7375490
1191.963, 1.139496
1192.445, 1.061714
1192.927, 0.8911740
1193.409, 0.5944750
1193.891, 0.3384090
1194.373, 0.1526260
1194.855, 0.1356740
1195.337, 0.6015930
1195.819, 1.304306
1196.302, 1.671967
1196.784, 1.353539
1197.266, 1.372536
1197.748, 1.840973
1198.230, 2.242622
1198.712, 2.071205
1199.194, 1.653244
1199.676, 1.323822
1200.158, 1.121826
1200.641, 1.165565
1201.123, 1.705032
1201.605, 1.899033
1202.087, 1.648979
1202.569, 1.293030
1203.051, 1.002335
1203.533, 0.8811570
1204.015, 1.286278
1204.498, 1.999290
1204.980, 2.215324
1205.462, 1.507271
1205.944, 1.089790
1206.426, 1.087914
1206.908, 1.290977
1207.390, 1.656448
1207.872, 1.983910
1208.354, 1.919250
1208.837, 1.559280
1209.319, 1.419334
1209.801, 1.709999
1210.283, 1.781166
1210.765, 1.497086
1211.247, 1.199547
1211.729, 1.313957
1212.211, 1.582214
1212.694, 1.702278
1213.176, 1.664963
1213.658, 1.506355
1214.140, 1.098755
1214.622, 1.037453
1215.104, 1.486954
1215.586, 1.969498
1216.068, 1.965660
1216.551, 1.703026
1217.033, 1.300430
1217.515, 0.8511510
1217.997, 0.9680480
1218.479, 2.003059
1218.961, 2.353149
1219.443, 1.593163
1219.925, 0.7481770
1220.407, 1.215218
1220.890, 2.064087
1221.372, 2.153625
1221.854, 1.496811
1222.336, 1.176155
1222.818, 1.311729
1223.300, 1.448051
1223.782, 1.491013
1224.264, 1.546387
1224.746, 1.780151
1225.229, 2.048630
1225.711, 2.210182
1226.193, 2.254112
1226.675, 2.285225
1227.157, 2.340744
1227.639, 2.083122
1228.121, 1.322571
1228.603, 0.8240740
1229.085, 1.878075
1229.568, 3.217049
1230.050, 3.547165
1230.532, 2.885765
1231.014, 2.325813
1231.496, 1.841202
1231.978, 1.715462
1232.460, 2.079773
1232.942, 2.484207
1233.425, 2.441452
1233.907, 2.288010
1234.389, 2.342690
1234.871, 2.576515
1235.353, 2.752861
1235.835, 2.874207
1236.317, 2.780945
1236.799, 2.403786
1237.281, 2.037971
1237.764, 1.835808
1238.246, 1.827972
1238.728, 2.194916
1239.210, 2.781815
1239.692, 2.873550
1240.174, 2.489548
1240.656, 2.237396
1241.138, 2.275024
1241.621, 2.372910
1242.103, 2.387871
1242.585, 2.381859
1243.067, 2.366135
1243.549, 2.367676
1244.031, 2.511948
1244.513, 2.781670
1244.995, 3.015892
1245.478, 3.184608
1245.960, 3.361275
1246.442, 3.690300
1246.924, 3.921059
1247.406, 3.884048
1247.888, 3.661743
1248.370, 3.565636
1248.852, 3.546883
1249.334, 3.279182
1249.817, 2.596756
1250.299, 2.277679
1250.781, 3.239983
1251.263, 3.989143
1251.745, 3.837044
1252.227, 3.173340
1252.709, 2.913452
1253.191, 2.947372
1253.673, 2.943062
1254.156, 2.818504
1254.638, 2.781860
1255.120, 2.956886
1255.602, 3.143364
1256.084, 3.275360
1256.566, 3.380402
1257.048, 3.594841
1257.530, 3.799454
1258.012, 3.668457
1258.495, 3.091217
1258.977, 2.809082
1259.459, 3.061798
1259.941, 3.286690
1260.423, 3.294487
1260.905, 3.209114
1261.387, 3.199463
1261.869, 3.240967
1262.352, 3.314285
1262.834, 3.420151
1263.316, 3.474991
1263.798, 3.500221
1264.280, 3.362770
1264.762, 2.963234
1265.244, 2.579765
1265.726, 2.665428
1266.208, 2.875359
1266.691, 2.749031
1267.173, 2.264610
1267.655, 2.110886
1268.137, 2.308983
1268.619, 2.723907
1269.101, 3.414261
1269.583, 3.878250
1270.065, 3.401512
1270.548, 2.680756
1271.030, 2.368988
1271.512, 2.376190
1271.994, 2.223106
1272.476, 1.917213
1272.958, 1.783730
1273.440, 1.917427
1273.922, 2.062408
1274.405, 2.029572
1274.887, 1.956673
1275.369, 1.922813
1275.851, 1.916573
1276.333, 1.896057
1276.815, 1.868774
1277.297, 1.864136
1277.779, 1.885139
1278.261, 1.965408
1278.744, 2.189316
1279.226, 2.398811
1279.708, 2.576385
1280.190, 2.657227
1280.672, 2.420715
1281.154, 2.009941
1281.636, 1.828499
1282.118, 1.929451
1282.600, 1.954834
1283.083, 1.739441
1283.565, 1.529877
1284.047, 1.355415
1284.529, 1.271393
1285.011, 1.566811
1285.493, 1.894394
1285.975, 1.543724
1286.457, 0.5308460
1286.939, 6.2492002E-02
1287.422, 0.3948440
1287.904, 0.6799390
1288.386, 0.7456890
1288.868, 0.7921070
1289.350, 1.123199
1289.832, 1.474831
1290.314, 1.596596
1290.796, 1.478653
1291.279, 1.170921
1291.761, 0.6238400
1292.243, 0.4877170
1292.725, 0.8864590
1293.207, 1.159157
1293.689, 0.4890750
1294.171, 0.2022710
1294.653, 0.1827620
1295.135, 0.1905900
1295.618, 0.3160780
1296.100, 0.2276080
1296.582, 0.2766800
1297.064, 0.4950030
1297.546, 0.6935500
1298.028, 0.7176510
1298.510, 0.4521870
1298.992, 0.4932940
1299.475, 0.5246120
1299.957, 0.4496770
1300.439, 0.3127980
1300.921, 0.1549450
1301.403, 3.7839999E-03
1301.885, 0.0000000E+00
##END=



