##NAMES=Medaite
##RRUFFID=R130098
##IDEAL CHEMISTRY=Mn^2+^_6_V^5+^Si_5_O_18_(OH)
##LOCALITY=Molinello Mine, Graveglia Valley, Ne, Genova Province, Liguria, Italy
##OWNER=RRUFF
##SOURCE=Donald Doell (Large Piece) and Rock Currier (Small Piece)
##DESCRIPTION=Red grains and prismatic crystals
##STATUS=The identification of this mineral has been confirmed by single-crystal X-ray diffraction.
##URL=rruff.info/R130098
91.19958, 0.0000000E+00
91.68170, 7.417328
92.16382, 14.10532
92.64594, 17.24808
93.12805, 18.16534
93.61017, 18.39496
94.09229, 17.85593
94.57440, 15.20389
95.05651, 12.94861
95.53863, 11.71631
96.02074, 11.92136
96.50286, 13.23834
96.98498, 15.42557
97.46709, 15.92685
97.94921, 14.91412
98.43133, 13.69238
98.91344, 11.95618
99.39556, 8.840851
99.87768, 4.775482
100.3598, 1.577881
100.8419, 0.1048890
101.3240, 0.1300050
101.8061, 0.4205320
102.2883, 0.8763730
102.7704, 1.168579
103.2525, 0.9623110
103.7346, 0.2029110
104.2167, 1.050140
104.6988, 3.117065
105.1810, 5.376099
105.6631, 6.868530
106.1452, 6.787628
106.6273, 5.539154
107.1094, 4.877686
107.5915, 5.463226
108.0737, 5.806732
108.5558, 5.003265
109.0379, 3.411407
109.5200, 1.937134
110.0021, 1.367645
110.4842, 1.809723
110.9664, 2.666504
111.4485, 4.421417
111.9306, 6.167938
112.4127, 7.389526
112.8948, 8.061279
113.3769, 8.599762
113.8591, 9.675262
114.3412, 12.20844
114.8233, 13.69135
115.3054, 13.53381
115.7875, 13.43073
116.2696, 14.08807
116.7517, 15.46515
117.2339, 17.05249
117.7160, 18.41342
118.1981, 19.80655
118.6802, 21.26471
119.1623, 22.84293
119.6444, 24.59769
120.1266, 26.68988
120.6087, 29.41916
121.0908, 32.29486
121.5729, 34.42026
122.0550, 35.62595
122.5371, 36.33099
123.0193, 36.72955
123.5014, 36.78110
123.9835, 36.86121
124.4656, 37.08566
124.9477, 37.45560
125.4298, 38.05600
125.9120, 39.02081
126.3941, 40.10233
126.8762, 40.75336
127.3583, 40.93768
127.8404, 40.68329
128.3225, 40.03183
128.8047, 39.03671
129.2868, 37.76740
129.7689, 36.19366
130.2510, 34.33533
130.7331, 32.52417
131.2152, 30.76523
131.6974, 29.02054
132.1795, 27.34930
132.6616, 25.70010
133.1437, 23.97632
133.6258, 22.07666
134.1079, 19.95398
134.5901, 17.90054
135.0722, 15.91388
135.5543, 13.97870
136.0364, 12.10443
136.5185, 10.28870
137.0006, 8.509644
137.4828, 6.781921
137.9649, 5.113037
138.4470, 3.407135
138.9291, 1.417603
139.4112, 0.5227660
139.8933, 2.045776
140.3755, 3.069824
140.8576, 3.659943
141.3397, 3.816620
141.8218, 3.595978
142.3039, 3.119843
142.7860, 2.336182
143.2681, 1.312927
143.7503, 0.3121030
144.2324, 0.4913940
144.7145, 1.413757
145.1966, 2.814545
145.6787, 4.661469
146.1608, 6.433563
146.6430, 7.729187
147.1251, 8.531921
147.6072, 9.015961
148.0893, 8.873474
148.5714, 8.622589
149.0535, 8.736237
149.5357, 9.094330
150.0178, 9.510895
150.4999, 9.643280
150.9820, 9.130402
151.4641, 9.153839
151.9462, 10.14667
152.4284, 11.41934
152.9105, 12.48645
153.3926, 13.15543
153.8747, 13.50067
154.3568, 13.69858
154.8389, 13.46863
155.3211, 13.42874
155.8032, 13.79266
156.2853, 14.31204
156.7674, 14.61603
157.2495, 14.49521
157.7316, 14.13202
158.2138, 14.36981
158.6959, 15.52640
159.1780, 16.81964
159.6601, 18.29895
160.1422, 19.78275
160.6243, 20.88809
161.1065, 21.38080
161.5886, 21.37854
162.0707, 21.37579
162.5528, 21.69870
163.0349, 21.70715
163.5170, 20.90787
163.9991, 19.35547
164.4813, 17.64688
164.9634, 16.09857
165.4455, 14.66714
165.9276, 13.20200
166.4097, 11.43033
166.8918, 9.799438
167.3740, 8.906860
167.8561, 8.877808
168.3382, 9.045288
168.8203, 8.957642
169.3024, 8.848816
169.7845, 9.007477
170.2667, 9.528381
170.7488, 10.38828
171.2309, 11.64304
171.7130, 13.67676
172.1951, 15.37985
172.6772, 16.14117
173.1594, 16.40268
173.6415, 16.77261
174.1236, 17.58633
174.6057, 18.80417
175.0878, 20.18350
175.5699, 21.86823
176.0521, 23.58511
176.5342, 25.54062
177.0163, 27.46591
177.4984, 28.90863
177.9805, 29.53085
178.4626, 29.32782
178.9448, 28.81305
179.4269, 27.64410
179.9090, 26.50046
180.3911, 25.59091
180.8732, 24.88013
181.3553, 24.26361
181.8375, 23.68173
182.3196, 23.17026
182.8017, 22.26556
183.2838, 20.64218
183.7659, 19.00186
184.2480, 17.66968
184.7301, 16.65515
185.2123, 15.81387
185.6944, 15.04648
186.1765, 14.36856
186.6586, 13.59973
187.1407, 12.48169
187.6228, 11.46216
188.1050, 10.80905
188.5871, 10.56369
189.0692, 10.75769
189.5513, 11.65515
190.0334, 13.21957
190.5155, 14.28943
190.9977, 14.39526
191.4798, 14.10425
191.9619, 14.08884
192.4440, 14.47525
192.9261, 14.87369
193.4082, 15.00409
193.8904, 14.88156
194.3725, 14.36337
194.8546, 12.96628
195.3367, 11.21912
195.8188, 10.26422
196.3009, 10.49725
196.7831, 10.81918
197.2652, 10.28894
197.7473, 9.163788
198.2294, 8.186584
198.7115, 7.419800
199.1936, 6.860077
199.6758, 7.108917
200.1579, 8.913513
200.6400, 10.80042
201.1221, 12.11923
201.6042, 12.90213
202.0863, 13.23807
202.5685, 12.91345
203.0506, 12.01901
203.5327, 12.11691
204.0148, 14.21204
204.4969, 16.36707
204.9790, 18.01028
205.4612, 19.11804
205.9433, 19.75882
206.4254, 19.84262
206.9075, 19.33249
207.3896, 19.49585
207.8717, 21.21652
208.3539, 22.80136
208.8360, 23.56821
209.3181, 23.62924
209.8002, 23.47757
210.2823, 23.69333
210.7644, 24.47034
211.2466, 25.19864
211.7287, 25.83655
212.2108, 26.32132
212.6929, 26.51462
213.1750, 26.48245
213.6571, 26.42017
214.1393, 26.53958
214.6214, 26.91367
215.1035, 27.25668
215.5856, 28.07626
216.0677, 28.35965
216.5498, 27.19052
217.0320, 24.90384
217.5141, 22.82532
217.9962, 22.22693
218.4783, 23.34027
218.9604, 24.08145
219.4425, 24.24579
219.9247, 24.25510
220.4068, 24.31497
220.8889, 24.45065
221.3710, 24.64697
221.8531, 24.90604
222.3352, 25.23151
222.8174, 25.50775
223.2995, 25.56873
223.7816, 25.69885
224.2637, 26.29523
224.7458, 27.33008
225.2279, 28.11020
225.7100, 27.93036
226.1922, 26.90863
226.6743, 26.19659
227.1564, 26.12585
227.6385, 26.23105
228.1206, 26.06656
228.6027, 25.60590
229.0849, 25.15588
229.5670, 24.99847
230.0491, 25.02084
230.5312, 24.90152
231.0133, 24.30392
231.4954, 23.70154
231.9776, 23.71628
232.4597, 24.42764
232.9418, 25.19193
233.4239, 25.29123
233.9060, 25.24261
234.3881, 25.93744
234.8703, 28.06354
235.3524, 30.63577
235.8345, 32.26379
236.3166, 32.76318
236.7987, 33.10645
237.2808, 33.95493
237.7630, 34.87906
238.2451, 35.32269
238.7272, 34.93024
239.2093, 34.25266
239.6914, 34.21265
240.1735, 34.99445
240.6557, 35.83084
241.1378, 36.54977
241.6199, 37.12595
242.1020, 37.55865
242.5841, 37.88321
243.0662, 37.94962
243.5484, 37.48392
244.0305, 36.41327
244.5126, 34.98572
244.9947, 32.88910
245.4768, 30.69489
245.9589, 29.02835
246.4410, 28.13199
246.9232, 27.40851
247.4053, 25.70999
247.8874, 22.54977
248.3695, 19.56079
248.8516, 16.95981
249.3337, 14.66101
249.8159, 12.61462
250.2980, 10.80142
250.7801, 9.241882
251.2622, 8.035919
251.7443, 7.511658
252.2264, 6.592987
252.7086, 4.590454
253.1907, 2.601776
253.6728, 1.562531
254.1549, 1.647308
254.6370, 2.124756
255.1191, 1.743927
255.6013, 0.4145810
256.0834, 1.391266
256.5655, 0.1494450
257.0476, 1.356506
257.5297, 1.749176
258.0118, 0.8426820
258.4940, 0.5044560
258.9761, 1.104126
259.4582, 0.5628050
259.9403, 0.2425840
260.4224, 7.2815001E-02
260.9045, 0.1188960
261.3867, 0.4948120
261.8688, 1.170349
262.3509, 1.952820
262.8330, 2.615326
263.3151, 3.079529
263.7972, 3.722198
264.2794, 4.760376
264.7615, 5.759521
265.2436, 6.615143
265.7257, 7.240356
266.2078, 7.407410
266.6899, 6.761383
267.1721, 5.010925
267.6542, 4.434448
268.1363, 5.999634
268.6184, 7.606140
269.1005, 8.304291
269.5826, 8.107147
270.0648, 7.430450
270.5469, 6.551910
271.0290, 5.463318
271.5111, 4.605835
271.9932, 4.314178
272.4753, 3.879700
272.9575, 2.930969
273.4396, 1.579102
273.9217, 0.1425170
274.4038, 1.195648
274.8859, 2.426300
275.3680, 3.375336
275.8501, 3.488953
276.3322, 3.981140
276.8144, 5.413330
277.2965, 7.541077
277.7786, 9.878998
278.2607, 12.24115
278.7428, 14.50464
279.2249, 16.09540
279.7071, 16.59357
280.1892, 17.07083
280.6713, 17.91464
281.1534, 18.90390
281.6355, 19.60312
282.1176, 19.79205
282.5998, 19.69324
283.0819, 19.88040
283.5640, 20.50156
284.0461, 21.08127
284.5282, 21.55945
285.0103, 21.93188
285.4925, 22.08539
285.9746, 21.93930
286.4567, 21.84427
286.9388, 22.47794
287.4209, 24.04208
287.9030, 25.55515
288.3852, 26.70572
288.8673, 27.78549
289.3494, 29.25882
289.8315, 31.25024
290.3136, 33.21637
290.7957, 34.42941
291.2779, 34.76376
291.7600, 35.26221
292.2421, 36.08746
292.7242, 37.08432
293.2063, 38.11688
293.6884, 39.16998
294.1706, 40.25107
294.6527, 41.34146
295.1348, 42.45389
295.6169, 43.74463
296.0990, 45.28302
296.5811, 46.95639
297.0633, 48.83521
297.5454, 50.86441
298.0275, 52.61682
298.5096, 53.71829
298.9917, 54.24777
299.4738, 54.92941
299.9560, 55.88904
300.4381, 56.87634
300.9202, 57.72238
301.4023, 58.46063
301.8844, 59.27768
302.3665, 60.31183
302.8487, 61.46442
303.3308, 62.44943
303.8129, 63.24231
304.2950, 63.93765
304.7771, 64.64410
305.2592, 65.29010
305.7414, 65.63779
306.2235, 65.51950
306.7056, 65.20566
307.1877, 65.20868
307.6698, 65.52402
308.1519, 66.02679
308.6341, 66.79889
309.1162, 67.70862
309.5983, 68.48035
310.0804, 69.00626
310.5625, 69.52884
311.0446, 70.32614
311.5268, 71.36606
312.0089, 72.73398
312.4910, 74.43826
312.9731, 76.46658
313.4552, 78.86908
313.9373, 81.72928
314.4195, 84.75583
314.9016, 87.64139
315.3837, 90.30273
315.8658, 92.61365
316.3479, 94.08426
316.8300, 95.50641
317.3121, 97.63766
317.7943, 100.4568
318.2764, 103.3955
318.7585, 106.0795
319.2406, 108.5467
319.7227, 111.1408
320.2048, 114.3344
320.6870, 117.1989
321.1691, 118.9979
321.6512, 119.9797
322.1333, 121.0645
322.6154, 122.6830
323.0975, 124.6890
323.5797, 126.7708
324.0618, 129.4632
324.5439, 131.3069
325.0260, 131.2450
325.5081, 130.0554
325.9902, 129.2064
326.4724, 129.2145
326.9545, 129.6922
327.4366, 130.1671
327.9187, 130.7916
328.4008, 130.8749
328.8829, 129.9882
329.3651, 128.6276
329.8472, 127.2408
330.3293, 125.9181
330.8114, 124.8160
331.2935, 124.0970
331.7756, 123.7574
332.2578, 123.4442
332.7399, 122.8856
333.2220, 122.5383
333.7041, 122.8436
334.1862, 123.7478
334.6683, 124.7750
335.1505, 125.6157
335.6326, 126.2929
336.1147, 126.9894
336.5968, 127.5608
337.0789, 128.3048
337.5610, 129.2900
338.0432, 130.5452
338.5253, 132.2306
339.0074, 134.5161
339.4895, 137.0530
339.9716, 138.7791
340.4537, 138.8603
340.9359, 139.7502
341.4180, 142.7480
341.9001, 146.5129
342.3822, 149.3928
342.8643, 150.9084
343.3464, 151.3905
343.8286, 151.1526
344.3107, 149.7396
344.7928, 148.9584
345.2749, 149.1629
345.7570, 149.7697
346.2391, 150.6124
346.7213, 151.5385
347.2034, 152.0715
347.6855, 151.7992
348.1676, 150.6884
348.6497, 148.9382
349.1318, 146.0294
349.6140, 143.1251
350.0961, 140.6384
350.5782, 138.5689
351.0603, 136.8172
351.5424, 135.3406
352.0245, 134.1364
352.5067, 133.1932
352.9888, 132.7538
353.4709, 132.2756
353.9530, 131.7559
354.4351, 131.1393
354.9172, 130.3857
355.3994, 129.4756
355.8815, 128.3627
356.3636, 126.9592
356.8457, 125.2215
357.3278, 123.2171
357.8099, 120.3255
358.2920, 117.6429
358.7741, 116.1323
359.2563, 115.7243
359.7384, 115.5560
360.2205, 114.8026
360.7026, 113.4246
361.1847, 111.8166
361.6668, 109.6505
362.1490, 107.6159
362.6311, 105.8900
363.1132, 104.4645
363.5953, 103.3317
364.0774, 102.4909
364.5595, 101.9080
365.0417, 101.4426
365.5238, 101.1437
366.0059, 100.9083
366.4880, 100.7085
366.9701, 100.5706
367.4522, 100.5940
367.9344, 100.7908
368.4165, 100.9534
368.8986, 100.6584
369.3807, 99.53583
369.8628, 98.98907
370.3449, 99.91229
370.8271, 100.6787
371.3092, 100.2869
371.7913, 98.84482
372.2734, 97.17065
372.7555, 95.89905
373.2376, 95.03195
373.7198, 94.57657
374.2019, 94.98380
374.6840, 95.27563
375.1661, 95.13022
375.6482, 94.69839
376.1303, 94.20407
376.6125, 93.73700
377.0946, 93.27362
377.5767, 92.77667
378.0588, 92.28320
378.5409, 91.63275
379.0230, 90.39728
379.5052, 89.18518
379.9873, 88.74008
380.4694, 89.19055
380.9515, 89.39096
381.4336, 87.98355
381.9157, 84.98587
382.3979, 82.05432
382.8800, 79.16229
383.3621, 76.72092
383.8442, 75.13586
384.3263, 74.23700
384.8084, 73.30518
385.2906, 72.00070
385.7727, 70.38898
386.2548, 68.53177
386.7369, 66.37045
387.2190, 64.28381
387.7011, 62.47968
388.1833, 60.89078
388.6654, 59.42340
389.1475, 58.02252
389.6296, 56.77945
390.1117, 55.80780
390.5938, 55.10287
391.0760, 54.55515
391.5581, 54.26047
392.0402, 53.96063
392.5223, 53.28177
393.0044, 52.19949
393.4865, 51.03775
393.9687, 49.95374
394.4508, 48.92502
394.9329, 47.81985
395.4150, 46.58188
395.8971, 45.52319
396.3792, 44.90985
396.8614, 44.74820
397.3435, 44.79465
397.8256, 45.34088
398.3077, 45.81979
398.7898, 45.89175
399.2719, 45.58200
399.7540, 44.97986
400.2361, 44.07697
400.7183, 42.99231
401.2004, 42.08801
401.6825, 41.36459
402.1646, 40.77814
402.6467, 40.39969
403.1288, 40.11880
403.6110, 39.91699
404.0931, 39.76614
404.5752, 39.39337
405.0573, 38.40665
405.5394, 36.59961
406.0215, 35.28748
406.5037, 34.86429
406.9858, 34.50333
407.4679, 33.57974
407.9500, 32.36557
408.4321, 31.68369
408.9142, 32.11130
409.3964, 33.29132
409.8785, 33.56808
410.3606, 32.11627
410.8427, 30.76700
411.3248, 29.51541
411.8069, 28.51212
412.2891, 28.03387
412.7712, 28.08945
413.2533, 28.22305
413.7354, 27.70609
414.2175, 26.19208
414.6996, 25.40506
415.1818, 26.32959
415.6639, 27.08508
416.1460, 26.88364
416.6281, 25.91019
417.1102, 24.71204
417.5923, 23.53540
418.0745, 22.47485
418.5566, 21.92068
419.0387, 22.22653
419.5208, 22.25192
420.0029, 21.50931
420.4850, 20.43112
420.9672, 19.32382
421.4493, 18.25259
421.9314, 17.36520
422.4135, 17.01846
422.8956, 17.16620
423.3777, 16.74432
423.8599, 15.16907
424.3420, 13.58572
424.8241, 13.01813
425.3062, 13.20206
425.7883, 13.17926
426.2704, 12.46704
426.7526, 11.36304
427.2347, 10.36862
427.7168, 9.499908
428.1989, 8.313812
428.6810, 6.285980
429.1631, 3.946808
429.6453, 2.484039
430.1274, 2.250610
430.6095, 2.092957
431.0916, 1.432220
431.5737, 0.4501950
432.0558, 0.5461730
432.5380, 1.493256
433.0201, 2.311707
433.5022, 2.836945
433.9843, 3.006439
434.4664, 3.459686
434.9485, 4.554596
435.4307, 5.657654
435.9128, 6.325043
436.3949, 6.621185
436.8770, 6.869324
437.3591, 7.274750
437.8412, 7.736908
438.3234, 7.852173
438.8055, 7.484497
439.2876, 6.929565
439.7697, 5.942322
440.2518, 4.921570
440.7339, 4.269928
441.2160, 4.051300
441.6982, 4.036469
442.1803, 4.009094
442.6624, 4.013062
443.1445, 3.681702
443.6266, 2.515472
444.1087, 1.526825
444.5909, 1.136078
445.0730, 1.112701
445.5551, 1.082458
446.0372, 0.8630370
446.5193, 0.4767150
447.0014, 8.2976997E-02
447.4836, 0.9434510
447.9657, 1.595947
448.4478, 1.964355
448.9299, 2.078033
449.4120, 1.652802
449.8941, 0.8148190
450.3763, 0.4013670
450.8584, 1.344238
451.3405, 3.299530
451.8226, 4.772705
452.3047, 5.597778
452.7868, 6.274261
453.2690, 7.008148
453.7511, 7.797211
454.2332, 8.631195
454.7153, 9.443085
455.1974, 10.42056
455.6795, 11.78864
456.1617, 13.47430
456.6438, 15.15549
457.1259, 16.70328
457.6080, 18.30508
458.0901, 20.30270
458.5722, 22.69412
459.0544, 24.92172
459.5365, 26.49890
460.0186, 28.14825
460.5007, 30.82672
460.9828, 34.32663
461.4649, 37.37851
461.9471, 39.20917
462.4292, 40.00894
462.9113, 40.57010
463.3934, 41.54800
463.8755, 41.46136
464.3576, 39.56573
464.8398, 36.82782
465.3219, 34.03552
465.8040, 31.42685
466.2861, 29.16794
466.7682, 27.54724
467.2503, 26.68781
467.7325, 25.10110
468.2146, 21.88663
468.6967, 18.89716
469.1788, 16.51828
469.6609, 14.70026
470.1430, 13.41791
470.6252, 12.67651
471.1073, 12.23383
471.5894, 11.69144
472.0715, 11.05850
472.5536, 10.26086
473.0357, 8.988342
473.5179, 7.848602
474.0000, 7.195831
474.4821, 6.969757
474.9642, 6.861145
475.4463, 6.667755
475.9284, 6.488251
476.4106, 6.593445
476.8927, 7.047516
477.3748, 7.392609
477.8569, 7.255035
478.3390, 6.978546
478.8211, 7.153961
479.3033, 7.961578
479.7854, 8.638489
480.2675, 8.772095
480.7496, 8.524933
481.2317, 8.075500
481.7138, 7.437866
482.1959, 6.974426
482.6780, 7.030212
483.1602, 7.616821
483.6423, 8.245483
484.1244, 9.161072
484.6065, 9.852631
485.0886, 9.913635
485.5707, 9.651062
486.0529, 9.600464
486.5350, 9.960297
487.0171, 10.56577
487.4992, 11.19571
487.9813, 12.06674
488.4634, 12.33817
488.9456, 11.49100
489.4277, 10.64627
489.9098, 10.40164
490.3919, 10.56644
490.8740, 10.66534
491.3561, 10.43307
491.8383, 9.968262
492.3204, 9.387665
492.8025, 8.436066
493.2846, 7.947754
493.7667, 8.756592
494.2488, 9.684296
494.7310, 9.888275
495.2131, 9.348969
495.6952, 8.682831
496.1773, 8.405823
496.6594, 8.375000
497.1415, 8.075867
497.6237, 7.444916
498.1058, 6.928314
498.5879, 6.731781
499.0700, 6.766113
499.5521, 6.875214
500.0342, 7.035736
500.5164, 7.312958
500.9985, 7.716187
501.4806, 8.341370
501.9627, 9.376892
502.4448, 10.85202
502.9269, 12.26263
503.4091, 13.12231
503.8912, 13.44016
504.3733, 14.10156
504.8554, 15.36926
505.3375, 16.66458
505.8196, 17.73041
506.3018, 18.66983
506.7839, 19.63214
507.2660, 20.64581
507.7481, 21.67026
508.2302, 22.73129
508.7123, 23.94934
509.1945, 25.21045
509.6766, 26.53644
510.1587, 27.79230
510.6408, 29.07550
511.1229, 30.26535
511.6050, 31.15924
512.0872, 31.65286
512.5693, 31.79904
513.0514, 31.77203
513.5335, 31.64183
514.0156, 31.25313
514.4977, 30.45773
514.9799, 29.45291
515.4620, 28.49223
515.9441, 27.53113
516.4262, 26.29694
516.9083, 24.40950
517.3904, 22.34244
517.8726, 20.79951
518.3547, 19.74174
518.8368, 18.45500
519.3189, 16.46416
519.8010, 14.18655
520.2831, 12.72205
520.7653, 12.38097
521.2474, 11.82031
521.7295, 10.48145
522.2116, 8.963684
522.6937, 7.919968
523.1758, 7.369446
523.6580, 6.900940
524.1401, 6.246445
524.6222, 5.468704
525.1043, 4.707077
525.5864, 3.564194
526.0685, 2.840210
526.5507, 3.123672
527.0328, 3.611618
527.5149, 3.594742
527.9970, 3.025940
528.4791, 2.377731
528.9612, 2.099075
529.4434, 2.110413
529.9255, 1.859100
530.4076, 1.160400
530.8897, 0.6306760
531.3718, 0.6652680
531.8539, 0.9494020
532.3361, 1.170746
532.8182, 1.272400
533.3003, 1.391479
533.7824, 1.708252
534.2645, 2.092209
534.7466, 2.179993
535.2288, 1.895355
535.7109, 1.683945
536.1930, 1.942032
536.6751, 2.573090
537.1572, 2.938522
537.6393, 2.607422
538.1215, 2.559357
538.6036, 3.276917
539.0857, 4.329300
539.5678, 5.178314
540.0499, 5.715240
540.5320, 6.203644
541.0142, 6.946976
541.4963, 7.954056
541.9784, 8.623550
542.4604, 8.746780
542.9426, 8.756531
543.4247, 8.678406
543.9068, 8.563049
544.3889, 8.400955
544.8710, 8.203064
545.3531, 8.158157
545.8353, 8.670563
546.3174, 9.654144
546.7995, 9.996368
547.2816, 9.328339
547.7637, 8.677490
548.2458, 9.066177
548.7280, 9.814407
549.2101, 9.733582
549.6922, 8.316818
550.1743, 6.722015
550.6564, 5.425262
551.1385, 4.514038
551.6207, 4.351395
552.1028, 5.033035
552.5849, 5.748077
553.0670, 5.730057
553.5491, 4.973221
554.0313, 4.244843
554.5134, 3.492996
554.9955, 2.828918
555.4776, 2.169922
555.9597, 1.660477
556.4418, 1.588806
556.9240, 1.976303
557.4061, 2.435822
557.8882, 2.539505
558.3703, 2.282990
558.8524, 1.789597
559.3345, 0.6840520
559.8167, 0.1016690
560.2988, 1.6280999E-02
560.7809, 0.4613800
561.2630, 0.4654690
561.7451, 0.2025910
562.2272, 0.8902890
562.7094, 0.9015810
563.1915, 0.4662170
563.6736, 0.4491880
564.1557, 1.054871
564.6378, 1.529800
565.1199, 1.214035
565.6021, 0.3153230
566.0842, 0.1801150
566.5663, 4.9056999E-02
567.0484, 0.2163850
567.5305, 0.1774440
568.0126, 0.6735530
568.4948, 0.5330050
568.9769, 0.2818910
569.4590, 0.9967040
569.9411, 0.8042760
570.4232, 0.2169800
570.9053, 0.5372920
571.3875, 0.5987240
571.8696, 1.435013
572.3517, 1.590134
572.8338, 1.414658
573.3159, 1.168121
573.7980, 0.9252320
574.2802, 0.7377470
574.7623, 0.6632080
575.2444, 0.6833040
575.7265, 0.7355040
576.2086, 0.8348240
576.6907, 0.8979190
577.1729, 0.8153840
577.6550, 0.7138820
578.1371, 0.8759310
578.6192, 1.440887
579.1013, 1.658554
579.5834, 0.7973330
580.0656, 0.2941740
580.5477, 0.6124570
581.0298, 0.1430820
581.5119, 0.6409910
581.9940, 1.534988
582.4761, 2.343781
582.9583, 2.383865
583.4404, 0.7645110
583.9225, 0.2696080
584.4046, 0.3373260
584.8867, 0.1535490
585.3688, 0.1380620
585.8510, 0.2911990
586.3331, 0.4219670
586.8152, 0.3980260
587.2973, 0.3264310
587.7794, 0.4786680
588.2615, 0.8892360
588.7437, 1.129303
589.2258, 1.045288
589.7079, 0.8784940
590.1900, 0.8774260
590.6721, 1.000992
591.1542, 1.010422
591.6364, 0.6807860
592.1185, 0.3510280
592.6006, 0.3924100
593.0827, 0.6674800
593.5648, 0.7549590
594.0469, 0.5062260
594.5291, 0.1374510
595.0112, 7.7529997E-02
595.4933, 0.1485440
595.9754, 2.8625000E-02
596.4575, 0.5727390
596.9396, 1.027130
597.4218, 0.8404540
597.9039, 0.4672700
598.3860, 0.6132810
598.8681, 1.506149
599.3502, 2.661224
599.8323, 3.541199
600.3145, 4.152802
600.7966, 4.645676
601.2787, 5.085815
601.7608, 5.268326
602.2429, 4.660538
602.7250, 3.842026
603.2072, 3.801010
603.6893, 4.907898
604.1714, 6.026199
604.6535, 6.604935
605.1356, 6.834152
605.6177, 6.894333
606.0999, 6.844284
606.5820, 6.900070
607.0641, 7.239243
607.5462, 7.786102
608.0283, 8.194458
608.5104, 8.171509
608.9926, 8.433197
609.4747, 9.342148
609.9568, 10.27272
610.4389, 10.69298
610.9210, 10.70398
611.4031, 10.79718
611.8853, 11.29245
612.3674, 12.04770
612.8495, 12.81940
613.3316, 13.62474
613.8137, 14.24138
614.2958, 14.38695
614.7780, 14.64113
615.2601, 15.76723
615.7422, 17.60098
616.2243, 19.15184
616.7064, 20.16985
617.1885, 20.88666
617.6707, 21.12395
618.1528, 21.24088
618.6349, 22.00188
619.1170, 23.58992
619.5991, 25.30103
620.0812, 26.25693
620.5634, 26.41261
621.0455, 27.26743
621.5276, 29.41463
622.0097, 31.46260
622.4918, 33.03740
622.9739, 34.48845
623.4561, 36.24806
623.9382, 38.32109
624.4203, 40.20694
624.9023, 41.28136
625.3845, 41.93910
625.8666, 43.14435
626.3487, 44.93704
626.8308, 46.99991
627.3129, 49.27246
627.7950, 51.69582
628.2772, 54.17630
628.7593, 56.73692
629.2414, 58.93146
629.7235, 60.29065
630.2056, 61.65706
630.6877, 63.47139
631.1699, 65.79108
631.6520, 68.72461
632.1341, 72.30688
632.6162, 76.17230
633.0983, 79.73938
633.5804, 83.02374
634.0626, 85.96527
634.5447, 88.21509
635.0268, 90.57556
635.5089, 93.48325
635.9910, 96.66342
636.4731, 99.68245
636.9553, 102.4206
637.4374, 105.2369
637.9195, 108.3694
638.4016, 111.6319
638.8837, 114.8579
639.3658, 117.9794
639.8480, 120.7108
640.3301, 122.8546
640.8122, 124.5559
641.2943, 126.2471
641.7764, 127.2942
642.2585, 129.0944
642.7407, 132.1136
643.2228, 135.4554
643.7049, 138.4581
644.1870, 141.3125
644.6691, 144.6636
645.1512, 148.8652
645.6334, 153.5635
646.1155, 158.0136
646.5976, 162.2256
647.0797, 167.4418
647.5618, 174.0702
648.0439, 181.2247
648.5261, 188.4605
649.0082, 195.6939
649.4903, 202.4148
649.9724, 208.1052
650.4545, 214.0233
650.9366, 221.0088
651.4188, 228.2764
651.9009, 235.0927
652.3830, 241.2286
652.8651, 246.4116
653.3472, 250.4292
653.8293, 253.3595
654.3115, 255.6026
654.7936, 257.5338
655.2757, 257.8270
655.7578, 256.0518
656.2399, 252.7010
656.7220, 247.7265
657.2042, 241.3236
657.6863, 233.9995
658.1684, 225.6604
658.6505, 216.8707
659.1326, 208.0593
659.6147, 199.2474
660.0969, 190.2697
660.5790, 181.1021
661.0611, 172.1454
661.5432, 163.6289
662.0253, 155.5871
662.5074, 148.5425
662.9896, 143.2509
663.4717, 137.9829
663.9538, 131.8727
664.4359, 126.2715
664.9180, 122.4883
665.4001, 120.2711
665.8823, 118.3171
666.3644, 115.8437
666.8465, 113.1178
667.3286, 110.6331
667.8107, 108.3839
668.2928, 105.9318
668.7750, 103.1421
669.2571, 100.3096
669.7392, 97.70084
670.2213, 95.26270
670.7034, 92.74437
671.1855, 90.06552
671.6677, 87.42596
672.1498, 85.07993
672.6319, 82.69609
673.1140, 79.82426
673.5961, 76.51283
674.0782, 73.20836
674.5604, 70.19952
675.0425, 67.47137
675.5246, 64.90755
676.0067, 62.40752
676.4888, 60.45723
676.9709, 59.55939
677.4531, 58.78334
677.9352, 57.32713
678.4173, 55.36137
678.8994, 53.49988
679.3815, 51.76079
679.8636, 50.31468
680.3458, 49.40633
680.8279, 48.81721
681.3100, 48.18170
681.7921, 47.45599
682.2742, 46.82822
682.7563, 46.48056
683.2385, 46.30046
683.7206, 45.64046
684.2027, 44.04317
684.6848, 43.01933
685.1669, 43.28362
685.6490, 43.72800
686.1312, 43.78560
686.6133, 43.48088
687.0954, 43.01071
687.5775, 42.44948
688.0596, 41.73943
688.5417, 40.61009
689.0239, 39.32661
689.5060, 38.74272
689.9881, 38.97975
690.4702, 38.88852
690.9523, 37.48964
691.4344, 35.06921
691.9166, 33.03757
692.3987, 31.60490
692.8808, 30.22061
693.3629, 28.83554
693.8450, 27.52765
694.3271, 26.35298
694.8093, 25.28534
695.2914, 24.29637
695.7735, 23.42981
696.2556, 22.45786
696.7377, 20.83322
697.2198, 18.86797
697.7020, 17.77971
698.1841, 17.80760
698.6662, 17.97816
699.1483, 17.63052
699.6304, 16.88783
700.1125, 16.22148
700.5947, 15.62216
701.0768, 15.12694
701.5589, 14.67343
702.0410, 14.38531
702.5231, 14.48369
703.0052, 14.78624
703.4874, 14.85928
703.9695, 14.48756
704.4516, 14.11617
704.9337, 14.41351
705.4158, 15.21977
705.8979, 15.79446
706.3801, 16.08154
706.8622, 16.00464
707.3442, 15.36963
707.8264, 14.44618
708.3085, 13.91666
708.7906, 13.84187
709.2727, 13.97107
709.7548, 14.60063
710.2369, 15.12277
710.7191, 15.15245
711.2012, 14.82265
711.6833, 14.37306
712.1654, 13.89342
712.6475, 13.43071
713.1296, 13.14049
713.6118, 12.94131
714.0939, 12.25854
714.5760, 10.97458
715.0581, 9.896332
715.5402, 9.465652
716.0223, 9.378311
716.5045, 9.125488
716.9866, 8.674713
717.4687, 8.283264
717.9508, 8.086700
718.4329, 7.832993
718.9150, 7.338089
719.3972, 6.731247
719.8793, 6.242111
720.3614, 5.908585
720.8435, 5.493301
721.3256, 4.646835
721.8077, 3.554550
722.2899, 3.023712
722.7720, 3.120972
723.2541, 3.216003
723.7362, 3.173782
724.2183, 2.955063
724.7004, 2.459396
725.1826, 1.689667
725.6647, 0.9666290
726.1468, 4.1901000E-02
726.6289, 0.5181270
727.1110, 0.2224880
727.5931, 0.3758700
728.0753, 0.6369930
728.5574, 0.5111390
729.0395, 0.3914180
729.5216, 0.6135100
730.0037, 0.9409790
730.4858, 0.7958830
730.9680, 0.1631930
731.4501, 0.5595550
731.9322, 1.388580
732.4143, 2.080566
732.8964, 2.391541
733.3785, 2.382172
733.8607, 2.418030
734.3428, 2.576294
734.8249, 2.662857
735.3070, 2.634033
735.7891, 2.508743
736.2712, 2.215561
736.7534, 1.838455
737.2355, 1.522964
737.7176, 1.316391
738.1997, 1.183243
738.6818, 1.185196
739.1639, 1.275787
739.6461, 0.9396360
740.1282, 5.1070999E-02
740.6103, 0.7469640
741.0924, 1.085587
741.5745, 1.082260
742.0566, 1.029343
742.5388, 0.9062350
743.0209, 1.011124
743.5030, 1.493469
743.9851, 2.016586
744.4672, 2.369308
744.9493, 2.671921
745.4315, 3.110992
745.9136, 3.706100
746.3957, 4.332779
746.8778, 4.957260
747.3599, 5.556107
747.8420, 5.957748
748.3242, 6.163879
748.8063, 6.401672
749.2884, 6.646408
749.7705, 7.036209
750.2526, 7.892426
750.7347, 9.277298
751.2169, 10.37465
751.6990, 11.21922
752.1811, 11.76067
752.6632, 11.62379
753.1453, 11.44659
753.6274, 11.82101
754.1096, 12.72945
754.5917, 13.79523
755.0738, 14.82915
755.5559, 15.88695
756.0380, 17.06631
756.5201, 18.34277
757.0023, 19.54903
757.4844, 20.65283
757.9665, 21.81396
758.4486, 23.09616
758.9307, 24.57271
759.4128, 26.51437
759.8950, 29.35474
760.3771, 31.88834
760.8592, 33.78116
761.3413, 35.72676
761.8234, 38.01884
762.3055, 40.58720
762.7877, 43.37193
763.2698, 46.36055
763.7519, 49.27724
764.2340, 51.76939
764.7161, 54.13837
765.1982, 56.91046
765.6804, 60.04918
766.1625, 63.17514
766.6446, 66.16669
767.1267, 68.97992
767.6088, 71.57825
768.0909, 73.99825
768.5731, 75.71881
769.0552, 76.08832
769.5373, 76.83832
770.0194, 79.01733
770.5015, 81.17465
770.9836, 82.13042
771.4658, 81.97421
771.9479, 81.52365
772.4300, 81.02701
772.9121, 80.35640
773.3942, 79.44519
773.8763, 78.30003
774.3585, 76.87413
774.8406, 75.19934
775.3227, 73.50748
775.8048, 71.98505
776.2869, 70.34874
776.7690, 67.76192
777.2512, 63.98732
777.7333, 60.86186
778.2154, 58.80054
778.6975, 56.84492
779.1796, 54.47217
779.6617, 51.87805
780.1439, 49.47353
780.6260, 47.34340
781.1081, 44.99498
781.5902, 42.19765
782.0723, 39.24937
782.5544, 36.08582
783.0366, 32.96948
783.5187, 30.40620
784.0008, 28.45549
784.4829, 26.60989
784.9650, 24.42827
785.4471, 22.08241
785.9293, 20.03748
786.4114, 18.28908
786.8935, 16.65355
787.3756, 15.12381
787.8577, 13.62534
788.3398, 12.00700
788.8220, 10.30603
789.3040, 9.035278
789.7861, 8.575455
790.2682, 7.967377
790.7504, 7.235687
791.2325, 6.315399
791.7146, 5.062790
792.1967, 3.586945
792.6788, 2.067276
793.1609, 0.5473180
793.6431, 0.7391970
794.1252, 1.406464
794.6073, 1.765884
795.0894, 2.421722
795.5715, 3.379349
796.0536, 4.412552
796.5358, 5.456604
797.0179, 6.360901
797.5000, 6.877884
797.9821, 6.964340
798.4642, 6.802429
798.9464, 6.116684
799.4285, 5.775543
799.9106, 6.349274
800.3927, 7.070786
800.8748, 7.373520
801.3569, 7.282074
801.8391, 7.121536
802.3212, 7.099487
802.8033, 6.866531
803.2854, 5.970093
803.7675, 4.921539
804.2496, 4.334076
804.7318, 4.203751
805.2139, 4.317291
805.6960, 4.600769
806.1781, 4.662079
806.6602, 3.661209
807.1423, 1.698517
807.6245, 0.3316040
808.1066, 0.2384950
808.5887, 1.036316
809.0708, 2.574539
809.5529, 4.443619
810.0350, 6.040207
810.5172, 7.311325
810.9993, 8.645905
811.4814, 9.967361
811.9635, 11.43858
812.4456, 13.19141
812.9277, 15.04613
813.4099, 16.76413
813.8920, 18.38649
814.3741, 20.18542
814.8562, 22.35643
815.3383, 24.61841
815.8204, 26.46017
816.3026, 28.19855
816.7847, 30.65175
817.2668, 33.84117
817.7489, 37.05466
818.2310, 39.87973
818.7131, 42.53255
819.1953, 45.54552
819.6774, 49.12006
820.1595, 51.68719
820.6416, 52.52438
821.1237, 53.76624
821.6058, 56.58359
822.0880, 59.92975
822.5701, 62.68442
823.0522, 64.84958
823.5343, 66.82181
824.0164, 68.43469
824.4985, 70.14728
824.9807, 72.18460
825.4628, 74.42444
825.9449, 76.81815
826.4270, 79.27750
826.9091, 81.57434
827.3912, 83.57220
827.8734, 85.45880
828.3555, 87.44415
828.8376, 89.54749
829.3197, 91.84494
829.8018, 94.32834
830.2839, 97.01505
830.7661, 99.88974
831.2482, 103.0135
831.7303, 106.5376
832.2124, 110.4793
832.6945, 114.5302
833.1766, 118.3916
833.6588, 122.7656
834.1409, 127.9089
834.6230, 133.4661
835.1051, 139.2439
835.5872, 145.2094
836.0693, 151.3886
836.5515, 157.6919
837.0336, 164.3539
837.5157, 171.3099
837.9978, 178.8600
838.4799, 187.6508
838.9620, 197.3954
839.4442, 206.9832
839.9263, 215.8679
840.4084, 225.0202
840.8905, 235.7314
841.3726, 247.8159
841.8547, 260.1947
842.3369, 272.7944
842.8190, 285.4911
843.3011, 298.0347
843.7832, 310.9031
844.2653, 324.4665
844.7474, 338.7532
845.2296, 354.0897
845.7117, 371.1841
846.1938, 388.2055
846.6759, 404.9590
847.1580, 421.6678
847.6401, 438.2705
848.1223, 455.0485
848.6044, 472.8233
849.0865, 492.1039
849.5686, 510.9994
850.0507, 528.7372
850.5328, 545.4962
851.0150, 561.8026
851.4971, 577.3133
851.9792, 591.4059
852.4613, 603.7996
852.9434, 614.6799
853.4255, 624.1344
853.9077, 632.0605
854.3898, 637.9561
854.8719, 641.8427
855.3540, 644.1231
855.8361, 644.7393
856.3182, 644.4362
856.8004, 643.9224
857.2825, 642.8046
857.7646, 639.8064
858.2467, 634.6631
858.7288, 628.1727
859.2109, 619.2632
859.6931, 610.3460
860.1752, 601.7809
860.6573, 593.9099
861.1394, 587.5082
861.6215, 582.5248
862.1036, 576.9585
862.5858, 569.2361
863.0679, 561.3879
863.5500, 555.2794
864.0321, 549.6785
864.5142, 542.9050
864.9963, 534.8647
865.4785, 526.3871
865.9606, 517.8817
866.4427, 509.6477
866.9248, 502.3670
867.4069, 495.8719
867.8890, 489.2156
868.3712, 482.3521
868.8533, 475.2768
869.3354, 467.7959
869.8175, 460.6656
870.2996, 455.0182
870.7817, 450.8528
871.2639, 446.7921
871.7459, 442.4786
872.2280, 438.9002
872.7101, 436.1528
873.1923, 434.2996
873.6744, 433.7346
874.1565, 434.0724
874.6386, 434.2803
875.1207, 433.8678
875.6028, 434.3442
876.0850, 436.3148
876.5671, 439.2822
877.0492, 443.1129
877.5313, 447.5947
878.0134, 452.4639
878.4955, 457.6416
878.9777, 463.2160
879.4598, 469.3922
879.9419, 475.8460
880.4240, 482.2552
880.9061, 488.5934
881.3882, 494.7262
881.8704, 500.6169
882.3525, 505.8961
882.8346, 510.2730
883.3167, 514.0303
883.7988, 517.9497
884.2809, 522.3161
884.7631, 524.7298
885.2452, 524.7233
885.7273, 523.9374
886.2094, 523.1510
886.6915, 521.5950
887.1736, 518.3832
887.6558, 513.5355
888.1379, 507.4635
888.6200, 499.9132
889.1021, 491.4718
889.5842, 482.5492
890.0663, 472.3768
890.5485, 460.3459
891.0306, 446.7078
891.5127, 431.9781
891.9948, 416.1737
892.4769, 399.9555
892.9590, 383.4747
893.4412, 366.9927
893.9233, 350.7558
894.4054, 334.8111
894.8875, 319.3934
895.3696, 304.5978
895.8517, 290.1949
896.3339, 276.0357
896.8160, 262.4530
897.2981, 250.2502
897.7802, 239.3848
898.2623, 229.0533
898.7444, 219.2350
899.2266, 209.5575
899.7087, 199.6883
900.1908, 190.1682
900.6729, 181.8015
901.1550, 174.6219
901.6371, 167.7983
902.1193, 161.0822
902.6014, 155.1261
903.0835, 150.1653
903.5656, 145.8970
904.0477, 142.3336
904.5298, 139.2783
905.0120, 136.2863
905.4941, 133.2728
905.9762, 130.4742
906.4583, 127.8632
906.9404, 125.5942
907.4225, 124.0233
907.9047, 122.7510
908.3868, 121.2726
908.8689, 119.4988
909.3510, 117.5271
909.8331, 115.2504
910.3152, 113.0842
910.7974, 111.6012
911.2795, 110.4546
911.7616, 109.0755
912.2437, 107.3963
912.7258, 105.3865
913.2079, 103.0307
913.6901, 100.7412
914.1722, 99.02725
914.6543, 97.86218
915.1364, 96.95938
915.6185, 96.30200
916.1006, 96.43771
916.5828, 97.60558
917.0649, 99.11050
917.5470, 100.3478
918.0291, 101.5021
918.5112, 103.2823
918.9933, 106.0093
919.4755, 108.5751
919.9576, 110.7952
920.4397, 113.1208
920.9218, 115.6156
921.4039, 118.3866
921.8860, 121.8779
922.3682, 126.0131
922.8503, 129.1132
923.3324, 130.4879
923.8145, 131.4257
924.2966, 132.5534
924.7787, 133.1281
925.2609, 132.7869
925.7430, 131.3688
926.2251, 128.6293
926.7072, 124.4862
927.1893, 119.3470
927.6714, 113.1604
928.1536, 106.4326
928.6357, 99.62555
929.1178, 92.61282
929.5999, 84.82159
930.0820, 76.35135
930.5641, 68.32761
931.0463, 61.50851
931.5284, 55.26694
932.0105, 48.59889
932.4926, 41.70135
932.9747, 35.32764
933.4568, 29.53629
933.9390, 24.34709
934.4211, 19.81892
934.9032, 15.84396
935.3853, 12.35718
935.8674, 9.305054
936.3495, 6.327774
936.8317, 3.318085
937.3138, 0.8803710
937.7959, 0.7416990
938.2780, 2.194550
938.7601, 3.828705
939.2422, 5.550812
939.7244, 7.308823
940.2065, 9.245193
940.6886, 10.37024
941.1707, 10.06267
941.6528, 9.836639
942.1349, 10.06194
942.6171, 10.38870
943.0992, 10.61024
943.5813, 10.71700
944.0634, 10.72649
944.5455, 10.65379
945.0276, 10.43713
945.5098, 10.13184
945.9919, 9.593231
946.4740, 8.712799
946.9561, 7.544434
947.4382, 6.012543
947.9203, 4.234772
948.4025, 2.683563
948.8846, 1.670364
949.3667, 0.8123170
949.8488, 0.1828460
950.3309, 1.306091
950.8130, 2.427246
951.2952, 3.667831
951.7773, 5.495316
952.2594, 8.029068
952.7415, 10.73833
953.2236, 13.11301
953.7057, 15.32231
954.1878, 17.80878
954.6699, 20.53029
955.1520, 23.11465
955.6342, 25.52547
956.1163, 28.27228
956.5984, 31.62987
957.0805, 35.54134
957.5626, 39.92073
958.0447, 44.79301
958.5269, 49.85191
959.0090, 55.09608
959.4911, 60.64705
959.9732, 66.60110
960.4553, 72.70667
960.9374, 78.82181
961.4196, 84.85182
961.9017, 90.50775
962.3838, 95.63579
962.8659, 100.8484
963.3480, 106.6281
963.8301, 111.8008
964.3123, 116.3889
964.7944, 119.9813
965.2765, 122.2127
965.7586, 123.1367
966.2407, 123.1088
966.7228, 122.5764
967.2050, 120.2791
967.6871, 115.0735
968.1692, 108.9811
968.6513, 102.8381
969.1334, 96.73282
969.6155, 90.62814
970.0977, 84.53534
970.5798, 78.71777
971.0619, 73.23407
971.5440, 68.23753
972.0261, 64.02600
972.5082, 60.19647
972.9904, 56.15523
973.4725, 52.21901
973.9546, 49.25197
974.4367, 47.44786
974.9188, 46.05486
975.4009, 44.54463
975.8831, 43.04182
976.3652, 41.51865
976.8473, 40.20152
977.3294, 39.62148
977.8115, 39.75302
978.2936, 40.21083
978.7758, 40.81429
979.2579, 41.56146
979.7400, 42.43463
980.2221, 43.44121
980.7042, 44.65919
981.1863, 46.07228
981.6685, 47.56750
982.1506, 49.08339
982.6327, 50.72241
983.1148, 52.67549
983.5969, 54.64578
984.0790, 55.92880
984.5612, 56.51625
985.0433, 57.54146
985.5254, 59.01297
986.0075, 60.91850
986.4896, 63.32976
986.9717, 65.96722
987.4539, 68.67244
987.9360, 71.36539
988.4181, 73.79669
988.9002, 75.91826
989.3823, 77.84384
989.8644, 79.05801
990.3466, 81.11887
990.8287, 85.15033
991.3108, 89.53708
991.7929, 92.77173
992.2750, 95.00554
992.7571, 97.09848
993.2393, 99.17444
993.7214, 100.8852
994.2035, 102.1978
994.6856, 103.1923
995.1677, 103.7763
995.6498, 104.0864
996.1320, 104.4398
996.6141, 104.7350
997.0962, 104.2527
997.5783, 102.2700
998.0604, 100.4503
998.5425, 99.48100
999.0247, 98.70340
999.5068, 97.84149
999.9889, 96.74872
1000.471, 95.24176
1000.953, 93.34303
1001.435, 91.40140
1001.917, 89.59778
1002.399, 87.74881
1002.882, 86.02126
1003.364, 83.99731
1003.846, 81.04291
1004.328, 77.58444
1004.810, 74.37030
1005.292, 71.62115
1005.774, 69.20508
1006.256, 66.96515
1006.739, 65.02541
1007.221, 63.85805
1007.703, 62.87790
1008.185, 61.06248
1008.667, 58.65361
1009.149, 56.73495
1009.631, 55.63655
1010.113, 54.39932
1010.595, 52.07912
1011.078, 49.25905
1011.560, 46.72482
1012.042, 44.42033
1012.524, 42.24524
1013.006, 40.14769
1013.488, 37.94997
1013.970, 35.57634
1014.452, 33.41872
1014.935, 32.13977
1015.417, 31.22305
1015.899, 29.18217
1016.381, 26.29498
1016.863, 23.91974
1017.345, 22.22113
1017.827, 20.58900
1018.309, 18.72322
1018.791, 16.76006
1019.274, 14.81937
1019.756, 12.94302
1020.238, 11.33893
1020.720, 10.01221
1021.202, 8.787689
1021.684, 7.614456
1022.166, 6.772461
1022.648, 6.473160
1023.130, 6.366486
1023.613, 5.872437
1024.095, 5.007996
1024.577, 4.141113
1025.059, 3.278641
1025.541, 2.334656
1026.023, 1.216721
1026.505, 0.3096770
1026.987, 0.1788480
1027.469, 0.2317500
1027.952, 0.2629550
1028.434, 1.342255
1028.916, 2.112656
1029.398, 2.647827
1029.880, 2.575134
1030.362, 1.647018
1030.844, 0.4754940
1031.326, 0.7050170
1031.809, 1.672104
1032.291, 1.897064
1032.773, 1.235199
1033.255, 1.077377
1033.737, 1.798569
1034.219, 2.195496
1034.701, 1.892929
1035.183, 1.439529
1035.666, 1.104996
1036.148, 0.9146580
1036.630, 0.9848020
1037.112, 1.424469
1037.594, 1.497757
1038.076, 0.9542240
1038.558, 0.4479370
1039.040, 0.5923460
1039.522, 0.2821040
1040.005, 1.929504
1040.487, 4.882202
1040.969, 5.946716
1041.451, 4.657822
1041.933, 3.884857
1042.415, 3.982849
1042.897, 4.177444
1043.379, 4.416153
1043.861, 4.623459
1044.344, 4.694565
1044.826, 4.730652
1045.308, 4.915619
1045.790, 5.299805
1046.272, 5.869186
1046.754, 6.717224
1047.236, 7.502716
1047.718, 8.203995
1048.201, 8.840927
1048.683, 9.374390
1049.165, 9.802307
1049.647, 10.14452
1050.129, 10.40677
1050.611, 10.74727
1051.093, 11.26646
1051.575, 11.77252
1052.057, 12.14630
1052.540, 12.55345
1053.022, 13.16763
1053.504, 13.86621
1053.986, 14.56432
1054.468, 15.27448
1054.950, 15.36491
1055.432, 13.94952
1055.914, 12.79385
1056.396, 12.68379
1056.879, 12.91019
1057.361, 13.07410
1057.843, 13.13051
1058.325, 13.12276
1058.807, 13.05632
1059.289, 12.72885
1059.771, 11.77869
1060.253, 10.95670
1060.736, 10.77837
1061.218, 10.60509
1061.700, 9.831467
1062.182, 8.771317
1062.664, 7.969101
1063.146, 7.507141
1063.628, 7.179489
1064.110, 7.010437
1064.593, 6.823120
1065.075, 6.500748
1065.557, 6.183334
1066.039, 5.995544
1066.521, 5.867523
1067.003, 5.620300
1067.485, 5.276932
1067.967, 5.196075
1068.449, 5.800842
1068.932, 6.185272
1069.414, 5.513504
1069.896, 4.904968
1070.378, 5.502563
1070.860, 6.533463
1071.342, 6.835663
1071.824, 6.324005
1072.306, 5.688171
1072.788, 5.163483
1073.271, 4.585983
1073.753, 3.518875
1074.235, 2.752487
1074.717, 3.320175
1075.199, 4.249466
1075.681, 4.080917
1076.163, 2.918121
1076.645, 2.106415
1077.127, 2.165436
1077.610, 2.410782
1078.092, 2.321350
1078.574, 2.536530
1079.056, 4.066666
1079.538, 5.741974
1080.020, 5.992172
1080.502, 5.062180
1080.984, 4.327805
1081.467, 4.227310
1081.949, 4.268265
1082.431, 4.220718
1082.913, 4.256485
1083.395, 4.599808
1083.877, 4.969330
1084.359, 5.055145
1084.841, 4.903107
1085.323, 4.741440
1085.806, 4.650391
1086.288, 4.651138
1086.770, 4.609024
1087.252, 4.781815
1087.734, 5.691071
1088.216, 6.520905
1088.698, 6.413315
1089.180, 5.602219
1089.662, 4.684982
1090.145, 3.822144
1090.627, 3.386353
1091.109, 3.572540
1091.591, 3.983597
1092.073, 4.800613
1092.555, 5.546280
1093.037, 5.873413
1093.519, 5.816803
1094.002, 5.470016
1094.484, 4.838699
1094.966, 3.924500
1095.448, 2.283035
1095.930, 1.128937
1096.412, 1.298141
1096.894, 1.541672
1097.376, 0.9267120
1097.859, 0.1080170
1098.341, 8.8638000E-02
1098.823, 0.3298650
1099.305, 0.7768710
1099.787, 1.147644
1100.269, 1.477234
1100.751, 2.020523
1101.233, 2.230545
1101.715, 1.682343
1102.198, 0.7842560
1102.680, 0.2546540
1103.162, 1.255173
1103.644, 1.655640
1104.126, 1.114182
1104.608, 0.8172910
1105.090, 1.373322
1105.572, 1.682053
1106.054, 1.161163
1106.537, 0.4282990
1107.019, 0.1310420
1107.501, 0.4796750
1107.983, 0.5701140
1108.465, 0.3546450
1108.947, 0.1404420
1109.429, 0.1064910
1109.911, 0.2656560
1110.394, 0.1091310
1110.876, 7.3409997E-02
1111.358, 0.6647640
1111.840, 1.434097
1112.322, 1.569656
1112.804, 1.023834
1113.286, 0.6739350
1113.768, 0.6838990
1114.250, 0.6205900
1114.733, 0.4075780
1115.215, 0.1810300
1115.697, 1.8661000E-02
1116.179, 0.1890870
1116.661, 0.3186650
1117.143, 0.4149780
1117.625, 0.5375210
1118.107, 0.7780000
1118.589, 0.8091280
1119.072, 0.4001620
1119.554, 0.2456510
1120.036, 0.6065980
1120.518, 1.245590
1121.000, 2.156906
1121.482, 3.058716
1121.964, 3.025314
1122.446, 1.827789
1122.929, 1.030914
1123.411, 0.5976410
1123.893, 0.7752080
1124.375, 1.852997
1124.857, 2.817490
1125.339, 2.991119
1125.821, 2.752151
1126.303, 2.743942
1126.786, 2.942749
1127.268, 3.012283
1127.750, 2.963593
1128.232, 2.608170
1128.714, 1.849503
1129.196, 1.353333
1129.678, 1.435837
1130.160, 1.882568
1130.642, 2.552322
1131.125, 3.241989
1131.607, 3.047760
1132.089, 2.045685
1132.571, 1.683762
1133.053, 2.031021
1133.535, 2.432449
1134.017, 2.681122
1134.499, 2.943832
1134.981, 3.378922
1135.464, 3.797394
1135.946, 3.643997
1136.428, 3.199127
1136.910, 3.830765
1137.392, 5.227921
1137.874, 5.725113
1138.356, 5.135849
1138.838, 4.644287
1139.321, 4.859634
1139.803, 5.059921
1140.285, 4.183441
1140.767, 2.986267
1141.249, 2.932281
1141.731, 3.604904
1142.213, 4.366257
1142.695, 4.947830
1143.177, 4.641312
1143.660, 3.372986
1144.142, 2.430450
1144.624, 2.840622
1145.106, 3.660629
1145.588, 4.068802
1146.070, 4.191971
1146.552, 4.018173
1147.034, 3.752716
1147.516, 3.863144
1147.999, 4.272720
1148.481, 4.280441
1148.963, 3.495911
1149.445, 2.901230
1149.927, 3.372742
1150.409, 3.961899
1150.891, 3.960129
1151.373, 3.725739
1151.856, 3.597626
1152.338, 3.599319
1152.820, 3.644196
1153.302, 3.712570
1153.784, 4.003189
1154.266, 4.988235
1154.748, 5.656113
1155.230, 5.200958
1155.713, 4.827957
1156.195, 5.629272
1156.677, 6.754257
1157.159, 6.878174
1157.641, 6.134628
1158.123, 6.005722
1158.605, 7.259995
1159.087, 7.779755
1159.569, 6.868454
1160.052, 5.972092
1160.534, 5.326080
1161.016, 4.924011
1161.498, 5.011765
1161.980, 5.360565
1162.462, 5.321732
1162.944, 4.812195
1163.426, 4.143753
1163.908, 3.130722
1164.391, 2.792984
1164.873, 3.471252
1165.355, 4.128799
1165.837, 4.322556
1166.319, 4.237991
1166.801, 4.077957
1167.283, 3.845993
1167.765, 3.536865
1168.247, 3.155411
1168.730, 3.055832
1169.212, 3.231995
1169.694, 3.186523
1170.176, 2.823120
1170.658, 2.640152
1171.140, 2.963272
1171.622, 3.427612
1172.104, 3.459106
1172.587, 3.211258
1173.069, 3.157181
1173.551, 3.225830
1174.033, 3.208511
1174.515, 3.064285
1174.997, 2.727158
1175.479, 2.188080
1175.961, 1.659698
1176.443, 1.238434
1176.926, 1.086746
1177.408, 1.723099
1177.890, 2.489059
1178.372, 2.307419
1178.854, 1.618179
1179.336, 1.337418
1179.818, 1.586090
1180.300, 2.143738
1180.782, 2.948898
1181.265, 3.441025
1181.747, 3.234314
1182.229, 2.733215
1182.711, 1.752716
1183.193, 0.9889220
1183.675, 1.336533
1184.157, 2.297058
1184.639, 2.951782
1185.122, 3.152069
1185.604, 3.090439
1186.086, 2.684692
1186.568, 2.247269
1187.050, 1.746521
1187.532, 1.337830
1188.014, 0.9485470
1188.496, 0.8789060
1188.979, 1.458786
1189.461, 2.330292
1189.943, 2.749985
1190.425, 2.633011
1190.907, 2.590225
1191.389, 2.694397
1191.871, 2.658310
1192.353, 2.402267
1192.835, 2.083542
1193.318, 1.730362
1193.800, 1.494644
1194.282, 1.593842
1194.764, 1.940125
1195.246, 2.155640
1195.728, 2.244781
1196.210, 2.505875
1196.692, 2.932037
1197.174, 3.078232
1197.657, 2.846725
1198.139, 2.587265
1198.621, 2.513031
1199.103, 2.511566
1199.585, 2.447372
1200.067, 2.342453
1200.549, 2.230347
1201.031, 2.105698
1201.514, 1.840805
1201.996, 1.567780
1202.478, 1.824936
1202.960, 2.642624
1203.442, 3.139038
1203.924, 2.680267
1204.406, 2.125290
1204.888, 2.347824
1205.370, 2.509857
1205.853, 1.595718
1206.335, 0.4544530
1206.817, 0.1988070
1207.299, 0.6164550
1207.781, 0.9047240
1208.263, 0.9060670
1208.745, 0.7886200
1209.227, 0.3842160
1209.709, 0.1742400
1210.192, 0.4170530
1210.674, 0.6868440
1211.156, 0.7463070
1211.638, 0.7532200
1212.120, 0.8733670
1212.602, 1.060593
1213.084, 1.188049
1213.566, 1.228500
1214.049, 1.361160
1214.531, 1.624756
1215.013, 1.837250
1215.495, 1.982452
1215.977, 1.967590
1216.459, 1.717911
1216.941, 1.415863
1217.423, 1.263809
1217.906, 1.272369
1218.388, 1.544647
1218.870, 2.009995
1219.352, 2.387115
1219.834, 2.605942
1220.316, 2.490143
1220.798, 2.025024
1221.280, 1.302689
1221.762, 0.3477780
1222.245, 0.2950590
1222.727, 6.2973000E-02
1223.209, 0.8809200
1223.691, 1.822830
1224.173, 2.635834
1224.655, 3.007416
1225.137, 2.969696
1225.619, 2.474274
1226.101, 1.652145
1226.584, 1.163467
1227.066, 1.422607
1227.548, 1.550644
1228.030, 1.152985
1228.512, 0.7027440
1228.994, 0.3016970
1229.476, 2.0858999E-02
1229.958, 0.1341550
1230.441, 0.1141360
1230.923, 0.2760770
1231.405, 1.024948
1231.887, 1.324432
1232.369, 1.032318
1232.851, 0.7677610
1233.333, 0.5632930
1233.815, 0.2751460
1234.297, 0.2020570
1234.780, 0.3660580
1235.262, 0.2022400
1235.744, 1.043503
1236.226, 1.434998
1236.708, 1.395874
1237.190, 0.6857760
1237.672, 0.4019620
1238.154, 0.3216090
1238.636, 0.8092650
1239.119, 1.739136
1239.601, 2.078201
1240.083, 1.966202
1240.565, 1.422653
1241.047, 0.7816010
1241.529, 0.2246860
1242.011, 0.1268620
1242.493, 0.1620940
1242.975, 7.9727001E-02
1243.458, 0.8609920
1243.940, 1.767670
1244.422, 1.889404
1244.904, 1.133209
1245.386, 0.3283230
1245.868, 0.9677430
1246.350, 1.044449
1246.832, 1.928970
1247.315, 4.035294
1247.797, 3.411789
1248.279, 2.156815
1248.761, 1.615265
1249.243, 1.510895
1249.725, 1.344955
1250.207, 1.129425
1250.689, 1.250992
1251.172, 1.771088
1251.654, 1.861084
1252.136, 1.433670
1252.618, 1.128357
1253.100, 1.123932
1253.582, 1.114700
1254.064, 0.9787750
1254.546, 0.7821660
1255.028, 0.5966950
1255.510, 0.4876860
1255.993, 0.7156220
1256.475, 1.039551
1256.957, 0.9520570
1257.439, 0.5809020
1257.921, 0.4137880
1258.403, 0.5048980
1258.885, 0.6296540
1259.367, 0.6779170
1259.850, 0.7351380
1260.332, 0.9679720
1260.814, 1.185486
1261.296, 1.058121
1261.778, 1.176468
1262.260, 1.817978
1262.742, 2.661316
1263.224, 3.235153
1263.707, 3.560593
1264.189, 3.547211
1264.671, 2.996277
1265.153, 2.267014
1265.635, 1.512283
1266.117, 1.338974
1266.599, 1.633011
1267.081, 2.139847
1267.563, 2.770233
1268.046, 2.995407
1268.528, 1.977890
1269.010, 0.4348450
1269.492, 2.6550000E-03
1269.974, 0.3556520
1270.456, 0.9653020
1270.938, 1.643555
1271.420, 2.098587
1271.902, 2.312088
1272.385, 2.355453
1272.867, 2.257248
1273.349, 2.052368
1273.831, 1.121979
1274.313, 0.9740140
1274.795, 3.876297
1275.277, 6.112366
1275.759, 4.220612
1276.242, 1.065033
1276.724, 8.7784000E-02
1277.206, 0.2934110
1277.688, 0.5080720
1278.170, 0.4409940
1278.652, 0.5848080
1279.134, 1.068100
1279.616, 1.239075
1280.099, 0.9384000
1280.581, 0.6985780
1281.063, 1.054932
1281.545, 1.366287
1282.027, 1.217697
1282.509, 0.8209380
1282.991, 0.3489380
1283.473, 4.3179998E-03
1283.955, 0.0000000E+00
##END=



