##NAMES=Meieranite
##RRUFFID=R140947
##IDEAL CHEMISTRY=Na_2_Sr_3_MgSi_6_O_17_
##LOCALITY=Wessels mine, Kalahari Manganese Fields, Northern Cape Province, South Africa
##OWNER=RRUFF
##SOURCE=Jaco and Tania Janse van Nieuwenhuizen
##DESCRIPTION=Aggregates of granular blue crystals, associated with massive pale green sugilite, prismatic grey aegirine and bladed white pectolite. Type sample
##STATUS=The identification of this mineral is confirmed by single-crystal X-ray diffraction and chemical analysis.
##URL=rruff.info/R140947
##MEASURED CHEMISTRY=Na_1.96_(Sr_2.91_Ba_0.03_Ca_0.03_Pb_0.02_)_Σ2.99_(Mg_0.62_Mn_0.28_Co_0.07_Fe_0.01_)_Σ0.98_Si_6.03_O_17_ ; = bright phase. Grey phase is sugilite.
134.1379, 0.0000000E+00
134.6201, 4.542480
135.1022, 14.57568
135.5843, 26.71118
136.0664, 40.07886
136.5485, 53.76489
137.0306, 68.50317
137.5128, 81.49390
137.9949, 90.14966
138.4770, 94.45044
138.9591, 93.33691
139.4412, 85.78394
139.9233, 70.62085
140.4055, 56.26636
140.8876, 41.70605
141.3697, 28.36768
141.8518, 18.68701
142.3339, 13.11890
142.8160, 10.23193
143.2982, 10.16040
143.7803, 13.73071
144.2624, 22.75879
144.7445, 33.68896
145.2266, 40.40186
145.7087, 47.16577
146.1909, 54.67749
146.6730, 60.30469
147.1551, 63.25952
147.6372, 64.10620
148.1193, 62.83521
148.6014, 58.63403
149.0836, 52.32642
149.5657, 46.47192
150.0478, 41.43994
150.5299, 36.68457
151.0120, 31.94019
151.4941, 27.56494
151.9763, 23.10962
152.4584, 18.09668
152.9405, 12.52148
153.4226, 7.047363
153.9047, 0.7155760
154.3868, 6.759277
154.8690, 8.887939
155.3511, 1.270752
155.8332, 4.600098
156.3153, 6.323730
156.7974, 7.937256
157.2795, 12.02930
157.7617, 15.36523
158.2438, 18.70679
158.7259, 24.47974
159.2080, 34.43945
159.6901, 43.11963
160.1722, 50.23804
160.6544, 56.46973
161.1365, 61.90771
161.6186, 64.94189
162.1007, 66.85181
162.5828, 69.55054
163.0649, 75.98853
163.5471, 81.49780
164.0292, 83.28149
164.5113, 81.39624
164.9934, 78.67285
165.4755, 76.40259
165.9576, 74.37109
166.4398, 72.16772
166.9219, 70.65869
167.4040, 68.16089
167.8861, 62.73169
168.3682, 54.08862
168.8503, 46.12036
169.3325, 41.14429
169.8146, 38.55249
170.2967, 37.34888
170.7788, 38.31226
171.2609, 39.87256
171.7430, 40.72046
172.2252, 40.96851
172.7073, 40.54443
173.1894, 39.71216
173.6715, 38.67627
174.1536, 37.34082
174.6357, 36.14746
175.1179, 34.63086
175.6000, 31.97852
176.0821, 27.95654
176.5642, 23.70703
177.0463, 21.17383
177.5284, 19.52441
178.0106, 16.20557
178.4927, 7.648926
178.9748, 2.960449
179.4569, 10.12012
179.9390, 13.11182
180.4211, 13.44141
180.9033, 11.74512
181.3854, 8.416992
181.8675, 5.569824
182.3496, 4.930664
182.8317, 5.615723
183.3138, 5.350586
183.7960, 3.915527
184.2781, 1.582031
184.7602, 1.530762
185.2423, 5.352539
185.7244, 8.906250
186.2065, 12.17041
186.6887, 14.79297
187.1708, 15.12744
187.6529, 12.15723
188.1350, 8.493652
188.6171, 9.180664
189.0992, 14.13770
189.5814, 19.22119
190.0635, 22.23877
190.5456, 23.33496
191.0277, 22.41895
191.5098, 18.54883
191.9919, 14.32861
192.4741, 13.46484
192.9562, 16.04639
193.4383, 18.97266
193.9204, 19.32812
194.4025, 17.41064
194.8846, 18.26172
195.3668, 23.10449
195.8489, 30.29297
196.3310, 36.07764
196.8131, 40.36133
197.2952, 43.84424
197.7773, 46.71045
198.2595, 48.89795
198.7416, 52.01465
199.2237, 56.76660
199.7058, 62.11279
200.1879, 64.61475
200.6700, 63.79980
201.1522, 62.67188
201.6343, 64.11426
202.1164, 68.67285
202.5985, 70.21289
203.0806, 67.57666
203.5627, 61.82520
204.0449, 55.97217
204.5270, 49.85254
205.0091, 44.24707
205.4912, 39.33105
205.9733, 34.77783
206.4554, 32.13525
206.9376, 32.63574
207.4197, 34.97607
207.9018, 34.10596
208.3839, 29.25000
208.8660, 23.20752
209.3481, 17.17920
209.8303, 10.42383
210.3124, 7.430664
210.7945, 10.09668
211.2766, 16.70020
211.7587, 19.87158
212.2408, 18.16357
212.7230, 15.81689
213.2051, 16.34082
213.6872, 20.35791
214.1693, 23.45459
214.6514, 24.47119
215.1335, 24.04590
215.6157, 25.43115
216.0978, 29.74902
216.5799, 33.73486
217.0620, 35.04199
217.5441, 32.45410
218.0262, 30.45312
218.5084, 29.43506
218.9905, 29.33398
219.4726, 29.79150
219.9547, 31.15430
220.4368, 32.69922
220.9189, 33.80957
221.4011, 34.09082
221.8832, 35.49805
222.3653, 39.17676
222.8474, 44.22119
223.3295, 46.47754
223.8116, 44.53223
224.2938, 41.90967
224.7759, 40.66455
225.2580, 41.15430
225.7401, 42.05615
226.2222, 43.34912
226.7043, 44.89893
227.1865, 46.67773
227.6686, 48.84814
228.1507, 50.79346
228.6328, 52.09961
229.1149, 52.64160
229.5970, 52.80615
230.0792, 52.58691
230.5613, 52.03320
231.0434, 50.95410
231.5255, 48.42432
232.0076, 46.82910
232.4897, 47.85303
232.9719, 53.68994
233.4540, 57.31787
233.9361, 57.85254
234.4182, 56.11133
234.9003, 54.91357
235.3824, 54.27686
235.8646, 54.16162
236.3467, 54.63184
236.8288, 56.33838
237.3109, 55.82861
237.7930, 52.09521
238.2751, 46.60107
238.7573, 43.65723
239.2394, 44.95703
239.7215, 46.38232
240.2036, 46.00000
240.6857, 43.24121
241.1678, 39.38086
241.6500, 33.49170
242.1321, 26.84766
242.6142, 22.94482
243.0963, 23.85498
243.5784, 24.31885
244.0605, 21.79980
244.5427, 14.48193
245.0248, 8.855469
245.5069, 5.473633
245.9890, 3.550293
246.4711, 1.415039
246.9532, 1.204102
247.4354, 3.295410
247.9175, 4.375000
248.3996, 4.040039
248.8817, 3.826172
249.3638, 3.856445
249.8459, 3.874023
250.3281, 3.357910
250.8102, 2.026855
251.2923, 0.3935550
251.7744, 1.657227
252.2565, 4.482422
252.7386, 6.013672
253.2208, 5.805176
253.7029, 4.676758
254.1850, 3.833984
254.6671, 3.075195
255.1492, 2.840332
255.6313, 3.114746
256.1135, 3.736816
256.5956, 5.685547
257.0777, 10.36523
257.5598, 14.76416
258.0419, 14.05615
258.5240, 5.138184
259.0062, 2.059082
259.4883, 4.256836
259.9704, 1.089844
260.4525, 0.7416990
260.9346, 0.9663090
261.4167, 0.1484380
261.8989, 1.502441
262.3810, 4.948242
262.8631, 6.362305
263.3452, 3.947266
263.8273, 2.409668
264.3094, 5.860352
264.7916, 5.779785
265.2737, 4.229004
265.7558, 2.812988
266.2379, 0.9995120
266.7200, 1.425293
267.2021, 5.822754
267.6843, 13.40576
268.1664, 16.73828
268.6485, 14.67236
269.1306, 10.96631
269.6127, 8.067871
270.0948, 5.474121
270.5770, 5.693359
271.0591, 10.12646
271.5412, 17.49072
272.0233, 21.61963
272.5054, 21.32178
272.9875, 20.41162
273.4697, 21.99805
273.9518, 26.71094
274.4339, 29.84668
274.9160, 30.60254
275.3981, 29.58301
275.8802, 27.92090
276.3624, 24.91309
276.8445, 24.10596
277.3266, 29.57520
277.8087, 42.07568
278.2908, 49.42432
278.7729, 49.40332
279.2551, 45.24805
279.7372, 44.19336
280.2193, 46.68604
280.7014, 49.66162
281.1835, 51.65967
281.6656, 52.69629
282.1478, 52.93945
282.6299, 51.79443
283.1120, 51.07617
283.5941, 54.43311
284.0762, 62.08936
284.5583, 69.98096
285.0405, 76.49902
285.5226, 81.72119
286.0047, 86.00781
286.4868, 89.00732
286.9689, 92.22168
287.4510, 98.38623
287.9332, 107.3076
288.4153, 115.3623
288.8974, 120.7505
289.3795, 123.9893
289.8616, 126.1045
290.3438, 126.8354
290.8259, 128.1738
291.3080, 133.9878
291.7901, 143.1162
292.2722, 149.0366
292.7543, 148.1313
293.2365, 143.2280
293.7186, 140.4507
294.2007, 139.8008
294.6828, 140.8608
295.1649, 144.8105
295.6470, 150.4287
296.1292, 153.5635
296.6113, 151.6313
297.0934, 148.2861
297.5755, 150.9473
298.0576, 158.9790
298.5397, 165.2202
299.0219, 161.6006
299.5040, 152.6777
299.9861, 148.7061
300.4682, 153.0293
300.9503, 160.2007
301.4324, 164.1626
301.9146, 165.4351
302.3967, 166.3667
302.8788, 167.7539
303.3609, 169.9028
303.8430, 173.5981
304.3251, 179.4473
304.8073, 184.8711
305.2894, 186.8252
305.7715, 186.4106
306.2536, 186.5044
306.7357, 189.0273
307.2178, 192.3540
307.7000, 194.7129
308.1821, 195.8594
308.6642, 196.6006
309.1463, 196.7832
309.6284, 196.9219
310.1105, 197.9658
310.5927, 200.2056
311.0748, 203.4600
311.5569, 208.8008
312.0390, 216.1680
312.5211, 221.4746
313.0032, 220.2285
313.4854, 216.7295
313.9675, 215.5244
314.4496, 222.7988
314.9317, 228.6333
315.4138, 226.9946
315.8959, 219.1221
316.3781, 212.5630
316.8602, 213.0708
317.3423, 214.9346
317.8244, 214.2539
318.3065, 209.0898
318.7886, 202.0576
319.2708, 192.4272
319.7529, 181.3521
320.2350, 172.0044
320.7171, 168.2930
321.1992, 164.4961
321.6813, 157.2168
322.1635, 143.4858
322.6456, 131.5693
323.1277, 124.0610
323.6098, 119.1074
324.0919, 113.6250
324.5740, 104.9326
325.0562, 97.62793
325.5383, 94.01270
326.0204, 95.78223
326.5025, 94.70703
326.9846, 86.64502
327.4667, 77.05029
327.9489, 71.70312
328.4310, 77.35596
328.9131, 79.89062
329.3952, 75.61816
329.8773, 64.33887
330.3594, 56.90381
330.8416, 55.29297
331.3237, 55.93018
331.8058, 56.30859
332.2879, 55.82227
332.7700, 56.06982
333.2521, 57.19238
333.7343, 59.12695
334.2164, 61.85449
334.6985, 66.03564
335.1806, 69.74707
335.6627, 72.06592
336.1448, 72.99463
336.6270, 71.80566
337.1091, 66.85938
337.5912, 60.98340
338.0733, 60.96631
338.5554, 68.95605
339.0375, 75.82959
339.5197, 77.22461
340.0018, 72.71533
340.4839, 70.57129
340.9660, 71.41406
341.4481, 73.21191
341.9302, 73.35645
342.4124, 71.78027
342.8945, 69.40625
343.3766, 65.99561
343.8587, 61.99170
344.3408, 59.73047
344.8229, 59.37598
345.3051, 59.50488
345.7872, 58.85254
346.2693, 57.51270
346.7514, 56.13916
347.2335, 54.71924
347.7156, 53.57129
348.1978, 53.79736
348.6799, 55.28809
349.1620, 56.15771
349.6441, 54.68945
350.1262, 51.76758
350.6083, 49.41846
351.0905, 48.02637
351.5726, 47.23242
352.0547, 45.53760
352.5368, 43.66162
353.0189, 43.84082
353.5010, 48.99023
353.9832, 55.87988
354.4653, 61.13184
354.9474, 64.38916
355.4295, 64.47607
355.9116, 57.08203
356.3937, 47.33545
356.8759, 42.52246
357.3580, 49.23926
357.8401, 57.65234
358.3222, 61.15137
358.8043, 60.54590
359.2864, 60.21191
359.7686, 62.09717
360.2507, 65.49512
360.7328, 69.92822
361.2149, 76.40381
361.6970, 82.04590
362.1791, 84.64258
362.6613, 85.45264
363.1434, 87.44092
363.6255, 93.97461
364.1076, 99.84863
364.5897, 102.8926
365.0718, 102.7529
365.5540, 99.61475
366.0361, 91.01758
366.5182, 80.27637
367.0003, 71.36768
367.4824, 68.22314
367.9645, 63.48096
368.4467, 54.67725
368.9288, 41.71289
369.4109, 30.74219
369.8930, 22.22217
370.3751, 15.52246
370.8572, 10.34814
371.3394, 7.766602
371.8215, 5.038086
372.3036, 1.445313
372.7857, 2.417480
373.2678, 4.207031
373.7499, 2.756348
374.2321, 1.438477
374.7142, 2.363770
375.1963, 6.714844
375.6784, 8.227539
376.1605, 6.139648
376.6426, 2.156738
377.1248, 0.9443360
377.6069, 3.091797
378.0890, 4.231934
378.5711, 3.715820
379.0532, 1.978516
379.5353, 2.056152
380.0175, 4.115234
380.4996, 7.748535
380.9817, 13.82715
381.4638, 21.78613
381.9459, 26.62744
382.4280, 25.85742
382.9102, 23.26904
383.3923, 27.58252
383.8744, 38.04004
384.3565, 46.67871
384.8386, 45.96143
385.3207, 40.09521
385.8029, 37.33496
386.2850, 38.52979
386.7671, 42.59814
387.2492, 51.11084
387.7313, 61.79346
388.2134, 69.23730
388.6956, 66.85205
389.1777, 62.78857
389.6598, 65.12061
390.1419, 73.67627
390.6240, 82.85156
391.1061, 89.41797
391.5883, 94.97266
392.0704, 101.1157
392.5525, 107.5581
393.0346, 115.8057
393.5167, 128.0273
393.9988, 142.9292
394.4810, 156.9819
394.9631, 166.4399
395.4452, 176.7085
395.9273, 192.1138
396.4094, 216.9761
396.8915, 234.6421
397.3737, 240.2373
397.8558, 237.5171
398.3379, 231.1094
398.8200, 219.6450
399.3021, 206.2183
399.7842, 190.8784
400.2664, 173.5884
400.7485, 155.7363
401.2306, 135.3735
401.7127, 116.3926
402.1948, 101.5415
402.6769, 92.80078
403.1591, 83.72998
403.6412, 73.52393
404.1233, 62.96338
404.6054, 53.74121
405.0875, 45.94336
405.5696, 39.52637
406.0518, 35.35303
406.5339, 33.61377
407.0160, 28.69824
407.4981, 19.96289
407.9802, 10.26172
408.4623, 2.802246
408.9445, 2.383789
409.4266, 6.591309
409.9087, 10.04004
410.3908, 12.67236
410.8729, 14.80615
411.3550, 16.33203
411.8372, 15.96484
412.3193, 10.56201
412.8014, 2.709473
413.2835, 0.6987300
413.7656, 2.228027
414.2477, 5.659668
414.7299, 3.077637
415.2120, 3.814941
415.6941, 10.85986
416.1762, 16.49512
416.6583, 21.05420
417.1404, 23.96875
417.6226, 25.32959
418.1047, 27.87598
418.5868, 34.31299
419.0689, 42.07812
419.5510, 48.97314
420.0331, 54.88818
420.5153, 59.01904
420.9974, 59.30518
421.4795, 57.43750
421.9616, 57.54639
422.4437, 64.08740
422.9258, 70.15137
423.4080, 72.98486
423.8901, 72.15918
424.3722, 69.67236
424.8543, 65.35156
425.3364, 59.78955
425.8185, 53.36523
426.3007, 43.27539
426.7828, 36.58887
427.2649, 35.75342
427.7470, 39.61377
428.2291, 40.84619
428.7112, 39.26025
429.1934, 35.17432
429.6755, 27.45264
430.1576, 14.40039
430.6397, 6.454590
431.1218, 5.051270
431.6039, 7.112793
432.0861, 8.096680
432.5682, 7.873535
433.0503, 6.230469
433.5324, 2.705078
434.0145, 1.728516
434.4966, 4.272461
434.9788, 4.911133
435.4609, 4.627930
435.9430, 4.292480
436.4251, 3.519043
436.9072, 1.132813
437.3893, 3.558594
437.8715, 8.860840
438.3536, 13.33203
438.8357, 16.89160
439.3178, 19.30371
439.7999, 18.45801
440.2820, 17.57422
440.7642, 20.36768
441.2463, 27.02393
441.7284, 32.51855
442.2105, 32.46240
442.6926, 30.60107
443.1747, 30.58105
443.6569, 35.17529
444.1390, 39.44727
444.6211, 42.51562
445.1032, 44.16602
445.5853, 43.59863
446.0674, 37.18848
446.5496, 31.77686
447.0317, 30.66748
447.5138, 36.22217
447.9959, 39.07422
448.4780, 38.60303
448.9601, 36.18164
449.4423, 32.74072
449.9244, 26.42920
450.4065, 23.45605
450.8886, 26.11328
451.3707, 32.73193
451.8528, 35.60840
452.3350, 33.02734
452.8171, 31.79932
453.2992, 37.03662
453.7813, 48.82666
454.2634, 55.84961
454.7455, 56.97754
455.2277, 55.99316
455.7098, 56.95898
456.1919, 59.84131
456.6740, 65.50098
457.1561, 76.33447
457.6382, 88.09229
458.1204, 91.97607
458.6025, 88.96094
459.0846, 85.47559
459.5667, 86.16357
460.0488, 88.98730
460.5309, 91.48730
461.0131, 93.40430
461.4952, 94.74658
461.9773, 94.50244
462.4594, 93.87012
462.9415, 94.63965
463.4236, 100.3774
463.9058, 104.8701
464.3879, 104.9062
464.8700, 100.7817
465.3521, 96.41260
465.8342, 92.68359
466.3163, 88.91699
466.7985, 84.44531
467.2806, 78.45020
467.7627, 73.16699
468.2448, 67.66113
468.7269, 63.38037
469.2090, 62.89795
469.6912, 70.19482
470.1733, 74.52295
470.6554, 72.44482
471.1375, 64.57959
471.6196, 59.45752
472.1017, 57.99463
472.5839, 56.73682
473.0660, 52.84180
473.5481, 46.01611
474.0302, 40.24316
474.5123, 35.68359
474.9944, 32.81641
475.4766, 34.44189
475.9587, 39.51074
476.4408, 40.71191
476.9229, 31.57715
477.4050, 19.08789
477.8871, 15.99023
478.3693, 21.42969
478.8514, 27.14746
479.3335, 26.00586
479.8156, 22.46338
480.2977, 21.84766
480.7798, 25.49512
481.2620, 30.56152
481.7441, 37.15820
482.2262, 43.61475
482.7083, 47.47607
483.1904, 44.58789
483.6725, 42.00928
484.1547, 42.19580
484.6368, 45.02637
485.1189, 48.67334
485.6010, 54.34229
486.0831, 59.54883
486.5652, 62.76465
487.0474, 62.15381
487.5295, 63.71875
488.0116, 69.23975
488.4937, 75.56445
488.9758, 77.41162
489.4579, 72.13818
489.9401, 70.96338
490.4222, 78.59082
490.9043, 92.15039
491.3864, 98.54834
491.8685, 97.15869
492.3506, 91.87158
492.8328, 82.80273
493.3149, 71.63770
493.7970, 66.87158
494.2791, 70.14307
494.7612, 75.13184
495.2433, 73.85400
495.7255, 68.46387
496.2076, 64.69971
496.6897, 65.67871
497.1718, 68.26904
497.6539, 69.86768
498.1360, 70.60547
498.6182, 70.98730
499.1003, 70.19922
499.5824, 69.88672
500.0645, 71.63867
500.5466, 76.40723
501.0287, 79.75537
501.5109, 79.46338
501.9930, 77.48193
502.4751, 75.72461
502.9572, 72.67773
503.4393, 71.90674
503.9214, 74.76562
504.4036, 80.16846
504.8857, 84.61523
505.3678, 88.28369
505.8499, 90.84961
506.3320, 92.33691
506.8141, 92.83154
507.2963, 90.95166
507.7784, 85.82617
508.2605, 80.76318
508.7426, 79.94678
509.2247, 83.01758
509.7068, 84.62793
510.1890, 84.06689
510.6711, 81.02148
511.1532, 72.41553
511.6353, 59.76025
512.1174, 50.57129
512.5995, 51.39258
513.0817, 56.25928
513.5638, 58.83057
514.0459, 58.90479
514.5280, 56.62988
515.0101, 50.72559
515.4922, 43.25635
515.9744, 36.01465
516.4565, 28.74414
516.9386, 23.06787
517.4207, 19.91260
517.9028, 18.68506
518.3849, 18.38379
518.8671, 22.07227
519.3492, 23.12354
519.8313, 17.78027
520.3134, 6.884766
520.7955, 3.243164
521.2776, 10.93604
521.7598, 19.52246
522.2419, 23.16260
522.7240, 21.22754
523.2061, 16.97949
523.6882, 9.163574
524.1703, 2.307129
524.6525, 3.604004
525.1346, 12.14307
525.6167, 16.70068
526.0988, 13.08838
526.5809, 5.684082
527.0630, 1.582520
527.5452, 0.3295900
528.0273, 0.3681640
528.5094, 2.339844
528.9915, 4.337402
529.4736, 5.023926
529.9557, 3.890625
530.4379, 1.221191
530.9200, 3.324707
531.4021, 7.694336
531.8842, 9.344727
532.3663, 4.774414
532.8484, 2.090332
533.3306, 3.894043
533.8127, 8.342773
534.2948, 11.75098
534.7769, 14.18066
535.2590, 14.98193
535.7411, 13.28564
536.2233, 9.333008
536.7054, 8.768066
537.1875, 13.68359
537.6696, 18.08350
538.1517, 16.96631
538.6339, 9.625000
539.1160, 7.797363
539.5981, 12.98145
540.0802, 20.64795
540.5623, 25.65967
541.0444, 28.49609
541.5266, 29.52197
542.0087, 27.27881
542.4908, 25.54883
542.9729, 30.53809
543.4550, 40.43359
543.9371, 48.16162
544.4193, 45.34033
544.9014, 41.58643
545.3835, 46.40234
545.8656, 61.06201
546.3477, 73.67676
546.8298, 78.20801
547.3120, 79.37891
547.7941, 80.97754
548.2762, 82.95801
548.7583, 86.27783
549.2404, 91.47119
549.7225, 97.84082
550.2047, 104.6533
550.6868, 113.8887
551.1689, 119.7319
551.6510, 120.5942
552.1331, 116.8521
552.6152, 109.9917
553.0974, 99.56494
553.5795, 88.68945
554.0616, 78.85791
554.5437, 70.30615
555.0258, 64.26904
555.5079, 61.07227
555.9901, 59.19629
556.4722, 57.92480
556.9543, 56.74316
557.4364, 54.33398
557.9185, 49.41602
558.4006, 44.57861
558.8828, 40.85107
559.3649, 38.63379
559.8470, 38.88135
560.3291, 44.32959
560.8112, 49.89893
561.2933, 53.28125
561.7755, 54.24756
562.2576, 54.55957
562.7397, 52.39600
563.2218, 51.11475
563.7039, 52.86328
564.1860, 60.32129
564.6682, 63.62402
565.1503, 61.30176
565.6324, 56.93506
566.1145, 55.20947
566.5966, 56.51758
567.0787, 58.19678
567.5609, 60.38477
568.0430, 62.04883
568.5251, 59.75928
569.0072, 54.12012
569.4893, 49.43213
569.9714, 50.02295
570.4536, 52.05566
570.9357, 48.60547
571.4178, 39.99121
571.8999, 33.29590
572.3820, 35.05225
572.8641, 39.60889
573.3463, 42.14990
573.8284, 41.78223
574.3105, 39.31787
574.7926, 32.61475
575.2747, 24.71338
575.7568, 19.53076
576.2390, 20.83594
576.7211, 19.98047
577.2032, 14.56104
577.6853, 6.395996
578.1674, 1.927734
578.6495, 1.981934
579.1317, 3.532715
579.6138, 6.485840
580.0959, 10.28467
580.5780, 8.857910
581.0601, 1.725586
581.5422, 4.851563
582.0244, 3.780273
582.5065, 1.805176
582.9886, 3.071289
583.4707, 1.996582
583.9528, 6.309570
584.4349, 2.186035
584.9171, 6.468262
585.3992, 13.89502
585.8813, 20.93945
586.3634, 23.16553
586.8455, 13.37793
587.3276, 3.179199
587.8098, 11.75635
588.2919, 0.7197270
588.7740, 10.93018
589.2561, 10.65820
589.7382, 0.3725590
590.2203, 7.498535
590.7025, 9.989746
591.1846, 9.881836
591.6667, 7.587891
592.1488, 2.774902
592.6309, 0.3398440
593.1130, 0.7412110
593.5952, 2.079102
594.0773, 1.425781
594.5594, 0.4707030
595.0415, 0.1489260
595.5236, 4.350098
596.0057, 9.085449
596.4879, 10.15381
596.9700, 8.045410
597.4521, 3.937500
597.9342, 6.556641
598.4163, 14.55420
598.8984, 12.47021
599.3806, 1.628906
599.8627, 4.969238
600.3448, 0.1015630
600.8269, 5.969727
601.3090, 8.065430
601.7911, 4.540527
602.2733, 3.428711
602.7554, 5.646973
603.2375, 8.940430
603.7196, 11.26758
604.2017, 12.62988
604.6838, 12.83984
605.1660, 10.76172
605.6481, 10.23438
606.1302, 20.70020
606.6123, 39.32227
607.0944, 52.46387
607.5765, 51.44043
608.0587, 46.20020
608.5408, 47.94580
609.0229, 55.32617
609.5050, 63.74170
609.9871, 70.63086
610.4692, 77.79004
610.9514, 85.97119
611.4335, 95.25049
611.9156, 106.0703
612.3977, 121.5615
612.8798, 136.2173
613.3619, 145.8867
613.8441, 145.4741
614.3262, 153.3428
614.8083, 172.2427
615.2904, 195.8228
615.7725, 215.7598
616.2546, 231.8296
616.7368, 248.3936
617.2189, 265.1357
617.7010, 285.4595
618.1831, 317.3267
618.6652, 358.4922
619.1473, 400.3003
619.6295, 433.8203
620.1116, 468.7471
620.5937, 515.5122
621.0758, 572.5630
621.5579, 633.9116
622.0400, 697.3442
622.5222, 762.1528
623.0043, 826.4824
623.4864, 888.7627
623.9685, 958.7559
624.4506, 1039.599
624.9327, 1126.556
625.4149, 1215.899
625.8970, 1302.510
626.3791, 1405.494
626.8612, 1529.193
627.3433, 1663.086
627.8254, 1791.122
628.3076, 1913.910
628.7897, 2045.171
629.2718, 2189.715
629.7539, 2342.721
630.2360, 2499.556
630.7181, 2657.924
631.2003, 2808.361
631.6824, 2950.244
632.1645, 3079.687
632.6466, 3201.493
633.1287, 3312.112
633.6108, 3382.311
634.0930, 3406.791
634.5751, 3385.553
635.0572, 3315.195
635.5393, 3192.144
636.0214, 3037.012
636.5035, 2839.688
636.9857, 2621.790
637.4678, 2394.023
637.9499, 2152.243
638.4320, 1935.617
638.9141, 1749.286
639.3962, 1586.099
639.8784, 1437.737
640.3605, 1306.310
640.8426, 1195.741
641.3247, 1111.345
641.8068, 1042.369
642.2889, 979.0635
642.7711, 922.3047
643.2532, 872.0991
643.7353, 829.6997
644.2174, 793.6201
644.6995, 765.3433
645.1816, 743.6807
645.6638, 721.8003
646.1459, 695.2500
646.6280, 673.4751
647.1101, 660.9570
647.5922, 658.6079
648.0743, 651.1841
648.5565, 635.4531
649.0386, 622.0063
649.5207, 618.2378
650.0028, 624.0610
650.4849, 639.3965
650.9670, 664.5225
651.4492, 693.8530
651.9313, 720.0645
652.4134, 746.6216
652.8955, 779.6514
653.3776, 823.3423
653.8597, 868.4526
654.3419, 908.9268
654.8240, 947.9653
655.3061, 989.5835
655.7882, 1031.840
656.2703, 1080.536
656.7524, 1140.246
657.2346, 1207.406
657.7167, 1271.990
658.1988, 1334.294
658.6809, 1396.068
659.1630, 1459.960
659.6451, 1523.753
660.1273, 1574.933
660.6094, 1613.952
661.0915, 1642.629
661.5736, 1666.925
662.0557, 1680.873
662.5378, 1672.610
663.0200, 1641.511
663.5021, 1591.357
663.9842, 1516.306
664.4663, 1427.833
664.9484, 1336.766
665.4305, 1243.613
665.9127, 1150.465
666.3948, 1055.707
666.8769, 962.5781
667.3590, 873.2446
667.8411, 786.2612
668.3232, 708.3550
668.8054, 642.3457
669.2875, 584.1812
669.7696, 526.3574
670.2517, 468.7197
670.7338, 419.0117
671.2159, 381.5737
671.6981, 351.2158
672.1802, 319.7490
672.6623, 288.0503
673.1444, 258.2544
673.6265, 231.2207
674.1086, 207.1636
674.5908, 187.2808
675.0729, 171.2114
675.5550, 155.4458
676.0371, 136.2817
676.5192, 119.7974
677.0013, 109.6284
677.4835, 106.5923
677.9656, 100.1816
678.4477, 87.78223
678.9298, 76.69922
679.4119, 73.25146
679.8940, 77.47754
680.3762, 78.74951
680.8583, 76.62256
681.3404, 72.01465
681.8225, 63.16064
682.3046, 52.91699
682.7867, 48.17676
683.2689, 52.20215
683.7510, 55.53516
684.2331, 49.30566
684.7152, 39.02734
685.1973, 31.81934
685.6794, 31.71875
686.1616, 32.31201
686.6437, 32.21777
687.1258, 32.26123
687.6079, 34.12695
688.0900, 38.68408
688.5721, 42.79883
689.0543, 46.20020
689.5364, 48.18896
690.0185, 45.14258
690.5006, 37.25977
690.9827, 31.76074
691.4648, 35.69629
691.9470, 42.40576
692.4291, 40.61719
692.9112, 31.65576
693.3933, 22.96729
693.8754, 18.99316
694.3575, 16.42090
694.8397, 13.39062
695.3218, 9.803223
695.8039, 5.764160
696.2860, 0.6420900
696.7681, 5.400879
697.2502, 5.739746
697.7324, 6.9824003E-02
698.2145, 2.213379
698.6966, 0.3461910
699.1787, 2.626953
699.6608, 3.981445
700.1429, 3.921387
700.6251, 2.979980
701.1072, 0.9926760
701.5893, 0.1406250
702.0714, 3.729004
702.5535, 9.074707
703.0356, 10.16650
703.5178, 1.352539
703.9999, 4.663574
704.4820, 1.112305
704.9641, 11.58643
705.4462, 15.37939
705.9283, 5.912109
706.4105, 0.5112300
706.8926, 0.9160160
707.3747, 2.253418
707.8568, 3.021973
708.3389, 1.128906
708.8210, 0.1274410
709.3032, 0.8271480
709.7853, 2.574219
710.2674, 2.921875
710.7495, 1.701660
711.2316, 1.673828
711.7137, 11.64551
712.1959, 20.47607
712.6780, 21.07812
713.1601, 14.45850
713.6422, 8.984375
714.1243, 4.559570
714.6064, 4.279297
715.0886, 11.72314
715.5707, 27.41064
716.0528, 32.66455
716.5349, 24.19287
717.0170, 13.91602
717.4991, 10.11328
717.9813, 11.76611
718.4634, 9.390137
718.9455, 2.552734
719.4276, 2.706543
719.9097, 0.9257810
720.3918, 8.375977
720.8740, 12.49658
721.3561, 11.76514
721.8382, 10.90771
722.3203, 10.91699
722.8024, 12.45361
723.2845, 16.44043
723.7667, 28.37891
724.2488, 32.28027
724.7309, 22.90820
725.2130, 11.02197
725.6951, 10.33398
726.1772, 21.69336
726.6594, 30.98535
727.1415, 35.81299
727.6236, 38.32666
728.1057, 42.08252
728.5878, 45.92139
729.0699, 46.69287
729.5521, 41.97852
730.0342, 36.21631
730.5163, 31.04199
730.9984, 27.17920
731.4805, 25.90527
731.9626, 31.83447
732.4448, 35.13867
732.9269, 31.99561
733.4090, 25.58838
733.8911, 25.81543
734.3732, 35.19873
734.8553, 40.36621
735.3375, 34.95068
735.8196, 24.30713
736.3017, 22.86230
736.7838, 29.44971
737.2659, 36.94482
737.7480, 42.91504
738.2302, 46.90771
738.7123, 47.16943
739.1944, 44.61719
739.6765, 43.76660
740.1586, 47.31934
740.6407, 51.90723
741.1229, 56.60889
741.6050, 61.37793
742.0871, 63.99170
742.5692, 63.12305
743.0513, 63.36572
743.5334, 68.41211
744.0156, 77.31543
744.4977, 80.00732
744.9798, 76.52637
745.4619, 75.53076
745.9440, 88.33594
746.4261, 105.0635
746.9083, 111.4067
747.3904, 105.9009
747.8725, 103.6304
748.3546, 114.6919
748.8367, 129.0508
749.3188, 139.3320
749.8010, 142.1807
750.2831, 151.1973
750.7652, 170.4243
751.2473, 189.4429
751.7294, 199.1816
752.2115, 199.6958
752.6937, 201.2930
753.1758, 204.2622
753.6579, 210.9282
754.1400, 227.5601
754.6221, 248.1792
755.1042, 262.9995
755.5864, 268.9897
756.0685, 274.5396
756.5506, 282.3896
757.0327, 292.9658
757.5148, 306.5957
757.9969, 325.9287
758.4791, 345.0273
758.9612, 363.7798
759.4433, 382.3730
759.9254, 400.7583
760.4075, 418.9810
760.8896, 435.4541
761.3718, 449.7808
761.8539, 463.8174
762.3360, 482.8843
762.8181, 502.9897
763.3002, 516.8818
763.7823, 522.6714
764.2645, 522.9697
764.7466, 516.3066
765.2287, 505.8008
765.7108, 496.2031
766.1929, 495.0747
766.6750, 485.0254
767.1572, 460.6514
767.6393, 429.6646
768.1214, 408.1128
768.6035, 397.1572
769.0856, 378.1733
769.5677, 342.8525
770.0499, 303.5508
770.5320, 280.5425
771.0141, 269.3970
771.4962, 257.8643
771.9783, 239.5132
772.4604, 219.2197
772.9426, 197.4111
773.4247, 175.7212
773.9068, 158.4434
774.3889, 149.3813
774.8710, 139.5845
775.3531, 126.5327
775.8353, 112.1812
776.3174, 102.7334
776.7995, 98.45605
777.2816, 94.22607
777.7637, 88.18359
778.2458, 81.74854
778.7280, 78.36670
779.2101, 77.21289
779.6922, 74.91211
780.1743, 68.67383
780.6564, 61.61328
781.1385, 52.39307
781.6207, 42.76904
782.1028, 41.38574
782.5849, 57.19922
783.0670, 67.27979
783.5491, 62.48926
784.0313, 48.07422
784.5134, 48.06006
784.9955, 62.69873
785.4776, 71.04102
785.9597, 58.53857
786.4418, 37.21875
786.9240, 24.10059
787.4061, 18.44385
787.8882, 17.93262
788.3703, 27.54443
788.8524, 36.18701
789.3345, 37.35742
789.8167, 31.95654
790.2988, 28.56592
790.7809, 28.86768
791.2630, 28.47412
791.7451, 25.02051
792.2272, 19.96191
792.7094, 20.88232
793.1915, 27.72998
793.6736, 32.85986
794.1557, 30.75684
794.6378, 25.47900
795.1199, 20.44141
795.6021, 16.53857
796.0842, 15.47949
796.5663, 23.49756
797.0484, 30.18994
797.5305, 29.08301
798.0126, 21.31689
798.4948, 17.38330
798.9769, 18.73096
799.4590, 20.47070
799.9411, 20.62012
800.4232, 19.60986
800.9053, 18.38086
801.3875, 17.11182
801.8696, 17.32227
802.3517, 23.61719
802.8338, 29.20996
803.3159, 24.18701
803.7980, 10.89111
804.2802, 3.773926
804.7623, 14.01416
805.2444, 24.24316
805.7265, 26.45020
806.2086, 22.09082
806.6907, 26.26025
807.1729, 41.54053
807.6550, 53.83252
808.1371, 55.98975
808.6192, 50.56055
809.1013, 42.17920
809.5834, 31.70264
810.0656, 23.76904
810.5477, 24.04492
811.0298, 25.54248
811.5119, 21.50049
811.9940, 13.23633
812.4761, 11.67334
812.9583, 27.40918
813.4404, 38.74414
813.9225, 37.50195
814.4046, 26.27783
814.8867, 20.47217
815.3688, 20.32275
815.8510, 21.72461
816.3331, 23.48242
816.8152, 24.83105
817.2973, 22.06787
817.7794, 16.99072
818.2615, 17.11621
818.7437, 34.00635
819.2258, 49.13867
819.7079, 51.76172
820.1900, 43.56006
820.6721, 40.35449
821.1542, 45.62891
821.6364, 47.84277
822.1185, 41.91113
822.6006, 30.82129
823.0827, 24.18066
823.5648, 21.67578
824.0469, 19.97363
824.5291, 18.10889
825.0112, 15.85352
825.4933, 11.64307
825.9754, 6.791016
826.4575, 5.208008
826.9396, 15.72803
827.4218, 20.76221
827.9039, 11.99365
828.3860, 5.009766
828.8681, 10.06982
829.3502, 0.8662110
829.8323, 6.453613
830.3145, 5.875488
830.7966, 0.9101560
831.2787, 2.768066
831.7608, 5.290039
832.2429, 6.891113
832.7250, 7.996094
833.2072, 7.963867
833.6893, 5.473633
834.1714, 1.582031
834.6535, 0.9628910
835.1356, 2.937012
835.6177, 1.876953
836.0999, 3.871094
836.5820, 11.71191
837.0641, 16.30029
837.5462, 17.69482
838.0283, 16.41016
838.5104, 11.86475
838.9926, 6.126953
839.4747, 1.489746
839.9568, 2.657715
840.4389, 7.498047
840.9210, 17.71631
841.4031, 23.16406
841.8853, 17.84229
842.3674, 8.262207
842.8495, 3.568359
843.3316, 4.667969
843.8137, 5.645996
844.2958, 5.250488
844.7780, 5.112305
845.2601, 9.569336
845.7422, 16.02637
846.2243, 17.70117
846.7064, 10.56836
847.1885, 4.003418
847.6707, 4.651855
848.1528, 8.306641
848.6349, 10.10986
849.1170, 9.506836
849.5991, 7.002441
850.0812, 1.165039
850.5634, 3.968262
851.0455, 1.781250
851.5276, 6.335449
852.0097, 7.490234
852.4918, 1.014160
852.9739, 8.446289
853.4561, 1.800781
853.9382, 9.709961
854.4203, 15.06787
854.9024, 9.664551
855.3845, 6.985352
855.8666, 10.68896
856.3488, 16.83789
856.8309, 23.78320
857.3130, 32.26025
857.7951, 33.45605
858.2772, 25.83398
858.7593, 20.33838
859.2415, 30.64990
859.7236, 47.86279
860.2057, 56.78760
860.6878, 56.09961
861.1699, 54.04297
861.6520, 55.21533
862.1342, 55.87451
862.6163, 53.29443
863.0984, 47.45264
863.5805, 42.30420
864.0626, 37.52148
864.5447, 35.09570
865.0269, 39.55225
865.5090, 47.04492
865.9911, 39.45850
866.4732, 19.58594
866.9553, 6.169434
867.4374, 17.55225
867.9196, 33.79102
868.4017, 41.05518
868.8838, 39.99756
869.3659, 39.73291
869.8480, 42.81885
870.3301, 43.42334
870.8123, 38.64941
871.2944, 30.52881
871.7765, 25.90527
872.2586, 24.59619
872.7407, 25.50146
873.2228, 30.50928
873.7050, 34.70752
874.1871, 30.18652
874.6692, 21.28955
875.1513, 17.43848
875.6334, 29.49756
876.1155, 37.04639
876.5977, 34.54785
877.0798, 27.21094
877.5619, 24.85449
878.0440, 28.00000
878.5261, 29.18115
879.0082, 26.45312
879.4904, 22.53418
879.9725, 19.79980
880.4546, 18.66504
880.9367, 20.50342
881.4188, 28.66309
881.9009, 33.11426
882.3831, 25.64258
882.8652, 15.57275
883.3473, 13.12891
883.8294, 21.70361
884.3115, 23.97266
884.7936, 18.08252
885.2758, 10.96143
885.7579, 9.853516
886.2400, 12.56592
886.7221, 15.19824
887.2042, 18.13867
887.6863, 21.31006
888.1685, 25.22168
888.6506, 28.92188
889.1327, 31.38086
889.6148, 32.39062
890.0969, 33.51758
890.5790, 34.43311
891.0612, 36.08691
891.5433, 39.67773
892.0254, 44.43018
892.5075, 45.88721
892.9896, 44.60889
893.4717, 46.30957
893.9539, 59.90137
894.4360, 72.22803
894.9181, 72.63574
895.4002, 63.31592
895.8823, 58.89600
896.3644, 62.17383
896.8466, 68.17285
897.3287, 77.74658
897.8108, 87.41553
898.2929, 85.21240
898.7750, 74.09766
899.2571, 68.26758
899.7393, 75.97705
900.2214, 85.83545
900.7035, 86.65430
901.1856, 83.63379
901.6677, 85.26025
902.1498, 99.67090
902.6320, 109.1567
903.1141, 110.5210
903.5962, 109.2852
904.0783, 114.2339
904.5604, 124.5269
905.0425, 130.1221
905.5247, 128.8535
906.0068, 124.9189
906.4889, 118.7480
906.9710, 114.3608
907.4531, 118.1890
907.9352, 135.9072
908.4174, 143.2280
908.8995, 130.2612
909.3816, 115.2979
909.8637, 109.6421
910.3458, 113.0332
910.8279, 113.5264
911.3101, 111.9155
911.7922, 108.8843
912.2743, 103.6001
912.7564, 97.62793
913.2385, 91.97461
913.7206, 86.91309
914.2028, 83.99512
914.6849, 85.30273
915.1670, 87.08838
915.6491, 88.75879
916.1312, 90.04736
916.6133, 89.40479
917.0955, 86.86914
917.5776, 84.85400
918.0597, 85.11768
918.5418, 85.17041
919.0239, 79.92725
919.5060, 72.50098
919.9882, 68.90771
920.4703, 75.00586
920.9524, 79.78418
921.4345, 79.70264
921.9166, 78.60107
922.3987, 81.24805
922.8809, 87.74854
923.3630, 95.51416
923.8451, 104.6157
924.3272, 112.5361
924.8093, 114.6431
925.2914, 114.8164
925.7736, 118.4800
926.2557, 127.1460
926.7378, 135.2441
927.2199, 137.1958
927.7020, 142.2925
928.1841, 157.0996
928.6663, 181.5928
929.1484, 197.4165
929.6305, 204.2305
930.1126, 213.6411
930.5947, 236.0586
931.0768, 263.5562
931.5590, 284.8750
932.0411, 301.9365
932.5232, 321.9219
933.0053, 346.4712
933.4874, 376.1201
933.9695, 413.6055
934.4517, 454.7666
934.9338, 488.3359
935.4159, 513.7749
935.8980, 547.8242
936.3801, 596.9751
936.8622, 649.3784
937.3444, 692.3867
937.8265, 727.9258
938.3086, 760.1138
938.7907, 795.9727
939.2728, 815.4185
939.7549, 813.4883
940.2371, 796.0493
940.7192, 765.0107
941.2013, 720.0610
941.6834, 672.1748
942.1655, 621.8296
942.6476, 568.5820
943.1298, 504.7046
943.6119, 443.2163
944.0940, 400.9897
944.5761, 377.7930
945.0582, 350.8408
945.5403, 310.1191
946.0225, 270.3555
946.5046, 235.5127
946.9867, 205.4766
947.4688, 179.1948
947.9509, 156.9478
948.4330, 138.0791
948.9152, 122.9790
949.3973, 110.2817
949.8794, 99.62354
950.3615, 90.20264
950.8436, 80.57373
951.3257, 67.49170
951.8079, 59.20264
952.2900, 59.18408
952.7721, 60.03027
953.2542, 50.87793
953.7363, 33.50586
954.2184, 22.31982
954.7006, 19.44434
955.1827, 16.44385
955.6648, 3.714844
956.1469, 10.29395
956.6290, 17.07324
957.1111, 14.63232
957.5933, 15.82178
958.0754, 23.71289
958.5575, 29.90234
959.0396, 29.56592
959.5217, 24.76709
960.0038, 21.78662
960.4860, 20.69092
960.9681, 21.83740
961.4502, 29.85156
961.9323, 35.71826
962.4144, 33.75098
962.8965, 25.82568
963.3787, 15.97266
963.8608, 2.675781
964.3429, 7.830078
964.8250, 14.56836
965.3071, 18.98242
965.7892, 19.28174
966.2714, 19.21875
966.7535, 30.72266
967.2356, 57.61230
967.7177, 81.33545
968.1998, 89.87451
968.6819, 92.59814
969.1641, 93.43994
969.6462, 91.68359
970.1283, 104.8105
970.6104, 135.7939
971.0925, 165.9321
971.5746, 181.0684
972.0568, 190.4131
972.5389, 213.9614
973.0210, 246.9448
973.5031, 272.9175
973.9852, 280.2603
974.4673, 285.2563
974.9495, 294.6904
975.4316, 303.6694
975.9137, 303.2729
976.3958, 293.3115
976.8779, 278.4355
977.3600, 258.4971
977.8422, 238.4741
978.3243, 225.5034
978.8064, 214.5513
979.2885, 197.7798
979.7706, 171.2568
980.2527, 153.1982
980.7349, 152.3857
981.2170, 152.1641
981.6991, 142.1709
982.1812, 124.4697
982.6633, 117.1782
983.1454, 119.2793
983.6276, 120.1943
984.1097, 109.2310
984.5918, 98.57715
985.0739, 99.91357
985.5560, 108.6880
986.0381, 112.4727
986.5203, 107.9565
987.0024, 103.1943
987.4845, 98.46777
987.9666, 95.39795
988.4487, 97.88135
988.9308, 103.9521
989.4130, 106.5513
989.8951, 103.5996
990.3772, 104.9185
990.8593, 124.1646
991.3414, 143.5684
991.8235, 146.5195
992.3057, 131.6069
992.7878, 135.3735
993.2699, 160.9331
993.7520, 185.7915
994.2341, 194.7163
994.7162, 197.7334
995.1984, 212.7012
995.6805, 236.0444
996.1626, 257.5737
996.6447, 273.1680
997.1268, 286.7578
997.6089, 295.0645
998.0911, 305.4531
998.5732, 332.7710
999.0553, 376.8315
999.5374, 404.4854
1000.020, 410.3994
1000.502, 406.8311
1000.984, 404.1997
1001.466, 397.8530
1001.948, 381.4351
1002.430, 353.3677
1002.912, 328.1875
1003.394, 309.8506
1003.876, 288.8130
1004.359, 259.3677
1004.841, 225.5059
1005.323, 200.0200
1005.805, 181.6729
1006.287, 166.2520
1006.769, 152.7915
1007.251, 140.4253
1007.733, 128.2275
1008.216, 117.2759
1008.698, 109.2100
1009.180, 104.7295
1009.662, 100.2324
1010.144, 95.50977
1010.626, 90.72949
1011.108, 85.86963
1011.590, 81.13525
1012.072, 75.08105
1012.555, 68.07324
1013.037, 67.78662
1013.519, 88.62744
1014.001, 101.3467
1014.483, 93.68457
1014.965, 73.61914
1015.447, 67.07812
1015.929, 72.37012
1016.411, 76.41699
1016.894, 75.29590
1017.376, 72.35107
1017.858, 68.57568
1018.340, 65.01660
1018.822, 63.14404
1019.304, 63.73877
1019.786, 63.20947
1020.268, 61.78564
1020.751, 61.04736
1021.233, 63.73584
1021.715, 67.85596
1022.197, 64.13184
1022.679, 54.12402
1023.161, 49.44531
1023.643, 63.81543
1024.125, 75.63721
1024.607, 72.16455
1025.090, 61.76807
1025.572, 62.65039
1026.054, 75.60889
1026.536, 87.80518
1027.018, 96.97949
1027.500, 104.4580
1027.982, 111.3828
1028.464, 117.5430
1028.947, 122.6279
1029.429, 126.3936
1029.911, 129.8750
1030.393, 132.2217
1030.875, 136.7314
1031.357, 147.6504
1031.839, 161.1650
1032.321, 159.1094
1032.803, 146.1602
1033.286, 141.8418
1033.768, 170.1562
1034.250, 192.8887
1034.732, 187.6445
1035.214, 169.2725
1035.696, 159.4600
1036.178, 159.7168
1036.660, 159.7324
1037.143, 158.9150
1037.625, 156.2988
1038.107, 149.9199
1038.589, 141.6953
1039.071, 133.2178
1039.553, 124.6973
1040.035, 118.6621
1040.517, 115.7363
1041.000, 115.4072
1041.482, 118.8232
1041.964, 123.6221
1042.446, 121.5342
1042.928, 115.2764
1043.410, 116.8789
1043.892, 133.0947
1044.374, 148.3691
1044.856, 150.8262
1045.339, 149.5645
1045.821, 152.2744
1046.303, 159.0098
1046.785, 170.4150
1047.267, 186.5312
1047.749, 206.6934
1048.231, 233.4863
1048.713, 261.4912
1049.195, 283.5977
1049.677, 301.6035
1050.160, 317.9160
1050.642, 327.2344
1051.124, 345.1631
1051.606, 378.2197
1052.088, 413.3086
1052.570, 430.1631
1053.052, 433.2764
1053.534, 441.7568
1054.017, 458.1709
1054.499, 470.3838
1054.981, 462.1025
1055.463, 455.1250
1055.945, 466.8477
1056.427, 493.0879
1056.909, 507.7314
1057.391, 508.7930
1057.874, 515.0264
1058.356, 535.4668
1058.838, 562.5977
1059.320, 587.6455
1059.802, 613.1270
1060.284, 644.1309
1060.766, 682.9268
1061.248, 727.0557
1061.730, 778.9053
1062.213, 830.8535
1062.695, 880.4883
1063.177, 925.4971
1063.659, 959.8145
1064.141, 983.0830
1064.623, 993.0029
1065.105, 987.0020
1065.587, 968.6670
1066.070, 941.0049
1066.552, 900.6182
1067.034, 835.2051
1067.516, 743.4639
1067.998, 665.9600
1068.480, 609.2617
1068.962, 557.6621
1069.444, 494.3740
1069.927, 432.0088
1070.409, 382.5049
1070.891, 347.7363
1071.373, 312.6562
1071.855, 275.5049
1072.337, 240.0156
1072.819, 205.7666
1073.301, 177.7422
1073.783, 169.9238
1074.266, 172.5225
1074.748, 163.2412
1075.230, 128.1855
1075.712, 102.1924
1076.194, 104.0547
1076.676, 106.8623
1077.158, 90.88574
1077.640, 59.40234
1078.122, 48.32031
1078.604, 55.37402
1079.087, 60.83496
1079.569, 45.77637
1080.051, 30.35254
1080.533, 30.09082
1081.015, 37.57129
1081.497, 38.15137
1081.979, 28.78125
1082.461, 24.14062
1082.944, 25.55762
1083.426, 30.38574
1083.908, 39.51758
1084.390, 48.43457
1084.872, 51.70117
1085.354, 49.28613
1085.836, 44.01172
1086.318, 31.72754
1086.801, 25.61523
1087.283, 29.58398
1087.765, 40.03516
1088.247, 54.03320
1088.729, 68.90039
1089.211, 75.19922
1089.693, 68.15234
1090.175, 67.20508
1090.657, 86.84668
1091.140, 108.8105
1091.622, 122.0859
1092.104, 128.3701
1092.586, 143.7930
1093.068, 167.4609
1093.550, 187.0518
1094.032, 193.7930
1094.514, 199.5117
1094.997, 214.1104
1095.479, 232.3848
1095.961, 248.2129
1096.443, 263.8496
1096.925, 267.0957
1097.407, 256.4854
1097.889, 243.1650
1098.371, 239.1377
1098.854, 235.2363
1099.336, 217.3037
1099.818, 188.6191
1100.300, 163.2705
1100.782, 148.7422
1101.264, 129.1699
1101.746, 99.84082
1102.228, 70.84766
1102.710, 58.01465
1103.193, 55.92090
1103.675, 50.04492
1104.157, 38.76660
1104.639, 31.42285
1105.121, 42.07031
1105.603, 45.30273
1106.085, 27.17090
1106.567, 2.793945
1107.049, 14.00977
1107.531, 8.602539
1108.014, 2.178711
1108.496, 1.562500
1108.978, 3.404297
1109.460, 0.8222660
1109.942, 3.247070
1110.424, 6.045898
1110.906, 28.00684
1111.388, 32.21582
1111.871, 17.29004
1112.353, 4.172852
1112.835, 6.539063
1113.317, 11.86523
1113.799, 2.852539
1114.281, 11.35938
1114.763, 15.00781
1115.245, 5.141602
1115.728, 12.41406
1116.210, 3.402344
1116.692, 6.870117
1117.174, 4.074219
1117.656, 5.100586
1118.138, 8.359375
1118.620, 6.696289
1119.102, 5.531250
1119.584, 5.625977
1120.067, 8.031250
1120.549, 14.05469
1121.031, 20.19336
1121.513, 21.78809
1121.995, 19.43262
1122.477, 14.45898
1122.959, 7.038086
1123.441, 0.5214840
1123.924, 4.782227
1124.406, 6.948242
1124.888, 4.145508
1125.370, 1.663086
1125.852, 5.791016
1126.334, 8.249023
1126.816, 7.409180
1127.298, 2.471680
1127.781, 2.825195
1128.263, 6.787109
1128.745, 8.893555
1129.227, 7.112305
1129.709, 1.826172
1130.191, 3.694336
1130.673, 13.24707
1131.155, 21.79004
1131.637, 26.68457
1132.120, 27.65234
1132.602, 22.17285
1133.084, 13.59473
1133.566, 6.952148
1134.048, 3.846680
1134.530, 1.779297
1135.012, 11.63184
1135.494, 16.75000
1135.976, 4.882813
1136.458, 11.00684
1136.941, 5.843750
1137.423, 11.97852
1137.905, 21.93066
1138.387, 8.377930
1138.869, 2.138672
1139.351, 6.432617
1139.833, 14.46387
1140.315, 20.27930
1140.798, 24.44824
1141.280, 29.23438
1141.762, 34.10156
1142.244, 35.06934
1142.726, 26.07812
1143.208, 18.63867
1143.690, 14.63477
1144.172, 14.12012
1144.655, 20.41309
1145.137, 30.55469
1145.619, 31.20996
1146.101, 20.77148
1146.583, 12.10352
1147.065, 14.87012
1147.547, 18.43262
1148.029, 16.98926
1148.511, 13.17676
1148.994, 16.19727
1149.476, 24.90625
1149.958, 26.90430
1150.440, 17.24805
1150.922, 11.49219
1151.404, 28.58301
1151.886, 47.15234
1152.368, 48.44922
1152.851, 34.83398
1153.333, 31.44434
1153.815, 38.21875
1154.297, 45.94531
1154.779, 52.03320
1155.261, 55.62207
1155.743, 52.67676
1156.225, 48.36523
1156.708, 50.03418
1157.190, 59.58594
1157.672, 61.24414
1158.154, 54.17578
1158.636, 46.92480
1159.118, 45.09570
1159.600, 44.85449
1160.082, 41.76172
1160.564, 37.46289
1161.047, 34.82422
1161.529, 35.29590
1162.011, 35.04395
1162.493, 33.64648
1162.975, 33.71191
1163.457, 39.40332
1163.939, 46.17871
1164.421, 45.66309
1164.903, 40.05859
1165.385, 38.94434
1165.868, 48.74219
1166.350, 53.80469
1166.832, 52.05176
1167.314, 47.09961
1167.796, 40.46777
1168.278, 34.48828
1168.760, 33.92090
1169.242, 38.05176
1169.725, 41.02930
1170.207, 38.49609
1170.689, 39.67188
1171.171, 48.02344
1171.653, 56.75977
1172.135, 53.14746
1172.617, 43.45703
1173.099, 43.70508
1173.582, 54.29492
1174.064, 59.89062
1174.546, 47.27832
1175.028, 38.70215
1175.510, 41.62012
1175.992, 49.07031
1176.474, 45.49219
1176.956, 35.42871
1177.438, 33.45215
1177.921, 43.48828
1178.403, 50.88477
1178.885, 46.22559
1179.367, 42.01270
1179.849, 43.49609
1180.331, 48.82617
1180.813, 53.72363
1181.295, 57.35938
1181.778, 55.59180
1182.260, 45.21680
1182.742, 38.58203
1183.224, 44.27148
1183.706, 52.46289
1184.188, 58.29102
1184.670, 61.92188
1185.152, 64.26855
1185.635, 64.79980
1186.117, 61.87988
1186.599, 51.61230
1187.081, 45.03613
1187.563, 53.98047
1188.045, 62.84668
1188.527, 57.73535
1189.009, 40.42383
1189.491, 33.87402
1189.974, 37.34473
1190.456, 44.03320
1190.938, 55.40234
1191.420, 62.65332
1191.902, 58.39746
1192.384, 49.87305
1192.866, 43.80371
1193.348, 40.02051
1193.830, 35.01074
1194.313, 28.32422
1194.795, 25.88086
1195.277, 36.49707
1195.759, 45.49023
1196.241, 42.22070
1196.723, 34.23828
1197.205, 32.58398
1197.687, 37.52637
1198.169, 35.41504
1198.652, 26.02734
1199.134, 18.69922
1199.616, 23.56250
1200.098, 28.48535
1200.580, 26.09668
1201.062, 19.03906
1201.544, 9.939453
1202.026, 1.434570
1202.509, 3.015625
1202.991, 6.319336
1203.473, 17.18945
1203.955, 23.82812
1204.437, 28.60156
1204.919, 34.87891
1205.401, 39.80664
1205.883, 34.53809
1206.365, 18.57715
1206.848, 12.69434
1207.330, 20.20703
1207.812, 26.43164
1208.294, 14.11426
1208.776, 2.024414
1209.258, 8.324219
1209.740, 24.81641
1210.222, 25.67773
1210.705, 10.72461
1211.187, 7.629883
1211.669, 22.66113
1212.151, 38.52539
1212.633, 43.36523
1213.115, 42.02734
1213.597, 35.47168
1214.079, 25.87793
1214.562, 19.64453
1215.044, 16.76367
1215.526, 16.30859
1216.008, 18.46680
1216.490, 20.73145
1216.972, 21.13672
1217.454, 20.69434
1217.936, 18.91602
1218.418, 16.62695
1218.901, 19.88184
1219.383, 28.24902
1219.865, 32.90137
1220.347, 30.69531
1220.829, 26.45312
1221.311, 22.56250
1221.793, 19.02344
1222.275, 14.31641
1222.757, 9.545898
1223.240, 16.93652
1223.722, 35.04980
1224.204, 42.70215
1224.686, 29.70117
1225.168, 14.48340
1225.650, 7.776367
1226.132, 5.634766
1226.614, 5.807617
1227.096, 7.755859
1227.579, 4.574219
1228.061, 2.879883
1228.543, 6.935547
1229.025, 4.120117
1229.507, 1.220703
1229.989, 7.138672
1230.471, 14.17871
1230.953, 24.29004
1231.436, 36.21191
1231.918, 35.22559
1232.400, 23.40820
1232.882, 15.76855
1233.364, 23.07910
1233.846, 27.14844
1234.328, 13.00195
1234.810, 2.053711
1235.292, 4.934570
1235.775, 2.947266
1236.257, 11.70801
1236.739, 20.52832
1237.221, 24.97852
1237.703, 20.48730
1238.185, 15.70996
1238.667, 12.20898
1239.149, 11.36816
1239.632, 15.72070
1240.114, 23.83594
1240.596, 28.20508
1241.078, 29.17969
1241.560, 28.56934
1242.042, 22.40039
1242.524, 22.15918
1243.006, 36.06836
1243.489, 49.18262
1243.971, 47.07715
1244.453, 34.61426
1244.935, 33.01270
1245.417, 39.60938
1245.899, 44.00781
1246.381, 35.58398
1246.863, 35.05664
1247.345, 49.84180
1247.828, 64.13281
1248.310, 60.98730
1248.792, 47.96777
1249.274, 45.55859
1249.756, 51.45605
1250.238, 56.73340
1250.720, 58.56836
1251.202, 58.74121
1251.684, 56.68848
1252.167, 54.62402
1252.649, 54.86426
1253.131, 56.58008
1253.613, 58.32617
1254.095, 59.52246
1254.577, 58.50000
1255.059, 51.06641
1255.541, 48.57422
1256.023, 52.52441
1256.506, 58.29883
1256.988, 65.22754
1257.470, 69.33301
1257.952, 61.01367
1258.434, 45.27148
1258.916, 37.93164
1259.398, 45.36328
1259.880, 46.37402
1260.363, 38.31152
1260.845, 33.21484
1261.327, 50.01172
1261.809, 67.53906
1262.291, 58.27148
1262.773, 32.93555
1263.255, 22.45508
1263.737, 32.52051
1264.219, 33.27832
1264.702, 22.00879
1265.184, 12.08887
1265.666, 18.50000
1266.148, 26.17188
1266.630, 18.23535
1267.112, 3.856445
1267.594, 3.535156
1268.076, 18.58594
1268.559, 28.31641
1269.041, 31.30371
1269.523, 30.81250
1270.005, 24.90332
1270.487, 20.17188
1270.969, 23.44629
1271.451, 28.35254
1271.933, 23.83594
1272.416, 11.19824
1272.898, 10.05664
1273.380, 20.52930
1273.862, 29.30859
1274.344, 25.69629
1274.826, 22.87695
1275.308, 27.24609
1275.790, 32.69727
1276.272, 29.00781
1276.755, 19.96387
1277.237, 23.13574
1277.719, 37.05762
1278.201, 44.72754
1278.683, 31.59570
1279.165, 21.10938
1279.647, 17.35547
1280.129, 17.93262
1280.611, 23.04492
1281.094, 29.26660
1281.576, 27.27441
1282.058, 18.86719
1282.540, 15.16113
1283.022, 25.57617
1283.504, 26.53613
1283.986, 12.64062
1284.468, 0.4511720
1284.950, 8.457031
1285.433, 23.64551
1285.915, 20.53125
1286.397, 4.786133
1286.879, 3.029297
1287.361, 23.18359
1287.843, 31.38379
1288.325, 23.35156
1288.807, 14.42090
1289.290, 21.18359
1289.772, 29.71191
1290.254, 25.44922
1290.736, 14.24414
1291.218, 11.15234
1291.700, 16.86230
1292.182, 21.50098
1292.664, 24.31836
1293.146, 25.63770
1293.629, 24.91406
1294.111, 23.53320
1294.593, 23.09668
1295.075, 21.68164
1295.557, 14.33594
1296.039, 2.758789
1296.521, 3.418945
1297.003, 15.39258
1297.486, 24.56641
1297.968, 22.59375
1298.450, 19.56836
1298.932, 19.19434
1299.414, 18.26465
1299.896, 9.957031
1300.378, 0.5576170
1300.860, 4.600586
1301.343, 10.50293
1301.825, 0.0000000E+00
##END=



