##NAMES=Meionite
##RRUFFID=R040169
##IDEAL CHEMISTRY=(Ca,Na)_4_(Si,Al)_12_O_24_(CO_3_,SO_4_,Cl)
##LOCALITY=Black Hills, South Dakota, USA
##OWNER=RRUFF
##SOURCE=University of Arizona Mineral Museum
##DESCRIPTION=White massive
##STATUS=The identification of this mineral has been confirmed by X-ray diffraction and chemical analysis
##URL=rruff.info/R040169
##MEASURED CHEMISTRY=(Ca_0.73_Na_0.24_K_0.03_)_4_(Si_0.58_Al_0.41_)_12_O_24_((CO_3_)_0.90_Cl_0.10_)
142.2325, 0.0000000E+00
142.7147, 15.59753
143.1968, 3.565186
143.6789, 4.055664
144.1610, 19.59302
144.6431, 38.46912
145.1252, 64.16199
145.6074, 98.85278
146.0895, 141.7710
146.5716, 190.3457
147.0537, 243.3060
147.5358, 300.4227
148.0179, 357.6333
148.5001, 415.1038
148.9822, 472.0911
149.4643, 531.5215
149.9464, 593.1848
150.4285, 646.8533
150.9106, 683.4775
151.3928, 702.8690
151.8749, 718.3939
152.3570, 733.7622
152.8391, 743.5530
153.3212, 741.0142
153.8033, 725.3389
154.2855, 705.6952
154.7676, 689.2690
155.2497, 674.7512
155.7318, 656.7102
156.2139, 627.7256
156.6960, 597.9874
157.1782, 580.3698
157.6603, 576.6472
158.1424, 576.8650
158.6245, 574.3118
159.1066, 569.9130
159.5887, 565.7417
160.0709, 557.6613
160.5530, 551.8029
161.0351, 560.9087
161.5172, 589.9526
161.9993, 616.0005
162.4814, 617.1683
162.9636, 603.6831
163.4457, 593.2971
163.9278, 595.4998
164.4099, 603.5757
164.8920, 604.7493
165.3741, 596.8701
165.8563, 588.0187
166.3384, 587.6538
166.8205, 589.5872
167.3026, 582.1172
167.7847, 553.9250
168.2668, 515.3767
168.7490, 490.7006
169.2311, 486.3567
169.7132, 481.0886
170.1953, 461.6289
170.6774, 434.2350
171.1595, 408.4561
171.6417, 389.6893
172.1238, 374.8010
172.6059, 356.1288
173.0880, 333.3287
173.5701, 307.0231
174.0522, 271.7773
174.5344, 234.4640
175.0165, 206.4463
175.4986, 196.2916
175.9807, 196.9655
176.4628, 188.2310
176.9449, 164.5613
177.4271, 141.4008
177.9092, 125.8398
178.3913, 113.9939
178.8734, 100.6859
179.3555, 82.51855
179.8376, 62.12146
180.3197, 47.14124
180.8019, 39.14050
181.2840, 34.33240
181.7661, 32.76697
182.2482, 32.68921
182.7303, 31.75269
183.2124, 28.55237
183.6946, 24.21667
184.1767, 22.29102
184.6588, 23.64136
185.1409, 26.12219
185.6230, 27.98669
186.1051, 30.80103
186.5873, 37.34546
187.0694, 49.69653
187.5515, 64.27429
188.0336, 70.88794
188.5157, 62.53198
188.9978, 58.16772
189.4800, 62.66260
189.9621, 72.17847
190.4442, 83.83301
190.9263, 96.63232
191.4084, 108.8500
191.8905, 115.7635
192.3727, 113.3972
192.8548, 112.6820
193.3369, 116.4749
193.8190, 122.0593
194.3011, 127.5017
194.7832, 132.0815
195.2654, 134.8660
195.7475, 132.7756
196.2296, 119.4397
196.7117, 113.5742
197.1938, 121.8093
197.6759, 134.8597
198.1581, 145.1531
198.6402, 150.1079
199.1223, 151.5431
199.6044, 152.9915
200.0865, 152.8895
200.5686, 148.8654
201.0508, 142.0159
201.5329, 131.5873
202.0150, 113.6470
202.4971, 87.98645
202.9792, 62.31299
203.4613, 50.20715
203.9435, 59.86877
204.4256, 64.87756
204.9077, 60.73145
205.3898, 54.56055
205.8719, 51.55347
206.3540, 52.54114
206.8362, 54.31934
207.3183, 52.04395
207.8004, 43.15540
208.2825, 36.79578
208.7646, 34.62756
209.2467, 33.40869
209.7289, 31.92847
210.2110, 29.71045
210.6931, 26.29517
211.1752, 20.85413
211.6573, 12.66357
212.1395, 5.220825
212.6216, 3.598999
213.1037, 9.947876
213.5858, 11.84802
214.0679, 9.314453
214.5500, 3.178711
215.0322, 7.189819
215.5143, 23.62158
215.9964, 31.62073
216.4785, 21.59729
216.9606, 12.18115
217.4427, 10.22925
217.9249, 15.22449
218.4070, 23.44751
218.8891, 32.56970
219.3712, 42.75793
219.8533, 48.95093
220.3354, 46.29346
220.8176, 44.19104
221.2997, 48.84534
221.7818, 55.97632
222.2639, 55.75061
222.7460, 39.58545
223.2281, 9.956055
223.7103, 4.985352
224.1924, 10.55554
224.6745, 25.28479
225.1566, 31.90125
225.6387, 33.77405
226.1208, 36.55566
226.6030, 43.56482
227.0851, 53.72803
227.5672, 63.02881
228.0493, 77.17419
228.5314, 81.79285
229.0135, 63.94824
229.4957, 39.79749
229.9778, 29.61438
230.4599, 42.96228
230.9420, 69.15649
231.4241, 81.06921
231.9062, 67.07104
232.3884, 58.31787
232.8705, 62.05029
233.3526, 70.17407
233.8347, 75.76904
234.3168, 76.53772
234.7989, 74.78589
235.2811, 74.91907
235.7632, 79.36206
236.2453, 79.70190
236.7274, 68.77393
237.2095, 58.43787
237.6916, 57.73047
238.1738, 67.85205
238.6559, 82.02258
239.1380, 92.59155
239.6201, 99.47668
240.1022, 102.8905
240.5843, 94.98706
241.0665, 90.03149
241.5486, 98.43945
242.0307, 118.3381
242.5128, 137.5969
242.9949, 141.4216
243.4770, 127.4357
243.9592, 126.9342
244.4413, 152.8556
244.9234, 181.0027
245.4055, 205.2229
245.8876, 224.5712
246.3697, 238.4641
246.8519, 245.0057
247.3340, 245.2854
247.8161, 248.7319
248.2982, 255.0480
248.7803, 265.5193
249.2624, 284.1056
249.7446, 306.1427
250.2267, 323.9460
250.7088, 332.9476
251.1909, 335.9745
251.6730, 341.5049
252.1551, 347.7560
252.6373, 360.2158
253.1194, 386.6522
253.6015, 417.3269
254.0836, 442.3148
254.5657, 458.3032
255.0478, 467.3203
255.5300, 468.5520
256.0121, 456.8165
256.4942, 453.4067
256.9763, 482.8134
257.4584, 513.7788
257.9406, 519.6050
258.4227, 493.3801
258.9048, 458.6979
259.3869, 442.6442
259.8690, 445.9617
260.3511, 439.3042
260.8333, 406.8617
261.3154, 372.9951
261.7975, 358.4250
262.2796, 362.8127
262.7617, 365.2073
263.2438, 345.4746
263.7260, 307.4371
264.2081, 279.6610
264.6902, 272.5909
265.1723, 267.7671
265.6544, 248.3801
266.1365, 217.3489
266.6187, 187.9781
267.1008, 166.7902
267.5829, 152.3192
268.0650, 142.7277
268.5471, 140.4424
269.0292, 136.8452
269.5114, 122.0540
269.9935, 100.9330
270.4756, 82.30164
270.9577, 68.82141
271.4398, 58.62854
271.9219, 51.05981
272.4041, 46.39099
272.8862, 40.22986
273.3683, 29.03003
273.8504, 15.03198
274.3325, 2.823242
274.8146, 8.391968
275.2968, 15.48096
275.7789, 14.84741
276.2610, 8.052734
276.7431, 0.9019780
277.2252, 5.055298
277.7073, 10.23035
278.1895, 16.17480
278.6716, 24.35608
279.1537, 26.51270
279.6358, 11.51550
280.1179, 9.479736
280.6000, 15.39783
281.0822, 0.3255620
281.5643, 21.61804
282.0464, 33.92004
282.5285, 35.56177
283.0106, 39.00659
283.4927, 49.02661
283.9749, 59.36011
284.4570, 62.05469
284.9391, 57.26257
285.4212, 54.82642
285.9033, 63.53760
286.3854, 83.33276
286.8676, 99.64636
287.3497, 113.2704
287.8318, 123.0647
288.3139, 125.6652
288.7960, 123.7146
289.2781, 123.5137
289.7603, 128.2954
290.2424, 137.8695
290.7245, 151.7229
291.2066, 178.7292
291.6887, 198.8436
292.1708, 204.9856
292.6530, 204.0352
293.1351, 204.3070
293.6172, 208.7351
294.0993, 215.2346
294.5814, 220.5347
295.0635, 227.8326
295.5457, 226.9362
296.0278, 211.8542
296.5099, 193.5975
296.9920, 180.0840
297.4741, 171.9685
297.9562, 164.9648
298.4384, 154.1489
298.9205, 138.3597
299.4026, 126.8038
299.8847, 123.6292
300.3668, 120.4158
300.8489, 114.2775
301.3311, 105.7861
301.8131, 96.35046
302.2953, 86.41846
302.7774, 76.77893
303.2595, 71.89673
303.7416, 76.61182
304.2237, 79.01221
304.7058, 77.49146
305.1880, 72.33459
305.6701, 63.15271
306.1522, 49.69348
306.6343, 34.31372
307.1164, 19.89526
307.5985, 5.417236
308.0807, 3.988403
308.5628, 4.808716
309.0449, 1.854370
309.5270, 4.112793
310.0091, 12.35400
310.4912, 19.07812
310.9734, 21.12195
311.4555, 18.68115
311.9376, 13.03992
312.4197, 0.5092770
312.9018, 9.591187
313.3839, 8.309204
313.8661, 8.1298999E-02
314.3482, 3.340332
314.8303, 7.816162
315.3124, 25.05676
315.7945, 33.54529
316.2766, 32.53320
316.7588, 26.92383
317.2409, 15.07532
317.7230, 1.643188
318.2051, 5.609375
318.6872, 4.564819
319.1693, 0.6978760
319.6515, 10.62769
320.1336, 23.31323
320.6157, 29.05042
321.0978, 21.63989
321.5799, 10.39270
322.0620, 12.69849
322.5442, 31.42981
323.0263, 43.24939
323.5084, 36.32812
323.9905, 21.09656
324.4726, 9.915894
324.9547, 4.852417
325.4369, 4.787842
325.9190, 10.20837
326.4011, 21.87671
326.8832, 27.08838
327.3653, 21.85742
327.8474, 14.16040
328.3296, 7.043823
328.8117, 1.043335
329.2938, 2.960327
329.7759, 4.183960
330.2580, 3.519897
330.7401, 5.018677
331.2223, 11.67883
331.7044, 16.79944
332.1865, 18.15186
332.6686, 18.22314
333.1507, 20.30591
333.6328, 25.39917
334.1150, 31.15674
334.5971, 33.48328
335.0792, 29.81409
335.5613, 29.37354
336.0434, 35.42883
336.5255, 41.42810
337.0077, 43.63049
337.4898, 42.60742
337.9719, 40.98438
338.4540, 40.68225
338.9361, 42.18103
339.4182, 45.92603
339.9004, 55.30798
340.3825, 61.70605
340.8646, 60.18274
341.3467, 55.48389
341.8288, 53.34729
342.3109, 55.87183
342.7931, 61.84241
343.2752, 70.62280
343.7573, 82.94800
344.2394, 92.73816
344.7215, 95.08337
345.2036, 97.21680
345.6858, 106.3052
346.1679, 122.4446
346.6500, 137.0273
347.1321, 143.1472
347.6142, 143.5884
348.0963, 145.8248
348.5785, 150.5287
349.0606, 157.1997
349.5427, 165.2544
350.0248, 174.9675
350.5069, 187.6161
350.9890, 209.0681
351.4712, 229.1339
351.9533, 236.9863
352.4354, 234.9796
352.9175, 236.1344
353.3996, 247.7942
353.8817, 264.9828
354.3639, 273.5804
354.8460, 267.4191
355.3281, 267.2908
355.8102, 283.2456
356.2923, 305.1968
356.7744, 320.4941
357.2566, 326.7119
357.7387, 330.5720
358.2208, 340.1317
358.7029, 357.5709
359.1850, 368.2496
359.6671, 368.7390
360.1493, 366.9603
360.6314, 366.6473
361.1135, 366.8464
361.5956, 364.8135
362.0777, 358.8425
362.5598, 349.6996
363.0420, 339.9651
363.5241, 328.1897
364.0062, 318.2698
364.4883, 312.6562
364.9704, 307.6313
365.4525, 299.3734
365.9347, 286.9722
366.4168, 273.9773
366.8989, 264.0146
367.3810, 257.2706
367.8631, 252.3849
368.3452, 251.4971
368.8274, 249.1097
369.3095, 241.4889
369.7916, 230.2415
370.2737, 218.8481
370.7558, 208.1200
371.2379, 199.7858
371.7201, 198.1941
372.2022, 204.0964
372.6843, 205.0487
373.1664, 192.9794
373.6485, 174.8809
374.1306, 160.4125
374.6128, 149.5306
375.0949, 145.1246
375.5770, 153.3782
376.0591, 167.9500
376.5412, 177.0819
377.0233, 178.3104
377.5055, 172.5281
377.9876, 158.2139
378.4697, 134.6982
378.9518, 120.8536
379.4339, 125.5908
379.9160, 131.8784
380.3982, 125.8666
380.8803, 112.4945
381.3624, 108.5581
381.8445, 124.4213
382.3266, 150.8333
382.8087, 160.0680
383.2909, 128.4478
383.7730, 109.0457
384.2551, 113.6210
384.7372, 123.5485
385.2193, 124.0156
385.7014, 112.8425
386.1836, 97.34119
386.6657, 84.47729
387.1478, 74.19531
387.6299, 65.51587
388.1120, 57.30615
388.5941, 52.19238
389.0763, 52.20386
389.5584, 55.62012
390.0405, 60.63831
390.5226, 67.58813
391.0047, 72.84351
391.4868, 68.49500
391.9690, 53.06592
392.4511, 42.21191
392.9332, 42.79431
393.4153, 47.05676
393.8974, 48.20825
394.3795, 46.09680
394.8617, 42.05701
395.3438, 35.72864
395.8259, 28.18909
396.3080, 20.02100
396.7901, 11.07654
397.2722, 6.295166
397.7544, 11.33582
398.2365, 23.56824
398.7186, 29.09253
399.2007, 21.91321
399.6828, 14.81799
400.1649, 12.37512
400.6471, 13.40637
401.1292, 17.13403
401.6113, 23.34424
402.0934, 28.40454
402.5755, 26.08313
403.0576, 10.96179
403.5398, 5.440796
404.0219, 18.31042
404.5040, 31.19153
404.9861, 34.19128
405.4682, 29.20398
405.9503, 22.38049
406.4325, 17.11816
406.9146, 14.01294
407.3967, 15.52002
407.8788, 23.27148
408.3609, 32.43152
408.8430, 44.84509
409.3252, 56.41748
409.8073, 63.50659
410.2894, 65.70093
410.7715, 66.07617
411.2536, 63.76257
411.7357, 60.83020
412.2179, 70.18445
412.7000, 97.64709
413.1821, 125.3055
413.6642, 141.0067
414.1463, 148.0167
414.6284, 150.8267
415.1106, 146.0907
415.5927, 142.5319
416.0748, 146.0654
416.5569, 155.9095
417.0390, 170.9430
417.5211, 191.8063
418.0033, 213.7860
418.4854, 229.4047
418.9675, 235.9824
419.4496, 245.0424
419.9317, 261.7982
420.4138, 277.0707
420.8960, 283.7473
421.3781, 283.2314
421.8602, 280.7822
422.3423, 279.2927
422.8244, 279.6501
423.3065, 286.4235
423.7887, 311.1333
424.2708, 323.8087
424.7529, 316.2826
425.2350, 300.1676
425.7171, 281.4606
426.1992, 262.7023
426.6814, 248.7786
427.1635, 247.5656
427.6456, 257.5275
428.1277, 259.8179
428.6098, 251.4425
429.0919, 241.0665
429.5741, 229.5621
430.0562, 219.8403
430.5383, 217.4387
431.0204, 226.1097
431.5025, 237.0331
431.9846, 240.8374
432.4668, 240.4679
432.9489, 248.3502
433.4310, 269.8424
433.9131, 292.5747
434.3952, 298.0067
434.8773, 282.9727
435.3595, 287.3977
435.8416, 329.7792
436.3237, 377.4688
436.8058, 409.6249
437.2879, 430.5505
437.7701, 453.3688
438.2522, 484.4307
438.7343, 523.8462
439.2164, 572.3822
439.6985, 638.5532
440.1806, 698.5614
440.6628, 746.3850
441.1449, 793.7415
441.6270, 849.7189
442.1091, 913.1387
442.5912, 975.7667
443.0733, 1028.250
443.5555, 1076.015
444.0376, 1140.458
444.5197, 1224.409
445.0018, 1318.013
445.4839, 1425.841
445.9660, 1537.977
446.4482, 1643.076
446.9303, 1738.233
447.4124, 1837.807
447.8945, 1957.307
448.3766, 2085.639
448.8587, 2199.561
449.3409, 2296.737
449.8230, 2384.778
450.3051, 2471.391
450.7872, 2554.843
451.2693, 2621.587
451.7514, 2672.093
452.2336, 2706.080
452.7157, 2720.441
453.1978, 2719.654
453.6799, 2711.600
454.1620, 2697.902
454.6441, 2669.462
455.1263, 2611.590
455.6084, 2517.732
456.0905, 2432.090
456.5726, 2359.706
457.0547, 2291.622
457.5368, 2219.668
458.0190, 2151.729
458.5011, 2102.687
458.9832, 2080.855
459.4653, 2069.845
459.9474, 2047.168
460.4295, 2012.797
460.9117, 1974.813
461.3938, 1935.436
461.8759, 1891.653
462.3580, 1840.128
462.8401, 1781.793
463.3222, 1719.951
463.8044, 1650.970
464.2865, 1582.049
464.7686, 1522.248
465.2507, 1468.961
465.7328, 1410.914
466.2149, 1342.647
466.6971, 1269.251
467.1792, 1201.644
467.6613, 1142.163
468.1434, 1083.763
468.6255, 1024.693
469.1076, 968.0870
469.5898, 916.4001
470.0719, 869.2192
470.5540, 826.0624
471.0361, 786.8582
471.5182, 750.0566
472.0003, 709.0151
472.4825, 660.2036
472.9646, 617.5638
473.4467, 591.4086
473.9288, 567.3763
474.4109, 534.7877
474.8930, 494.1481
475.3752, 455.6410
475.8573, 422.1687
476.3394, 395.7336
476.8215, 382.8303
477.3036, 383.7275
477.7857, 383.5015
478.2679, 374.8300
478.7500, 360.2502
479.2321, 345.4756
479.7142, 330.7322
480.1963, 315.5854
480.6784, 300.6313
481.1606, 284.7974
481.6427, 266.1100
482.1248, 245.1230
482.6069, 224.9812
483.0890, 207.8381
483.5711, 193.5326
484.0533, 180.6323
484.5354, 167.7252
485.0175, 158.8226
485.4996, 158.5480
485.9817, 159.1245
486.4638, 153.9637
486.9460, 142.6464
487.4281, 129.9688
487.9102, 118.4861
488.3923, 108.5631
488.8744, 102.7670
489.3565, 102.3923
489.8387, 98.42725
490.3208, 83.41345
490.8029, 63.44006
491.2850, 51.07288
491.7671, 47.64087
492.2492, 47.62903
492.7314, 53.52832
493.2135, 59.50952
493.6956, 58.69141
494.1777, 50.68225
494.6598, 38.62158
495.1419, 23.91467
495.6241, 7.883057
496.1062, 1.056030
496.5883, 4.654907
497.0704, 7.078125
497.5525, 1.333496
498.0346, 9.637451
498.5168, 5.680542
498.9989, 9.955078
499.4810, 23.43152
499.9631, 21.53723
500.4452, 8.310547
500.9273, 0.2543950
501.4095, 0.1729740
501.8916, 2.250732
502.3737, 17.83142
502.8558, 36.75342
503.3379, 41.44995
503.8200, 28.02417
504.3022, 16.19885
504.7843, 16.94653
505.2664, 20.78174
505.7485, 14.27661
506.2306, 1.841309
506.7127, 14.55029
507.1949, 14.79590
507.6770, 5.261353
508.1591, 2.436890
508.6412, 10.62756
509.1233, 13.16785
509.6054, 4.639404
510.0876, 5.299194
510.5697, 7.724121
511.0518, 3.969116
511.5339, 3.784180
512.0161, 17.07275
512.4982, 37.09717
512.9803, 41.66724
513.4624, 26.68567
513.9445, 23.06055
514.4266, 45.93091
514.9088, 81.17542
515.3909, 111.1687
515.8730, 135.9449
516.3551, 156.4023
516.8372, 170.4985
517.3193, 182.1746
517.8015, 193.8643
518.2836, 206.3287
518.7657, 220.5223
519.2478, 236.4089
519.7299, 256.6062
520.2120, 288.1627
520.6942, 340.6084
521.1763, 386.4950
521.6584, 420.8353
522.1405, 453.9960
522.6226, 490.2811
523.1047, 530.1771
523.5869, 573.0168
524.0690, 619.2706
524.5511, 666.9725
525.0332, 710.7789
525.5153, 750.7661
525.9974, 800.1462
526.4796, 866.4014
526.9617, 936.0106
527.4438, 992.5042
527.9259, 1037.826
528.4080, 1087.198
528.8901, 1157.145
529.3723, 1217.531
529.8544, 1247.232
530.3365, 1255.250
530.8186, 1260.154
531.3007, 1268.211
531.7828, 1271.081
532.2650, 1259.034
532.7471, 1233.584
533.2292, 1182.808
533.7113, 1082.126
534.1934, 983.0404
534.6755, 897.7275
535.1577, 824.7546
535.6398, 761.9460
536.1219, 708.9379
536.6040, 661.4519
537.0861, 615.3270
537.5682, 571.5371
538.0504, 534.7430
538.5325, 507.2501
539.0146, 480.6029
539.4967, 449.4908
539.9788, 414.7861
540.4609, 379.5028
540.9431, 339.9564
541.4252, 304.2521
541.9073, 273.9160
542.3894, 248.5494
542.8715, 228.3831
543.3536, 212.8804
543.8358, 201.0538
544.3179, 193.4723
544.8000, 187.5599
545.2821, 169.6975
545.7642, 132.2661
546.2463, 103.9067
546.7285, 99.16626
547.2106, 101.0914
547.6927, 96.90625
548.1748, 86.58350
548.6569, 76.99036
549.1390, 74.52588
549.6211, 71.94348
550.1032, 58.24365
550.5853, 36.44495
551.0674, 20.40552
551.5496, 15.71924
552.0317, 18.24207
552.5138, 21.64282
552.9959, 26.58569
553.4780, 30.15662
553.9601, 34.34326
554.4423, 35.28003
554.9244, 29.28284
555.4065, 19.95166
555.8886, 12.35693
556.3707, 8.670654
556.8528, 7.655518
557.3350, 10.46960
557.8171, 15.81091
558.2992, 10.88892
558.7813, 9.223755
559.2634, 26.89270
559.7455, 30.25391
560.2277, 22.01746
560.7098, 11.99731
561.1919, 2.911621
561.6740, 16.94324
562.1561, 30.33142
562.6382, 39.90259
563.1204, 40.97668
563.6025, 34.65723
564.0846, 26.67493
564.5667, 20.20544
565.0488, 15.38855
565.5309, 12.09119
566.0131, 9.811646
566.4952, 8.740356
566.9773, 9.395874
567.4594, 12.20886
567.9415, 19.08594
568.4236, 28.49817
568.9058, 34.64197
569.3879, 34.85229
569.8700, 30.60913
570.3521, 20.30493
570.8342, 7.090332
571.3163, 2.305908
571.7985, 9.933838
572.2806, 22.29578
572.7627, 30.04321
573.2448, 32.23425
573.7269, 35.48291
574.2090, 44.94025
574.6912, 49.81018
575.1733, 43.87756
575.6554, 33.68481
576.1375, 25.68536
576.6196, 21.64337
577.1017, 21.27692
577.5839, 25.11389
578.0660, 32.40497
578.5481, 42.27533
579.0302, 55.50854
579.5123, 62.91144
579.9944, 57.71930
580.4766, 46.52625
580.9587, 42.64771
581.4408, 47.07568
581.9229, 50.47333
582.4050, 51.51514
582.8871, 51.83795
583.3693, 52.73676
583.8514, 53.73999
584.3335, 53.80524
584.8156, 52.30530
585.2977, 49.34692
585.7798, 42.96124
586.2620, 31.98956
586.7441, 33.41736
587.2262, 58.38477
587.7083, 78.69824
588.1904, 73.55603
588.6725, 54.49377
589.1547, 39.46051
589.6368, 31.17493
590.1189, 25.96710
590.6010, 21.83148
591.0831, 19.88422
591.5652, 23.88214
592.0474, 32.53967
592.5295, 37.51971
593.0116, 32.66113
593.4937, 22.04156
593.9758, 19.49054
594.4579, 32.91010
594.9401, 36.68469
595.4222, 13.37091
595.9043, 7.281006
596.3864, 7.107727
596.8685, 7.547180
597.3506, 19.29602
597.8328, 18.07635
598.3149, 15.36267
598.7970, 25.07623
599.2791, 41.78003
599.7612, 50.75073
600.2433, 49.16132
600.7255, 44.16718
601.2076, 41.38184
601.6897, 40.54193
602.1718, 39.62482
602.6539, 34.07867
603.1360, 35.02606
603.6182, 50.69714
604.1003, 67.14624
604.5824, 72.38104
605.0645, 68.04993
605.5466, 65.55481
606.0287, 74.39374
606.5109, 84.58771
606.9930, 76.83081
607.4751, 54.15485
607.9572, 42.30621
608.4393, 49.54224
608.9214, 61.70490
609.4036, 65.63477
609.8857, 61.25024
610.3678, 52.63416
610.8499, 28.90106
611.3320, 15.10333
611.8141, 25.04041
612.2963, 42.63666
612.7784, 52.01990
613.2605, 51.49542
613.7426, 49.12262
614.2247, 52.80377
614.7068, 57.48706
615.1890, 46.65381
615.6711, 19.20892
616.1532, 2.100647
616.6353, 5.010437
617.1174, 15.17377
617.5995, 21.17535
618.0817, 23.68250
618.5638, 22.20837
619.0459, 12.80212
619.5280, 3.903564
620.0101, 2.166443
620.4922, 5.736206
620.9744, 6.686462
621.4565, 5.436096
621.9386, 4.047302
622.4207, 4.882751
622.9028, 6.844849
623.3849, 5.311401
623.8671, 0.2376710
624.3492, 6.585999
624.8313, 15.14551
625.3134, 21.52625
625.7955, 17.69946
626.2776, 4.333923
626.7598, 3.615112
627.2419, 9.4054997E-02
627.7240, 5.159058
628.2061, 7.478943
628.6882, 7.244690
629.1703, 4.207214
629.6525, 0.5744630
630.1346, 4.016052
630.6167, 2.570679
631.0988, 2.769531
631.5809, 5.969299
632.0630, 5.960999
632.5452, 8.309082
633.0273, 17.93536
633.5094, 27.48895
633.9915, 27.55597
634.4736, 18.71973
634.9557, 11.87885
635.4379, 7.806702
635.9200, 7.741211
636.4021, 18.31464
636.8842, 31.23273
637.3663, 30.41913
637.8484, 13.85406
638.3306, 2.474915
638.8127, 1.850952
639.2948, 12.74445
639.7769, 24.08002
640.2590, 33.14844
640.7411, 34.88849
641.2233, 20.88080
641.7054, 5.635315
642.1875, 7.107117
642.6696, 23.55127
643.1517, 32.87921
643.6339, 24.55615
644.1160, 14.40381
644.5981, 9.736450
645.0802, 9.394104
645.5623, 12.80865
646.0444, 19.04645
646.5266, 24.13031
647.0087, 23.84399
647.4908, 19.61023
647.9729, 17.88287
648.4550, 18.62122
648.9371, 22.65363
649.4193, 35.66968
649.9014, 46.17102
650.3835, 40.47382
650.8656, 21.08087
651.3477, 5.303040
651.8298, 6.656616
652.3120, 11.33905
652.7941, 0.6044310
653.2762, 16.59320
653.7583, 16.20520
654.2404, 0.1669310
654.7225, 13.59491
655.2047, 9.054260
655.6868, 7.480957
656.1689, 18.07098
656.6510, 22.70435
657.1331, 22.32678
657.6152, 13.61298
658.0974, 4.967651
658.5795, 6.199158
659.0616, 14.64380
659.5437, 18.27338
660.0258, 10.24780
660.5079, 4.435913
660.9901, 5.235779
661.4722, 10.76678
661.9543, 21.54108
662.4364, 35.55841
662.9185, 46.80499
663.4006, 51.07605
663.8828, 50.70990
664.3649, 51.39594
664.8470, 53.31152
665.3291, 49.05664
665.8112, 33.79175
666.2933, 21.05359
666.7755, 22.37299
667.2576, 34.69995
667.7397, 43.94849
668.2218, 50.68158
668.7039, 53.44415
669.1860, 43.53668
669.6682, 36.49841
670.1503, 48.97180
670.6324, 74.68188
671.1145, 94.05756
671.5966, 97.09979
672.0787, 92.88641
672.5609, 94.53601
673.0430, 100.8248
673.5251, 102.1443
674.0072, 96.42969
674.4893, 90.28528
674.9714, 85.86139
675.4536, 84.50861
675.9357, 91.38000
676.4178, 115.9362
676.8999, 127.6562
677.3820, 118.8210
677.8641, 103.6888
678.3463, 86.44940
678.8284, 69.55048
679.3105, 55.84747
679.7926, 46.23340
680.2747, 38.43024
680.7568, 29.30280
681.2390, 20.99963
681.7211, 20.24280
682.2032, 26.65424
682.6853, 30.51733
683.1674, 27.14856
683.6495, 20.62317
684.1317, 17.22339
684.6138, 17.56958
685.0959, 17.10211
685.5780, 14.76294
686.0601, 12.62347
686.5422, 11.74487
687.0244, 10.87067
687.5065, 8.070068
687.9886, 3.351868
688.4707, 0.2822270
688.9528, 1.324890
689.4349, 0.3698120
689.9171, 3.130737
690.3992, 8.234985
690.8813, 12.32758
691.3634, 14.60999
691.8455, 15.40857
692.3276, 15.10394
692.8098, 13.59576
693.2919, 9.463196
693.7740, 0.7033080
694.2561, 5.675110
694.7382, 7.3729999E-02
695.2203, 8.329102
695.7025, 16.72009
696.1846, 23.40259
696.6667, 23.88666
697.1488, 11.00781
697.6309, 1.057556
698.1130, 3.703430
698.5952, 13.73633
699.0773, 29.42523
699.5594, 46.87708
700.0415, 53.69452
700.5236, 41.08240
701.0057, 19.66711
701.4879, 12.73779
701.9700, 21.11749
702.4521, 25.31927
702.9342, 22.46289
703.4163, 18.33118
703.8984, 14.85321
704.3806, 13.01160
704.8627, 15.83136
705.3448, 26.25751
705.8269, 32.57373
706.3090, 30.08899
706.7911, 26.20746
707.2733, 25.10150
707.7554, 25.75031
708.2375, 25.32373
708.7196, 23.11957
709.2017, 22.47931
709.6838, 29.74408
710.1660, 39.97241
710.6481, 37.85120
711.1302, 23.73401
711.6123, 17.75922
712.0944, 28.32587
712.5765, 43.43036
713.0587, 50.24622
713.5408, 48.60504
714.0229, 46.00348
714.5050, 37.59924
714.9871, 34.99115
715.4692, 47.27051
715.9514, 60.17316
716.4335, 60.71753
716.9156, 50.63678
717.3977, 41.84326
717.8798, 39.19635
718.3619, 39.30872
718.8441, 41.06903
719.3262, 43.20392
719.8083, 42.36847
720.2904, 38.90521
720.7725, 37.73425
721.2546, 42.40881
721.7368, 50.48596
722.2189, 55.90778
722.7010, 58.13110
723.1831, 61.81268
723.6652, 69.01428
724.1473, 74.26904
724.6295, 73.22137
725.1116, 68.62018
725.5937, 66.15674
726.0758, 66.35400
726.5579, 66.98871
727.0400, 64.44531
727.5222, 65.48517
728.0043, 80.54614
728.4864, 99.53430
728.9685, 103.7020
729.4506, 89.34131
729.9327, 74.26312
730.4149, 75.30505
730.8970, 86.79968
731.3791, 96.76764
731.8612, 105.3339
732.3433, 114.4608
732.8254, 125.2922
733.3076, 133.1145
733.7897, 132.5389
734.2718, 124.2410
734.7539, 116.5476
735.2360, 102.3960
735.7181, 100.9313
736.2003, 127.6473
736.6824, 154.7996
737.1645, 163.5266
737.6466, 158.9268
738.1287, 156.0580
738.6108, 157.1251
739.0930, 164.9584
739.5751, 190.5853
740.0572, 217.5441
740.5393, 223.2499
741.0214, 211.8737
741.5035, 201.1370
741.9857, 199.3522
742.4678, 205.6377
742.9499, 221.4733
743.4320, 245.8999
743.9141, 266.4687
744.3962, 283.4598
744.8784, 293.6621
745.3605, 293.2015
745.8426, 289.3030
746.3247, 290.5508
746.8068, 296.6217
747.2889, 313.1402
747.7711, 358.2118
748.2532, 390.0577
748.7353, 388.3332
749.2174, 376.9730
749.6995, 377.1742
750.1816, 388.8807
750.6638, 400.3848
751.1459, 404.2797
751.6280, 409.5537
752.1101, 427.9833
752.5922, 452.5920
753.0743, 467.2616
753.5565, 472.7963
754.0386, 484.9266
754.5207, 513.7512
755.0028, 548.1191
755.4849, 562.8497
755.9670, 554.0606
756.4492, 565.3967
756.9313, 605.7721
757.4134, 646.7129
757.8955, 682.7484
758.3776, 707.6525
758.8597, 708.4711
759.3419, 683.0319
759.8240, 664.2069
760.3061, 655.6750
760.7882, 649.9073
761.2703, 648.9229
761.7524, 648.3326
762.2346, 640.8436
762.7167, 628.0299
763.1988, 621.2772
763.6809, 631.0995
764.1630, 642.4871
764.6451, 636.6647
765.1273, 619.6047
765.6094, 604.8342
766.0915, 593.1718
766.5736, 581.6769
767.0557, 571.0842
767.5378, 558.2769
768.0200, 533.9071
768.5021, 494.4040
768.9842, 466.7713
769.4663, 458.1168
769.9484, 447.1641
770.4305, 424.3264
770.9127, 394.4998
771.3948, 363.2542
771.8769, 330.2183
772.3590, 301.7286
772.8411, 278.0919
773.3232, 259.9808
773.8054, 251.4664
774.2875, 246.0027
774.7696, 236.4082
775.2517, 222.7362
775.7338, 210.4056
776.2159, 203.7546
776.6981, 196.7759
777.1802, 179.4577
777.6623, 157.3057
778.1444, 145.9800
778.6265, 145.5230
779.1086, 138.4218
779.5908, 113.8658
780.0729, 84.70532
780.5550, 77.00659
781.0371, 93.73145
781.5192, 102.6810
782.0013, 103.1499
782.4835, 97.31775
782.9656, 82.13922
783.4477, 64.66919
783.9298, 54.24011
784.4119, 51.08179
784.8940, 48.52441
785.3762, 42.39319
785.8583, 40.32745
786.3404, 51.04401
786.8225, 62.11987
787.3046, 62.66571
787.7867, 53.70917
788.2689, 41.37311
788.7510, 26.10358
789.2331, 15.12659
789.7152, 19.09540
790.1973, 28.74963
790.6794, 28.30261
791.1616, 18.89795
791.6437, 10.43402
792.1258, 7.137207
792.6079, 8.178345
793.0900, 13.96411
793.5721, 23.49933
794.0543, 24.95752
794.5364, 15.86139
795.0185, 16.25824
795.5006, 36.89423
795.9827, 58.13525
796.4648, 60.14386
796.9470, 44.71228
797.4291, 30.58820
797.9112, 13.95154
798.3933, 4.254639
798.8754, 4.960449
799.3575, 9.701233
799.8397, 18.94946
800.3218, 28.40771
800.8039, 29.97827
801.2860, 20.85315
801.7681, 10.90906
802.2502, 2.978821
802.7324, 1.867249
803.2145, 1.2756000E-02
803.6966, 4.857666
804.1787, 4.949585
804.6608, 1.018982
805.1429, 6.646606
805.6251, 6.638489
806.1072, 2.604309
806.5893, 3.744507
807.0714, 11.63611
807.5535, 13.73114
808.0356, 8.358521
808.5178, 4.980957
808.9999, 10.97534
809.4820, 20.74713
809.9641, 19.03870
810.4462, 0.8074950
810.9283, 10.40985
811.4105, 12.28925
811.8926, 11.01300
812.3747, 7.170959
812.8568, 2.480286
813.3389, 1.673950
813.8210, 5.247559
814.3032, 6.362061
814.7853, 1.508301
815.2674, 1.761719
815.7495, 2.991943
816.2316, 7.454651
816.7137, 0.5147710
817.1959, 15.65973
817.6780, 19.50568
818.1601, 1.977722
818.6422, 17.51239
819.1243, 22.22937
819.6064, 18.57819
820.0886, 15.11810
820.5707, 12.44287
821.0528, 10.61719
821.5349, 9.479431
822.0170, 5.991150
822.4991, 5.682739
822.9813, 21.20367
823.4634, 19.10852
823.9455, 1.763977
824.4276, 16.35828
824.9097, 19.09497
825.3918, 16.06537
825.8740, 10.24530
826.3561, 3.390747
826.8382, 1.491577
827.3203, 5.910095
827.8024, 12.16132
828.2845, 25.55652
828.7667, 34.45874
829.2488, 32.84229
829.7309, 25.74658
830.2130, 17.21198
830.6951, 7.651062
831.1772, 3.378052
831.6594, 9.819153
832.1415, 17.03717
832.6236, 23.52045
833.1057, 26.64972
833.5878, 19.99377
834.0699, 7.575745
834.5521, 3.110596
835.0342, 14.11450
835.5163, 26.36871
835.9984, 25.72595
836.4805, 18.38641
836.9626, 13.65741
837.4448, 11.62952
837.9269, 10.16693
838.4090, 8.548706
838.8911, 7.261597
839.3732, 6.784546
839.8553, 7.065308
840.3375, 8.830750
840.8196, 12.17511
841.3017, 10.48706
841.7838, 1.138977
842.2659, 5.960327
842.7480, 3.736389
843.2302, 4.830627
843.7123, 12.54584
844.1944, 19.77972
844.6765, 24.92816
845.1586, 28.88885
845.6407, 29.56445
846.1229, 21.61841
846.6050, 13.15857
847.0871, 14.03058
847.5692, 23.36725
848.0513, 28.44379
848.5334, 25.81415
849.0156, 20.99133
849.4977, 10.50995
849.9798, 2.890747
850.4619, 7.006531
850.9440, 18.62299
851.4261, 28.41815
851.9083, 33.66687
852.3904, 36.13495
852.8725, 37.92676
853.3546, 36.75610
853.8367, 26.45496
854.3188, 12.45404
854.8010, 5.562744
855.2831, 7.799133
855.7652, 15.33655
856.2473, 26.54620
856.7294, 37.87329
857.2115, 44.71704
857.6937, 46.79688
858.1758, 40.05389
858.6579, 24.60553
859.1400, 13.83179
859.6221, 14.15509
860.1042, 20.52173
860.5864, 25.65918
861.0685, 29.87408
861.5506, 39.80505
862.0327, 59.79272
862.5148, 67.04639
862.9969, 49.69403
863.4791, 31.71729
863.9612, 34.54645
864.4433, 51.01990
864.9254, 54.76611
865.4075, 34.65497
865.8896, 25.27386
866.3718, 37.35687
866.8539, 46.74963
867.3360, 41.27661
867.8181, 31.23737
868.3002, 29.10455
868.7823, 33.85840
869.2645, 36.49005
869.7466, 34.16577
870.2287, 30.58655
870.7108, 24.63837
871.1929, 19.95514
871.6750, 21.01978
872.1572, 25.73553
872.6393, 28.88995
873.1214, 28.64789
873.6035, 27.35809
874.0856, 23.67560
874.5677, 21.45343
875.0499, 28.42407
875.5320, 39.13373
876.0141, 41.11108
876.4962, 31.97906
876.9783, 20.09900
877.4604, 10.64233
877.9426, 4.271484
878.4247, 2.718689
878.9068, 5.182251
879.3889, 9.920349
879.8710, 16.47345
880.3531, 19.93335
880.8353, 17.63953
881.3174, 15.05054
881.7995, 19.50793
882.2816, 28.06982
882.7637, 28.64496
883.2458, 20.11768
883.7280, 10.62622
884.2101, 0.7732540
884.6922, 4.638428
885.1743, 9.137207
885.6564, 30.08264
886.1385, 34.31958
886.6207, 16.53851
887.1028, 5.843262
887.5849, 6.084595
888.0670, 7.224854
888.5491, 6.221802
889.0313, 5.457825
889.5134, 6.939819
889.9955, 10.47333
890.4776, 15.02637
890.9597, 20.01495
891.4418, 26.81628
891.9240, 44.28778
892.4061, 54.18805
892.8882, 39.75262
893.3703, 15.93195
893.8524, 2.408875
894.3345, 1.552368
894.8167, 4.845337
895.2988, 13.16425
895.7809, 19.75330
896.2630, 19.78564
896.7451, 17.20923
897.2272, 15.30164
897.7094, 14.55957
898.1915, 15.37872
898.6736, 17.89960
899.1557, 19.33423
899.6378, 15.66632
900.1199, 10.70422
900.6021, 9.782959
901.0842, 12.34583
901.5663, 18.81891
902.0484, 27.36694
902.5305, 28.20789
903.0126, 13.97015
903.4948, 2.372131
903.9769, 1.388611
904.4590, 17.97198
904.9411, 23.33722
905.4232, 18.18359
905.9053, 17.04114
906.3875, 24.60553
906.8696, 30.42853
907.3517, 23.04718
907.8338, 8.434814
908.3159, 7.335938
908.7980, 19.97797
909.2802, 30.22247
909.7623, 36.75201
910.2444, 37.36633
910.7265, 29.73895
911.2086, 19.85095
911.6907, 17.05103
912.1729, 21.10132
912.6550, 17.80219
913.1371, 2.886230
913.6192, 5.176819
914.1013, 8.8134997E-02
914.5834, 6.393372
915.0656, 4.772034
915.5477, 0.7988890
916.0298, 0.8010250
916.5119, 6.934082
916.9940, 11.92133
917.4761, 10.57910
917.9583, 11.73376
918.4404, 23.90637
918.9225, 33.77600
919.4046, 26.75183
919.8867, 8.250000
920.3688, 1.283569
920.8510, 2.558472
921.3331, 8.978821
921.8152, 23.68231
922.2973, 32.25739
922.7794, 21.92334
923.2615, 5.891235
923.7437, 0.9807130
924.2258, 6.846191
924.7079, 8.817810
925.1900, 2.405457
925.6721, 10.05048
926.1542, 3.112366
926.6364, 6.104004
927.1185, 6.214050
927.6006, 2.168396
928.0827, 4.904297
928.5648, 16.12677
929.0469, 25.00391
929.5291, 25.54211
930.0112, 21.65710
930.4933, 12.03833
930.9754, 2.546692
931.4575, 2.079163
931.9396, 8.304077
932.4218, 12.67621
932.9039, 12.20154
933.3860, 10.94196
933.8681, 12.63513
934.3502, 15.30414
934.8323, 14.82086
935.3145, 13.81250
935.7966, 21.56708
936.2787, 35.71472
936.7608, 38.48956
937.2429, 19.79150
937.7250, 1.788147
938.2072, 1.575317
938.6893, 12.02862
939.1714, 21.21356
939.6535, 25.38031
940.1356, 24.64935
940.6177, 19.98315
941.0999, 15.94507
941.5820, 15.80267
942.0641, 17.51361
942.5462, 17.20203
943.0283, 15.58282
943.5104, 14.69244
943.9926, 14.45648
944.4747, 14.86560
944.9568, 16.02789
945.4389, 19.29480
945.9210, 26.18396
946.4031, 34.03131
946.8853, 37.04858
947.3674, 35.48322
947.8495, 35.23608
948.3316, 36.87927
948.8137, 38.09979
949.2958, 38.44281
949.7780, 35.44708
950.2601, 24.35071
950.7422, 8.700928
951.2243, 10.95837
951.7064, 35.76385
952.1885, 49.88623
952.6707, 47.31152
953.1528, 40.90735
953.6349, 36.01703
954.1170, 32.91290
954.5991, 31.73083
955.0812, 32.57471
955.5634, 37.22400
956.0455, 50.02936
956.5276, 51.35608
957.0097, 31.91418
957.4918, 15.02563
957.9739, 13.37592
958.4561, 22.11365
958.9382, 35.46448
959.4203, 54.33545
959.9024, 57.02356
960.3845, 29.76599
960.8666, 14.50311
961.3488, 23.81641
961.8309, 38.13519
962.3130, 48.12762
962.7951, 52.80585
963.2772, 49.51801
963.7593, 35.27423
964.2415, 30.21564
964.7236, 48.46350
965.2057, 55.43182
965.6878, 28.69934
966.1699, 5.079590
966.6520, 15.66742
967.1342, 44.98651
967.6163, 56.99158
968.0984, 46.30133
968.5805, 36.74182
969.0626, 27.04456
969.5447, 21.70569
970.0269, 24.82056
970.5090, 30.03082
970.9911, 32.27612
971.4732, 32.76038
971.9553, 35.80200
972.4374, 42.68109
972.9196, 47.13367
973.4017, 46.19092
973.8838, 45.51025
974.3659, 49.37341
974.8480, 52.39130
975.3301, 48.20789
975.8123, 39.25812
976.2944, 33.34985
976.7765, 31.14728
977.2586, 32.23267
977.7407, 40.92993
978.2228, 47.52325
978.7050, 44.43103
979.1871, 40.35040
979.6692, 46.32520
980.1513, 58.55078
980.6334, 62.39215
981.1155, 51.37598
981.5977, 41.61847
982.0798, 39.99664
982.5619, 38.46906
983.0440, 29.55328
983.5261, 20.81213
984.0082, 25.24908
984.4904, 38.51251
984.9725, 41.38336
985.4546, 24.44769
985.9367, 11.77887
986.4188, 14.11493
986.9009, 21.30280
987.3831, 29.14496
987.8652, 35.61841
988.3473, 38.65552
988.8294, 39.19067
989.3115, 42.09949
989.7936, 51.31665
990.2758, 55.72083
990.7579, 47.49988
991.2400, 36.47101
991.7221, 26.95703
992.2042, 21.93433
992.6863, 21.54639
993.1685, 23.90424
993.6506, 27.54651
994.1327, 34.47351
994.6148, 38.29053
995.0969, 34.90485
995.5790, 27.45203
996.0612, 12.38263
996.5433, 1.534729
997.0254, 1.814148
997.5075, 9.967834
997.9896, 21.04779
998.4717, 27.68115
998.9539, 30.79694
999.4360, 28.75946
999.9181, 26.03815
1000.400, 24.03845
1000.882, 23.83667
1001.364, 29.60431
1001.847, 38.74451
1002.329, 39.16113
1002.811, 21.70490
1003.293, 9.541199
1003.775, 18.80231
1004.257, 31.58820
1004.739, 37.11597
1005.221, 37.79553
1005.703, 37.00726
1006.186, 35.17200
1006.668, 31.19263
1007.150, 23.65070
1007.632, 17.48553
1008.114, 16.92700
1008.596, 16.19806
1009.078, 7.851135
1009.560, 1.9714000E-02
1010.043, 4.081543
1010.525, 18.06458
1011.007, 30.84796
1011.489, 40.48248
1011.971, 43.61627
1012.453, 32.87744
1012.935, 22.07806
1013.417, 19.86115
1013.899, 22.05127
1014.382, 25.50616
1014.864, 28.41089
1015.346, 26.53864
1015.828, 16.50586
1016.310, 11.77234
1016.792, 24.67139
1017.274, 35.74097
1017.756, 32.67371
1018.239, 23.57056
1018.721, 13.87732
1019.203, 6.489014
1019.685, 6.831787
1020.167, 17.62036
1020.649, 28.46472
1021.131, 40.07886
1021.613, 45.88940
1022.095, 37.70923
1022.578, 27.00867
1023.060, 23.95508
1023.542, 26.96143
1024.024, 30.83752
1024.506, 35.55029
1024.988, 37.58862
1025.470, 32.78992
1025.952, 29.06396
1026.435, 30.59705
1026.917, 33.23364
1027.399, 35.02307
1027.881, 34.91321
1028.363, 29.56396
1028.845, 17.15503
1029.327, 11.67822
1029.809, 22.37390
1030.292, 31.01758
1030.774, 30.47607
1031.256, 28.59448
1031.738, 33.44275
1032.220, 39.63843
1032.702, 34.71863
1033.184, 16.34460
1033.666, 8.011475
1034.148, 22.25403
1034.630, 31.82397
1035.113, 31.99390
1035.595, 26.85107
1036.077, 14.64795
1036.559, 0.5384520
1037.041, 7.945679
1037.523, 10.56873
1038.005, 11.18469
1038.487, 8.480347
1038.970, 6.146240
1039.452, 3.967896
1039.934, 2.681274
1040.416, 3.825806
1040.898, 5.154419
1041.380, 4.817505
1041.862, 2.450073
1042.344, 6.065918
1042.826, 30.75891
1043.309, 37.94751
1043.791, 14.60486
1044.273, 4.070313
1044.755, 4.254639
1045.237, 4.286865
1045.719, 13.53943
1046.201, 22.60120
1046.683, 27.20618
1047.166, 26.11169
1047.648, 26.18494
1048.130, 31.50854
1048.612, 23.36438
1049.094, 11.64343
1049.576, 40.90601
1050.058, 33.20764
1050.540, 4.203003
1051.022, 2.337646
1051.505, 16.59668
1051.987, 27.96277
1052.469, 30.98438
1052.951, 30.96472
1053.433, 28.70813
1053.915, 26.36694
1054.397, 25.41443
1054.879, 25.26050
1055.361, 26.57104
1055.844, 28.77588
1056.326, 20.97058
1056.808, 3.178711
1057.290, 16.90881
1057.772, 38.14783
1058.254, 44.73645
1058.736, 27.39368
1059.218, 3.308716
1059.701, 6.663452
1060.183, 3.945801
1060.665, 11.73706
1061.147, 36.61169
1061.629, 48.58459
1062.111, 47.05713
1062.593, 49.87085
1063.075, 63.84705
1063.557, 80.13074
1064.040, 90.65320
1064.522, 96.82898
1065.004, 97.46326
1065.486, 96.89343
1065.968, 109.6666
1066.450, 131.4836
1066.932, 143.3224
1067.414, 141.2925
1067.896, 138.3726
1068.379, 142.8271
1068.861, 151.4377
1069.343, 163.4874
1069.825, 175.2947
1070.307, 179.8412
1070.789, 180.8545
1071.271, 185.9923
1071.753, 196.3387
1072.236, 208.8638
1072.718, 222.0056
1073.200, 239.0166
1073.682, 266.1025
1074.164, 293.8330
1074.646, 314.1605
1075.128, 331.3743
1075.610, 351.2513
1076.093, 372.9991
1076.575, 391.2384
1077.057, 404.2797
1077.539, 424.3151
1078.021, 459.0402
1078.503, 499.0602
1078.985, 543.0830
1079.467, 587.6189
1079.949, 629.7229
1080.432, 670.8217
1080.914, 715.8948
1081.396, 764.6633
1081.878, 804.4817
1082.360, 813.0204
1082.842, 843.6709
1083.324, 921.4175
1083.806, 1002.338
1084.288, 1074.542
1084.771, 1133.977
1085.253, 1170.664
1085.735, 1189.492
1086.217, 1214.575
1086.699, 1250.625
1087.181, 1279.813
1087.663, 1300.564
1088.145, 1317.612
1088.628, 1328.688
1089.110, 1343.421
1089.592, 1372.466
1090.074, 1405.975
1090.556, 1422.650
1091.038, 1422.051
1091.520, 1411.623
1092.002, 1387.633
1092.484, 1383.588
1092.967, 1408.106
1093.449, 1430.735
1093.931, 1435.826
1094.413, 1433.813
1094.895, 1439.371
1095.377, 1448.568
1095.859, 1445.172
1096.341, 1430.518
1096.823, 1409.970
1097.306, 1385.517
1097.788, 1371.511
1098.270, 1371.641
1098.752, 1370.608
1099.234, 1356.577
1099.716, 1334.262
1100.198, 1307.999
1100.680, 1280.053
1101.163, 1259.526
1101.645, 1240.900
1102.127, 1208.209
1102.609, 1161.627
1103.091, 1113.151
1103.573, 1068.285
1104.055, 1018.284
1104.537, 945.1062
1105.020, 875.5649
1105.502, 844.4841
1105.984, 823.7329
1106.466, 775.3240
1106.948, 708.3715
1107.430, 648.3364
1107.912, 603.8492
1108.394, 575.4889
1108.876, 573.7871
1109.359, 566.7175
1109.841, 536.8704
1110.323, 506.0039
1110.805, 488.6942
1111.287, 477.1520
1111.769, 461.4225
1112.251, 441.7410
1112.733, 422.8345
1113.215, 402.8838
1113.698, 389.1111
1114.180, 384.0458
1114.662, 383.2776
1115.144, 386.2732
1115.626, 391.0648
1116.108, 398.1731
1116.590, 404.3879
1117.072, 402.7288
1117.555, 392.9484
1118.037, 389.9597
1118.519, 395.4951
1119.001, 398.2546
1119.483, 397.0222
1119.965, 391.2471
1120.447, 379.7102
1120.929, 370.0139
1121.411, 369.6296
1121.894, 377.6641
1122.376, 400.0305
1122.858, 429.3923
1123.340, 417.4819
1123.822, 373.0930
1124.304, 360.1497
1124.786, 387.6145
1125.268, 400.4897
1125.750, 366.4839
1126.233, 324.2246
1126.715, 320.0088
1127.197, 331.0830
1127.679, 326.3247
1128.161, 314.7148
1128.643, 311.3398
1129.125, 314.5576
1129.607, 315.1682
1130.090, 311.0444
1130.572, 307.7673
1131.054, 308.9048
1131.536, 310.2053
1132.018, 312.4104
1132.500, 310.7856
1132.982, 299.8608
1133.464, 284.9031
1133.947, 271.3159
1134.429, 259.5708
1134.911, 248.7478
1135.393, 237.8174
1135.875, 230.9951
1136.357, 233.9551
1136.839, 233.2458
1137.321, 227.6042
1137.803, 215.4827
1138.286, 188.9307
1138.768, 164.3242
1139.250, 169.7834
1139.732, 200.2710
1140.214, 205.7993
1140.696, 182.0547
1141.178, 167.2744
1141.660, 164.6089
1142.142, 162.9436
1142.625, 158.7424
1143.107, 154.6963
1143.589, 152.9167
1144.071, 152.4116
1144.553, 154.0781
1145.035, 154.7656
1145.517, 137.9597
1145.999, 112.9805
1146.482, 115.0876
1146.964, 140.1292
1147.446, 149.6707
1147.928, 130.2341
1148.410, 108.1460
1148.892, 104.0469
1149.374, 103.1389
1149.856, 86.23584
1150.339, 71.97266
1150.821, 86.83081
1151.303, 112.2090
1151.785, 121.5156
1152.267, 112.6282
1152.749, 92.19458
1153.231, 54.21143
1153.713, 35.50757
1154.195, 62.11426
1154.677, 84.41382
1155.160, 85.92017
1155.642, 80.30273
1156.124, 71.86230
1156.606, 65.16235
1157.088, 68.35107
1157.570, 80.19067
1158.052, 85.83252
1158.534, 84.14185
1159.017, 80.17285
1159.499, 72.59668
1159.981, 72.44727
1160.463, 82.56665
1160.945, 101.1384
1161.427, 129.1331
1161.909, 152.2561
1162.391, 140.8096
1162.874, 107.0784
1163.356, 87.75977
1163.838, 82.75122
1164.320, 98.92480
1164.802, 129.9619
1165.284, 151.6289
1165.766, 156.4316
1166.248, 153.9478
1166.730, 148.5632
1167.213, 144.1711
1167.695, 144.4641
1168.177, 146.6455
1168.659, 143.1035
1169.141, 143.5127
1169.623, 166.2739
1170.105, 202.7427
1170.587, 226.3428
1171.069, 231.8887
1171.552, 228.9910
1172.034, 208.5500
1172.516, 196.4639
1172.998, 199.2488
1173.480, 207.4866
1173.962, 220.1248
1174.444, 231.0564
1174.926, 231.3501
1175.409, 225.1704
1175.891, 226.5188
1176.373, 235.5674
1176.855, 254.9365
1177.337, 285.4492
1177.819, 285.9429
1178.301, 249.6956
1178.783, 218.5012
1179.266, 212.6521
1179.748, 224.8022
1180.230, 254.5684
1180.712, 283.7952
1181.194, 276.6948
1181.676, 252.4597
1182.158, 238.1057
1182.640, 235.7791
1183.122, 248.7871
1183.604, 273.0298
1184.087, 295.0103
1184.569, 311.0078
1185.051, 314.6721
1185.533, 290.1987
1186.015, 270.4182
1186.497, 274.4058
1186.979, 282.2366
1187.461, 279.9583
1187.944, 273.0129
1188.426, 270.9639
1188.908, 272.2563
1189.390, 265.2686
1189.872, 241.4373
1190.354, 243.7812
1190.836, 282.6760
1191.318, 298.5813
1191.801, 274.7141
1192.283, 253.8235
1192.765, 260.9980
1193.247, 275.8242
1193.729, 272.1990
1194.211, 258.1841
1194.693, 252.3362
1195.175, 252.5479
1195.657, 254.3367
1196.140, 256.7793
1196.622, 259.2788
1197.104, 261.1995
1197.586, 261.7148
1198.068, 260.9727
1198.550, 253.2671
1199.032, 222.8916
1199.514, 200.2988
1199.996, 216.3982
1200.479, 233.0537
1200.961, 214.5354
1201.443, 180.6846
1201.925, 163.3411
1202.407, 161.4236
1202.889, 151.5022
1203.371, 126.2195
1203.853, 117.6658
1204.336, 131.5825
1204.818, 144.2800
1205.300, 151.8948
1205.782, 154.4031
1206.264, 151.9993
1206.746, 142.6836
1207.228, 122.1897
1207.710, 96.60181
1208.193, 80.93140
1208.675, 72.79028
1209.157, 65.00952
1209.639, 58.75513
1210.121, 58.20801
1210.603, 64.17163
1211.085, 79.72070
1211.567, 106.5620
1212.049, 120.5667
1212.531, 96.69043
1213.014, 69.99951
1213.496, 56.35596
1213.978, 49.35327
1214.460, 44.39404
1214.942, 43.63428
1215.424, 59.25049
1215.906, 80.88501
1216.388, 67.12964
1216.871, 6.565918
1217.353, 15.37866
1217.835, 13.03345
1218.317, 29.79834
1218.799, 25.29614
1219.281, 15.63330
1219.763, 6.995117
1220.245, 1.594482
1220.728, 1.972412
1221.210, 4.485840
1221.692, 2.365234
1222.174, 2.065918
1222.656, 5.564941
1223.138, 6.830566
1223.620, 1.062744
1224.102, 8.722900
1224.584, 9.965088
1225.067, 5.616699
1225.549, 2.811768
1226.031, 5.707764
1226.513, 10.62134
1226.995, 13.82153
1227.477, 14.49463
1227.959, 24.31494
1228.441, 28.18994
1228.923, 16.01709
1229.406, 0.7182620
1229.888, 3.688965
1230.370, 15.25342
1230.852, 0.0000000E+00
##END=



