##NAMES=Melanophlogite
##RRUFFID=R060863
##IDEAL CHEMISTRY=C_2_H_17_O_5_&#183;Si_46_O_92_
##LOCALITY=6 miles east of Mount Hamilton, Santa Clara County, California, USA
##OWNER=RRUFF
##SOURCE=Michael Scott
##DESCRIPTION=Colorless cubes
##STATUS=The identification of this mineral has been confirmed by single-crystal X-ray diffraction.
##URL=rruff.info/R060863
150.7191, 0.0000000E+00
151.2013, 29.85449
151.6834, 57.38745
152.1655, 60.33252
152.6476, 62.31494
153.1297, 78.43579
153.6118, 107.9775
154.0940, 138.8333
154.5761, 158.1487
155.0582, 162.1995
155.5403, 164.0098
156.0224, 166.3696
156.5045, 165.2048
156.9867, 154.6978
157.4688, 135.0015
157.9509, 114.2097
158.4330, 100.6001
158.9151, 95.60059
159.3972, 94.51392
159.8794, 95.23706
160.3615, 102.3159
160.8436, 123.6743
161.3257, 158.7969
161.8078, 195.4851
162.2899, 218.3931
162.7721, 223.2947
163.2542, 236.9773
163.7363, 264.5833
164.2184, 297.8501
164.7005, 330.9158
165.1826, 363.0542
165.6648, 392.3059
166.1469, 413.0496
166.6290, 425.2205
167.1111, 451.0415
167.5932, 512.8210
168.0753, 587.6384
168.5575, 642.4192
169.0396, 667.2239
169.5217, 677.3120
170.0038, 688.1450
170.4859, 701.8662
170.9680, 711.6389
171.4502, 715.8499
171.9323, 721.3196
172.4144, 734.8423
172.8965, 748.9199
173.3786, 752.9019
173.8607, 744.6799
174.3429, 731.7446
174.8250, 717.8833
175.3071, 694.6846
175.7892, 659.9849
176.2713, 623.2822
176.7534, 587.2087
177.2356, 553.3921
177.7177, 528.1274
178.1998, 506.9775
178.6819, 476.8364
179.1640, 424.1628
179.6461, 364.8259
180.1283, 322.5552
180.6104, 300.8979
181.0925, 283.0627
181.5746, 257.4551
182.0567, 226.8735
182.5388, 195.8877
183.0210, 165.4380
183.5031, 135.4148
183.9852, 104.4888
184.4673, 71.22485
184.9494, 42.43237
185.4315, 23.68701
185.9137, 12.19897
186.3958, 5.330811
186.8779, 5.111084
187.3600, 7.313721
187.8421, 5.925537
188.3242, 0.5332030
188.8064, 7.034424
189.2885, 19.65356
189.7706, 32.99707
190.2527, 40.83813
190.7348, 39.02148
191.2169, 33.22681
191.6991, 31.08765
192.1812, 32.56616
192.6633, 37.95728
193.1454, 53.56006
193.6275, 71.21973
194.1096, 82.10132
194.5918, 83.32983
195.0739, 77.54907
195.5560, 65.89160
196.0381, 46.28687
196.5202, 30.45068
197.0023, 23.90039
197.4845, 23.40381
197.9666, 28.59180
198.4487, 41.46924
198.9308, 53.83472
199.4129, 54.41602
199.8950, 41.54443
200.3772, 25.65186
200.8593, 4.057129
201.3414, 16.18311
201.8235, 28.24268
202.3056, 29.62915
202.7877, 28.29834
203.2699, 34.23682
203.7520, 48.94116
204.2341, 61.56152
204.7162, 68.43848
205.1983, 72.50610
205.6804, 73.87402
206.1626, 72.51123
206.6447, 73.45386
207.1268, 84.35620
207.6089, 106.5295
208.0910, 123.8540
208.5731, 129.0354
209.0553, 131.9167
209.5374, 140.2896
210.0195, 154.4685
210.5016, 167.1211
210.9837, 166.4150
211.4658, 151.3948
211.9480, 152.1523
212.4301, 185.1902
212.9122, 224.6477
213.3943, 255.8892
213.8764, 278.8872
214.3585, 298.7590
214.8407, 321.0405
215.3228, 345.5459
215.8049, 361.9243
216.2870, 356.4595
216.7691, 357.5225
217.2512, 385.6406
217.7334, 434.6152
218.2155, 482.1221
218.6976, 511.5430
219.1797, 524.5459
219.6618, 535.7173
220.1439, 540.7578
220.6261, 550.1245
221.1082, 571.3857
221.5903, 600.4302
222.0724, 628.0811
222.5545, 649.5151
223.0366, 665.3970
223.5188, 677.1938
224.0009, 681.7959
224.4830, 687.8813
224.9651, 703.5088
225.4472, 722.3081
225.9293, 733.4580
226.4115, 728.0293
226.8936, 714.6787
227.3757, 715.8877
227.8578, 739.7441
228.3399, 758.9907
228.8220, 759.1138
229.3041, 750.4551
229.7863, 744.1079
230.2684, 743.8340
230.7505, 747.9316
231.2326, 756.1631
231.7147, 771.8784
232.1968, 779.4463
232.6790, 757.8359
233.1611, 733.1572
233.6432, 731.3730
234.1253, 761.8320
234.6074, 800.4287
235.0895, 817.3164
235.5717, 810.2217
236.0538, 801.0703
236.5359, 787.8081
237.0180, 780.2310
237.5001, 792.0039
237.9822, 825.1963
238.4644, 853.7583
238.9465, 842.5283
239.4286, 792.9316
239.9107, 770.9487
240.3928, 804.8359
240.8749, 855.0620
241.3571, 892.6304
241.8392, 917.4121
242.3213, 941.0327
242.8034, 971.8296
243.2855, 1008.628
243.7676, 1044.786
244.2498, 1080.782
244.7319, 1115.327
245.2140, 1147.053
245.6961, 1176.564
246.1782, 1205.858
246.6603, 1240.192
247.1425, 1274.836
247.6246, 1293.118
248.1067, 1284.464
248.5888, 1286.773
249.0709, 1336.151
249.5530, 1412.463
250.0352, 1480.066
250.5173, 1519.321
250.9994, 1546.769
251.4815, 1591.376
251.9636, 1657.514
252.4457, 1716.240
252.9279, 1743.248
253.4100, 1755.682
253.8921, 1777.701
254.3742, 1814.064
254.8563, 1859.171
255.3384, 1910.511
255.8206, 1967.574
256.3027, 2023.510
256.7848, 2079.060
257.2669, 2129.344
257.7490, 2164.573
258.2311, 2177.772
258.7133, 2197.473
259.1954, 2250.971
259.6775, 2327.915
260.1596, 2386.183
260.6417, 2408.820
261.1238, 2415.766
261.6060, 2430.850
262.0881, 2453.051
262.5702, 2485.391
263.0523, 2541.295
263.5344, 2605.618
264.0165, 2647.536
264.4987, 2658.624
264.9808, 2660.216
265.4629, 2677.024
265.9450, 2707.180
266.4271, 2727.812
266.9092, 2733.966
267.3914, 2728.934
267.8735, 2710.680
268.3556, 2679.347
268.8377, 2653.074
269.3198, 2649.145
269.8019, 2664.960
270.2841, 2667.845
270.7662, 2652.881
271.2483, 2629.269
271.7304, 2594.781
272.2125, 2553.930
272.6946, 2525.948
273.1768, 2523.834
273.6589, 2540.650
274.1410, 2549.073
274.6231, 2553.208
275.1052, 2545.703
275.5873, 2519.970
276.0695, 2481.649
276.5516, 2439.457
277.0337, 2396.113
277.5158, 2353.442
277.9979, 2314.808
278.4800, 2278.452
278.9622, 2249.939
279.4443, 2233.402
279.9264, 2223.179
280.4085, 2213.810
280.8906, 2204.141
281.3727, 2196.424
281.8549, 2194.232
282.3370, 2200.863
282.8191, 2199.383
283.3012, 2182.455
283.7833, 2164.511
284.2654, 2157.656
284.7476, 2158.909
285.2297, 2153.726
285.7118, 2129.161
286.1939, 2085.384
286.6760, 2051.640
287.1581, 2038.208
287.6403, 2022.670
288.1224, 1997.068
288.6045, 1965.652
289.0866, 1936.300
289.5687, 1913.378
290.0508, 1894.291
290.5330, 1870.329
291.0151, 1832.236
291.4972, 1802.760
291.9793, 1794.791
292.4614, 1789.813
292.9435, 1770.788
293.4257, 1732.847
293.9078, 1683.385
294.3899, 1632.374
294.8720, 1577.540
295.3541, 1527.494
295.8362, 1483.712
296.3184, 1443.677
296.8005, 1409.402
297.2826, 1378.883
297.7647, 1345.597
298.2468, 1300.901
298.7289, 1245.057
299.2111, 1200.984
299.6932, 1176.688
300.1753, 1155.171
300.6574, 1135.053
301.1395, 1112.618
301.6216, 1080.167
302.1038, 1029.299
302.5859, 971.0244
303.0680, 935.7764
303.5501, 935.9692
304.0322, 926.0142
304.5143, 876.1074
304.9964, 815.0601
305.4785, 770.3706
305.9607, 750.7891
306.4428, 739.6919
306.9249, 720.4170
307.4070, 693.0864
307.8891, 664.4604
308.3712, 635.0503
308.8534, 605.8511
309.3355, 576.6084
309.8176, 547.3608
310.2997, 522.5332
310.7818, 508.9048
311.2639, 501.0034
311.7461, 485.5713
312.2282, 461.2407
312.7103, 429.1270
313.1924, 382.9336
313.6745, 327.9663
314.1566, 282.8364
314.6388, 252.7324
315.1209, 233.0942
315.6030, 223.1650
316.0851, 221.9814
316.5672, 219.6533
317.0493, 209.4170
317.5315, 194.9165
318.0136, 188.4473
318.4957, 200.1714
318.9778, 204.0195
319.4599, 184.8989
319.9420, 151.8354
320.4242, 118.3525
320.9063, 88.05176
321.3884, 66.22168
321.8705, 64.07178
322.3526, 94.86133
322.8347, 109.5439
323.3169, 93.72461
323.7990, 69.41162
324.2811, 50.94043
324.7632, 41.04541
325.2453, 40.12549
325.7274, 50.58643
326.2096, 73.65234
326.6917, 81.93408
327.1738, 64.50293
327.6559, 46.26416
328.1380, 31.80420
328.6201, 22.74072
329.1023, 21.65332
329.5844, 30.27051
330.0665, 44.90137
330.5486, 54.29688
331.0307, 56.72607
331.5128, 56.35303
331.9950, 49.65918
332.4771, 43.08057
332.9592, 44.35645
333.4413, 54.04004
333.9234, 63.48291
334.4055, 57.42969
334.8877, 30.22705
335.3698, 26.18945
335.8519, 71.99658
336.3340, 117.1689
336.8161, 142.4771
337.2982, 150.1133
337.7804, 148.0078
338.2625, 137.2529
338.7446, 122.9805
339.2267, 118.9326
339.7088, 126.2744
340.1909, 139.5454
340.6731, 166.9497
341.1552, 194.3462
341.6373, 203.2402
342.1194, 185.9741
342.6015, 165.0938
343.0836, 160.2803
343.5658, 170.8813
344.0479, 190.6997
344.5300, 221.4062
345.0121, 255.0093
345.4942, 286.2017
345.9763, 316.2217
346.4585, 334.8325
346.9406, 329.4888
347.4227, 314.6470
347.9048, 309.0146
348.3869, 314.4922
348.8690, 327.9995
349.3512, 350.6909
349.8333, 380.6069
350.3154, 401.2280
350.7975, 400.8359
351.2796, 402.8726
351.7617, 421.5938
352.2439, 450.4658
352.7260, 474.4941
353.2081, 486.9580
353.6902, 494.3408
354.1723, 510.2261
354.6544, 547.3223
355.1366, 572.0820
355.6187, 570.8838
356.1008, 566.9346
356.5829, 581.6895
357.0650, 614.6992
357.5471, 647.4570
358.0293, 662.5620
358.5114, 659.3721
358.9935, 659.4160
359.4756, 665.1909
359.9577, 672.2847
360.4398, 678.7749
360.9220, 684.7363
361.4041, 691.9434
361.8862, 703.5527
362.3683, 716.6626
362.8504, 722.1543
363.3326, 716.0664
363.8147, 710.1172
364.2968, 710.5190
364.7789, 707.7461
365.2610, 691.5791
365.7431, 663.3423
366.2253, 639.2842
366.7074, 634.5796
367.1895, 645.6616
367.6716, 655.2769
368.1537, 664.0420
368.6358, 668.8228
369.1180, 663.6411
369.6001, 652.8994
370.0822, 646.0249
370.5643, 648.3682
371.0464, 653.6768
371.5285, 658.7090
372.0107, 661.0063
372.4928, 651.9360
372.9749, 625.5996
373.4570, 590.6890
373.9391, 561.8916
374.4212, 539.0405
374.9034, 522.2681
375.3855, 520.2183
375.8676, 520.0078
376.3497, 505.1133
376.8318, 473.9092
377.3139, 438.5044
377.7961, 408.0752
378.2782, 382.8809
378.7603, 363.8120
379.2424, 356.5679
379.7245, 347.9839
380.2066, 336.6250
380.6888, 320.2451
381.1709, 292.7271
381.6530, 251.4663
382.1351, 206.3623
382.6172, 180.1406
383.0993, 188.6377
383.5815, 182.4619
384.0636, 150.5259
384.5457, 113.5586
385.0278, 81.17383
385.5099, 54.99561
385.9920, 33.69531
386.4742, 15.36475
386.9563, 0.7529300
387.4384, 4.066406
387.9205, 7.179688
388.4026, 16.63770
388.8847, 17.11572
389.3669, 11.59277
389.8490, 2.326172
390.3311, 11.62500
390.8132, 23.57471
391.2953, 24.29590
391.7774, 15.98877
392.2596, 13.12402
392.7417, 20.43457
393.2238, 32.08740
393.7059, 43.42920
394.1880, 54.16235
394.6701, 59.32397
395.1523, 51.22241
395.6344, 41.30933
396.1165, 43.35742
396.5986, 55.85059
397.0807, 64.56836
397.5628, 60.92456
398.0450, 47.56592
398.5271, 34.35767
399.0092, 17.19873
399.4913, 5.778076
399.9734, 3.860840
400.4555, 7.690918
400.9377, 16.67163
401.4197, 28.88086
401.9019, 35.60889
402.3840, 25.47437
402.8661, 5.236816
403.3482, 22.88159
403.8303, 15.02368
404.3124, 7.588623
404.7946, 9.206299
405.2767, 15.39673
405.7588, 18.72705
406.2409, 15.70337
406.7230, 8.576416
407.2051, 0.3166500
407.6873, 10.14404
408.1694, 16.56689
408.6515, 15.64648
409.1336, 11.42871
409.6157, 5.793945
410.0978, 0.5993650
410.5800, 5.677002
411.0621, 8.392334
411.5442, 8.846436
412.0263, 6.681885
412.5084, 1.906494
412.9905, 4.332520
413.4727, 13.59497
413.9548, 23.10034
414.4369, 25.71167
414.9190, 16.73193
415.4011, 8.485352
415.8832, 6.212402
416.3654, 7.906250
416.8475, 12.73145
417.3296, 20.36743
417.8117, 22.71655
418.2938, 7.917236
418.7759, 30.02637
419.2581, 45.35010
419.7402, 19.63135
420.2223, 5.780762
420.7044, 15.41016
421.1865, 12.02783
421.6686, 1.545654
422.1508, 13.41113
422.6329, 29.76074
423.1150, 40.42456
423.5971, 42.74243
424.0792, 45.85669
424.5613, 52.88501
425.0435, 59.03027
425.5256, 59.05054
426.0077, 54.88599
426.4898, 55.67236
426.9719, 76.31348
427.4540, 104.0039
427.9362, 97.06128
428.4183, 45.80688
428.9004, 4.949951
429.3825, 3.187256
429.8646, 26.19238
430.3467, 52.77271
430.8289, 84.79639
431.3110, 111.1340
431.7931, 122.0205
432.2752, 124.7871
432.7573, 132.7922
433.2394, 148.4563
433.7216, 163.6387
434.2037, 170.1204
434.6858, 167.7441
435.1679, 169.9033
435.6500, 175.2825
436.1321, 185.8711
436.6143, 209.8330
437.0964, 237.1802
437.5785, 252.5054
438.0606, 250.3154
438.5427, 238.4465
439.0248, 228.5854
439.5070, 220.5063
439.9891, 214.9602
440.4712, 208.4299
440.9533, 208.0247
441.4354, 228.0007
441.9175, 255.9644
442.3997, 263.6140
442.8818, 230.2065
443.3639, 178.6350
443.8460, 151.8682
444.3281, 151.8704
444.8102, 150.5925
445.2924, 134.2148
445.7745, 119.4641
446.2566, 131.7651
446.7387, 171.9587
447.2208, 193.9919
447.7029, 165.4033
448.1851, 118.6101
448.6672, 89.09766
449.1493, 79.21851
449.6314, 81.44604
450.1135, 93.35205
450.5956, 111.3074
451.0778, 122.5791
451.5599, 124.1484
452.0420, 123.1887
452.5241, 121.5054
453.0062, 117.9387
453.4883, 109.7429
453.9705, 96.75781
454.4526, 82.17334
454.9347, 69.17847
455.4168, 58.52808
455.8989, 51.51025
456.3810, 46.15649
456.8632, 48.15991
457.3453, 66.37524
457.8274, 87.32666
458.3095, 94.33521
458.7916, 82.60864
459.2737, 68.77686
459.7559, 72.42480
460.2380, 89.62012
460.7201, 96.04321
461.2022, 83.12939
461.6843, 71.48218
462.1664, 80.76587
462.6486, 105.0652
463.1307, 121.4878
463.6128, 124.3430
464.0949, 122.6890
464.5770, 121.9243
465.0591, 119.4270
465.5413, 108.2097
466.0234, 86.48389
466.5055, 63.72583
466.9876, 51.18457
467.4697, 49.35620
467.9518, 56.85669
468.4340, 86.62183
468.9161, 110.4980
469.3982, 114.9375
469.8803, 107.0693
470.3624, 98.93481
470.8445, 95.62427
471.3267, 94.40308
471.8088, 91.59619
472.2909, 87.64038
472.7730, 82.72559
473.2551, 77.64136
473.7372, 69.83447
474.2194, 53.89258
474.7015, 33.34912
475.1836, 19.99438
475.6657, 19.03198
476.1478, 27.71948
476.6299, 49.27637
477.1121, 78.76489
477.5942, 96.50537
478.0763, 94.14404
478.5584, 81.25073
479.0405, 71.59619
479.5226, 67.01074
480.0048, 61.20312
480.4869, 45.28955
480.9690, 35.59839
481.4511, 46.92310
481.9332, 72.09912
482.4153, 93.86157
482.8975, 103.0886
483.3796, 103.4971
483.8617, 103.7292
484.3438, 104.8218
484.8259, 103.7056
485.3080, 96.42554
485.7902, 89.25024
486.2723, 85.51904
486.7544, 83.22754
487.2365, 79.31689
487.7186, 72.86719
488.2007, 64.23828
488.6829, 51.15161
489.1650, 33.63623
489.6471, 23.74878
490.1292, 27.60400
490.6113, 38.53809
491.0934, 47.87720
491.5756, 56.34912
492.0577, 59.63647
492.5398, 49.15356
493.0219, 39.89551
493.5040, 46.95337
493.9861, 65.14453
494.4683, 77.42114
494.9504, 74.36060
495.4325, 62.11548
495.9146, 55.68921
496.3967, 57.34033
496.8788, 59.96631
497.3610, 67.24341
497.8431, 71.81592
498.3252, 68.22827
498.8073, 58.37378
499.2894, 48.39771
499.7715, 42.02173
500.2536, 36.78979
500.7357, 25.03882
501.2179, 6.568115
501.7000, 1.495117
502.1821, 22.86572
502.6642, 50.59546
503.1463, 56.36230
503.6284, 40.51123
504.1106, 29.96533
504.5927, 34.83740
505.0748, 42.18945
505.5569, 40.51074
506.0390, 32.98730
506.5211, 31.57788
507.0033, 42.68579
507.4854, 59.01685
507.9675, 65.55811
508.4496, 56.80396
508.9317, 51.67163
509.4138, 55.69946
509.8960, 57.44165
510.3781, 48.00879
510.8602, 32.64209
511.3423, 22.82056
511.8244, 24.36792
512.3066, 32.49902
512.7887, 42.97974
513.2708, 55.56567
513.7529, 61.44336
514.2350, 56.98169
514.7172, 48.59570
515.1993, 40.91699
515.6814, 34.22925
516.1635, 32.75171
516.6456, 44.81616
517.1277, 53.90112
517.6099, 47.51904
518.0920, 32.49805
518.5741, 20.17676
519.0562, 14.37964
519.5383, 15.61548
520.0204, 27.65454
520.5026, 55.71265
520.9847, 65.77905
521.4668, 35.67773
521.9489, 10.42627
522.4310, 5.563965
522.9131, 12.30835
523.3953, 18.41772
523.8774, 19.93945
524.3595, 19.10767
524.8416, 17.89966
525.3237, 16.63501
525.8058, 15.47559
526.2880, 14.18750
526.7701, 15.88940
527.2522, 25.87085
527.7343, 40.68604
528.2164, 44.62915
528.6985, 28.13916
529.1807, 13.83203
529.6628, 5.265137
530.1449, 4.277344
530.6270, 18.95459
531.1091, 46.98145
531.5912, 69.35547
532.0734, 67.15063
532.5555, 43.47681
533.0376, 28.14307
533.5197, 23.79810
534.0018, 24.40088
534.4839, 32.87598
534.9661, 42.64380
535.4482, 47.63257
535.9303, 47.27148
536.4124, 45.88867
536.8945, 44.73267
537.3766, 45.01611
537.8588, 49.54346
538.3409, 58.02930
538.8230, 67.49634
539.3051, 78.60376
539.7872, 87.47021
540.2693, 84.59570
540.7515, 61.58936
541.2336, 47.31250
541.7157, 49.23560
542.1978, 54.43115
542.6799, 52.64966
543.1620, 47.44678
543.6442, 51.35962
544.1263, 71.89355
544.6084, 95.09961
545.0905, 87.85864
545.5726, 42.72192
546.0547, 20.34546
546.5369, 42.75146
547.0190, 69.45776
547.5011, 71.63403
547.9832, 57.16626
548.4653, 46.06274
548.9474, 44.13184
549.4296, 45.62305
549.9116, 45.81665
550.3937, 46.55762
550.8759, 55.52197
551.3580, 74.18188
551.8401, 86.88477
552.3222, 75.15576
552.8043, 39.11279
553.2864, 20.03198
553.7686, 28.78418
554.2507, 42.58887
554.7328, 68.06860
555.2149, 91.22290
555.6970, 95.12720
556.1791, 79.36938
556.6613, 62.89429
557.1434, 64.10938
557.6255, 76.16846
558.1076, 78.25684
558.5897, 69.34546
559.0718, 59.51685
559.5540, 50.01685
560.0361, 45.37085
560.5182, 57.80859
561.0003, 92.98413
561.4824, 112.3367
561.9645, 99.61694
562.4467, 78.75220
562.9288, 62.67529
563.4109, 52.38403
563.8930, 47.93091
564.3751, 49.56177
564.8572, 52.78931
565.3394, 47.99756
565.8215, 32.39551
566.3036, 23.75537
566.7857, 23.75464
567.2678, 29.97925
567.7499, 47.87769
568.2321, 68.97656
568.7142, 76.62769
569.1963, 62.32544
569.6784, 46.16431
570.1605, 41.49097
570.6426, 44.18188
571.1248, 48.56689
571.6069, 53.31787
572.0890, 54.42578
572.5711, 47.94800
573.0532, 35.85303
573.5353, 29.06006
574.0175, 26.44800
574.4996, 31.49341
574.9817, 55.66968
575.4638, 78.03882
575.9459, 81.44653
576.4280, 68.50879
576.9102, 53.96460
577.3923, 44.92480
577.8744, 40.91113
578.3565, 41.44873
578.8386, 46.34399
579.3207, 54.60742
579.8029, 67.13745
580.2850, 79.91406
580.7671, 88.16309
581.2492, 91.54053
581.7313, 96.74390
582.2134, 98.71021
582.6956, 108.2566
583.1777, 140.8242
583.6598, 177.7981
584.1419, 191.9607
584.6240, 179.7861
585.1061, 165.1787
585.5883, 172.3972
586.0704, 198.0342
586.5525, 219.9536
587.0346, 234.8245
587.5167, 252.7065
587.9988, 283.7058
588.4810, 314.3555
588.9631, 328.4321
589.4452, 325.0361
589.9273, 318.4570
590.4094, 304.2295
590.8915, 295.9165
591.3737, 309.7583
591.8558, 338.3110
592.3379, 363.7727
592.8200, 379.1345
593.3021, 385.4646
593.7842, 383.9797
594.2664, 373.6677
594.7485, 360.7627
595.2306, 347.2097
595.7127, 327.9028
596.1948, 298.2217
596.6769, 263.6453
597.1591, 229.6582
597.6412, 196.6079
598.1233, 168.8584
598.6054, 150.6536
599.0875, 138.9302
599.5696, 130.1575
600.0518, 123.3362
600.5339, 114.3352
601.0160, 100.1938
601.4981, 85.47217
601.9802, 78.58984
602.4623, 84.32568
602.9445, 85.34912
603.4266, 79.14258
603.9087, 71.25366
604.3908, 60.57397
604.8729, 50.83765
605.3550, 50.09717
605.8372, 62.57495
606.3193, 73.64331
606.8014, 65.83789
607.2835, 45.16260
607.7656, 26.04785
608.2477, 9.367188
608.7299, 6.432373
609.2120, 29.81958
609.6941, 66.64722
610.1762, 77.03223
610.6583, 31.76709
611.1404, 10.87085
611.6226, 40.30811
612.1047, 72.53418
612.5868, 75.83350
613.0689, 58.21313
613.5510, 42.62524
614.0331, 39.69946
614.5153, 43.47119
614.9974, 48.14819
615.4795, 53.07422
615.9616, 52.94360
616.4437, 46.74585
616.9258, 36.38062
617.4080, 19.96777
617.8901, 0.9985350
618.3722, 6.577881
618.8543, 3.281494
619.3364, 12.63110
619.8185, 20.66406
620.3007, 25.50977
620.7828, 23.40503
621.2649, 16.69604
621.7470, 11.21509
622.2291, 9.683594
622.7112, 13.63062
623.1934, 31.84839
623.6755, 64.46997
624.1576, 74.26587
624.6397, 48.51880
625.1218, 18.01904
625.6039, 1.622803
626.0861, 1.991455
626.5682, 0.7497560
627.0503, 15.07080
627.5324, 27.66089
628.0145, 33.35938
628.4966, 36.37231
628.9788, 42.07690
629.4609, 48.49561
629.9430, 46.15356
630.4251, 28.09741
630.9072, 5.137451
631.3893, 1.515625
631.8715, 19.63647
632.3536, 32.01270
632.8357, 30.77075
633.3178, 28.62817
633.7999, 38.32178
634.2820, 53.27075
634.7642, 54.23901
635.2463, 29.67749
635.7284, 14.64746
636.2105, 27.65552
636.6926, 47.04956
637.1747, 49.32324
637.6569, 37.35474
638.1390, 32.77563
638.6211, 49.91870
639.1032, 73.40967
639.5853, 65.93188
640.0674, 22.69873
640.5496, 1.714600
641.0317, 5.647461
641.5138, 20.15454
641.9959, 30.42896
642.4780, 35.19824
642.9601, 29.44165
643.4423, 2.521729
643.9244, 13.35156
644.4065, 0.4191890
644.8886, 24.62988
645.3707, 45.03931
645.8528, 58.77173
646.3350, 64.06689
646.8171, 59.81934
647.2992, 48.60425
647.7813, 30.68188
648.2634, 4.292969
648.7455, 0.1940920
649.2277, 33.66650
649.7098, 61.79443
650.1919, 49.01587
650.6740, 14.52026
651.1561, 1.302246
651.6382, 10.23633
652.1204, 22.36597
652.6025, 27.09277
653.0846, 29.48462
653.5667, 36.40283
654.0488, 44.73462
654.5309, 44.37451
655.0131, 30.30176
655.4952, 11.09961
655.9773, 1.087402
656.4594, 6.293945
656.9415, 3.451660
657.4236, 11.90356
657.9058, 21.90405
658.3879, 10.70605
658.8700, 8.437256
659.3521, 7.117188
659.8342, 22.20581
660.3163, 42.59326
660.7985, 42.21460
661.2806, 34.36865
661.7627, 25.38062
662.2448, 16.46606
662.7269, 8.270264
663.2090, 1.052734
663.6912, 5.556152
664.1733, 12.49512
664.6554, 19.48584
665.1375, 24.87354
665.6196, 29.15112
666.1017, 29.20239
666.5839, 22.95923
667.0660, 12.49731
667.5481, 0.1242680
668.0302, 15.81592
668.5123, 27.53003
668.9944, 32.72827
669.4766, 36.07202
669.9587, 41.46338
670.4408, 45.62476
670.9229, 42.38281
671.4050, 31.14478
671.8871, 19.44165
672.3693, 13.50513
672.8514, 12.39355
673.3335, 15.06445
673.8156, 21.61768
674.2977, 23.56494
674.7798, 16.65186
675.2620, 7.785889
675.7441, 4.437012
676.2262, 6.703369
676.7083, 12.65601
677.1904, 28.17212
677.6725, 39.38452
678.1547, 41.33203
678.6368, 38.81812
679.1189, 35.12744
679.6010, 31.32715
680.0831, 28.70288
680.5652, 29.11133
681.0474, 29.64990
681.5295, 24.25879
682.0116, 14.82983
682.4937, 11.41138
682.9758, 16.63989
683.4579, 20.76270
683.9401, 13.97900
684.4222, 0.4506840
684.9043, 2.786621
685.3864, 20.17871
685.8685, 33.82739
686.3506, 23.00439
686.8328, 15.54565
687.3149, 40.40601
687.7970, 80.52881
688.2791, 90.97754
688.7612, 46.88281
689.2433, 0.3017580
689.7255, 8.523682
690.2076, 7.407715
690.6897, 30.16235
691.1718, 53.91479
691.6539, 56.56787
692.1360, 22.81909
692.6182, 25.44385
693.1003, 40.28003
693.5824, 12.24438
694.0645, 13.40649
694.5466, 42.07715
695.0287, 60.81909
695.5109, 58.62305
695.9930, 44.53955
696.4751, 29.17261
696.9572, 12.20483
697.4393, 6.559814
697.9214, 26.76465
698.4036, 51.74316
698.8857, 67.44556
699.3678, 73.69775
699.8499, 70.81519
700.3320, 59.56494
700.8141, 45.93799
701.2963, 35.41943
701.7784, 27.85669
702.2605, 28.94849
702.7426, 40.57104
703.2247, 48.36694
703.7068, 46.78223
704.1890, 41.49805
704.6711, 37.05249
705.1532, 33.64233
705.6353, 35.91846
706.1174, 52.44507
706.5995, 64.04541
707.0817, 61.08350
707.5638, 53.49463
708.0459, 50.67676
708.5280, 53.05688
709.0101, 56.53955
709.4922, 59.75732
709.9744, 61.18945
710.4565, 57.68262
710.9386, 50.35913
711.4207, 44.79932
711.9028, 41.96143
712.3849, 38.20605
712.8671, 30.59937
713.3492, 20.89087
713.8313, 13.85181
714.3134, 5.994629
714.7955, 8.114990
715.2776, 26.68066
715.7598, 47.85327
716.2419, 70.83398
716.7240, 90.47144
717.2061, 100.2927
717.6882, 98.78906
718.1703, 92.95215
718.6525, 81.80664
719.1346, 72.32227
719.6167, 74.84595
720.0988, 86.05884
720.5809, 93.52563
721.0630, 93.12427
721.5452, 95.23633
722.0273, 115.1807
722.5094, 150.4336
722.9915, 169.1287
723.4736, 167.4319
723.9557, 163.1765
724.4379, 162.8818
724.9200, 160.9143
725.4021, 147.6670
725.8842, 125.2393
726.3663, 111.0198
726.8484, 115.1892
727.3306, 116.9343
727.8127, 104.0669
728.2948, 90.26611
728.7769, 92.73389
729.2590, 106.9480
729.7411, 113.0649
730.2233, 99.57690
730.7054, 77.70142
731.1875, 60.27124
731.6696, 46.95190
732.1517, 37.31689
732.6339, 31.33984
733.1160, 25.78979
733.5981, 17.99194
734.0802, 11.87500
734.5623, 16.51489
735.0444, 37.55225
735.5266, 49.50415
736.0087, 45.47729
736.4908, 40.64014
736.9729, 37.86914
737.4550, 37.52124
737.9371, 41.33789
738.4193, 49.17847
738.9014, 54.27856
739.3835, 54.39746
739.8656, 50.15381
740.3477, 36.48071
740.8298, 20.84106
741.3120, 16.32617
741.7941, 24.95850
742.2762, 40.07983
742.7583, 59.36646
743.2404, 78.08960
743.7225, 77.67261
744.2047, 56.95874
744.6868, 42.14453
745.1689, 38.39868
745.6510, 37.40674
746.1331, 32.21997
746.6152, 25.73340
747.0973, 27.79224
747.5794, 45.65503
748.0615, 59.34131
748.5436, 72.43481
749.0258, 75.21777
749.5079, 50.11719
749.9900, 16.62988
750.4721, 7.438232
750.9542, 31.66602
751.4363, 51.13062
751.9185, 23.53516
752.4006, 15.93555
752.8827, 19.83496
753.3648, 4.166504
753.8469, 34.24634
754.3290, 63.08936
754.8112, 80.51929
755.2933, 74.64160
755.7754, 50.38452
756.2575, 29.04541
756.7396, 9.211670
757.2217, 0.7148440
757.7039, 3.927490
758.1860, 13.82397
758.6681, 25.88159
759.1502, 37.52222
759.6323, 39.19116
760.1144, 22.65918
760.5966, 11.46045
761.0787, 8.880127
761.5608, 12.95874
762.0429, 28.75171
762.5250, 48.33350
763.0071, 56.39478
763.4893, 48.45410
763.9714, 40.80493
764.4535, 53.02808
764.9356, 70.71069
765.4177, 67.43286
765.8998, 47.50879
766.3820, 29.01489
766.8641, 17.65112
767.3462, 14.61987
767.8283, 22.77173
768.3104, 39.51270
768.7925, 48.47534
769.2747, 48.71753
769.7568, 43.35986
770.2389, 27.10547
770.7210, 13.52173
771.2031, 12.91309
771.6852, 22.87329
772.1674, 36.83887
772.6495, 61.49390
773.1316, 76.51367
773.6137, 71.65112
774.0958, 62.36523
774.5779, 53.67676
775.0601, 49.38501
775.5422, 56.34375
776.0243, 76.00537
776.5064, 96.30615
776.9885, 108.9272
777.4706, 115.2908
777.9528, 115.5291
778.4349, 111.2251
778.9170, 108.0474
779.3991, 107.5007
779.8812, 106.0295
780.3633, 99.21655
780.8455, 90.17529
781.3276, 94.10376
781.8097, 115.1194
782.2918, 130.1489
782.7739, 132.9402
783.2560, 135.1799
783.7382, 146.8489
784.2203, 162.8884
784.7024, 168.2224
785.1845, 154.4844
785.6666, 153.6509
786.1487, 172.9993
786.6309, 200.9368
787.1130, 242.0657
787.5951, 283.2312
788.0772, 306.2849
788.5593, 309.8132
789.0414, 307.7634
789.5236, 302.6379
790.0057, 299.6477
790.4878, 306.5068
790.9699, 321.5444
791.4520, 341.6079
791.9341, 364.3188
792.4163, 385.6458
792.8984, 401.9290
793.3805, 416.2576
793.8626, 436.4473
794.3447, 462.7319
794.8268, 489.0872
795.3090, 515.8936
795.7911, 539.3062
796.2732, 555.2161
796.7553, 568.5105
797.2374, 588.9487
797.7195, 619.6575
798.2017, 642.8132
798.6838, 656.5315
799.1659, 665.8254
799.6480, 665.8650
800.1301, 666.6099
800.6122, 679.8733
801.0944, 703.1736
801.5765, 721.6858
802.0586, 730.4749
802.5407, 732.4890
803.0228, 727.4912
803.5049, 717.3772
803.9871, 699.1980
804.4692, 677.7288
804.9513, 668.6152
805.4334, 678.0728
805.9155, 691.2192
806.3976, 692.4771
806.8798, 682.5466
807.3619, 660.5911
807.8440, 627.1643
808.3261, 599.0046
808.8082, 582.7793
809.2903, 565.9741
809.7725, 534.9194
810.2546, 490.5422
810.7367, 447.2878
811.2188, 403.1140
811.7009, 367.5503
812.1830, 343.7341
812.6652, 326.4800
813.1473, 318.7908
813.6294, 313.7524
814.1115, 295.3586
814.5936, 256.5823
815.0757, 224.9319
815.5579, 204.8694
816.0400, 194.4814
816.5221, 203.3562
817.0042, 215.6719
817.4863, 205.9548
817.9684, 173.5120
818.4506, 147.7517
818.9327, 153.1504
819.4148, 165.2446
819.8969, 155.3413
820.3790, 132.8328
820.8611, 113.7561
821.3433, 101.7769
821.8254, 101.6589
822.3075, 117.2598
822.7896, 136.2056
823.2717, 134.2942
823.7538, 113.0903
824.2360, 104.3379
824.7181, 110.5593
825.2002, 115.3962
825.6823, 112.9521
826.1644, 106.2336
826.6465, 98.45850
827.1287, 89.62256
827.6108, 80.16602
828.0929, 65.34961
828.5750, 57.81909
829.0571, 68.27563
829.5392, 77.38208
830.0214, 69.83398
830.5035, 53.69751
830.9856, 48.70483
831.4677, 63.13721
831.9498, 68.13916
832.4319, 39.54590
832.9141, 14.86963
833.3962, 28.15112
833.8783, 55.94873
834.3604, 59.83423
834.8425, 35.91846
835.3246, 13.98999
835.8068, 15.32935
836.2889, 25.11035
836.7710, 26.43213
837.2531, 22.87671
837.7352, 21.17773
838.2173, 22.52246
838.6995, 28.62671
839.1816, 40.88086
839.6637, 51.60327
840.1458, 44.56299
840.6279, 21.89502
841.1100, 16.44019
841.5922, 30.80151
842.0743, 34.96558
842.5564, 15.56445
843.0385, 5.194092
843.5206, 2.127441
844.0027, 20.80981
844.4849, 28.27075
844.9670, 12.10352
845.4491, 2.778809
845.9312, 19.35010
846.4133, 28.33911
846.8954, 18.17773
847.3776, 0.2416990
847.8597, 4.514160
848.3418, 8.972900
848.8239, 12.96826
849.3060, 10.42725
849.7881, 29.45093
850.2703, 25.28296
850.7524, 12.56006
851.2345, 7.840820
851.7166, 11.16016
852.1987, 12.25488
852.6808, 5.158447
853.1630, 2.101074
853.6451, 2.533691
854.1272, 0.2065430
854.6093, 0.5600590
855.0914, 2.518311
855.5735, 5.175293
856.0557, 25.50269
856.5378, 42.10767
857.0199, 34.21777
857.5020, 12.36768
857.9841, 5.781250
858.4662, 12.03101
858.9484, 12.00220
859.4305, 1.711670
859.9126, 3.891602
860.3947, 7.526611
860.8768, 26.26465
861.3589, 26.67603
861.8411, 3.445557
862.3232, 8.748535
862.8053, 7.173828
863.2874, 0.4113770
863.7695, 13.39014
864.2516, 28.32837
864.7338, 43.47070
865.2159, 58.69556
865.6980, 61.69043
866.1801, 31.68774
866.6622, 19.78931
867.1443, 49.49609
867.6265, 77.80957
868.1086, 76.21826
868.5907, 57.79370
869.0728, 47.48853
869.5549, 50.00635
870.0370, 56.70166
870.5192, 69.72192
871.0013, 75.98486
871.4834, 61.92310
871.9655, 43.94409
872.4476, 42.32080
872.9297, 56.63892
873.4119, 74.06836
873.8940, 92.00439
874.3761, 101.3450
874.8582, 89.59912
875.3403, 67.31665
875.8224, 40.34473
876.3046, 16.87939
876.7867, 23.60767
877.2688, 66.08081
877.7509, 102.3240
878.2330, 85.36963
878.7151, 41.47388
879.1973, 30.17798
879.6794, 46.38159
880.1615, 65.06958
880.6436, 81.76855
881.1257, 90.07373
881.6078, 85.29932
882.0900, 74.76733
882.5721, 71.95435
883.0542, 76.90015
883.5363, 75.93115
884.0184, 67.59741
884.5005, 60.52075
884.9827, 57.36279
885.4648, 55.68555
885.9469, 53.03149
886.4290, 49.92480
886.9111, 49.46045
887.3932, 55.42773
887.8754, 55.21069
888.3575, 39.41016
888.8396, 29.45532
889.3217, 39.65698
889.8038, 57.84595
890.2859, 72.62500
890.7681, 83.84326
891.2502, 81.39917
891.7323, 44.91382
892.2144, 21.06494
892.6965, 30.71582
893.1786, 48.54541
893.6608, 55.46729
894.1429, 54.90576
894.6250, 55.47607
895.1071, 59.08398
895.5892, 65.05884
896.0714, 80.62549
896.5535, 89.91992
897.0356, 73.34155
897.5177, 48.78320
897.9998, 42.79443
898.4819, 54.47388
898.9641, 63.17310
899.4462, 58.45459
899.9283, 47.74243
900.4104, 32.84741
900.8925, 19.33398
901.3746, 16.74512
901.8568, 23.43774
902.3389, 36.19556
902.8210, 52.22534
903.3031, 60.49536
903.7852, 47.33862
904.2673, 25.88501
904.7495, 24.49438
905.2316, 38.22021
905.7137, 45.30908
906.1958, 43.20288
906.6779, 37.77759
907.1600, 32.53271
907.6422, 28.18579
908.1243, 26.29883
908.6064, 26.95435
909.0885, 31.38428
909.5706, 39.78979
910.0527, 50.01099
910.5349, 63.33936
911.0170, 67.63965
911.4991, 51.98242
911.9812, 26.44263
912.4633, 14.56421
912.9454, 18.00000
913.4276, 26.08496
913.9097, 43.25903
914.3918, 52.59204
914.8739, 45.36597
915.3560, 34.06470
915.8381, 30.61963
916.3203, 33.26294
916.8024, 32.09521
917.2845, 25.76050
917.7666, 17.73706
918.2487, 2.083008
918.7308, 7.251221
919.2130, 3.092285
919.6951, 8.718994
920.1772, 24.93945
920.6593, 45.24243
921.1414, 54.61230
921.6235, 44.24463
922.1057, 32.05859
922.5878, 17.25317
923.0699, 5.957031
923.5520, 3.967041
924.0341, 7.323486
924.5162, 9.519287
924.9984, 9.334961
925.4805, 9.193115
925.9626, 14.93945
926.4447, 15.16504
926.9268, 6.331055
927.4089, 27.81079
927.8911, 23.97412
928.3732, 1.741455
928.8553, 16.40332
929.3374, 23.15845
929.8195, 24.79272
930.3016, 23.82324
930.7838, 20.65918
931.2659, 11.85986
931.7480, 3.164307
932.2301, 5.000488
932.7122, 16.26904
933.1943, 26.51294
933.6765, 30.34595
934.1586, 31.11035
934.6407, 30.47388
935.1228, 30.03149
935.6049, 34.26245
936.0870, 40.24829
936.5692, 39.44580
937.0513, 30.69482
937.5334, 20.99731
938.0155, 15.23804
938.4976, 11.42407
938.9797, 5.331543
939.4619, 0.9375000
939.9440, 1.135010
940.4261, 4.213379
940.9082, 9.386719
941.3903, 12.72681
941.8724, 21.34814
942.3546, 45.82690
942.8367, 73.62671
943.3188, 67.33569
943.8009, 33.40454
944.2830, 12.64966
944.7651, 9.278320
945.2472, 22.25269
945.7293, 52.58740
946.2114, 79.22583
946.6935, 73.32373
947.1757, 42.51709
947.6578, 26.34888
948.1399, 25.18311
948.6220, 23.62744
949.1041, 19.63818
949.5862, 12.22900
950.0684, 1.450195
950.5505, 10.08374
951.0326, 9.091309
951.5147, 54.53491
951.9968, 62.95630
952.4789, 24.81665
952.9611, 1.718262
953.4432, 9.001709
953.9253, 19.88135
954.4074, 16.04761
954.8895, 6.162842
955.3716, 9.652588
955.8538, 29.87256
956.3359, 39.81836
956.8180, 31.26367
957.3001, 30.45508
957.7822, 52.67896
958.2643, 69.12012
958.7465, 52.37231
959.2286, 17.15552
959.7107, 4.545410
960.1928, 21.55103
960.6749, 35.27734
961.1570, 45.20728
961.6392, 52.51538
962.1213, 56.47192
962.6034, 59.28906
963.0855, 64.79370
963.5676, 70.57959
964.0497, 66.79077
964.5319, 46.19727
965.0140, 33.04639
965.4961, 31.87866
965.9782, 32.20898
966.4603, 30.99512
966.9424, 29.90942
967.4246, 30.72583
967.9067, 33.01587
968.3888, 34.84863
968.8709, 35.31641
969.3530, 37.17676
969.8351, 42.99487
970.3173, 47.12280
970.7994, 46.58618
971.2815, 44.08740
971.7636, 41.68652
972.2457, 39.78271
972.7278, 40.04346
973.2100, 46.12085
973.6921, 47.97192
974.1742, 39.24780
974.6563, 31.61011
975.1384, 29.58350
975.6205, 32.35596
976.1027, 41.76392
976.5848, 54.91675
977.0669, 61.48389
977.5490, 53.96875
978.0311, 48.96533
978.5132, 57.71387
978.9954, 61.81421
979.4775, 44.32397
979.9596, 20.41699
980.4417, 9.705078
980.9238, 12.51855
981.4059, 14.68970
981.8881, 5.434814
982.3702, 6.765137
982.8523, 36.38452
983.3344, 66.90479
983.8165, 83.27832
984.2986, 87.81860
984.7808, 81.30542
985.2629, 65.04639
985.7450, 52.92847
986.2271, 55.55713
986.7092, 55.68677
987.1913, 37.68408
987.6735, 22.28638
988.1556, 27.51855
988.6377, 42.90112
989.1198, 53.87817
989.6019, 57.71875
990.0840, 54.48315
990.5662, 33.83667
991.0483, 21.79126
991.5304, 34.54883
992.0125, 54.94849
992.4946, 77.08398
992.9767, 94.17920
993.4589, 95.39697
993.9410, 81.54834
994.4231, 66.53271
994.9052, 51.99829
995.3873, 40.91260
995.8694, 34.75830
996.3516, 32.03296
996.8337, 29.75854
997.3158, 30.68115
997.7979, 43.25879
998.2800, 67.08740
998.7621, 84.09009
999.2443, 84.11523
999.7264, 80.22827
1000.208, 76.96826
1000.691, 73.95532
1001.173, 73.30518
1001.655, 71.67896
1002.137, 62.08667
1002.619, 44.21069
1003.101, 29.28418
1003.583, 19.46240
1004.065, 17.63037
1004.548, 30.47729
1005.030, 46.86230
1005.512, 63.41284
1005.994, 74.55762
1006.476, 68.74341
1006.958, 47.40503
1007.440, 31.91528
1007.922, 32.03906
1008.404, 37.49341
1008.887, 52.86499
1009.369, 64.66748
1009.851, 61.50000
1010.333, 48.87207
1010.815, 32.92358
1011.297, 16.31836
1011.779, 5.859863
1012.261, 8.974121
1012.744, 9.272705
1013.226, 8.358887
1013.708, 22.77490
1014.190, 16.83154
1014.672, 0.4975590
1015.154, 18.81421
1015.636, 35.38477
1016.118, 46.53296
1016.600, 51.40698
1017.083, 49.63647
1017.565, 31.30151
1018.047, 17.26245
1018.529, 25.10767
1019.011, 42.06152
1019.493, 52.49609
1019.975, 55.12988
1020.457, 54.68311
1020.940, 49.67383
1021.422, 48.06689
1021.904, 59.85327
1022.386, 67.20435
1022.868, 54.04761
1023.350, 35.45972
1023.832, 28.09644
1024.314, 31.90137
1024.797, 39.77246
1025.279, 54.89453
1025.761, 61.52246
1026.243, 47.70874
1026.725, 34.16821
1027.207, 27.58960
1027.689, 28.12329
1028.171, 39.80664
1028.653, 58.38892
1029.135, 69.18164
1029.618, 67.08057
1030.100, 66.41089
1030.582, 73.54565
1031.064, 77.48340
1031.546, 76.92700
1032.028, 69.15918
1032.510, 44.20093
1032.992, 11.27539
1033.475, 3.625000
1033.957, 5.870117
1034.439, 17.20020
1034.921, 35.30518
1035.403, 45.71655
1035.885, 42.02563
1036.367, 32.18506
1036.849, 15.15356
1037.332, 2.230225
1037.814, 2.307617
1038.296, 20.83179
1038.778, 32.25317
1039.260, 23.07886
1039.742, 15.88965
1040.224, 12.69678
1040.706, 14.53442
1041.188, 26.75586
1041.671, 41.02808
1042.153, 42.80493
1042.635, 31.38550
1043.117, 17.64893
1043.599, 6.363281
1044.081, 14.41699
1044.563, 6.000732
1045.045, 25.36450
1045.527, 29.26904
1046.010, 24.17554
1046.492, 17.16138
1046.974, 8.736328
1047.456, 8.114258
1047.938, 19.89673
1048.420, 21.93994
1048.902, 7.447754
1049.384, 3.2226998E-02
1049.866, 13.63770
1050.349, 27.40625
1050.831, 15.53491
1051.313, 13.62354
1051.795, 18.86841
1052.277, 4.110840
1052.759, 14.94165
1053.241, 9.321045
1053.723, 9.743408
1054.206, 25.55054
1054.688, 37.59204
1055.170, 27.24707
1055.652, 5.837646
1056.134, 3.377441
1056.616, 19.08179
1057.098, 32.17798
1057.580, 42.23950
1058.063, 38.65649
1058.545, 18.66602
1059.027, 0.1301270
1059.509, 5.732422
1059.991, 3.208740
1060.473, 0.4042970
1060.955, 4.688721
1061.437, 7.441406
1061.919, 8.701660
1062.401, 9.991699
1062.884, 11.29639
1063.366, 8.693604
1063.848, 1.0498000E-02
1064.330, 6.835205
1064.812, 1.665283
1065.294, 10.91553
1065.776, 23.53662
1066.258, 35.64258
1066.741, 46.19287
1067.223, 54.97437
1067.705, 59.25024
1068.187, 58.40210
1068.669, 54.42969
1069.151, 48.48462
1069.633, 40.41772
1070.115, 24.56689
1070.598, 10.34595
1071.080, 13.82080
1071.562, 28.99585
1072.044, 43.35107
1072.526, 53.87817
1073.008, 61.79419
1073.490, 68.32202
1073.972, 71.97388
1074.454, 69.14917
1074.937, 66.43091
1075.419, 65.71973
1075.901, 68.03052
1076.383, 76.67065
1076.865, 88.48657
1077.347, 91.26221
1077.829, 79.02148
1078.311, 67.18140
1078.793, 56.84668
1079.276, 54.94507
1079.758, 68.99805
1080.240, 89.64575
1080.722, 115.4473
1081.204, 138.8123
1081.686, 142.0789
1082.168, 120.3311
1082.650, 105.0010
1083.133, 107.6116
1083.615, 107.4631
1084.097, 90.35059
1084.579, 80.22217
1085.061, 98.03369
1085.543, 126.6855
1086.025, 143.7104
1086.507, 149.3430
1086.990, 147.8772
1087.472, 133.5696
1087.954, 124.6409
1088.436, 121.0298
1088.918, 125.2913
1089.400, 142.5710
1089.882, 160.4258
1090.364, 166.7600
1090.846, 164.3103
1091.328, 162.5288
1091.811, 162.9419
1092.293, 156.7029
1092.775, 141.6333
1093.257, 136.3474
1093.739, 146.0125
1094.221, 159.8960
1094.703, 171.5071
1095.185, 180.5940
1095.668, 187.6274
1096.150, 192.7834
1096.632, 195.6787
1097.114, 195.6760
1097.596, 186.0005
1098.078, 167.5955
1098.560, 156.4829
1099.042, 159.2278
1099.525, 163.1086
1100.007, 154.3110
1100.489, 141.8672
1100.971, 143.3159
1101.453, 150.5745
1101.935, 146.3508
1102.417, 135.9548
1102.899, 133.9375
1103.381, 141.6858
1103.864, 144.7756
1104.346, 133.9670
1104.828, 121.0344
1105.310, 112.5630
1105.792, 109.9202
1106.274, 123.5356
1106.756, 137.3044
1107.238, 124.2090
1107.720, 92.59497
1108.203, 72.84473
1108.685, 73.60620
1109.167, 78.41846
1109.649, 91.14209
1110.131, 96.48511
1110.613, 75.66138
1111.095, 55.09033
1111.577, 55.47827
1112.060, 67.82007
1112.542, 80.43994
1113.024, 91.81323
1113.506, 91.75977
1113.988, 69.45264
1114.470, 52.99438
1114.952, 41.09790
1115.434, 38.30151
1115.917, 52.97778
1116.399, 67.18799
1116.881, 65.29224
1117.363, 50.63965
1117.845, 30.89893
1118.327, 3.430664
1118.809, 2.354736
1119.291, 33.84009
1119.773, 47.90503
1120.255, 33.12524
1120.738, 15.31909
1121.220, 7.924316
1121.702, 8.733643
1122.184, 16.84619
1122.666, 29.09717
1123.148, 34.19116
1123.630, 32.03467
1124.112, 14.64746
1124.595, 11.68311
1125.077, 5.948730
1125.559, 39.26904
1126.041, 75.50903
1126.523, 67.25757
1127.005, 44.50171
1127.487, 43.31738
1127.969, 47.19263
1128.452, 28.73462
1128.934, 2.917725
1129.416, 2.933594
1129.898, 9.935303
1130.380, 28.04907
1130.862, 47.47998
1131.344, 52.03882
1131.826, 10.61572
1132.308, 17.79028
1132.791, 14.88965
1133.273, 53.19897
1133.755, 46.77344
1134.237, 20.83496
1134.719, 21.71143
1135.201, 49.51318
1135.683, 66.32397
1136.165, 64.24805
1136.647, 58.81641
1137.130, 41.39185
1137.612, 35.82178
1138.094, 54.86938
1138.576, 78.10474
1139.058, 91.81128
1139.540, 98.18018
1140.022, 101.8176
1140.504, 102.7039
1140.987, 94.63745
1141.469, 75.57886
1141.951, 70.54712
1142.433, 83.34888
1142.915, 102.4802
1143.397, 123.2827
1143.879, 135.9529
1144.361, 129.2034
1144.844, 114.3491
1145.326, 118.6069
1145.808, 132.7334
1146.290, 126.6843
1146.772, 107.9126
1147.254, 105.9578
1147.736, 121.7124
1148.218, 128.3816
1148.700, 112.9524
1149.182, 99.74902
1149.665, 113.4324
1150.147, 131.0930
1150.629, 134.9163
1151.111, 131.6694
1151.593, 122.2827
1152.075, 114.4031
1152.557, 125.8984
1153.039, 155.0032
1153.522, 165.9458
1154.004, 137.4697
1154.486, 115.8992
1154.968, 114.4910
1155.450, 114.8037
1155.932, 111.1313
1156.414, 105.9307
1156.896, 100.1196
1157.379, 94.65771
1157.861, 91.94312
1158.343, 92.13403
1158.825, 89.67065
1159.307, 84.77490
1159.789, 75.07275
1160.271, 59.38916
1160.753, 45.39844
1161.235, 35.86890
1161.718, 31.98486
1162.200, 35.98462
1162.682, 42.96924
1163.164, 40.43555
1163.646, 31.51929
1164.128, 22.36768
1164.610, 15.07544
1165.092, 17.30859
1165.574, 27.60620
1166.057, 33.91479
1166.539, 31.55469
1167.021, 33.20850
1167.503, 54.55884
1167.985, 74.98682
1168.467, 76.43530
1168.949, 72.15601
1169.431, 75.50488
1169.914, 80.62061
1170.396, 76.16235
1170.878, 63.48096
1171.360, 54.54834
1171.842, 51.59131
1172.324, 52.36377
1172.806, 58.25146
1173.288, 64.16528
1173.771, 69.83472
1174.253, 73.90088
1174.735, 76.69189
1175.217, 77.24634
1175.699, 74.82837
1176.181, 69.75122
1176.663, 59.20288
1177.145, 41.56494
1177.627, 48.82446
1178.109, 81.47192
1178.592, 85.55444
1179.074, 48.78638
1179.556, 13.72729
1180.038, 7.542969
1180.520, 16.88745
1181.002, 31.41870
1181.484, 45.20166
1181.966, 39.26953
1182.449, 23.67065
1182.931, 13.72363
1183.413, 9.054932
1183.895, 4.200684
1184.377, 1.339355
1184.859, 3.011719
1185.341, 1.071045
1185.823, 9.133057
1186.306, 22.65698
1186.788, 37.14697
1187.270, 58.67261
1187.752, 72.56470
1188.234, 59.39746
1188.716, 34.07031
1189.198, 25.02881
1189.680, 31.61279
1190.162, 24.49316
1190.645, 4.385254
1191.127, 11.96729
1191.609, 8.236084
1192.091, 26.42896
1192.573, 33.07983
1193.055, 41.73071
1193.537, 63.57690
1194.019, 83.49927
1194.501, 71.14185
1194.984, 41.81860
1195.466, 34.44531
1195.948, 42.66016
1196.430, 55.26270
1196.912, 68.12939
1197.394, 76.36426
1197.876, 79.10938
1198.358, 79.08936
1198.841, 80.40283
1199.323, 71.13525
1199.805, 31.10278
1200.287, 4.642334
1200.769, 16.61353
1201.251, 14.63794
1201.733, 5.278564
1202.215, 9.671631
1202.698, 31.55273
1203.180, 59.84912
1203.662, 71.91309
1204.144, 61.57788
1204.626, 53.46851
1205.108, 49.48218
1205.590, 43.80957
1206.072, 32.75366
1206.554, 24.97681
1207.036, 26.42065
1207.519, 33.75513
1208.001, 43.04639
1208.483, 55.31860
1208.965, 82.72827
1209.447, 113.6946
1209.929, 115.6147
1210.411, 89.93579
1210.893, 71.31982
1211.376, 62.95142
1211.858, 65.67480
1212.340, 83.29517
1212.822, 95.74658
1213.304, 88.01562
1213.786, 77.64209
1214.268, 72.05737
1214.750, 69.19214
1215.233, 59.27637
1215.715, 49.99292
1216.197, 48.22656
1216.679, 46.76855
1217.161, 42.40869
1217.643, 30.62817
1218.125, 36.33789
1218.607, 68.11206
1219.089, 70.67969
1219.572, 27.65015
1220.054, 5.613037
1220.536, 1.372070
1221.018, 23.24658
1221.500, 32.77856
1221.982, 35.03198
1222.464, 39.91748
1222.946, 45.60474
1223.428, 45.56958
1223.911, 41.64160
1224.393, 37.69336
1224.875, 27.98560
1225.357, 22.66162
1225.839, 18.56079
1226.321, 16.82446
1226.803, 21.85864
1227.285, 24.16162
1227.768, 21.45190
1228.250, 15.73926
1228.732, 6.334717
1229.214, 0.0000000E+00
##END=



