##NAMES=Melanotekite
##RRUFFID=R090032
##IDEAL CHEMISTRY=Pb_2_Fe^3+^_2_O_2_Si_2_O_7_
##LOCALITY=Kombat, Namibia
##OWNER=RRUFF
##SOURCE=William W. Pinch
##DESCRIPTION=Black, massive exhibiting greasy luster, associated with colorless to pale brown bladed yangite (R090031). Sample is from the John Innes collection.
##STATUS=The identification of this mineral has been confirmed only by single crystal X-ray diffraction.
##URL=rruff.info/R090032
136.2450, 0.0000000E+00
136.7272, 1.4046000E-02
137.2093, 0.5886080
137.6914, 1.737900
138.1735, 2.873829
138.6556, 4.055477
139.1377, 4.895290
139.6199, 5.259247
140.1020, 5.149536
140.5841, 4.784382
141.0662, 4.268650
141.5483, 3.413879
142.0304, 2.826717
142.5126, 2.599392
142.9947, 2.410648
143.4768, 2.031467
143.9589, 1.328274
144.4410, 0.7347870
144.9231, 0.1409260
145.4053, 0.2854350
145.8874, 0.2427750
146.3695, 0.7032550
146.8516, 1.490639
147.3337, 1.729740
147.8158, 1.079006
148.2980, 0.7860640
148.7801, 1.008175
149.2622, 1.547943
149.7443, 2.006218
150.2264, 2.316734
150.7085, 2.614346
151.1907, 2.932030
151.6728, 3.207817
152.1549, 3.646324
152.6370, 4.331879
153.1191, 5.179874
153.6012, 5.977676
154.0834, 6.665070
154.5655, 7.310089
155.0476, 7.956833
155.5297, 8.718040
156.0118, 9.315033
156.4939, 9.659019
156.9761, 9.802742
157.4582, 9.907562
157.9403, 9.932114
158.4224, 9.979134
158.9045, 10.11123
159.3866, 10.43116
159.8688, 10.73160
160.3509, 10.89338
160.8330, 10.96264
161.3151, 11.15432
161.7972, 11.78431
162.2793, 12.44357
162.7615, 12.81760
163.2436, 12.49260
163.7257, 12.17918
164.2078, 12.24983
164.6899, 12.64568
165.1720, 12.95309
165.6541, 12.77338
166.1363, 12.55711
166.6184, 12.73957
167.1005, 13.82341
167.5826, 14.99330
168.0647, 15.77173
168.5468, 16.17426
169.0290, 16.65341
169.5111, 17.68019
169.9932, 18.97361
170.4753, 20.08447
170.9574, 20.62369
171.4395, 20.94226
171.9217, 21.35090
172.4038, 21.87684
172.8859, 22.48191
173.3680, 23.14234
173.8501, 23.85164
174.3322, 24.61367
174.8144, 25.42087
175.2965, 26.32323
175.7786, 27.38519
176.2607, 28.62273
176.7428, 29.85970
177.2249, 30.79103
177.7071, 31.57591
178.1892, 32.63340
178.6713, 34.49835
179.1534, 36.66002
179.6355, 38.25577
180.1176, 39.24099
180.5998, 39.90884
181.0819, 40.51763
181.5640, 41.05901
182.0461, 41.53001
182.5282, 42.14193
183.0103, 42.66180
183.4925, 42.45605
183.9746, 41.43085
184.4567, 40.04440
184.9388, 38.98403
185.4209, 38.13544
185.9030, 36.86081
186.3852, 34.61701
186.8673, 31.67258
187.3494, 28.86062
187.8315, 26.22548
188.3136, 23.72731
188.7957, 21.20126
189.2779, 18.67956
189.7600, 16.30311
190.2421, 14.12365
190.7242, 12.16069
191.2063, 10.49849
191.6884, 9.173149
192.1706, 8.089809
192.6527, 7.127018
193.1348, 6.290527
193.6169, 5.426903
194.0990, 4.425049
194.5811, 3.258751
195.0633, 2.326126
195.5454, 1.672821
196.0275, 1.189899
196.5096, 0.6857150
196.9917, 0.1455610
197.4738, 0.2852100
197.9560, 0.4907420
198.4381, 0.4701270
198.9202, 0.4924320
199.4023, 0.5838780
199.8844, 0.6968960
200.3665, 0.7336850
200.8487, 0.6855130
201.3308, 0.6115990
201.8129, 0.5268520
202.2950, 0.4265560
202.7771, 0.3822820
203.2592, 0.4301490
203.7414, 0.5065350
204.2235, 0.4945530
204.7056, 0.3960650
205.1877, 0.2509800
205.6698, 7.1475998E-02
206.1519, 0.1471290
206.6341, 0.3706250
207.1162, 0.6040650
207.5983, 0.8320810
208.0804, 1.016193
208.5625, 1.147213
209.0446, 1.255028
209.5268, 1.342659
210.0089, 1.397312
210.4910, 1.490299
210.9731, 1.618271
211.4552, 1.790581
211.9373, 2.032810
212.4195, 2.360435
212.9016, 2.739544
213.3837, 3.161568
213.8658, 3.657814
214.3479, 4.014145
214.8300, 4.218422
215.3121, 4.292149
215.7943, 4.270031
216.2764, 4.115368
216.7585, 3.968651
217.2406, 3.862747
217.7227, 3.766552
218.2048, 3.734844
218.6870, 3.870384
219.1691, 4.075603
219.6512, 4.045387
220.1333, 3.635193
220.6154, 3.175838
221.0975, 2.808044
221.5797, 2.545406
222.0618, 2.387497
222.5439, 2.340332
223.0260, 2.378666
223.5081, 2.476299
223.9902, 2.690254
224.4724, 2.863613
224.9545, 2.917328
225.4366, 2.804855
225.9187, 2.713749
226.4008, 2.636745
226.8829, 2.585556
227.3651, 2.594555
227.8472, 2.718361
228.3293, 2.812664
228.8114, 2.805569
229.2935, 2.636009
229.7757, 2.553753
230.2578, 2.581039
230.7399, 2.683357
231.2220, 2.788544
231.7041, 2.845100
232.1862, 2.984112
232.6684, 3.260124
233.1505, 3.706295
233.6326, 4.199661
234.1147, 4.844067
234.5968, 5.480686
235.0789, 5.751709
235.5611, 5.304302
236.0432, 5.066936
236.5253, 5.429306
237.0074, 6.637146
237.4895, 7.510307
237.9716, 7.898670
238.4538, 8.045017
238.9359, 8.330978
239.4180, 8.797184
239.9001, 9.348061
240.3822, 9.991631
240.8643, 10.76999
241.3465, 11.41410
241.8286, 11.90522
242.3107, 12.27538
242.7928, 12.56185
243.2749, 12.73128
243.7570, 12.87164
244.2392, 12.98877
244.7213, 13.06667
245.2034, 13.23463
245.6855, 13.56126
246.1676, 13.92340
246.6497, 14.14071
247.1319, 14.05227
247.6140, 14.12012
248.0961, 14.52203
248.5782, 15.31933
249.0603, 15.89951
249.5424, 16.22121
250.0246, 16.37363
250.5067, 16.42186
250.9888, 16.22004
251.4709, 16.20722
251.9530, 16.53043
252.4351, 17.21394
252.9173, 17.78742
253.3994, 18.24619
253.8815, 18.60658
254.3636, 18.87485
254.8457, 19.01648
255.3278, 19.09566
255.8100, 19.12428
256.2921, 19.11836
256.7742, 19.15857
257.2563, 19.32971
257.7384, 19.42120
258.2205, 19.23376
258.7026, 18.66092
259.1848, 18.09760
259.6669, 17.59801
260.1490, 17.15947
260.6311, 16.78964
261.1132, 16.56828
261.5953, 16.27370
262.0775, 15.74321
262.5596, 14.92766
263.0417, 14.03927
263.5238, 13.10090
264.0059, 12.11210
264.4880, 10.99774
264.9702, 9.697819
265.4523, 8.392109
265.9344, 7.180473
266.4165, 6.038612
266.8986, 5.048866
267.3807, 4.263275
267.8629, 3.609440
268.3450, 2.822247
268.8271, 1.819580
269.3092, 0.8711400
269.7913, 8.4049001E-02
270.2734, 0.5479850
270.7556, 0.9420930
271.2377, 1.041412
271.7198, 0.9484410
272.2019, 0.8839110
272.6840, 0.8392370
273.1661, 0.8473630
273.6483, 0.9900170
274.1304, 1.316303
274.6125, 1.321606
275.0946, 0.8626860
275.5767, 0.2654460
276.0588, 0.1877820
276.5410, 0.7472110
277.0231, 1.223816
277.5052, 1.256107
277.9873, 0.8363300
278.4694, 0.5924220
278.9515, 0.5894010
279.4337, 0.6286930
279.9158, 0.3672710
280.3979, 0.2340770
280.8800, 0.7192730
281.3621, 0.8221970
281.8442, 0.6091770
282.3264, 0.7382930
282.8085, 1.269779
283.2906, 1.939354
283.7727, 2.420658
284.2548, 2.711830
284.7369, 3.092342
285.2191, 3.677418
285.7012, 4.409142
286.1833, 5.031548
286.6654, 5.515781
287.1475, 6.087940
287.6296, 7.023926
288.1118, 8.289608
288.5939, 9.487282
289.0760, 10.48902
289.5581, 11.39015
290.0402, 12.46643
290.5223, 13.72642
291.0045, 15.03965
291.4866, 16.36980
291.9687, 17.69540
292.4508, 18.88685
292.9329, 19.86961
293.4150, 20.79608
293.8972, 22.02571
294.3793, 23.53382
294.8614, 25.03196
295.3435, 26.09909
295.8256, 26.98836
296.3077, 28.51128
296.7899, 30.90299
297.2720, 33.50274
297.7541, 35.36663
298.2362, 36.60352
298.7183, 37.73846
299.2004, 38.98208
299.6826, 40.32763
300.1647, 41.84296
300.6468, 43.55169
301.1289, 45.24483
301.6110, 46.71138
302.0931, 47.99385
302.5753, 49.25304
303.0574, 50.68365
303.5395, 52.06839
304.0216, 53.05755
304.5037, 53.64847
304.9858, 54.08812
305.4680, 54.55653
305.9501, 55.02300
306.4322, 55.43304
306.9143, 55.76873
307.3964, 56.04471
307.8785, 56.34427
308.3607, 56.64483
308.8428, 56.74548
309.3249, 56.37143
309.8070, 55.77318
310.2891, 55.23136
310.7712, 54.74069
311.2534, 54.42604
311.7355, 54.52692
312.2176, 54.92284
312.6997, 55.16286
313.1818, 54.75225
313.6639, 54.22412
314.1461, 54.02759
314.6282, 54.37568
315.1103, 54.80112
315.5924, 54.94382
316.0745, 54.99352
316.5566, 55.35257
317.0388, 56.41371
317.5209, 57.66017
318.0030, 58.77305
318.4851, 59.63856
318.9672, 60.68809
319.4493, 62.01344
319.9315, 63.61646
320.4136, 65.52208
320.8957, 68.08916
321.3778, 70.62553
321.8599, 72.86844
322.3420, 74.77730
322.8242, 76.70625
323.3063, 78.53458
323.7884, 80.50704
324.2705, 82.83744
324.7526, 85.87724
325.2347, 88.96461
325.7169, 91.86117
326.1990, 94.61504
326.6811, 97.55051
327.1632, 100.7690
327.6453, 104.1206
328.1274, 107.4977
328.6096, 110.7566
329.0917, 114.2722
329.5738, 118.3693
330.0559, 122.7404
330.5380, 126.4348
331.0201, 128.8081
331.5023, 131.1953
331.9844, 134.1696
332.4665, 138.0448
332.9486, 141.7642
333.4307, 145.3667
333.9128, 148.7568
334.3950, 151.6915
334.8771, 154.0773
335.3592, 156.2519
335.8413, 158.3286
336.3234, 160.3334
336.8055, 162.1144
337.2877, 163.6969
337.7698, 164.9880
338.2519, 165.9216
338.7340, 166.5143
339.2161, 166.5762
339.6982, 166.0692
340.1803, 164.9786
340.6624, 163.2801
341.1446, 160.8928
341.6267, 158.1296
342.1088, 155.2025
342.5909, 152.1484
343.0730, 148.5904
343.5551, 144.5072
344.0373, 139.9027
344.5194, 134.7740
345.0015, 129.0598
345.4836, 123.2371
345.9657, 117.6853
346.4478, 112.2992
346.9300, 106.4177
347.4121, 99.83316
347.8942, 93.18390
348.3763, 87.21185
348.8584, 81.87112
349.3405, 76.72936
349.8227, 71.61464
350.3048, 66.56277
350.7869, 61.60202
351.2690, 56.74905
351.7511, 52.10388
352.2332, 47.74227
352.7154, 43.70679
353.1975, 40.11435
353.6796, 37.19044
354.1617, 34.52717
354.6438, 31.60155
355.1259, 28.48599
355.6081, 25.58736
356.0902, 23.17886
356.5723, 21.09476
357.0544, 19.12421
357.5365, 17.23100
358.0186, 15.47987
358.5008, 13.97301
358.9829, 12.64610
359.4650, 11.36122
359.9471, 10.01618
360.4292, 8.722443
360.9113, 7.568512
361.3935, 6.592384
361.8756, 5.627090
362.3577, 4.441948
362.8398, 3.291725
363.3219, 2.465942
363.8040, 2.381203
364.2862, 2.306160
364.7683, 1.921677
365.2504, 1.247643
365.7325, 0.7986530
366.2146, 0.7595980
366.6967, 0.9190900
367.1789, 1.145927
367.6610, 1.738541
368.1431, 2.026169
368.6252, 1.663666
369.1073, 0.9221880
369.5894, 0.6649700
370.0716, 1.194000
370.5537, 1.894104
371.0358, 2.572723
371.5179, 3.231026
372.0000, 3.869690
372.4821, 4.517715
372.9643, 5.119629
373.4464, 5.562302
373.9285, 5.683678
374.4106, 5.980293
374.8927, 6.577942
375.3748, 7.473297
375.8570, 8.525139
376.3391, 9.832481
376.8212, 11.10391
377.3033, 12.07861
377.7854, 12.70781
378.2675, 13.35004
378.7497, 14.03629
379.2318, 14.78480
379.7139, 15.75512
380.1960, 16.97346
380.6781, 18.02331
381.1602, 18.62924
381.6424, 18.83566
382.1245, 18.89948
382.6066, 18.82196
383.0887, 18.65337
383.5708, 18.52135
384.0529, 18.38080
384.5351, 17.99664
385.0172, 17.20608
385.4993, 16.15363
385.9814, 15.04336
386.4635, 13.88367
386.9456, 12.63662
387.4278, 11.19407
387.9099, 9.679482
388.3920, 8.261372
388.8741, 6.968330
389.3562, 5.828163
389.8383, 4.928474
390.3205, 4.194714
390.8026, 3.445343
391.2847, 2.492039
391.7668, 1.546276
392.2489, 0.7703590
392.7310, 0.2099300
393.2132, 0.2922060
393.6953, 0.8321880
394.1774, 1.343918
394.6595, 1.751015
395.1416, 2.026447
395.6237, 2.190193
396.1059, 2.249336
396.5880, 2.203594
397.0701, 2.046307
397.5522, 1.648647
398.0343, 1.224400
398.5164, 0.9004330
398.9986, 0.7769660
399.4807, 0.6369130
399.9628, 0.4726180
400.4449, 0.2869610
400.9270, 9.5977999E-02
401.4091, 1.9482000E-02
401.8913, 0.2168050
402.3734, 0.7245980
402.8555, 1.549717
403.3376, 2.386768
403.8197, 3.218319
404.3018, 4.081635
404.7840, 5.005867
405.2661, 5.979374
405.7482, 7.068802
406.2303, 8.321644
406.7124, 9.694168
407.1945, 11.07481
407.6767, 12.47820
408.1588, 13.81203
408.6409, 14.96752
409.1230, 15.95672
409.6051, 17.04217
410.0872, 18.25899
410.5694, 19.55356
411.0515, 20.91489
411.5336, 22.31347
412.0157, 23.52579
412.4978, 24.42767
412.9799, 25.08835
413.4621, 25.69720
413.9442, 26.25336
414.4263, 26.53604
414.9084, 26.29347
415.3905, 25.68456
415.8727, 24.93361
416.3548, 24.00989
416.8369, 23.10467
417.3190, 22.27933
417.8011, 21.58736
418.2832, 21.16998
418.7654, 21.13350
419.2475, 21.40003
419.7296, 21.97947
420.2117, 22.91789
420.6938, 23.82778
421.1759, 24.25774
421.6581, 24.69090
422.1402, 25.63525
422.6223, 27.63969
423.1044, 29.70774
423.5865, 31.60170
424.0686, 33.34138
424.5508, 35.14585
425.0329, 37.10321
425.5150, 39.04514
425.9971, 40.87140
426.4792, 42.54342
426.9613, 44.20655
427.4435, 45.93519
427.9256, 47.60930
428.4077, 49.02081
428.8898, 50.11578
429.3719, 51.09488
429.8540, 52.04977
430.3362, 52.96622
430.8183, 53.55970
431.3004, 53.73900
431.7825, 53.85218
432.2646, 54.25392
432.7467, 54.94654
433.2289, 55.39404
433.7110, 55.46107
434.1931, 55.35723
434.6752, 55.45223
435.1573, 55.73274
435.6394, 56.05970
436.1216, 56.44735
436.6036, 56.81551
437.0858, 56.91940
437.5679, 56.74787
438.0500, 56.58767
438.5321, 56.78045
439.0142, 57.13963
439.4963, 57.35110
439.9785, 57.30847
440.4606, 57.10772
440.9427, 56.86414
441.4248, 56.53574
441.9069, 55.99703
442.3890, 55.17878
442.8712, 54.13900
443.3533, 52.87009
443.8354, 51.32915
444.3175, 49.77645
444.7996, 48.22408
445.2817, 46.75088
445.7639, 45.42549
446.2460, 44.34613
446.7281, 43.31484
447.2102, 42.40428
447.6923, 41.56143
448.1744, 40.45472
448.6566, 38.79408
449.1387, 37.16426
449.6208, 35.83698
450.1029, 34.90734
450.5850, 33.95453
451.0671, 32.92843
451.5493, 31.91496
452.0314, 31.11553
452.5135, 30.63978
452.9956, 29.94545
453.4777, 28.84092
453.9598, 27.43591
454.4420, 26.16663
454.9241, 25.06395
455.4062, 23.98132
455.8883, 22.71014
456.3704, 21.33504
456.8525, 20.36229
457.3347, 19.95686
457.8168, 19.61090
458.2989, 18.61964
458.7810, 17.16176
459.2631, 15.79630
459.7452, 14.76840
460.2274, 13.93600
460.7095, 13.21725
461.1916, 12.58552
461.6737, 11.91944
462.1558, 11.04158
462.6379, 10.14037
463.1201, 9.407467
463.6022, 8.952251
464.0843, 8.473640
464.5664, 7.754494
465.0485, 6.950481
465.5306, 6.310234
466.0128, 6.048412
466.4949, 5.801792
466.9770, 5.466457
467.4591, 5.036400
467.9412, 4.613445
468.4233, 4.221684
468.9055, 3.814930
469.3876, 3.337963
469.8697, 2.643776
470.3518, 2.227066
470.8339, 2.224842
471.3160, 2.409981
471.7982, 2.344810
472.2803, 1.974972
472.7624, 1.567005
473.2445, 1.182049
473.7266, 0.8309940
474.2087, 0.6532860
474.6909, 0.6780320
475.1730, 0.6316640
475.6551, 0.1733280
476.1372, 0.5797730
476.6193, 1.125290
477.1014, 1.358437
477.5836, 1.447670
478.0657, 1.607422
478.5478, 1.793137
479.0299, 1.874031
479.5120, 1.700817
479.9941, 1.455036
480.4763, 1.260918
480.9584, 1.127747
481.4405, 1.128960
481.9226, 1.505840
482.4047, 1.916470
482.8868, 2.060745
483.3690, 1.730579
483.8511, 1.438877
484.3332, 1.404861
484.8153, 1.484905
485.2974, 1.444431
485.7795, 1.172520
486.2617, 0.8580440
486.7438, 0.5160640
487.2259, 0.1469080
487.7080, 0.1480980
488.1901, 0.3040770
488.6722, 0.4739910
489.1544, 0.7552450
489.6365, 1.166531
490.1186, 1.615452
490.6007, 2.120510
491.0828, 2.632526
491.5649, 3.083153
492.0471, 3.466980
492.5292, 3.821270
493.0113, 4.119934
493.4934, 4.411236
493.9755, 4.818489
494.4576, 5.337997
494.9398, 5.979301
495.4219, 6.751495
495.9040, 7.649551
496.3861, 8.666599
496.8682, 9.840412
497.3503, 10.99133
497.8325, 11.98316
498.3146, 12.86018
498.7967, 13.71189
499.2788, 14.35515
499.7609, 15.17611
500.2430, 16.50508
500.7252, 18.21696
501.2073, 19.78900
501.6894, 20.47576
502.1715, 21.44638
502.6536, 23.40134
503.1357, 26.91013
503.6179, 29.90395
504.1000, 31.98120
504.5821, 33.75192
505.0642, 35.77451
505.5463, 37.95372
506.0284, 40.60358
506.5106, 43.87397
506.9927, 47.59253
507.4748, 51.12346
507.9569, 54.36461
508.4390, 57.90512
508.9211, 62.10676
509.4033, 66.90485
509.8854, 71.67917
510.3675, 76.38187
510.8496, 81.45731
511.3317, 87.65781
511.8138, 94.61504
512.2960, 101.1116
512.7781, 106.7436
513.2602, 112.3702
513.7423, 118.9539
514.2244, 126.2616
514.7065, 133.7237
515.1887, 140.8694
515.6708, 148.2669
516.1529, 156.2254
516.6350, 164.7815
517.1171, 173.6710
517.5992, 182.9868
518.0814, 192.3858
518.5635, 201.6200
519.0456, 210.5822
519.5277, 219.5328
520.0098, 228.1564
520.4919, 236.8493
520.9741, 246.2635
521.4562, 256.7922
521.9383, 267.0922
522.4204, 277.0290
522.9025, 286.5081
523.3846, 294.8933
523.8668, 302.0341
524.3489, 308.4729
524.8310, 314.8023
525.3131, 320.9109
525.7952, 325.7218
526.2773, 329.2601
526.7595, 331.2792
527.2416, 331.3943
527.7237, 329.7569
528.2058, 326.7139
528.6879, 322.4092
529.1700, 316.7604
529.6522, 309.4408
530.1343, 300.7116
530.6164, 291.0905
531.0985, 280.4601
531.5806, 269.4020
532.0627, 258.2723
532.5449, 247.1383
533.0270, 236.1135
533.5091, 225.2680
533.9912, 214.5384
534.4733, 204.0656
534.9554, 193.5787
535.4376, 183.5546
535.9197, 174.0333
536.4018, 164.9974
536.8839, 156.6792
537.3660, 148.9919
537.8481, 142.1622
538.3303, 136.3276
538.8124, 131.3517
539.2945, 126.2980
539.7766, 121.0820
540.2587, 116.2848
540.7408, 112.3885
541.2230, 109.2775
541.7051, 106.5842
542.1872, 104.2816
542.6693, 102.2626
543.1514, 100.4487
543.6335, 98.85873
544.1157, 97.45734
544.5978, 96.25115
545.0799, 95.21571
545.5620, 94.52422
546.0441, 93.99303
546.5262, 93.19355
547.0084, 91.80757
547.4905, 90.27165
547.9726, 88.75809
548.4547, 87.29230
548.9368, 85.65446
549.4189, 83.97471
549.9011, 81.98744
550.3832, 79.46955
550.8653, 76.00730
551.3474, 72.99780
551.8295, 70.64630
552.3116, 68.56709
552.7938, 66.17312
553.2759, 63.41868
553.7580, 60.78422
554.2401, 58.37640
554.7222, 56.19437
555.2043, 54.23615
555.6865, 52.51512
556.1686, 50.95116
556.6507, 49.51937
557.1328, 48.21676
557.6149, 47.04744
558.0970, 46.01580
558.5792, 44.98061
559.0613, 43.74935
559.5434, 42.52311
560.0255, 41.52725
560.5076, 40.94026
560.9897, 40.36671
561.4719, 39.46851
561.9540, 38.54754
562.4361, 38.10947
562.9182, 38.74702
563.4003, 39.26409
563.8824, 39.36134
564.3646, 39.11798
564.8467, 39.11821
565.3288, 39.43632
565.8109, 39.84134
566.2930, 40.25095
566.7751, 40.66622
567.2573, 40.95039
567.7394, 41.06386
568.2215, 41.23706
568.7036, 41.79431
569.1857, 42.62770
569.6678, 43.36245
570.1500, 43.90177
570.6321, 44.34265
571.1142, 44.81774
571.5963, 45.28249
572.0784, 45.62949
572.5605, 45.70609
573.0427, 45.74851
573.5248, 45.98677
574.0069, 46.36945
574.4890, 46.53955
574.9711, 46.23270
575.4532, 45.80992
575.9354, 45.44069
576.4175, 45.14488
576.8996, 44.88759
577.3817, 44.84152
577.8638, 44.66893
578.3459, 43.99476
578.8281, 42.66850
579.3102, 41.49197
579.7923, 40.57035
580.2744, 39.80941
580.7565, 39.10601
581.2386, 38.45148
581.7208, 37.70817
582.2029, 36.82994
582.6850, 35.81570
583.1671, 34.59766
583.6492, 33.20176
584.1313, 31.78728
584.6134, 30.35865
585.0955, 29.00136
585.5776, 27.83789
586.0598, 26.89846
586.5419, 25.90364
587.0240, 24.64796
587.5061, 23.32626
587.9882, 22.09969
588.4703, 21.04599
588.9525, 20.02591
589.4346, 19.05155
589.9167, 18.08731
590.3988, 17.06162
590.8809, 15.92329
591.3630, 14.89599
591.8452, 14.03732
592.3273, 13.33289
592.8094, 12.74532
593.2915, 12.26675
593.7736, 11.74871
594.2557, 11.07017
594.7379, 10.31804
595.2200, 9.713482
595.7021, 9.264530
596.1842, 8.772747
596.6663, 7.944599
597.1484, 7.047737
597.6306, 6.438911
598.1127, 6.307987
598.5948, 6.139111
599.0769, 5.598953
599.5590, 4.903618
600.0411, 4.343994
600.5233, 4.124203
601.0054, 3.908470
601.4875, 3.603134
601.9696, 3.257324
602.4517, 3.059483
602.9338, 3.123028
603.4160, 3.080109
603.8981, 2.733501
604.3802, 2.128078
604.8623, 1.834743
605.3444, 1.893570
605.8265, 1.919197
606.3087, 1.490879
606.7908, 0.8153080
607.2729, 0.4894790
607.7550, 0.5819590
608.2371, 0.7264250
608.7192, 0.5609360
609.2014, 0.2776450
609.6835, 0.1383400
610.1656, 0.3458520
610.6477, 0.4695210
611.1298, 0.2000160
611.6119, 0.2477570
612.0941, 0.4962080
612.5762, 0.1916200
613.0583, 3.8680001E-03
613.5404, 0.1349980
614.0225, 0.5159420
614.5046, 0.6356620
614.9868, 0.3826900
615.4689, 0.1162300
615.9510, 2.8125999E-02
616.4331, 4.8794001E-02
616.9152, 0.1440540
617.3973, 0.5831410
617.8795, 0.9418950
618.3616, 0.7780380
618.8437, 0.3194310
619.3258, 0.1552430
619.8079, 0.4138640
620.2900, 0.7144470
620.7722, 0.7334440
621.2543, 0.5867040
621.7364, 0.4359360
622.2185, 0.3456500
622.7006, 0.2420430
623.1827, 4.6574000E-02
623.6649, 0.1785470
624.1470, 0.2849770
624.6291, 0.2174870
625.1112, 7.1423002E-02
625.5933, 0.1900710
626.0754, 0.5325320
626.5576, 0.6768000
627.0397, 0.5917550
627.5218, 0.4124640
628.0039, 0.1345290
628.4860, 0.2086940
628.9681, 0.2620960
629.4503, 3.1240000E-03
629.9324, 0.2479020
630.4145, 0.1278500
630.8966, 0.1724050
631.3787, 0.2962950
631.8608, 0.1392060
632.3430, 1.4935000E-02
632.8251, 8.3290003E-02
633.3072, 0.2748300
633.7893, 0.3636930
634.2714, 0.1269950
634.7535, 1.9355999E-02
635.2357, 8.4472999E-02
635.7178, 0.3265300
636.1999, 0.4462360
636.6820, 0.3587910
637.1641, 0.3097150
637.6462, 0.3989680
638.1284, 0.5764850
638.6105, 0.5340920
639.0926, 0.2408140
639.5747, 7.1950001E-03
640.0568, 6.3702002E-02
640.5389, 0.3183670
641.0211, 0.5343700
641.5032, 0.7066080
641.9853, 0.8018110
642.4674, 0.7639690
642.9495, 0.6504400
643.4316, 0.5113030
643.9138, 0.3449550
644.3959, 0.2068560
644.8780, 0.1590840
645.3601, 0.1372830
645.8422, 8.0977999E-02
646.3243, 0.1076090
646.8065, 0.2080920
647.2886, 0.1652370
647.7707, 5.8029000E-02
648.2528, 2.6404999E-02
648.7349, 7.9884000E-02
649.2170, 0.1842880
649.6992, 0.3841400
650.1813, 0.5890500
650.6634, 0.5016020
651.1455, 0.1533550
651.6276, 0.1313130
652.1097, 0.1277620
652.5919, 1.1177000E-02
653.0740, 9.9030003E-02
653.5561, 0.1367950
654.0382, 0.1721880
654.5203, 0.2655370
655.0024, 0.3445280
655.4846, 0.3671190
655.9667, 0.3284230
656.4488, 0.2202070
656.9309, 0.1046330
657.4130, 0.3848460
657.8951, 0.4201390
658.3773, 9.1891997E-02
658.8594, 0.1257400
659.3415, 0.1921160
659.8236, 0.1764870
660.3057, 0.1733510
660.7878, 0.1815410
661.2700, 0.1611060
661.7521, 9.5477998E-02
662.2342, 1.3783000E-02
662.7163, 6.8893000E-02
663.1984, 0.1388660
663.6805, 0.1549950
664.1627, 5.1230001E-03
664.6448, 0.1087110
665.1269, 4.2380001E-03
665.6090, 0.2569810
666.0911, 0.4250110
666.5732, 0.2747230
667.0554, 0.1880230
667.5375, 0.3397030
668.0196, 0.7245940
668.5017, 0.9223440
668.9838, 0.8513830
669.4659, 0.7768900
669.9481, 0.8887750
670.4302, 1.182053
670.9123, 1.356461
671.3944, 1.400425
671.8765, 1.410700
672.3586, 1.443882
672.8408, 1.532091
673.3229, 1.733194
673.8050, 2.073082
674.2871, 2.427109
674.7692, 2.742615
675.2513, 3.000702
675.7335, 3.184772
676.2156, 3.153910
676.6977, 3.276716
677.1798, 3.672939
677.6619, 4.199072
678.1440, 4.646004
678.6262, 4.960171
679.1083, 5.389959
679.5904, 6.049599
680.0725, 6.797304
680.5546, 7.233942
681.0367, 7.382376
681.5189, 7.658693
682.0010, 8.360992
682.4831, 9.237122
682.9652, 9.888641
683.4473, 10.35420
683.9294, 10.87800
684.4116, 11.64802
684.8937, 12.48679
685.3758, 13.30455
685.8579, 14.09015
686.3400, 14.84653
686.8221, 15.50123
687.3043, 16.18155
687.7864, 16.97846
688.2685, 17.96559
688.7506, 18.69141
689.2327, 19.09418
689.7148, 19.40646
690.1970, 19.91826
690.6791, 20.56846
691.1612, 20.94335
691.6433, 20.99349
692.1254, 20.76868
692.6075, 20.26634
693.0897, 19.53236
693.5718, 18.61445
694.0539, 17.43121
694.5360, 16.24781
695.0181, 15.18003
695.5002, 14.18275
695.9824, 13.15898
696.4645, 12.09762
696.9466, 10.99611
697.4287, 9.780899
697.9108, 8.556416
698.3929, 7.601280
698.8751, 6.938112
699.3572, 6.344084
699.8393, 5.736933
700.3214, 5.147867
700.8035, 4.628546
701.2856, 4.186197
701.7678, 3.863623
702.2499, 3.838392
702.7320, 3.831282
703.2141, 3.526077
703.6962, 2.960661
704.1783, 2.477373
704.6605, 2.249836
705.1426, 2.109503
705.6247, 1.966484
706.1068, 1.800756
706.5889, 1.743555
707.0710, 1.857159
707.5532, 1.962223
708.0353, 1.954460
708.5174, 1.849215
708.9995, 1.681072
709.4816, 1.435518
709.9637, 1.177328
710.4459, 0.9300080
710.9280, 0.7271290
711.4101, 0.6585870
711.8922, 0.7618540
712.3743, 0.8775860
712.8564, 0.9275930
713.3386, 0.9312290
713.8207, 0.9074330
714.3028, 0.8101900
714.7849, 0.7846430
715.2670, 0.9078450
715.7491, 1.038666
716.2313, 0.9701980
716.7134, 0.6374000
717.1955, 0.3821070
717.6776, 0.2679560
718.1597, 0.2496700
718.6418, 0.2708550
719.1240, 0.3210140
719.6061, 0.3447690
720.0882, 0.2752970
720.5703, 0.2318400
721.0524, 0.4209140
721.5345, 0.7273010
722.0167, 0.8741110
722.4988, 0.5722330
722.9809, 0.3038200
723.4630, 0.2881260
723.9451, 0.4674220
724.4272, 0.5453210
724.9094, 0.4627420
725.3915, 0.4068600
725.8736, 0.4405230
726.3557, 0.5458090
726.8378, 0.7216240
727.3199, 0.9729000
727.8021, 1.116247
728.2842, 0.9128650
728.7663, 0.5753040
729.2484, 0.4880790
729.7305, 0.6404000
730.2126, 0.7792130
730.6948, 0.7142200
731.1769, 0.6192300
731.6590, 0.6025350
732.1411, 0.6774100
732.6232, 0.8248750
733.1053, 1.151772
733.5875, 1.423449
734.0696, 1.473234
734.5517, 1.262091
735.0338, 1.128273
735.5159, 1.072628
735.9980, 1.089317
736.4802, 1.231833
736.9623, 1.437992
737.4444, 1.517008
737.9265, 1.428259
738.4086, 1.322657
738.8907, 1.344837
739.3729, 1.403070
739.8550, 1.387379
740.3371, 1.196966
740.8192, 1.077688
741.3013, 1.107191
741.7834, 1.203363
742.2656, 1.312988
742.7477, 1.474333
743.2298, 1.502174
743.7119, 1.326387
744.1940, 1.114193
744.6761, 1.138971
745.1583, 1.357407
745.6404, 1.571596
746.1225, 1.741276
746.6046, 1.883354
747.0867, 2.002922
747.5688, 2.083296
748.0510, 2.130531
748.5331, 2.210865
749.0152, 2.230850
749.4973, 2.060942
749.9794, 1.771679
750.4615, 1.580841
750.9437, 1.509197
751.4258, 1.537785
751.9079, 1.698763
752.3900, 1.917791
752.8721, 2.007813
753.3542, 1.980799
753.8364, 1.944513
754.3185, 1.940178
754.8006, 1.962498
755.2827, 2.002237
755.7648, 2.049450
756.2469, 2.096914
756.7291, 2.186098
757.2112, 2.228148
757.6933, 2.174934
758.1754, 2.047989
758.6575, 1.921396
759.1396, 1.725695
759.6218, 1.662674
760.1039, 1.850906
760.5860, 2.211647
761.0681, 2.398672
761.5502, 2.413097
762.0323, 2.338301
762.5145, 2.115437
762.9966, 1.891529
763.4787, 1.915030
763.9608, 2.146767
764.4429, 2.330523
764.9250, 2.304440
765.4072, 2.235916
765.8893, 2.209795
766.3714, 2.231668
766.8535, 2.230253
767.3356, 2.172440
767.8177, 2.146969
768.2999, 2.232260
768.7820, 2.405540
769.2641, 2.410057
769.7462, 2.245590
770.2283, 2.068222
770.7104, 2.012690
771.1926, 2.001308
771.6747, 1.887711
772.1568, 1.670168
772.6389, 1.553951
773.1210, 1.791571
773.6031, 2.044548
774.0853, 2.086203
774.5674, 1.859812
775.0495, 1.643171
775.5316, 1.410629
776.0137, 1.246103
776.4958, 1.238621
776.9780, 1.378693
777.4601, 1.408163
777.9422, 1.313410
778.4243, 1.232000
778.9064, 1.319410
779.3885, 1.483564
779.8707, 1.612652
780.3528, 1.693478
780.8349, 1.696890
781.3170, 1.544024
781.7991, 1.365572
782.2812, 1.241859
782.7633, 1.166115
783.2454, 1.178232
783.7275, 1.344969
784.2097, 1.478912
784.6918, 1.360783
785.1739, 1.028954
785.6560, 0.8840430
786.1381, 0.9570660
786.6202, 1.066994
787.1024, 1.034082
787.5845, 0.9634270
788.0666, 0.9968130
788.5487, 1.178583
789.0308, 1.338955
789.5129, 1.418617
789.9951, 1.444679
790.4772, 1.436283
790.9593, 1.394169
791.4414, 1.324610
791.9235, 1.227047
792.4056, 1.109406
792.8878, 0.9597680
793.3699, 0.7920590
793.8520, 0.6673560
794.3341, 0.5889320
794.8162, 0.5843090
795.2983, 0.7862420
795.7805, 1.014788
796.2626, 1.047342
796.7447, 0.7640300
797.2268, 0.5396770
797.7089, 0.4764730
798.1910, 0.4976880
798.6732, 0.5652980
799.1553, 0.7230210
799.6374, 0.7626170
800.1195, 0.6551900
800.6016, 0.5101260
801.0837, 0.4284110
801.5659, 0.3998070
802.0480, 0.4179400
802.5301, 0.4955900
803.0122, 0.5255220
803.4943, 0.3416790
803.9764, 0.1157280
804.4586, 4.2034000E-02
804.9407, 0.2862950
805.4228, 0.3372400
805.9049, 5.4545999E-02
806.3870, 0.4376770
806.8691, 0.3895150
807.3513, 0.1625270
807.8334, 0.4747600
808.3155, 0.4829270
808.7976, 0.3899420
809.2797, 0.4109610
809.7618, 0.4859490
810.2440, 0.4931870
810.7261, 0.4084870
811.2082, 0.2896730
811.6903, 0.1105710
812.1724, 5.2189000E-02
812.6545, 0.1267850
813.1367, 7.7271000E-02
813.6188, 6.2050000E-03
814.1009, 0.1191270
814.5830, 0.2122550
815.0651, 0.1661640
815.5472, 6.1800000E-03
816.0294, 0.1197810
816.5115, 0.1631720
816.9936, 0.1303290
817.4757, 6.0885999E-02
817.9578, 0.2969420
818.4399, 0.4215870
818.9221, 0.3863740
819.4042, 0.3679500
819.8863, 0.4562230
820.3684, 0.5580390
820.8505, 0.6147190
821.3326, 0.6265720
821.8148, 0.5781400
822.2969, 0.4389920
822.7790, 0.3354890
823.2611, 0.4211750
823.7432, 0.6317980
824.2253, 0.7407460
824.7075, 0.7276400
825.1896, 0.7481630
825.6717, 1.015566
826.1538, 1.297022
826.6359, 1.376242
827.1180, 1.181444
827.6002, 1.029667
828.0823, 0.9697700
828.5644, 0.9374660
829.0465, 0.8835740
829.5286, 0.8051170
830.0107, 0.8603310
830.4929, 1.063578
830.9750, 1.224789
831.4571, 1.170994
831.9392, 0.9854510
832.4213, 0.7571910
832.9034, 0.5003950
833.3856, 0.3054240
833.8677, 0.2658630
834.3498, 0.2608620
834.8319, 0.2125870
835.3140, 0.1143320
835.7961, 8.6796001E-02
836.2783, 0.1699560
836.7604, 0.2146550
837.2425, 0.1053450
837.7246, 0.1108190
838.2067, 0.2383210
838.6888, 0.2840710
839.1710, 0.3044990
839.6531, 0.3210490
840.1352, 0.3398930
840.6173, 0.3733140
841.0994, 0.4181000
841.5815, 0.4437160
842.0637, 0.4571250
842.5458, 0.4345470
843.0279, 0.3513200
843.5100, 0.2239630
843.9921, 0.1438960
844.4742, 0.1105770
844.9564, 0.1578670
845.4385, 0.3714430
845.9206, 0.6254290
846.4027, 0.7443620
846.8848, 0.7418170
847.3669, 0.6628820
847.8491, 0.4759250
848.3312, 0.2696110
848.8133, 7.0785999E-02
849.2954, 0.1222840
849.7775, 0.3247620
850.2596, 0.5722100
850.7418, 0.7021220
851.2239, 0.6084120
851.7060, 0.4400060
852.1881, 0.5594980
852.6702, 0.9086300
853.1523, 1.250113
853.6345, 1.471899
854.1166, 1.666182
854.5987, 1.810339
855.0808, 1.980719
855.5629, 2.340553
856.0450, 3.176552
856.5272, 3.811945
857.0093, 4.085056
857.4914, 4.214710
857.9735, 4.572546
858.4556, 5.145481
858.9377, 5.784452
859.4199, 6.464764
859.9020, 7.139593
860.3841, 7.740318
860.8662, 8.300629
861.3483, 8.857594
861.8304, 9.263657
862.3126, 9.949862
862.7947, 11.23142
863.2768, 12.71338
863.7589, 14.03074
864.2410, 15.14905
864.7231, 16.32404
865.2053, 17.59821
865.6874, 18.98412
866.1695, 20.58700
866.6516, 22.31728
867.1337, 23.98800
867.6158, 25.55058
868.0980, 27.22274
868.5801, 29.23512
869.0622, 31.33689
869.5443, 33.29746
870.0264, 35.05176
870.5085, 37.10118
870.9907, 39.57390
871.4728, 41.97622
871.9549, 43.80348
872.4370, 45.22561
872.9191, 46.96248
873.4012, 49.01898
873.8834, 51.07816
874.3655, 53.13786
874.8476, 54.95822
875.3297, 56.32485
875.8118, 57.22701
876.2939, 58.09000
876.7761, 59.09041
877.2582, 59.84534
877.7403, 60.24818
878.2224, 60.28621
878.7045, 59.82755
879.1866, 58.89536
879.6688, 57.80462
880.1509, 56.75998
880.6330, 55.60607
881.1151, 54.05701
881.5972, 52.25737
882.0793, 50.64931
882.5615, 49.43143
883.0436, 48.32756
883.5257, 47.30339
884.0078, 46.34000
884.4899, 45.39762
884.9720, 44.47660
885.4542, 43.55747
885.9363, 42.58658
886.4184, 41.72618
886.9005, 41.20766
887.3826, 40.94302
887.8647, 40.79914
888.3469, 40.85358
888.8290, 40.81876
889.3111, 40.49083
889.7932, 40.10347
890.2753, 39.92452
890.7574, 40.04930
891.2396, 39.94263
891.7217, 39.56289
892.2038, 38.98655
892.6859, 38.35765
893.1680, 37.57403
893.6501, 36.37650
894.1323, 34.69165
894.6144, 32.93833
895.0965, 31.29657
895.5786, 29.67023
896.0607, 27.96461
896.5428, 26.16249
897.0250, 24.42668
897.5071, 22.77866
897.9892, 21.13460
898.4713, 19.31072
898.9534, 17.46359
899.4355, 16.05053
899.9177, 15.03769
900.3998, 14.09906
900.8819, 13.13619
901.3640, 12.13763
901.8461, 10.99247
902.3282, 9.779713
902.8104, 8.942863
903.2925, 8.705215
903.7746, 8.273190
904.2567, 7.319412
904.7388, 6.165333
905.2209, 5.615871
905.7031, 5.546204
906.1852, 5.433662
906.6673, 5.039291
907.1494, 4.589931
907.6315, 4.262474
908.1136, 3.971996
908.5958, 3.573338
909.0779, 2.890999
909.5600, 2.411057
910.0421, 2.208733
910.5242, 2.137264
911.0063, 2.028675
911.4885, 1.890190
911.9706, 1.745365
912.4527, 1.593376
912.9348, 1.482563
913.4169, 1.580631
913.8990, 1.653408
914.3812, 1.424557
914.8633, 0.7262760
915.3454, 0.3592490
915.8275, 0.5042760
916.3096, 0.7074660
916.7917, 0.6889610
917.2739, 0.4901960
917.7560, 0.3967020
918.2381, 0.4004140
918.7202, 0.4067310
919.2023, 0.2599560
919.6844, 0.1708950
920.1666, 0.3839650
920.6487, 0.8300060
921.1308, 1.123684
921.6129, 1.162540
922.0950, 1.129173
922.5771, 1.031452
923.0593, 0.9166030
923.5414, 0.8816340
924.0235, 0.9316100
924.5056, 1.129425
924.9877, 1.606434
925.4698, 2.002758
925.9520, 1.840527
926.4341, 1.461525
926.9162, 1.344830
927.3983, 1.817810
927.8804, 2.223763
928.3625, 2.495293
928.8447, 2.780167
929.3268, 3.284214
929.8089, 3.962543
930.2910, 4.486179
930.7731, 4.827000
931.2552, 5.097099
931.7374, 5.269291
932.2195, 5.503639
932.7016, 6.009247
933.1837, 6.831367
933.6658, 7.449200
934.1479, 7.682869
934.6301, 7.958714
935.1122, 8.462597
935.5943, 9.155037
936.0764, 9.880413
936.5585, 10.64339
937.0406, 11.42944
937.5228, 12.26979
938.0049, 13.10732
938.4870, 13.79577
938.9691, 14.45917
939.4512, 15.40683
939.9333, 16.91989
940.4155, 18.28640
940.8976, 19.33806
941.3797, 20.33495
941.8618, 21.65432
942.3439, 23.26966
942.8260, 25.01899
943.3082, 26.90598
943.7903, 28.87179
944.2724, 30.83548
944.7545, 32.87527
945.2366, 35.07510
945.7188, 37.43898
946.2009, 40.02267
946.6830, 42.86952
947.1651, 45.86854
947.6472, 48.97495
948.1293, 52.16266
948.6115, 55.39544
949.0936, 58.66562
949.5757, 62.01833
950.0578, 65.31374
950.5399, 68.81388
951.0220, 72.70129
951.5042, 76.93949
951.9863, 81.34871
952.4684, 86.07364
952.9505, 90.58488
953.4326, 94.82324
953.9147, 98.70319
954.3969, 102.1258
954.8790, 105.1294
955.3611, 107.8511
955.8432, 110.3927
956.3253, 112.4559
956.8074, 114.0960
957.2896, 114.9838
957.7717, 114.9177
958.2538, 114.0241
958.7359, 111.6445
959.2180, 107.5629
959.7001, 102.9695
960.1823, 98.99988
960.6644, 95.11614
961.1465, 90.21056
961.6286, 84.31726
962.1107, 78.40305
962.5928, 72.62179
963.0750, 67.25404
963.5571, 62.43993
964.0392, 58.09444
964.5213, 53.93840
965.0034, 49.93679
965.4855, 46.35082
965.9677, 43.31614
966.4498, 40.52818
966.9319, 37.58260
967.4140, 34.64920
967.8961, 32.04851
968.3782, 29.97481
968.8604, 27.94437
969.3425, 25.70278
969.8246, 23.55324
970.3067, 21.76732
970.7888, 20.37366
971.2709, 18.81543
971.7531, 17.06836
972.2352, 15.43028
972.7173, 14.14965
973.1994, 13.07459
973.6815, 12.12973
974.1636, 11.30206
974.6458, 10.49065
975.1279, 9.666664
975.6100, 8.877426
976.0921, 8.125994
976.5742, 7.425516
977.0563, 6.783812
977.5385, 6.212032
978.0206, 5.835556
978.5027, 5.797888
978.9848, 5.761906
979.4669, 5.446587
979.9490, 4.992554
980.4311, 4.572512
980.9132, 4.167793
981.3953, 3.892035
981.8774, 3.778561
982.3596, 3.711657
982.8417, 3.581385
983.3238, 3.416983
983.8059, 3.292675
984.2880, 3.214275
984.7701, 3.212345
985.2523, 3.487291
985.7344, 3.667400
986.2165, 3.395241
986.6986, 2.835226
987.1807, 2.694504
987.6628, 3.029232
988.1450, 3.477636
988.6271, 3.982658
989.1092, 4.449846
989.5913, 4.732857
990.0734, 4.878025
990.5555, 4.960575
991.0377, 4.949482
991.5198, 4.986952
992.0019, 5.030544
992.4840, 5.207706
992.9661, 5.697151
993.4482, 6.517490
993.9304, 7.020306
994.4125, 7.194788
994.8946, 7.311729
995.3767, 7.556305
995.8588, 7.850740
996.3409, 8.175041
996.8231, 8.499275
997.3052, 8.669636
997.7873, 8.547558
998.2694, 8.484592
998.7515, 8.559433
999.2336, 8.729137
999.7158, 8.989239
1000.198, 9.279053
1000.680, 9.336742
1001.162, 9.023045
1001.644, 8.707634
1002.126, 8.755749
1002.608, 8.826141
1003.091, 8.582867
1003.573, 7.953966
1004.055, 7.426447
1004.537, 7.023823
1005.019, 6.589638
1005.501, 5.966557
1005.983, 5.265163
1006.465, 4.656528
1006.948, 4.125870
1007.430, 3.586056
1007.912, 2.901741
1008.394, 2.347321
1008.876, 2.070667
1009.358, 1.904182
1009.840, 1.478382
1010.322, 0.8084530
1010.804, 0.4823700
1011.287, 0.6486720
1011.769, 0.8493190
1012.251, 0.6242830
1012.733, 0.2296050
1013.215, 0.1048240
1013.697, 0.3531040
1014.179, 0.4676130
1014.661, 0.3848550
1015.143, 0.3133340
1015.626, 0.3596900
1016.108, 0.4889180
1016.590, 0.6234230
1017.072, 0.7509060
1017.554, 0.8315530
1018.036, 0.8573400
1018.518, 0.8199270
1019.000, 0.6719910
1019.483, 0.4777070
1019.965, 0.3004510
1020.447, 0.1120190
1020.929, 0.1459960
1021.411, 0.4520740
1021.893, 0.7567920
1022.375, 0.8074820
1022.857, 0.6961590
1023.339, 0.4544050
1023.822, 0.1018260
1024.304, 3.1721000E-02
1024.786, 0.3347240
1025.268, 0.6554220
1025.750, 0.7829300
1026.232, 0.7501390
1026.714, 0.6337470
1027.196, 0.4337560
1027.679, 0.1153320
1028.161, 0.4501230
1028.643, 0.8506580
1029.125, 0.6297000
1029.607, 0.2129760
1030.089, 8.2773000E-02
1030.571, 0.3575900
1031.053, 0.4976580
1031.536, 0.4806790
1032.018, 0.4371030
1032.500, 0.4364990
1032.982, 0.4843310
1033.464, 0.6392190
1033.946, 0.8622670
1034.428, 0.9983080
1034.910, 0.8756690
1035.392, 0.8106080
1035.875, 0.9120330
1036.357, 1.067902
1036.839, 1.055239
1037.321, 0.8989260
1037.803, 0.8291230
1038.285, 0.8885290
1038.767, 0.9955560
1039.249, 1.104650
1039.731, 1.217794
1040.214, 1.338955
1040.696, 1.467972
1041.178, 1.616390
1041.660, 1.821463
1042.142, 1.889063
1042.624, 1.646887
1043.106, 1.315744
1043.588, 1.321072
1044.071, 1.543360
1044.553, 1.709972
1045.035, 1.683258
1045.517, 1.660505
1045.999, 1.699833
1046.481, 1.736477
1046.963, 1.685364
1047.445, 1.557199
1047.927, 1.549170
1048.410, 1.664614
1048.892, 1.792933
1049.374, 1.849558
1049.856, 1.895737
1050.338, 2.022369
1050.820, 2.182037
1051.302, 2.149099
1051.784, 1.832087
1052.266, 1.650288
1052.749, 1.719683
1053.231, 1.862942
1053.713, 1.830185
1054.195, 1.703470
1054.677, 1.608095
1055.159, 1.565851
1055.641, 1.568621
1056.123, 1.614052
1056.606, 1.710669
1057.088, 1.903513
1057.570, 2.151018
1058.052, 2.203857
1058.534, 2.084372
1059.016, 1.929588
1059.498, 1.722300
1059.980, 1.606619
1060.463, 1.793556
1060.945, 2.071571
1061.427, 2.113701
1061.909, 1.790325
1062.391, 1.726580
1062.873, 1.984154
1063.355, 2.249960
1063.837, 2.212643
1064.319, 2.041739
1064.802, 1.945101
1065.284, 1.931116
1065.766, 1.976307
1066.248, 2.121395
1066.730, 2.264736
1067.212, 2.394823
1067.694, 2.507267
1068.176, 2.610544
1068.658, 2.690262
1069.141, 2.667393
1069.623, 2.509672
1070.105, 2.384575
1070.587, 2.427765
1071.069, 2.489641
1071.551, 2.430725
1072.033, 2.279921
1072.515, 2.505095
1072.998, 3.125208
1073.480, 3.394377
1073.962, 2.760811
1074.444, 1.954231
1074.926, 1.803617
1075.408, 2.000181
1075.890, 2.063826
1076.372, 1.761602
1076.854, 1.621628
1077.337, 1.662745
1077.819, 1.823683
1078.301, 2.194746
1078.783, 2.593155
1079.265, 2.489454
1079.747, 1.974026
1080.229, 1.573870
1080.711, 1.582155
1081.193, 1.688631
1081.676, 1.856819
1082.158, 2.021549
1082.640, 2.071823
1083.122, 2.011410
1083.604, 1.807623
1084.086, 1.442774
1084.568, 1.228153
1085.050, 1.604988
1085.532, 2.060806
1086.015, 2.181364
1086.497, 1.975784
1086.979, 1.795568
1087.461, 1.627850
1087.943, 1.546099
1088.425, 1.596010
1088.907, 1.730135
1089.389, 1.991943
1089.872, 2.263826
1090.354, 2.357922
1090.836, 2.140442
1091.318, 2.011461
1091.800, 2.009071
1092.282, 2.057598
1092.764, 2.127680
1093.246, 2.207033
1093.729, 2.227135
1094.211, 2.218184
1094.693, 2.291082
1095.175, 2.663799
1095.657, 2.901749
1096.139, 2.774340
1096.621, 2.556515
1097.103, 2.582706
1097.585, 2.836191
1098.068, 2.862635
1098.550, 2.642471
1099.032, 2.486250
1099.514, 2.714436
1099.996, 2.991159
1100.478, 3.093697
1100.960, 3.052626
1101.442, 3.014757
1101.924, 2.980179
1102.407, 2.936954
1102.889, 2.871496
1103.371, 2.841917
1103.853, 2.984858
1104.335, 3.158194
1104.817, 3.180994
1105.299, 3.014050
1105.781, 2.847027
1106.264, 2.636003
1106.746, 2.579123
1107.228, 2.820053
1107.710, 3.167955
1108.192, 3.211296
1108.674, 3.058861
1109.156, 2.960262
1109.638, 3.019567
1110.120, 3.064663
1110.603, 2.996378
1111.085, 2.971352
1111.567, 3.135017
1112.049, 3.440447
1112.531, 3.526766
1113.013, 3.425348
1113.495, 3.340620
1113.977, 3.392918
1114.459, 3.472115
1114.942, 3.549244
1115.424, 3.610289
1115.906, 3.629648
1116.388, 3.600965
1116.870, 3.623383
1117.352, 3.706167
1117.834, 3.733112
1118.316, 3.567904
1118.799, 3.347107
1119.281, 3.145189
1119.763, 2.985035
1120.245, 2.939825
1120.727, 3.040897
1121.209, 3.151161
1121.691, 3.259459
1122.173, 3.327267
1122.656, 3.282877
1123.138, 3.183821
1123.620, 3.044693
1124.102, 2.861727
1124.584, 3.000523
1125.066, 3.772812
1125.548, 4.254507
1126.030, 4.050791
1126.512, 3.549427
1126.995, 3.574364
1127.477, 3.907980
1127.959, 4.030766
1128.441, 3.763288
1128.923, 3.485971
1129.405, 3.273258
1129.887, 3.127977
1130.369, 3.058302
1130.851, 3.059622
1131.334, 3.140911
1131.816, 3.277884
1132.298, 3.351278
1132.780, 3.286093
1133.262, 3.187162
1133.744, 3.038683
1134.226, 2.929930
1134.708, 2.964651
1135.191, 3.167564
1135.673, 3.204611
1136.155, 3.083115
1136.637, 3.000696
1137.119, 3.097065
1137.601, 3.255327
1138.083, 3.426044
1138.565, 3.594093
1139.047, 3.710510
1139.530, 3.726851
1140.012, 3.992605
1140.494, 4.592154
1140.976, 5.001478
1141.458, 4.477045
1141.940, 3.731386
1142.422, 3.544689
1142.904, 3.841375
1143.386, 3.938389
1143.869, 3.685881
1144.351, 3.557266
1144.833, 3.663050
1145.315, 3.829393
1145.797, 3.801933
1146.279, 3.696918
1146.761, 3.699121
1147.243, 3.836596
1147.726, 3.930172
1148.208, 3.967239
1148.690, 3.941198
1149.172, 3.784849
1149.654, 3.612381
1150.136, 3.844360
1150.618, 4.255325
1151.100, 4.331551
1151.583, 3.855005
1152.065, 3.537279
1152.547, 3.692364
1153.029, 3.860468
1153.511, 3.820190
1153.993, 3.647663
1154.475, 3.575459
1154.957, 3.579260
1155.439, 3.600164
1155.922, 3.649673
1156.404, 3.657822
1156.886, 3.587929
1157.368, 3.472448
1157.850, 3.315081
1158.332, 3.124250
1158.814, 2.957075
1159.296, 2.818544
1159.778, 2.739813
1160.261, 2.755217
1160.743, 2.814285
1161.225, 2.980152
1161.707, 3.119768
1162.189, 3.042774
1162.671, 2.730865
1163.153, 2.646486
1163.635, 2.795319
1164.118, 2.913799
1164.600, 2.763580
1165.082, 2.584583
1165.564, 2.542171
1166.046, 2.574366
1166.528, 2.571516
1167.010, 2.535685
1167.492, 2.409698
1167.974, 2.180904
1168.457, 1.960773
1168.939, 1.839857
1169.421, 1.767253
1169.903, 1.741146
1170.385, 1.725824
1170.867, 1.566082
1171.349, 1.203483
1171.831, 1.061625
1172.313, 1.240700
1172.796, 1.490515
1173.278, 1.620813
1173.760, 1.650723
1174.242, 1.556299
1174.724, 1.344538
1175.206, 1.224696
1175.688, 1.237027
1176.170, 1.177811
1176.653, 0.9630110
1177.135, 0.7577090
1177.617, 0.8312690
1178.099, 1.007678
1178.581, 1.061685
1179.063, 0.9459200
1179.545, 0.8768080
1180.027, 0.8831470
1180.510, 0.8574780
1180.992, 0.7517580
1181.474, 0.6113370
1181.956, 0.4532050
1182.438, 0.3238880
1182.920, 0.3153690
1183.402, 0.4947620
1183.884, 0.6001230
1184.366, 0.6157910
1184.849, 0.5691500
1185.331, 0.4370310
1185.813, 0.2910990
1186.295, 0.3034320
1186.777, 0.3905950
1187.259, 0.3925210
1187.741, 0.2116920
1188.223, 7.1308002E-02
1188.705, 1.8452000E-02
1189.188, 6.3538000E-02
1189.670, 3.9793000E-02
1190.152, 9.0939999E-03
1190.634, 3.2147001E-02
1191.116, 0.1233060
1191.598, 0.1674310
1192.080, 3.3688001E-02
1192.562, 2.5015000E-02
1193.045, 0.2072780
1193.527, 0.4050540
1194.009, 0.4768610
1194.491, 0.4556380
1194.973, 0.3895410
1195.455, 0.2973910
1195.937, 0.2350250
1196.419, 0.2976250
1196.901, 0.2653480
1197.384, 5.8465999E-02
1197.866, 0.1379790
1198.348, 9.8996997E-02
1198.830, 7.2376996E-02
1199.312, 0.1021270
1199.794, 1.4141000E-02
1200.276, 2.1732001E-02
1200.758, 0.1379490
1201.240, 0.2385790
1201.723, 0.2212080
1202.205, 0.1729510
1202.687, 0.2287130
1203.169, 0.3271860
1203.651, 0.2933170
1204.133, 0.1332030
1204.615, 4.1399999E-03
1205.097, 2.9608000E-02
1205.580, 2.3020001E-03
1206.062, 0.1858910
1206.544, 0.2530430
1207.026, 0.5285550
1207.508, 1.680128
1207.990, 1.797466
1208.472, 0.8056500
1208.954, 0.1336940
1209.437, 0.7348210
1209.919, 1.136794
1210.401, 0.9543400
1210.883, 0.4967560
1211.365, 0.1911520
1211.847, 4.2513002E-02
1212.329, 0.1152620
1212.811, 0.4248900
1213.293, 0.5952570
1213.776, 0.3429570
1214.258, 0.1494050
1214.740, 0.1565980
1215.222, 0.2688630
1215.704, 0.3204120
1216.186, 0.3243480
1216.668, 0.3075540
1217.150, 0.2741520
1217.632, 0.2250970
1218.115, 0.1420670
1218.597, 6.5673001E-02
1219.079, 8.6070001E-03
1219.561, 4.4573002E-02
1220.043, 7.6030999E-02
1220.525, 0.2802110
1221.007, 0.3946380
1221.489, 0.3630570
1221.972, 0.3793710
1222.454, 0.5604930
1222.936, 0.6539080
1223.418, 0.5246190
1223.900, 0.2986070
1224.382, 0.2312210
1224.864, 0.2783270
1225.346, 0.3682190
1225.828, 0.5192610
1226.311, 0.5495610
1226.793, 0.3733530
1227.275, 0.2135670
1227.757, 0.1672830
1228.239, 0.2042170
1228.721, 0.2819530
1229.203, 0.3898850
1229.685, 0.5250120
1230.167, 0.7454780
1230.650, 0.7618670
1231.132, 0.4547540
1231.614, 0.2064500
1232.096, 0.2484990
1232.578, 0.4321810
1233.060, 0.4548980
1233.542, 0.3957860
1234.024, 0.4059510
1234.507, 0.5729240
1234.989, 0.6659620
1235.471, 0.6556990
1235.953, 0.6367750
1236.435, 0.6814030
1236.917, 0.7296550
1237.399, 0.6535560
1237.881, 0.5156530
1238.364, 0.4279320
1238.846, 0.4095770
1239.328, 0.4806740
1239.810, 0.6741550
1240.292, 0.8220190
1240.774, 0.7863410
1241.256, 0.6807700
1241.738, 0.6412300
1242.220, 0.6511580
1242.703, 0.6818320
1243.185, 0.7334720
1243.667, 0.8086880
1244.149, 0.9206510
1244.631, 0.9964060
1245.113, 0.9490040
1245.595, 0.8749870
1246.077, 0.9044910
1246.559, 0.9843470
1247.042, 0.9898510
1247.524, 0.8902560
1248.006, 0.7634400
1248.488, 0.6034960
1248.970, 0.4565940
1249.452, 0.4465680
1249.934, 0.5149400
1250.416, 0.6294000
1250.899, 0.7678520
1251.381, 0.7812990
1251.863, 0.6212800
1252.345, 0.6188200
1252.827, 0.7518860
1253.309, 0.8848590
1253.791, 0.9511500
1254.273, 0.9445200
1254.755, 0.6912290
1255.238, 0.3336480
1255.720, 0.2275560
1256.202, 0.3314500
1256.684, 0.4446970
1257.166, 0.5688640
1257.648, 0.6463610
1258.130, 0.5922500
1258.612, 0.5612280
1259.094, 0.6324540
1259.577, 0.7309980
1260.059, 0.7775970
1260.541, 0.7725310
1261.023, 0.7616390
1261.505, 0.7354990
1261.987, 0.6995620
1262.469, 0.6794940
1262.951, 0.6458030
1263.434, 0.5612070
1263.916, 0.5002990
1264.398, 0.5869650
1264.880, 0.7792060
1265.362, 0.8335920
1265.844, 0.7521420
1266.326, 0.6457070
1266.808, 0.5279270
1267.291, 0.4412270
1267.773, 0.3619020
1268.255, 0.3354410
1268.737, 0.4361430
1269.219, 0.6054900
1269.701, 0.7158280
1270.183, 0.7639050
1270.665, 0.7716720
1271.147, 0.7459650
1271.630, 0.6484630
1272.112, 0.4444770
1272.594, 0.2831710
1273.076, 0.3799550
1273.558, 0.5702800
1274.040, 0.5659720
1274.522, 0.4292850
1275.004, 0.3895690
1275.486, 0.5498920
1275.969, 0.6239280
1276.451, 0.5802830
1276.933, 0.5212710
1277.415, 0.5258340
1277.897, 0.5599120
1278.379, 0.6223720
1278.861, 0.6871780
1279.343, 0.6821290
1279.825, 0.5807780
1280.308, 0.4976850
1280.790, 0.4386010
1281.272, 0.4154830
1281.754, 0.4689870
1282.236, 0.5324620
1282.718, 0.5703470
1283.200, 0.5807330
1283.682, 0.5526240
1284.165, 0.4829650
1284.647, 0.4729670
1285.129, 0.5223720
1285.611, 0.5611110
1286.093, 0.5630440
1286.575, 0.5239120
1287.057, 0.3708620
1287.539, 0.2290460
1288.021, 0.2918280
1288.504, 0.4957560
1288.986, 0.4250980
1289.468, 0.1222870
1289.950, 6.9666997E-02
1290.432, 9.5997997E-02
1290.914, 0.2856440
1291.396, 0.4674070
1291.878, 0.5868640
1292.360, 0.5604250
1292.843, 0.4452910
1293.325, 0.3662610
1293.807, 0.3255970
1294.289, 0.3177370
1294.771, 0.3541420
1295.253, 0.4138570
1295.735, 0.5092640
1296.217, 0.5837170
1296.700, 0.5800640
1297.182, 0.4965470
1297.664, 0.4019950
1298.146, 0.3003640
1298.628, 0.3074700
1299.110, 0.5142820
1299.592, 0.4910840
1300.074, 0.1973070
1300.557, 2.5103999E-02
1301.039, 0.1370980
1301.521, 0.3933180
1302.003, 0.5795600
1302.485, 0.4449290
1302.967, 0.2668850
1303.449, 0.0000000E+00
##END=



