##NAMES=Messelite
##RRUFFID=R140175
##IDEAL CHEMISTRY=Ca_2_Fe^2+^(PO_4_)_2_&#183;2H_2_O
##LOCALITY=Messel mine, Messel, Darmstadt, Hesse, Germany
##OWNER=RRUFF
##SOURCE=Rock Currier
##DESCRIPTION=Pale greenish white hemispherical or sheaflike aggregates of lamellar crystals, associated with anapaite (R141081). The cell parameters do not match messelite, but may be a related phase, perhaps a polytype. Needs more work.
##STATUS=The identification of this mineral is not yet confirmed.
##URL=rruff.info/R140175
##MEASURED CHEMISTRY=Ca_1.98_(Fe_0.88_Mg_0.09_)_Ʃ=0.97_(P_1.01_O_4_)_2_·2H_2_O trace amount of Mn
96.53284, 0.0000000E+00
97.01495, 4.410645
97.49707, 13.54456
97.97919, 23.53992
98.46130, 43.56104
98.94342, 75.19287
99.42554, 121.3168
99.90765, 183.1270
100.3898, 266.1143
100.8719, 359.2614
101.3540, 495.2576
101.8361, 656.7145
102.3182, 725.5288
102.8004, 692.2468
103.2825, 532.4669
103.7646, 386.2300
104.2467, 247.3186
104.7288, 124.0920
105.2109, 38.56885
105.6931, 3.414185
106.1752, 21.26160
106.6573, 23.48767
107.1394, 8.303955
107.6215, 17.77417
108.1036, 54.44019
108.5858, 101.2839
109.0679, 157.1948
109.5500, 209.5302
110.0321, 279.1377
110.5142, 376.3193
110.9963, 546.3950
111.4785, 693.3958
111.9606, 828.1204
112.4427, 949.1246
112.9248, 983.7893
113.4069, 861.8936
113.8890, 682.9229
114.3712, 525.3022
114.8533, 398.6945
115.3354, 301.7209
115.8175, 239.9358
116.2996, 214.3619
116.7817, 197.3428
117.2639, 181.7560
117.7460, 167.9412
118.2281, 156.3499
118.7102, 148.4865
119.1923, 141.8743
119.6744, 134.7965
120.1566, 126.6836
120.6387, 119.6753
121.1208, 115.0497
121.6029, 112.4207
122.0850, 111.0809
122.5671, 111.1022
123.0493, 111.9524
123.5314, 113.4165
124.0135, 115.9392
124.4956, 117.6903
124.9777, 116.6909
125.4598, 113.2493
125.9420, 108.5813
126.4241, 102.0242
126.9062, 94.89026
127.3883, 89.76331
127.8704, 87.68018
128.3525, 87.10669
128.8347, 85.90430
129.3168, 84.11011
129.7989, 82.21631
130.2810, 80.38086
130.7631, 78.67114
131.2452, 77.67871
131.7274, 77.91675
132.2095, 78.82056
132.6916, 78.98950
133.1737, 78.47925
133.6558, 77.16504
134.1379, 74.02808
134.6201, 69.14502
135.1022, 66.61768
135.5843, 68.82422
136.0664, 74.87427
136.5485, 77.32227
137.0306, 75.38696
137.5128, 72.18018
137.9949, 70.58838
138.4770, 70.22900
138.9591, 71.68237
139.4412, 75.50415
139.9233, 81.76904
140.4055, 88.03003
140.8876, 94.11865
141.3697, 100.3442
141.8518, 106.9788
142.3339, 113.1829
142.8160, 121.4502
143.2982, 132.3728
143.7803, 145.1111
144.2624, 162.7183
144.7445, 184.8044
145.2266, 212.0298
145.7087, 244.1858
146.1909, 280.0608
146.6730, 323.1489
147.1551, 374.8904
147.6372, 430.7810
148.1193, 501.6082
148.6014, 579.1318
149.0836, 670.1606
149.5657, 803.9397
150.0478, 1034.319
150.5299, 1260.983
151.0120, 1441.582
151.4941, 1647.977
151.9763, 1722.859
152.4584, 1590.867
152.9405, 1296.037
153.4226, 1060.251
153.9047, 902.6433
154.3868, 805.9587
154.8690, 761.6025
155.3511, 795.4844
155.8332, 852.6477
156.3153, 953.4321
156.7974, 1086.874
157.2795, 1166.104
157.7617, 1166.563
158.2438, 1109.368
158.7259, 1009.784
159.2080, 819.5381
159.6901, 636.5532
160.1722, 486.7261
160.6544, 370.2075
161.1365, 277.4255
161.6186, 212.9478
162.1007, 167.8044
162.5828, 132.2778
163.0649, 106.8743
163.5471, 87.08496
164.0292, 72.59204
164.5113, 64.32861
164.9934, 59.29346
165.4755, 55.07617
165.9576, 51.90869
166.4398, 51.25879
166.9219, 54.21704
167.4040, 59.50000
167.8861, 65.65063
168.3682, 72.50317
168.8503, 82.57520
169.3325, 96.44751
169.8146, 114.8308
170.2967, 138.5220
170.7788, 169.2263
171.2609, 205.0337
171.7430, 251.1780
172.2252, 311.1619
172.7073, 355.0137
173.1894, 355.3477
173.6715, 321.0615
174.1536, 272.7991
174.6357, 206.0693
175.1179, 136.3215
175.6000, 82.13818
176.0821, 46.22095
176.5642, 21.76978
177.0463, 5.152588
177.5284, 4.633789
178.0106, 10.49829
178.4927, 13.81372
178.9748, 14.29028
179.4569, 11.28467
179.9390, 4.502197
180.4211, 5.113770
180.9033, 16.60352
181.3854, 30.15771
181.8675, 46.11694
182.3496, 63.74097
182.8317, 83.92358
183.3138, 109.9167
183.7960, 141.8760
184.2781, 179.4666
184.7602, 223.1541
185.2423, 272.7817
185.7244, 323.3359
186.2065, 380.8645
186.6887, 438.9912
187.1708, 475.2546
187.6529, 486.9165
188.1350, 476.4944
188.6171, 440.8193
189.0992, 380.1926
189.5814, 317.3967
190.0635, 263.3167
190.5456, 217.8188
191.0277, 185.0930
191.5098, 166.5845
191.9919, 158.9587
192.4741, 156.1953
192.9562, 158.2156
193.4383, 166.1289
193.9204, 180.3469
194.4025, 200.9036
194.8846, 228.9070
195.3668, 264.2551
195.8489, 307.3022
196.3310, 358.6604
196.8131, 418.0105
197.2952, 486.2832
197.7773, 563.2886
198.2595, 648.5029
198.7416, 749.5264
199.2237, 866.4023
199.7058, 999.1255
200.1879, 1146.071
200.6700, 1308.698
201.1522, 1485.270
201.6343, 1686.515
202.1164, 1918.025
202.5985, 2123.794
203.0806, 2312.677
203.5627, 2461.639
204.0449, 2486.036
204.5270, 2371.743
205.0091, 2179.096
205.4912, 1927.296
205.9733, 1600.333
206.4554, 1309.547
206.9376, 1065.743
207.4197, 868.4697
207.9018, 710.3511
208.3839, 595.8564
208.8660, 508.9219
209.3481, 441.7463
209.8303, 395.6177
210.3124, 362.0457
210.7945, 341.3352
211.2766, 332.4529
211.7587, 330.4692
212.2408, 335.2507
212.7230, 347.3840
213.2051, 367.1819
213.6872, 394.4253
214.1693, 430.1479
214.6514, 473.7742
215.1335, 525.9692
215.6157, 587.1338
216.0978, 656.7974
216.5799, 737.1145
217.0620, 830.1248
217.5441, 936.4797
218.0262, 1054.612
218.5084, 1185.447
218.9905, 1329.758
219.4726, 1484.064
219.9547, 1654.526
220.4368, 1828.705
220.9189, 2002.199
221.4011, 2191.461
221.8832, 2342.646
222.3653, 2460.531
222.8474, 2537.930
223.3295, 2543.086
223.8116, 2461.845
224.2938, 2331.464
224.7759, 2166.209
225.2580, 1945.874
225.7401, 1741.927
226.2222, 1555.802
226.7043, 1389.552
227.1865, 1243.787
227.6686, 1121.237
228.1507, 1019.187
228.6328, 938.7292
229.1149, 884.6848
229.5970, 841.5576
230.0792, 810.9434
230.5613, 790.7129
231.0434, 774.5256
231.5255, 766.5947
232.0076, 756.9246
232.4897, 741.1121
232.9719, 721.3674
233.4540, 690.4639
233.9361, 645.1853
234.4182, 588.6216
234.9003, 530.1787
235.3824, 466.9932
235.8646, 405.8750
236.3467, 349.6521
236.8288, 296.8813
237.3109, 252.4436
237.7930, 217.7659
238.2751, 191.0930
238.7573, 168.4534
239.2394, 150.5720
239.7215, 135.5476
240.2036, 122.3208
240.6857, 110.3291
241.1678, 101.3020
241.6500, 95.25439
242.1321, 92.13452
242.6142, 91.98096
243.0963, 95.55493
243.5784, 101.0110
244.0605, 107.7476
244.5427, 116.4971
245.0248, 124.8931
245.5069, 133.4038
245.9890, 141.4495
246.4711, 148.0940
246.9532, 155.5425
247.4354, 158.1611
247.9175, 153.2231
248.3996, 138.6074
248.8817, 123.5332
249.3638, 108.6169
249.8459, 92.96704
250.3281, 74.46533
250.8102, 50.75220
251.2923, 28.28955
251.7744, 8.861572
252.2565, 7.319580
252.7386, 20.62476
253.2208, 31.00220
253.7029, 38.54102
254.1850, 43.37085
254.6671, 44.93359
255.1492, 44.91626
255.6313, 43.58228
256.1135, 40.76636
256.5956, 38.19458
257.0777, 36.32104
257.5598, 34.40454
258.0419, 31.56274
258.5240, 28.07715
259.0062, 23.23730
259.4883, 16.80054
259.9704, 8.906982
260.4525, 0.4602050
260.9346, 11.24536
261.4167, 23.42920
261.8989, 37.14917
262.3810, 52.64355
262.8631, 68.81641
263.3452, 85.28857
263.8273, 102.3342
264.3094, 120.0181
264.7916, 139.1943
265.2737, 158.2583
265.7558, 176.3354
266.2379, 193.8354
266.7200, 209.0251
267.2021, 223.3552
267.6843, 235.8379
268.1664, 236.5847
268.6485, 222.8516
269.1306, 203.0706
269.6127, 183.8521
270.0948, 165.3281
270.5770, 146.5527
271.0591, 126.4839
271.5412, 106.1885
272.0233, 90.53955
272.5054, 80.12939
272.9875, 73.29932
273.4697, 69.10596
273.9518, 67.57886
274.4339, 68.37549
274.9160, 71.71460
275.3981, 77.18481
275.8802, 83.13721
276.3624, 88.83301
276.8445, 97.66162
277.3266, 111.8215
277.8087, 131.4531
278.2908, 154.6399
278.7729, 181.2241
279.2551, 211.2979
279.7372, 243.9448
280.2193, 279.0449
280.7014, 318.5894
281.1835, 363.4424
281.6656, 413.6313
282.1478, 470.4805
282.6299, 533.7747
283.1120, 604.3010
283.5941, 684.0686
284.0762, 773.6348
284.5583, 868.7283
285.0405, 970.1975
285.5226, 1077.277
286.0047, 1184.844
286.4868, 1294.622
286.9689, 1399.008
287.4510, 1493.088
287.9332, 1576.166
288.4153, 1634.887
288.8974, 1665.109
289.3795, 1666.441
289.8616, 1630.849
290.3438, 1556.155
290.8259, 1459.448
291.3080, 1351.954
291.7901, 1236.402
292.2722, 1122.375
292.7543, 1011.074
293.2365, 905.4192
293.7186, 813.7520
294.2007, 736.9192
294.6828, 669.8792
295.1649, 608.2605
295.6470, 553.3323
296.1292, 507.4773
296.6113, 472.9990
297.0934, 446.8293
297.5755, 424.4998
298.0576, 405.9336
298.5397, 391.1074
299.0219, 380.7048
299.5040, 373.8079
299.9861, 368.8562
300.4682, 366.1755
300.9503, 364.1350
301.4324, 362.1382
301.9146, 359.6006
302.3967, 353.9204
302.8788, 342.6470
303.3609, 327.5120
303.8430, 311.1021
304.3251, 293.7979
304.8073, 275.1418
305.2894, 252.8628
305.7715, 228.6682
306.2536, 206.1262
306.7357, 187.8120
307.2178, 171.8091
307.7000, 156.2749
308.1821, 140.9238
308.6642, 126.9949
309.1463, 115.6497
309.6284, 106.2830
310.1105, 97.25830
310.5927, 88.06934
311.0748, 79.19458
311.5569, 71.31445
312.0390, 64.57178
312.5211, 57.64600
313.0032, 47.83545
313.4854, 38.27295
313.9675, 32.39014
314.4496, 35.26733
314.9317, 38.52661
315.4138, 37.56128
315.8959, 33.24780
316.3781, 30.50024
316.8602, 32.97290
317.3423, 36.95068
317.8244, 39.63867
318.3065, 39.42041
318.7886, 39.25757
319.2708, 38.44653
319.7529, 37.95288
320.2350, 40.51294
320.7171, 49.08398
321.1992, 59.32935
321.6813, 69.10620
322.1635, 77.63428
322.6456, 86.59204
323.1277, 96.23560
323.6098, 106.4944
324.0919, 117.2981
324.5740, 127.0330
325.0562, 138.7090
325.5383, 153.6379
326.0204, 172.5869
326.5025, 191.4536
326.9846, 208.2910
327.4667, 225.5151
327.9489, 245.9751
328.4310, 273.7734
328.9131, 300.5886
329.3952, 324.0906
329.8773, 344.1174
330.3594, 368.6582
330.8416, 399.4934
331.3237, 432.7651
331.8058, 465.9434
332.2879, 499.4380
332.7700, 532.5842
333.2521, 566.6226
333.7343, 600.7478
334.2164, 631.8091
334.6985, 661.5059
335.1806, 685.3582
335.6627, 700.3108
336.1448, 704.3572
336.6270, 703.7720
337.1091, 699.2061
337.5912, 690.0139
338.0733, 673.6455
338.5554, 648.9768
339.0375, 620.8171
339.5197, 590.4253
340.0018, 558.0027
340.4839, 525.8110
340.9660, 493.9546
341.4481, 463.2344
341.9302, 435.2422
342.4124, 409.7227
342.8945, 387.3862
343.3766, 367.9016
343.8587, 351.6279
344.3408, 339.8538
344.8229, 332.8433
345.3051, 329.1692
345.7872, 328.2996
346.2693, 329.9531
346.7514, 332.0466
347.2335, 333.4719
347.7156, 336.0317
348.1978, 343.6616
348.6799, 356.1462
349.1620, 370.5061
349.6441, 385.5725
350.1262, 401.0320
350.6083, 416.2686
351.0905, 431.5688
351.5726, 445.9580
352.0547, 459.5835
352.5368, 471.6614
353.0189, 479.8049
353.5010, 483.2878
353.9832, 481.9377
354.4653, 475.8618
354.9474, 465.0398
355.4295, 448.4590
355.9116, 422.0029
356.3937, 389.7930
356.8759, 358.4202
357.3580, 330.4329
357.8401, 303.6226
358.3222, 275.7402
358.8043, 247.1147
359.2864, 221.2131
359.7686, 201.1843
360.2507, 183.8521
360.7328, 166.6521
361.2149, 148.0525
361.6970, 130.8289
362.1791, 116.1526
362.6613, 103.6262
363.1434, 92.36743
363.6255, 82.17603
364.1076, 73.06860
364.5897, 64.93970
365.0718, 57.82520
365.5540, 52.02393
366.0361, 49.48071
366.5182, 47.66113
367.0003, 43.53979
367.4824, 33.57764
367.9645, 24.63281
368.4467, 18.36157
368.9288, 15.01611
369.4109, 12.00952
369.8930, 9.505127
370.3751, 7.310059
370.8572, 5.330566
371.3394, 3.832031
371.8215, 2.204834
372.3036, 0.4340820
372.7857, 1.502441
373.2678, 3.859375
373.7499, 7.389648
374.2321, 10.12695
374.7142, 11.03467
375.1963, 9.757813
375.6784, 8.266602
376.1605, 6.523682
376.6426, 4.692383
377.1248, 2.980957
377.6069, 1.298584
378.0890, 0.2043460
378.5711, 9.3506001E-02
379.0532, 0.7883300
379.5353, 0.9794920
380.0175, 0.5598140
380.4996, 9.3993999E-02
380.9817, 1.3916000E-02
381.4638, 0.3171390
381.9459, 1.177490
382.4280, 2.941162
382.9102, 4.880859
383.3923, 5.607178
383.8744, 5.190674
384.3565, 4.166748
384.8386, 2.302734
385.3207, 0.1901860
385.8029, 0.6816410
386.2850, 1.6602000E-02
386.7671, 0.9506840
387.2492, 1.760498
387.7313, 1.795654
388.2134, 0.4562990
388.6956, 9.802002
389.1777, 19.04175
389.6598, 20.67456
390.1419, 14.98096
390.6240, 8.497803
391.1061, 5.228271
391.5883, 3.246582
392.0704, 0.3593750
392.5525, 5.880127
393.0346, 10.50830
393.5167, 10.13770
393.9988, 6.268066
394.4810, 3.133545
394.9631, 3.239014
395.4452, 3.640137
395.9273, 2.661377
396.4094, 0.5390630
396.8915, 3.002441
397.3737, 3.205322
397.8558, 2.663574
398.3379, 3.248535
398.8200, 6.479492
399.3021, 9.334473
399.7842, 10.61572
400.2664, 10.30615
400.7485, 11.99585
401.2306, 17.32593
401.7127, 22.95044
402.1948, 26.70630
402.6769, 27.81616
403.1591, 28.57812
403.6412, 28.71362
404.1233, 28.73438
404.6054, 30.12866
405.0875, 33.32642
405.5696, 36.62549
406.0518, 39.64771
406.5339, 42.45801
407.0160, 43.38037
407.4981, 41.87256
407.9802, 40.13354
408.4623, 40.66577
408.9445, 43.49341
409.4266, 47.57080
409.9087, 53.29102
410.3908, 59.61450
410.8729, 63.58716
411.3550, 65.32739
411.8372, 67.07837
412.3193, 71.07812
412.8014, 76.26685
413.2835, 79.64673
413.7656, 80.26172
414.2477, 81.34668
414.7299, 86.60352
415.2120, 95.01001
415.6941, 103.9729
416.1762, 112.6255
416.6583, 121.0723
417.1404, 129.0474
417.6226, 136.6257
418.1047, 144.8381
418.5868, 153.7732
419.0689, 163.8613
419.5510, 175.7178
420.0331, 189.8345
420.5153, 205.1602
420.9974, 220.7859
421.4795, 237.2229
421.9616, 255.1035
422.4437, 275.2107
422.9258, 296.6079
423.4080, 318.5120
423.8901, 340.4001
424.3722, 365.5813
424.8543, 393.3774
425.3364, 425.1875
425.8185, 462.2090
426.3007, 505.5571
426.7828, 553.2021
427.2649, 604.7493
427.7470, 660.0757
428.2291, 720.7700
428.7112, 787.8367
429.1934, 857.6853
429.6755, 929.7065
430.1576, 1003.398
430.6397, 1080.449
431.1218, 1162.590
431.6039, 1244.825
432.0861, 1324.274
432.5682, 1401.751
433.0503, 1463.185
433.5324, 1505.467
434.0145, 1528.295
434.4966, 1528.130
434.9788, 1504.728
435.4609, 1467.348
435.9430, 1420.509
436.4251, 1365.149
436.9072, 1303.009
437.3893, 1231.578
437.8715, 1159.921
438.3536, 1095.451
438.8357, 1038.684
439.3178, 991.1089
439.7999, 953.7974
440.2820, 925.5718
440.7642, 907.3333
441.2463, 898.9861
441.7284, 894.6421
442.2105, 891.2354
442.6926, 890.0461
443.1747, 892.3770
443.6569, 901.5083
444.1390, 910.3906
444.6211, 918.1877
445.1032, 924.2539
445.5853, 926.4509
446.0674, 926.3691
446.5496, 921.0613
447.0317, 908.9607
447.5138, 888.8474
447.9959, 865.6169
448.4780, 839.5244
448.9601, 810.3022
449.4423, 776.7986
449.9244, 737.5217
450.4065, 697.0125
450.8886, 655.3633
451.3707, 613.7341
451.8528, 573.8938
452.3350, 535.4075
452.8171, 498.9453
453.2992, 463.9575
453.7813, 430.3459
454.2634, 400.2290
454.7455, 373.4099
455.2277, 349.2500
455.7098, 326.5793
456.1919, 305.6697
456.6740, 286.9839
457.1561, 271.4731
457.6382, 257.9583
458.1204, 245.2400
458.6025, 233.2329
459.0846, 221.6941
459.5667, 209.9346
460.0488, 198.3601
460.5309, 187.6882
461.0131, 178.2605
461.4952, 168.7932
461.9773, 157.3950
462.4594, 145.8970
462.9415, 136.7600
463.4236, 133.1736
463.9058, 130.1987
464.3879, 125.5085
464.8700, 119.2129
465.3521, 113.2686
465.8342, 109.4414
466.3163, 105.3132
466.7985, 99.24878
467.2806, 87.69653
467.7627, 80.33545
468.2448, 79.86206
468.7269, 82.64087
469.2090, 83.56689
469.6912, 81.89795
470.1733, 79.73828
470.6554, 77.74463
471.1375, 75.80005
471.6196, 71.97144
472.1017, 65.29688
472.5839, 59.13330
473.0660, 56.18506
473.5481, 56.57910
474.0302, 56.22119
474.5123, 54.64111
474.9944, 52.25098
475.4766, 49.93701
475.9587, 47.84204
476.4408, 45.65723
476.9229, 42.38281
477.4050, 39.53418
477.8871, 41.17578
478.3693, 46.69458
478.8514, 50.26831
479.3335, 45.64648
479.8156, 37.68042
480.2977, 32.14819
480.7798, 30.38037
481.2620, 29.94824
481.7441, 30.07715
482.2262, 30.45264
482.7083, 30.61597
483.1904, 29.38770
483.6725, 28.82861
484.1547, 30.29102
484.6368, 33.53149
485.1189, 35.54370
485.6010, 35.37573
486.0831, 34.22876
486.5652, 32.51880
487.0474, 29.13940
487.5295, 27.59277
488.0116, 28.49829
488.4937, 30.77856
488.9758, 33.17676
489.4579, 36.05103
489.9401, 38.08740
490.4222, 39.38257
490.9043, 39.56787
491.3864, 36.11816
491.8685, 28.43188
492.3506, 21.19995
492.8328, 17.94751
493.3149, 17.97266
493.7970, 18.29858
494.2791, 18.85547
494.7612, 19.04688
495.2433, 17.88818
495.7255, 15.85864
496.2076, 14.15259
496.6897, 13.41138
497.1718, 13.03345
497.6539, 12.57300
498.1360, 12.02588
498.6182, 11.34326
499.1003, 10.19409
499.5824, 9.116211
500.0645, 8.671631
500.5466, 9.205811
501.0287, 9.054932
501.5109, 6.735596
501.9930, 3.908203
502.4751, 2.244385
502.9572, 2.557617
503.4393, 3.311279
503.9214, 5.099609
504.4036, 7.226563
504.8857, 7.162842
505.3678, 3.651367
505.8499, 0.1286620
506.3320, 2.178223
506.8141, 3.253174
507.2963, 3.043945
507.7784, 1.277100
508.2605, 1.164795
508.7426, 3.892578
509.2247, 6.809082
509.7068, 8.410645
510.1890, 8.234863
510.6711, 6.928467
511.1532, 4.937500
511.6353, 2.508057
512.1174, 0.8894040
512.5995, 1.085449
513.0817, 2.217529
513.5638, 3.685547
514.0459, 5.395508
514.5280, 6.199463
515.0101, 4.887939
515.4922, 2.595947
515.9744, 0.2741700
516.4565, 2.281250
516.9386, 3.982910
517.4207, 4.143311
517.9028, 3.248779
518.3849, 2.117432
518.8671, 0.2480470
519.3492, 1.184082
519.8313, 1.959961
520.3134, 2.066895
520.7955, 1.601318
521.2776, 9.4727002E-02
521.7598, 1.458496
522.2419, 1.322998
522.7240, 0.8371580
523.2061, 1.435303
523.6882, 1.7090000E-03
524.1703, 2.129883
524.6525, 3.098877
525.1346, 2.974121
525.6167, 2.979492
526.0988, 3.440186
526.5809, 4.171875
527.0630, 4.839600
527.5452, 5.457275
528.0273, 6.217773
528.5094, 7.608398
528.9915, 8.987549
529.4736, 9.527100
529.9557, 9.146240
530.4379, 8.677734
530.9200, 9.345703
531.4021, 9.860107
531.8842, 8.879639
532.3663, 4.931641
532.8484, 1.221924
533.3306, 1.638672
533.8127, 3.658447
534.2948, 4.749512
534.7769, 4.062988
535.2590, 3.471191
535.7411, 3.454346
536.2233, 4.007080
536.7054, 4.277344
537.1875, 3.554932
537.6696, 4.026123
538.1517, 7.470947
538.6339, 14.08838
539.1160, 20.84644
539.5981, 27.47876
540.0802, 34.54028
540.5623, 42.69312
541.0444, 51.99878
541.5266, 62.71777
542.0087, 73.61377
542.4908, 87.43848
542.9729, 108.4919
543.4550, 135.8149
543.9371, 166.2952
544.4193, 194.8921
544.9014, 228.3909
545.3835, 274.4646
545.8656, 334.2622
546.3477, 395.0369
546.8298, 465.1521
547.3120, 527.1787
547.7941, 566.6931
548.2762, 587.4060
548.7583, 577.4026
549.2404, 521.0657
549.7225, 438.1809
550.2047, 360.3130
550.6868, 284.1873
551.1689, 219.3694
551.6510, 169.8328
552.1331, 134.0933
552.6152, 104.6636
553.0974, 81.91992
553.5795, 63.83057
554.0616, 50.05127
554.5437, 40.15503
555.0258, 31.63354
555.5079, 24.42212
555.9901, 18.31982
556.4722, 12.94922
556.9543, 8.492432
557.4364, 5.378662
557.9185, 4.086182
558.4006, 3.593994
558.8828, 2.852539
559.3649, 2.191650
559.8470, 2.462891
560.3291, 5.725342
560.8112, 8.326416
561.2933, 7.596191
561.7755, 3.378174
