##NAMES=Messelite
##RRUFFID=R140175
##IDEAL CHEMISTRY=Ca_2_Fe^2+^(PO_4_)_2_&#183;2H_2_O
##LOCALITY=Messel mine, Messel, Darmstadt, Hesse, Germany
##OWNER=RRUFF
##SOURCE=Rock Currier
##DESCRIPTION=Pale greenish white hemispherical or sheaflike aggregates of lamellar crystals, associated with anapaite (R141081). The cell parameters do not match messelite, but may be a related phase, perhaps a polytype. Needs more work.
##STATUS=The identification of this mineral is not yet confirmed.
##URL=rruff.info/R140175
##MEASURED CHEMISTRY=Ca_1.98_(Fe_0.88_Mg_0.09_)_Ʃ=0.97_(P_1.01_O_4_)_2_·2H_2_O trace amount of Mn
97.34533, 0.0000000E+00
97.82745, 3.075562
98.30956, 21.95801
98.79168, 48.27618
99.27380, 84.88281
99.75591, 141.1422
100.2380, 208.9240
100.7201, 268.0217
101.2023, 311.6161
101.6844, 333.2925
102.1665, 327.4293
102.6486, 276.1971
103.1307, 209.5529
103.6128, 151.7145
104.0950, 101.7715
104.5771, 62.91687
105.0592, 39.88770
105.5413, 27.83911
106.0234, 22.13507
106.5055, 21.58234
106.9877, 25.82031
107.4698, 33.25696
107.9519, 43.09460
108.4340, 57.69281
108.9161, 77.60834
109.3982, 102.7060
109.8804, 132.8690
110.3625, 171.4729
110.8446, 223.0008
111.3267, 255.1311
111.8088, 265.4034
112.2909, 260.7715
112.7731, 235.7217
113.2552, 194.7242
113.7373, 148.5005
114.2194, 110.2898
114.7015, 85.56262
115.1836, 66.12463
115.6658, 53.22156
116.1479, 46.12195
116.6300, 39.90289
117.1121, 32.81543
117.5942, 25.42731
118.0763, 19.27332
118.5584, 14.43341
119.0406, 10.64429
119.5227, 8.231750
120.0048, 6.881042
120.4869, 5.737000
120.9690, 4.468628
121.4511, 3.164917
121.9333, 1.975220
122.4154, 0.8659060
122.8975, 9.2896000E-02
123.3796, 0.7207640
123.8617, 0.9678960
124.3438, 1.368713
124.8260, 2.399170
125.3081, 3.648254
125.7902, 4.856750
126.2723, 6.080383
126.7544, 7.018127
127.2365, 6.792603
127.7187, 4.319641
128.2008, 2.507263
128.6829, 2.663086
129.1650, 3.798706
129.6471, 4.515747
130.1292, 3.788818
130.6114, 1.785767
131.0935, 1.027161
131.5756, 3.516479
132.0577, 5.375183
132.5398, 4.988220
133.0219, 3.047241
133.5041, 1.439453
133.9862, 1.953918
134.4683, 5.155273
134.9504, 6.687378
135.4325, 5.843140
135.9146, 4.270691
136.3968, 2.773499
136.8789, 1.481995
137.3610, 0.2045290
137.8431, 1.315735
138.3252, 3.188538
138.8073, 4.650879
139.2895, 4.992065
139.7716, 5.156982
140.2537, 6.520447
140.7358, 9.611816
141.2179, 12.97021
141.7000, 13.98022
142.1821, 12.81097
142.6643, 13.09454
143.1464, 16.87036
143.6285, 23.42834
144.1106, 29.98248
144.5927, 34.73212
145.0748, 40.96063
145.5570, 49.79401
146.0391, 61.33582
146.5212, 78.20831
147.0033, 101.5601
147.4854, 131.1255
147.9675, 170.4644
148.4497, 224.9255
148.9318, 287.6016
149.4139, 365.6421
149.8960, 457.9444
150.3781, 541.5328
150.8602, 580.3876
151.3424, 561.0115
151.8245, 522.1923
152.3066, 449.7205
152.7887, 373.6453
153.2708, 314.9303
153.7529, 282.0779
154.2351, 271.7032
154.7172, 276.2167
155.1993, 313.2443
155.6814, 345.5555
156.1635, 379.8729
156.6456, 406.1703
157.1278, 411.1592
157.6099, 387.7206
158.0920, 340.9230
158.5741, 290.9412
159.0562, 228.6394
159.5383, 173.5383
160.0205, 130.8821
160.5026, 99.14581
160.9847, 75.18549
161.4668, 58.30701
161.9489, 47.80518
162.4310, 39.03253
162.9131, 31.85144
163.3953, 26.30823
163.8774, 22.95380
164.3595, 21.62970
164.8416, 20.82605
165.3237, 19.31415
165.8058, 17.85583
166.2880, 18.02094
166.7701, 20.16211
167.2522, 23.85333
167.7343, 28.37317
168.2164, 33.45996
168.6985, 40.58667
169.1807, 50.04608
169.6628, 62.08356
170.1449, 78.35480
170.6270, 102.4724
171.1091, 129.4054
171.5912, 148.3252
172.0734, 160.2607
172.5555, 160.6971
173.0376, 144.9359
173.5197, 119.4927
174.0018, 92.82501
174.4839, 68.93146
174.9661, 48.06024
175.4482, 32.20795
175.9303, 24.56372
176.4124, 19.01422
176.8945, 14.14423
177.3766, 10.09100
177.8588, 7.447205
178.3409, 6.724182
178.8230, 7.929810
179.3051, 9.384033
179.7872, 10.71558
180.2693, 12.61731
180.7515, 15.17615
181.2336, 18.49255
181.7157, 22.60950
182.1978, 27.44794
182.6799, 32.85089
183.1620, 40.44952
183.6441, 50.38287
184.1263, 61.75964
184.6084, 75.62427
185.0905, 91.23792
185.5726, 105.9359
186.0547, 117.6149
186.5368, 125.8809
187.0190, 127.2290
187.5011, 118.8212
187.9832, 106.0557
188.4653, 91.21552
188.9474, 74.79773
189.4296, 59.32886
189.9117, 47.56091
190.3938, 39.75116
190.8759, 33.94708
191.3580, 30.12372
191.8401, 28.01398
192.3223, 27.59637
192.8044, 29.18506
193.2865, 31.72729
193.7686, 33.66675
194.2507, 35.47107
194.7328, 39.21497
195.2150, 45.48285
195.6971, 54.18396
196.1792, 65.04279
196.6613, 77.85925
197.1434, 93.18878
197.6255, 109.8849
198.1077, 128.8660
198.5898, 153.0343
199.0719, 183.8073
199.5540, 221.0278
200.0361, 264.4925
200.5182, 318.7382
201.0004, 373.1152
201.4825, 427.3115
201.9646, 477.8625
202.4467, 516.1108
202.9288, 537.6942
203.4109, 542.5220
203.8930, 527.1290
204.3752, 476.6579
204.8573, 419.5950
205.3394, 362.3171
205.8215, 307.2112
206.3036, 256.8430
206.7857, 213.4058
207.2679, 176.9291
207.7500, 146.8903
208.2321, 125.8300
208.7142, 109.3595
209.1963, 97.12866
209.6784, 88.67371
210.1606, 83.44250
210.6427, 81.14825
211.1248, 82.01190
211.6069, 84.04547
212.0890, 86.51013
212.5711, 90.64276
213.0533, 96.73163
213.5354, 104.9108
214.0175, 115.3078
214.4996, 127.9293
214.9817, 142.6422
215.4638, 161.4515
215.9460, 183.1531
216.4281, 208.9061
216.9102, 238.9615
217.3923, 273.4661
217.8744, 313.3662
218.3565, 359.6497
218.8387, 413.0864
219.3208, 468.7507
219.8029, 532.3683
220.2850, 593.6196
220.7671, 650.8863
221.2492, 702.1628
221.7314, 739.5137
222.2135, 756.2655
222.6956, 749.5412
223.1777, 727.6454
223.6598, 683.2678
224.1419, 629.4027
224.6240, 572.5496
225.1062, 513.6285
225.5883, 457.4325
226.0704, 407.0744
226.5525, 363.4135
227.0346, 326.2449
227.5167, 295.9357
227.9989, 272.0257
228.4810, 255.6273
228.9631, 246.9222
229.4452, 241.8718
229.9273, 239.1520
230.4094, 238.0098
230.8916, 236.3082
231.3737, 234.8005
231.8558, 231.9784
232.3379, 226.3402
232.8200, 217.8986
233.3021, 206.5529
233.7843, 189.8801
234.2664, 170.5281
234.7485, 152.3600
235.2306, 136.2745
235.7127, 121.8471
236.1948, 108.4485
236.6770, 95.99133
237.1591, 84.64594
237.6412, 74.52106
238.1233, 65.50568
238.6054, 57.60333
239.0875, 50.86414
239.5697, 45.16949
240.0518, 40.26013
240.5339, 35.91656
241.0160, 33.07349
241.4981, 33.13391
241.9802, 34.35590
242.4624, 34.95752
242.9445, 34.10065
243.4266, 33.11835
243.9087, 34.62091
244.3908, 39.70093
244.8729, 44.28259
245.3550, 47.50159
245.8372, 49.65912
246.3193, 51.03082
246.8014, 51.72711
247.2835, 51.42084
247.7656, 49.44397
248.2477, 45.38873
248.7299, 40.50812
249.2120, 34.22333
249.6941, 27.80328
250.1762, 22.27838
250.6583, 17.94513
251.1404, 14.30908
251.6226, 10.46857
252.1047, 6.156616
252.5868, 2.332581
253.0689, 1.191650
253.5510, 4.119873
254.0331, 6.056580
254.5153, 6.968811
254.9974, 7.417358
255.4795, 8.320496
255.9616, 10.14398
256.4437, 11.37183
256.9258, 12.25842
257.4080, 12.48181
257.8901, 11.55212
258.3722, 9.518127
258.8543, 7.118225
259.3364, 5.422729
259.8185, 5.037231
260.3007, 3.780029
260.7828, 1.590149
261.2649, 1.221741
261.7470, 4.614563
262.2291, 8.505981
262.7112, 12.59619
263.1934, 16.46204
263.6755, 19.66895
264.1576, 24.38892
264.6397, 32.30261
265.1218, 40.00757
265.6039, 45.79639
266.0861, 49.51978
266.5682, 51.87476
267.0503, 53.56812
267.5324, 54.73773
268.0145, 53.98578
268.4966, 50.59430
268.9788, 46.38147
269.4609, 41.97546
269.9430, 37.51154
270.4251, 32.94568
270.9072, 28.11511
271.3893, 23.00317
271.8715, 19.28558
272.3536, 17.53271
272.8357, 16.28357
273.3178, 14.55750
273.7999, 12.76556
274.2820, 12.19116
274.7642, 13.82764
275.2463, 17.48071
275.7284, 20.76862
276.2105, 23.44098
276.6926, 26.11859
277.1747, 28.66809
277.6568, 31.38165
278.1389, 34.80609
278.6211, 39.21393
279.1032, 44.58173
279.5853, 51.00964
280.0674, 57.75049
280.5495, 66.14496
281.0316, 76.46283
281.5138, 88.67212
281.9959, 102.7357
282.4780, 118.6181
282.9601, 136.3744
283.4422, 156.0148
283.9243, 177.5846
284.4065, 200.6239
284.8886, 226.8338
285.3707, 254.0134
285.8528, 279.5748
286.3349, 302.9427
286.8170, 323.0201
287.2992, 338.0604
287.7813, 348.6963
288.2634, 352.9706
288.7455, 349.2446
289.2276, 339.3953
289.7097, 324.9066
290.1919, 306.0136
290.6740, 284.4811
291.1561, 261.4823
291.6382, 236.7441
292.1203, 213.4784
292.6024, 191.4724
293.0846, 171.3749
293.5667, 153.9711
294.0488, 139.2754
294.5309, 126.6287
295.0130, 115.3456
295.4951, 105.6463
295.9773, 98.44104
296.4594, 95.21582
296.9415, 93.44818
297.4236, 91.27246
297.9057, 88.64819
298.3878, 86.26392
298.8700, 84.34796
299.3521, 83.17810
299.8342, 83.53595
300.3163, 87.68652
300.7984, 91.27655
301.2805, 91.63989
301.7627, 89.16870
302.2448, 85.79388
302.7269, 82.49835
303.2090, 78.91614
303.6911, 74.02252
304.1732, 67.14410
304.6554, 60.18182
305.1375, 53.49927
305.6196, 47.34406
306.1017, 42.49152
306.5838, 39.45117
307.0659, 37.47742
307.5481, 35.23206
308.0302, 32.69696
308.5123, 30.08411
308.9944, 27.18109
309.4765, 24.30518
309.9586, 22.11481
310.4408, 20.85138
310.9229, 19.92480
311.4050, 18.63794
311.8871, 17.02747
312.3692, 15.41174
312.8513, 13.30530
313.3335, 11.47687
313.8156, 11.06836
314.2977, 12.33441
314.7798, 13.95392
315.2619, 14.91730
315.7440, 15.25134
316.2262, 15.33368
316.7083, 15.18396
317.1904, 14.88989
317.6725, 14.36713
318.1546, 13.69482
318.6367, 13.16345
319.1188, 12.73798
319.6010, 12.54120
320.0831, 13.32916
320.5652, 15.33905
321.0473, 17.95020
321.5294, 21.33350
322.0115, 25.17322
322.4937, 28.26007
322.9758, 29.76825
323.4579, 30.41882
323.9400, 32.00085
324.4221, 34.44110
324.9042, 37.81720
325.3864, 42.47736
325.8685, 47.96777
326.3506, 53.54669
326.8327, 58.99597
327.3148, 64.60370
327.7969, 70.76147
328.2791, 77.39716
328.7612, 84.93719
329.2433, 93.74377
329.7254, 103.1544
330.2075, 112.4448
330.6896, 121.5650
331.1718, 131.0876
331.6539, 141.8096
332.1360, 153.7950
332.6181, 164.9609
333.1002, 175.2961
333.5823, 184.7506
334.0645, 193.5309
334.5466, 201.4922
335.0287, 208.2349
335.5108, 213.7631
335.9929, 217.5983
336.4750, 217.6041
336.9572, 212.6064
337.4393, 205.5908
337.9214, 196.9049
338.4035, 187.0781
338.8856, 177.4741
339.3677, 168.7916
339.8499, 160.5300
340.3320, 151.2469
340.8141, 139.9091
341.2962, 129.5803
341.7783, 120.9389
342.2604, 113.5760
342.7426, 106.9233
343.2247, 100.8423
343.7068, 95.81818
344.1889, 92.70605
344.6710, 92.42981
345.1531, 91.57397
345.6353, 88.58014
346.1174, 86.09003
346.5995, 86.46863
347.0816, 89.69733
347.5637, 93.97559
348.0458, 97.87976
348.5280, 101.4291
349.0101, 103.8033
349.4922, 103.3931
349.9743, 103.6270
350.4564, 106.4852
350.9385, 111.1533
351.4207, 115.8136
351.9028, 119.4923
352.3849, 122.1292
352.8670, 123.3973
353.3491, 123.6186
353.8312, 122.0990
354.3134, 117.8744
354.7955, 112.2110
355.2776, 106.5634
355.7597, 101.4359
356.2418, 96.28760
356.7239, 90.12970
357.2061, 82.43726
357.6882, 74.70471
358.1703, 66.09583
358.6524, 58.04541
359.1345, 51.86212
359.6166, 47.42273
360.0987, 43.49091
360.5808, 38.74042
361.0630, 32.95435
361.5451, 28.45691
362.0272, 25.91095
362.5093, 23.87140
362.9914, 22.08429
363.4735, 20.42834
363.9557, 18.80835
364.4378, 17.15094
364.9199, 15.51453
365.4020, 14.15558
365.8841, 13.30811
366.3662, 12.44312
366.8484, 11.82263
367.3305, 11.00665
367.8126, 9.234680
368.2947, 6.370361
368.7768, 3.471436
369.2589, 2.376770
369.7411, 4.030090
370.2232, 4.936890
370.7053, 4.818481
371.1874, 4.119141
371.6695, 2.564941
372.1516, 0.4867550
372.6338, 1.135742
373.1159, 1.328308
373.5980, 0.1368410
374.0801, 1.009216
374.5622, 2.499695
375.0443, 3.398926
375.5265, 3.295959
376.0086, 2.471497
376.4907, 1.273071
376.9728, 0.2416990
377.4549, 1.794434
377.9370, 2.736816
378.4192, 2.902222
378.9013, 2.918152
379.3834, 2.969299
379.8655, 2.931763
380.3476, 2.612183
380.8297, 1.978271
381.3119, 1.385193
381.7940, 1.317078
382.2761, 1.756531
382.7582, 1.831787
383.2403, 1.109375
383.7224, 0.3757930
384.2046, 9.1430999E-02
384.6867, 0.2201540
385.1688, 0.6214600
385.6509, 1.636719
386.1330, 2.797424
386.6151, 2.837097
387.0973, 1.415527
387.5794, 0.1085820
388.0615, 6.2866002E-02
388.5436, 0.6389160
389.0257, 0.9320070
389.5078, 0.6397090
389.9900, 0.2871090
390.4721, 0.3625490
390.9542, 0.8225100
391.4363, 1.327637
391.9184, 1.884399
392.4005, 2.286743
392.8827, 2.199768
393.3648, 1.594055
393.8469, 1.002136
394.3290, 0.8013310
394.8111, 0.6818850
395.2932, 7.2630001E-03
395.7754, 1.377747
396.2575, 2.682190
396.7396, 3.127441
397.2217, 2.785156
397.7038, 2.689941
398.1859, 2.919739
398.6681, 3.378845
399.1501, 4.090637
399.6323, 4.996460
400.1144, 5.980225
400.5965, 7.077026
401.0786, 8.060669
401.5607, 8.156799
402.0428, 6.589294
402.5250, 5.624329
403.0071, 5.991821
403.4892, 7.004639
403.9713, 7.898926
404.4534, 8.495117
404.9355, 9.068848
405.4177, 9.982727
405.8998, 11.37439
406.3819, 12.37006
406.8640, 12.72516
407.3461, 12.97266
407.8282, 13.30048
408.3104, 13.73816
408.7925, 14.26941
409.2746, 14.87927
409.7567, 15.59363
410.2388, 16.53693
410.7209, 18.12628
411.2031, 19.39825
411.6852, 19.90558
412.1673, 20.26685
412.6494, 21.16260
413.1315, 22.72870
413.6136, 24.46301
414.0958, 25.55450
414.5779, 25.62146
415.0600, 26.60907
415.5421, 29.30042
416.0242, 32.21375
416.5063, 34.66418
416.9885, 36.88177
417.4706, 39.47046
417.9527, 42.85138
418.4348, 46.87274
418.9169, 50.96796
419.3990, 54.73962
419.8812, 59.47278
420.3633, 66.27069
420.8454, 73.73499
421.3275, 80.48236
421.8096, 86.15405
422.2917, 91.68677
422.7739, 97.85510
423.2560, 104.6529
423.7381, 112.0551
424.2202, 119.3321
424.7023, 128.3278
425.1844, 140.3080
425.6666, 154.9473
426.1487, 171.3205
426.6308, 188.9772
427.1129, 208.2054
427.5950, 228.8606
428.0771, 250.9646
428.5593, 276.2541
429.0414, 306.1939
429.5235, 339.8325
430.0056, 374.4347
430.4877, 410.8909
430.9698, 446.2052
431.4520, 480.2412
431.9341, 511.7589
432.4162, 539.5082
432.8983, 563.4640
433.3804, 580.7283
433.8625, 587.6223
434.3447, 583.0530
434.8268, 571.5231
435.3089, 550.0690
435.7910, 524.2190
436.2731, 495.6519
436.7552, 465.6321
437.2374, 436.8763
437.7195, 410.9271
438.2016, 387.5757
438.6837, 366.5015
439.1658, 346.7590
439.6479, 330.5382
440.1301, 319.1409
440.6122, 310.7139
441.0943, 303.6992
441.5764, 297.7771
442.0585, 293.5803
442.5406, 292.1168
443.0227, 293.7961
443.5049, 295.0353
443.9870, 296.0290
444.4691, 296.4199
444.9512, 296.3966
445.4333, 295.7094
445.9154, 294.0458
446.3976, 291.3215
446.8797, 287.1856
447.3618, 280.6810
447.8439, 271.2711
448.3260, 261.0653
448.8081, 250.1261
449.2903, 238.6133
449.7724, 226.3523
450.2545, 213.4520
450.7366, 200.5389
451.2187, 187.9564
451.7008, 175.7333
452.1830, 164.2642
452.6651, 153.5080
453.1472, 143.7896
453.6293, 135.8865
454.1114, 128.9407
454.5935, 121.8337
455.0757, 114.2438
455.5578, 106.6918
456.0399, 99.37366
456.5220, 92.37665
457.0041, 85.92786
457.4862, 79.97003
457.9684, 74.84924
458.4505, 71.52283
458.9326, 69.98895
459.4147, 67.75006
459.8968, 63.71478
460.3789, 59.35846
460.8611, 55.71759
461.3432, 52.80396
461.8253, 50.47192
462.3074, 48.67535
462.7895, 47.40540
463.2716, 46.50714
463.7538, 47.05719
464.2359, 46.49933
464.7180, 43.46228
465.2001, 39.65936
465.6822, 36.81671
466.1643, 35.31647
466.6465, 34.63483
467.1286, 34.27533
467.6107, 34.29437
468.0928, 33.85284
468.5749, 32.64313
469.0570, 31.27698
469.5392, 29.55621
470.0213, 27.88062
470.5034, 26.90442
470.9855, 26.93481
471.4676, 27.45624
471.9497, 27.63489
472.4319, 27.48456
472.9140, 26.96649
473.3961, 25.78217
473.8782, 24.44574
474.3603, 23.25562
474.8424, 22.18744
475.3246, 21.01239
475.8067, 19.38123
476.2888, 17.62982
476.7709, 16.60577
477.2530, 16.45563
477.7351, 16.24872
478.2173, 15.34766
478.6994, 14.26703
479.1815, 13.89691
479.6636, 14.55035
480.1457, 14.90979
480.6278, 13.98572
481.1100, 12.40479
481.5920, 11.13824
482.0742, 10.33527
482.5563, 10.26636
483.0384, 11.43500
483.5205, 13.79913
484.0026, 15.25342
484.4847, 15.70203
484.9669, 15.40985
485.4490, 13.83661
485.9311, 11.72485
486.4132, 10.47559
486.8953, 10.59711
487.3774, 11.22345
487.8596, 10.86914
488.3417, 8.864380
488.8238, 7.715332
489.3059, 8.145569
489.7880, 8.596863
490.2701, 8.289246
490.7523, 7.393250
491.2344, 6.429321
491.7165, 5.703857
492.1986, 5.152100
492.6807, 4.455139
493.1628, 3.216980
493.6450, 2.947693
494.1271, 5.362793
494.6092, 7.849976
495.0913, 8.498230
495.5734, 7.308655
496.0555, 5.820618
496.5377, 4.805847
497.0198, 4.326782
497.5019, 4.844482
497.9840, 6.658020
498.4661, 8.087097
498.9482, 8.110046
499.4304, 7.163391
499.9125, 6.066528
500.3946, 4.695862
500.8767, 3.692749
501.3588, 3.546021
501.8409, 4.005249
502.3231, 4.648621
502.8052, 5.397644
503.2873, 5.900757
503.7694, 5.788147
504.2515, 5.028564
504.7336, 4.288757
505.2158, 3.128662
505.6979, 2.476074
506.1800, 3.198120
506.6621, 4.489075
507.1442, 5.031738
507.6263, 4.375977
508.1085, 3.213806
508.5906, 2.632751
509.0727, 2.861511
509.5548, 2.826965
510.0369, 1.859314
510.5190, 1.260315
511.0012, 2.069702
511.4833, 3.553528
511.9654, 4.166748
512.4475, 2.961426
512.9296, 1.114807
513.4117, 0.9532470
513.8939, 2.755249
514.3760, 4.089417
514.8581, 4.295044
515.3402, 3.980530
515.8223, 3.740784
516.3044, 3.519592
516.7866, 2.902893
517.2687, 1.230469
517.7508, 0.6563110
518.2329, 1.571045
518.7150, 1.564758
519.1971, 1.562927
519.6793, 2.033447
520.1614, 2.733765
520.6435, 3.131409
521.1256, 3.303894
521.6077, 3.072266
522.0898, 1.946350
522.5720, 0.7248540
523.0541, 0.1675420
523.5362, 0.2504270
524.0183, 0.4705810
524.5004, 0.4817500
524.9825, 0.3083500
525.4647, 7.3363997E-02
525.9468, 0.3771970
526.4289, 0.6658940
526.9110, 0.7121580
527.3931, 0.6304320
527.8752, 0.5105590
528.3574, 0.3664550
528.8395, 0.1600340
529.3216, 0.1810910
529.8037, 0.6180420
530.2858, 0.9246830
530.7679, 1.078857
531.2501, 1.148865
531.7322, 1.197998
532.2143, 1.159912
532.6964, 0.9340820
533.1785, 0.4843750
533.6606, 3.7229999E-03
534.1428, 0.5364990
534.6249, 0.9968260
535.1070, 1.005432
535.5891, 0.4705810
536.0712, 4.7058001E-02
536.5533, 0.1994630
537.0355, 0.9003910
537.5176, 1.851929
537.9997, 3.547791
538.4818, 4.872498
538.9639, 5.408813
539.4460, 5.452454
539.9282, 5.056580
540.4103, 4.378723
540.8924, 4.210205
541.3745, 5.451538
541.8566, 8.143494
542.3387, 10.82837
542.8209, 12.95697
543.3029, 15.75507
543.7850, 18.63641
544.2672, 22.70325
544.7493, 29.44562
545.2314, 39.17529
545.7135, 50.31067
546.1956, 62.29089
546.6777, 74.78534
547.1599, 83.46167
547.6420, 88.29376
548.1241, 88.88586
548.6062, 83.14630
549.0883, 73.33459
549.5704, 62.24591
550.0526, 49.21198
550.5347, 37.45343
551.0168, 29.22882
551.4989, 23.65332
551.9810, 18.99030
552.4631, 14.88562
552.9453, 11.42255
553.4274, 8.748352
553.9095, 6.859497
554.3916, 5.130310
554.8737, 3.207520
555.3558, 1.831909
555.8380, 1.724060
556.3201, 2.029968
556.8022, 1.426697
557.2843, 0.2907100
557.7664, 1.779114
558.2485, 1.268738
558.7307, 1.341431
559.2128, 3.017639
559.6949, 3.324951
560.1770, 3.253540
560.6591, 3.073547
561.1412, 2.786560
561.6234, 2.374512
562.1055, 1.829773
