##NAMES=Metacinnabar
##RRUFFID=R060950
##IDEAL CHEMISTRY=HgS
##LOCALITY=Ryan mine, Contra Costa County, California, USA
##OWNER=RRUFF
##SOURCE=Bob Jenkins
##DESCRIPTION=Dark orange brown submetallic crystals
##STATUS=The identification of this mineral is confirmed by single-crystal X-ray diffraction and chemical analysis.
##URL=rruff.info/R060950
##MEASURED CHEMISTRY=Hg_0.95_Fe_0.03_S
207.8269, 0.0000000E+00
208.3090, 40.66797
208.7911, 69.56641
209.2732, 56.33203
209.7554, 47.74609
210.2375, 181.1016
210.7196, 231.3555
211.2017, 184.9570
211.6838, 82.48047
212.1659, 4.320313
212.6480, 38.27344
213.1302, 27.23438
213.6123, 13.13672
214.0944, 16.98047
214.5765, 3.683594
215.0586, 81.46484
215.5407, 203.2031
216.0229, 331.6914
216.5050, 454.0742
216.9871, 564.5586
217.4692, 643.2500
217.9513, 662.1836
218.4334, 694.7070
218.9156, 775.6406
219.3977, 892.6289
219.8798, 1017.145
220.3619, 1139.578
220.8440, 1258.867
221.3261, 1371.305
221.8083, 1464.398
222.2904, 1574.234
222.7725, 1723.668
223.2546, 1896.699
223.7367, 2057.766
224.2188, 2191.910
224.7010, 2320.184
225.1831, 2490.211
225.6652, 2719.664
226.1473, 2934.574
226.6294, 3109.504
227.1115, 3263.031
227.5937, 3412.621
228.0758, 3559.902
228.5579, 3725.508
229.0400, 3943.953
229.5221, 4225.848
230.0042, 4522.922
230.4864, 4829.391
230.9685, 5148.008
231.4506, 5480.316
231.9327, 5825.926
232.4148, 6188.719
232.8969, 6570.133
233.3791, 6970.996
233.8612, 7398.379
234.3433, 7849.980
234.8254, 8329.910
235.3075, 8841.793
235.7896, 9387.137
236.2717, 9962.801
236.7539, 10573.62
237.2360, 11221.55
237.7181, 11874.43
238.2002, 12512.50
238.6823, 13165.90
239.1644, 13856.19
239.6466, 14582.86
240.1287, 15316.98
240.6108, 16039.40
241.0929, 16746.75
241.5750, 17476.44
242.0571, 18283.00
242.5393, 19055.85
243.0214, 19746.39
243.5035, 20358.38
243.9856, 20911.50
244.4677, 21417.43
244.9498, 21877.01
245.4320, 22288.50
245.9141, 22673.25
246.3962, 22998.84
246.8783, 23268.26
247.3604, 23471.19
247.8425, 23594.19
248.3247, 23633.80
248.8068, 23581.23
249.2889, 23400.45
249.7710, 23064.66
250.2531, 22627.89
250.7352, 22064.37
251.2174, 21409.30
251.6995, 20705.99
252.1816, 19972.25
252.6637, 19195.90
253.1458, 18361.10
253.6279, 17383.29
254.1101, 16437.88
254.5922, 15529.33
255.0743, 14653.89
255.5564, 13811.25
256.0385, 13001.38
256.5206, 12212.34
257.0027, 11427.20
257.4849, 10611.13
257.9670, 9891.672
258.4491, 9296.953
258.9312, 8759.523
259.4133, 8244.055
259.8954, 7743.805
260.3776, 7270.562
260.8597, 6834.293
261.3418, 6440.867
261.8239, 6066.355
262.3060, 5694.043
262.7881, 5358.102
263.2703, 5091.363
263.7524, 4877.090
264.2345, 4669.566
264.7166, 4430.316
265.1987, 4162.930
265.6808, 3921.238
266.1630, 3731.988
266.6451, 3559.676
267.1272, 3392.012
267.6093, 3235.617
268.0914, 3102.688
268.5735, 3002.152
269.0557, 2925.648
269.5378, 2842.973
270.0199, 2742.781
270.5020, 2652.598
270.9841, 2582.512
271.4662, 2524.617
271.9484, 2469.359
272.4305, 2413.250
272.9126, 2360.629
273.3947, 2317.211
273.8768, 2281.168
274.3589, 2260.469
274.8411, 2271.488
275.3232, 2288.672
275.8053, 2288.227
276.2874, 2266.430
276.7695, 2253.754
277.2516, 2295.598
277.7338, 2394.805
278.2159, 2456.230
278.6980, 2448.613
279.1801, 2413.680
279.6622, 2374.395
280.1443, 2332.555
280.6265, 2292.918
281.1086, 2262.324
281.5907, 2237.164
282.0728, 2201.820
282.5549, 2151.090
283.0370, 2097.930
283.5192, 2057.219
284.0013, 2022.387
284.4834, 1974.902
284.9655, 1905.410
285.4476, 1820.570
285.9297, 1729.992
286.4119, 1633.918
286.8940, 1532.133
287.3761, 1426.570
287.8582, 1314.547
288.3403, 1186.398
288.8224, 1013.301
289.3046, 857.4961
289.7867, 796.0391
290.2688, 812.9922
290.7509, 790.7539
291.2330, 660.0820
291.7151, 477.4453
292.1972, 366.6445
292.6794, 357.7031
293.1615, 341.2812
293.6436, 252.1484
294.1257, 127.0664
294.6078, 39.39062
295.0899, 12.59375
295.5721, 19.22266
296.0542, 25.30469
296.5363, 35.85938
297.0184, 22.35156
297.5005, 51.75781
297.9826, 133.8047
298.4648, 174.0977
298.9469, 166.3008
299.4290, 132.0625
299.9111, 90.12500
300.3932, 40.51172
300.8753, 16.80078
301.3575, 87.04297
301.8396, 158.7070
302.3217, 226.2812
302.8038, 290.0273
303.2859, 355.4961
303.7680, 429.3789
304.2502, 505.7578
304.7323, 541.5898
305.2144, 493.8633
305.6965, 458.7695
306.1786, 451.2461
306.6607, 461.8438
307.1429, 486.4141
307.6250, 522.7812
308.1071, 557.8594
308.5892, 560.6250
309.0713, 501.2461
309.5534, 466.4219
310.0356, 480.5195
310.5177, 502.8242
310.9998, 501.9023
311.4819, 469.6445
311.9640, 424.0391
312.4461, 376.8516
312.9283, 325.0234
313.4104, 299.7656
313.8925, 338.6250
314.3746, 372.0820
314.8567, 370.2969
315.3388, 341.5312
315.8210, 310.8984
316.3031, 296.7383
316.7852, 293.2695
317.2673, 271.0391
317.7494, 204.9570
318.2315, 172.7500
318.7137, 231.9102
319.1958, 331.5391
319.6779, 406.3164
320.1600, 425.8398
320.6421, 435.4609
321.1242, 492.0898
321.6064, 596.9727
322.0885, 715.5195
322.5706, 841.3594
323.0527, 972.8828
323.5348, 1102.641
324.0169, 1228.070
324.4991, 1371.027
324.9812, 1563.770
325.4633, 1781.918
325.9454, 1957.223
326.4275, 2064.605
326.9096, 2163.551
327.3918, 2318.723
327.8739, 2524.543
328.3560, 2743.719
328.8381, 2982.477
329.3202, 3220.270
329.8023, 3442.246
330.2845, 3646.660
330.7666, 3828.977
331.2487, 3974.719
331.7308, 4096.555
332.2129, 4285.070
332.6950, 4608.973
333.1772, 4911.703
333.6593, 5136.047
334.1414, 5306.070
334.6235, 5468.059
335.1056, 5642.223
335.5877, 5814.062
336.0698, 5953.613
336.5519, 6049.102
337.0341, 6128.402
337.5162, 6207.250
337.9983, 6260.223
338.4804, 6263.715
338.9625, 6217.285
339.4446, 6140.629
339.9268, 6054.066
340.4089, 5958.812
340.8910, 5840.797
341.3731, 5699.395
341.8552, 5533.973
342.3373, 5330.828
342.8195, 5103.461
343.3016, 4880.668
343.7837, 4682.078
344.2658, 4490.328
344.7479, 4239.672
345.2300, 3874.723
345.7122, 3578.555
346.1943, 3448.066
346.6764, 3376.840
347.1585, 3271.223
347.6406, 3107.320
348.1227, 2945.926
348.6049, 2869.695
349.0870, 2872.492
349.5691, 2814.484
350.0512, 2635.496
350.5333, 2435.926
351.0154, 2309.828
351.4976, 2244.566
351.9797, 2163.355
352.4618, 2009.812
352.9439, 1832.805
353.4260, 1716.906
353.9081, 1670.066
354.3903, 1626.199
354.8724, 1548.473
355.3545, 1435.949
355.8366, 1302.301
356.3187, 1128.453
356.8008, 957.0625
357.2830, 796.9922
357.7651, 655.9766
358.2472, 558.8203
358.7293, 520.8594
359.2114, 505.0664
359.6935, 440.0508
360.1757, 278.4023
360.6578, 164.2461
361.1399, 143.2188
361.6220, 143.7617
362.1041, 103.2188
362.5862, 20.48438
363.0684, 61.24609
363.5505, 100.9492
364.0326, 97.03125
364.5147, 93.65234
364.9968, 87.29297
365.4789, 85.56641
365.9611, 91.87109
366.4432, 103.9609
366.9253, 124.4453
367.4074, 156.5586
367.8895, 182.1172
368.3716, 152.4648
368.8538, 36.45312
369.3359, 45.85938
369.8180, 26.96484
370.3001, 0.4218750
370.7822, 37.36328
371.2643, 139.9023
371.7465, 239.3633
372.2286, 268.9414
372.7107, 244.1875
373.1928, 249.1250
373.6749, 304.8633
374.1570, 357.0430
374.6392, 361.0938
375.1213, 333.1836
375.6034, 305.9141
376.0855, 286.0859
376.5676, 272.6484
377.0497, 261.6602
377.5319, 254.3008
378.0140, 266.2500
378.4961, 317.6758
378.9782, 377.2656
379.4603, 366.3672
379.9424, 260.3867
380.4246, 163.9727
380.9066, 99.53906
381.3888, 57.37500
381.8709, 30.55859
382.3530, 16.67188
382.8351, 9.191406
383.3172, 4.230469
383.7993, 4.097656
384.2815, 17.32422
384.7636, 91.80469
385.2457, 149.6055
385.7278, 160.5547
386.2099, 139.3398
386.6920, 110.8359
387.1742, 87.05859
387.6563, 65.96484
388.1384, 41.12500
388.6205, 4.687500
389.1026, 16.23438
389.5847, 4.339844
390.0669, 23.71875
390.5490, 10.19141
391.0311, 36.01953
391.5132, 87.32422
391.9953, 115.5938
392.4774, 126.7227
392.9596, 160.3398
393.4417, 227.1484
393.9238, 294.4102
394.4059, 353.3203
394.8880, 398.4023
395.3701, 413.1797
395.8523, 368.4570
396.3344, 328.4336
396.8165, 366.0352
397.2986, 463.5000
397.7807, 534.8906
398.2628, 549.7227
398.7450, 525.9023
399.2271, 485.7578
399.7092, 424.2031
400.1913, 372.5547
400.6734, 342.5898
401.1555, 319.5938
401.6377, 289.3008
402.1198, 252.3398
402.6019, 219.0938
403.0840, 198.5820
403.5661, 189.7852
404.0482, 179.2539
404.5304, 177.8633
405.0125, 162.9219
405.4946, 117.8555
405.9767, 64.21484
406.4588, 27.49609
406.9409, 15.50781
407.4231, 15.12500
407.9052, 5.507813
408.3873, 18.02344
408.8694, 23.32422
409.3515, 7.871094
409.8336, 41.42188
410.3158, 60.72656
410.7979, 68.93359
411.2800, 75.86719
411.7621, 81.98828
412.2442, 92.54297
412.7263, 113.6992
413.2085, 143.9570
413.6906, 198.4336
414.1727, 301.8906
414.6548, 419.4453
415.1369, 497.6133
415.6190, 531.6641
416.1012, 542.3750
416.5833, 523.7266
417.0654, 492.2266
417.5475, 468.8320
418.0296, 457.2305
418.5117, 463.6406
418.9939, 501.0234
419.4760, 571.1797
419.9581, 597.5039
420.4402, 539.9688
420.9223, 488.4258
421.4044, 492.8672
421.8866, 525.4531
422.3687, 526.1875
422.8508, 466.3008
423.3329, 387.9297
423.8150, 365.7500
424.2971, 432.7031
424.7793, 463.1719
425.2614, 428.4180
425.7435, 377.4414
426.2256, 326.9688
426.7077, 286.5625
427.1898, 259.6406
427.6719, 248.6523
428.1541, 251.2695
428.6362, 273.6797
429.1183, 323.8359
429.6004, 349.3867
430.0825, 316.5234
430.5646, 254.0469
431.0468, 195.0625
431.5289, 137.0859
432.0110, 101.8164
432.4931, 116.7773
432.9752, 156.6484
433.4573, 176.8750
433.9395, 170.2344
434.4216, 160.4492
434.9037, 171.0195
435.3858, 201.5898
435.8679, 207.5078
436.3500, 135.0273
436.8322, 101.1914
437.3143, 190.3164
437.7964, 329.8633
438.2785, 402.2227
438.7606, 365.7812
439.2427, 289.2188
439.7249, 289.1328
440.2070, 404.7656
440.6891, 475.9219
441.1712, 470.0820
441.6533, 448.8555
442.1354, 428.2461
442.6176, 407.9805
443.0997, 390.9141
443.5818, 385.1328
444.0639, 381.7578
444.5460, 352.8281
445.0281, 292.8828
445.5103, 255.8398
445.9924, 266.3320
446.4745, 305.7188
446.9566, 352.1328
447.4387, 407.5195
447.9208, 436.1562
448.4030, 413.6250
448.8851, 367.7227
449.3672, 320.9609
449.8493, 277.6094
450.3314, 259.9453
450.8135, 292.8398
451.2957, 362.8789
451.7778, 377.6562
452.2599, 282.0195
452.7420, 205.7852
453.2241, 184.4258
453.7062, 182.8086
454.1884, 157.6367
454.6705, 103.6719
455.1526, 58.23438
455.6347, 69.98438
456.1168, 141.6992
456.5989, 180.3359
457.0811, 145.6367
457.5632, 132.7070
458.0453, 207.1641
458.5274, 313.5156
459.0095, 365.9531
459.4916, 326.6875
459.9738, 262.1367
460.4559, 239.4258
460.9380, 250.9961
461.4201, 254.4688
461.9022, 235.1719
462.3843, 220.7852
462.8665, 252.7266
463.3486, 328.7656
463.8307, 367.0742
464.3128, 329.2109
464.7949, 282.9219
465.2770, 270.1992
465.7592, 281.7031
466.2413, 292.1328
466.7234, 291.8477
467.2055, 287.3477
467.6876, 284.7578
468.1697, 270.9219
468.6519, 285.4922
469.1340, 368.2461
469.6161, 439.2617
470.0982, 453.0430
470.5803, 419.0234
471.0624, 371.0000
471.5445, 323.1719
472.0266, 280.9844
472.5088, 264.4141
472.9909, 279.7773
473.4730, 276.5703
473.9551, 222.8711
474.4372, 157.0078
474.9193, 121.2773
475.4015, 116.6406
475.8836, 126.8633
476.3657, 166.3047
476.8478, 205.9609
477.3299, 213.7969
477.8120, 188.9766
478.2942, 136.2969
478.7763, 48.37500
479.2584, 51.69922
479.7405, 79.64844
480.2226, 65.46484
480.7047, 152.8594
481.1869, 131.9531
481.6690, 80.24219
482.1511, 56.93359
482.6332, 67.69141
483.1153, 85.31641
483.5974, 84.01953
484.0796, 70.26953
484.5617, 82.30859
485.0438, 127.6445
485.5259, 180.7500
486.0080, 240.2969
486.4901, 298.2539
486.9723, 342.9258
487.4544, 370.4688
487.9365, 402.8008
488.4186, 472.1094
488.9007, 548.3438
489.3828, 570.0586
489.8650, 530.5156
490.3471, 477.7500
490.8292, 443.3789
491.3113, 424.3633
491.7934, 402.8633
492.2755, 357.7227
492.7577, 337.0938
493.2398, 378.8906
493.7219, 432.4727
494.2040, 436.9570
494.6861, 387.9805
495.1682, 337.4375
495.6504, 339.6602
496.1325, 389.6328
496.6146, 397.4805
497.0967, 346.9961
497.5788, 281.9141
498.0609, 192.1016
498.5431, 108.8477
499.0252, 75.52734
499.5073, 105.9922
499.9894, 144.5859
500.4715, 150.4922
500.9536, 135.8867
501.4358, 132.4648
501.9179, 145.6992
502.4000, 145.0273
502.8821, 99.56250
503.3642, 18.88672
503.8463, 24.78516
504.3285, 4.855469
504.8106, 13.85156
505.2927, 7.269531
505.7748, 2.042969
506.2569, 11.57422
506.7390, 52.26562
507.2212, 107.5859
507.7033, 173.9883
508.1854, 248.5273
508.6675, 268.3828
509.1496, 191.2305
509.6317, 133.7383
510.1139, 154.0508
510.5960, 205.3164
511.0781, 234.4062
511.5602, 228.3047
512.0423, 227.7422
512.5244, 269.8750
513.0065, 334.0078
513.4886, 381.5977
513.9708, 408.6055
514.4529, 414.9180
514.9350, 393.6055
515.4171, 353.6055
515.8992, 344.1758
516.3813, 402.6289
516.8635, 432.9492
517.3456, 401.4102
517.8277, 350.6562
518.3098, 313.9805
518.7919, 295.7695
519.2740, 288.3711
519.7562, 286.2500
520.2383, 290.8633
520.7204, 313.4844
521.2025, 369.8125
521.6846, 402.6445
522.1667, 374.4961
522.6489, 324.3789
523.1310, 283.6484
523.6131, 255.3320
524.0952, 238.6250
524.5773, 230.5156
525.0594, 234.8125
525.5416, 271.1094
526.0237, 334.7070
526.5058, 370.5000
526.9879, 340.0820
527.4700, 266.0430
527.9521, 220.8047
528.4343, 242.3164
528.9164, 242.1797
529.3985, 193.1406
529.8806, 145.0000
530.3627, 144.9453
530.8448, 181.6680
531.3270, 202.0703
531.8091, 163.0664
532.2912, 95.05469
532.7733, 73.82812
533.2554, 104.2383
533.7375, 152.4336
534.2197, 227.4727
534.7018, 305.1016
535.1839, 352.6094
535.6660, 367.5664
536.1481, 374.1797
536.6302, 367.9258
537.1124, 361.1953
537.5945, 379.8047
538.0766, 416.0859
538.5587, 421.8086
539.0408, 378.6836
539.5229, 312.1953
540.0051, 258.6562
540.4872, 220.9375
540.9693, 201.2461
541.4514, 227.4648
541.9335, 243.5469
542.4156, 206.5039
542.8978, 148.5938
543.3799, 134.2188
543.8620, 197.8633
544.3441, 281.4258
544.8262, 322.6406
545.3083, 325.7773
545.7905, 308.2109
546.2726, 268.4805
546.7547, 227.6719
547.2368, 207.3398
547.7189, 205.3867
548.2010, 186.1836
548.6832, 124.3555
549.1653, 75.97266
549.6474, 58.92188
550.1295, 64.44141
550.6116, 87.54688
551.0938, 123.6367
551.5759, 158.0352
552.0580, 172.3398
552.5401, 169.5273
553.0222, 188.8320
553.5043, 244.8320
553.9865, 292.0781
554.4686, 314.8477
554.9507, 319.9141
555.4328, 306.4883
555.9149, 272.5078
556.3970, 246.8477
556.8792, 260.2188
557.3613, 280.4219
557.8434, 254.0859
558.3255, 188.1562
558.8076, 140.3555
559.2897, 141.6055
559.7719, 183.2031
560.2540, 247.5195
560.7361, 374.5195
561.2182, 447.7969
561.7003, 439.5117
562.1824, 410.2656
562.6646, 391.5938
563.1467, 377.0977
563.6288, 340.1250
564.1109, 257.4219
564.5930, 173.2344
565.0751, 160.3633
565.5573, 209.9141
566.0394, 233.8047
566.5215, 204.6172
567.0036, 173.9453
567.4857, 202.4570
567.9678, 287.1680
568.4500, 313.3281
568.9321, 230.7305
569.4142, 149.7461
569.8963, 103.9297
570.3784, 83.71094
570.8605, 87.33984
571.3427, 108.6445
571.8248, 119.1406
572.3069, 83.64062
572.7890, 9.968750
573.2711, 31.65625
573.7532, 27.00391
574.2354, 26.66016
574.7175, 63.44531
575.1996, 104.2969
575.6817, 107.5273
576.1638, 67.67578
576.6459, 32.65625
577.1281, 28.51562
577.6102, 32.35938
578.0923, 27.38672
578.5744, 10.52734
579.0565, 31.19531
579.5386, 106.9414
580.0208, 185.5352
580.5029, 197.1797
580.9850, 96.23828
581.4671, 55.47656
581.9492, 143.2266
582.4313, 224.5625
582.9134, 249.8125
583.3955, 233.5352
583.8776, 200.3281
584.3597, 149.9727
584.8419, 113.3242
585.3240, 125.2617
585.8061, 171.1172
586.2882, 223.3398
586.7703, 278.6133
587.2524, 297.8945
587.7346, 242.2109
588.2167, 127.4570
588.6988, 54.40625
589.1809, 50.27344
589.6630, 53.08594
590.1451, 83.50000
590.6273, 100.7500
591.1094, 51.08984
591.5915, 46.35156
592.0736, 109.2852
592.5557, 74.44922
593.0378, 10.59375
593.5200, 59.26562
594.0021, 72.08594
594.4842, 88.67969
594.9663, 128.0156
595.4484, 153.7031
595.9305, 109.7930
596.4127, 7.664063
596.8948, 59.38672
597.3769, 8.636719
597.8590, 83.22656
598.3411, 131.4922
598.8232, 157.2227
599.3054, 161.8125
599.7875, 148.8984
600.2696, 134.7578
600.7517, 135.4062
601.2338, 149.2188
601.7159, 167.4375
602.1981, 193.3711
602.6802, 211.9961
603.1623, 210.6289
603.6444, 205.2109
604.1265, 218.6172
604.6086, 252.6523
605.0908, 284.9102
605.5729, 315.8477
606.0550, 337.7617
606.5371, 329.9961
607.0192, 309.9609
607.5013, 321.9766
607.9835, 382.7773
608.4656, 457.4961
608.9477, 493.7148
609.4298, 486.6914
609.9119, 486.9414
610.3940, 508.3125
610.8762, 508.9609
611.3583, 446.8750
611.8404, 361.9805
612.3225, 307.7891
612.8046, 291.5898
613.2867, 283.0977
613.7689, 270.1367
614.2510, 258.8867
614.7331, 260.9219
615.2152, 272.7227
615.6973, 277.7695
616.1794, 267.1016
616.6616, 246.8750
617.1437, 226.0938
617.6258, 197.4883
618.1079, 195.0391
618.5900, 229.1367
619.0721, 280.0430
619.5543, 366.3594
620.0364, 455.0898
620.5185, 480.9922
621.0006, 407.8047
621.4827, 334.3398
621.9648, 333.7812
622.4470, 368.0820
622.9291, 372.6211
623.4112, 345.3828
623.8933, 334.6328
624.3754, 374.3906
624.8575, 446.6172
625.3397, 497.9727
625.8218, 528.7305
626.3039, 538.4922
626.7860, 520.4414
627.2681, 487.7422
627.7502, 435.6211
628.2324, 374.8516
628.7145, 324.9414
629.1966, 286.4297
629.6787, 275.7188
630.1608, 338.4336
630.6429, 429.0469
631.1251, 445.3164
631.6072, 379.5000
632.0893, 309.7383
632.5714, 292.7891
633.0535, 315.9062
633.5356, 327.9297
634.0178, 326.6094
634.4999, 324.5977
634.9820, 309.7969
635.4641, 302.1523
635.9462, 314.4375
636.4283, 344.6953
636.9105, 384.5117
637.3926, 430.8594
637.8747, 480.3789
638.3568, 558.4805
638.8389, 633.2930
639.3210, 606.4375
639.8032, 466.1055
640.2853, 339.9492
640.7674, 339.5938
641.2495, 434.4883
641.7316, 449.2734
642.2137, 317.9219
642.6959, 225.1992
643.1780, 208.4727
643.6601, 216.0078
644.1422, 226.2031
644.6243, 234.4844
645.1064, 234.2773
645.5886, 217.6250
646.0707, 201.5820
646.5528, 214.7070
647.0349, 238.6523
647.5170, 219.5117
647.9991, 150.0703
648.4813, 92.10547
648.9634, 100.9258
649.4455, 155.7227
649.9276, 157.5000
650.4097, 65.23047
650.8918, 17.24219
651.3740, 40.70703
651.8561, 90.91797
652.3382, 155.5156
652.8203, 225.1016
653.3024, 277.3164
653.7845, 298.0977
654.2667, 306.3438
654.7488, 323.5273
655.2309, 344.8438
655.7130, 333.4609
656.1951, 286.8750
656.6772, 253.7852
657.1594, 279.1328
657.6415, 347.5391
658.1236, 391.5000
658.6057, 407.8438
659.0878, 406.9883
659.5699, 390.7969
660.0521, 356.3789
660.5342, 284.2227
661.0163, 192.2305
661.4984, 131.8242
661.9805, 133.0703
662.4626, 145.7461
662.9448, 136.5312
663.4269, 118.3359
663.9090, 112.3086
664.3911, 120.2305
664.8732, 130.3906
665.3553, 136.4570
665.8375, 134.6133
666.3196, 100.4609
666.8017, 11.71094
667.2838, 23.84766
667.7659, 58.75781
668.2480, 133.9375
668.7302, 98.29297
669.2123, 3.171875
669.6944, 56.51562
670.1765, 26.63281
670.6586, 24.90234
671.1407, 89.88672
671.6229, 149.2539
672.1050, 180.0742
672.5870, 182.8047
673.0692, 166.9453
673.5513, 135.6016
674.0334, 102.5000
674.5155, 99.44922
674.9976, 129.4609
675.4797, 162.7031
675.9619, 206.7305
676.4440, 232.9766
676.9261, 209.2852
677.4082, 156.1562
677.8903, 126.8164
678.3724, 125.6875
678.8546, 141.1562
679.3367, 206.0742
679.8188, 256.9023
680.3009, 217.5195
680.7830, 123.6680
681.2651, 76.10156
681.7473, 124.0430
682.2294, 193.4922
682.7115, 166.2344
683.1936, 60.19141
683.6757, 21.92188
684.1578, 73.32422
684.6400, 118.9219
685.1221, 103.6953
685.6042, 55.08984
686.0863, 32.28125
686.5684, 40.48828
687.0505, 62.99609
687.5327, 131.0898
688.0148, 179.0859
688.4969, 159.9258
688.9790, 107.7773
689.4611, 77.99219
689.9432, 86.23047
690.4254, 98.01562
690.9075, 70.44922
691.3896, 29.57812
691.8717, 39.63281
692.3538, 97.22656
692.8359, 141.3828
693.3181, 144.9531
693.8002, 135.3320
694.2823, 152.3477
694.7644, 199.6523
695.2465, 246.0234
695.7286, 332.3203
696.2108, 361.9258
696.6929, 244.5859
697.1750, 105.8242
697.6571, 76.88672
698.1392, 165.0273
698.6213, 267.8281
699.1035, 373.4375
699.5856, 439.5078
700.0677, 391.3477
700.5498, 278.6016
701.0319, 221.8711
701.5140, 247.9062
701.9962, 284.4336
702.4783, 260.9961
702.9604, 189.3438
703.4425, 135.7891
703.9246, 100.9141
704.4067, 83.66797
704.8889, 97.44141
705.3710, 113.9336
705.8531, 108.5664
706.3352, 85.36719
706.8173, 61.04297
707.2994, 29.76172
707.7816, 6.792969
708.2637, 0.3867190
708.7458, 2.656250
709.2279, 10.00000
709.7100, 18.75000
710.1921, 19.78125
710.6743, 5.839844
711.1564, 11.19141
711.6385, 6.234375
712.1206, 16.88281
712.6027, 14.54297
713.0848, 26.16406
713.5670, 45.87109
714.0491, 0.5234380
714.5312, 89.18359
715.0133, 153.4219
715.4954, 189.6680
715.9775, 205.8398
716.4597, 197.7344
716.9418, 174.5820
717.4239, 118.7656
717.9060, 58.70703
718.3881, 43.72266
718.8702, 88.86328
719.3524, 139.9375
719.8345, 157.6367
720.3166, 158.6836
720.7987, 176.7148
721.2808, 202.3789
721.7629, 182.4180
722.2451, 95.22656
722.7272, 0.5937500
723.2093, 23.06250
723.6914, 28.34375
724.1735, 52.87891
724.6556, 41.62500
725.1378, 22.85156
725.6199, 6.246094
726.1020, 27.22266
726.5841, 17.94141
727.0662, 19.97656
727.5483, 54.87891
728.0305, 102.5781
728.5126, 127.8984
728.9947, 97.96875
729.4768, 46.67188
729.9589, 9.542969
730.4410, 7.460938
730.9232, 11.59375
731.4053, 5.320313
731.8874, 5.464844
732.3695, 10.96484
732.8516, 11.21094
733.3337, 5.359375
733.8159, 8.960938
734.2980, 14.85547
734.7801, 0.4140630
735.2622, 31.47656
735.7443, 63.47266
736.2264, 120.1523
736.7086, 132.2852
737.1907, 46.90625
737.6728, 24.32422
738.1549, 20.49609
738.6370, 25.19141
739.1191, 58.14844
739.6013, 65.63281
740.0834, 70.46875
740.5655, 99.67578
741.0476, 121.5859
741.5297, 83.88281
742.0118, 12.28906
742.4940, 15.41406
742.9761, 25.14453
743.4582, 74.35547
743.9403, 53.07422
744.4224, 21.40625
744.9045, 26.45703
745.3867, 49.25391
745.8688, 125.5352
746.3509, 185.4688
746.8330, 226.8398
747.3151, 243.6992
747.7972, 236.2148
748.2794, 228.6289
748.7615, 215.1094
749.2436, 209.2539
749.7257, 229.7344
750.2078, 245.2227
750.6899, 227.5195
751.1721, 182.7500
751.6542, 130.7383
752.1363, 68.53125
752.6184, 35.66797
753.1005, 92.46484
753.5826, 193.1211
754.0648, 269.0508
754.5469, 308.1094
755.0290, 282.1641
755.5111, 170.4922
755.9932, 41.45703
756.4753, 33.45703
756.9575, 166.9297
757.4396, 198.6797
757.9217, 82.97656
758.4038, 14.85156
758.8859, 20.78906
759.3680, 18.95703
759.8502, 42.40625
760.3323, 49.03125
760.8144, 52.92188
761.2965, 42.67969
761.7786, 44.50391
762.2607, 94.45312
762.7428, 143.4141
763.2249, 119.4102
763.7070, 33.48828
764.1891, 17.68359
764.6713, 42.24219
765.1534, 126.6445
765.6355, 123.4102
766.1176, 66.78906
766.5997, 38.98047
767.0818, 53.04688
767.5640, 100.9141
768.0461, 182.8398
768.5282, 274.3828
769.0103, 312.4219
769.4924, 286.9023
769.9745, 270.6602
770.4567, 272.0039
770.9388, 270.7656
771.4209, 246.9609
771.9030, 223.5664
772.3851, 244.5352
772.8672, 324.4609
773.3494, 363.8516
773.8315, 313.9922
774.3136, 264.6680
774.7957, 269.3711
775.2778, 288.1016
775.7599, 265.5820
776.2421, 199.1953
776.7242, 136.2617
777.2063, 100.1641
777.6884, 88.25000
778.1705, 114.0977
778.6526, 158.9766
779.1348, 172.1055
779.6169, 147.3711
780.0990, 113.8086
780.5811, 88.64453
781.0632, 79.60156
781.5453, 120.2695
782.0275, 220.8789
782.5096, 279.5742
782.9917, 273.4180
783.4738, 264.3555
783.9559, 291.0625
784.4380, 331.7383
784.9202, 333.6094
785.4023, 276.2266
785.8844, 247.2344
786.3665, 264.1836
786.8486, 292.6211
787.3307, 330.1055
787.8129, 365.2383
788.2950, 385.9492
788.7771, 391.7344
789.2592, 390.9805
789.7413, 381.0430
790.2234, 370.6953
790.7056, 359.9375
791.1877, 357.8828
791.6698, 409.5039
792.1519, 500.5938
792.6340, 516.5078
793.1161, 372.5508
793.5983, 166.5000
794.0804, 98.54688
794.5625, 164.7031
795.0446, 216.9805
795.5267, 245.0117
796.0089, 261.2188
796.4910, 269.7656
796.9731, 272.2148
797.4552, 269.7148
797.9373, 257.9883
798.4194, 258.1523
798.9016, 285.3281
799.3837, 305.2383
799.8658, 308.8555
800.3479, 299.9336
800.8300, 270.0508
801.3121, 227.6875
801.7943, 220.0234
802.2764, 288.5234
802.7585, 354.9453
803.2406, 377.4336
803.7227, 377.4102
804.2048, 370.6250
804.6870, 365.0938
805.1691, 376.4336
805.6512, 414.0859
806.1333, 451.2773
806.6154, 440.8906
807.0975, 405.1680
807.5797, 423.6445
808.0618, 494.0898
808.5439, 536.4727
809.0260, 513.0820
809.5081, 464.0703
809.9902, 439.4805
810.4724, 438.0195
810.9545, 429.8828
811.4366, 403.8320
811.9187, 401.7031
812.4008, 444.6875
812.8829, 510.4727
813.3651, 584.5078
813.8472, 657.4258
814.3293, 704.0977
814.8114, 727.9375
815.2935, 720.5078
815.7756, 663.2852
816.2578, 593.7422
816.7399, 516.5781
817.2220, 455.2734
817.7041, 446.0430
818.1862, 496.4531
818.6683, 542.2891
819.1505, 553.6836
819.6326, 537.3711
820.1147, 475.0117
820.5968, 394.0391
821.0789, 354.4609
821.5610, 366.1914
822.0432, 390.5312
822.5253, 398.7031
823.0074, 398.7383
823.4895, 421.6445
823.9716, 461.2461
824.4537, 433.2617
824.9359, 318.4922
825.4180, 215.5312
825.9001, 178.8125
826.3822, 195.4023
826.8643, 246.3203
827.3464, 347.2930
827.8286, 405.5469
828.3107, 402.0273
828.7928, 386.9336
829.2749, 369.9102
829.7570, 353.2031
830.2391, 339.5938
830.7213, 328.8828
831.2034, 319.0352
831.6855, 322.0352
832.1676, 309.7109
832.6497, 254.6172
833.1318, 197.8633
833.6140, 173.7031
834.0961, 176.0820
834.5782, 185.3047
835.0603, 196.3633
835.5424, 204.6094
836.0245, 211.8555
836.5067, 210.8516
836.9888, 179.7070
837.4709, 134.1484
837.9530, 120.3555
838.4351, 149.4414
838.9172, 183.8711
839.3994, 191.4883
839.8815, 176.1797
840.3636, 142.0234
840.8457, 91.27344
841.3278, 40.67969
841.8099, 8.890625
842.2921, 22.10547
842.7742, 33.08594
843.2563, 124.1641
843.7384, 171.1523
844.2205, 165.9453
844.7026, 146.9336
845.1848, 104.3008
845.6669, 64.39844
846.1490, 23.28906
846.6311, 3.1250000E-02
847.1132, 28.80078
847.5953, 108.7773
848.0775, 169.6211
848.5596, 218.4922
849.0417, 232.9922
849.5238, 175.2812
850.0059, 110.0234
850.4880, 87.91406
850.9702, 98.15234
851.4523, 103.6523
851.9343, 91.43359
852.4164, 85.49609
852.8986, 118.6836
853.3807, 147.4453
853.8628, 109.8867
854.3449, 44.13672
854.8270, 38.81641
855.3091, 106.9648
855.7913, 159.0977
856.2734, 106.8359
856.7555, 20.25000
857.2376, 32.60938
857.7197, 108.9180
858.2018, 125.7227
858.6840, 70.43750
859.1661, 19.87109
859.6482, 20.14844
860.1303, 48.23828
860.6124, 64.84375
861.0945, 69.87109
861.5767, 67.06641
862.0588, 54.57812
862.5409, 42.86719
863.0230, 31.93750
863.5051, 33.53906
863.9872, 71.45312
864.4694, 139.4258
864.9515, 149.7578
865.4336, 50.94141
865.9157, 4.550781
866.3978, 25.78125
866.8799, 70.91016
867.3621, 100.8320
867.8442, 116.6211
868.3263, 124.1562
868.8084, 127.3594
869.2905, 93.80859
869.7726, 36.58984
870.2548, 138.0469
870.7369, 144.4727
871.2190, 101.6836
871.7011, 48.22656
872.1832, 5.121094
872.6653, 46.62891
873.1475, 77.35547
873.6296, 83.03125
874.1117, 27.78906
874.5938, 39.26172
875.0759, 71.18359
875.5580, 64.69531
876.0402, 13.91406
876.5223, 79.86719
877.0044, 160.5664
877.4865, 153.6875
877.9686, 108.8750
878.4507, 131.2305
878.9329, 195.3516
879.4150, 203.2109
879.8971, 141.2852
880.3792, 93.37500
880.8613, 121.3164
881.3434, 186.5039
881.8256, 208.6250
882.3077, 190.0703
882.7898, 169.3906
883.2719, 148.1289
883.7540, 133.9297
884.2361, 131.3320
884.7183, 134.2773
885.2004, 125.7852
885.6825, 108.0273
886.1646, 131.9297
886.6467, 226.9180
887.1288, 279.9648
887.6110, 253.1328
888.0931, 215.8633
888.5752, 218.3164
889.0573, 239.2344
889.5394, 224.8750
890.0215, 154.3047
890.5037, 109.5352
890.9858, 81.39453
891.4679, 90.43750
891.9500, 192.3828
892.4321, 296.8672
892.9142, 308.9414
893.3964, 239.9414
893.8785, 184.6602
894.3606, 174.0273
894.8427, 163.8125
895.3248, 132.9844
895.8069, 103.0430
896.2891, 89.88281
896.7712, 89.57031
897.2533, 90.87500
897.7354, 91.86328
898.2175, 107.7500
898.6996, 163.3008
899.1818, 221.6094
899.6639, 249.3789
900.1460, 258.4570
900.6281, 271.3984
901.1102, 284.0703
901.5923, 275.3867
902.0745, 232.6484
902.5566, 187.0664
903.0387, 175.4883
903.5208, 186.1875
904.0029, 202.4023
904.4850, 219.0039
904.9672, 219.6367
905.4493, 200.5625
905.9314, 192.9609
906.4135, 228.1758
906.8956, 282.6055
907.3777, 297.4258
907.8599, 277.2891
908.3420, 263.5469
908.8241, 260.2500
909.3062, 254.9453
909.7883, 239.5664
910.2704, 232.0977
910.7526, 261.9922
911.2347, 325.6133
911.7168, 372.4648
912.1989, 403.0586
912.6810, 410.7422
913.1631, 390.0117
913.6453, 358.0273
914.1274, 320.9102
914.6095, 286.3125
915.0916, 282.7461
915.5737, 328.5273
916.0558, 337.0000
916.5380, 284.7969
917.0201, 236.7773
917.5022, 213.1562
917.9843, 205.8047
918.4664, 216.9219
918.9485, 240.7617
919.4307, 231.5430
919.9128, 133.0938
920.3949, 87.37891
920.8770, 152.4102
921.3591, 214.3203
921.8412, 214.8984
922.3234, 183.7422
922.8055, 159.1250
923.2876, 144.3047
923.7697, 139.8633
924.2518, 181.2695
924.7339, 194.9492
925.2161, 105.4336
925.6982, 21.42578
926.1803, 51.36719
926.6624, 153.7812
927.1445, 220.1719
927.6266, 212.8281
928.1088, 203.4766
928.5909, 229.7031
929.0730, 278.6055
929.5551, 372.7930
930.0372, 463.5898
930.5193, 468.1484
931.0015, 399.7773
931.4836, 352.7812
931.9657, 378.7656
932.4478, 397.3945
932.9299, 324.2656
933.4120, 230.7852
933.8942, 203.9141
934.3763, 227.9336
934.8584, 257.9219
935.3405, 279.5195
935.8226, 278.6445
936.3047, 229.2305
936.7869, 180.1367
937.2690, 229.9453
937.7511, 315.0117
938.2332, 285.1367
938.7153, 159.8477
939.1974, 68.71875
939.6796, 62.04297
940.1617, 88.05469
940.6438, 102.8281
941.1259, 102.4805
941.6080, 53.48828
942.0901, 21.78906
942.5722, 7.605469
943.0543, 104.0820
943.5364, 203.8945
944.0186, 232.0234
944.5007, 211.6094
944.9828, 163.8242
945.4649, 97.35547
945.9470, 70.52344
946.4291, 82.16016
946.9113, 96.08984
947.3934, 103.5664
947.8755, 122.2188
948.3576, 171.1953
948.8397, 220.7383
949.3218, 186.5234
949.8040, 64.23828
950.2861, 11.35938
950.7682, 39.81641
951.2503, 70.14062
951.7324, 76.26562
952.2145, 77.36328
952.6967, 87.52734
953.1788, 111.4961
953.6609, 185.7930
954.1430, 340.7773
954.6251, 381.1680
955.1072, 256.8633
955.5894, 141.5508
956.0715, 105.9375
956.5536, 119.5352
957.0357, 153.7578
957.5178, 205.4883
957.9999, 221.6328
958.4821, 182.7344
958.9642, 162.0273
959.4463, 175.1641
959.9284, 192.2188
960.4105, 197.9414
960.8926, 198.7969
961.3748, 207.0195
961.8569, 224.2539
962.3390, 224.1211
962.8211, 190.1797
963.3032, 166.5664
963.7853, 148.6875
964.2675, 155.9766
964.7496, 233.6602
965.2317, 332.3164
965.7138, 335.4531
966.1959, 204.9180
966.6780, 141.1094
967.1602, 201.8203
967.6423, 250.0703
968.1244, 264.9688
968.6065, 253.3789
969.0886, 191.3516
969.5707, 110.4609
970.0529, 104.3945
970.5350, 224.1250
971.0171, 280.1953
971.4992, 185.9023
971.9813, 116.7930
972.4634, 160.4375
972.9456, 227.6055
973.4277, 235.4219
973.9098, 195.1719
974.3919, 163.6250
974.8740, 141.4844
975.3561, 143.0742
975.8383, 208.3945
976.3204, 252.5312
976.8025, 206.4062
977.2846, 142.3359
977.7667, 153.8516
978.2488, 228.0195
978.7310, 259.7695
979.2131, 198.2891
979.6952, 148.5234
980.1773, 151.5156
980.6594, 157.1250
981.1415, 132.4453
981.6237, 97.27734
982.1058, 77.77344
982.5879, 75.93359
983.0700, 79.12891
983.5521, 84.16797
984.0342, 93.06250
984.5164, 126.9141
984.9985, 142.5820
985.4806, 76.33984
985.9627, 8.437500
986.4448, 0.5078130
986.9269, 105.3555
987.4091, 174.3555
987.8912, 129.2344
988.3733, 79.98047
988.8554, 69.18359
989.3375, 69.50000
989.8196, 66.62891
990.3018, 56.79297
990.7839, 31.72656
991.2660, 8.617188
991.7481, 35.82812
992.2302, 22.96875
992.7123, 14.74219
993.1945, 45.12109
993.6766, 76.21094
994.1587, 78.22266
994.6408, 55.02344
995.1229, 14.97656
995.6050, 39.68359
996.0872, 92.15625
996.5693, 148.9570
997.0514, 184.1836
997.5335, 161.2148
998.0156, 130.5898
998.4977, 139.5234
998.9799, 177.1758
999.4620, 214.5547
999.9441, 242.4648
1000.426, 263.4883
1000.908, 281.5742
1001.390, 286.9141
1001.873, 258.3477
1002.355, 228.5547
1002.837, 250.3828
1003.319, 292.3164
1003.801, 265.1016
1004.283, 141.6797
1004.765, 55.08984
1005.247, 92.73438
1005.729, 142.5430
1006.212, 142.4883
1006.694, 127.1602
1007.176, 124.4375
1007.658, 135.5039
1008.140, 161.2852
1008.622, 206.4883
1009.104, 221.4648
1009.586, 150.3516
1010.069, 83.50000
1010.551, 73.73438
1011.033, 90.89062
1011.515, 105.7578
1011.997, 120.0625
1012.479, 151.6172
1012.961, 208.1523
1013.443, 249.0117
1013.925, 263.8398
1014.408, 250.5000
1014.890, 177.0234
1015.372, 99.61719
1015.854, 70.02734
1016.336, 83.50391
1016.818, 127.7969
1017.300, 209.6914
1017.782, 240.7539
1018.265, 119.1328
1018.747, 23.79688
1019.229, 90.83203
1019.711, 184.1602
1020.193, 148.0469
1020.675, 35.56250
1021.157, 12.63281
1021.639, 131.2695
1022.121, 213.5273
1022.604, 168.1719
1023.086, 118.2109
1023.568, 121.2812
1024.050, 138.9609
1024.532, 141.3828
1025.014, 128.9922
1025.496, 106.1797
1025.978, 70.16016
1026.460, 49.57812
1026.943, 51.71094
1027.425, 70.04297
1027.907, 128.2148
1028.389, 177.4922
1028.871, 166.1055
1029.353, 120.7500
1029.835, 101.0859
1030.317, 122.2773
1030.800, 134.7656
1031.282, 118.3945
1031.764, 107.2305
1032.246, 110.5391
1032.728, 122.8047
1033.210, 151.7344
1033.692, 183.2344
1034.174, 186.8477
1034.656, 156.4570
1035.139, 126.1133
1035.621, 90.29297
1036.103, 67.91797
1036.585, 52.91406
1037.067, 63.52734
1037.549, 128.5312
1038.031, 220.6758
1038.513, 297.5312
1038.995, 364.1211
1039.478, 372.0781
1039.960, 255.8672
1040.442, 182.8750
1040.924, 202.4648
1041.406, 234.9961
1041.888, 249.6406
1042.370, 239.9922
1042.852, 182.3906
1043.335, 69.59766
1043.817, 27.37109
1044.299, 102.4180
1044.781, 150.7578
1045.263, 148.8477
1045.745, 129.0547
1046.227, 98.28516
1046.709, 71.13281
1047.192, 72.29688
1047.674, 100.3906
1048.156, 105.9062
1048.638, 71.22266
1049.120, 81.92578
1049.602, 175.9023
1050.084, 224.8750
1050.566, 150.9375
1051.048, 39.81250
1051.531, 5.417969
1052.013, 31.50781
1052.495, 67.29297
1052.977, 119.0664
1053.459, 133.8984
1053.941, 97.57031
1054.423, 81.28516
1054.905, 117.5898
1055.387, 161.3984
1055.870, 161.0781
1056.352, 133.2305
1056.834, 149.6562
1057.316, 208.5508
1057.798, 193.2031
1058.280, 95.41016
1058.762, 54.01562
1059.244, 117.6562
1059.727, 193.9492
1060.209, 204.0977
1060.691, 164.2109
1061.173, 95.28125
1061.655, 8.085938
1062.137, 53.10156
1062.619, 83.57812
1063.101, 56.15625
1063.583, 30.32031
1064.066, 104.9961
1064.548, 116.9062
1065.030, 100.2930
1065.512, 109.4453
1065.994, 128.8750
1066.476, 115.6523
1066.958, 80.46094
1067.440, 56.74609
1067.922, 51.80469
1068.405, 68.50781
1068.887, 111.1680
1069.369, 141.5742
1069.851, 91.98047
1070.333, 27.92969
1070.815, 35.00391
1071.297, 96.26172
1071.779, 196.7344
1072.262, 316.9375
1072.744, 428.0586
1073.226, 519.8047
1073.708, 529.0781
1074.190, 319.6016
1074.672, 107.8203
1075.154, 102.3203
1075.636, 171.0664
1076.118, 164.7930
1076.601, 97.80469
1077.083, 37.33203
1077.565, 0.3515630
1078.047, 14.67188
1078.529, 5.785156
1079.011, 20.77344
1079.493, 89.38281
1079.975, 147.5156
1080.458, 142.9883
1080.940, 106.9766
1081.422, 86.51953
1081.904, 87.80859
1082.386, 104.4062
1082.868, 171.0430
1083.350, 198.5742
1083.832, 131.4102
1084.314, 71.21094
1084.797, 89.16016
1085.279, 122.1875
1085.761, 78.52344
1086.243, 22.60156
1086.725, 55.06641
1087.207, 13.00000
1087.689, 92.33984
1088.171, 355.7305
1088.653, 504.4648
1089.136, 412.6094
1089.618, 252.0312
1090.100, 145.0430
1090.582, 89.66406
1091.064, 87.74219
1091.546, 149.0898
1092.028, 174.2188
1092.510, 152.4414
1092.993, 151.9062
1093.475, 194.7344
1093.957, 212.8398
1094.439, 156.6836
1094.921, 88.69141
1095.403, 116.8047
1095.885, 218.2969
1096.367, 211.8164
1096.849, 110.8047
1097.332, 87.49609
1097.814, 159.2930
1098.296, 216.6680
1098.778, 212.3086
1099.260, 173.9922
1099.742, 116.1289
1100.224, 67.48047
1100.706, 114.4766
1101.188, 205.1602
1101.671, 198.6680
1102.153, 114.1719
1102.635, 51.20312
1103.117, 35.80859
1103.599, 31.26562
1104.081, 13.42578
1104.563, 0.6679690
1105.045, 5.183594
1105.528, 24.74219
1106.010, 56.55859
1106.492, 93.96484
1106.974, 144.1758
1107.456, 190.9453
1107.938, 163.2812
1108.420, 10.88281
1108.902, 72.23828
1109.385, 95.55078
1109.867, 249.8047
1110.349, 211.6992
1110.831, 127.5938
1111.313, 131.3477
1111.795, 196.9062
1112.277, 253.4844
1112.759, 294.5625
1113.241, 295.7031
1113.724, 185.5977
1114.206, 136.9844
1114.688, 246.4785
1115.170, 339.4766
1115.652, 326.2812
1116.134, 264.2168
1116.616, 218.1328
1117.098, 187.5410
1117.580, 168.7520
1118.063, 166.4414
1118.545, 163.6172
1119.027, 165.6035
1119.509, 139.3086
1119.991, 59.57031
1120.473, 1.396484
1120.955, 25.89844
1121.437, 102.9258
1121.920, 133.1328
1122.402, 125.3125
1122.884, 155.8125
1123.366, 214.1719
1123.848, 229.7207
1124.330, 198.4102
1124.812, 182.9590
1125.294, 215.8594
1125.776, 261.9316
1126.259, 291.1816
1126.741, 296.8809
1127.223, 239.2090
1127.705, 162.8906
1128.187, 173.5215
1128.669, 246.0859
1129.151, 282.0371
1129.633, 258.7246
1130.115, 236.7969
1130.598, 252.6523
1131.080, 278.0000
1131.562, 320.3418
1132.044, 336.1113
1132.526, 242.5488
1133.008, 130.8418
1133.490, 150.8574
1133.972, 270.5312
1134.455, 304.3691
1134.937, 179.5840
1135.419, 98.01562
1135.901, 139.2832
1136.383, 174.8320
1136.865, 155.8789
1137.347, 129.6992
1137.829, 131.0293
1138.312, 143.1641
1138.794, 137.1211
1139.276, 112.5566
1139.758, 95.90625
1140.240, 91.93164
1140.722, 72.13281
1141.204, 21.02930
1141.686, 19.57422
1142.168, 115.0352
1142.651, 195.9922
1143.133, 144.3262
1143.615, 27.54688
1144.097, 32.54492
1144.579, 131.6855
1145.061, 139.7207
1145.543, 66.94922
1146.025, 12.61328
1146.507, 0.8769530
1146.990, 27.16016
1147.472, 98.59766
1147.954, 158.6094
1148.436, 127.6426
1148.918, 70.89844
1149.400, 74.46680
1149.882, 106.6934
1150.364, 137.8027
1150.847, 152.1660
1151.329, 105.2266
1151.811, 1.275391
1152.293, 32.53125
1152.775, 119.2441
1153.257, 231.9102
1153.739, 168.7344
1154.221, 93.53516
1154.703, 75.77344
1155.186, 112.6465
1155.668, 242.3672
1156.150, 419.1973
1156.632, 476.6855
1157.114, 381.6602
1157.596, 299.3750
1158.078, 210.7832
1158.560, 184.5000
1159.042, 264.4961
1159.525, 322.0391
1160.007, 283.4512
1160.489, 202.5820
1160.971, 144.3770
1161.453, 110.6895
1161.935, 120.0000
1162.417, 167.7539
1162.899, 197.7246
1163.382, 205.9609
1163.864, 183.0723
1164.346, 130.3105
1164.828, 86.36523
1165.310, 78.29688
1165.792, 78.32227
1166.274, 35.72852
1166.756, 9.328125
1167.238, 27.66406
1167.721, 102.3223
1168.203, 163.6992
1168.685, 199.3691
1169.167, 193.9766
1169.649, 145.9902
1170.131, 104.3301
1170.613, 73.79297
1171.095, 78.86914
1171.578, 185.1504
1172.060, 263.9746
1172.542, 205.4883
1173.024, 108.3145
1173.506, 83.26562
1173.988, 119.6719
1174.470, 157.9961
1174.952, 210.9668
1175.434, 219.3145
1175.917, 167.1621
1176.399, 119.8945
1176.881, 84.68164
1177.363, 80.65039
1177.845, 125.9844
1178.327, 164.9590
1178.809, 122.9160
1179.291, 28.60352
1179.773, 46.15430
1180.256, 93.85742
1180.738, 61.03125
1181.220, 29.17773
1181.702, 67.60352
1182.184, 37.43164
1182.666, 8.921875
1183.148, 20.68555
1183.630, 45.16016
1184.113, 78.22070
1184.595, 92.35938
1185.077, 39.83398
1185.559, 24.08789
1186.041, 41.91016
1186.523, 22.77344
1187.005, 9.697266
1187.487, 50.67969
1187.969, 86.94727
1188.452, 131.8301
1188.934, 143.8145
1189.416, 76.79883
1189.898, 44.12695
1190.380, 102.3203
1190.862, 168.7520
1191.344, 180.8496
1191.826, 155.6152
1192.308, 120.9219
1192.791, 79.68555
1193.273, 94.02930
1193.755, 160.9707
1194.237, 180.5527
1194.719, 145.5312
1195.201, 120.7148
1195.683, 130.1387
1196.165, 160.8652
1196.648, 212.0938
1197.130, 245.6230
1197.612, 192.6504
1198.094, 111.0039
1198.576, 64.55273
1199.058, 48.49219
1199.540, 57.11133
1200.022, 83.67578
1200.505, 120.3672
1200.987, 166.3438
1201.469, 191.2070
1201.951, 176.0879
1202.433, 151.3574
1202.915, 115.3477
1203.397, 85.94727
1203.879, 71.21484
1204.361, 66.51172
1204.844, 69.86914
1205.326, 79.92773
1205.808, 95.98242
1206.290, 120.4102
1206.772, 113.4277
1207.254, 74.06836
1207.736, 53.92578
1208.218, 62.74805
1208.700, 62.37500
1209.183, 35.46875
1209.665, 15.45703
1210.147, 25.98047
1210.629, 55.56445
1211.111, 98.05664
1211.593, 140.8105
1212.075, 157.2988
1212.557, 164.7520
1213.040, 213.0117
1213.522, 281.4453
1214.004, 272.1055
1214.486, 146.1777
1214.968, 73.74023
1215.450, 149.3027
1215.932, 222.6406
1216.414, 282.8379
1216.896, 296.3516
1217.379, 209.9668
1217.861, 112.4570
1218.343, 95.96289
1218.825, 140.1562
1219.307, 182.2129
1219.789, 222.6484
1220.271, 249.9102
1220.753, 264.1113
1221.235, 274.7070
1221.718, 280.8496
1222.200, 240.1523
1222.682, 132.1035
1223.164, 48.22266
1223.646, 120.1855
1224.128, 214.7305
1224.610, 167.3613
1225.092, 90.88867
1225.575, 129.9082
1226.057, 209.7520
1226.539, 226.2578
1227.021, 181.0000
1227.503, 146.4219
1227.985, 139.2383
1228.467, 121.0508
1228.949, 56.12695
1229.432, 30.16992
1229.914, 91.41406
1230.396, 116.4297
1230.878, 31.41797
1231.360, 43.37305
1231.842, 11.48828
1232.324, 132.9492
1232.806, 173.2695
1233.288, 145.9121
1233.771, 151.6562
1234.253, 181.8965
1234.735, 198.5137
1235.217, 195.8398
1235.699, 166.4023
1236.181, 113.4355
1236.663, 89.56641
1237.145, 141.5469
1237.627, 196.7246
1238.110, 213.4062
1238.592, 204.4219
1239.074, 144.2930
1239.556, 90.81250
1240.038, 122.4863
1240.520, 197.3672
1241.002, 211.3926
1241.484, 162.0527
1241.967, 123.2441
1242.449, 88.56641
1242.931, 92.72852
1243.413, 147.7109
1243.895, 187.2988
1244.377, 193.0762
1244.859, 172.5488
1245.341, 125.1641
1245.823, 96.17188
1246.306, 180.6914
1246.788, 288.9199
1247.270, 208.8613
1247.752, 59.20312
1248.234, 60.77930
1248.716, 143.4277
1249.198, 173.1582
1249.680, 123.4902
1250.162, 79.22656
1250.645, 62.57812
1251.127, 67.73047
1251.609, 128.9316
1252.091, 157.7207
1252.573, 107.8203
1253.055, 59.03906
1253.537, 48.19727
1254.019, 57.28516
1254.502, 69.89453
1254.984, 82.13086
1255.466, 77.27930
1255.948, 59.10352
1256.430, 65.83984
1256.912, 89.41211
1257.394, 94.46289
1257.876, 76.27930
1258.358, 41.64258
1258.841, 1.701172
1259.323, 11.53516
1259.805, 50.56055
1260.287, 128.8613
1260.769, 205.0176
1261.251, 257.8359
1261.733, 252.3359
1262.215, 217.5957
1262.698, 215.7676
1263.180, 251.1035
1263.662, 187.9258
1264.144, 41.22656
1264.626, 0.1542970
1265.108, 0.0000000E+00
##END=



