##NAMES=Metatorbernite
##RRUFFID=R120014
##IDEAL CHEMISTRY=Cu(UO_2_)_2_(PO_4_)_2_&#183;8H_2_O
##LOCALITY=Governor's Lake pegmatite, Halifax County, Nova Scotia, Canada
##OWNER=RRUFF
##SOURCE=Donald Doell
##DESCRIPTION=Green tabular crystals associated with anatase R120013
##STATUS=The identification of this mineral has been confirmed by single-crystal X-ray diffraction.
##URL=rruff.info/R120014
161.3633, 0.0000000E+00
161.8455, 4.299713
162.3276, 7.002190
162.8097, 4.107731
163.2918, 0.3334500
163.7739, 0.6921350
164.2560, 0.7506640
164.7382, 0.5559230
165.2203, 0.1500700
165.7024, 0.4575650
166.1845, 0.9445110
166.6666, 1.735291
167.1487, 3.151703
167.6309, 5.553276
168.1130, 8.364403
168.5951, 11.19119
169.0772, 14.06615
169.5593, 17.07306
170.0414, 20.22488
170.5236, 23.55958
171.0057, 27.03998
171.4878, 30.91757
171.9699, 34.81961
172.4520, 38.19113
172.9341, 41.10675
173.4163, 44.21234
173.8984, 47.67447
174.3805, 51.72926
174.8626, 56.54927
175.3447, 62.42471
175.8268, 69.10359
176.3090, 76.32935
176.7911, 84.01247
177.2732, 92.35324
177.7553, 100.6301
178.2374, 108.3899
178.7195, 115.8725
179.2017, 122.6421
179.6838, 129.5079
180.1659, 137.4911
180.6480, 146.6964
181.1301, 156.7141
181.6122, 167.5979
182.0944, 179.2283
182.5765, 190.8861
183.0586, 201.6355
183.5407, 212.2964
184.0228, 225.6082
184.5049, 241.7122
184.9871, 259.0139
185.4692, 275.0390
185.9513, 290.2810
186.4334, 306.4199
186.9155, 324.7897
187.3976, 344.8303
187.8798, 364.9847
188.3619, 385.0614
188.8440, 405.4660
189.3261, 426.6714
189.8082, 448.7762
190.2903, 470.3302
190.7725, 491.2415
191.2546, 511.4823
191.7367, 529.1219
192.2188, 544.3837
192.7009, 556.7187
193.1830, 566.0128
193.6652, 572.3458
194.1473, 572.2385
194.6294, 563.4784
195.1115, 546.3437
195.5936, 522.8036
196.0757, 491.8302
196.5579, 456.5918
197.0400, 422.1881
197.5221, 388.4830
198.0042, 356.9087
198.4863, 327.5143
198.9684, 300.3897
199.4506, 277.0355
199.9327, 258.0935
200.4148, 242.5226
200.8969, 228.5251
201.3790, 216.0045
201.8611, 204.8788
202.3433, 195.1136
202.8254, 186.7159
203.3075, 179.5118
203.7896, 173.7018
204.2717, 168.9354
204.7538, 164.3573
205.2360, 159.8566
205.7181, 155.9016
206.2002, 152.9070
206.6823, 151.0175
207.1644, 149.0807
207.6465, 146.9819
208.1287, 144.7819
208.6108, 142.6313
209.0929, 140.5158
209.5750, 138.4731
210.0571, 136.5422
210.5392, 134.7320
211.0214, 132.9785
211.5035, 131.2943
211.9856, 129.6672
212.4677, 128.0076
212.9498, 126.2715
213.4319, 124.6242
213.9140, 123.1678
214.3962, 121.9336
214.8783, 120.8085
215.3604, 119.7912
215.8425, 118.8798
216.3246, 118.1087
216.8067, 117.6118
217.2889, 116.9957
217.7710, 115.9427
218.2531, 114.1991
218.7352, 112.7744
219.2173, 111.2917
219.6994, 110.1620
220.1816, 108.6145
220.6637, 106.3521
221.1458, 104.1604
221.6279, 102.7282
222.1100, 102.5344
222.5921, 101.8089
223.0743, 100.3166
223.5564, 98.17648
224.0385, 95.97046
224.5206, 93.87183
225.0027, 91.48596
225.4848, 88.44199
225.9670, 84.23068
226.4491, 80.64941
226.9312, 77.88724
227.4133, 75.86432
227.8954, 74.24551
228.3775, 73.51779
228.8597, 72.50433
229.3418, 70.36313
229.8239, 66.40051
230.3060, 62.90186
230.7881, 60.01218
231.2702, 57.70129
231.7524, 56.01163
232.2345, 55.35669
232.7166, 54.72278
233.1987, 53.45471
233.6808, 51.10559
234.1629, 49.09808
234.6451, 47.60556
235.1272, 46.51712
235.6093, 45.35721
236.0914, 44.11807
236.5735, 42.81961
237.0556, 41.45047
237.5378, 39.90448
238.0199, 38.54440
238.5020, 37.47589
238.9841, 36.61972
239.4662, 35.63846
239.9483, 34.47470
240.4305, 33.28857
240.9126, 32.14114
241.3947, 30.95047
241.8768, 30.01724
242.3589, 29.49316
242.8410, 29.23157
243.3232, 28.65909
243.8053, 27.41989
244.2874, 26.35428
244.7695, 25.98749
245.2516, 26.94125
245.7337, 27.12140
246.2159, 25.97534
246.6980, 24.06458
247.1801, 23.27780
247.6622, 24.23273
248.1443, 25.36163
248.6264, 25.92020
249.1086, 25.74911
249.5907, 25.39935
250.0728, 24.83255
250.5549, 24.10983
251.0370, 23.37296
251.5191, 22.56711
252.0013, 21.84961
252.4834, 21.36844
252.9655, 21.42151
253.4476, 20.90823
253.9297, 19.55472
254.4118, 17.76477
254.8940, 16.45303
255.3761, 15.86093
255.8582, 15.31601
256.3403, 14.51395
256.8224, 13.32663
257.3046, 12.26538
257.7867, 11.26157
258.2688, 10.41629
258.7509, 10.00497
259.2330, 10.26779
259.7151, 10.45416
260.1973, 10.26804
260.6794, 9.631714
261.1615, 8.894440
261.6436, 7.917999
262.1257, 6.965210
262.6078, 6.510864
263.0900, 6.690582
263.5721, 7.064545
264.0542, 7.466156
264.5363, 7.882446
265.0184, 8.637756
265.5005, 10.03439
265.9827, 11.46539
266.4648, 11.93008
266.9469, 10.95203
267.4290, 10.29803
267.9111, 10.65652
268.3932, 12.11267
268.8754, 13.12763
269.3575, 13.42026
269.8396, 13.63022
270.3217, 14.64160
270.8038, 16.65576
271.2859, 18.64813
271.7681, 20.30786
272.2502, 21.62781
272.7323, 22.95700
273.2144, 24.31494
273.6965, 25.54984
274.1786, 26.40131
274.6608, 26.80103
275.1429, 27.39645
275.6250, 28.34363
276.1071, 29.60086
276.5892, 31.02948
277.0714, 32.64270
277.5535, 34.25778
278.0356, 35.66644
278.5177, 36.84070
278.9998, 38.08679
279.4819, 39.49207
279.9641, 41.00021
280.4462, 42.37506
280.9283, 43.70081
281.4104, 44.58862
281.8925, 44.49814
282.3746, 43.41702
282.8568, 42.82135
283.3389, 43.17157
283.8210, 43.96057
284.3031, 43.57718
284.7852, 41.90298
285.2673, 40.24677
285.7495, 39.71759
286.2316, 40.22729
286.7137, 40.43381
287.1958, 40.07562
287.6779, 39.36420
288.1600, 38.79443
288.6422, 38.38406
289.1243, 37.68869
289.6064, 36.20041
290.0885, 34.09470
290.5706, 32.39062
291.0527, 31.22034
291.5349, 30.36371
292.0170, 29.45706
292.4991, 28.52249
292.9812, 27.77463
293.4633, 27.42496
293.9454, 27.34885
294.4276, 27.16455
294.9097, 26.82327
295.3918, 26.44946
295.8739, 26.22662
296.3560, 26.13324
296.8381, 26.01440
297.3203, 25.80063
297.8024, 25.49292
298.2845, 25.10522
298.7666, 24.64514
299.2487, 24.07214
299.7308, 23.06934
300.2130, 21.87027
300.6951, 21.16245
301.1772, 21.56387
301.6593, 22.38901
302.1414, 22.65445
302.6235, 22.39026
303.1057, 21.98380
303.5878, 21.84677
304.0699, 21.79520
304.5520, 21.47076
305.0341, 20.62628
305.5162, 19.56851
305.9984, 18.50461
306.4805, 17.45361
306.9626, 16.51801
307.4447, 15.82275
307.9268, 15.28937
308.4089, 14.84991
308.8911, 14.56210
309.3732, 14.25433
309.8553, 13.75174
310.3374, 13.09705
310.8195, 12.42468
311.3016, 11.91348
311.7838, 11.42328
312.2659, 10.86453
312.7480, 10.21451
313.2301, 9.411957
313.7122, 8.157379
314.1943, 6.698944
314.6765, 5.591919
315.1586, 5.322235
315.6407, 5.321686
316.1228, 5.276642
316.6049, 5.185333
317.0870, 4.985687
317.5692, 4.632294
318.0513, 4.157623
318.5334, 3.602234
319.0155, 2.544891
319.4976, 1.812866
319.9797, 1.902283
320.4619, 2.883392
320.9440, 3.863068
321.4261, 5.260223
321.9082, 6.232849
322.3903, 5.972046
322.8724, 2.597412
323.3546, 0.2989200
323.8367, 1.521759
324.3188, 1.117584
324.8009, 0.9715270
325.2830, 1.721008
325.7651, 2.623413
326.2473, 3.192963
326.7294, 3.018097
327.2115, 2.886505
327.6936, 2.950775
328.1757, 3.157501
328.6578, 3.174133
329.1400, 2.900879
329.6221, 2.483612
330.1042, 1.938324
330.5863, 0.7740480
331.0684, 0.2936710
331.5505, 0.8614810
332.0327, 2.049316
332.5148, 2.924896
332.9969, 3.510834
333.4790, 3.777710
333.9611, 3.670074
334.4432, 3.077972
334.9254, 2.630005
335.4075, 2.477539
335.8896, 2.369232
336.3717, 1.891083
336.8538, 0.8137510
337.3359, 5.6823999E-02
337.8180, 0.5081180
338.3001, 0.5449520
338.7823, 0.2655640
339.2644, 0.4838260
339.7465, 1.222076
340.2286, 1.409363
340.7107, 0.9328310
341.1928, 0.4832150
341.6750, 7.6355003E-02
342.1571, 0.1814270
342.6392, 0.3833920
343.1213, 1.953705
343.6034, 3.374817
344.0855, 3.652679
344.5677, 2.838043
345.0498, 2.267548
345.5319, 2.151398
346.0140, 2.267120
346.4961, 2.188446
346.9782, 1.924286
347.4604, 1.664612
347.9425, 1.515228
348.4246, 1.457916
348.9067, 1.424561
349.3888, 1.402405
349.8709, 1.448395
350.3531, 1.800201
350.8352, 2.329468
351.3173, 2.557831
351.7994, 1.995972
352.2815, 1.103943
352.7636, 0.6715090
353.2458, 0.7030030
353.7279, 0.8645630
354.2100, 1.051361
354.6921, 1.156494
355.1742, 0.9649350
355.6563, 0.1452030
356.1385, 0.7124630
356.6206, 0.9911800
357.1027, 0.7821040
357.5848, 0.5381470
358.0669, 0.2701420
358.5490, 0.2258910
359.0312, 0.7761230
359.5133, 2.398773
359.9954, 3.719055
360.4775, 3.782715
360.9596, 2.975586
361.4417, 2.113373
361.9239, 1.351196
362.4060, 0.7624210
362.8881, 0.3868100
363.3702, 0.2315060
363.8523, 0.2798460
364.3344, 0.6934510
364.8166, 1.250854
365.2987, 1.704376
365.7808, 1.929932
366.2629, 2.096924
366.7450, 2.153381
367.2271, 2.103882
367.7093, 2.313782
368.1914, 3.323395
368.6735, 4.286835
369.1556, 4.650818
369.6377, 3.534576
370.1198, 2.873016
370.6020, 2.874115
371.0841, 3.394501
371.5662, 3.939453
372.0483, 4.538879
372.5304, 5.108154
373.0125, 5.662231
373.4947, 6.352692
373.9768, 6.521576
374.4589, 5.918823
374.9410, 4.998749
375.4231, 4.541077
375.9052, 4.753632
376.3874, 4.847595
376.8695, 4.476349
377.3516, 3.668915
377.8337, 3.454926
378.3158, 3.962433
378.7979, 4.730957
379.2801, 5.357544
379.7622, 5.855011
380.2443, 6.186829
380.7264, 6.329926
381.2085, 6.322479
381.6906, 6.194275
382.1728, 5.960327
382.6549, 5.842621
383.1370, 6.085419
383.6191, 6.561798
384.1012, 6.705811
384.5833, 6.369263
385.0655, 6.082336
385.5476, 6.647858
386.0297, 7.885162
386.5118, 9.125854
386.9939, 10.04678
387.4760, 10.81323
387.9582, 11.62881
388.4403, 12.52689
388.9224, 13.54364
389.4045, 14.87677
389.8866, 16.26184
390.3687, 17.34732
390.8509, 17.67346
391.3330, 18.05249
391.8151, 19.09030
392.2972, 20.71796
392.7793, 22.57138
393.2614, 24.63428
393.7436, 26.72168
394.2257, 28.75336
394.7078, 30.65692
395.1899, 32.64603
395.6720, 34.63403
396.1541, 36.75003
396.6363, 39.21146
397.1184, 42.46579
397.6005, 45.65726
398.0826, 48.57272
398.5647, 51.23071
399.0468, 53.58704
399.5290, 55.66284
400.0111, 57.40714
400.4932, 58.74261
400.9753, 59.06635
401.4574, 59.69342
401.9395, 61.06567
402.4217, 63.00641
402.9038, 64.30753
403.3859, 64.63467
403.8680, 64.74533
404.3501, 65.09180
404.8322, 65.91339
405.3144, 66.18677
405.7965, 65.95908
406.2786, 65.10040
406.7607, 63.27814
407.2428, 60.35812
407.7249, 57.20026
408.2071, 54.24698
408.6892, 51.31589
409.1713, 47.04471
409.6534, 41.21860
410.1355, 35.53958
410.6176, 31.71960
411.0998, 29.43314
411.5819, 27.01450
412.0640, 24.05161
412.5461, 20.96060
413.0282, 18.35815
413.5103, 16.25180
413.9925, 14.42264
414.4746, 12.62585
414.9567, 10.97116
415.4388, 9.795349
415.9209, 9.176422
416.4030, 8.533478
416.8852, 7.146606
417.3673, 5.506866
417.8494, 4.298370
418.3315, 3.853180
418.8136, 3.767151
419.2957, 4.031494
419.7779, 4.553253
420.2600, 4.770691
420.7421, 4.212585
421.2242, 3.412598
421.7063, 2.744385
422.1884, 2.295898
422.6706, 2.014923
423.1527, 1.902527
423.6348, 1.932373
424.1169, 2.070587
424.5990, 2.234253
425.0811, 2.570282
425.5633, 3.165283
426.0454, 4.079987
426.5275, 5.024658
427.0096, 5.886322
427.4917, 6.779572
427.9738, 7.922394
428.4560, 9.719513
428.9381, 10.95798
429.4202, 11.28729
429.9023, 10.98245
430.3844, 10.98831
430.8665, 11.28317
431.3487, 11.94379
431.8308, 13.14783
432.3129, 14.91324
432.7950, 16.30789
433.2771, 17.28918
433.7592, 18.04791
434.2414, 18.67508
434.7235, 19.19296
435.2056, 20.07776
435.6877, 21.90289
436.1698, 23.96695
436.6519, 24.50647
437.1341, 23.59052
437.6162, 22.58093
438.0983, 22.47015
438.5804, 22.94324
439.0625, 23.57925
439.5446, 24.44580
440.0268, 24.99207
440.5089, 24.51163
440.9910, 23.36841
441.4731, 22.29263
441.9552, 21.54425
442.4373, 20.98428
442.9195, 20.74820
443.4016, 20.82584
443.8837, 20.42752
444.3658, 18.69608
444.8479, 16.61536
445.3300, 14.97205
445.8122, 14.14377
446.2943, 13.43240
446.7764, 12.83353
447.2585, 12.26114
447.7406, 11.49838
448.2227, 10.01883
448.7049, 8.864960
449.1870, 8.472900
449.6691, 9.048065
450.1512, 9.118835
450.6333, 8.276581
451.1154, 7.380981
451.5976, 7.380707
452.0797, 8.683075
452.5618, 9.525360
453.0439, 9.572601
453.5260, 9.029907
454.0081, 8.427155
454.4903, 7.715790
454.9724, 7.285370
455.4545, 7.474457
455.9366, 8.186859
456.4187, 8.846619
456.9008, 9.448029
457.3830, 9.855316
457.8651, 9.725220
458.3472, 9.218445
458.8293, 8.843872
459.3114, 8.732452
459.7935, 8.854828
460.2757, 9.465118
460.7578, 10.39777
461.2399, 10.86493
461.7220, 9.887970
462.2041, 8.484619
462.6862, 7.665497
463.1684, 7.688171
463.6505, 7.809235
464.1326, 7.789337
464.6147, 7.610474
465.0968, 7.250885
465.5789, 6.641815
466.0611, 5.929932
466.5432, 5.001465
467.0253, 3.918030
467.5074, 3.240204
467.9895, 3.311279
468.4716, 3.589539
468.9538, 3.898132
469.4359, 4.634216
469.9180, 4.422455
470.4001, 2.491943
470.8822, 0.1355290
471.3643, 0.4682620
471.8465, 1.517456
472.3286, 2.731628
472.8107, 1.920532
473.2928, 0.4159550
473.7749, 1.184998
474.2570, 0.1317140
474.7392, 1.154724
475.2213, 1.307800
475.7034, 0.5444340
476.1855, 0.4462280
476.6676, 1.301758
477.1497, 2.440613
477.6319, 3.012817
478.1140, 3.123474
478.5961, 3.084778
479.0782, 2.977600
479.5603, 2.830505
480.0424, 2.753540
480.5246, 2.713928
481.0067, 2.447327
481.4888, 1.215027
481.9709, 6.4699999E-03
482.4530, 0.2298580
482.9352, 1.166138
483.4173, 2.469971
483.8994, 2.980286
484.3815, 2.975769
484.8636, 2.876709
485.3457, 2.294067
485.8279, 2.116577
486.3100, 2.859009
486.7921, 4.527649
487.2742, 5.583740
487.7563, 5.886230
488.2384, 5.750610
488.7206, 5.220703
489.2027, 3.838074
489.6848, 3.410645
490.1669, 4.348572
490.6490, 5.839905
491.1311, 6.584167
491.6133, 6.474915
492.0954, 6.289124
492.5775, 6.215088
493.0596, 6.252747
493.5417, 6.390137
494.0238, 6.617371
494.5060, 6.997375
494.9881, 7.673767
495.4702, 8.517700
495.9523, 9.261902
496.4344, 9.867554
496.9165, 10.32355
497.3987, 10.66730
497.8808, 10.85010
498.3629, 10.77185
498.8450, 9.902222
499.3271, 9.176697
499.8092, 9.539795
500.2914, 10.75110
500.7735, 11.42175
501.2556, 10.16650
501.7377, 8.862427
502.2198, 8.767578
502.7019, 10.74286
503.1841, 12.07092
503.6662, 12.03693
504.1483, 11.34833
504.6304, 10.80170
505.1125, 10.37622
505.5946, 10.13196
506.0768, 10.07806
506.5589, 10.20874
507.0410, 10.55267
507.5231, 11.20734
508.0052, 11.78223
508.4873, 11.98041
508.9695, 11.78882
509.4516, 12.00964
509.9337, 12.75897
510.4158, 13.43042
510.8979, 13.27789
511.3800, 12.42212
511.8622, 11.34265
512.3443, 9.926636
512.8264, 8.698547
513.3085, 8.464966
513.7906, 9.043762
514.2728, 9.778381
514.7549, 10.53992
515.2370, 11.16949
515.7191, 11.45178
516.2012, 11.35736
516.6833, 11.19086
517.1655, 10.92853
517.6476, 10.74713
518.1297, 10.80774
518.6118, 11.59076
519.0939, 12.05383
519.5760, 11.80200
520.0582, 11.13141
520.5403, 10.74445
521.0224, 10.72351
521.5045, 10.88104
521.9866, 11.26355
522.4688, 11.86743
522.9509, 12.03882
523.4330, 11.56708
523.9151, 11.13776
524.3972, 11.35571
524.8793, 12.23163
525.3615, 13.04968
525.8436, 13.82892
526.3257, 14.30475
526.8078, 13.75500
527.2899, 12.42511
527.7720, 11.52917
528.2542, 11.85608
528.7363, 12.63519
529.2184, 12.80042
529.7005, 12.45752
530.1826, 12.15607
530.6647, 12.48987
531.1469, 12.86182
531.6290, 12.73334
532.1111, 11.95898
532.5932, 11.07648
533.0753, 10.00201
533.5574, 9.077881
534.0396, 8.670898
534.5217, 9.483643
535.0038, 10.07385
535.4859, 10.21991
535.9680, 10.00677
536.4501, 9.648132
536.9323, 8.924377
537.4144, 8.435913
537.8965, 8.492859
538.3786, 9.110229
538.8607, 9.450989
539.3428, 9.468750
539.8250, 9.325073
540.3071, 9.084106
540.7892, 8.776672
541.2713, 8.621277
541.7534, 8.655884
542.2355, 8.853760
542.7177, 9.325073
543.1998, 9.957275
543.6819, 10.38318
544.1640, 10.25250
544.6461, 9.964661
545.1282, 9.824890
545.6104, 9.840942
546.0925, 10.03510
546.5746, 10.60278
547.0567, 11.22009
547.5388, 11.67633
548.0209, 11.91443
548.5031, 12.08514
548.9852, 12.12567
549.4673, 12.15179
549.9494, 12.28741
550.4315, 12.56537
550.9136, 12.92310
551.3958, 13.50568
551.8779, 14.11932
552.3600, 14.07147
552.8421, 13.11310
553.3242, 12.36102
553.8063, 12.42493
554.2885, 13.16217
554.7706, 13.35876
555.2527, 12.96808
555.7348, 12.54938
556.2169, 12.73395
556.6990, 13.26855
557.1812, 13.45239
557.6633, 13.11346
558.1454, 12.67316
558.6275, 12.58057
559.1096, 12.67853
559.5917, 12.65607
560.0739, 12.37927
560.5560, 12.00427
561.0381, 11.83502
561.5202, 11.70581
562.0023, 10.88666
562.4844, 7.995117
562.9666, 5.388611
563.4487, 4.345886
563.9308, 5.305115
564.4129, 5.616638
564.8950, 4.875671
565.3771, 3.919495
565.8593, 3.471741
566.3414, 3.680969
566.8235, 3.699951
567.3056, 3.339600
567.7877, 2.912537
568.2698, 3.208740
568.7520, 4.189575
569.2341, 4.675659
569.7162, 4.013611
570.1983, 2.760193
570.6804, 1.868958
571.1625, 1.303833
571.6447, 0.7383420
572.1268, 0.5501710
572.6089, 1.641296
573.0910, 1.262329
573.5731, 0.9906620
574.0552, 2.658264
574.5374, 1.805298
575.0195, 0.2162480
575.5016, 0.4424440
575.9837, 1.455994
576.4658, 2.693115
576.9479, 2.530151
577.4301, 1.612366
577.9122, 1.220703
578.3943, 1.605652
578.8764, 1.969116
579.3585, 2.081604
579.8406, 1.994995
580.3228, 1.990967
580.8049, 2.050415
581.2870, 2.105225
581.7691, 2.287170
582.2512, 2.502625
582.7333, 2.118774
583.2155, 1.044678
583.6975, 4.6386998E-02
584.1796, 0.1243900
584.6617, 0.2449950
585.1439, 0.6723630
585.6260, 1.006348
586.1081, 1.428345
586.5902, 2.488525
587.0723, 3.652222
587.5544, 3.917236
588.0366, 1.890808
588.5187, 4.7913000E-02
589.0008, 0.8952030
589.4829, 0.9312740
589.9650, 0.4587400
590.4471, 1.004028
590.9293, 2.310730
591.4114, 2.855896
591.8935, 2.513306
592.3756, 2.317169
592.8577, 2.340607
593.3398, 2.395782
593.8220, 2.106445
594.3041, 1.481598
594.7862, 1.188599
595.2683, 1.498505
595.7504, 2.000824
596.2325, 2.249542
596.7147, 2.210052
597.1968, 1.870514
597.6789, 0.6718750
598.1610, 0.3097230
598.6431, 4.1717999E-02
599.1252, 1.378479
599.6074, 2.236542
600.0895, 1.729340
600.5716, 1.010071
601.0537, 0.6325070
601.5358, 0.7293700
602.0179, 0.6766970
602.5001, 0.3474430
602.9822, 2.5940000E-03
603.4643, 0.1418150
603.9464, 8.9109996E-03
604.4285, 2.5939999E-02
604.9106, 9.4910003E-02
605.3928, 0.2441410
605.8749, 0.3041380
606.3570, 0.3162840
606.8391, 0.1706850
607.3212, 0.2603450
607.8033, 0.8069150
608.2855, 1.157013
608.7676, 1.372772
609.2497, 1.693726
609.7318, 2.542694
610.2139, 3.339722
610.6960, 3.504639
611.1782, 3.024689
611.6603, 2.631805
612.1424, 2.589081
612.6245, 2.717316
613.1066, 2.964783
613.5887, 3.598175
614.0709, 3.711182
614.5530, 3.102631
615.0351, 2.177887
615.5172, 1.203003
615.9993, 0.1466980
616.4814, 0.4406430
616.9636, 0.8911740
617.4457, 2.922363
617.9278, 3.781250
618.4099, 3.543640
618.8920, 3.282532
619.3741, 3.663300
619.8563, 4.121735
620.3384, 3.648041
620.8205, 2.406708
621.3026, 1.263367
621.7847, 0.4704280
622.2668, 0.1249080
622.7490, 0.5656130
623.2311, 1.914856
623.7132, 2.855743
624.1953, 3.024933
624.6774, 2.682312
625.1595, 1.951691
625.6417, 0.2449340
626.1238, 0.6034240
626.6059, 0.2725220
627.0880, 0.5826420
627.5701, 1.134155
628.0522, 1.361359
628.5344, 1.568542
629.0165, 1.884308
629.4986, 2.115265
629.9807, 1.751556
630.4628, 0.8967590
630.9449, 0.1477660
631.4271, 0.3444520
631.9092, 0.5750430
632.3913, 0.3690190
632.8734, 0.1983640
633.3555, 0.6938780
633.8376, 0.8412170
634.3198, 0.8965450
634.8019, 1.070801
635.2840, 1.462250
635.7661, 1.528320
636.2482, 0.9936220
636.7303, 0.3057560
637.2125, 0.2828670
637.6946, 0.8847960
638.1767, 0.9663700
638.6588, 0.3107910
639.1409, 0.5236510
639.6230, 0.6840210
640.1052, 0.2320860
640.5873, 0.1765440
641.0694, 0.3984070
641.5515, 0.4855350
642.0336, 0.4571230
642.5157, 0.3329470
642.9979, 0.1900330
643.4800, 0.1597600
643.9621, 1.8433001E-02
644.4442, 0.5290830
644.9263, 1.360321
645.4084, 1.875610
645.8906, 1.676147
646.3727, 1.349548
646.8548, 1.071320
647.3369, 0.8258060
647.8190, 0.7618710
648.3011, 1.028961
648.7833, 1.281677
649.2654, 1.305328
649.7475, 1.095306
650.2296, 0.4728390
650.7117, 0.7293090
651.1938, 1.768311
651.6760, 1.385315
652.1581, 3.3295002E-02
652.6402, 0.8352050
653.1223, 0.6426090
653.6044, 0.2821660
654.0865, 0.7577210
654.5687, 1.599609
655.0508, 1.920441
655.5329, 0.6459350
656.0150, 0.4453430
656.4971, 0.5228580
656.9792, 0.2113340
657.4614, 0.6549990
657.9435, 0.5438540
658.4256, 0.4771120
658.9077, 0.6478580
659.3898, 1.051910
659.8719, 1.274078
660.3541, 1.373596
660.8362, 1.409576
661.3183, 1.275085
661.8004, 0.9913640
662.2825, 0.6235960
662.7646, 0.1647030
663.2468, 1.2909000E-02
663.7289, 0.8120420
664.2110, 2.027679
664.6931, 2.991211
665.1752, 3.594910
665.6573, 3.827148
666.1395, 3.395294
666.6216, 2.687561
667.1037, 2.181274
667.5858, 1.809631
668.0679, 1.845459
668.5500, 2.339508
669.0322, 3.233948
669.5143, 4.616058
669.9964, 6.748566
670.4785, 8.087524
670.9606, 8.092499
671.4427, 7.019897
671.9249, 5.082153
672.4070, 2.452576
672.8891, 0.6054990
673.3712, 1.101807
673.8533, 2.454041
674.3354, 2.902802
674.8176, 2.512848
675.2997, 2.247925
675.7818, 2.904022
676.2639, 3.606262
676.7460, 3.745850
677.2281, 3.080170
677.7103, 2.653748
678.1924, 2.521912
678.6745, 2.623413
679.1566, 2.988770
679.6387, 3.735779
680.1208, 4.138031
680.6030, 4.089935
681.0851, 3.928802
681.5672, 4.157104
682.0493, 4.637573
682.5314, 4.774353
683.0135, 4.305298
683.4957, 3.758514
683.9778, 3.741089
684.4599, 4.064453
684.9420, 4.320953
685.4241, 4.332336
685.9063, 4.288025
686.3884, 4.349548
686.8705, 4.411774
687.3526, 4.161224
687.8347, 2.981232
688.3168, 2.472809
688.7990, 3.302429
689.2811, 5.216125
689.7632, 6.514465
690.2453, 7.157318
690.7274, 7.564209
691.2095, 8.088226
691.6917, 8.550720
692.1738, 8.282898
692.6559, 7.284271
693.1380, 6.274902
693.6201, 5.778809
694.1022, 5.531738
694.5844, 5.250336
695.0665, 4.859650
695.5486, 4.597778
696.0307, 4.852844
696.5128, 5.136719
696.9949, 4.988342
697.4771, 3.825165
697.9592, 3.407532
698.4413, 4.040588
698.9234, 5.038177
699.4055, 5.716980
699.8876, 6.093842
700.3698, 5.754517
700.8519, 4.448395
701.3340, 2.936523
701.8161, 2.435669
702.2982, 2.622070
702.7803, 2.588013
703.2625, 1.677917
703.7446, 0.8728940
704.2267, 0.9622190
704.7088, 1.632904
705.1909, 2.199738
705.6730, 2.406128
706.1552, 2.567017
706.6373, 2.680328
707.1194, 2.783020
707.6015, 3.109497
708.0836, 3.730103
708.5657, 4.234161
709.0479, 4.515930
709.5300, 4.624878
710.0121, 4.389496
710.4942, 3.786591
710.9763, 3.256805
711.4584, 3.233093
711.9406, 3.420135
712.4227, 3.397217
712.9048, 3.132843
713.3869, 2.847961
713.8690, 2.755554
714.3511, 2.618713
714.8333, 2.198975
715.3154, 1.181152
715.7975, 0.8608700
716.2796, 1.907562
716.7617, 2.867401
717.2438, 2.344604
717.7260, 0.1259160
718.2081, 1.212585
718.6902, 1.459229
719.1723, 1.027710
719.6544, 3.2166000E-02
720.1365, 1.370941
720.6187, 2.052765
721.1008, 1.755554
721.5829, 1.225159
722.0650, 0.7626340
722.5471, 0.4242250
723.0292, 0.3048710
723.5114, 0.7250670
723.9935, 1.004608
724.4756, 0.9331050
724.9577, 0.6810610
725.4398, 0.5427860
725.9219, 0.5624080
726.4041, 0.5868530
726.8862, 0.5447080
727.3683, 0.5087890
727.8504, 0.6809390
728.3325, 1.046875
728.8146, 1.532135
729.2968, 2.303558
729.7789, 3.001221
730.2610, 3.152924
730.7431, 2.813965
731.2252, 2.412079
731.7073, 2.055084
732.1895, 1.716156
732.6716, 1.199066
733.1537, 0.5770570
733.6358, 0.7228390
734.1179, 2.203583
734.6000, 3.467194
735.0822, 3.735504
735.5643, 3.144745
736.0464, 3.202026
736.5285, 3.965973
737.0106, 4.379028
737.4927, 3.255310
737.9749, 1.437500
738.4570, 0.3740230
738.9391, 0.1370540
739.4212, 0.1470030
739.9033, 0.3320310
740.3854, 0.4401550
740.8676, 0.2041630
741.3497, 0.5913390
741.8318, 0.9834900
742.3139, 0.6040650
742.7960, 0.1692200
743.2781, 0.2719730
743.7603, 1.069885
744.2424, 1.157349
744.7245, 0.3403930
745.2066, 0.5431210
745.6887, 0.4755250
746.1708, 0.2032780
746.6530, 0.5861510
747.1351, 0.4819950
747.6172, 0.2803650
748.0993, 1.6876001E-02
748.5814, 9.1826998E-02
749.0635, 0.2338260
749.5457, 1.666412
750.0278, 2.562927
750.5099, 2.479004
750.9920, 1.922516
751.4741, 1.430328
751.9562, 1.021088
752.4384, 0.6716310
752.9205, 0.4234010
753.4026, 0.1758420
753.8847, 0.3334050
754.3668, 1.002716
754.8489, 1.449921
755.3311, 1.510834
755.8132, 1.365265
756.2953, 1.015900
756.7774, 0.6139830
757.2595, 0.4248960
757.7416, 0.9807430
758.2238, 1.228699
758.7059, 0.5906980
759.1880, 0.4437870
759.6701, 0.7765200
760.1522, 0.1684570
760.6343, 0.4786990
761.1165, 0.9790650
761.5986, 1.297516
762.0807, 1.313049
762.5628, 1.101379
763.0449, 0.9568180
763.5270, 1.040192
764.0092, 1.207977
764.4913, 1.334930
764.9734, 1.433044
765.4555, 1.551666
765.9376, 1.730225
766.4197, 1.905090
766.9019, 2.020477
767.3840, 2.094849
767.8661, 2.225464
768.3482, 2.392639
768.8303, 2.651428
769.3124, 3.120880
769.7946, 3.677277
770.2767, 3.861237
770.7588, 3.692719
771.2409, 3.396332
771.7230, 2.816559
772.2051, 2.389587
772.6873, 2.595032
773.1694, 3.370422
773.6515, 4.308990
774.1336, 5.650421
774.6157, 6.832489
775.0978, 7.518219
775.5800, 7.664764
776.0621, 7.906250
776.5442, 8.413879
777.0263, 8.836029
777.5084, 8.724823
777.9905, 8.344940
778.4727, 9.223114
778.9548, 11.25800
779.4369, 13.09500
779.9190, 13.49060
780.4011, 13.39417
780.8832, 13.73596
781.3654, 14.59808
781.8475, 15.53363
782.3296, 16.71628
782.8117, 17.60074
783.2938, 17.72662
783.7759, 16.94339
784.2581, 17.36377
784.7402, 19.26956
785.2223, 21.49939
785.7044, 23.41815
786.1865, 25.03326
786.6686, 26.31256
787.1508, 27.27029
787.6329, 28.24084
788.1150, 29.29553
788.5971, 30.61453
789.0792, 32.39987
789.5613, 34.73270
790.0435, 37.12003
790.5256, 39.61328
791.0077, 41.96698
791.4898, 44.00339
791.9719, 45.59439
792.4540, 47.74243
792.9362, 50.44147
793.4183, 53.48129
793.9004, 56.83347
794.3825, 60.35651
794.8646, 63.56860
795.3467, 66.46216
795.8289, 69.11755
796.3110, 71.15610
796.7931, 73.27560
797.2752, 76.13663
797.7573, 80.08817
798.2394, 83.74493
798.7216, 86.71451
799.2037, 89.57465
799.6858, 92.63324
800.1679, 95.92273
800.6500, 99.82117
801.1321, 104.4207
801.6143, 109.1071
802.0964, 112.9566
802.5785, 116.7460
803.0606, 122.1174
803.5427, 129.3001
804.0248, 136.6685
804.5070, 142.9176
804.9891, 149.3074
805.4712, 156.7548
805.9533, 165.6351
806.4354, 174.9413
806.9175, 184.2448
807.3997, 194.4571
807.8818, 206.2719
808.3639, 219.6529
808.8460, 234.9519
809.3281, 252.2313
809.8102, 270.6950
810.2924, 288.7904
810.7745, 308.0003
811.2566, 330.2665
811.7387, 355.6375
812.2208, 384.2785
812.7029, 417.3419
813.1851, 452.9328
813.6672, 489.8160
814.1493, 527.7700
814.6314, 567.7194
815.1135, 609.5587
815.5956, 652.8698
816.0778, 696.4442
816.5599, 740.7164
817.0420, 786.3453
817.5241, 833.5397
818.0062, 884.3776
818.4883, 940.6277
818.9705, 1002.029
819.4526, 1067.373
819.9347, 1135.837
820.4168, 1211.166
820.8989, 1298.364
821.3810, 1388.925
821.8632, 1479.598
822.3453, 1570.258
822.8274, 1665.126
823.3095, 1764.376
823.7916, 1857.394
824.2737, 1942.161
824.7559, 2011.475
825.2380, 2054.730
825.7201, 2070.327
826.2022, 2044.809
826.6843, 1962.253
827.1664, 1841.615
827.6486, 1687.578
828.1307, 1492.776
828.6128, 1311.169
829.0949, 1139.075
829.5770, 984.5468
830.0591, 849.9473
830.5413, 735.6951
831.0234, 641.3973
831.5055, 566.9557
831.9876, 505.8318
832.4697, 455.7540
832.9518, 414.3913
833.4340, 379.2917
833.9161, 350.3234
834.3982, 325.4982
834.8803, 305.8681
835.3624, 288.6972
835.8445, 272.4587
836.3267, 257.2881
836.8088, 245.3554
837.2909, 237.3502
837.7730, 229.7222
838.2551, 220.2305
838.7372, 209.7776
839.2194, 200.9824
839.7015, 193.5175
840.1836, 185.4815
840.6657, 175.5470
841.1478, 164.9000
841.6299, 154.0888
842.1121, 143.1663
842.5942, 132.6071
843.0763, 121.8408
843.5584, 112.3328
844.0405, 104.7531
844.5226, 98.70917
845.0048, 92.55148
845.4869, 86.33789
845.9690, 80.98901
846.4511, 77.34378
846.9332, 74.54620
847.4153, 71.92035
847.8975, 69.41815
848.3796, 66.89764
848.8617, 64.07166
849.3438, 61.51077
849.8259, 59.51840
850.3080, 57.88055
850.7902, 55.94601
851.2723, 53.58743
851.7544, 51.91074
852.2365, 51.50400
852.7186, 51.52216
853.2007, 50.62888
853.6829, 48.92407
854.1650, 46.65445
854.6471, 43.19766
855.1292, 40.09259
855.6113, 38.34796
856.0934, 37.38803
856.5756, 36.10236
857.0577, 34.19910
857.5398, 32.40775
858.0219, 30.71036
858.5040, 29.24963
858.9861, 28.81717
859.4683, 29.02847
859.9504, 27.54324
860.4325, 23.37051
860.9146, 18.89474
861.3967, 16.36438
861.8788, 14.82776
862.3610, 13.04495
862.8431, 10.14243
863.3252, 8.139893
863.8073, 7.673676
864.2894, 7.653595
864.7715, 6.974152
865.2537, 5.593262
865.7358, 4.611450
866.2179, 4.161163
866.7000, 3.748505
867.1821, 2.847168
867.6642, 1.678711
868.1464, 0.4633180
868.6285, 0.8516850
869.1106, 1.645264
869.5927, 1.125488
870.0748, 0.4766240
870.5569, 0.5394290
871.0391, 1.476685
871.5212, 2.042297
872.0033, 2.194946
872.4854, 2.156342
872.9675, 2.185333
873.4496, 2.154327
873.9318, 1.414368
874.4139, 1.1902000E-02
874.8960, 0.9840390
875.3781, 0.4998780
875.8602, 0.2750850
876.3423, 0.8178410
876.8245, 1.064331
877.3066, 0.4578250
877.7887, 1.634613
878.2708, 3.332275
878.7529, 3.605896
879.2350, 2.958374
879.7172, 3.389832
880.1993, 4.745300
880.6814, 5.765564
881.1635, 5.191803
881.6456, 4.437683
882.1277, 4.624084
882.6099, 5.542389
883.0920, 6.489807
883.5741, 7.297119
884.0562, 8.175232
884.5383, 9.151855
885.0204, 10.25674
885.5026, 11.62787
885.9847, 13.15842
886.4668, 14.18347
886.9489, 14.37170
887.4310, 14.46463
887.9131, 15.36304
888.3953, 16.63910
888.8774, 17.66858
889.3595, 18.19238
889.8416, 18.60419
890.3237, 18.87579
890.8058, 19.15930
891.2880, 19.67569
891.7701, 20.46790
892.2522, 20.93420
892.7343, 20.99319
893.2164, 20.95364
893.6985, 20.99051
894.1807, 21.18860
894.6628, 21.78873
895.1449, 22.91733
895.6270, 23.74213
896.1091, 23.48581
896.5912, 23.25916
897.0734, 23.78485
897.5555, 25.14441
898.0376, 26.32126
898.5197, 27.33783
899.0018, 28.03152
899.4839, 28.03555
899.9661, 27.74097
900.4482, 27.93439
900.9303, 28.55576
901.4124, 29.10818
901.8945, 29.43765
902.3766, 29.55261
902.8588, 29.25397
903.3409, 28.69772
903.8230, 28.64838
904.3051, 29.27100
904.7872, 29.74283
905.2693, 29.89099
905.7515, 29.59415
906.2336, 28.25626
906.7157, 26.24695
907.1978, 24.64774
907.6799, 24.06137
908.1620, 23.78702
908.6442, 23.83792
909.1263, 23.88632
909.6084, 23.38412
910.0905, 22.14822
910.5726, 20.82327
911.0547, 19.38275
911.5369, 18.03214
912.0190, 17.09656
912.5011, 16.46255
912.9832, 15.78491
913.4653, 14.98376
913.9474, 14.28186
914.4296, 13.77856
914.9117, 13.46005
915.3938, 13.45483
915.8759, 14.02097
916.3580, 13.58350
916.8401, 11.71664
917.3223, 9.882416
917.8044, 9.244263
918.2865, 9.466125
918.7686, 9.294891
919.2507, 8.749725
919.7328, 8.118530
920.2150, 7.591766
920.6971, 7.035339
921.1792, 6.171082
921.6613, 5.121521
922.1434, 4.777069
922.6255, 5.542480
923.1077, 6.106415
923.5898, 6.104431
924.0719, 5.657166
924.5540, 4.879852
925.0361, 3.859985
925.5182, 2.964264
926.0004, 2.182281
926.4825, 1.755035
926.9646, 2.032776
927.4467, 2.705933
927.9288, 3.296539
928.4109, 4.046692
928.8931, 3.984406
929.3752, 2.800568
929.8573, 1.371033
930.3394, 0.7760310
930.8215, 0.7695620
931.3036, 0.3801570
931.7858, 0.5110780
932.2679, 1.295135
932.7500, 1.642975
933.2321, 1.689514
933.7142, 1.409058
934.1964, 0.7103270
934.6785, 0.6293950
935.1606, 1.439178
935.6427, 2.110016
936.1248, 1.977905
936.6069, 1.333191
937.0891, 1.280823
937.5712, 1.677795
938.0533, 1.792419
938.5354, 0.8620610
939.0175, 9.1034003E-02
939.4996, 0.4975280
939.9818, 0.4564510
940.4639, 0.3088380
940.9460, 9.9120997E-02
941.4281, 0.3853760
941.9102, 1.381653
942.3923, 2.289063
942.8745, 1.839203
943.3566, 0.4955440
943.8387, 0.3500060
944.3208, 0.2355350
944.8029, 5.3589001E-02
945.2850, 0.2852170
945.7672, 0.7095030
946.2493, 1.154633
946.7314, 1.669556
947.2135, 1.944458
947.6956, 1.903015
948.1777, 1.896912
948.6599, 2.342010
949.1420, 2.990265
949.6241, 3.096069
950.1062, 2.731842
950.5883, 2.614899
951.0704, 3.307800
951.5526, 4.166809
952.0347, 5.003845
952.5168, 5.742371
952.9989, 5.984863
953.4810, 5.550262
953.9631, 5.526703
954.4453, 6.394135
954.9274, 7.523132
955.4095, 7.666809
955.8916, 7.302765
956.3737, 7.509705
956.8558, 9.077301
957.3380, 10.41470
957.8201, 10.73596
958.3022, 10.75702
958.7843, 11.14487
959.2664, 11.97943
959.7485, 12.73804
960.2307, 13.38171
960.7128, 14.10660
961.1949, 15.30569
961.6770, 16.58167
962.1591, 17.15323
962.6412, 17.04111
963.1234, 17.38358
963.6055, 18.87335
964.0876, 20.57932
964.5697, 22.23334
965.0518, 23.81790
965.5339, 25.29147
966.0161, 26.65558
966.4982, 28.06985
966.9803, 29.45358
967.4624, 31.13739
967.9445, 33.67795
968.4266, 36.71384
968.9088, 39.59692
969.3909, 41.81488
969.8730, 44.44165
970.3551, 47.87286
970.8372, 51.34042
971.3193, 53.84879
971.8015, 55.56924
972.2836, 58.23703
972.7657, 61.97949
973.2478, 66.69687
973.7299, 72.98230
974.2120, 79.77063
974.6942, 86.11615
975.1763, 91.94846
975.6584, 98.21204
976.1405, 104.7235
976.6226, 112.2673
977.1047, 121.2872
977.5869, 131.4146
978.0690, 141.6987
978.5511, 151.9916
979.0332, 162.0495
979.5153, 171.7953
979.9974, 181.3907
980.4796, 190.2067
980.9617, 199.2751
981.4438, 209.9062
981.9259, 222.2570
982.4080, 236.1694
982.8901, 251.8145
983.3723, 268.6116
983.8544, 285.8593
984.3365, 303.8958
984.8186, 323.9385
985.3007, 346.0824
985.7828, 367.3173
986.2650, 386.9916
986.7471, 404.9789
987.2292, 421.6128
987.7113, 436.6625
988.1934, 449.0712
988.6755, 458.8583
989.1577, 465.8173
989.6398, 469.4299
990.1219, 470.7276
990.6040, 470.3580
991.0861, 468.6218
991.5682, 466.0089
992.0504, 462.2771
992.5325, 458.1472
993.0146, 453.1410
993.4967, 448.3708
993.9788, 445.5746
994.4609, 444.3192
994.9431, 440.4925
995.4252, 433.8360
995.9073, 425.2036
996.3894, 415.0252
996.8715, 403.3184
997.3536, 389.9288
997.8358, 374.8438
998.3179, 357.8236
998.8000, 338.0815
999.2821, 318.3380
999.7642, 298.9858
1000.246, 280.1858
1000.728, 263.0651
1001.211, 247.1912
1001.693, 231.8531
1002.175, 216.2836
1002.657, 201.9253
1003.139, 190.1229
1003.621, 179.6259
1004.103, 169.3380
1004.585, 159.3389
1005.068, 149.2034
1005.550, 138.7838
1006.032, 128.7658
1006.514, 119.4233
1006.996, 110.8175
1007.478, 103.0140
1007.960, 95.91351
1008.442, 89.07681
1008.924, 81.98203
1009.407, 75.53769
1009.889, 69.97391
1010.371, 65.04361
1010.853, 60.26321
1011.335, 55.58691
1011.817, 50.97302
1012.299, 46.23291
1012.781, 42.22919
1013.263, 40.07059
1013.746, 38.64188
1014.228, 36.87802
1014.710, 34.64005
1015.192, 32.41092
1015.674, 30.14093
1016.156, 28.07944
1016.638, 26.44724
1017.120, 25.12048
1017.603, 23.75464
1018.085, 22.42044
1018.567, 21.24829
1019.049, 20.15363
1019.531, 19.38364
1020.013, 19.26636
1020.495, 19.32947
1020.977, 18.73837
1021.459, 17.48529
1021.942, 16.65222
1022.424, 16.45245
1022.906, 16.02115
1023.388, 14.04907
1023.870, 11.78577
1024.352, 10.53998
1024.834, 10.54947
1025.316, 10.48450
1025.799, 10.32666
1026.281, 9.932434
1026.763, 9.127258
1027.245, 8.159088
1027.727, 7.702087
1028.209, 7.617981
1028.691, 7.426178
1029.173, 6.814423
1029.656, 6.254181
1030.138, 6.101807
1030.620, 6.021088
1031.102, 5.565643
1031.584, 4.557343
1032.066, 4.259521
1032.548, 4.765991
1033.030, 5.254913
1033.512, 4.860046
1033.995, 4.179443
1034.477, 3.939880
1034.959, 4.105011
1035.441, 4.234772
1035.923, 4.439972
1036.405, 4.242035
1036.887, 3.364075
1037.369, 2.254883
1037.851, 1.753204
1038.334, 1.777069
1038.816, 2.057861
1039.298, 2.643341
1039.780, 3.024963
1040.262, 2.788727
1040.744, 2.303925
1041.226, 1.855927
1041.708, 1.456909
1042.191, 1.019836
1042.673, 0.5270390
1043.155, 9.2528999E-02
1043.637, 0.2655640
1044.119, 0.4865110
1044.601, 0.4020390
1045.083, 0.1233830
1045.565, 8.7677002E-02
1046.047, 0.2491150
1046.530, 0.1370850
1047.012, 0.5310670
1047.494, 1.079315
1047.976, 0.4995730
1048.458, 0.9094240
1048.940, 1.635834
1049.422, 1.583527
1049.904, 1.376526
1050.386, 1.424805
1050.869, 1.419952
1051.351, 1.022491
1051.833, 1.053802
1052.315, 1.016907
1052.797, 0.7113950
1053.279, 0.9284970
1053.761, 0.5982670
1054.243, 0.1753850
1054.726, 0.1425480
1055.208, 0.4247130
1055.690, 0.9924320
1056.172, 2.054779
1056.654, 2.681976
1057.136, 2.706177
1057.618, 2.489563
1058.100, 2.216949
1058.583, 1.889740
1059.065, 1.562012
1059.547, 1.198151
1060.029, 0.6256100
1060.511, 1.000214
1060.993, 1.964783
1061.475, 0.8912050
1061.957, 0.9450070
1062.439, 1.798096
1062.922, 1.564178
1063.404, 1.264191
1063.886, 0.9606630
1064.368, 0.7973330
1064.850, 1.051178
1065.332, 1.394592
1065.814, 1.527435
1066.296, 1.433105
1066.778, 1.127106
1067.261, 0.2115780
1067.743, 3.4363002E-02
1068.225, 1.230286
1068.707, 2.858002
1069.189, 3.043854
1069.671, 2.292419
1070.153, 1.815887
1070.635, 2.029144
1071.118, 2.075439
1071.600, 1.367981
1072.082, 0.6417540
1072.564, 0.4319460
1073.046, 0.6285100
1073.528, 9.6100003E-02
1074.010, 1.053833
1074.492, 1.613434
1074.974, 0.3860780
1075.457, 1.054504
1075.939, 1.721497
1076.421, 1.754425
1076.903, 1.281891
1077.385, 0.1328130
1077.867, 0.5792240
1078.349, 0.2034300
1078.831, 1.211761
1079.313, 1.650635
1079.796, 1.640259
1080.278, 1.072906
1080.760, 9.6954003E-02
1081.242, 0.2995610
1081.724, 0.7967220
1082.206, 1.726929
1082.688, 2.173798
1083.170, 2.265472
1083.652, 2.069336
1084.135, 1.703583
1084.617, 1.626373
1085.099, 1.942444
1085.581, 2.471619
1086.063, 3.825256
1086.545, 4.693939
1087.027, 3.983215
1087.509, 1.877350
1087.992, 0.7314450
1088.474, 0.5506590
1088.956, 0.6197810
1089.438, 0.7589420
1089.920, 0.8436280
1090.402, 0.6017460
1090.884, 0.2923890
1091.366, 0.2913510
1091.849, 0.7696230
1092.331, 1.269928
1092.813, 1.880402
1093.295, 2.223694
1093.777, 1.805939
1094.259, 1.031433
1094.741, 0.5029910
1095.223, 0.2684940
1095.705, 0.4526980
1096.188, 1.702087
1096.670, 2.521179
1097.152, 2.577240
1097.634, 2.241119
1098.116, 1.932953
1098.598, 1.645996
1099.080, 1.255981
1099.562, 0.7589110
1100.044, 0.6357120
1100.527, 1.783875
1101.009, 2.776520
1101.491, 2.701141
1101.973, 1.937775
1102.455, 1.483429
1102.937, 1.310486
1103.419, 1.166504
1103.901, 0.9886780
1104.384, 0.8342900
1104.866, 0.5678100
1105.348, 0.4382020
1105.830, 0.9399110
1106.312, 2.223328
1106.794, 2.744537
1107.276, 2.325897
1107.758, 1.830414
1108.240, 1.571106
1108.723, 1.540283
1109.205, 1.796722
1109.687, 2.250305
1110.169, 2.739227
1110.651, 3.437622
1111.133, 3.714111
1111.615, 3.363770
1112.097, 2.897461
1112.579, 2.773834
1113.062, 2.848907
1113.544, 2.217682
1114.026, 1.214966
1114.508, 1.298889
1114.990, 5.048737
1115.472, 7.635254
1115.954, 6.921875
1116.436, 4.787903
1116.919, 3.306519
1117.401, 2.484863
1117.883, 2.956482
1118.365, 4.738190
1118.847, 5.802734
1119.329, 4.104431
1119.811, 1.997284
1120.293, 0.9905700
1120.776, 0.8518370
1121.258, 0.6331180
1121.740, 0.2916260
1122.222, 0.3262020
1122.704, 0.9414670
1123.186, 1.487274
1123.668, 0.9137570
1124.150, 0.1644290
1124.632, 0.4108890
1125.115, 1.910004
1125.597, 2.649261
1126.079, 2.390656
1126.561, 2.120361
1127.043, 2.271179
1127.525, 2.525238
1128.007, 2.452576
1128.489, 2.088501
1128.971, 1.417175
1129.454, 0.1364750
1129.936, 0.5670780
1130.418, 0.4062810
1130.900, 1.7914001E-02
1131.382, 0.2925420
1131.864, 0.4584350
1132.346, 0.4147640
1132.828, 0.2982180
1133.311, 0.1548460
1133.793, 0.1122740
1134.275, 0.2586360
1134.757, 0.2072450
1135.239, 8.7311000E-02
1135.721, 4.8340000E-02
1136.203, 3.2379001E-02
1136.685, 0.2240600
1137.167, 0.6909480
1137.650, 1.037628
1138.132, 0.9960630
1138.614, 0.8576350
1139.096, 0.6666560
1139.578, 0.5346070
1140.060, 0.6019590
1140.542, 0.8858340
1141.024, 1.402893
1141.506, 2.197235
1141.989, 2.570068
1142.471, 1.417114
1142.953, 0.1186520
1143.435, 0.1604310
1143.917, 0.5874940
1144.399, 0.6478580
1144.881, 1.4740000E-02
1145.363, 0.2899780
1145.846, 1.823914
1146.328, 3.298462
1146.810, 3.067017
1147.292, 2.114990
1147.774, 1.367920
1148.256, 0.9471740
1148.738, 0.9444270
1149.220, 1.516998
1149.703, 1.915710
1150.185, 1.810059
1150.667, 1.532776
1151.149, 1.638519
1151.631, 1.890656
1152.113, 1.852448
1152.595, 1.238831
1153.077, 1.102661
1153.559, 1.693634
1154.042, 2.335083
1154.524, 2.727478
1155.006, 2.879578
1155.488, 2.763824
1155.970, 2.426117
1156.452, 1.954681
1156.934, 1.009796
1157.416, 0.6996150
1157.898, 1.625336
1158.381, 2.394867
1158.863, 1.465607
1159.345, 0.4789430
1159.827, 0.4364620
1160.309, 1.161896
1160.791, 2.590240
1161.273, 3.097931
1161.755, 3.244873
1162.238, 2.992798
1162.720, 2.666565
1163.202, 2.746582
1163.684, 3.091644
1164.166, 2.648743
1164.648, 1.487396
1165.130, 0.6927800
1165.612, 1.316589
1166.094, 1.929993
1166.577, 1.897827
1167.059, 1.522034
1167.541, 1.212708
1168.023, 0.9706120
1168.505, 0.8047790
1168.987, 0.7186890
1169.469, 0.6838990
1169.951, 0.8606260
1170.433, 0.9050900
1170.916, 0.3430790
1171.398, 0.4340520
1171.880, 0.3350220
1172.362, 0.6266480
1172.844, 1.371185
1173.326, 1.673157
1173.808, 1.797424
1174.290, 1.864685
1174.773, 1.929932
1175.255, 2.075806
1175.737, 2.258087
1176.219, 2.250214
1176.701, 2.042358
1177.183, 1.849304
1177.665, 1.735352
1178.147, 1.657654
1178.630, 1.419861
1179.112, 1.374115
1179.594, 2.023499
1180.076, 3.331940
1180.558, 3.777161
1181.040, 3.265228
1181.522, 2.609650
1182.004, 2.050476
1182.486, 1.709076
1182.969, 1.685150
1183.451, 1.813385
1183.933, 2.005890
1184.415, 2.254181
1184.897, 2.653168
1185.379, 3.269348
1185.861, 3.569427
1186.343, 2.974976
1186.825, 2.332306
1187.308, 3.055359
1187.790, 4.225220
1188.272, 4.384247
1188.754, 2.792633
1189.236, 1.925873
1189.718, 1.841736
1190.200, 2.065277
1190.682, 2.563416
1191.165, 3.000488
1191.647, 2.583374
1192.129, 3.054657
1192.611, 3.308350
1193.093, 3.124786
1193.575, 3.769287
1194.057, 3.435211
1194.539, 2.859528
1195.021, 2.639648
1195.504, 2.500427
1195.986, 1.731506
1196.468, 0.7245790
1196.950, 0.7333980
1197.432, 2.834717
1197.914, 3.917175
1198.396, 3.619568
1198.878, 2.883636
1199.360, 2.340698
1199.843, 2.091339
1200.325, 2.580780
1200.807, 3.547974
1201.289, 3.873169
1201.771, 3.056610
1202.253, 2.253662
1202.735, 1.564484
1203.217, 1.174591
1203.700, 1.533325
1204.182, 2.226440
1204.664, 2.620972
1205.146, 2.739746
1205.628, 3.086456
1206.110, 3.944733
1206.592, 4.549835
1207.074, 4.778809
1207.557, 4.717834
1208.039, 4.256866
1208.521, 3.678284
1209.003, 3.410919
1209.485, 3.475006
1209.967, 3.601227
1210.449, 3.772980
1210.931, 3.931549
1211.413, 4.070343
1211.896, 4.207703
1212.378, 4.300720
1212.860, 4.836914
1213.342, 4.404572
1213.824, 4.416718
1214.306, 4.355682
1214.788, 3.509613
1215.270, 3.732056
1215.752, 2.719574
1216.235, 1.386902
1216.717, 0.9255980
1217.199, 1.005432
1217.681, 1.284729
1218.163, 1.774200
1218.645, 2.380096
1219.127, 3.375244
1219.609, 3.562958
1220.092, 2.269897
1220.574, 0.6661990
1221.056, 0.5755920
1221.538, 1.262848
1222.020, 1.653198
1222.502, 1.497833
1222.984, 1.637787
1223.466, 2.186676
1223.948, 2.740265
1224.431, 3.113678
1224.913, 3.477325
1225.395, 4.386322
1225.877, 5.317078
1226.359, 5.335724
1226.841, 4.001953
1227.323, 3.569122
1227.805, 4.381104
1228.287, 4.711548
1228.770, 3.616302
1229.252, 2.064789
1229.734, 1.268799
1230.216, 1.079834
1230.698, 1.344574
1231.180, 2.271637
1231.662, 2.312897
1232.144, 1.292938
1232.627, 0.4202580
1233.109, 0.2795720
1233.591, 0.5020750
1234.073, 0.9239200
1234.555, 1.297119
1235.037, 1.259125
1235.519, 0.7420650
1236.001, 5.6030001E-02
1236.484, 0.8454280
1236.966, 1.401428
1237.448, 1.248688
1237.930, 0.7375790
1238.412, 0.1646730
1238.894, 0.9957890
1239.376, 0.9437260
1239.858, 0.2310490
1240.340, 0.4506530
1240.823, 0.3177490
1241.305, 1.160339
1241.787, 1.587585
1242.269, 1.872528
1242.751, 2.292877
1243.233, 2.654419
1243.715, 2.703552
1244.197, 2.412659
1244.679, 2.023285
1245.162, 1.543579
1245.644, 1.086548
1246.126, 0.4844970
1246.608, 0.2608950
1247.090, 1.568756
1247.572, 2.976593
1248.054, 2.609619
1248.536, 0.3547360
1249.019, 6.7016996E-02
1249.501, 1.575104
1249.983, 2.994385
1250.465, 3.420258
1250.947, 3.399963
1251.429, 2.809113
1251.911, 2.134216
1252.393, 1.796204
1252.875, 1.760956
1253.358, 2.110352
1253.840, 2.760803
1254.322, 3.074310
1254.804, 2.121307
1255.286, 1.541656
1255.768, 2.274506
1256.250, 3.179199
1256.732, 3.243866
1257.214, 2.639679
1257.697, 2.276855
1258.179, 2.177399
1258.661, 2.397278
1259.143, 3.595032
1259.625, 4.163727
1260.107, 3.492920
1260.589, 2.661652
1261.071, 2.547058
1261.554, 2.996063
1262.036, 3.716156
1262.518, 4.557220
1263.000, 5.023468
1263.482, 4.721893
1263.964, 4.184784
1264.446, 3.261993
1264.928, 2.553558
1265.411, 2.586975
1265.893, 3.167725
1266.375, 4.087952
1266.857, 5.188995
1267.339, 6.147827
1267.821, 7.259369
1268.303, 7.268585
1268.785, 6.027405
1269.267, 4.637268
1269.750, 3.843231
1270.232, 3.127594
1270.714, 2.458405
1271.196, 2.149597
1271.678, 2.017090
1272.160, 2.083191
1272.642, 2.503448
1273.124, 3.211792
1273.606, 3.525085
1274.089, 2.043579
1274.571, 0.7653810
1275.053, 2.282623
1275.535, 5.020569
1276.017, 5.672241
1276.499, 3.706940
1276.981, 3.226288
1277.463, 4.190094
1277.946, 4.758698
1278.428, 3.101379
1278.910, 1.466858
1279.392, 1.454590
1279.874, 2.082397
1280.356, 2.039459
1280.838, 1.334991
1281.320, 1.580780
1281.802, 2.630554
1282.285, 3.056091
1282.767, 1.165466
1283.249, 0.2078250
1283.731, 0.4125670
1284.213, 1.434723
1284.695, 1.255280
1285.177, 0.2953800
1285.659, 0.9780580
1286.141, 2.802765
1286.624, 3.639923
1287.106, 1.201019
1287.588, 0.1660460
1288.070, 0.3693240
1288.552, 1.456177
1289.034, 2.251404
1289.516, 2.693756
1289.998, 2.247223
1290.481, 1.252747
1290.963, 0.5886230
1291.445, 0.8380430
1291.927, 0.7918090
1292.409, 0.3250730
1292.891, 2.2156000E-02
1293.373, 0.4489140
1293.855, 1.153778
1294.338, 1.092682
1294.820, 0.6041260
1295.302, 0.2485350
1295.784, 7.7758998E-02
1296.266, 1.1688000E-02
1296.748, 0.3556820
1297.230, 0.8378300
1297.712, 1.480621
1298.194, 1.982269
1298.677, 1.995972
1299.159, 1.851776
1299.641, 2.036743
1300.123, 2.615967
1300.605, 2.350464
1301.087, 1.347046
1301.569, 0.5508120
1302.051, 0.7702640
1302.533, 0.7187500
1303.016, 0.0000000E+00
##END=



