##NAMES=Metarauchite
##RRUFFID=R120114
##IDEAL CHEMISTRY=Ni^2+^(U^6+^O_2_)_2_(As^5+^O_4_)_2_&#183;8H_2_O
##LOCALITY=Schweizer vein, 90 level, Eduard mine, Jachymov, Krusne Hory Mts., Czech Republic
##OWNER=RRUFF
##SOURCE=Dr Peter Kolesar
##DESCRIPTION=Aggregates of yellow play crystals, associated with green platy metazeunerite
##STATUS=The identification of this mineral has been confirmed only by single crystal X-ray diffraction.
##URL=rruff.info/R120114
142.7079, 0.0000000E+00
143.1900, 3.352051
143.6721, 0.8188480
144.1542, 1.919434
144.6364, 7.088867
145.1185, 5.487305
145.6006, 0.8164060
146.0827, 2.664063
146.5648, 2.544922
147.0469, 0.2675780
147.5291, 3.177734
148.0112, 7.930664
148.4933, 13.05615
148.9754, 16.17188
149.4575, 15.52148
149.9396, 15.88770
150.4218, 18.27148
150.9039, 22.54590
151.3860, 28.62451
151.8681, 36.59521
152.3502, 46.33398
152.8323, 56.35205
153.3145, 67.53223
153.7966, 78.03809
154.2787, 88.77490
154.7608, 98.57812
155.2429, 105.0166
155.7250, 105.5747
156.2072, 99.44775
156.6893, 99.17432
157.1714, 107.4639
157.6535, 117.7119
158.1356, 128.0938
158.6177, 138.1099
159.0999, 147.4746
159.5820, 155.8447
160.0641, 163.0459
160.5462, 170.2554
161.0283, 174.7036
161.5104, 180.9292
161.9926, 193.9736
162.4747, 214.3535
162.9568, 235.8115
163.4389, 252.2808
163.9210, 263.9277
164.4031, 271.3154
164.8853, 271.4316
165.3674, 268.2144
165.8495, 267.6812
166.3316, 271.3857
166.8137, 276.0244
167.2958, 278.0796
167.7780, 278.3501
168.2601, 279.6069
168.7422, 282.6118
169.2243, 287.4868
169.7064, 295.1133
170.1885, 307.1821
170.6707, 320.1821
171.1528, 332.0146
171.6349, 342.7529
172.1170, 352.9834
172.5991, 363.0244
173.0812, 372.8613
173.5634, 382.7954
174.0455, 392.2427
174.5276, 402.3916
175.0097, 413.3633
175.4918, 425.3721
175.9739, 438.9033
176.4561, 454.7554
176.9382, 473.9829
177.4203, 492.2969
177.9024, 509.3804
178.3845, 525.8501
178.8666, 541.6528
179.3488, 556.8745
179.8309, 572.0640
180.3130, 587.7285
180.7951, 603.8555
181.2772, 620.5527
181.7593, 637.4736
182.2415, 655.0562
182.7236, 673.8408
183.2057, 693.8823
183.6878, 714.4697
184.1699, 734.6221
184.6520, 754.8643
185.1342, 773.3940
185.6163, 788.7339
186.0984, 802.9663
186.5805, 818.7002
187.0626, 836.8633
187.5447, 855.5669
188.0269, 871.0312
188.5090, 883.3535
188.9911, 898.0752
189.4732, 915.2412
189.9553, 931.9580
190.4374, 945.6299
190.9196, 956.4707
191.4017, 966.5420
191.8838, 978.3921
192.3659, 992.1631
192.8480, 1003.976
193.3301, 1017.069
193.8123, 1031.292
194.2944, 1040.296
194.7765, 1041.705
195.2586, 1040.185
195.7407, 1040.416
196.2228, 1042.433
196.7050, 1044.040
197.1871, 1043.198
197.6692, 1040.055
198.1513, 1037.770
198.6334, 1038.375
199.1155, 1038.868
199.5977, 1037.059
200.0798, 1032.908
200.5619, 1028.000
201.0440, 1024.300
201.5261, 1022.105
202.0082, 1019.428
202.4904, 1016.912
202.9725, 1013.122
203.4546, 1006.922
203.9367, 998.2271
204.4188, 988.2397
204.9009, 978.5322
205.3831, 969.7222
205.8652, 958.9692
206.3473, 948.8843
206.8294, 935.1411
207.3115, 914.5908
207.7936, 887.0591
208.2758, 854.8652
208.7579, 821.0684
209.2400, 784.5952
209.7221, 748.8911
210.2042, 713.4668
210.6863, 679.1001
211.1685, 646.3662
211.6506, 615.2891
212.1327, 585.2222
212.6148, 554.9033
213.0969, 523.7710
213.5790, 494.3135
214.0612, 467.2329
214.5433, 441.3286
215.0254, 415.4580
215.5075, 389.5205
215.9896, 363.4600
216.4717, 337.2871
216.9539, 309.9634
217.4360, 285.1313
217.9181, 263.6523
218.4002, 244.2329
218.8823, 225.4819
219.3644, 207.1265
219.8466, 189.5649
220.3287, 173.1763
220.8108, 157.5879
221.2929, 144.8345
221.7750, 138.4321
222.2571, 133.8154
222.7393, 124.1777
223.2214, 107.4360
223.7035, 89.85010
224.1856, 80.18457
224.6677, 77.75342
225.1498, 75.49414
225.6320, 71.35156
226.1141, 66.35889
226.5962, 62.79932
227.0783, 61.86426
227.5604, 59.92480
228.0425, 51.13721
228.5247, 37.37256
229.0068, 26.50488
229.4889, 24.38477
229.9710, 27.11133
230.4531, 25.22217
230.9352, 15.61572
231.4174, 5.990234
231.8995, 3.120117
232.3816, 5.004883
232.8637, 6.426758
233.3458, 4.805176
233.8279, 0.7631840
234.3101, 4.221191
234.7922, 11.77490
235.2743, 17.19922
235.7564, 17.33594
236.2385, 13.75293
236.7206, 9.444336
237.2028, 5.354492
237.6849, 1.840820
238.1670, 0.4848630
238.6491, 2.166504
239.1312, 4.916504
239.6133, 7.873535
240.0955, 11.15430
240.5776, 15.43604
241.0597, 22.20752
241.5418, 30.00537
242.0239, 31.00391
242.5060, 18.69336
242.9882, 8.263184
243.4703, 5.504883
243.9524, 7.000000
244.4345, 8.060059
244.9166, 6.329590
245.3987, 1.728027
245.8809, 6.466797
246.3630, 22.87793
246.8451, 36.91943
247.3272, 46.29688
247.8093, 52.25781
248.2914, 56.60596
248.7736, 60.40283
249.2557, 63.00000
249.7378, 61.46484
250.2199, 47.52197
250.7020, 39.91895
251.1841, 46.24512
251.6663, 58.40625
252.1484, 66.67236
252.6305, 66.33691
253.1126, 60.01172
253.5947, 55.74512
254.0768, 51.85596
254.5590, 52.82861
255.0411, 64.21338
255.5232, 78.51660
256.0053, 86.53809
256.4874, 84.40820
256.9695, 76.94482
257.4517, 75.78516
257.9338, 87.74121
258.4159, 98.43115
258.8980, 107.7314
259.3801, 115.7168
259.8622, 122.2529
260.3444, 127.3086
260.8265, 131.5640
261.3086, 136.3535
261.7907, 143.2251
262.2728, 147.9673
262.7549, 149.3853
263.2371, 149.1802
263.7192, 148.9238
264.2013, 149.0522
264.6834, 149.1650
265.1655, 148.6479
265.6476, 147.1865
266.1298, 145.8257
266.6119, 145.2202
267.0940, 144.4038
267.5761, 141.9897
268.0582, 137.8081
268.5403, 133.8730
269.0225, 133.1143
269.5046, 136.9766
269.9867, 136.8662
270.4688, 127.4604
270.9509, 117.2476
271.4330, 114.6729
271.9152, 120.4429
272.3973, 127.5576
272.8794, 129.5591
273.3615, 125.8760
273.8436, 121.8335
274.3257, 116.0000
274.8079, 110.8447
275.2900, 108.3716
275.7721, 108.6211
276.2542, 110.5991
276.7363, 114.1440
277.2184, 118.9546
277.7006, 122.5923
278.1827, 125.0591
278.6648, 126.2852
279.1469, 125.5195
279.6290, 123.0400
280.1111, 120.9937
280.5933, 120.8862
281.0754, 122.1504
281.5575, 122.6436
282.0396, 122.8057
282.5217, 121.7397
283.0038, 118.2266
283.4860, 112.7158
283.9681, 107.4541
284.4502, 103.3896
284.9323, 100.2993
285.4144, 97.30371
285.8965, 93.80225
286.3787, 91.75830
286.8608, 93.44922
287.3429, 97.78027
287.8250, 100.4214
288.3071, 98.98193
288.7892, 96.62891
289.2714, 98.37695
289.7535, 104.6865
290.2356, 110.5386
290.7177, 114.7593
291.1998, 116.7285
291.6819, 113.9585
292.1641, 103.9512
292.6462, 92.17285
293.1283, 84.78125
293.6104, 81.59473
294.0925, 80.29248
294.5746, 81.41357
295.0568, 83.67480
295.5389, 84.03857
296.0210, 81.02100
296.5031, 77.79688
296.9852, 77.73584
297.4673, 79.96680
297.9495, 82.26318
298.4316, 84.56543
298.9137, 85.05225
299.3958, 80.62939
299.8779, 71.01807
300.3600, 64.40186
300.8422, 68.88574
301.3243, 79.10693
301.8064, 85.78516
302.2885, 83.75928
302.7706, 80.01221
303.2527, 84.07373
303.7349, 96.83203
304.2170, 108.2563
304.6991, 111.0488
305.1812, 110.9971
305.6633, 116.6562
306.1454, 131.2847
306.6276, 146.7007
307.1097, 155.3696
307.5918, 157.5342
308.0739, 158.3667
308.5560, 159.2729
309.0381, 159.3735
309.5203, 161.3940
310.0024, 166.3970
310.4845, 172.1597
310.9666, 173.8936
311.4487, 173.2246
311.9308, 173.3022
312.4130, 173.9453
312.8951, 176.2695
313.3772, 180.6489
313.8593, 186.9780
314.3414, 192.7046
314.8235, 195.9487
315.3057, 197.6665
315.7878, 201.0488
316.2699, 207.8037
316.7520, 212.6646
317.2341, 209.5718
317.7162, 201.6792
318.1984, 195.7354
318.6805, 195.0063
319.1626, 197.2852
319.6447, 199.9961
320.1268, 203.7075
320.6089, 205.1265
321.0911, 200.6519
321.5732, 193.1279
322.0553, 186.1606
322.5374, 180.1309
323.0195, 175.3813
323.5016, 173.0840
323.9838, 173.2563
324.4659, 172.2739
324.9480, 167.5679
325.4301, 161.8462
325.9122, 158.8145
326.3943, 159.1719
326.8765, 159.3750
327.3586, 157.2417
327.8407, 152.8574
328.3228, 146.4146
328.8049, 136.7510
329.2870, 126.6758
329.7692, 120.0967
330.2513, 116.6060
330.7334, 110.9531
331.2155, 96.79004
331.6976, 78.99902
332.1797, 70.15869
332.6619, 73.96582
333.1440, 80.03076
333.6261, 80.47900
334.1082, 76.71973
334.5903, 71.29590
335.0724, 60.83838
335.5546, 51.18896
336.0367, 52.23193
336.5188, 65.14404
337.0009, 76.59033
337.4830, 78.58057
337.9651, 73.93848
338.4473, 67.73242
338.9294, 58.51904
339.4115, 50.97168
339.8936, 50.35156
340.3757, 55.68994
340.8578, 59.57373
341.3400, 58.77148
341.8221, 55.64551
342.3042, 53.88770
342.7863, 53.61768
343.2684, 53.77100
343.7505, 54.12549
344.2327, 54.50244
344.7148, 54.34766
345.1969, 53.36035
345.6790, 52.29785
346.1611, 52.31006
346.6432, 53.19238
347.1254, 53.58447
347.6075, 54.29297
348.0896, 53.75488
348.5717, 49.18115
349.0538, 40.18164
349.5359, 30.94336
350.0181, 24.51611
350.5002, 20.47754
350.9823, 16.34180
351.4644, 12.25830
351.9465, 7.833008
352.4286, 1.723145
352.9108, 5.391602
353.3929, 10.08887
353.8750, 9.985840
354.3571, 7.097168
354.8392, 6.963867
355.3214, 12.06299
355.8035, 14.15137
356.2856, 6.336914
356.7677, 5.780762
357.2498, 11.66357
357.7319, 7.891602
358.2141, 0.4135740
358.6962, 7.213867
359.1783, 12.79736
359.6604, 15.07129
360.1425, 11.11963
360.6246, 5.367188
361.1068, 1.733398
361.5889, 0.5844730
362.0710, 0.5258790
362.5531, 0.3334960
363.0352, 7.8125000E-02
363.5173, 1.283203
363.9995, 5.738281
364.4816, 9.755371
364.9637, 12.63574
365.4458, 13.75049
365.9279, 31.96484
366.4100, 10.55371
366.8922, 2.884766
367.3743, 8.786621
367.8564, 15.41211
368.3385, 0.7583010
368.8206, 1.684082
369.3027, 3.253906
369.7849, 16.85547
370.2670, 2.997070
370.7491, 16.76025
371.2312, 20.70068
371.7133, 31.87646
372.1954, 16.46436
372.6776, 15.37842
373.1597, 16.62500
373.6418, 15.77100
374.1239, 12.85645
374.6060, 10.23047
375.0881, 9.766602
375.5703, 11.43652
376.0524, 13.35400
376.5345, 16.98877
377.0166, 19.28174
377.4987, 18.63965
377.9808, 16.47949
378.4630, 14.70166
378.9451, 14.18555
379.4272, 14.75098
379.9093, 16.03857
380.3914, 18.67871
380.8735, 21.02197
381.3557, 22.92822
381.8378, 24.58203
382.3199, 26.04297
382.8020, 27.35498
383.2841, 28.57812
383.7662, 29.54297
384.2484, 29.96338
384.7305, 32.00928
385.2126, 36.76416
385.6947, 42.15137
386.1768, 47.99170
386.6589, 53.93066
387.1411, 59.72412
387.6232, 65.52588
388.1053, 70.64062
388.5874, 72.52002
389.0695, 70.42627
389.5516, 66.20801
390.0338, 57.67188
390.5159, 48.93799
390.9980, 44.10547
391.4801, 44.29248
391.9622, 46.88037
392.4443, 48.55566
392.9265, 49.07861
393.4086, 51.27539
393.8907, 57.82422
394.3728, 63.96777
394.8549, 67.95264
395.3370, 69.40967
395.8192, 67.48047
396.3013, 59.96191
396.7834, 48.67041
397.2655, 39.33838
397.7476, 31.80664
398.2297, 26.72266
398.7119, 25.75781
399.1940, 27.00244
399.6761, 28.13623
400.1582, 28.34521
400.6403, 28.75537
401.1224, 31.41943
401.6046, 36.09131
402.0867, 38.06494
402.5688, 34.11621
403.0509, 28.86084
403.5330, 27.05127
404.0151, 28.58252
404.4973, 33.63281
404.9794, 46.45264
405.4615, 61.67920
405.9436, 68.91602
406.4257, 66.20215
406.9078, 61.48535
407.3900, 60.89795
407.8721, 63.82617
408.3542, 66.46680
408.8363, 68.87598
409.3184, 70.69580
409.8005, 70.78711
410.2827, 69.76660
410.7648, 70.30518
411.2469, 74.43408
411.7290, 80.14258
412.2111, 81.90479
412.6932, 77.67285
413.1754, 74.33154
413.6575, 74.18115
414.1396, 75.81494
414.6217, 77.59131
415.1038, 78.50879
415.5859, 78.34570
416.0681, 76.70850
416.5502, 73.35059
417.0323, 68.45068
417.5144, 60.02637
417.9965, 53.08398
418.4786, 49.88330
418.9608, 49.49512
419.4429, 49.92969
419.9250, 50.16504
420.4071, 50.79736
420.8892, 53.52588
421.3713, 60.07959
421.8535, 65.81641
422.3356, 72.76270
422.8177, 77.61377
423.2998, 76.68262
423.7819, 69.16992
424.2640, 61.80762
424.7462, 58.13525
425.2283, 57.49658
425.7104, 57.55518
426.1925, 63.57080
426.6746, 67.72510
427.1567, 66.96338
427.6389, 63.67383
428.1210, 60.19238
428.6031, 58.38086
429.0852, 57.80762
429.5673, 58.33301
430.0494, 60.23535
430.5316, 62.27686
431.0137, 63.81494
431.4958, 65.71582
431.9779, 69.56299
432.4600, 75.08154
432.9421, 78.77783
433.4243, 76.53516
433.9064, 69.96338
434.3885, 65.83691
434.8706, 64.43213
435.3527, 65.58447
435.8348, 71.83105
436.3170, 80.12842
436.7991, 85.15674
437.2812, 84.34180
437.7633, 81.57910
438.2454, 79.35449
438.7275, 77.90625
439.2097, 79.54346
439.6918, 86.32666
440.1739, 94.62598
440.6560, 98.76074
441.1381, 98.62744
441.6202, 98.16455
442.1024, 98.46045
442.5845, 98.99365
443.0666, 99.12598
443.5487, 98.82031
444.0308, 98.39404
444.5129, 97.88867
444.9951, 97.45947
445.4772, 98.40381
445.9593, 102.6450
446.4414, 105.8452
446.9235, 105.7827
447.4056, 104.1255
447.8878, 103.3926
448.3699, 104.4473
448.8520, 106.4565
449.3341, 108.1172
449.8162, 108.9883
450.2983, 110.8408
450.7805, 114.6143
451.2626, 118.3535
451.7447, 121.5757
452.2268, 123.9297
452.7089, 124.7983
453.1910, 123.6426
453.6732, 120.9272
454.1553, 118.4526
454.6374, 115.1494
455.1195, 114.0625
455.6016, 118.3789
456.0837, 123.0591
456.5659, 122.4297
457.0480, 116.0400
457.5301, 110.2476
458.0122, 113.1660
458.4943, 124.5635
458.9764, 131.6812
459.4586, 132.4307
459.9407, 131.2061
460.4228, 129.8276
460.9049, 128.3818
461.3870, 126.9375
461.8691, 125.2783
462.3513, 124.0435
462.8334, 125.0293
463.3155, 128.0698
463.7976, 128.2603
464.2797, 122.7690
464.7618, 115.3267
465.2440, 110.5928
465.7261, 108.5444
466.2082, 107.1636
466.6903, 105.0840
467.1724, 103.6860
467.6545, 105.9893
468.1367, 98.00244
468.6188, 114.9028
469.1009, 123.5605
469.5830, 124.6655
470.0651, 95.67969
470.5472, 105.5640
471.0294, 99.88184
471.5115, 93.57275
471.9936, 108.9497
472.4757, 84.37256
472.9578, 99.41162
473.4399, 98.64209
473.9221, 105.1240
474.4042, 95.98193
474.8863, 91.70459
475.3684, 103.0703
475.8505, 105.7378
476.3326, 94.76904
476.8148, 101.7432
477.2969, 76.67334
477.7790, 79.72998
478.2611, 94.92285
478.7432, 84.76514
479.2253, 92.04590
479.7075, 92.69531
480.1896, 63.17578
480.6717, 86.13770
481.1538, 86.41357
481.6359, 63.39648
482.1180, 84.58691
482.6002, 64.79297
483.0823, 59.63232
483.5644, 65.48877
484.0465, 59.87158
484.5286, 72.35303
485.0107, 67.43506
485.4929, 61.37500
485.9750, 62.39160
486.4571, 58.85547
486.9392, 61.72168
487.4213, 58.25928
487.9034, 61.76953
488.3856, 66.00000
488.8677, 70.99756
489.3498, 73.34668
489.8319, 69.08496
490.3140, 58.93457
490.7961, 51.62646
491.2783, 48.51562
491.7604, 46.75293
492.2425, 44.49072
492.7246, 42.94336
493.2067, 44.34326
493.6888, 49.54102
494.1710, 56.47266
494.6531, 61.84180
495.1352, 65.45850
495.6173, 68.01074
496.0994, 70.74463
496.5815, 71.39600
497.0637, 67.70703
497.5458, 61.11572
498.0279, 54.58545
498.5100, 49.75049
498.9921, 46.14404
499.4742, 42.88428
499.9564, 39.65430
500.4385, 36.54395
500.9206, 31.11914
501.4027, 27.86621
501.8848, 30.96045
502.3669, 39.41162
502.8491, 47.37061
503.3312, 50.67578
503.8133, 50.67334
504.2954, 51.51465
504.7775, 54.00293
505.2596, 53.39551
505.7418, 44.35791
506.2239, 32.70459
506.7060, 26.87109
507.1881, 28.26514
507.6702, 31.50879
508.1523, 35.02832
508.6345, 38.33350
509.1166, 40.68359
509.5987, 42.22070
510.0808, 42.46631
510.5629, 41.08887
511.0450, 38.34375
511.5272, 35.83154
512.0093, 34.26123
512.4914, 32.03857
512.9735, 26.73291
513.4556, 21.29053
513.9377, 20.40674
514.4199, 25.02930
514.9020, 31.06641
515.3841, 33.36670
515.8662, 31.40576
516.3483, 29.03613
516.8304, 26.06494
517.3126, 22.93701
517.7947, 19.61182
518.2768, 16.31006
518.7589, 13.22119
519.2410, 10.38770
519.7231, 8.053711
520.2053, 6.663086
520.6874, 6.247070
521.1695, 6.383301
521.6516, 7.728516
522.1337, 8.620605
522.6158, 7.847168
523.0980, 5.755371
523.5801, 3.376465
524.0622, 1.111816
524.5443, 1.268066
525.0264, 5.377441
525.5085, 10.40771
525.9907, 10.47607
526.4728, 1.889648
526.9549, 8.900391
527.4370, 11.64795
527.9191, 4.926270
528.4012, 0.1835940
528.8834, 0.1865230
529.3655, 0.7324220
529.8476, 1.333496
530.3297, 1.448242
530.8118, 0.8671880
531.2939, 0.6396480
531.7761, 2.455078
532.2582, 2.842285
532.7403, 1.336914
533.2224, 0.7695310
533.7045, 4.014648
534.1866, 7.050781
534.6688, 9.602539
535.1509, 11.36230
535.6330, 11.31836
536.1151, 8.440430
536.5972, 4.134766
537.0793, 2.166992
537.5615, 2.664551
538.0436, 4.711426
538.5257, 9.945313
539.0078, 15.18213
539.4899, 17.72754
539.9720, 17.49268
540.4542, 16.61816
540.9363, 17.54443
541.4184, 17.77588
541.9005, 12.28271
542.3826, 1.293945
542.8647, 8.145020
543.3469, 12.34668
543.8290, 12.73389
544.3111, 12.73926
544.7932, 12.27295
545.2753, 11.77979
545.7574, 12.54199
546.2396, 12.46436
546.7217, 8.813477
547.2038, 2.284180
547.6859, 3.799805
548.1680, 7.225098
548.6501, 8.139648
549.1323, 6.874023
549.6144, 0.5424800
550.0965, 2.895020
550.5786, 1.249512
551.0607, 2.212891
551.5428, 6.202148
552.0250, 9.964844
552.5071, 11.77686
552.9892, 8.898926
553.4713, 3.651855
553.9534, 3.752441
554.4355, 10.63135
554.9177, 15.71924
555.3998, 15.51807
555.8819, 11.62793
556.3640, 5.125977
556.8461, 4.819824
557.3282, 10.37109
557.8104, 5.573730
558.2925, 3.537598
558.7746, 9.807617
559.2567, 13.02539
559.7388, 16.48584
560.2209, 22.38965
560.7031, 29.77832
561.1852, 35.57617
561.6673, 41.31396
562.1494, 43.04834
562.6315, 36.91260
563.1136, 29.70850
563.5958, 26.69531
564.0779, 27.46484
564.5600, 28.70947
565.0421, 28.40771
565.5242, 26.27539
566.0063, 20.24561
566.4885, 7.374512
566.9706, 0.7602540
567.4527, 1.309570
567.9348, 7.192871
568.4169, 14.35059
568.8990, 21.96680
569.3812, 27.17920
569.8633, 27.68750
570.3454, 25.28076
570.8275, 21.91113
571.3096, 17.71289
571.7917, 13.78076
572.2739, 10.21533
572.7560, 7.719727
573.2381, 7.764160
573.7202, 10.83105
574.2023, 14.45752
574.6844, 19.53027
575.1666, 24.19092
575.6487, 26.20996
576.1308, 26.74805
576.6129, 29.75830
577.0950, 37.54834
577.5771, 46.21924
578.0593, 46.14209
578.5414, 32.31006
579.0235, 23.32080
579.5056, 22.38086
579.9877, 24.37256
580.4698, 29.05225
580.9520, 34.76953
581.4341, 38.39014
581.9162, 38.29785
582.3983, 35.95020
582.8804, 31.90283
583.3625, 26.44482
583.8447, 24.22949
584.3268, 26.84668
584.8089, 32.50732
585.2910, 42.23779
585.7731, 55.10596
586.2552, 60.62012
586.7374, 52.85400
587.2195, 42.87402
587.7016, 34.11182
588.1837, 27.60938
588.6658, 25.94727
589.1479, 29.61914
589.6301, 34.30371
590.1122, 34.22510
590.5943, 28.46729
591.0764, 27.25049
591.5585, 34.85547
592.0406, 42.03857
592.5228, 32.44971
593.0049, 51.12744
593.4870, 61.83594
593.9691, 65.01611
594.4512, 38.12695
594.9333, 50.16406
595.4155, 46.68701
595.8976, 42.60693
596.3797, 60.21143
596.8618, 37.84326
597.3439, 55.06445
597.8260, 56.45508
598.3082, 65.07227
598.7903, 58.01025
599.2724, 55.78369
599.7545, 69.22217
600.2366, 73.94629
600.7188, 64.64795
601.2009, 73.00586
601.6830, 70.16113
602.1651, 53.39062
602.6472, 69.70898
603.1293, 60.69873
603.6115, 58.66113
604.0936, 59.97119
604.5757, 60.75586
605.0578, 60.83447
605.5399, 58.90723
606.0220, 55.60107
606.5042, 53.20947
606.9863, 53.50146
607.4684, 54.78516
607.9505, 53.60059
608.4326, 50.26025
608.9147, 48.99902
609.3969, 51.46582
609.8790, 55.23584
610.3611, 58.10107
610.8432, 60.11230
611.3253, 60.99707
611.8074, 59.17578
612.2896, 58.05713
612.7717, 60.39453
613.2538, 64.34277
613.7359, 66.93115
614.2180, 67.26465
614.7001, 65.07422
615.1823, 59.87988
615.6644, 51.99951
616.1465, 49.96826
616.6286, 59.13818
617.1107, 65.44629
617.5928, 63.32178
618.0750, 58.03076
618.5571, 54.25391
619.0392, 52.92920
619.5213, 53.97070
620.0034, 58.59326
620.4855, 65.49414
620.9677, 72.00879
621.4498, 77.84814
621.9319, 82.10059
622.4140, 85.28174
622.8961, 86.83203
623.3782, 84.31641
623.8604, 75.67432
624.3425, 70.20801
624.8246, 70.68994
625.3067, 72.54346
625.7888, 72.72852
626.2709, 71.62061
626.7531, 70.65234
627.2352, 70.55713
627.7173, 71.92578
628.1994, 76.04150
628.6815, 83.18506
629.1636, 89.78564
629.6458, 98.14941
630.1279, 102.4658
630.6100, 97.45068
631.0921, 87.95654
631.5742, 82.11865
632.0563, 81.92773
632.5385, 84.23633
633.0206, 88.25146
633.5027, 92.74463
633.9848, 95.89502
634.4669, 97.65332
634.9490, 97.68115
635.4312, 95.17920
635.9133, 90.40723
636.3954, 85.79443
636.8775, 79.52588
637.3596, 76.78613
637.8417, 79.19727
638.3239, 83.75635
638.8060, 89.84424
639.2881, 96.38721
639.7702, 100.3657
640.2523, 98.91504
640.7344, 96.24756
641.2166, 102.7729
641.6987, 118.7295
642.1808, 126.2671
642.6629, 120.9106
643.1450, 110.6377
643.6271, 99.75293
644.1093, 89.22266
644.5914, 83.66846
645.0735, 88.08105
645.5556, 93.02148
646.0377, 94.36914
646.5198, 93.50146
647.0020, 91.53027
647.4841, 88.85791
647.9662, 86.53418
648.4483, 85.15527
648.9304, 84.76270
649.4125, 87.36475
649.8947, 97.06592
650.3768, 102.3066
650.8589, 99.13184
651.3410, 92.09473
651.8231, 82.74072
652.3052, 72.18604
652.7874, 63.98486
653.2695, 60.23535
653.7516, 59.08740
654.2337, 59.04004
654.7158, 59.73877
655.1979, 60.34912
655.6801, 60.44580
656.1622, 60.34082
656.6443, 60.38379
657.1264, 60.51855
657.6085, 60.16553
658.0906, 56.86963
658.5728, 56.30371
659.0549, 63.26221
659.5370, 71.80957
660.0191, 75.43750
660.5012, 73.05420
660.9833, 68.25439
661.4655, 63.56982
661.9476, 58.88330
662.4297, 53.32666
662.9118, 46.50146
663.3939, 42.39502
663.8760, 43.97217
664.3582, 46.67432
664.8403, 43.68359
665.3224, 35.60596
665.8045, 31.60840
666.2866, 35.99609
666.7687, 41.82861
667.2509, 46.48877
667.7330, 49.61279
668.2151, 50.99561
668.6972, 50.51758
669.1793, 47.57520
669.6614, 40.69141
670.1436, 30.43652
670.6257, 25.21973
671.1078, 27.45361
671.5899, 29.72803
672.0720, 30.67822
672.5541, 30.39307
673.0363, 28.05957
673.5184, 23.96924
674.0005, 21.15283
674.4826, 22.46387
674.9647, 24.40332
675.4468, 22.55859
675.9290, 18.33936
676.4111, 16.68457
676.8932, 19.18701
677.3753, 22.12598
677.8574, 20.49805
678.3395, 13.92236
678.8217, 13.15088
679.3038, 27.20605
679.7859, 35.54541
680.2680, 31.11230
680.7501, 21.98438
681.2322, 13.82324
681.7144, 8.093262
682.1965, 6.026855
682.6786, 10.41406
683.1607, 17.65576
683.6428, 22.90088
684.1249, 25.95312
684.6071, 23.92773
685.0892, 14.74805
685.5713, 4.620117
686.0534, 0.7329100
686.5355, 3.468262
687.0176, 5.585938
687.4998, 8.631836
687.9819, 9.098633
688.4640, 3.120117
688.9461, 4.020996
689.4282, 6.994629
689.9103, 5.254883
690.3925, 1.420410
690.8746, 3.718262
691.3567, 8.430664
691.8388, 7.412109
692.3209, 0.4125980
692.8030, 4.773926
693.2852, 5.210449
693.7673, 4.771973
694.2494, 7.722656
694.7315, 13.79736
695.2136, 18.61768
695.6957, 21.08789
696.1779, 23.31494
696.6600, 26.92822
697.1421, 30.17627
697.6242, 32.26514
698.1063, 32.26758
698.5884, 27.08887
699.0706, 13.08740
699.5527, 5.526855
700.0348, 16.98047
700.5169, 20.74170
700.9990, 19.99609
701.4811, 13.32666
701.9633, 5.098633
702.4454, 1.323242
702.9275, 6.262207
703.4096, 10.86963
703.8917, 16.49707
704.3738, 20.24414
704.8560, 21.34766
705.3381, 19.69971
705.8202, 12.65430
706.3023, 1.845703
706.7844, 4.773926
707.2665, 1.174805
707.7487, 8.300293
708.2308, 11.80127
708.7129, 8.217285
709.1950, 3.712891
709.6771, 2.361328
710.1592, 7.316895
710.6414, 10.20947
711.1235, 10.76562
711.6056, 7.792969
712.0877, 0.4975590
712.5698, 8.408203
713.0519, 13.68311
713.5341, 16.72803
714.0162, 17.26367
714.4983, 15.83887
714.9804, 14.17969
715.4625, 13.17871
715.9446, 13.00439
716.4268, 14.76562
716.9089, 19.98438
717.3910, 19.33154
717.8731, 7.281738
718.3552, 3.344238
718.8373, 5.675781
719.3195, 3.360352
719.8016, 1.060059
720.2837, 0.8105470
720.7658, 1.261230
721.2479, 0.5488280
721.7300, 3.920410
722.2122, 9.349121
722.6943, 15.63232
723.1764, 18.47900
723.6585, 16.06055
724.1406, 13.25879
724.6227, 17.69629
725.1049, 30.35400
725.5870, 41.14990
726.0691, 50.87988
726.5512, 57.13330
727.0333, 56.94141
727.5154, 54.15576
727.9976, 51.39746
728.4797, 49.11914
728.9618, 50.18164
729.4439, 55.08838
729.9260, 64.24951
730.4081, 82.25781
730.8903, 104.2065
731.3724, 118.9707
731.8545, 123.3491
732.3366, 120.4609
732.8187, 112.1455
733.3008, 99.22217
733.7830, 93.16113
734.2651, 97.76758
734.7472, 101.4927
735.2293, 99.95459
735.7114, 98.10791
736.1935, 99.99707
736.6757, 104.9854
737.1578, 109.1914
737.6399, 108.2905
738.1220, 109.2896
738.6041, 120.3506
739.0862, 134.8667
739.5684, 141.4272
740.0505, 139.2607
740.5326, 136.0771
741.0147, 137.2324
741.4968, 141.2969
741.9789, 143.6777
742.4611, 142.4268
742.9432, 146.0161
743.4253, 157.7651
743.9074, 171.1450
744.3895, 183.1074
744.8716, 194.1851
745.3538, 205.9883
745.8359, 219.7954
746.3180, 230.1245
746.8001, 229.7622
747.2822, 228.2588
747.7643, 236.1157
748.2465, 252.1572
748.7286, 270.5698
749.2107, 288.5264
749.6928, 305.3462
750.1749, 320.7456
750.6570, 334.9634
751.1392, 342.8975
751.6213, 339.4209
752.1034, 341.6636
752.5855, 360.2930
753.0676, 385.3804
753.5497, 404.2241
754.0319, 416.4282
754.5140, 430.6504
754.9961, 447.9966
755.4782, 468.9878
755.9603, 496.7988
756.4424, 527.5859
756.9246, 555.0503
757.4067, 578.4927
757.8888, 601.9971
758.3709, 630.3452
758.8530, 657.9990
759.3351, 692.6196
759.8173, 720.7280
760.2994, 752.6255
760.7815, 789.6255
761.2636, 830.1973
761.7457, 874.8379
762.2278, 922.1841
762.7100, 965.5146
763.1921, 1001.278
763.6742, 1038.864
764.1563, 1078.352
764.6384, 1121.685
765.1205, 1171.228
765.6027, 1226.234
766.0848, 1285.991
766.5669, 1350.908
767.0490, 1416.426
767.5311, 1477.368
768.0132, 1533.630
768.4954, 1584.277
768.9775, 1628.746
769.4596, 1672.097
769.9417, 1715.842
770.4238, 1761.286
770.9059, 1811.702
771.3881, 1868.917
771.8702, 1923.444
772.3523, 1974.460
772.8344, 2024.244
773.3165, 2075.422
773.7986, 2124.304
774.2808, 2166.024
774.7629, 2200.307
775.2450, 2233.082
775.7271, 2269.183
776.2092, 2305.141
776.6913, 2336.632
777.1735, 2363.668
777.6556, 2385.238
778.1377, 2401.078
778.6198, 2414.999
779.1019, 2431.070
779.5840, 2447.360
780.0662, 2453.172
780.5483, 2440.624
781.0304, 2432.472
781.5125, 2432.604
781.9946, 2434.772
782.4767, 2434.513
782.9589, 2434.517
783.4410, 2439.808
783.9231, 2451.659
784.4052, 2468.852
784.8873, 2490.247
785.3694, 2516.903
785.8516, 2549.321
786.3337, 2588.051
786.8158, 2634.429
787.2979, 2689.012
787.7800, 2751.412
788.2621, 2822.318
788.7443, 2901.222
789.2264, 2981.403
789.7085, 3058.314
790.1906, 3149.753
790.6727, 3266.669
791.1548, 3396.164
791.6370, 3525.238
792.1191, 3654.922
792.6012, 3789.724
793.0833, 3927.793
793.5654, 4074.982
794.0475, 4240.220
794.5297, 4410.116
795.0118, 4571.473
795.4939, 4724.775
795.9760, 4876.493
796.4581, 5030.113
796.9402, 5187.358
797.4224, 5350.987
797.9045, 5520.846
798.3866, 5696.923
798.8687, 5880.695
799.3508, 6051.255
799.8329, 6198.392
800.3151, 6325.332
800.7972, 6436.881
801.2793, 6535.613
801.7614, 6607.306
802.2435, 6648.615
802.7256, 6670.672
803.2078, 6669.962
803.6899, 6655.939
804.1720, 6636.191
804.6541, 6612.821
805.1362, 6585.750
805.6183, 6558.819
806.1005, 6522.858
806.5826, 6463.737
807.0647, 6389.686
807.5468, 6321.221
808.0289, 6260.462
808.5110, 6193.179
808.9932, 6108.789
809.4753, 6010.937
809.9574, 5911.433
810.4395, 5814.309
810.9216, 5694.966
811.4037, 5549.334
811.8859, 5387.087
812.3680, 5209.599
812.8501, 5019.597
813.3322, 4818.217
813.8143, 4603.872
814.2964, 4393.159
814.7786, 4186.254
815.2607, 3986.523
815.7428, 3799.968
816.2249, 3620.452
816.7070, 3438.412
817.1891, 3254.076
817.6713, 3078.012
818.1534, 2920.002
818.6355, 2774.418
819.1176, 2629.624
819.5997, 2486.614
820.0818, 2353.850
820.5640, 2232.987
821.0461, 2120.637
821.5282, 2014.785
822.0103, 1915.079
822.4924, 1821.686
822.9745, 1735.471
823.4567, 1652.103
823.9388, 1570.029
824.4209, 1492.188
824.9030, 1418.676
825.3851, 1350.133
825.8672, 1287.172
826.3494, 1229.745
826.8315, 1180.072
827.3136, 1145.626
827.7957, 1113.327
828.2778, 1070.739
828.7599, 1023.088
829.2421, 979.7427
829.7242, 942.6284
830.2063, 908.9512
830.6884, 876.3125
831.1705, 845.7832
831.6526, 821.3242
832.1348, 803.3438
832.6169, 780.9883
833.0990, 751.9961
833.5811, 721.1787
834.0632, 688.9849
834.5453, 658.3569
835.0275, 636.4297
835.5096, 628.4819
835.9917, 613.3936
836.4738, 582.5322
836.9559, 554.3721
837.4380, 538.1714
837.9202, 526.6343
838.4023, 511.1948
838.8844, 491.1479
839.3665, 471.5049
839.8486, 456.4106
840.3307, 441.0527
840.8129, 419.6396
841.2950, 394.8013
841.7771, 371.5474
842.2592, 350.7026
842.7413, 330.6069
843.2234, 310.2339
843.7056, 291.3091
844.1877, 279.3926
844.6698, 275.8022
845.1519, 262.6201
845.6340, 235.9956
846.1161, 209.2148
846.5983, 186.8296
847.0804, 167.8965
847.5625, 151.5483
848.0446, 137.8584
848.5267, 124.0615
849.0089, 107.4824
849.4910, 94.05615
849.9731, 90.40234
850.4552, 86.70996
850.9373, 72.04980
851.4194, 49.13672
851.9016, 29.33936
852.3837, 17.89600
852.8658, 9.481934
853.3479, 0.3955080
853.8300, 10.85156
854.3121, 21.11230
854.7943, 30.56543
855.2764, 36.49365
855.7585, 37.63818
856.2406, 37.57910
856.7227, 41.35742
857.2048, 48.52979
857.6870, 53.84277
858.1691, 57.82861
858.6512, 57.15283
859.1333, 47.80957
859.6154, 38.82861
860.0975, 41.06396
860.5797, 51.18164
861.0618, 50.06982
861.5439, 25.15820
862.0260, 10.21973
862.5081, 17.58301
862.9902, 26.89648
863.4724, 25.81104
863.9545, 18.43701
864.4366, 12.61670
864.9187, 10.24023
865.4008, 8.264160
865.8829, 7.480957
866.3651, 3.746582
866.8472, 12.46680
867.3293, 34.63477
867.8114, 45.37842
868.2935, 42.15283
868.7756, 37.92188
869.2578, 42.29639
869.7399, 53.21729
870.2220, 66.74805
870.7041, 83.04492
871.1862, 96.45654
871.6683, 105.0859
872.1505, 115.9229
872.6326, 133.2744
873.1147, 153.9409
873.5968, 172.5791
874.0789, 188.4473
874.5610, 206.0566
875.0432, 229.1377
875.5253, 248.7852
876.0074, 260.0146
876.4895, 269.3501
876.9716, 282.7886
877.4537, 299.5420
877.9359, 314.8413
878.4180, 326.1655
878.9001, 338.2349
879.3822, 354.2959
879.8643, 372.4883
880.3464, 390.9595
880.8286, 410.1138
881.3107, 430.4243
881.7928, 451.8149
882.2749, 476.1509
882.7570, 506.4214
883.2391, 540.7305
883.7213, 573.4155
884.2034, 604.4272
884.6855, 632.6011
885.1676, 657.5791
885.6497, 681.1021
886.1318, 705.8706
886.6140, 730.2007
887.0961, 748.3550
887.5782, 758.0146
888.0603, 766.9941
888.5424, 773.4150
889.0245, 781.5361
889.5067, 796.2461
889.9888, 811.3008
890.4709, 819.9634
890.9530, 822.0708
891.4351, 819.5767
891.9172, 810.5708
892.3994, 799.4941
892.8815, 788.0347
893.3636, 775.5566
893.8457, 763.3750
894.3278, 749.4150
894.8099, 727.3418
895.2921, 694.0747
895.7742, 658.5005
896.2563, 626.1978
896.7384, 598.7012
897.2205, 580.0259
897.7026, 569.1904
898.1848, 562.1787
898.6669, 557.7402
899.1490, 557.7803
899.6311, 564.8564
900.1132, 576.8901
900.5953, 585.8984
901.0775, 591.4766
901.5596, 597.2988
902.0417, 603.6831
902.5238, 610.7314
903.0059, 617.4331
903.4880, 625.9268
903.9702, 641.6943
904.4523, 668.1074
904.9344, 687.8604
905.4165, 694.2700
905.8986, 702.4888
906.3807, 721.6533
906.8629, 739.5073
907.3450, 746.5454
907.8271, 742.6865
908.3092, 730.6743
908.7913, 709.5703
909.2734, 683.5332
909.7556, 651.2959
910.2377, 617.8320
910.7198, 586.8115
911.2019, 558.0454
911.6840, 530.6646
912.1661, 504.4741
912.6483, 478.6260
913.1304, 451.7773
913.6125, 425.6582
914.0946, 404.4282
914.5767, 386.2847
915.0588, 364.5728
915.5410, 338.8672
916.0231, 316.3516
916.5052, 301.6436
916.9873, 292.9668
917.4694, 287.3462
917.9515, 284.5088
918.4337, 277.3022
918.9158, 265.2495
919.3979, 255.2671
919.8800, 249.5537
920.3621, 243.3350
920.8442, 232.3169
921.3264, 217.4097
921.8085, 203.8535
922.2906, 187.0796
922.7727, 179.0273
923.2548, 185.7583
923.7369, 194.7207
924.2191, 205.3770
924.7012, 212.7227
925.1833, 206.8779
925.6654, 186.3184
926.1475, 166.5864
926.6296, 152.1357
927.1118, 139.9321
927.5939, 128.7026
928.0760, 118.6489
928.5581, 110.5269
929.0402, 103.8213
929.5223, 96.71240
930.0045, 88.07959
930.4866, 80.59082
930.9687, 76.82422
931.4508, 75.56689
931.9329, 76.05566
932.4150, 77.31836
932.8972, 77.74951
933.3793, 76.54004
933.8614, 70.38525
934.3435, 55.05273
934.8256, 35.95654
935.3077, 27.16699
935.7899, 27.99268
936.2720, 29.13330
936.7541, 29.91602
937.2362, 26.54736
937.7183, 16.09326
938.2004, 4.064941
938.6826, 1.149414
939.1647, 0.5937500
939.6468, 1.818359
940.1289, 2.431152
940.6110, 2.761230
941.0931, 2.339844
941.5753, 2.430176
942.0574, 6.594238
942.5395, 11.45117
943.0216, 6.853516
943.5037, 12.39404
943.9858, 25.11914
944.4680, 25.42725
944.9501, 23.98340
945.4322, 25.04834
945.9143, 26.10742
946.3964, 24.34082
946.8785, 19.84912
947.3607, 14.26270
947.8428, 6.610840
948.3249, 1.297363
948.8070, 3.433105
949.2891, 6.679199
949.7712, 3.951660
950.2534, 1.985352
950.7355, 3.855957
951.2176, 0.3955080
951.6997, 1.181641
952.1818, 6.258789
952.6639, 16.24658
953.1461, 19.82422
953.6282, 19.09424
954.1103, 18.34717
954.5924, 18.35791
955.0745, 19.92773
955.5566, 23.53174
956.0388, 26.20068
956.5209, 22.83154
957.0030, 15.09717
957.4851, 11.10205
957.9672, 10.85352
958.4493, 14.30615
958.9315, 21.93945
959.4136, 29.77539
959.8957, 35.27832
960.3778, 38.19287
960.8599, 37.48975
961.3420, 32.32471
961.8242, 27.65234
962.3063, 23.24756
962.7884, 19.97998
963.2705, 19.03027
963.7526, 18.09570
964.2347, 13.95654
964.7169, 7.449219
965.1990, 4.731445
965.6811, 7.063965
966.1632, 11.41113
966.6453, 22.36426
967.1274, 30.04395
967.6096, 26.44092
968.0917, 19.53125
968.5738, 20.97070
969.0559, 30.87695
969.5380, 35.83936
970.0201, 27.01416
970.5023, 20.22217
970.9844, 24.95752
971.4665, 30.41504
971.9486, 26.90088
972.4307, 17.52148
972.9128, 8.917480
973.3950, 2.944336
973.8771, 0.2026370
974.3592, 3.731445
974.8413, 7.929688
975.3234, 7.554688
975.8055, 4.853027
976.2877, 2.359375
976.7698, 0.9150390
977.2519, 1.517578
977.7340, 4.655762
978.2161, 9.127930
978.6982, 14.61230
979.1804, 19.98877
979.6625, 21.76660
980.1446, 21.47314
980.6267, 24.94922
981.1088, 33.07422
981.5909, 42.19043
982.0731, 50.08936
982.5552, 55.68457
983.0373, 56.81104
983.5194, 53.78027
984.0015, 48.07617
984.4836, 39.77295
984.9658, 32.93164
985.4479, 28.81104
985.9300, 26.73486
986.4121, 26.18994
986.8942, 27.02881
987.3763, 28.83447
987.8585, 31.71826
988.3406, 34.69678
988.8227, 37.36670
989.3048, 41.62451
989.7869, 49.37305
990.2690, 56.93164
990.7512, 60.02734
991.2333, 58.82031
991.7154, 55.11230
992.1975, 46.14062
992.6796, 40.45508
993.1617, 38.75635
993.6439, 40.29248
994.1260, 48.35205
994.6081, 57.37305
995.0902, 58.12695
995.5723, 50.10303
996.0544, 45.57666
996.5366, 47.44873
997.0187, 49.94824
997.5008, 51.40137
997.9829, 53.83643
998.4650, 60.32812
998.9471, 67.91211
999.4293, 71.50586
999.9114, 70.52148
1000.393, 68.17969
1000.876, 64.11279
1001.358, 58.79834
1001.840, 52.24658
1002.322, 46.58887
1002.804, 43.74854
1003.286, 42.58203
1003.768, 40.40479
1004.250, 36.54736
1004.733, 34.32422
1005.215, 37.79834
1005.697, 41.29150
1006.179, 39.99805
1006.661, 35.72021
1007.143, 30.50293
1007.625, 25.61230
1008.107, 21.53320
1008.589, 17.84277
1009.072, 18.09766
1009.554, 28.91797
1010.036, 43.12109
1010.518, 52.91650
1011.000, 58.17822
1011.482, 58.80566
1011.964, 55.52100
1012.446, 50.01025
1012.929, 42.69629
1013.411, 38.32227
1013.893, 46.13379
1014.375, 43.71729
1014.857, 60.33789
1015.339, 53.91797
1015.821, 56.13232
1016.303, 69.68604
1016.785, 83.82910
1017.268, 91.63867
1017.750, 93.13086
1018.232, 86.09082
1018.714, 72.82812
1019.196, 62.44824
1019.678, 55.20605
1020.160, 50.63867
1020.642, 48.57373
1021.125, 46.54150
1021.607, 42.48096
1022.089, 37.14355
1022.571, 31.93799
1023.053, 26.95264
1023.535, 23.45801
1024.017, 21.47266
1024.499, 23.29883
1024.981, 30.24072
1025.464, 35.85889
1025.946, 33.88525
1026.428, 27.15625
1026.910, 24.79883
1027.392, 27.47021
1027.874, 26.14014
1028.356, 18.51367
1028.838, 17.36426
1029.321, 28.73486
1029.803, 43.06201
1030.285, 51.19336
1030.767, 54.37793
1031.249, 59.03711
1031.731, 67.29150
1032.213, 68.62500
1032.695, 60.03564
1033.177, 51.10156
1033.660, 44.52148
1034.142, 39.95605
1034.624, 35.70947
1035.106, 33.20654
1035.588, 42.27246
1036.070, 73.20264
1036.552, 90.73291
1037.034, 88.48926
1037.516, 82.47949
1037.999, 76.82959
1038.481, 72.00391
1038.963, 68.55273
1039.445, 66.39990
1039.927, 64.95020
1040.409, 65.99609
1040.891, 64.54834
1041.373, 58.54590
1041.855, 53.08301
1042.338, 46.70361
1042.820, 43.08057
1043.302, 49.32520
1043.784, 63.45117
1044.266, 69.90820
1044.748, 66.83350
1045.230, 58.74951
1045.712, 34.25488
1046.195, 17.98828
1046.677, 26.82129
1047.159, 43.73779
1047.641, 50.27539
1048.123, 47.12158
1048.605, 43.74854
1049.087, 41.43994
1049.569, 38.37305
1050.052, 31.23096
1050.534, 24.90869
1051.016, 20.20898
1051.498, 18.19189
1051.980, 22.06055
1052.462, 30.16748
1052.944, 33.00391
1053.426, 23.22266
1053.908, 19.55225
1054.391, 34.80029
1054.873, 47.49512
1055.355, 43.53857
1055.837, 34.13818
1056.319, 30.97266
1056.801, 34.73096
1057.283, 43.59766
1057.765, 59.33350
1058.248, 68.59912
1058.730, 64.01709
1059.212, 55.72900
1059.694, 48.05859
1060.176, 43.78467
1060.658, 47.64746
1061.140, 58.04883
1061.622, 63.37500
1062.104, 59.37549
1062.587, 53.13086
1063.069, 40.52832
1063.551, 32.47412
1064.033, 38.74463
1064.515, 50.88135
1064.997, 61.84033
1065.479, 69.28857
1065.961, 68.73096
1066.443, 55.66064
1066.926, 46.31787
1067.408, 50.07959
1067.890, 57.01465
1068.372, 62.62012
1068.854, 65.57324
1069.336, 64.29785
1069.818, 59.91357
1070.300, 54.42725
1070.782, 47.68408
1071.265, 43.43311
1071.747, 46.88770
1072.229, 49.17480
1072.711, 41.00635
1073.193, 31.84229
1073.675, 34.26270
1074.157, 44.86328
1074.639, 51.34717
1075.122, 50.06934
1075.604, 46.33301
1076.086, 42.06982
1076.568, 36.72510
1077.050, 27.47217
1077.532, 19.01074
1078.014, 17.78369
1078.496, 21.23193
1078.979, 21.47559
1079.461, 16.23828
1079.943, 12.98291
1080.425, 15.90283
1080.907, 20.76367
1081.389, 26.24365
1081.871, 31.67822
1082.353, 38.52832
1082.835, 44.26758
1083.318, 41.77539
1083.800, 29.67920
1084.282, 22.59766
1084.764, 32.26709
1085.246, 41.54590
1085.728, 41.02832
1086.210, 37.20508
1086.692, 32.54639
1087.175, 30.27881
1087.657, 37.17627
1088.139, 53.44824
1088.621, 65.28809
1089.103, 66.71143
1089.585, 63.25684
1090.067, 54.81982
1090.549, 44.79541
1091.031, 31.17041
1091.514, 20.12109
1091.996, 22.39990
1092.478, 37.75146
1092.960, 53.02588
1093.442, 68.39502
1093.924, 74.50098
1094.406, 61.60596
1094.888, 45.16016
1095.370, 32.54150
1095.853, 24.20020
1096.335, 21.40283
1096.817, 22.94482
1097.299, 23.65039
1097.781, 23.48975
1098.263, 19.19873
1098.745, 2.479980
1099.227, 9.921387
1099.709, 5.748047
1100.192, 4.638184
1100.674, 11.36768
1101.156, 14.08789
1101.638, 15.10400
1102.120, 14.46289
1102.602, 5.697754
1103.084, 16.68994
1103.566, 29.00342
1104.049, 31.78467
1104.531, 3.517090
1105.013, 10.35791
1105.495, 4.523438
1105.977, 2.119629
1106.459, 18.67480
1106.941, 11.09180
1107.423, 9.263184
1107.906, 9.609863
1108.388, 19.11279
1108.870, 8.787598
1109.352, 4.587402
1109.834, 20.22217
1110.316, 24.87402
1110.798, 12.26660
1111.280, 22.35449
1111.762, 8.106934
1112.245, 2.987305
1112.727, 17.47998
1113.209, 5.865234
1113.691, 16.31201
1114.173, 18.35498
1114.655, 17.78369
1115.137, 12.47168
1115.619, 14.00977
1116.102, 13.93799
1116.584, 14.03564
1117.066, 9.854980
1117.548, 15.23730
1118.030, 6.696289
1118.512, 12.68164
1118.994, 10.67334
1119.476, 0.9335940
1119.958, 8.064453
1120.441, 3.886719
1120.923, 1.382813
1121.405, 7.635254
1121.887, 10.95410
1122.369, 8.036133
1122.851, 6.702148
1123.333, 15.52637
1123.815, 8.102051
1124.297, 22.95508
1124.780, 1.525879
1125.262, 10.58008
1125.744, 11.91992
1126.226, 8.065430
1126.708, 2.027832
1127.190, 10.50537
1127.672, 12.64160
1128.154, 11.72119
1128.636, 12.40137
1129.119, 14.46436
1129.601, 16.53906
1130.083, 18.77490
1130.565, 18.81445
1131.047, 16.15381
1131.529, 13.14258
1132.011, 10.47510
1132.493, 9.693359
1132.976, 12.90039
1133.458, 11.81348
1133.940, 18.61768
1134.422, 15.10352
1134.904, 15.47559
1135.386, 19.91553
1135.868, 24.58936
1136.350, 28.44287
1136.833, 31.03369
1137.315, 31.92578
1137.797, 32.43164
1138.279, 35.42334
1138.761, 35.75586
1139.243, 40.45947
1139.725, 38.73926
1140.207, 40.92041
1140.689, 44.16211
1141.172, 55.74023
1141.654, 61.64600
1142.136, 62.18115
1142.618, 41.03418
1143.100, 48.06836
1143.582, 43.91943
1144.064, 39.38867
1144.546, 50.61670
1145.029, 33.03076
1145.511, 44.16748
1145.993, 43.94971
1146.475, 49.04248
1146.957, 42.88477
1147.439, 40.30371
1147.921, 49.13867
1148.403, 51.77637
1148.885, 44.62793
1149.368, 50.52881
1149.850, 33.33691
1150.332, 36.55615
1150.814, 48.62793
1151.296, 42.45068
1151.778, 48.95215
1152.260, 50.73193
1152.742, 30.76953
1153.224, 48.83252
1153.707, 50.56641
1154.189, 35.52734
1154.671, 52.52539
1155.153, 39.96484
1155.635, 38.06299
1156.117, 44.20020
1156.599, 42.07178
1157.081, 52.73584
1157.563, 51.05762
1158.046, 48.53223
1158.528, 51.02393
1159.010, 49.06787
1159.492, 54.24219
1159.974, 51.23779
1160.456, 56.84473
1160.938, 64.75781
1161.420, 57.52539
1161.903, 66.49707
1162.385, 50.38135
1162.867, 55.41016
1163.349, 58.24365
1163.831, 49.05078
1164.313, 35.75635
1164.795, 32.34961
1165.277, 41.64453
1165.760, 46.43604
1166.242, 45.19824
1166.724, 44.60645
1167.206, 46.00293
1167.688, 47.37891
1168.170, 47.35596
1168.652, 47.68115
1169.134, 50.85596
1169.616, 49.27295
1170.099, 54.49658
1170.581, 48.50586
1171.063, 44.78369
1171.545, 43.81445
1172.027, 44.79053
1172.509, 46.48584
1172.991, 50.94531
1173.473, 31.55859
1173.956, 44.36523
1174.438, 52.13672
1174.920, 53.95703
1175.402, 33.65771
1175.884, 41.96436
1176.366, 38.72949
1176.848, 35.08594
1177.330, 47.58984
1177.813, 30.93604
1178.295, 43.06885
1178.777, 43.99268
1179.259, 50.18506
1179.741, 45.03857
1180.223, 43.39111
1180.705, 53.03076
1181.187, 56.43555
1181.669, 49.96680
1182.151, 56.48975
1182.634, 39.83984
1183.116, 43.26660
1183.598, 55.72754
1184.080, 50.16064
1184.562, 57.39941
1185.044, 59.43750
1185.526, 39.55566
1186.008, 57.57568
1186.490, 59.18896
1186.973, 43.99756
1187.455, 60.88574
1187.937, 54.99707
1188.419, 41.61328
1188.901, 37.28613
1189.383, 54.36475
1189.865, 70.57324
1190.347, 73.53271
1190.830, 70.85498
1191.312, 70.18408
1191.794, 70.94873
1192.276, 70.48096
1192.758, 68.62793
1193.240, 66.20947
1193.722, 62.13574
1194.204, 59.54004
1194.687, 58.93848
1195.169, 61.95264
1195.651, 71.05518
1196.133, 80.39600
1196.615, 80.31299
1197.097, 72.19336
1197.579, 62.57715
1198.061, 51.78125
1198.543, 49.04004
1199.026, 54.58838
1199.508, 58.64941
1199.990, 57.98096
1200.472, 56.19873
1200.954, 55.85889
1201.436, 55.99854
1201.918, 55.78760
1202.400, 54.80908
1202.883, 50.43994
1203.365, 45.18457
1203.847, 45.85791
1204.329, 51.55615
1204.811, 56.16162
1205.293, 57.31982
1205.775, 55.52637
1206.257, 50.38770
1206.740, 43.45264
1207.222, 33.83252
1207.704, 24.91797
1208.186, 18.46338
1208.668, 15.63525
1209.150, 19.93701
1209.632, 29.51611
1210.114, 34.73340
1210.596, 31.46631
1211.078, 30.38135
1211.561, 37.40332
1212.043, 41.58789
1212.525, 37.16699
1213.007, 31.43018
1213.489, 28.94580
1213.971, 28.02295
1214.453, 24.78271
1214.935, 19.65430
1215.417, 23.86719
1215.900, 41.93115
1216.382, 51.34863
1216.864, 48.77393
1217.346, 47.22754
1217.828, 51.23975
1218.310, 54.22510
1218.792, 50.81543
1219.274, 45.38867
1219.757, 47.52246
1220.239, 53.70752
1220.721, 44.69287
1221.203, 25.00732
1221.685, 0.8051760
1222.167, 13.95020
1222.649, 21.34375
1223.131, 23.31885
1223.614, 3.536133
1224.096, 11.75391
1224.578, 8.680664
1225.060, 5.128906
1225.542, 17.23877
1226.024, 0.4199220
1226.506, 12.22119
1226.988, 12.56396
1227.470, 18.11768
1227.953, 12.32373
1228.435, 10.47461
1228.917, 19.95898
1229.399, 23.17627
1229.881, 16.53271
1230.363, 22.86377
1230.845, 6.035156
1231.327, 9.548828
1231.810, 21.84375
1232.292, 15.80762
1232.774, 22.37695
1233.256, 24.14648
1233.738, 4.097656
1234.220, 21.99219
1234.702, 23.48193
1235.184, 8.115234
1235.667, 24.70654
1236.149, 11.65869
1236.631, 9.189941
1237.113, 14.68164
1237.595, 11.87305
1238.077, 22.14990
1238.559, 19.82227
1239.041, 16.36719
1239.523, 17.01172
1240.005, 5.886719
1240.488, 3.518555
1240.970, 8.996094
1241.452, 10.12598
1241.934, 6.696289
1242.416, 0.2729490
1242.898, 14.50049
1243.380, 26.42432
1243.862, 23.76270
1244.344, 15.84375
1244.827, 10.46143
1245.309, 9.130859
1245.791, 14.68750
1246.273, 25.48779
1246.755, 33.47803
1247.237, 37.35156
1247.719, 35.72510
1248.201, 22.15186
1248.684, 11.64258
1249.166, 11.83398
1249.648, 12.52490
1250.130, 6.209473
1250.612, 0.9458010
1251.094, 8.3010001E-03
1251.576, 7.537598
1252.058, 12.23633
1252.541, 14.13232
1253.023, 12.24561
1253.505, 6.120117
1253.987, 1.201660
1254.469, 0.8427730
1254.951, 1.523926
1255.433, 1.371094
1255.915, 1.175293
1256.397, 10.21680
1256.880, 19.91748
1257.362, 14.58301
1257.844, 3.694336
1258.326, 7.137695
1258.808, 20.88037
1259.290, 31.85010
1259.772, 38.15039
1260.254, 47.13184
1260.737, 62.19873
1261.219, 73.00684
1261.701, 71.40820
1262.183, 68.30176
1262.665, 68.55957
1263.147, 68.18164
1263.629, 61.89453
1264.111, 57.14844
1264.594, 59.95117
1265.076, 66.40674
1265.558, 63.20654
1266.040, 45.75391
1266.522, 37.94434
1267.004, 42.93262
1267.486, 44.94385
1267.968, 40.55566
1268.450, 35.55518
1268.932, 36.44971
1269.415, 37.39062
1269.897, 32.02441
1270.379, 21.61084
1270.861, 10.69092
1271.343, 2.863281
1271.825, 3.177734
1272.307, 10.18945
1272.789, 19.02490
1273.271, 26.56445
1273.754, 27.61279
1274.236, 20.45264
1274.718, 14.15283
1275.200, 17.51465
1275.682, 19.22217
1276.164, 8.773438
1276.646, 1.464355
1277.128, 2.698242
1277.611, 1.536621
1278.093, 9.180176
1278.575, 16.86377
1279.057, 19.54980
1279.539, 18.35449
1280.021, 16.00439
1280.503, 7.878906
1280.985, 6.559570
1281.468, 10.23193
1281.950, 15.07178
1282.432, 10.72900
1282.914, 6.405273
1283.396, 9.805176
1283.878, 20.77441
1284.360, 24.32080
1284.842, 19.44092
1285.324, 0.0000000E+00
##END=



