##NAMES=Meyerhofferite
##RRUFFID=R050671
##IDEAL CHEMISTRY=CaB_3_O_3_(OH)_5_&#183;H_2_O
##LOCALITY=Inyo County, California, USA
##OWNER=RRUFF
##SOURCE=University of Arizona Mineral Museum
##DESCRIPTION=Colorless prismatic single crystals
##STATUS=The identification of this mineral has been confirmed by X-ray diffraction and chemical analysis
##URL=rruff.info/R050671
##MEASURED CHEMISTRY=Ca_1.00_B_3_O_3_(OH)_5_Â·H_2_O ; B not measured but estimated by charge balance
112.9232, 0.0000000E+00
113.4053, 5.051941
113.8874, 10.51491
114.3695, 16.93340
114.8517, 20.43708
115.3338, 26.28894
115.8159, 28.41805
116.2980, 18.26484
116.7801, 9.157059
117.2622, 2.006775
117.7444, 3.808716
118.2265, 7.297943
118.7086, 7.495743
119.1907, 1.744659
119.6728, 3.774231
120.1549, 4.130692
120.6371, 0.7492520
121.1192, 0.4703370
121.6013, 4.162033
122.0834, 12.51160
122.5655, 22.21313
123.0476, 33.09100
123.5298, 44.52921
124.0119, 56.50525
124.4940, 68.91360
124.9761, 80.50577
125.4582, 89.98126
125.9404, 97.77100
126.4225, 104.5301
126.9046, 110.2251
127.3867, 115.1214
127.8688, 119.1757
128.3509, 122.2363
128.8331, 125.7932
129.3152, 131.1089
129.7973, 138.2661
130.2794, 147.2521
130.7615, 157.9750
131.2436, 170.5209
131.7258, 184.6845
132.2079, 200.2205
132.6900, 218.0588
133.1721, 240.7098
133.6542, 268.0943
134.1364, 295.9578
134.6185, 322.1811
135.1006, 346.9884
135.5827, 372.2257
136.0648, 398.4440
136.5469, 425.0409
137.0291, 451.8877
137.5112, 479.8221
137.9933, 503.5088
138.4754, 519.3163
138.9575, 526.2046
139.4396, 530.1959
139.9218, 531.2512
140.4039, 529.8662
140.8860, 527.9252
141.3681, 524.7201
141.8502, 522.1443
142.3323, 521.4189
142.8145, 522.7144
143.2966, 525.6147
143.7787, 529.8901
144.2608, 535.6558
144.7429, 543.3347
145.2250, 553.7579
145.7072, 565.5676
146.1893, 577.4733
146.6714, 588.4725
147.1535, 601.0389
147.6356, 615.8118
148.1178, 633.0107
148.5999, 650.3427
149.0820, 667.3269
149.5641, 684.5623
150.0462, 702.5111
150.5283, 721.7388
151.0105, 740.7957
151.4926, 744.7905
151.9747, 744.7731
152.4568, 746.8810
152.9389, 753.9574
153.4210, 762.5164
153.9032, 767.8912
154.3853, 765.7328
154.8674, 763.6454
155.3495, 764.1019
155.8316, 768.3110
156.3137, 772.6998
156.7959, 776.9742
157.2780, 781.0357
157.7601, 784.6512
158.2422, 787.5068
158.7243, 790.1810
159.2065, 793.0240
159.6886, 796.0254
160.1707, 799.2271
160.6528, 802.9337
161.1349, 806.8614
161.6170, 810.2808
162.0992, 813.4329
162.5813, 815.6910
163.0634, 816.7484
163.5455, 817.3060
164.0276, 815.6525
164.5097, 809.5142
164.9919, 800.0289
165.4740, 791.6122
165.9561, 785.7394
166.4382, 782.2042
166.9203, 780.8384
167.4024, 782.1130
167.8846, 785.0034
168.3667, 788.7734
168.8488, 793.5354
169.3309, 800.0612
169.8130, 810.2498
170.2952, 822.1118
170.7773, 831.4443
171.2594, 837.4493
171.7415, 843.1252
172.2236, 851.6777
172.7057, 862.9020
173.1879, 873.9008
173.6700, 883.0920
174.1521, 890.5913
174.6342, 896.5824
175.1163, 901.5427
175.5984, 904.8804
176.0806, 906.3298
176.5627, 906.1001
177.0448, 903.2114
177.5269, 895.3748
178.0090, 883.8281
178.4911, 871.5107
178.9733, 858.7794
179.4554, 846.3970
179.9375, 835.0518
180.4196, 824.6912
180.9017, 816.4719
181.3838, 812.2887
181.8660, 811.4882
182.3481, 811.8157
182.8302, 811.5070
183.3123, 811.6635
183.7944, 815.2632
184.2766, 822.8669
184.7587, 831.8713
185.2408, 840.2347
185.7229, 847.7094
186.2050, 853.4937
186.6871, 857.5300
187.1693, 859.6235
187.6514, 859.0376
188.1335, 856.2548
188.6156, 849.4445
189.0977, 835.7747
189.5798, 815.3402
190.0620, 790.1301
190.5441, 759.3459
191.0262, 723.6832
191.5083, 687.8063
191.9904, 650.8398
192.4725, 615.0355
192.9547, 583.6278
193.4368, 556.3849
193.9189, 533.4834
194.4010, 516.1206
194.8831, 503.9945
195.3652, 492.1808
195.8474, 480.1467
196.3295, 468.6494
196.8116, 459.2670
197.2937, 452.1039
197.7758, 446.1311
198.2579, 440.7271
198.7401, 435.8696
199.2222, 432.3472
199.7043, 430.4406
200.1864, 429.5703
200.6685, 428.8748
201.1507, 428.5782
201.6328, 427.1964
202.1149, 423.5360
202.5970, 417.3750
203.0791, 411.2405
203.5612, 405.6499
204.0434, 400.0029
204.5255, 392.4039
205.0076, 382.4197
205.4897, 372.0333
205.9718, 362.4358
206.4539, 353.7458
206.9361, 345.0912
207.4182, 335.9972
207.9003, 327.0961
208.3824, 320.5210
208.8645, 316.8719
209.3466, 314.0027
209.8288, 310.5098
210.3109, 306.0714
210.7930, 302.5284
211.2751, 300.4474
211.7572, 299.2715
212.2393, 296.6744
212.7215, 291.7308
213.2036, 287.3440
213.6857, 285.6271
214.1678, 287.4771
214.6499, 288.8843
215.1320, 289.2886
215.6142, 288.9976
216.0963, 289.4032
216.5784, 290.6829
217.0605, 292.3290
217.5426, 294.0385
218.0247, 295.7382
218.5069, 297.4396
218.9890, 298.9764
219.4711, 300.5781
219.9532, 303.2611
220.4353, 307.3217
220.9175, 311.8804
221.3996, 316.6952
221.8817, 322.0439
222.3638, 327.1606
222.8459, 332.0981
223.3280, 336.6395
223.8102, 339.4637
224.2923, 340.2227
224.7744, 340.2134
225.2565, 340.3888
225.7386, 341.7072
226.2207, 340.9344
226.7029, 338.2050
227.1850, 333.0217
227.6671, 322.9624
228.1492, 305.7936
228.6313, 287.2677
229.1134, 270.6095
229.5956, 255.7255
230.0777, 242.2571
230.5598, 230.3993
231.0419, 220.0356
231.5240, 210.0923
232.0062, 200.2129
232.4883, 191.4496
232.9704, 184.5537
233.4525, 180.4165
233.9346, 176.1107
234.4167, 171.4763
234.8989, 166.5446
235.3810, 161.4329
235.8631, 155.9838
236.3452, 150.6151
236.8273, 145.4806
237.3094, 140.6707
237.7916, 135.5596
238.2737, 129.7795
238.7558, 123.6079
239.2379, 118.2070
239.7200, 113.6990
240.2021, 109.8408
240.6843, 106.5420
241.1664, 104.1339
241.6485, 101.5328
242.1306, 98.69189
242.6127, 95.70947
243.0948, 92.80750
243.5770, 89.91064
244.0591, 87.11304
244.5412, 84.53381
245.0233, 82.29382
245.5054, 80.21985
245.9876, 78.35400
246.4697, 76.70764
246.9518, 75.28699
247.4339, 74.24719
247.9160, 73.14648
248.3981, 71.70886
248.8803, 69.40149
249.3624, 68.24951
249.8445, 68.32788
250.3266, 69.20813
250.8087, 70.14319
251.2908, 71.49097
251.7730, 72.57495
252.2551, 72.93372
252.7372, 72.36951
253.2193, 71.16968
253.7014, 69.14832
254.1835, 66.60107
254.6657, 64.19397
255.1478, 62.25110
255.6299, 60.02185
256.1120, 56.98071
256.5941, 52.56018
257.0763, 49.27161
257.5584, 47.72473
258.0405, 46.96985
258.5226, 44.98755
259.0047, 41.10754
259.4868, 37.43066
259.9690, 35.00378
260.4511, 34.36865
260.9332, 32.33411
261.4153, 28.02747
261.8974, 23.08435
262.3795, 20.48779
262.8617, 21.15039
263.3438, 21.92029
263.8259, 21.65637
264.3080, 20.12158
264.7901, 19.24268
265.2722, 19.45166
265.7544, 19.78040
266.2365, 18.52380
266.7186, 14.94873
267.2007, 12.05127
267.6828, 11.18408
268.1649, 12.57007
268.6471, 12.15149
269.1292, 9.486938
269.6113, 5.772217
270.0934, 2.281616
270.5755, 1.138184
271.0576, 3.782471
271.5398, 5.406860
272.0219, 6.024292
272.5040, 6.002319
272.9861, 5.077881
273.4682, 4.130005
273.9503, 4.203491
274.4325, 5.522461
274.9146, 6.676514
275.3967, 7.209595
275.8788, 7.253052
276.3610, 8.092163
276.8431, 10.03333
277.3252, 11.86487
277.8073, 12.08557
278.2894, 10.46887
278.7715, 9.845215
279.2537, 11.18250
279.7358, 13.80762
280.2179, 14.62146
280.7000, 13.22156
281.1821, 11.73047
281.6642, 11.99109
282.1464, 14.00916
282.6285, 16.03040
283.1106, 18.04517
283.5927, 19.67383
284.0748, 19.47021
284.5569, 17.24036
285.0391, 15.04553
285.5212, 14.88525
286.0033, 16.50964
286.4854, 16.54834
286.9675, 14.24194
287.4496, 10.73926
287.9318, 8.071533
288.4139, 6.223511
288.8960, 5.193848
289.3781, 5.330200
289.8602, 6.357056
290.3423, 6.845947
290.8245, 6.564209
291.3066, 5.930176
291.7887, 5.462280
292.2708, 5.158203
292.7529, 5.211548
293.2350, 6.218994
293.7172, 7.691528
294.1993, 8.085815
294.6814, 7.230591
295.1635, 5.744751
295.6456, 4.196899
296.1277, 2.641724
296.6099, 1.319702
297.0920, 0.5893550
297.5741, 0.1755370
298.0562, 0.5305180
298.5383, 1.545166
299.0204, 2.426514
299.5026, 2.398071
299.9847, 1.843140
300.4668, 1.840698
300.9489, 3.400513
301.4311, 5.451782
301.9132, 6.468262
302.3953, 6.504150
302.8774, 6.006958
303.3595, 5.079834
303.8416, 3.934937
304.3238, 2.989014
304.8059, 2.770630
305.2880, 2.423218
305.7701, 0.3886720
306.2522, 2.967041
306.7343, 5.337646
307.2165, 4.182495
307.6986, 1.526123
308.1807, 6.8359002E-02
308.6628, 1.317749
309.1449, 2.527466
309.6270, 1.549561
310.1092, 1.233032
310.5913, 4.565186
311.0734, 8.729492
311.5555, 12.60999
312.0376, 14.91772
312.5197, 14.81274
313.0019, 14.76611
313.4840, 16.27075
313.9661, 18.86499
314.4482, 21.61975
314.9303, 23.27942
315.4124, 25.62024
315.8946, 30.25708
316.3767, 38.04114
316.8588, 44.92493
317.3409, 48.27112
317.8230, 50.08411
318.3051, 52.97729
318.7873, 58.70410
319.2694, 64.91370
319.7515, 70.49048
320.2336, 75.28369
320.7157, 80.78882
321.1978, 87.57849
321.6800, 95.12195
322.1621, 102.9086
322.6442, 111.2162
323.1263, 119.3422
323.6084, 126.5326
324.0905, 132.9376
324.5727, 140.9478
325.0548, 152.1392
325.5369, 164.1722
326.0190, 175.6144
326.5012, 186.1312
326.9833, 196.4089
327.4654, 206.2402
327.9475, 215.7928
328.4296, 225.5210
328.9117, 235.1335
329.3939, 245.1389
329.8760, 255.8800
330.3581, 267.9528
330.8402, 279.7433
331.3223, 291.7609
331.8044, 303.3448
332.2866, 313.1318
332.7687, 320.0901
333.2508, 326.5061
333.7329, 333.2972
334.2150, 340.8335
334.6971, 346.8022
335.1793, 351.4819
335.6614, 354.4625
336.1435, 355.1211
336.6256, 353.2126
337.1077, 349.4844
337.5898, 343.4622
338.0720, 335.4080
338.5541, 329.8416
339.0362, 327.4550
339.5183, 326.0482
340.0004, 323.8705
340.4825, 320.9739
340.9647, 316.9606
341.4468, 311.3660
341.9289, 304.9498
342.4110, 300.3771
342.8931, 298.0137
343.3752, 294.9702
343.8574, 289.4111
344.3395, 281.3845
344.8216, 271.4053
345.3037, 259.1226
345.7858, 245.6772
346.2679, 233.3857
346.7501, 221.9839
347.2322, 209.7600
347.7143, 194.7690
348.1964, 178.0759
348.6785, 162.8459
349.1607, 149.0381
349.6428, 136.7593
350.1249, 125.7317
350.6070, 116.1187
351.0891, 108.2844
351.5713, 103.6611
352.0534, 100.4487
352.5355, 95.46826
353.0176, 88.90771
353.4997, 83.16943
353.9818, 80.00195
354.4640, 78.92578
354.9461, 79.36035
355.4282, 82.13867
355.9103, 85.08716
356.3924, 85.41919
356.8745, 83.98022
357.3567, 84.05298
357.8388, 88.81104
358.3209, 95.16187
358.8030, 100.3904
359.2851, 103.4126
359.7672, 106.7776
360.2494, 112.0071
360.7315, 118.5137
361.2136, 125.1235
361.6957, 131.7136
362.1778, 138.0889
362.6599, 144.1958
363.1421, 150.0173
363.6242, 155.4026
364.1063, 159.7446
364.5884, 163.8047
365.0705, 168.4519
365.5526, 174.9009
366.0348, 180.8625
366.5169, 185.4648
366.9990, 188.7629
367.4811, 192.1321
367.9632, 195.6816
368.4453, 199.5037
368.9275, 203.6189
369.4096, 207.6816
369.8917, 212.2815
370.3738, 217.2214
370.8559, 222.6880
371.3380, 229.0903
371.8202, 236.5269
372.3023, 244.9160
372.7844, 254.4456
373.2665, 265.6458
373.7487, 275.6040
374.2308, 283.8354
374.7129, 291.3347
375.1950, 299.4546
375.6771, 308.1597
376.1592, 317.8555
376.6414, 329.4587
377.1235, 342.5273
377.6056, 352.7761
378.0877, 359.9033
378.5698, 365.5776
379.0519, 371.9900
379.5341, 379.1211
380.0162, 382.9629
380.4983, 382.2412
380.9804, 378.5259
381.4625, 375.5938
381.9446, 373.3689
382.4268, 369.8599
382.9089, 362.8284
383.3910, 353.4717
383.8731, 345.4438
384.3552, 339.1643
384.8373, 333.6167
385.3195, 327.5110
385.8016, 321.1868
386.2837, 315.5156
386.7658, 310.7371
387.2479, 307.0769
387.7300, 304.5312
388.2122, 303.1350
388.6943, 303.2637
389.1764, 305.7429
389.6585, 309.6350
390.1406, 313.6992
390.6227, 316.8701
391.1049, 321.2124
391.5870, 329.1575
392.0691, 339.5764
392.5512, 348.9150
393.0333, 354.3318
393.5154, 358.7092
393.9976, 364.6218
394.4797, 373.8228
394.9618, 380.1760
395.4439, 380.4500
395.9260, 377.1128
396.4081, 373.4229
396.8903, 371.3525
397.3724, 367.7410
397.8545, 361.8245
398.3366, 353.5676
398.8188, 343.0618
399.3009, 329.8691
399.7830, 314.7451
400.2651, 298.0042
400.7472, 276.6931
401.2293, 258.2612
401.7115, 244.2888
402.1936, 233.2161
402.6757, 220.2217
403.1578, 204.1641
403.6399, 188.0444
404.1220, 173.1533
404.6042, 159.4556
405.0863, 146.6152
405.5684, 134.7029
406.0505, 123.7383
406.5326, 113.8872
407.0147, 105.1670
407.4969, 97.27344
407.9790, 90.21680
408.4611, 83.86328
408.9432, 77.65649
409.4253, 71.63306
409.9074, 65.83936
410.3896, 59.92334
410.8717, 54.13818
411.3538, 49.64673
411.8359, 46.77417
412.3180, 44.97314
412.8001, 44.10767
413.2823, 43.87231
413.7644, 42.99292
414.2465, 39.27905
414.7286, 35.19043
415.2107, 34.38647
415.6928, 37.10498
416.1750, 40.42822
416.6571, 42.77588
417.1392, 44.17310
417.6213, 44.66187
418.1034, 42.69580
418.5855, 41.48291
419.0677, 43.69165
419.5498, 48.46191
420.0319, 52.47974
420.5140, 53.44531
420.9961, 53.97388
421.4782, 55.70532
421.9604, 59.25024
422.4425, 62.95825
422.9246, 66.72095
423.4067, 70.34058
423.8889, 73.60034
424.3710, 76.21826
424.8531, 78.71484
425.3352, 81.11328
425.8173, 83.41602
426.2994, 85.72339
426.7816, 87.21851
427.2637, 89.52979
427.7458, 93.99902
428.2279, 102.2346
428.7100, 108.8730
429.1921, 113.4885
429.6743, 116.3496
430.1564, 117.5911
430.6385, 116.8044
431.1206, 115.9968
431.6027, 116.3586
432.0848, 117.7798
432.5670, 117.4473
433.0491, 115.1697
433.5312, 111.9143
434.0133, 108.8022
434.4954, 105.6963
434.9775, 101.5354
435.4597, 95.83154
435.9418, 89.27271
436.4239, 83.00391
436.9060, 77.05908
437.3881, 71.24536
437.8702, 65.98242
438.3524, 60.58057
438.8345, 53.64233
439.3166, 44.73218
439.7987, 36.14160
440.2808, 29.46484
440.7629, 24.29907
441.2451, 20.08862
441.7272, 17.54053
442.2093, 15.03784
442.6914, 11.56372
443.1735, 7.270996
443.6556, 3.243652
444.1378, 0.1374510
444.6199, 3.103516
445.1020, 5.786133
445.5841, 8.339600
446.0662, 10.26025
446.5483, 11.04297
447.0305, 11.19580
447.5126, 11.58789
447.9947, 12.52002
448.4768, 13.35303
448.9590, 14.33130
449.4411, 15.50024
449.9232, 14.59058
450.4053, 10.51880
450.8874, 5.974365
451.3695, 3.183594
451.8517, 2.736328
452.3338, 1.356689
452.8159, 1.569336
453.2980, 5.119385
453.7801, 6.952148
454.2622, 6.842529
454.7444, 7.985596
455.2265, 12.60229
455.7086, 19.76978
456.1907, 25.33374
456.6728, 29.30469
457.1549, 32.49487
457.6371, 35.16284
458.1192, 37.72974
458.6013, 41.43701
459.0834, 47.02393
459.5655, 52.99731
460.0476, 57.73462
460.5298, 61.49902
461.0119, 64.83838
461.4940, 67.33447
461.9761, 70.14331
462.4582, 74.12671
462.9403, 79.42676
463.4225, 85.68970
463.9046, 93.90625
464.3867, 102.5322
464.8688, 109.8977
465.3509, 114.1521
465.8330, 119.2009
466.3152, 125.9893
466.7973, 134.1953
467.2794, 142.6868
467.7615, 152.2024
468.2436, 161.3889
468.7257, 169.6482
469.2079, 176.4639
469.6900, 184.3645
470.1721, 194.4270
470.6542, 204.2344
471.1363, 211.0688
471.6184, 214.2922
472.1006, 217.1558
472.5827, 220.7051
473.0648, 223.9924
473.5469, 223.5339
474.0291, 219.0676
474.5112, 214.0176
474.9933, 210.3542
475.4754, 207.7844
475.9575, 204.5435
476.4396, 200.3481
476.9218, 197.1362
477.4039, 197.6699
477.8860, 200.8677
478.3681, 204.1414
478.8502, 205.9734
479.3323, 208.3560
479.8145, 213.5496
480.2966, 221.0925
480.7787, 229.0359
481.2608, 236.9436
481.7429, 244.5842
482.2250, 251.3438
482.7072, 256.7444
483.1893, 263.6584
483.6714, 273.6199
484.1535, 285.3638
484.6356, 297.6138
485.1177, 310.9331
485.5999, 324.0398
486.0820, 336.1926
486.5641, 347.8647
487.0462, 361.2061
487.5283, 376.9375
488.0104, 393.5232
488.4926, 411.2188
488.9747, 430.5869
489.4568, 446.2993
489.9389, 457.1377
490.4210, 466.2900
490.9031, 478.5840
491.3853, 494.6370
491.8674, 504.5659
492.3495, 506.4639
492.8316, 500.8091
493.3137, 488.2644
493.7958, 468.8899
494.2780, 443.6865
494.7601, 411.1843
495.2422, 373.8191
495.7243, 335.5930
496.2064, 296.0530
496.6885, 259.8396
497.1707, 230.1108
497.6528, 205.2793
498.1349, 183.1028
498.6170, 162.7385
499.0992, 144.7507
499.5813, 129.5198
500.0634, 116.7788
500.5455, 105.6797
501.0276, 96.76099
501.5097, 88.69604
501.9919, 80.78198
502.4740, 72.86426
502.9561, 65.80908
503.4382, 59.91943
503.9203, 54.73022
504.4024, 49.90381
504.8846, 45.12402
505.3667, 41.71729
505.8488, 40.62109
506.3309, 40.39746
506.8130, 37.56348
507.2951, 31.47290
507.7773, 25.78564
508.2594, 22.06030
508.7415, 20.10229
509.2236, 18.44141
509.7057, 16.93530
510.1878, 15.75293
510.6700, 15.08887
511.1521, 14.83228
511.6342, 14.88745
512.1163, 15.34106
512.5984, 15.63843
513.0806, 14.94531
513.5627, 13.70361
514.0448, 12.78516
514.5269, 13.20117
515.0090, 13.49365
515.4911, 12.67407
515.9733, 10.79370
516.4554, 8.469238
516.9375, 4.342041
517.4196, 0.9572750
517.9017, 2.1484001E-02
518.3839, 2.799561
518.8660, 5.357666
519.3481, 8.570557
519.8302, 10.73389
520.3123, 9.611816
520.7944, 2.127441
521.2766, 2.867432
521.7587, 3.084229
522.2408, 9.0088002E-02
522.7229, 1.020508
523.2050, 0.7963870
523.6871, 2.833984
524.1693, 3.678711
524.6514, 3.419189
525.1335, 3.602051
525.6156, 4.272217
526.0977, 5.020752
526.5798, 5.570068
527.0620, 5.887207
527.5441, 5.857422
528.0262, 5.440674
528.5083, 4.766602
528.9904, 3.913818
529.4725, 2.950439
529.9547, 2.011475
530.4368, 1.374023
530.9189, 0.6931150
531.4010, 0.5271000
531.8831, 2.261475
532.3652, 3.095703
532.8474, 1.409424
533.3295, 0.5180660
533.8116, 1.184570
534.2937, 0.7543950
534.7758, 1.971436
535.2579, 1.956787
535.7401, 1.435791
536.2222, 1.523193
536.7043, 2.750488
537.1864, 3.419434
537.6685, 2.964844
538.1506, 1.753906
538.6328, 1.472168
539.1149, 2.258057
539.5970, 3.290527
540.0791, 3.849121
540.5612, 4.185547
541.0433, 5.700439
541.5255, 8.562256
542.0076, 11.29541
542.4897, 12.13062
542.9718, 11.80664
543.4539, 11.80957
543.9360, 12.48413
544.4182, 13.62549
544.9003, 14.98169
545.3824, 16.64893
545.8645, 18.86328
546.3466, 22.60815
546.8287, 26.08691
547.3109, 28.39062
547.7930, 29.43262
548.2751, 30.17627
548.7572, 30.02124
549.2393, 30.19873
549.7214, 31.49023
550.2036, 34.84790
550.6857, 37.17139
551.1678, 38.05420
551.6499, 38.37817
552.1320, 39.44287
552.6141, 41.43970
553.0963, 43.07910
553.5784, 43.95044
554.0605, 44.40430
554.5426, 45.27881
555.0247, 46.57007
555.5068, 48.17651
555.9890, 49.83228
556.4711, 51.80396
556.9532, 54.99414
557.4353, 59.41138
557.9174, 63.21216
558.3995, 64.30444
558.8817, 64.28149
559.3638, 64.87622
559.8459, 66.64136
560.3281, 68.72217
560.8102, 71.24146
561.2923, 73.74536
561.7744, 75.49609
562.2565, 75.64697
562.7386, 75.82275
563.2208, 76.14673
563.7029, 76.70898
564.1850, 78.26685
564.6671, 81.39600
565.1492, 84.49463
565.6313, 86.67017
566.1135, 87.79712
566.5956, 89.52881
567.0777, 92.02905
567.5598, 94.49561
568.0419, 96.56494
568.5240, 98.00806
569.0062, 97.43677
569.4883, 93.90649
569.9704, 89.88037
570.4525, 89.40845
570.9346, 91.02466
571.4167, 90.97876
571.8989, 85.23389
572.3810, 79.17554
572.8631, 77.07446
573.3452, 78.37891
573.8273, 78.90479
574.3094, 76.37524
574.7916, 73.20898
575.2737, 70.38306
575.7558, 67.42236
576.2379, 66.89624
576.7200, 70.51782
577.2021, 75.15625
577.6843, 77.95947
578.1664, 78.04150
578.6485, 78.65454
579.1306, 79.91113
579.6127, 82.02661
580.0948, 85.90137
580.5770, 91.40308
581.0591, 96.01562
581.5412, 97.72046
582.0233, 98.40088
582.5054, 102.9836
582.9875, 110.8577
583.4697, 118.0715
583.9518, 120.1418
584.4339, 121.0464
584.9160, 125.3828
585.3981, 133.9692
585.8802, 143.2476
586.3624, 151.5164
586.8445, 159.6296
587.3266, 168.3499
587.8087, 176.7971
588.2908, 187.1909
588.7729, 199.5801
589.2551, 214.1428
589.7372, 231.3569
590.2193, 251.7009
590.7014, 273.8311
591.1835, 296.9790
591.6656, 321.4141
592.1478, 348.2634
592.6299, 377.1689
593.1120, 409.1372
593.5941, 446.3376
594.0762, 487.1067
594.5583, 525.3958
595.0405, 560.6333
595.5226, 595.4270
596.0047, 631.4348
596.4868, 668.2961
596.9689, 706.1694
597.4510, 744.9395
597.9332, 785.2837
598.4153, 828.0762
598.8974, 872.3926
599.3795, 918.1978
599.8616, 965.8340
600.3438, 1014.736
600.8259, 1063.267
601.3080, 1112.554
601.7901, 1166.550
602.2722, 1226.361
602.7543, 1288.302
603.2365, 1352.604
603.7186, 1418.611
604.2007, 1481.523
604.6828, 1540.595
605.1649, 1597.019
605.6470, 1654.488
606.1292, 1710.200
606.6113, 1756.463
607.0934, 1792.388
607.5755, 1813.853
608.0576, 1818.396
608.5398, 1804.675
609.0219, 1770.385
609.5040, 1713.514
609.9861, 1637.443
610.4683, 1537.959
610.9504, 1421.341
611.4325, 1299.340
611.9146, 1166.443
612.3967, 1039.390
612.8788, 919.9370
613.3610, 809.2651
613.8431, 711.6589
614.3252, 629.6667
614.8073, 557.6855
615.2894, 491.5625
615.7715, 431.3774
616.2537, 379.4268
616.7358, 336.2522
617.2179, 299.6506
617.7000, 269.1460
618.1821, 243.7563
618.6642, 221.0459
619.1464, 200.2690
619.6285, 181.6497
620.1106, 165.3306
620.5927, 151.1721
621.0748, 139.0083
621.5569, 130.0576
622.0391, 121.7852
622.5212, 112.3406
623.0033, 102.2373
623.4854, 93.61816
623.9675, 88.28784
624.4496, 83.09033
624.9318, 77.04346
625.4139, 70.20532
625.8960, 63.99683
626.3781, 58.33691
626.8602, 53.71094
627.3423, 50.56738
627.8245, 48.88037
628.3066, 48.07422
628.7887, 48.29517
629.2708, 48.24268
629.7529, 46.00635
630.2350, 42.47974
630.7172, 39.73511
631.1993, 38.36646
631.6814, 37.34570
632.1635, 35.96069
632.6456, 34.31299
633.1277, 32.56445
633.6099, 30.32471
634.0920, 28.45801
634.5741, 27.55566
635.0562, 27.31909
635.5383, 26.54590
636.0204, 25.24048
636.5026, 23.42358
636.9847, 20.94238
637.4668, 17.89746
637.9489, 15.36353
638.4310, 13.41211
638.9131, 11.70068
639.3953, 9.728760
639.8774, 7.737061
640.3595, 7.271973
640.8416, 8.524414
641.3237, 9.322266
641.8058, 6.518066
642.2880, 2.348633
642.7701, 0.1821290
643.2522, 1.326904
643.7343, 2.845215
644.2164, 2.878174
644.6985, 2.504395
645.1807, 3.163086
645.6628, 7.927734
646.1449, 10.25024
646.6270, 8.167480
647.1091, 3.354248
647.5912, 4.6631001E-02
648.0734, 1.522461
648.5555, 2.244873
649.0376, 2.130371
649.5197, 1.438477
650.0018, 1.442383
650.4839, 2.127686
650.9661, 2.732422
651.4482, 2.623291
651.9303, 2.154785
652.4124, 2.173096
652.8945, 2.680908
653.3766, 2.587646
653.8588, 0.6865230
654.3409, 1.843994
654.8230, 4.087891
655.3051, 5.915527
655.7872, 7.341309
656.2693, 8.509277
656.7515, 9.160400
657.2336, 8.948730
657.7158, 7.050537
658.1979, 6.086914
658.6800, 6.555908
659.1621, 7.628418
659.6442, 7.811279
660.1263, 7.067627
660.6085, 6.246826
661.0906, 5.386230
661.5727, 4.818848
662.0548, 5.538086
662.5369, 7.172119
663.0190, 8.334717
663.5012, 8.297852
663.9833, 7.531250
664.4654, 6.234619
664.9475, 4.513184
665.4296, 2.784180
665.9117, 1.206299
666.3939, 0.2758790
666.8760, 1.868408
667.3581, 3.756348
667.8402, 4.311035
668.3223, 3.216064
668.8044, 1.242920
669.2866, 1.748291
669.7687, 5.926025
670.2508, 6.706543
670.7329, 3.288330
671.2150, 1.209229
671.6971, 3.793457
672.1793, 4.742920
672.6614, 4.494385
673.1435, 2.734131
673.6256, 1.030029
674.1077, 0.9375000
674.5898, 1.651611
675.0720, 1.914063
675.5541, 1.355713
676.0362, 0.2639160
676.5183, 2.082275
677.0004, 4.918701
677.4825, 6.165283
677.9647, 5.365967
678.4468, 3.817383
678.9289, 1.243408
679.4110, 1.697021
679.8931, 1.599121
680.3752, 1.708984
680.8574, 5.553711
681.3395, 8.929932
681.8216, 11.62378
682.3037, 12.76660
682.7858, 12.45532
683.2679, 12.00928
683.7501, 12.02881
684.2322, 12.45215
684.7143, 13.11206
685.1964, 13.86621
685.6785, 15.48926
686.1606, 19.23511
686.6428, 23.15112
687.1249, 25.78247
687.6070, 26.10132
688.0891, 27.60010
688.5712, 30.78589
689.0533, 34.39600
689.5355, 36.90698
690.0176, 38.39722
690.4997, 39.55420
690.9818, 40.35864
691.4639, 41.37988
691.9460, 43.72363
692.4282, 46.82568
692.9103, 49.37549
693.3924, 49.97241
693.8745, 50.91064
694.3566, 53.59741
694.8387, 57.57715
695.3209, 61.80176
695.8030, 67.07422
696.2851, 71.26660
696.7672, 73.44312
697.2493, 74.08228
697.7314, 75.70166
698.2136, 78.57373
698.6957, 81.50391
699.1778, 84.03662
699.6599, 86.22168
700.1420, 88.35522
700.6241, 90.43115
701.1063, 91.88354
701.5884, 91.77100
702.0705, 91.12598
702.5526, 91.18896
703.0347, 92.05566
703.5168, 93.26611
703.9990, 95.25830
704.4811, 97.03857
704.9632, 97.71021
705.4453, 96.40405
705.9274, 96.22070
706.4095, 97.90161
706.8917, 99.98633
707.3738, 101.0701
707.8560, 100.9077
708.3381, 101.5693
708.8202, 103.3430
709.3023, 105.5818
709.7844, 107.9026
710.2665, 109.9941
710.7487, 110.7561
711.2308, 109.1523
711.7129, 108.3376
712.1950, 111.9390
712.6771, 117.4800
713.1592, 121.3027
713.6414, 119.5493
714.1235, 119.0840
714.6056, 122.3115
715.0877, 127.6550
715.5698, 132.0994
716.0519, 135.5435
716.5341, 138.1794
717.0162, 139.6404
717.4983, 140.5691
717.9804, 143.0696
718.4625, 147.0227
718.9446, 150.5630
719.4268, 152.5034
719.9089, 153.7241
720.3910, 155.0520
720.8731, 156.5525
721.3552, 158.6179
721.8373, 161.7949
722.3195, 165.3101
722.8016, 169.2432
723.2837, 173.5442
723.7658, 176.0994
724.2479, 175.8589
724.7300, 175.0857
725.2122, 175.0793
725.6943, 175.9607
726.1764, 174.6091
726.6585, 170.7476
727.1406, 166.6819
727.6227, 164.2952
728.1049, 162.8701
728.5870, 161.0542
729.0691, 158.6355
729.5512, 154.9543
730.0333, 148.4451
730.5154, 141.3154
730.9976, 135.9839
731.4797, 133.4294
731.9618, 130.4358
732.4439, 125.6875
732.9260, 120.5198
733.4081, 116.2476
733.8903, 113.1743
734.3724, 110.4304
734.8545, 108.2432
735.3366, 105.5562
735.8187, 100.1262
736.3008, 92.80005
736.7830, 87.64429
737.2651, 85.71045
737.7472, 85.06445
738.2293, 83.93237
738.7114, 82.57959
739.1935, 81.74023
739.6757, 82.84106
740.1578, 82.91333
740.6399, 79.89868
741.1220, 75.78296
741.6041, 73.80469
742.0862, 74.86865
742.5684, 75.33643
743.0505, 74.51440
743.5326, 73.07397
744.0147, 72.96021
744.4968, 73.98877
744.9789, 73.67480
745.4611, 70.17700
745.9432, 66.03076
746.4253, 65.12671
746.9074, 66.29077
747.3895, 66.47021
747.8716, 63.12598
748.3538, 59.78613
748.8359, 58.46362
749.3180, 58.65479
749.8001, 57.35571
750.2822, 52.57568
750.7643, 49.82861
751.2465, 51.69922
751.7286, 56.87378
752.2107, 58.64429
752.6928, 56.97095
753.1749, 54.84619
753.6570, 54.02051
754.1392, 53.76074
754.6213, 52.61475
755.1034, 50.76465
755.5855, 49.43066
756.0676, 49.51416
756.5498, 50.03394
757.0319, 50.75146
757.5140, 51.62085
757.9962, 51.14795
758.4783, 47.99146
758.9604, 45.28345
759.4425, 44.82886
759.9246, 46.51978
760.4067, 45.98975
760.8889, 43.02954
761.3710, 39.95483
761.8531, 38.42456
762.3352, 37.80176
762.8173, 37.23584
763.2994, 36.73169
763.7816, 35.57788
764.2637, 32.50293
764.7458, 29.31812
765.2279, 27.40894
765.7100, 27.09717
766.1921, 26.63037
766.6743, 26.04199
767.1564, 25.17920
767.6385, 24.15991
768.1206, 23.12134
768.6027, 19.95801
769.0848, 14.19629
769.5670, 8.900635
770.0491, 7.325684
770.5312, 8.056885
771.0133, 8.329834
771.4954, 7.766113
771.9775, 7.138916
772.4597, 6.472900
772.9418, 6.223633
773.4239, 6.948975
773.9060, 9.550537
774.3881, 10.99512
774.8702, 11.20923
775.3524, 10.26245
775.8345, 7.747559
776.3166, 3.445557
776.7987, 0.6503910
777.2808, 0.2797850
777.7629, 0.2995610
778.2451, 0.1066890
778.7272, 0.1848140
779.2093, 0.3349610
779.6914, 0.2783200
780.1735, 0.1423340
780.6556, 0.1228030
781.1378, 0.3745120
781.6199, 0.4755860
782.1020, 0.3999020
782.5841, 0.2170410
783.0662, 3.1493999E-02
783.5483, 0.3898930
784.0305, 0.9223630
784.5126, 1.629150
784.9947, 2.443604
785.4768, 3.446045
785.9589, 4.138672
786.4410, 3.883057
786.9232, 2.926270
787.4053, 1.617188
787.8874, 0.1835940
788.3695, 1.696777
788.8516, 3.094971
789.3337, 3.770996
789.8159, 2.903564
790.2980, 1.603027
790.7801, 3.785645
791.2622, 2.530762
791.7443, 0.1933590
792.2264, 4.0771000E-02
792.7086, 1.927246
793.1907, 3.155029
793.6728, 3.294678
794.1549, 2.692627
794.6370, 1.143799
795.1191, 0.7036130
795.6013, 1.781006
796.0834, 1.588379
796.5655, 0.9895020
797.0476, 0.5759280
797.5297, 1.989258
798.0118, 1.733398
798.4940, 1.730713
798.9761, 3.106201
799.4582, 1.416504
799.9403, 1.357666
800.4224, 2.504639
800.9045, 2.282715
801.3867, 2.349609
801.8688, 3.120850
802.3509, 3.907227
802.8330, 3.858643
803.3151, 3.441406
803.7972, 3.214111
804.2794, 2.408447
804.7615, 3.305176
805.2436, 8.844238
805.7258, 14.93652
806.2079, 16.87524
806.6900, 13.25562
807.1721, 11.18066
807.6542, 11.73315
808.1364, 13.01123
808.6185, 12.33350
809.1006, 10.29443
809.5827, 8.721680
810.0648, 8.184814
810.5469, 7.599854
811.0291, 5.505859
811.5112, 3.201416
811.9933, 2.192627
812.4754, 3.730957
812.9575, 5.169922
813.4396, 6.604980
813.9218, 7.684326
814.4039, 7.886230
814.8860, 7.161621
815.3681, 6.595703
815.8502, 6.381104
816.3323, 6.101563
816.8145, 5.302490
817.2966, 4.099854
817.7787, 2.522217
818.2608, 0.2929690
818.7429, 1.293457
819.2250, 1.675049
819.7072, 1.081055
820.1893, 0.4892580
820.6714, 4.619873
821.1535, 5.871338
821.6356, 3.024170
822.1177, 0.5500490
822.5999, 0.9123540
823.0820, 1.429199
823.5641, 3.201172
824.0462, 4.012939
824.5283, 4.286865
825.0104, 3.951660
825.4926, 3.497314
825.9747, 3.432373
826.4568, 3.785889
826.9389, 4.700439
827.4210, 7.164063
827.9031, 9.423828
828.3853, 10.10474
828.8674, 8.646484
829.3495, 8.496826
829.8316, 9.959717
830.3137, 11.51904
830.7958, 11.32886
831.2780, 10.23438
831.7601, 10.24365
832.2422, 11.63403
832.7243, 12.81958
833.2064, 12.50513
833.6885, 11.83179
834.1707, 11.70239
834.6528, 12.41235
835.1349, 13.02759
835.6170, 14.01782
836.0991, 14.22803
836.5812, 12.12915
837.0634, 8.003418
837.5455, 6.651123
838.0276, 8.098877
838.5097, 10.19214
838.9918, 11.68042
839.4739, 12.66284
839.9561, 13.07422
840.4382, 12.92407
840.9203, 12.86548
841.4024, 13.45996
841.8845, 13.80542
842.3666, 13.59399
842.8488, 12.82642
843.3309, 11.04102
843.8130, 7.955322
844.2951, 5.533936
844.7772, 5.567139
845.2593, 6.926270
845.7415, 6.768311
846.2236, 5.329590
846.7057, 4.164551
847.1878, 5.166016
847.6699, 5.951172
848.1520, 4.626465
848.6342, 1.400635
849.1163, 0.1279300
849.5984, 1.602539
850.0805, 3.211182
850.5626, 4.271484
851.0447, 4.892578
851.5269, 5.328613
852.0090, 5.580811
852.4911, 5.749268
852.9732, 5.689453
853.4553, 5.635498
853.9374, 5.621338
854.4196, 5.834961
854.9017, 6.812988
855.3839, 9.978760
855.8660, 12.23706
856.3481, 12.70679
856.8302, 11.92944
857.3123, 11.21216
857.7944, 10.56812
858.2766, 9.384766
858.7587, 7.064941
859.2408, 5.180420
859.7229, 6.905273
860.2050, 10.66528
860.6871, 13.21582
861.1693, 12.78076
861.6514, 12.14624
862.1335, 12.02734
862.6156, 12.40894
863.0977, 13.39355
863.5798, 15.51294
864.0620, 16.74463
864.5441, 16.43677
865.0262, 16.02856
865.5083, 17.88989
865.9904, 21.21680
866.4725, 23.33057
866.9547, 23.55151
867.4368, 23.78979
867.9189, 24.75391
868.4010, 26.59448
868.8831, 29.61792
869.3652, 34.53516
869.8474, 39.43408
870.3295, 44.61304
870.8116, 49.24731
871.2937, 52.48975
871.7758, 54.32544
872.2579, 55.71191
872.7401, 56.93408
873.2222, 58.24390
873.7043, 59.35425
874.1864, 60.22729
874.6685, 61.30713
875.1506, 62.90845
875.6328, 64.27344
876.1149, 63.46582
876.5970, 63.75610
877.0791, 67.14722
877.5612, 73.18140
878.0433, 76.31958
878.5255, 76.39697
879.0076, 75.99683
879.4897, 76.81104
879.9718, 77.81812
880.4539, 77.81152
880.9360, 77.01196
881.4182, 75.70215
881.9003, 72.77197
882.3824, 70.74316
882.8645, 71.65576
883.3466, 73.89551
883.8287, 73.11011
884.3109, 68.72974
884.7930, 64.41553
885.2751, 61.16016
885.7572, 58.32397
886.2393, 54.69043
886.7214, 50.60864
887.2036, 47.03369
887.6857, 44.53223
888.1678, 42.19165
888.6499, 40.14917
889.1320, 37.80493
889.6141, 34.23120
890.0963, 28.62012
890.5784, 24.18262
891.0605, 21.27856
891.5426, 19.22241
892.0247, 17.18286
892.5068, 15.29590
892.9890, 13.97144
893.4711, 13.31714
893.9532, 13.00000
894.4353, 13.27393
894.9174, 13.47729
895.3995, 12.96265
895.8817, 11.42188
896.3638, 10.27466
896.8459, 9.525879
897.3280, 9.135986
897.8101, 8.977783
898.2922, 9.113281
898.7744, 10.16943
899.2565, 12.04175
899.7386, 13.83105
900.2207, 15.51147
900.7028, 16.39502
901.1849, 15.45874
901.6671, 13.00366
902.1492, 11.35474
902.6313, 11.08667
903.1134, 11.11719
903.5955, 11.38257
904.0776, 11.63965
904.5598, 11.40942
905.0419, 10.64209
905.5240, 8.623535
906.0062, 4.012451
906.4883, 0.1313480
906.9704, 0.7753910
907.4525, 0.8891600
907.9346, 2.847900
908.4167, 5.674316
908.8989, 7.215576
909.3810, 7.093262
909.8631, 5.926025
910.3452, 4.014404
910.8273, 1.465576
911.3094, 4.4188999E-02
911.7916, 6.8359002E-02
912.2737, 1.109863
912.7558, 5.452393
913.2379, 9.986084
913.7200, 10.78735
914.2021, 6.212158
914.6843, 4.106201
915.1664, 8.200928
915.6485, 11.77808
916.1306, 10.50635
916.6127, 4.855713
917.0948, 3.636230
917.5770, 6.831055
918.0591, 9.295166
918.5412, 6.214600
919.0233, 1.852051
919.5054, 1.213867
919.9875, 3.435303
920.4697, 4.441406
920.9518, 1.447754
921.4339, 0.9160160
921.9160, 1.715576
922.3981, 1.248779
922.8802, 0.2954100
923.3624, 2.823242
923.8445, 3.913330
924.3266, 2.384766
924.8087, 0.3310550
925.2908, 0.3364260
925.7729, 1.231445
926.2551, 1.271729
926.7372, 0.5488280
927.2193, 2.232178
927.7014, 3.864258
928.1835, 4.887695
928.6656, 4.136719
929.1478, 1.586426
929.6299, 2.214111
930.1120, 6.470215
930.5941, 9.775146
931.0762, 6.317139
931.5583, 1.000000
932.0405, 0.1696780
932.5226, 3.294922
933.0047, 4.606689
933.4868, 0.1542970
933.9689, 4.086914
934.4510, 5.888184
934.9332, 5.764648
935.4153, 6.173828
935.8974, 7.086670
936.3795, 8.396240
936.8616, 10.32446
937.3438, 12.24707
937.8259, 13.43945
938.3080, 14.16382
938.7901, 14.91992
939.2722, 15.87451
939.7543, 16.81152
940.2365, 17.55518
940.7186, 18.44263
941.2007, 20.29565
941.6828, 22.96021
942.1649, 24.28955
942.6470, 23.91211
943.1292, 23.08081
943.6113, 22.27905
944.0934, 22.02954
944.5755, 23.10132
945.0576, 25.93115
945.5397, 28.15796
946.0219, 29.65552
946.5040, 30.48267
946.9861, 30.35767
947.4682, 29.56714
947.9503, 30.08569
948.4324, 31.73462
948.9146, 32.97021
949.3967, 32.43481
949.8788, 31.56616
950.3609, 31.12720
950.8430, 31.20215
951.3251, 32.08179
951.8073, 34.49902
952.2894, 36.26025
952.7715, 36.88159
953.2536, 36.98120
953.7357, 37.71680
954.2179, 38.85229
954.7000, 39.22339
955.1821, 38.36475
955.6642, 37.88843
956.1464, 39.60767
956.6285, 41.78711
957.1106, 42.50464
957.5927, 40.82935
958.0748, 41.78662
958.5569, 46.42993
959.0391, 50.82690
959.5212, 52.50317
960.0033, 51.89429
960.4854, 49.26294
960.9675, 45.10693
961.4496, 42.33667
961.9318, 44.17773
962.4139, 46.02930
962.8960, 45.11304
963.3781, 42.49365
963.8602, 41.36426
964.3423, 42.25879
964.8245, 41.93604
965.3066, 39.63525
965.7887, 36.72266
966.2708, 34.75073
966.7529, 33.74341
967.2350, 34.10938
967.7172, 36.57080
968.1993, 37.97192
968.6814, 35.98877
969.1635, 33.36743
969.6456, 32.03735
970.1277, 32.14062
970.6099, 32.30542
971.0920, 32.41455
971.5741, 32.95386
972.0562, 34.78125
972.5383, 36.81177
973.0204, 37.51562
973.5026, 37.14526
973.9847, 36.96851
974.4668, 37.22388
974.9489, 37.96118
975.4310, 39.49121
975.9131, 41.30493
976.3953, 42.31885
976.8774, 42.59497
977.3595, 42.94922
977.8416, 43.57153
978.3237, 44.53857
978.8058, 46.75684
979.2880, 48.81543
979.7701, 49.12500
980.2522, 46.65430
980.7343, 45.50903
981.2164, 45.90356
981.6985, 47.28589
982.1807, 49.65259
982.6628, 52.68408
983.1449, 55.50122
983.6270, 58.02832
984.1091, 59.64600
984.5912, 58.35303
985.0734, 57.51685
985.5555, 59.98975
986.0376, 64.27246
986.5197, 66.06030
987.0018, 64.11694
987.4839, 64.14966
987.9661, 67.07715
988.4482, 71.45752
988.9303, 76.65063
989.4124, 82.06421
989.8945, 85.77222
990.3766, 86.96606
990.8588, 88.08521
991.3409, 90.61597
991.8230, 93.37183
992.3051, 95.62061
992.7872, 97.38037
993.2693, 100.3037
993.7515, 104.4385
994.2336, 108.1248
994.7157, 110.0437
995.1978, 111.3408
995.6799, 113.1074
996.1620, 115.3062
996.6442, 117.8667
997.1263, 122.0771
997.6084, 124.5659
998.0905, 124.4399
998.5726, 123.2029
999.0547, 122.7195
999.5369, 122.8679
1000.019, 123.4734
1000.501, 124.6599
1000.983, 123.7222
1001.465, 117.0183
1001.947, 108.7554
1002.430, 101.9546
1002.912, 96.84058
1003.394, 92.76025
1003.876, 90.23169
1004.358, 86.91943
1004.840, 81.43115
1005.322, 75.14282
1005.804, 70.91333
1006.287, 67.99561
1006.769, 64.38696
1007.251, 58.41113
1007.733, 53.14966
1008.215, 49.99194
1008.697, 47.58423
1009.179, 44.77930
1009.661, 41.56543
1010.143, 37.90967
1010.626, 33.70581
1011.108, 29.90918
1011.590, 27.40015
1012.072, 25.54248
1012.554, 24.03247
1013.036, 22.70850
1013.518, 20.48877
1014.000, 16.21460
1014.483, 12.84521
1014.965, 11.31519
1015.447, 10.83032
1015.929, 9.879639
1016.411, 8.551758
1016.893, 7.036865
1017.375, 5.192627
1017.857, 3.824951
1018.339, 3.881836
1018.822, 4.297607
1019.304, 4.043701
1019.786, 2.941162
1020.268, 2.354980
1020.750, 2.322266
1021.232, 2.401611
1021.714, 2.242432
1022.196, 2.041504
1022.679, 2.459717
1023.161, 3.107910
1023.643, 2.879883
1024.125, 0.9506840
1024.607, 2.401123
1025.089, 8.4472999E-02
1025.571, 4.598877
1026.053, 9.432373
1026.535, 14.19727
1027.018, 15.76074
1027.500, 13.61987
1027.982, 10.99805
1028.464, 10.53857
1028.946, 10.47095
1029.428, 8.861328
1029.910, 5.708740
1030.392, 5.493408
1030.875, 9.292969
1031.357, 11.96997
1031.839, 11.27173
1032.321, 9.075439
1032.803, 7.723633
1033.285, 7.598633
1033.767, 9.836670
1034.249, 16.80591
1034.731, 22.01001
1035.214, 23.03589
1035.696, 22.58838
1036.178, 22.41919
1036.660, 22.53906
1037.142, 22.94263
1037.624, 23.61816
1038.106, 24.17676
1038.588, 24.39819
1039.071, 24.45996
1039.553, 24.38013
1040.035, 24.16016
1040.517, 24.30908
1040.999, 25.15747
1041.481, 25.74829
1041.963, 25.69946
1042.445, 26.00952
1042.927, 28.65991
1043.410, 32.42798
1043.892, 34.77856
1044.374, 35.21411
1044.856, 35.84692
1045.338, 38.70679
1045.820, 40.48706
1046.302, 39.10303
1046.784, 35.51367
1047.266, 34.78906
1047.749, 36.55420
1048.231, 37.55078
1048.713, 36.52954
1049.195, 34.97241
1049.677, 33.98096
1050.159, 33.01587
1050.641, 31.27222
1051.123, 27.84399
1051.606, 26.63623
1052.088, 28.13794
1052.570, 29.87158
1053.052, 30.61694
1053.534, 30.30884
1054.016, 28.22974
1054.498, 24.81494
1054.980, 22.03101
1055.463, 21.20923
1055.945, 20.33838
1056.427, 18.53223
1056.909, 16.78882
1057.391, 17.32007
1057.873, 19.71533
1058.355, 20.46118
1058.837, 18.89160
1059.319, 17.15112
1059.802, 16.81396
1060.284, 17.05640
1060.766, 17.56519
1061.248, 18.25098
1061.730, 17.87280
1062.212, 16.11816
1062.694, 15.12256
1063.176, 16.08081
1063.658, 17.50464
1064.141, 16.77637
1064.623, 15.11670
1065.105, 14.65552
1065.587, 16.57397
1066.069, 18.33057
1066.551, 20.11938
1067.033, 20.88745
1067.515, 18.95288
1067.998, 15.17603
1068.480, 14.56689
1068.962, 16.70532
1069.444, 19.40015
1069.926, 22.54663
1070.408, 24.72144
1070.890, 24.75830
1071.372, 23.57910
1071.854, 22.37305
1072.337, 21.12622
1072.819, 20.71753
1073.301, 21.41992
1073.783, 21.65161
1074.265, 19.06470
1074.747, 15.94043
1075.229, 14.72070
1075.711, 15.45044
1076.193, 15.96753
1076.676, 16.63306
1077.158, 15.63208
1077.640, 11.86377
1078.122, 7.317383
1078.604, 5.689941
1079.086, 5.863525
1079.568, 5.360840
1080.051, 3.252686
1080.533, 2.027588
1081.015, 3.325928
1081.497, 4.964355
1081.979, 6.058350
1082.461, 6.583984
1082.943, 6.076416
1083.425, 4.737549
1083.907, 4.238037
1084.390, 6.252197
1084.872, 8.112061
1085.354, 8.017578
1085.836, 6.816406
1086.318, 5.506104
1086.800, 3.778564
1087.282, 3.547363
1087.764, 5.022461
1088.246, 6.371582
1088.729, 5.598145
1089.211, 4.263916
1089.693, 4.454102
1090.175, 5.719971
1090.657, 6.145508
1091.139, 4.864990
1091.621, 3.664063
1092.103, 2.693848
1092.586, 2.068115
1093.068, 2.181396
1093.550, 2.712158
1094.032, 2.947754
1094.514, 2.811523
1094.996, 2.429688
1095.478, 2.391846
1095.960, 1.382080
1096.443, 1.895264
1096.925, 5.978760
1097.407, 6.225342
1097.889, 3.126709
1098.371, 0.2077640
1098.853, 1.602539
1099.335, 3.418945
1099.817, 6.895264
1100.299, 9.836426
1100.781, 10.17163
1101.264, 7.888428
1101.746, 5.335449
1102.228, 2.565918
1102.710, 0.5512700
1103.192, 4.0282998E-02
1103.674, 0.2695310
1104.156, 1.806396
1104.638, 3.604248
1105.121, 3.873291
1105.603, 0.4846190
1106.085, 0.6284180
1106.567, 1.208984
1107.049, 3.317627
1107.531, 3.359375
1108.013, 2.236816
1108.495, 1.976807
1108.978, 2.278320
1109.460, 1.822266
1109.942, 0.7221680
1110.424, 2.898438
1110.906, 4.265381
1111.388, 5.067871
1111.870, 5.615723
1112.352, 5.902344
1112.834, 5.498291
1113.317, 4.425537
1113.799, 4.015381
1114.281, 6.053223
1114.763, 7.828125
1115.245, 7.702148
1115.727, 6.502197
1116.209, 6.362061
1116.691, 7.273926
1117.173, 7.845215
1117.656, 7.846680
1118.138, 7.314941
1118.620, 5.207764
1119.102, 3.435547
1119.584, 4.247559
1120.066, 7.641113
1120.548, 9.147461
1121.030, 8.416016
1121.513, 8.352295
1121.995, 10.68164
1122.477, 12.76099
1122.959, 10.07495
1123.441, 5.614014
1123.923, 3.792725
1124.405, 6.751465
1124.887, 8.074463
1125.370, 6.770264
1125.852, 6.589355
1126.334, 11.10986
1126.816, 17.27100
1127.298, 18.06982
1127.780, 15.36792
1128.262, 13.57520
1128.744, 15.42212
1129.226, 16.48853
1129.709, 15.91333
1130.191, 15.12061
1130.673, 15.46436
1131.155, 16.59961
1131.637, 17.03418
1132.119, 16.91211
1132.601, 17.30957
1133.083, 19.91040
1133.566, 21.66357
1134.048, 21.30005
1134.530, 19.82642
1135.012, 18.09668
1135.494, 16.27051
1135.976, 16.27515
1136.458, 18.27466
1136.940, 19.88647
1137.422, 19.05615
1137.905, 17.79565
1138.387, 17.49878
1138.869, 17.67432
1139.351, 16.84302
1139.833, 14.94629
1140.315, 13.81787
1140.797, 13.91699
1141.279, 13.95947
1141.761, 12.28931
1142.244, 10.44019
1142.726, 9.947266
1143.208, 10.75488
1143.690, 10.60669
1144.172, 9.102295
1144.654, 9.152100
1145.136, 12.13110
1145.618, 15.46606
1146.101, 15.38550
1146.583, 14.07397
1147.065, 14.52905
1147.547, 17.83667
1148.029, 18.88770
1148.511, 16.96777
1148.993, 14.89990
1149.475, 14.10107
1149.958, 13.59204
1150.440, 11.12085
1150.922, 7.952393
1151.404, 6.521240
1151.886, 8.674805
1152.368, 9.605225
1152.850, 8.797119
1153.332, 7.322266
1153.814, 5.537598
1154.297, 3.701172
1154.779, 2.753906
1155.261, 2.506104
1155.743, 2.011963
1156.225, 0.3562010
1156.707, 1.429688
1157.189, 0.4655760
1157.671, 1.121094
1158.153, 2.649658
1158.636, 3.771484
1159.118, 2.376221
1159.600, 0.9760740
1160.082, 3.386719
1160.564, 3.358154
1161.046, 2.252197
1161.528, 0.2229000
1162.010, 2.781982
1162.493, 3.896240
1162.975, 3.871582
1163.457, 4.579346
1163.939, 5.864746
1164.421, 6.423828
1164.903, 4.467529
1165.385, 2.952393
1165.867, 3.604492
1166.349, 5.195801
1166.832, 5.832031
1167.314, 5.614014
1167.796, 5.444580
1168.278, 5.270508
1168.760, 4.696289
1169.242, 2.085693
1169.724, 0.3283690
1170.206, 1.941895
1170.688, 5.574951
1171.171, 8.484375
1171.653, 10.68335
1172.135, 10.12378
1172.617, 6.015381
1173.099, 2.634766
1173.581, 5.114014
1174.063, 8.375000
1174.545, 7.672363
1175.028, 4.133057
1175.510, 4.030273
1175.992, 7.597900
1176.474, 8.478027
1176.956, 4.327148
1177.438, 6.6405997E-02
1177.920, 0.8066410
1178.402, 3.211426
1178.885, 4.303467
1179.367, 3.961914
1179.849, 3.429688
1180.331, 2.695801
1180.813, 1.859863
1181.295, 0.6345210
1181.777, 0.2209470
1182.259, 3.153564
1182.741, 6.821289
1183.224, 7.857910
1183.706, 5.645508
1184.188, 5.788574
1184.670, 8.750977
1185.152, 10.63086
1185.634, 8.789063
1186.116, 6.593750
1186.598, 8.013916
1187.081, 11.38745
1187.563, 14.71509
1188.045, 18.08350
1188.527, 19.30859
1189.009, 17.94800
1189.491, 16.83984
1189.973, 17.95508
1190.455, 19.61011
1190.938, 19.46045
1191.420, 18.52100
1191.902, 18.56616
1192.384, 20.64673
1192.866, 21.36597
1193.348, 20.50781
1193.830, 19.47412
1194.312, 18.90771
1194.794, 18.93579
1195.276, 20.26538
1195.759, 22.20459
1196.241, 23.23804
1196.723, 22.49707
1197.205, 22.47485
1197.687, 23.37378
1198.169, 24.13208
1198.651, 23.46240
1199.133, 22.46826
1199.616, 22.81787
1200.098, 24.00439
1200.580, 24.72314
1201.062, 24.37354
1201.544, 24.67139
1202.026, 26.05493
1202.508, 26.76758
1202.990, 23.72388
1203.473, 20.00806
1203.955, 19.98486
1204.437, 22.71826
1204.919, 24.82935
1205.401, 25.90698
1205.883, 26.29297
1206.365, 26.13965
1206.847, 24.97876
1207.329, 21.00244
1207.812, 16.85938
1208.294, 16.66968
1208.776, 19.50439
1209.258, 20.71313
1209.740, 18.70508
1210.222, 18.32812
1210.704, 20.63745
1211.186, 22.62427
1211.668, 20.56934
1212.151, 16.88086
1212.633, 14.06348
1213.115, 12.36328
1213.597, 12.37744
1214.079, 14.90845
1214.561, 15.83789
1215.043, 14.23926
1215.525, 13.06567
1216.008, 17.35059
1216.490, 22.43872
1216.972, 21.44385
1217.454, 15.04370
1217.936, 12.20044
1218.418, 14.80225
1218.900, 16.73511
1219.382, 17.02661
1219.865, 16.60010
1220.347, 16.58057
1220.829, 16.30542
1221.311, 14.31274
1221.793, 11.02905
1222.275, 10.43848
1222.757, 13.46533
1223.239, 16.00586
1223.721, 17.36133
1224.203, 17.78711
1224.686, 17.40039
1225.168, 16.41553
1225.650, 14.32959
1226.132, 11.43213
1226.614, 10.78076
1227.096, 12.94751
1227.578, 14.24097
1228.061, 13.80371
1228.543, 13.08838
1229.025, 13.31567
1229.507, 14.42065
1229.989, 17.03687
1230.471, 20.76953
1230.953, 22.22998
1231.435, 21.23706
1231.917, 19.61182
1232.400, 17.64697
1232.882, 15.73047
1233.364, 13.96729
1233.846, 12.61865
1234.328, 12.45142
1234.810, 13.05591
1235.292, 11.16138
1235.774, 6.673340
1236.256, 5.512451
1236.739, 9.810303
1237.221, 13.94116
1237.703, 12.85547
1238.185, 9.911621
1238.667, 7.531982
1239.149, 5.708496
1239.631, 3.888916
1240.113, 2.206787
1240.596, 1.790527
1241.078, 3.140137
1241.560, 4.480957
1242.042, 4.297119
1242.524, 3.759033
1243.006, 3.557617
1243.488, 3.637451
1243.970, 3.793945
1244.453, 4.032715
1244.935, 4.671631
1245.417, 5.899902
1245.899, 6.738037
1246.381, 5.811279
1246.863, 5.230469
1247.345, 6.523438
1247.827, 8.823242
1248.309, 9.083008
1248.792, 7.704590
1249.274, 6.142822
1249.756, 4.582520
1250.238, 4.024170
1250.720, 6.368652
1251.202, 8.156250
1251.684, 7.730225
1252.166, 5.984619
1252.648, 5.028320
1253.131, 4.692383
1253.613, 4.577393
1254.095, 4.660645
1254.577, 4.346924
1255.059, 3.060547
1255.541, 1.845947
1256.023, 0.9826660
1256.505, 0.5180660
1256.988, 0.8320310
1257.470, 1.563232
1257.952, 2.040527
1258.434, 2.216064
1258.916, 1.595215
1259.398, 0.7253420
1259.880, 1.671875
1260.362, 0.2004390
1260.844, 3.215088
1261.327, 5.424561
1261.809, 6.522461
1262.291, 5.620361
1262.773, 2.333496
1263.255, 0.1398930
1263.737, 0.9001460
1264.219, 0.4172360
1264.701, 2.128906
1265.183, 4.946777
1265.666, 5.103027
1266.148, 4.622070
1266.630, 6.084229
1267.112, 9.790527
1267.594, 13.08691
1268.076, 16.16821
1268.558, 17.00757
1269.040, 14.49536
1269.523, 11.57446
1270.005, 10.97681
1270.487, 11.43042
1270.969, 12.15820
1271.451, 12.95190
1271.933, 12.52344
1272.415, 10.93115
1272.897, 10.57202
1273.380, 12.36816
1273.862, 13.60034
1274.344, 11.54639
1274.826, 8.970215
1275.308, 7.546143
1275.790, 7.033936
1276.272, 6.540771
1276.754, 6.161133
1277.236, 6.460205
1277.719, 7.577148
1278.201, 9.123291
1278.683, 12.14966
1279.165, 13.93164
1279.647, 13.16943
1280.129, 10.87549
1280.611, 8.961426
1281.093, 6.821045
1281.576, 4.480713
1282.058, 1.377441
1282.540, 0.7043460
1283.022, 1.028076
1283.504, 0.7785640
1283.986, 0.1879880
1284.468, 0.3635250
1284.950, 5.2246001E-02
1285.432, 0.5876460
1285.915, 0.5100100
1286.397, 3.345947
1286.879, 5.042725
1287.361, 5.274414
1287.843, 4.509033
1288.325, 2.495361
1288.807, 0.9113770
1289.289, 2.423340
1289.771, 4.829590
1290.254, 5.844238
1290.736, 5.425293
1291.218, 4.795166
1291.700, 3.848877
1292.182, 3.541260
1292.664, 3.158936
1293.146, 3.834961
1293.628, 6.686523
1294.111, 9.064209
1294.593, 10.48364
1295.075, 10.51733
1295.557, 8.265381
1296.039, 4.070313
1296.521, 1.284668
1297.003, 0.4638670
1297.485, 1.052002
1297.968, 4.388672
1298.450, 6.145752
1298.932, 3.909180
1299.414, 0.7700200
1299.896, 2.557373
1300.378, 7.198975
1300.860, 7.086914
1301.342, 2.442139
1301.824, 0.0000000E+00
##END=



