##NAMES=Microcline
##RRUFFID=R050150
##IDEAL CHEMISTRY=KAlSi_3_O_8_
##LOCALITY=Crystal Peak area, Park/Teller Counties, Colorado, USA
##OWNER=RRUFF
##SOURCE=Dave Bunk Minerals
##DESCRIPTION=Pale blue prismatic crystals
##STATUS=The identification of this mineral has been confirmed by X-ray diffraction and chemical analysis
##URL=rruff.info/R050150
##MEASURED CHEMISTRY=(K_0.95_Na_0.05_)_Î£=1_Al_1.00_Si_3.00_O_8_
108.691, 0.000
110.082, 4.741
111.473, 9.200
112.864, 22.269
114.254, 133.494
115.644, 321.027
117.034, 470.070
118.424, 725.359
119.813, 1006.141
121.203, 1326.450
122.592, 1846.849
123.981, 2370.669
125.369, 3244.389
126.758, 3379.768
128.146, 2639.604
129.534, 1791.103
130.922, 1530.721
132.309, 962.089
133.696, 1143.949
135.083, 1330.082
136.470, 2688.360
137.857, 3720.195
139.243, 4784.490
140.630, 4585.783
142.016, 4152.373
143.401, 3560.061
144.787, 3604.108
146.172, 3824.730
147.557, 4432.090
148.942, 5176.327
150.327, 6283.561
151.711, 8030.896
153.096, 10144.429
154.480, 12494.252
155.863, 14100.438
157.247, 14274.058
158.630, 13135.174
160.013, 10912.834
161.396, 8534.717
162.779, 6495.875
164.161, 4934.234
165.544, 3812.480
166.926, 3138.201
168.308, 2568.437
169.689, 2053.074
171.070, 1808.920
172.452, 1918.347
173.833, 1804.116
175.213, 1844.660
176.594, 1937.357
177.974, 1872.195
179.354, 2005.392
180.734, 1676.910
182.114, 1348.644
183.493, 1260.406
184.872, 1192.194
186.251, 909.012
187.630, 958.943
189.008, 725.956
190.387, 689.040
191.765, 800.174
193.143, 979.361
194.520, 1303.637
195.898, 1472.030
197.275, 1902.554
198.652, 2006.213
200.029, 1849.004
201.405, 1373.928
202.782, 1124.978
204.158, 981.149
205.534, 871.435
206.909, 965.828
208.285, 490.321
209.660, 443.903
211.035, 196.568
212.410, 80.692
213.784, 12.118
215.159, 159.005
216.533, 145.067
217.907, 30.076
219.281, 142.041
220.654, 25.981
222.027, 188.905
223.400, 20.180
224.773, 3.736
226.146, 83.655
227.518, 95.572
228.891, 96.095
230.263, 105.519
231.634, 77.272
233.006, 61.183
234.377, 80.091
235.748, 41.994
237.119, 18.106
238.490, 131.792
239.860, 152.314
241.231, 89.424
242.601, 339.540
243.970, 238.714
245.340, 441.516
246.709, 537.762
248.079, 757.728
249.448, 1354.010
250.816, 1675.650
252.185, 2303.938
253.553, 3227.423
254.921, 4266.949
256.289, 5219.410
257.657, 4996.854
259.024, 4769.340
260.391, 4470.863
261.758, 4515.422
263.125, 4561.020
264.492, 4977.517
265.858, 4860.604
267.224, 4238.242
268.590, 3722.099
269.956, 2994.790
271.321, 3007.771
272.687, 2838.496
274.052, 3007.553
275.416, 3317.673
276.781, 4467.432
278.146, 5594.377
279.510, 7286.090
280.874, 9463.116
282.237, 11227.381
283.601, 12760.836
284.964, 12622.433
286.327, 11401.143
287.690, 9498.942
289.053, 7044.801
290.416, 5257.702
291.778, 4162.621
293.140, 3040.568
294.502, 2460.516
295.863, 1904.456
297.225, 1674.387
298.586, 1687.303
299.947, 1383.197
301.308, 1009.045
302.668, 698.827
304.029, 584.533
305.389, 527.154
306.749, 531.687
308.108, 422.459
309.468, 486.520
310.827, 267.833
312.186, 266.086
313.545, 180.281
314.903, 191.427
316.262, 252.523
317.620, 166.574
318.978, 290.586
320.336, 305.558
321.693, 340.492
323.051, 393.393
324.408, 675.263
325.765, 714.943
327.121, 1244.264
328.478, 1572.341
329.834, 1638.155
331.190, 1855.895
332.546, 1651.418
333.902, 1280.724
335.257, 1040.862
336.612, 710.854
337.967, 562.714
339.322, 443.589
340.677, 216.480
342.031, 293.386
343.385, 225.306
344.739, 284.237
346.093, 155.180
347.446, 125.133
348.799, 122.096
350.153, 267.070
351.505, 367.055
352.858, 358.049
354.210, 448.162
355.563, 504.067
356.915, 463.091
358.267, 440.123
359.618, 331.163
360.969, 315.213
362.321, 410.266
363.672, 257.326
365.022, 283.395
366.373, 439.465
367.723, 368.539
369.073, 628.619
370.423, 556.707
371.773, 609.801
373.122, 447.928
374.471, 508.059
375.821, 392.861
377.169, 93.521
378.518, 167.160
379.866, 496.537
381.215, 49.795
382.563, 128.047
383.910, 69.375
385.258, 28.033
386.605, 52.332
387.952, 59.328
389.299, 55.643
390.646, 30.637
391.992, 95.094
393.339, 58.416
394.685, 21.898
396.031, 68.645
397.376, 329.045
398.722, 109.861
400.067, 376.387
401.412, 399.619
402.757, 390.996
404.101, 431.379
405.446, 315.766
406.790, 103.154
408.134, 225.547
409.478, 138.941
410.821, 159.293
412.165, 151.650
413.508, 37.986
414.851, 85.301
416.193, 54.609
417.536, 41.070
418.878, 80.748
420.220, 27.564
421.562, 38.885
422.904, 16.627
424.245, 31.447
425.586, 4.896
426.927, 24.236
428.268, 105.562
429.609, 91.619
430.949, 65.764
432.289, 74.568
433.629, 81.023
434.969, 40.578
436.309, 153.182
437.648, 111.910
438.987, 264.256
440.326, 337.865
441.665, 367.203
443.003, 409.535
444.342, 647.072
445.680, 839.494
447.018, 1217.803
448.355, 1811.102
449.693, 2777.537
451.030, 3239.309
452.367, 3363.576
453.704, 3768.381
455.041, 3152.668
456.377, 2561.154
457.713, 2077.375
459.049, 1628.584
460.385, 1473.779
461.721, 1477.963
463.056, 1622.139
464.391, 1660.398
465.726, 2045.551
467.061, 2343.695
468.395, 3010.828
469.730, 3780.949
471.064, 5367.066
472.398, 6459.178
473.731, 8104.277
475.065, 7832.371
476.398, 7332.455
477.731, 6408.527
479.064, 6075.598
480.397, 5117.660
481.729, 4789.713
483.062, 4644.756
484.394, 4225.795
485.725, 3449.824
487.057, 2436.846
488.389, 1989.865
489.720, 1535.877
491.051, 1381.887
492.382, 1382.893
493.712, 1257.895
495.043, 1323.896
496.373, 1350.896
497.703, 1507.898
499.032, 2006.896
500.362, 2273.895
501.691, 2857.896
503.020, 3897.893
504.349, 4974.893
505.678, 6981.893
507.007, 9485.889
508.335, 12411.875
509.663, 16287.074
510.991, 20117.070
512.319, 22171.352
513.646, 20172.346
514.973, 16836.617
516.300, 13028.973
517.627, 9973.961
518.954, 7645.000
520.280, 5583.076
521.607, 4355.062
522.933, 3366.240
524.259, 2819.229
525.584, 2247.225
526.910, 1836.555
528.235, 1500.582
529.560, 1283.396
530.885, 1052.928
532.209, 941.432
533.534, 844.855
534.858, 747.039
536.182, 830.100
537.506, 673.840
538.829, 509.947
540.152, 638.713
541.476, 463.850
542.799, 640.070
544.121, 227.229
545.444, 405.553
546.766, 401.707
548.088, 353.525
549.410, 263.178
550.732, 296.789
552.053, 303.842
553.375, 251.104
554.696, 246.043
556.017, 205.318
557.337, 208.406
558.658, 236.965
559.978, 217.602
561.298, 204.277
562.618, 188.178
563.938, 149.543
565.257, 188.318
566.576, 210.408
567.895, 129.047
569.214, 220.111
570.533, 351.203
571.851, 191.814
573.170, 176.617
574.488, 418.217
575.805, 249.814
577.123, 377.973
578.440, 271.322
579.758, 310.924
581.075, 734.514
582.391, 484.104
583.708, 734.531
585.024, 538.092
586.341, 364.650
587.657, 367.201
588.972, 358.744
590.288, 266.049
591.603, 75.574
592.918, 54.090
594.233, 46.594
595.548, 18.240
596.863, 243.572
598.177, 49.059
599.491, 262.529
600.805, 220.988
602.119, 65.436
603.432, 91.873
604.746, 148.299
606.059, 195.713
607.372, 85.115
608.685, 6.502
609.997, 211.875
611.309, 64.744
612.621, 114.584
613.933, 64.900
615.245, 233.203
616.557, 237.494
617.868, 356.035
619.179, 263.301
620.490, 405.025
621.801, 110.270
623.111, 543.500
624.421, 328.955
625.731, 683.162
627.041, 269.734
628.351, 727.623
629.660, 562.740
630.970, 507.902
632.279, 701.051
633.588, 431.465
634.896, 466.592
636.205, 407.252
637.513, 676.771
638.821, 548.861
640.129, 686.371
641.437, 755.617
642.744, 737.668
644.051, 531.709
645.358, 865.225
646.665, 822.240
647.972, 1062.242
649.278, 975.230
650.584, 1174.209
651.890, 934.170
653.196, 1348.121
654.502, 1096.057
655.807, 1040.980
657.113, 695.895
658.418, 670.791
659.722, 807.676
661.027, 607.547
662.331, 394.402
663.636, 274.246
664.940, 355.076
666.244, 116.889
667.547, 411.686
668.851, 104.467
670.154, 284.234
671.457, 107.984
672.760, 88.719
674.062, 177.936
675.365, 166.799
676.667, 157.943
677.969, 225.152
679.271, 135.529
680.572, 226.719
681.874, 272.982
683.175, 105.688
684.476, 179.393
685.777, 20.625
687.077, 11.900
688.378, 84.580
689.678, 88.621
690.978, 145.314
692.278, 84.232
693.577, 301.576
694.877, 202.975
696.176, 196.793
697.475, 107.535
698.774, 27.512
700.072, 146.387
701.371, 127.291
702.669, 38.189
703.967, 66.938
705.265, 259.859
706.562, 158.656
707.860, 18.711
709.157, 216.824
710.454, 223.598
711.751, 50.762
713.047, 215.059
714.344, 22.168
715.640, 320.084
716.936, 238.510
718.232, 84.820
719.527, 143.752
720.823, 198.477
722.118, 120.855
723.413, 230.209
724.708, 123.541
726.002, 115.848
727.297, 376.254
728.591, 42.486
729.885, 234.404
731.179, 414.926
732.472, 160.580
733.766, 267.711
735.059, 239.477
736.352, 274.586
737.645, 469.295
738.937, 617.357
740.230, 755.406
741.522, 644.887
742.814, 976.043
744.106, 1132.355
745.397, 1468.912
746.689, 1832.461
747.980, 1662.727
749.271, 1760.920
750.562, 1488.328
751.853, 1514.805
753.143, 1028.373
754.433, 962.924
755.723, 852.719
757.013, 464.492
758.303, 717.379
759.592, 533.020
760.881, 518.727
762.170, 574.408
763.459, 465.922
764.748, 541.062
766.036, 255.199
767.325, 628.242
768.613, 380.770
769.901, 425.064
771.188, 525.596
772.476, 186.102
773.763, 551.584
775.050, 137.227
776.337, 414.664
777.624, 297.051
778.910, 193.439
780.196, 323.809
781.482, 159.150
782.768, 81.607
784.054, 49.896
785.339, 251.564
786.625, 302.801
787.910, 184.730
789.195, 327.084
790.479, 120.254
791.764, 151.398
793.048, 369.773
794.332, 147.869
795.616, 207.938
796.900, 328.984
798.183, 339.439
799.467, 134.439
800.750, 299.410
802.033, 386.404
803.316, 255.604
804.598, 732.510
805.880, 293.393
807.163, 1072.252
808.445, 1160.553
809.726, 1269.625
811.008, 1513.773
812.289, 1874.650
813.570, 1753.484
814.851, 1727.281
816.132, 1416.027
817.413, 1048.711
818.693, 706.367
819.973, 762.008
821.253, 511.396
822.533, 391.990
823.813, 508.275
825.092, 322.824
826.371, 299.070
827.650, 132.211
828.929, 213.691
830.208, 296.098
831.486, 372.445
832.764, 78.857
834.042, 120.049
835.320, 1.592
836.598, 227.721
837.875, 223.674
839.152, 93.908
840.429, 77.324
841.706, 538.492
842.983, 63.680
844.259, 180.414
845.536, 233.355
846.812, 51.562
848.088, 120.674
849.363, 153.299
850.639, 122.057
851.914, 256.520
853.189, 1007.441
854.464, 704.023
855.739, 702.506
857.013, 822.486
858.288, 219.830
859.562, 792.617
860.836, 130.150
862.110, 31.604
863.383, 119.559
864.656, 178.104
865.930, 113.064
867.203, 38.668
868.475, 75.924
869.748, 101.580
871.020, 56.168
872.292, 55.150
873.564, 97.359
874.836, 199.820
876.108, 191.527
877.379, 224.334
878.650, 251.643
879.922, 143.711
881.192, 197.312
882.463, 27.301
883.733, 19.732
885.004, 107.176
886.274, 239.992
887.544, 16.467
888.813, 325.926
890.083, 26.621
891.352, 173.803
892.621, 328.221
893.890, 59.629
895.159, 131.020
896.427, 88.398
897.695, 24.768
898.964, 24.760
900.232, 55.457
901.499, 44.777
902.767, 2.900
904.034, 222.404
905.301, 50.301
906.568, 195.951
907.835, 210.191
909.102, 223.416
910.368, 82.627
911.634, 161.818
912.900, 676.994
914.166, 178.156
915.432, 473.309
916.697, 207.445
917.962, 81.344
919.227, 314.732
920.492, 258.623
921.757, 319.729
923.021, 290.787
924.285, 348.832
925.550, 348.605
926.813, 120.627
928.077, 223.955
929.341, 147.955
930.604, 299.938
931.867, 317.676
933.130, 218.633
934.393, 131.197
935.655, 400.422
936.918, 66.752
938.180, 473.654
939.442, 0.457
940.703, 124.133
941.965, 358.986
943.226, 259.553
944.488, 100.965
945.749, 322.777
947.009, 205.145
948.270, 302.750
949.530, 58.527
950.791, 311.287
952.051, 255.545
953.311, 152.279
954.570, 97.006
955.830, 353.715
957.089, 214.412
958.348, 251.104
959.607, 51.777
960.866, 100.268
962.124, 77.086
963.383, 136.746
964.641, 141.412
965.899, 145.074
967.156, 151.740
968.414, 352.395
969.671, 184.035
970.928, 315.666
972.185, 181.285
973.442, 468.895
974.699, 217.492
975.955, 452.076
977.211, 408.654
978.468, 278.227
979.723, 594.285
980.979, 334.680
982.234, 374.223
983.490, 659.756
984.745, 218.557
986.000, 623.516
987.254, 657.379
988.509, 436.766
989.763, 913.123
991.017, 959.926
992.271, 1108.652
993.525, 1156.102
994.779, 1218.807
996.032, 1261.990
997.285, 1340.393
998.538, 1376.527
999.791, 975.658
1001.044, 1612.078
1002.296, 1072.307
1003.548, 1310.885
1004.800, 1159.471
1006.052, 1078.051
1007.304, 1140.625
1008.555, 956.410
1009.807, 851.279
1011.058, 694.191
1012.309, 680.080
1013.559, 510.480
1014.810, 605.205
1016.060, 382.783
1017.310, 460.467
1018.560, 546.154
1019.810, 141.969
1021.060, 531.867
1022.309, 595.609
1023.558, 391.678
1024.807, 653.568
1026.056, 433.957
1027.305, 600.684
1028.553, 588.840
1029.801, 820.486
1031.049, 631.730
1032.297, 555.596
1033.545, 514.184
1034.793, 570.725
1036.040, 593.373
1037.287, 816.098
1038.534, 833.090
1039.781, 946.691
1041.027, 1210.898
1042.274, 619.861
1043.520, 804.004
1044.766, 857.090
1046.012, 432.727
1047.257, 632.752
1048.503, 617.643
1049.748, 884.045
1050.993, 592.059
1052.238, 762.260
1053.483, 684.346
1054.727, 651.527
1055.971, 498.318
1057.216, 666.506
1058.459, 487.670
1059.703, 501.818
1060.947, 276.592
1062.190, 394.676
1063.433, 450.789
1064.676, 396.191
1065.919, 373.701
1067.162, 188.576
1068.404, 466.711
1069.646, 12.684
1070.888, 198.447
1072.130, 589.527
1073.372, 224.049
1074.613, 305.279
1075.855, 501.426
1077.096, 25.029
1078.337, 351.070
1079.578, 564.785
1080.818, 315.102
1082.059, 261.213
1083.299, 247.209
1084.539, 346.830
1085.779, 130.582
1087.018, 288.965
1088.258, 376.705
1089.497, 220.727
1090.736, 227.025
1091.975, 155.748
1093.213, 309.193
1094.452, 383.646
1095.690, 386.334
1096.928, 347.592
1098.166, 471.539
1099.404, 532.559
1100.642, 633.234
1101.879, 346.902
1103.116, 617.021
1104.353, 315.402
1105.590, 454.043
1106.827, 231.158
1108.063, 483.111
1109.299, 241.918
1110.536, 528.951
1111.771, 352.912
1113.007, 395.969
1114.243, 523.670
1115.478, 686.764
1116.713, 785.934
1117.948, 778.488
1119.183, 1207.162
1120.418, 1341.176
1121.652, 1776.881
1122.886, 2173.889
1124.120, 1998.428
1125.354, 1987.576
1126.588, 1583.170
1127.821, 1646.861
1129.055, 1163.760
1130.288, 1421.357
1131.521, 1442.887
1132.753, 1403.686
1133.986, 1419.705
1135.218, 1446.387
1136.450, 2192.359
1137.682, 1602.305
1138.914, 2053.229
1140.146, 1847.600
1141.377, 1669.457
1142.609, 1326.424
1143.840, 1046.248
1145.071, 1024.537
1146.301, 847.316
1147.532, 894.756
1148.762, 743.756
1149.992, 498.809
1151.222, 291.885
1152.452, 397.643
1153.682, 447.211
1154.911, 316.191
1156.140, 399.857
1157.369, 161.146
1158.598, 202.266
1159.827, 138.836
1161.055, 158.707
1162.284, 42.779
1163.512, 58.859
1164.740, 17.133
1165.967, 131.289
1167.195, 138.859
1168.422, 141.951
1169.650, 139.805
1170.877, 67.893
1172.103, 130.059
1173.330, 37.094
1174.557, 47.273
1175.783, 149.113
1177.009, 267.943
1178.235, 273.766
1179.461, 218.135
1180.686, 16.996
1181.912, 35.486
1183.137, 332.969
1184.362, 218.418
1185.587, 6.213
1186.811, 59.098
1188.036, 208.352
1189.260, 11.359
1190.484, 127.949
1191.708, 61.197
1192.932, 204.693
1194.155, 1.410
1195.378, 269.953
1196.602, 11.705
1197.825, 263.715
1199.047, 54.668
1200.270, 220.480
1201.492, 191.736
1202.715, 371.902
1203.937, 417.941
1205.159, 316.047
1206.380, 312.152
1207.602, 424.020
1208.823, 324.633
1210.044, 305.664
1211.265, 230.965
1212.486, 205.926
1213.707, 113.461
1214.927, 160.602
1216.147, 353.836
1217.367, 122.062
1218.587, 278.570
1219.807, 165.895
1221.027, 50.895
1222.246, 240.891
1223.465, 9.121
1224.684, 257.504
1225.903, 375.652
1227.121, 190.781
1228.340, 239.520
1229.558, 266.613
1230.776, 432.699
1231.994, 439.391
1233.212, 101.516
1234.429, 456.543
1235.646, 332.547
1236.864, 155.539
1238.081, 332.504
1239.297, 158.441
1240.514, 402.367
1241.730, 292.188
1242.947, 250.934
1244.163, 277.633
1245.378, 155.309
1246.594, 410.965
1247.810, 464.590
1249.025, 69.176
1250.240, 412.727
1251.455, 505.250
1252.670, 233.742
1253.885, 272.223
1255.099, 195.684
1256.313, 190.129
1257.527, 49.449
1258.741, 14.512
1259.955, 37.449
1261.168, 2.656
1262.382, 204.969
1263.595, 366.551
1264.808, 330.488
1266.021, 238.449
1267.233, 304.812
1268.446, 229.992
1269.658, 339.109
1270.870, 164.246
1272.082, 101.422
1273.294, 257.879
1274.505, 41.793
1275.716, 204.414
1276.928, 216.809
1278.139, 38.395
1279.349, 463.414
1280.560, 156.016
1281.770, 492.617
1282.981, 320.090
1284.191, 304.965
1285.401, 194.840
1286.610, 314.242
1287.820, 285.645
1289.029, 346.062
1290.239, 7.793
1291.448, 335.711
1292.656, 161.840
1293.865, 262.352
1295.073, 252.855
1296.282, 238.695
1297.490, 108.535
1298.698, 128.941
1299.906, 92.586
1301.113, 288.293
1302.320, 163.105
1303.528, 198.156
1304.735, 426.016
1305.942, 82.102
1307.148, 350.848
1308.355, 291.832
1309.561, 191.957
1310.767, 501.332
1311.973, 193.207
1313.179, 188.918
1314.384, 29.770
1315.590, 319.438
1316.795, 360.391
1318.000, 325.516
1319.205, 178.637
1320.410, 560.605
1321.614, 272.293
1322.819, 29.156
1324.023, 209.547
1325.227, 206.453
1326.431, 499.504
1327.634, 333.801
1328.838, 418.301
1330.041, 419.203
1331.244, 342.680
1332.447, 364.910
1333.650, 249.254
1334.852, 224.230
1336.055, 220.004
1337.257, 140.270
1338.459, 330.422
1339.661, 139.977
1340.862, 469.559
1342.064, 144.391
1343.265, 222.887
1344.466, 102.270
1345.667, 492.430
1346.868, 220.156
1348.068, 448.996
1349.269, 349.039
1350.469, 176.453
1351.669, 320.715
1352.869, 460.797
1354.069, 508.992
1355.268, 347.598
1356.468, 19.812
1357.667, 134.668
1358.866, 469.129
1360.065, 160.828
1361.263, 328.148
1362.462, 252.805
1363.660, 111.082
1364.858, 174.547
1366.056, 0.129
1367.254, 0.000
##END=



