##NAMES=Microsommite
##RRUFFID=R100090
##IDEAL CHEMISTRY=Na_4_K_2_Ca_2_(SO_4_)(Si_6_Al_6_O_24_)Cl_2_
##LOCALITY=Monte Somma, Campania, Italy
##OWNER=RRUFF
##SOURCE=Marcus Origlieri
##DESCRIPTION=Aggregate of parallel striated colorless crystals
##STATUS=The identification of this mineral has been confirmed by single-crystal X-ray diffraction.
##URL=rruff.info/R100090
155.6547, 0.0000000E+00
156.1368, 1.402527
156.6190, 2.457764
157.1011, 1.824554
157.5832, 0.1007690
158.0653, 0.8955080
158.5474, 0.3349300
159.0295, 3.366486
159.5117, 5.531769
159.9938, 5.426575
160.4759, 5.764587
160.9580, 7.741882
161.4401, 11.00659
161.9222, 14.49963
162.4044, 17.18021
162.8865, 18.79749
163.3686, 21.13910
163.8507, 25.15692
164.3328, 29.03769
164.8149, 31.93253
165.2971, 33.84402
165.7792, 35.25970
166.2613, 36.75546
166.7434, 38.39355
167.2255, 39.89758
167.7076, 40.94598
168.1898, 42.10260
168.6719, 43.94037
169.1540, 46.52502
169.6361, 49.22498
170.1182, 51.09445
170.6003, 51.58252
171.0825, 52.62479
171.5646, 54.76895
172.0467, 57.32562
172.5288, 59.54681
173.0109, 61.22260
173.4930, 62.52148
173.9752, 63.56299
174.4573, 64.26645
174.9394, 65.22635
175.4215, 66.66425
175.9036, 68.48608
176.3857, 70.61319
176.8679, 73.34906
177.3500, 75.85620
177.8321, 76.94946
178.3142, 76.55215
178.7963, 76.00253
179.2784, 76.10327
179.7606, 76.78848
180.2427, 77.44189
180.7248, 77.72177
181.2069, 78.10416
181.6890, 79.01520
182.1711, 80.48578
182.6533, 82.21991
183.1354, 83.92984
183.6175, 85.57983
184.0996, 87.42859
184.5817, 89.92554
185.0638, 92.39642
185.5460, 94.39120
186.0281, 95.82117
186.5102, 96.99054
186.9923, 98.29361
187.4744, 99.74411
187.9565, 101.3055
188.4387, 103.4583
188.9208, 105.4200
189.4029, 106.4245
189.8850, 106.2851
190.3671, 105.6663
190.8492, 105.9162
191.3314, 108.1857
191.8135, 109.4132
192.2956, 108.6251
192.7777, 107.2395
193.2598, 106.6682
193.7419, 107.4469
194.2241, 108.8312
194.7062, 109.0601
195.1883, 106.8787
195.6704, 104.9545
196.1525, 103.1247
196.6346, 101.5950
197.1168, 100.7664
197.5989, 100.7785
198.0810, 101.2884
198.5631, 101.2351
199.0452, 100.1888
199.5273, 99.08139
200.0095, 98.43204
200.4916, 97.94608
200.9737, 96.94150
201.4558, 95.01385
201.9379, 92.46237
202.4200, 90.04556
202.9022, 87.67108
203.3843, 85.95078
203.8664, 85.14331
204.3485, 84.58167
204.8306, 83.55258
205.3127, 82.16629
205.7949, 80.15433
206.2770, 78.30206
206.7591, 77.07709
207.2412, 75.99066
207.7233, 74.83163
208.2054, 73.57281
208.6876, 71.90622
209.1697, 69.03229
209.6518, 66.25217
210.1339, 65.58185
210.6160, 67.74188
211.0981, 69.58844
211.5803, 68.47202
212.0624, 64.33096
212.5445, 60.28488
213.0266, 57.53601
213.5087, 55.71698
213.9908, 54.31015
214.4730, 53.28787
214.9551, 52.49988
215.4372, 52.10587
215.9193, 52.34909
216.4014, 51.67117
216.8836, 48.43454
217.3657, 44.66699
217.8478, 41.63669
218.3299, 39.66922
218.8120, 38.29437
219.2941, 36.90070
219.7763, 35.40649
220.2584, 34.16327
220.7405, 33.53201
221.2226, 32.95871
221.7047, 31.88672
222.1868, 30.19785
222.6690, 28.49969
223.1511, 27.91898
223.6332, 29.26950
224.1153, 29.85080
224.5974, 28.99548
225.0795, 27.67606
225.5617, 26.55280
226.0438, 25.82141
226.5259, 25.27899
227.0080, 24.59567
227.4901, 23.83936
227.9722, 22.79239
228.4544, 21.19870
228.9365, 19.51556
229.4186, 18.07187
229.9007, 16.97513
230.3828, 16.16837
230.8649, 15.57074
231.3471, 15.19772
231.8292, 15.04733
232.3113, 15.56885
232.7934, 16.03650
233.2755, 15.83847
233.7576, 14.81427
234.2398, 13.21085
234.7219, 11.41074
235.2040, 8.854706
235.6861, 7.185150
236.1682, 6.996552
236.6503, 7.345001
237.1325, 7.342651
237.6146, 6.767212
238.0967, 6.079834
238.5788, 6.012878
239.0609, 7.032990
239.5430, 7.596069
240.0252, 7.473389
240.5073, 6.961243
240.9894, 6.134949
241.4715, 5.013214
241.9536, 4.154938
242.4357, 4.539581
242.9179, 6.668762
243.4000, 7.753235
243.8821, 6.767487
244.3642, 4.964203
244.8463, 3.600464
245.3284, 2.913635
245.8106, 2.707489
246.2927, 2.887665
246.7748, 3.470825
247.2569, 3.967133
247.7390, 4.440125
248.2211, 4.731110
248.7033, 4.656708
249.1854, 4.185181
249.6675, 3.357452
250.1496, 1.873749
250.6317, 0.1283260
251.1138, 1.465027
251.5960, 1.692291
252.0781, 1.214294
252.5602, 0.2406620
253.0423, 1.382507
253.5244, 2.500061
254.0065, 1.340271
254.4887, 1.251251
254.9708, 2.902649
255.4529, 2.113556
255.9350, 0.4159240
256.4171, 8.0048002E-02
256.8992, 1.410980
257.3813, 2.883270
257.8635, 3.555664
258.3456, 3.648529
258.8277, 3.385986
259.3098, 2.597351
259.7919, 1.631622
260.2740, 0.9983830
260.7562, 0.7588500
261.2383, 0.5880430
261.7204, 0.2975770
262.2025, 1.1139000E-02
262.6846, 0.1275630
263.1667, 3.2867000E-02
263.6489, 0.1423340
264.1310, 0.2745970
264.6131, 0.3888850
265.0952, 0.1928710
265.5773, 0.9584350
266.0594, 2.378693
266.5416, 3.214386
267.0237, 2.985687
267.5058, 2.500977
267.9879, 2.843018
268.4700, 4.102173
268.9521, 5.741821
269.4343, 8.351105
269.9164, 10.85275
270.3985, 12.20352
270.8806, 12.08994
271.3627, 11.61319
271.8448, 12.30405
272.3270, 14.55890
272.8091, 16.21323
273.2912, 16.01080
273.7733, 15.51248
274.2554, 15.70920
274.7375, 16.75699
275.2197, 18.01239
275.7018, 18.59186
276.1839, 18.29871
276.6660, 18.58990
277.1481, 20.29861
277.6302, 22.20779
278.1124, 23.60092
278.5945, 24.49844
279.0766, 25.51633
279.5587, 27.34659
280.0408, 30.09290
280.5229, 32.75555
281.0051, 35.14932
281.4872, 37.57568
281.9693, 40.14453
282.4514, 42.85263
282.9335, 45.66165
283.4156, 48.46603
283.8978, 51.25714
284.3799, 54.46423
284.8620, 58.63980
285.3441, 62.69052
285.8262, 66.26636
286.3083, 69.42078
286.7905, 72.34518
287.2726, 75.17847
287.7547, 77.89798
288.2368, 80.26071
288.7189, 82.58688
289.2010, 84.06235
289.6832, 84.51831
290.1653, 84.02328
290.6474, 82.63440
291.1295, 80.34259
291.6116, 77.26324
292.0938, 73.83963
292.5759, 69.73849
293.0580, 65.78049
293.5401, 62.12411
294.0222, 58.69006
294.5043, 55.49222
294.9865, 52.54370
295.4686, 49.63330
295.9507, 46.16989
296.4328, 41.49884
296.9149, 37.50598
297.3970, 34.63184
297.8792, 32.29333
298.3613, 30.06171
298.8434, 27.78174
299.3255, 25.50046
299.8076, 23.26651
300.2897, 20.97461
300.7719, 19.05899
301.2540, 17.57248
301.7361, 16.33429
302.2182, 15.23492
302.7003, 14.25693
303.1824, 13.42535
303.6646, 12.77084
304.1467, 12.31262
304.6288, 12.01535
305.1109, 11.92838
305.5930, 11.94049
306.0751, 12.19031
306.5573, 12.53760
307.0394, 12.57687
307.5215, 11.84647
308.0036, 10.24686
308.4857, 9.020508
308.9678, 8.711090
309.4500, 8.290466
309.9321, 7.366058
310.4142, 6.161438
310.8963, 5.110962
311.3784, 4.461334
311.8605, 4.122406
312.3427, 3.711212
312.8248, 3.480011
313.3069, 3.082275
313.7890, 2.268280
314.2711, 1.277191
314.7532, 0.4131160
315.2354, 0.1279600
315.7175, 0.3924870
316.1996, 0.5877690
316.6817, 0.4439390
317.1638, 0.5875850
317.6459, 1.414856
318.1281, 2.350800
318.6102, 2.844543
319.0923, 2.732574
319.5744, 2.325684
320.0565, 2.184113
320.5386, 2.576385
321.0208, 2.649231
321.5029, 1.565582
321.9850, 0.8066100
322.4671, 1.685303
322.9492, 4.100800
323.4313, 6.579712
323.9135, 7.474243
324.3956, 6.423004
324.8777, 5.834625
325.3598, 6.283417
325.8419, 6.652252
326.3240, 6.383118
326.8062, 5.618286
327.2883, 4.868652
327.7704, 4.635773
328.2525, 4.875946
328.7346, 4.423279
329.2167, 2.168762
329.6989, 0.4571530
330.1810, 0.2726750
330.6631, 0.8838500
331.1452, 1.232880
331.6273, 0.7565310
332.1094, 0.3842770
332.5916, 1.758789
333.0737, 3.782318
333.5558, 5.296448
334.0379, 6.000458
334.5200, 6.249207
335.0021, 6.361572
335.4843, 6.437805
335.9664, 6.355743
336.4485, 5.794281
336.9306, 4.406128
337.4127, 3.581848
337.8948, 3.709625
338.3770, 4.209564
338.8591, 4.903015
339.3412, 5.697998
339.8233, 6.406525
340.3055, 6.890991
340.7876, 7.160614
341.2697, 7.078339
341.7518, 6.434814
342.2339, 5.608307
342.7160, 4.383972
343.1982, 3.074097
343.6803, 2.372528
344.1624, 2.895905
344.6445, 4.381836
345.1266, 5.501892
345.6087, 6.038177
346.0909, 6.549561
346.5730, 7.309418
347.0551, 8.131989
347.5372, 8.805237
348.0193, 9.272095
348.5014, 9.488617
348.9836, 9.210754
349.4657, 8.119629
349.9478, 7.616730
350.4299, 8.679626
350.9120, 10.09702
351.3941, 10.93674
351.8763, 11.03265
352.3584, 11.03085
352.8405, 11.63281
353.3226, 12.86008
353.8047, 13.98160
354.2868, 14.53119
354.7690, 15.37015
355.2511, 17.13867
355.7332, 19.69635
356.2153, 22.36813
356.6974, 24.97983
357.1795, 27.39963
357.6617, 29.00873
358.1438, 29.45636
358.6259, 29.77695
359.1080, 30.58908
359.5901, 31.65656
360.0722, 32.58221
360.5544, 33.05396
361.0365, 33.51813
361.5186, 34.80173
362.0007, 37.03915
362.4828, 38.97235
362.9649, 39.89456
363.4471, 40.34399
363.9292, 41.00763
364.4113, 42.04865
364.8934, 42.86960
365.3755, 42.79288
365.8576, 42.00574
366.3398, 41.50067
366.8219, 41.40894
367.3040, 41.83902
367.7861, 43.31152
368.2682, 45.68756
368.7503, 47.22885
369.2325, 46.53073
369.7146, 44.77283
370.1967, 44.11926
370.6788, 44.91779
371.1609, 45.80310
371.6430, 45.54752
372.1252, 44.49503
372.6073, 43.86813
373.0894, 44.33844
373.5715, 44.91156
374.0536, 44.94147
374.5357, 44.44650
375.0179, 43.22440
375.5000, 40.69958
375.9821, 37.78741
376.4642, 36.72519
376.9463, 38.14703
377.4284, 39.76392
377.9106, 41.04889
378.3927, 41.86523
378.8748, 41.84036
379.3569, 40.84433
379.8390, 39.66068
380.3211, 39.27872
380.8033, 39.79279
381.2854, 40.09140
381.7675, 40.20380
382.2496, 40.23111
382.7317, 40.01065
383.2138, 39.55301
383.6960, 39.24307
384.1781, 39.41180
384.6602, 40.05502
385.1423, 40.76801
385.6244, 41.81262
386.1065, 42.55667
386.5887, 42.82797
387.0708, 42.76416
387.5529, 42.30743
388.0350, 41.36642
388.5171, 40.28677
388.9992, 39.87866
389.4814, 40.67679
389.9635, 41.45023
390.4456, 42.47644
390.9277, 43.27301
391.4098, 43.49957
391.8919, 43.08731
392.3741, 42.03149
392.8562, 40.12766
393.3383, 37.04895
393.8204, 35.65906
394.3025, 37.55951
394.7846, 39.36441
395.2668, 39.91129
395.7489, 39.52274
396.2310, 38.88507
396.7131, 38.35471
397.1952, 38.01093
397.6773, 38.17798
398.1595, 39.38211
398.6416, 40.22021
399.1237, 40.35956
399.6058, 40.19919
400.0879, 39.98761
400.5700, 39.81665
401.0522, 39.78793
401.5343, 40.02551
402.0164, 40.54495
402.4985, 41.24982
402.9806, 42.47415
403.4627, 43.55875
403.9449, 43.84265
404.4270, 43.72360
404.9091, 44.30017
405.3912, 46.69968
405.8733, 50.06430
406.3554, 51.51669
406.8376, 50.31717
407.3197, 49.05716
407.8018, 48.32919
408.2839, 48.26077
408.7660, 49.22049
409.2481, 51.42923
409.7303, 53.96338
410.2124, 55.95880
410.6945, 57.43817
411.1766, 58.80688
411.6587, 60.19043
412.1408, 61.43143
412.6230, 62.24060
413.1051, 62.70126
413.5872, 63.45673
414.0693, 64.78619
414.5514, 66.57370
415.0335, 68.97311
415.5157, 72.11325
415.9978, 74.45889
416.4799, 74.37057
416.9620, 72.81329
417.4441, 72.84802
417.9262, 75.55698
418.4084, 78.57864
418.8905, 80.30380
419.3726, 81.29163
419.8547, 83.17905
420.3368, 86.71881
420.8189, 90.71677
421.3011, 93.08130
421.7832, 93.32230
422.2653, 94.12442
422.7474, 96.69180
423.2295, 99.31577
423.7116, 100.4627
424.1938, 100.0945
424.6759, 99.16391
425.1580, 98.39069
425.6401, 97.74704
426.1222, 96.65808
426.6043, 94.60730
427.0865, 92.78021
427.5686, 91.32010
428.0507, 90.29605
428.5328, 89.81638
429.0149, 89.91495
429.4970, 90.44333
429.9792, 91.11734
430.4613, 91.73630
430.9434, 92.99399
431.4255, 94.66681
431.9076, 97.03619
432.3897, 100.7049
432.8719, 105.3044
433.3540, 109.7144
433.8361, 112.9524
434.3182, 115.2401
434.8003, 118.2149
435.2824, 121.9303
435.7646, 126.3260
436.2467, 132.2471
436.7288, 138.3337
437.2109, 142.9241
437.6930, 145.4873
438.1751, 147.3637
438.6573, 150.3588
439.1394, 154.5865
439.6215, 158.2863
440.1036, 160.7853
440.5857, 163.1879
441.0678, 166.1866
441.5500, 169.7077
442.0321, 173.4080
442.5142, 177.2302
442.9963, 181.1097
443.4784, 184.8506
443.9605, 188.4208
444.4427, 192.3766
444.9248, 196.5753
445.4069, 201.5163
445.8890, 208.0369
446.3711, 216.6369
446.8532, 225.4789
447.3354, 233.4121
447.8175, 240.9818
448.2996, 249.3949
448.7817, 258.9150
449.2638, 268.4937
449.7459, 276.9360
450.2281, 284.2534
450.7102, 291.5569
451.1923, 298.0081
451.6744, 304.9228
452.1565, 314.0160
452.6386, 324.5090
453.1208, 333.8888
453.6029, 340.8747
454.0850, 345.9162
454.5671, 350.2530
455.0492, 354.2388
455.5313, 356.8381
456.0135, 358.5908
456.4956, 358.6167
456.9777, 356.2314
457.4598, 351.3676
457.9419, 344.2865
458.4240, 335.0099
458.9062, 323.5014
459.3883, 311.2957
459.8704, 298.2813
460.3525, 284.5871
460.8346, 269.7233
461.3167, 254.3297
461.7989, 239.1510
462.2810, 224.3960
462.7631, 210.1025
463.2452, 196.1362
463.7273, 182.5027
464.2094, 170.3573
464.6916, 159.9298
465.1737, 150.5380
465.6558, 142.1618
466.1379, 134.6760
466.6200, 127.3796
467.1021, 119.6492
467.5843, 112.0081
468.0664, 105.5079
468.5485, 100.1458
469.0306, 95.53281
469.5127, 91.71365
469.9948, 88.48322
470.4770, 85.55066
470.9591, 82.95615
471.4412, 80.39371
471.9233, 77.43558
472.4054, 74.48654
472.8875, 72.53360
473.3697, 71.81616
473.8518, 71.18130
474.3339, 69.65741
474.8160, 67.21249
475.2981, 64.36716
475.7802, 60.64636
476.2624, 57.03436
476.7445, 53.82904
477.2266, 51.07089
477.7087, 48.91483
478.1908, 47.39935
478.6729, 46.10309
479.1551, 44.22366
479.6372, 41.22607
480.1193, 38.92081
480.6014, 37.54773
481.0835, 36.53912
481.5656, 35.95419
482.0478, 35.49200
482.5299, 34.47842
483.0120, 32.40842
483.4941, 29.57507
483.9762, 27.17194
484.4583, 25.35660
484.9405, 23.67966
485.4226, 22.06625
485.9047, 20.53073
486.3868, 19.10770
486.8689, 17.79865
487.3510, 16.59839
487.8332, 15.54874
488.3153, 14.62350
488.7974, 13.60538
489.2795, 12.40164
489.7616, 11.32126
490.2437, 10.75885
490.7259, 10.39197
491.2080, 9.651672
491.6901, 8.225372
492.1722, 6.851624
492.6543, 6.265656
493.1364, 6.172089
493.6186, 5.607422
494.1007, 4.207764
494.5828, 2.756958
495.0649, 2.218445
495.5470, 2.702148
496.0291, 2.936676
496.5113, 2.624786
496.9934, 2.291321
497.4755, 2.439331
497.9576, 2.810944
498.4397, 2.712402
498.9218, 1.799652
499.4040, 0.4053960
499.8861, 0.7100830
500.3682, 1.313751
500.8503, 2.043335
501.3324, 3.322937
501.8145, 4.362823
502.2967, 4.693207
502.7788, 4.346832
503.2609, 3.528107
503.7430, 2.240356
504.2251, 0.7530520
504.7072, 0.2631840
505.1894, 1.432404
505.6715, 2.079315
506.1536, 0.7005000
506.6357, 0.7851260
507.1178, 0.5319520
507.5999, 1.584869
508.0821, 3.543365
508.5642, 3.532471
509.0463, 2.218262
509.5284, 1.603149
510.0105, 1.904999
510.4926, 2.441681
510.9748, 2.945587
511.4569, 3.342773
511.9390, 3.469421
512.4211, 3.178558
512.9032, 2.861786
513.3853, 2.628815
513.8674, 2.519684
514.3495, 2.696136
514.8317, 3.198608
515.3138, 3.638489
515.7959, 3.584686
516.2780, 2.991455
516.7601, 2.624146
517.2422, 2.811890
517.7244, 2.822144
518.2065, 2.303802
518.6886, 1.488464
519.1707, 0.4754640
519.6528, 0.6428220
520.1349, 1.255920
520.6171, 7.4160001E-03
521.0992, 4.158173
521.5813, 6.049500
522.0634, 3.585449
522.5455, 0.8242190
523.0276, 1.171112
523.5098, 2.354401
523.9919, 2.715210
524.4740, 2.090973
524.9561, 1.105164
525.4382, 0.6709590
525.9203, 0.8028870
526.4025, 0.8661800
526.8846, 0.5481870
527.3667, 0.3494260
527.8488, 0.8070980
528.3309, 1.833099
528.8130, 2.914948
529.2952, 3.994873
529.7773, 4.996033
530.2594, 6.003601
530.7415, 6.915100
531.2236, 7.243042
531.7057, 6.691528
532.1879, 5.676300
532.6700, 5.012848
533.1521, 4.956116
533.6342, 4.631683
534.1163, 3.336823
534.5984, 2.371735
535.0806, 2.845245
535.5627, 4.420868
536.0448, 6.026581
536.5269, 7.012878
537.0090, 7.510818
537.4911, 7.923035
537.9733, 8.330688
538.4554, 8.464478
538.9375, 7.963623
539.4196, 7.462952
539.9017, 7.314407
540.3839, 7.528046
540.8660, 7.970612
541.3481, 8.660797
541.8302, 9.465561
542.3123, 9.982086
542.7944, 10.13988
543.2766, 10.67850
543.7587, 12.22092
544.2408, 14.01782
544.7229, 14.87337
545.2050, 14.65919
545.6871, 14.71294
546.1693, 15.82246
546.6514, 17.22148
547.1335, 18.06032
547.6156, 18.33380
548.0977, 18.50546
548.5798, 18.86641
549.0620, 18.92339
549.5441, 18.89320
550.0262, 18.99953
550.5083, 18.72060
550.9904, 18.55457
551.4725, 18.64810
551.9547, 19.29402
552.4368, 20.34564
552.9189, 21.27379
553.4010, 21.65340
553.8831, 21.63660
554.3652, 21.97102
554.8474, 23.15726
555.3295, 23.43007
555.8116, 21.00238
556.2937, 18.42108
556.7758, 17.82788
557.2579, 19.21130
557.7401, 20.43672
558.2222, 19.93474
558.7043, 18.59180
559.1864, 17.90294
559.6685, 17.92044
560.1506, 18.23907
560.6328, 18.91943
561.1149, 19.61111
561.5970, 19.33746
562.0791, 17.69388
562.5612, 16.55127
563.0433, 16.57678
563.5255, 16.89703
564.0076, 16.98459
564.4897, 16.73866
564.9718, 16.15903
565.4539, 15.11383
565.9360, 13.82147
566.4182, 13.32550
566.9003, 14.42000
567.3824, 15.00157
567.8645, 14.26711
568.3466, 13.48444
568.8287, 13.71025
569.3109, 14.69231
569.7930, 15.29651
570.2751, 14.71527
570.7572, 13.46565
571.2393, 12.54091
571.7214, 11.93228
572.2036, 11.69182
572.6857, 12.08786
573.1678, 12.56288
573.6499, 12.43950
574.1320, 11.77068
574.6141, 11.14557
575.0963, 10.86227
575.5784, 10.53111
576.0605, 9.656754
576.5426, 8.457138
577.0247, 7.593399
577.5068, 7.356171
577.9890, 7.658386
578.4711, 8.421997
578.9532, 10.12782
579.4353, 10.47200
579.9174, 8.833862
580.3995, 7.186539
580.8817, 6.327942
581.3638, 6.048782
581.8459, 5.905914
582.3280, 5.677078
582.8101, 5.446228
583.2922, 5.423691
583.7744, 5.653946
584.2565, 5.902802
584.7386, 6.193405
585.2207, 6.377792
585.7029, 6.457962
586.1850, 6.416565
586.6671, 6.077942
587.1492, 4.952911
587.6313, 4.090851
588.1135, 4.791718
588.5956, 6.277283
589.0777, 6.447662
589.5598, 4.734650
590.0419, 2.860596
590.5240, 2.749344
591.0062, 4.512573
591.4883, 5.685150
591.9704, 6.368546
592.4525, 6.368942
592.9346, 5.083939
593.4167, 3.474487
593.8989, 2.577225
594.3810, 2.600235
594.8631, 2.994965
595.3452, 3.219223
595.8273, 3.300919
596.3094, 3.598389
596.7916, 4.250504
597.2737, 4.790985
597.7558, 4.975983
598.2379, 4.975922
598.7200, 4.934311
599.2021, 4.861115
599.6843, 4.794739
600.1664, 4.638000
600.6485, 4.551666
601.1306, 4.809006
601.6127, 5.401901
602.0948, 6.146164
602.5770, 7.020508
603.0591, 7.823029
603.5412, 7.965469
604.0233, 6.434891
604.5054, 5.933105
604.9875, 7.262512
605.4697, 8.897247
605.9518, 9.977524
606.4339, 10.53035
606.9160, 10.76038
607.3981, 10.68369
607.8802, 10.80258
608.3624, 12.43436
608.8445, 15.87561
609.3266, 18.41846
609.8087, 19.18362
610.2908, 19.53935
610.7729, 20.35678
611.2551, 21.58443
611.7372, 23.10957
612.2193, 25.09825
612.7014, 27.13277
613.1835, 29.01291
613.6656, 30.70343
614.1478, 32.04135
614.6299, 32.98531
615.1120, 33.90764
615.5941, 35.22647
616.0762, 36.94537
616.5583, 38.28012
617.0405, 39.38849
617.5226, 39.91388
618.0047, 38.95239
618.4868, 37.89587
618.9689, 38.31804
619.4510, 40.29286
619.9332, 42.42697
620.4153, 43.48787
620.8974, 43.79114
621.3795, 44.54771
621.8616, 45.91125
622.3438, 46.91655
622.8259, 47.14673
623.3080, 46.89420
623.7901, 46.57700
624.2722, 46.20361
624.7543, 45.62561
625.2365, 44.56490
625.7186, 43.49469
626.2007, 43.11624
626.6828, 43.05597
627.1649, 42.11572
627.6470, 39.77150
628.1292, 37.01859
628.6113, 35.50795
629.0934, 35.63757
629.5755, 35.28110
630.0576, 34.36499
630.5397, 33.00589
631.0219, 31.05220
631.5040, 28.73180
631.9861, 26.22018
632.4682, 23.55399
632.9503, 21.16104
633.4324, 19.17349
633.9146, 17.76187
634.3967, 18.03607
634.8788, 20.35173
635.3609, 21.72519
635.8430, 19.96924
636.3251, 16.29402
636.8073, 14.24942
637.2894, 14.35789
637.7715, 14.52997
638.2536, 14.77090
638.7357, 14.69028
639.2178, 13.65335
639.7000, 12.01933
640.1821, 10.81641
640.6642, 10.61488
641.1463, 11.00290
641.6284, 11.18428
642.1105, 11.14354
642.5927, 10.95547
643.0748, 10.51759
643.5569, 10.16756
644.0390, 9.832489
644.5211, 9.485855
645.0032, 9.602722
645.4854, 10.55284
645.9675, 11.33824
646.4496, 11.10866
646.9317, 10.35745
647.4138, 9.981277
647.8959, 10.04057
648.3781, 10.04965
648.8602, 9.635086
649.3423, 9.016434
649.8244, 9.137329
650.3065, 10.72871
650.7886, 11.99854
651.2708, 12.53650
651.7529, 12.78029
652.2350, 13.18823
652.7171, 13.78957
653.1992, 14.47710
653.6813, 15.16577
654.1635, 15.92758
654.6456, 16.86240
655.1277, 17.98238
655.6098, 19.35651
656.0919, 21.03671
656.5740, 22.60725
657.0562, 23.46722
657.5383, 23.82524
658.0204, 25.08519
658.5025, 28.38319
658.9846, 31.17734
659.4667, 32.33151
659.9489, 32.85403
660.4310, 34.07684
660.9131, 35.89285
661.3952, 36.96191
661.8773, 36.16801
662.3594, 34.08795
662.8416, 32.71321
663.3237, 32.38145
663.8058, 31.47325
664.2879, 29.27620
664.7700, 26.84991
665.2521, 24.95923
665.7343, 23.46843
666.2164, 21.86061
666.6985, 19.57158
667.1806, 17.70319
667.6627, 17.51251
668.1448, 18.10605
668.6270, 17.55560
669.1091, 15.56668
669.5912, 13.55733
670.0733, 12.78461
670.5554, 13.09032
671.0375, 13.36099
671.5197, 14.16341
672.0018, 13.95375
672.4839, 11.32169
672.9660, 8.777374
673.4481, 8.389771
673.9302, 9.691528
674.4124, 10.69586
674.8945, 10.42168
675.3766, 9.371689
675.8587, 7.807922
676.3408, 5.938080
676.8229, 4.738434
677.3051, 4.428711
677.7872, 4.645767
678.2693, 5.292633
678.7514, 6.259338
679.2335, 6.210449
679.7156, 4.068253
680.1978, 2.496506
680.6799, 2.029816
681.1620, 2.163940
681.6441, 2.941284
682.1262, 3.982285
682.6083, 4.158157
683.0905, 2.463791
683.5726, 0.1759030
684.0547, 0.1047060
684.5368, 2.247681
685.0189, 3.268433
685.5010, 2.070923
685.9832, 0.6814580
686.4653, 0.9571530
686.9474, 2.543457
687.4295, 3.517685
687.9116, 3.523712
688.3937, 3.370850
688.8759, 3.270401
689.3580, 3.046539
689.8401, 2.221085
690.3222, 1.025040
690.8043, 0.3494870
691.2864, 0.8793030
691.7686, 2.133774
692.2507, 2.998993
692.7328, 3.454605
693.2149, 3.664536
693.6970, 3.590988
694.1791, 3.349030
694.6613, 2.809387
695.1434, 2.180725
695.6255, 1.983810
696.1076, 2.566605
696.5897, 3.039154
697.0718, 2.951050
697.5540, 2.555099
698.0361, 2.069382
698.5182, 1.564377
699.0003, 1.195740
699.4824, 1.087189
699.9645, 1.024963
700.4467, 0.2988130
700.9288, 1.589554
701.4109, 2.206818
701.8930, 0.1683500
702.3751, 1.631805
702.8572, 1.561905
703.3394, 0.3921660
703.8215, 0.6636960
704.3036, 1.423157
704.7857, 1.777374
705.2678, 1.285797
705.7499, 0.5487980
706.2321, 0.3946690
706.7142, 0.8222810
707.1963, 1.543350
707.6784, 2.479691
708.1605, 3.191193
708.6426, 2.638962
709.1248, 0.1687620
709.6069, 1.216110
710.0890, 0.5911100
710.5711, 5.3741001E-02
711.0532, 0.1162870
711.5353, 0.5877080
712.0175, 0.5699160
712.4996, 0.1201780
712.9817, 0.5917360
713.4638, 9.7838998E-02
713.9459, 0.8240660
714.4280, 1.614822
714.9102, 2.173157
715.3923, 2.091202
715.8744, 1.142303
716.3565, 8.1313998E-02
716.8386, 0.7550510
717.3207, 0.8705750
717.8029, 0.4758450
718.2850, 1.216965
718.7671, 2.434433
719.2492, 2.577042
719.7313, 2.193893
720.2134, 1.746658
720.6956, 1.324158
721.1777, 0.9420930
721.6598, 0.4215700
722.1419, 7.4248999E-02
722.6240, 0.6398470
723.1061, 1.797485
723.5883, 2.072617
724.0704, 0.9730530
724.5525, 0.1780700
725.0346, 0.1187440
725.5167, 1.806030
725.9988, 2.705200
726.4810, 2.149567
726.9631, 1.750427
727.4452, 1.908646
727.9273, 2.117432
728.4094, 1.945694
728.8915, 1.458710
729.3737, 1.018600
729.8558, 0.7584690
730.3379, 0.6694490
730.8200, 0.8720860
731.3021, 1.229187
731.7842, 1.342392
732.2664, 1.144760
732.7485, 0.8200680
733.2306, 0.4755400
733.7127, 0.1504060
734.1948, 1.1063000E-02
734.6769, 0.2335510
735.1591, 0.3220370
735.6412, 3.2134999E-02
736.1233, 0.1525730
736.6054, 0.1993260
737.0875, 0.7879030
737.5696, 1.023346
738.0518, 0.6817020
738.5339, 0.1720280
739.0160, 0.3341220
739.4981, 0.7258150
739.9802, 0.7501680
740.4623, 0.4292450
740.9445, 6.6574000E-02
741.4266, 0.1743470
741.9087, 0.7657470
742.3908, 1.042175
742.8729, 2.098175
743.3550, 2.898758
743.8372, 3.823608
744.3193, 4.002899
744.8014, 2.409714
745.2835, 0.4235530
745.7656, 0.3097380
746.2477, 0.3752140
746.7299, 1.064957
747.2120, 0.4914550
747.6941, 0.1138760
748.1762, 1.228287
748.6583, 3.769257
749.1404, 4.985291
749.6226, 4.173538
750.1047, 2.712173
750.5868, 1.925400
751.0689, 1.794083
751.5510, 2.131317
752.0331, 3.238312
752.5153, 4.229782
752.9974, 4.799194
753.4795, 5.361588
753.9616, 6.384064
754.4437, 7.632370
754.9258, 8.345703
755.4080, 8.165039
755.8901, 7.646713
756.3722, 6.841354
756.8543, 6.092651
757.3364, 5.983917
757.8185, 6.505722
758.3007, 7.210251
758.7828, 7.736984
759.2649, 8.262054
759.7470, 9.271118
760.2291, 10.79327
760.7112, 12.00673
761.1934, 12.56639
761.6755, 13.29350
762.1576, 14.76051
762.6397, 16.54909
763.1218, 18.21492
763.6039, 19.74954
764.0861, 21.05180
764.5682, 21.57959
765.0503, 22.26266
765.5324, 24.19547
766.0145, 26.74255
766.4966, 28.53984
766.9788, 29.36839
767.4609, 30.13417
767.9430, 31.77563
768.4251, 34.26697
768.9072, 37.72427
769.3893, 42.37558
769.8715, 46.71538
770.3536, 50.25175
770.8357, 53.49730
771.3178, 56.75319
771.7999, 60.10585
772.2820, 64.13162
772.7642, 69.16080
773.2463, 74.47394
773.7284, 80.05167
774.2105, 85.68356
774.6926, 91.35295
775.1747, 96.90834
775.6569, 101.9748
776.1390, 106.4153
776.6211, 110.0181
777.1032, 112.8300
777.5853, 114.6819
778.0674, 114.4522
778.5496, 111.9308
779.0317, 108.3915
779.5138, 104.3941
779.9959, 99.79320
780.4780, 94.27046
780.9601, 87.55899
781.4423, 80.90222
781.9244, 74.06927
782.4065, 67.54742
782.8886, 61.52684
783.3707, 55.95801
783.8528, 50.65630
784.3350, 45.65582
784.8171, 41.26675
785.2992, 37.86615
785.7813, 34.93629
786.2634, 31.70491
786.7455, 28.36264
787.2277, 25.53999
787.7098, 23.36617
788.1919, 21.62144
788.6740, 20.18910
789.1561, 19.01543
789.6382, 17.92674
790.1204, 16.96037
790.6025, 16.00797
791.0846, 15.18356
791.5667, 14.23936
792.0488, 13.08855
792.5309, 11.77199
793.0131, 10.13765
793.4952, 8.010818
793.9773, 6.437241
794.4594, 6.203705
794.9415, 6.585480
795.4236, 7.159317
795.9058, 7.750092
796.3879, 8.077606
796.8700, 8.038132
797.3521, 7.724472
797.8342, 7.230637
798.3163, 6.594421
798.7985, 5.860504
799.2806, 4.953598
799.7627, 4.356476
800.2448, 4.097092
800.7269, 4.307800
801.2090, 5.451309
801.6912, 7.237137
802.1733, 8.115311
802.6554, 7.459274
803.1375, 6.851440
803.6196, 6.659958
804.1017, 6.574417
804.5839, 6.194305
805.0660, 5.686752
805.5481, 5.515396
806.0302, 5.916138
806.5123, 6.315186
806.9944, 5.917130
807.4766, 5.153458
807.9587, 5.254318
808.4408, 6.165405
808.9229, 6.727600
809.4050, 6.483490
809.8871, 5.992538
810.3693, 5.905869
810.8514, 6.215149
811.3335, 6.556168
811.8156, 7.474487
812.2977, 7.494034
812.7798, 5.265213
813.2620, 3.132034
813.7441, 2.911163
814.2262, 4.049088
814.7083, 4.817566
815.1904, 4.709091
815.6725, 4.282761
816.1547, 3.526077
816.6368, 2.845490
817.1189, 2.957947
817.6010, 3.578094
818.0831, 3.623550
818.5652, 2.648010
819.0474, 1.527496
819.5295, 1.517746
820.0116, 2.466370
820.4937, 3.027206
820.9758, 3.188477
821.4579, 3.007767
821.9401, 2.395859
822.4222, 1.618149
822.9043, 0.8295900
823.3864, 6.0242001E-02
823.8685, 0.1676180
824.3506, 0.5356450
824.8328, 1.211731
825.3149, 1.813858
825.7970, 2.256058
826.2791, 2.482971
826.7612, 2.506943
827.2433, 2.303650
827.7255, 1.821854
828.2076, 1.454269
828.6897, 1.625046
829.1718, 2.079407
829.6539, 2.459198
830.1360, 2.730042
830.6182, 2.832901
831.1003, 2.742874
831.5824, 2.635071
832.0645, 2.782974
832.5466, 2.306320
833.0287, 2.800400
833.5109, 1.458710
833.9930, 0.4723660
834.4751, 4.1962001E-02
834.9572, 0.1390690
835.4393, 1.173325
835.9214, 2.724380
836.4036, 3.536041
836.8857, 3.243042
837.3678, 2.763153
837.8499, 1.878632
838.3320, 1.283051
838.8141, 1.855362
839.2963, 2.986633
839.7784, 3.467621
840.2605, 2.947296
840.7426, 2.237778
841.2247, 1.999893
841.7068, 2.101303
842.1890, 2.429810
842.6711, 2.905365
843.1532, 3.025040
843.6353, 2.652817
844.1174, 2.135727
844.5995, 1.772034
845.0817, 1.520248
845.5638, 1.162994
846.0459, 0.4561460
846.5280, 0.3782650
847.0101, 1.699188
847.4922, 2.720428
847.9744, 2.325485
848.4565, 1.212555
848.9386, 0.3887330
849.4207, 4.8401002E-02
849.9028, 0.3479610
850.3849, 0.7206120
850.8671, 0.8172450
851.3492, 0.2717290
851.8313, 0.5900880
852.3134, 1.520752
852.7955, 2.345901
853.2776, 2.650009
853.7598, 2.030121
854.2419, 1.016739
854.7240, 0.2820280
855.2061, 0.1624450
855.6882, 0.2157290
856.1703, 0.1265260
856.6525, 0.7335360
857.1346, 1.593079
857.6167, 2.435562
858.0988, 2.695435
858.5809, 2.258484
859.0630, 1.967468
859.5452, 1.671494
860.0273, 1.822678
860.5094, 3.383438
860.9915, 4.738205
861.4736, 4.047852
861.9557, 1.707062
862.4379, 0.1854100
862.9200, 0.4028930
863.4021, 0.8175510
863.8842, 1.009964
864.3663, 1.089874
864.8484, 1.054123
865.3306, 1.003265
865.8127, 1.239166
866.2948, 1.897644
866.7769, 2.420883
867.2590, 1.762299
867.7411, 0.6325070
868.2233, 0.6328430
868.7054, 1.662186
869.1875, 3.033279
869.6696, 4.520676
870.1517, 5.529968
870.6339, 5.455841
871.1160, 4.594711
871.5981, 4.172775
872.0802, 4.176163
872.5623, 4.627029
873.0444, 5.821487
873.5266, 6.930939
874.0087, 7.682114
874.4908, 7.973099
874.9729, 7.547440
875.4550, 6.263077
875.9371, 5.206451
876.4193, 4.405502
876.9014, 3.939682
877.3835, 4.073730
877.8656, 4.430847
878.3477, 4.571320
878.8298, 4.561768
879.3120, 4.798584
879.7941, 5.487793
880.2762, 6.338593
880.7583, 7.208694
881.2404, 7.994522
881.7225, 8.399811
882.2047, 8.507019
882.6868, 8.798279
883.1689, 9.495438
883.6510, 10.21117
884.1331, 10.39598
884.6152, 10.24872
885.0974, 10.47969
885.5795, 11.22452
886.0616, 11.57715
886.5437, 11.11282
887.0258, 10.72943
887.5079, 11.34386
887.9901, 12.55844
888.4722, 12.75252
888.9543, 11.12772
889.4364, 10.00375
889.9185, 9.715622
890.4006, 9.530930
890.8828, 9.053070
891.3649, 8.579987
891.8470, 8.551773
892.3291, 8.991272
892.8112, 9.437088
893.2933, 9.895905
893.7755, 10.09763
894.2576, 9.509506
894.7397, 8.791183
895.2218, 8.933441
895.7039, 9.760071
896.1860, 10.30151
896.6682, 10.09863
897.1503, 9.656448
897.6324, 9.555878
898.1145, 9.694168
898.5966, 9.829422
899.0787, 9.938797
899.5609, 9.948380
900.0430, 9.843262
900.5251, 9.513077
901.0072, 8.797150
901.4893, 7.808228
901.9714, 7.176086
902.4536, 7.091736
902.9357, 6.581345
903.4178, 5.020645
903.8999, 4.018341
904.3820, 4.977005
904.8641, 6.717270
905.3463, 7.116318
905.8284, 5.996109
906.3105, 5.050903
906.7926, 4.363586
907.2747, 3.917770
907.7568, 3.662308
908.2390, 3.657822
908.7211, 4.234879
909.2032, 5.157181
909.6853, 5.663589
910.1674, 5.449844
910.6495, 4.884308
911.1317, 3.938309
911.6138, 2.969299
912.0959, 2.306549
912.5780, 1.979767
913.0601, 2.072449
913.5422, 2.562347
914.0244, 3.101852
914.5065, 3.385452
914.9886, 3.478531
915.4707, 3.610931
915.9528, 3.710632
916.4349, 3.143478
916.9171, 1.811798
917.3992, 0.8999940
917.8813, 1.118027
918.3634, 1.858673
918.8455, 2.063416
919.3276, 1.673309
919.8098, 1.690460
920.2919, 2.347260
920.7740, 2.846237
921.2561, 2.995392
921.7382, 2.946442
922.2203, 2.911316
922.7025, 2.781525
923.1846, 2.102707
923.6667, 0.3166960
924.1488, 0.7896880
924.6309, 0.3990780
925.1130, 4.5028999E-02
925.5952, 0.7669530
926.0773, 1.706161
926.5594, 1.581085
927.0415, 0.4299770
927.5236, 0.2934720
928.0057, 0.2562410
928.4879, 1.066803
928.9700, 1.693436
929.4521, 2.070969
929.9342, 2.052322
930.4163, 1.722733
930.8984, 1.211349
931.3806, 0.5917660
931.8627, 0.2151950
932.3448, 0.6153870
932.8269, 1.392532
933.3090, 1.763260
933.7911, 1.775940
934.2733, 1.472366
934.7554, 0.9021150
935.2375, 0.7708130
935.7196, 1.628128
936.2017, 2.858414
936.6838, 3.038467
937.1660, 2.091370
937.6481, 1.709824
938.1302, 2.060776
938.6123, 2.216217
939.0944, 1.738983
939.5765, 1.266434
940.0587, 1.660767
940.5408, 2.663177
941.0229, 2.336090
941.5050, 0.9751280
941.9871, 2.577423
942.4692, 0.6401060
942.9514, 1.106064
943.4335, 1.034988
943.9156, 4.0755998E-02
944.3977, 0.8822630
944.8798, 1.655350
945.3619, 2.124283
945.8441, 2.131256
946.3262, 1.982697
946.8083, 1.556717
947.2904, 1.215637
947.7725, 1.294083
948.2546, 1.702484
948.7368, 2.241348
949.2189, 2.861740
949.7010, 3.326767
950.1831, 3.393997
950.6652, 3.328461
951.1473, 3.651703
951.6295, 3.938400
952.1116, 2.770142
952.5937, 0.5411990
953.0758, 0.1463620
953.5579, 3.461182
954.0400, 7.373581
954.5222, 7.198547
955.0043, 4.311096
955.4864, 2.481140
955.9685, 1.846436
956.4506, 2.404800
956.9327, 4.149307
957.4149, 5.840347
957.8970, 6.336792
958.3791, 6.054688
958.8612, 6.272278
959.3433, 7.009003
959.8254, 7.911774
960.3076, 8.985260
960.7897, 10.08838
961.2718, 11.08365
961.7539, 12.25525
962.2360, 14.16013
962.7181, 16.72476
963.2003, 17.83813
963.6824, 16.16260
964.1645, 15.80301
964.6466, 18.08380
965.1287, 20.58063
965.6108, 21.95480
966.0930, 22.77362
966.5751, 23.75775
967.0572, 24.89062
967.5393, 26.53989
968.0214, 28.76666
968.5035, 31.47061
968.9857, 34.87610
969.4678, 38.52161
969.9499, 42.04633
970.4320, 45.56372
970.9141, 49.45859
971.3962, 53.81812
971.8784, 58.34253
972.3605, 63.05026
972.8426, 67.64929
973.3247, 71.39261
973.8068, 75.23016
974.2889, 80.60492
974.7711, 87.33966
975.2532, 94.06006
975.7353, 100.0672
976.2174, 106.6291
976.6995, 115.3282
977.1816, 124.9489
977.6638, 133.2660
978.1459, 141.1870
978.6280, 150.8586
979.1101, 162.8672
979.5922, 176.8699
980.0743, 192.6695
980.5565, 209.8872
981.0386, 227.4119
981.5207, 245.7175
982.0028, 266.4265
982.4849, 289.6285
982.9670, 315.5546
983.4492, 344.1732
983.9313, 373.8252
984.4134, 403.3049
984.8955, 432.5264
985.3776, 461.9496
985.8597, 491.6550
986.3419, 516.4814
986.8240, 535.9872
987.3061, 551.8503
987.7882, 565.5045
988.2703, 573.9832
988.7524, 574.0798
989.2346, 565.7113
989.7167, 547.9099
990.1988, 518.5731
990.6809, 485.4927
991.1630, 447.8828
991.6451, 409.3141
992.1273, 370.6102
992.6094, 332.7258
993.0915, 296.5079
993.5736, 261.8767
994.0557, 231.2068
994.5378, 205.2035
995.0200, 182.6964
995.5021, 164.4374
995.9842, 148.6374
996.4663, 134.5574
996.9484, 122.2212
997.4305, 111.7737
997.9127, 103.2947
998.3948, 95.52682
998.8769, 88.14963
999.3590, 81.84317
999.8411, 77.07019
1000.323, 72.88431
1000.805, 68.72681
1001.287, 64.55640
1001.770, 60.26169
1002.252, 55.73566
1002.734, 51.94385
1003.216, 49.55743
1003.698, 47.67902
1004.180, 45.93890
1004.662, 44.36069
1005.144, 42.81989
1005.627, 41.49557
1006.109, 41.02377
1006.591, 41.67834
1007.073, 42.08817
1007.555, 40.49768
1008.037, 38.98801
1008.519, 40.14307
1009.001, 42.46408
1009.483, 43.28143
1009.966, 42.71552
1010.448, 42.76181
1010.930, 44.37967
1011.412, 46.42432
1011.894, 47.74237
1012.376, 48.71329
1012.858, 49.89554
1013.340, 51.26184
1013.823, 52.71304
1014.305, 54.23175
1014.787, 55.91434
1015.269, 57.82123
1015.751, 59.74924
1016.233, 61.40536
1016.715, 62.83130
1017.197, 64.05441
1017.679, 65.17059
1018.162, 66.66275
1018.644, 68.59943
1019.126, 70.71051
1019.608, 72.86270
1020.090, 74.71042
1020.572, 75.44098
1021.054, 75.24292
1021.536, 75.49597
1022.018, 76.19635
1022.501, 77.27420
1022.983, 78.77103
1023.465, 79.80658
1023.947, 79.72208
1024.429, 78.80377
1024.911, 77.52600
1025.393, 75.88199
1025.875, 74.80124
1026.358, 74.40115
1026.840, 73.55362
1027.322, 71.93842
1027.804, 69.88333
1028.286, 67.57953
1028.768, 65.15198
1029.250, 62.91476
1029.732, 60.91064
1030.214, 58.80121
1030.697, 56.59122
1031.179, 54.23773
1031.661, 51.58966
1032.143, 49.11023
1032.625, 47.20898
1033.107, 45.69632
1033.589, 43.98221
1034.071, 42.66077
1034.553, 41.72992
1035.036, 40.35696
1035.518, 40.04013
1036.000, 39.38177
1036.482, 38.18045
1036.964, 36.03168
1037.446, 33.30884
1037.928, 31.07858
1038.410, 29.26929
1038.893, 28.16653
1039.375, 28.32858
1039.857, 28.25854
1040.339, 27.44931
1040.821, 26.51910
1041.303, 25.79016
1041.785, 25.37360
1042.267, 25.59052
1042.750, 26.68063
1043.232, 27.31116
1043.714, 26.66455
1044.196, 26.74893
1044.678, 28.79407
1045.160, 30.93448
1045.642, 31.82535
1046.124, 31.75687
1046.606, 31.39828
1047.089, 30.66739
1047.571, 30.26138
1048.053, 30.80392
1048.535, 31.10785
1049.017, 30.01239
1049.499, 29.14487
1049.981, 30.08087
1050.463, 32.18716
1050.945, 33.77817
1051.428, 34.51862
1051.910, 35.81357
1052.392, 38.64502
1052.874, 41.10281
1053.356, 42.34503
1053.838, 43.22440
1054.320, 44.46042
1054.802, 45.79865
1055.285, 46.74142
1055.767, 47.23553
1056.249, 47.07086
1056.731, 45.52713
1057.213, 44.12997
1057.695, 43.69089
1058.177, 43.39386
1058.659, 42.92654
1059.141, 42.00244
1059.624, 39.56528
1060.106, 35.44208
1060.588, 33.04388
1061.070, 35.30872
1061.552, 37.02859
1062.034, 35.63025
1062.516, 33.42053
1062.998, 32.03845
1063.480, 31.23077
1063.963, 30.37991
1064.445, 29.39560
1064.927, 28.41510
1065.409, 27.46667
1065.891, 26.44577
1066.373, 25.07520
1066.855, 23.85052
1067.337, 23.24936
1067.820, 23.02060
1068.302, 22.84882
1068.784, 22.59567
1069.266, 21.99829
1069.748, 20.84583
1070.230, 19.68240
1070.712, 18.48398
1071.194, 17.57623
1071.677, 17.85651
1072.159, 18.20413
1072.641, 16.59247
1073.123, 13.24496
1073.605, 10.98508
1074.087, 11.52411
1074.569, 11.62723
1075.051, 8.821625
1075.533, 6.086121
1076.016, 5.854584
1076.498, 6.795715
1076.980, 7.147186
1077.462, 6.799347
1077.944, 6.418304
1078.426, 6.124146
1078.908, 6.238434
1079.390, 7.395081
1079.873, 8.485168
1080.355, 8.336853
1080.837, 7.998596
1081.319, 9.262085
1081.801, 11.44992
1082.283, 11.96280
1082.765, 9.793915
1083.247, 7.567444
1083.729, 6.037262
1084.212, 5.319641
1084.694, 6.260651
1085.176, 7.420135
1085.658, 7.052765
1086.140, 5.731934
1086.622, 5.197174
1087.104, 5.900177
1087.586, 6.519714
1088.068, 6.541687
1088.551, 6.294250
1089.033, 6.001587
1089.515, 5.462921
1089.997, 4.148590
1090.479, 2.593079
1090.961, 1.795197
1091.443, 1.916046
1091.925, 2.226074
1092.408, 2.866241
1092.890, 3.090942
1093.372, 2.353699
1093.854, 1.324860
1094.336, 0.3145140
1094.818, 0.5321040
1095.300, 1.108276
1095.782, 1.384583
1096.265, 1.274231
1096.747, 0.3111270
1097.229, 0.1839900
1097.711, 0.3419490
1098.193, 1.318542
1098.675, 3.023346
1099.157, 4.572083
1099.639, 4.745392
1100.121, 3.795502
1100.604, 3.187836
1101.086, 3.380157
1101.568, 3.454773
1102.050, 3.097992
1102.532, 2.656342
1103.014, 2.311584
1103.496, 1.923706
1103.978, 1.025391
1104.460, 2.8870000E-02
1104.943, 0.1542970
1105.425, 1.903870
1105.907, 2.816956
1106.389, 2.337036
1106.871, 1.118408
1107.353, 1.660461
1107.835, 4.121582
1108.317, 4.888367
1108.800, 4.488586
1109.282, 3.692810
1109.764, 2.541931
1110.246, 1.638550
1110.728, 0.8547360
1111.210, 0.6253660
1111.692, 1.820374
1112.174, 2.658142
1112.656, 1.912903
1113.139, 0.6115720
1113.621, 1.9714000E-02
1114.103, 7.9346001E-02
1114.585, 2.5020000E-03
1115.067, 0.7294920
1115.549, 0.6830440
1116.031, 0.8139040
1116.513, 2.118225
1116.995, 2.489197
1117.478, 2.717285
1117.960, 3.707275
1118.442, 5.053650
1118.924, 5.493408
1119.406, 4.831909
1119.888, 3.999146
1120.370, 2.928467
1120.852, 1.805481
1121.335, 0.4953000
1121.817, 0.5736080
1122.299, 1.206421
1122.781, 1.323181
1123.263, 0.6358030
1123.745, 0.8711550
1124.227, 1.474487
1124.709, 0.9166870
1125.192, 0.3096310
1125.674, 0.4334720
1126.156, 0.4993900
1126.638, 0.7252200
1127.120, 2.139587
1127.602, 2.289795
1128.084, 3.428284
1128.566, 4.190308
1129.048, 4.519226
1129.531, 5.770081
1130.013, 5.662231
1130.495, 6.271301
1130.977, 8.294250
1131.459, 10.83423
1131.941, 13.21771
1132.423, 15.37158
1132.905, 17.14221
1133.387, 18.51917
1133.870, 19.01129
1134.352, 18.71466
1134.834, 20.32556
1135.316, 24.29614
1135.798, 27.57446
1136.280, 28.49445
1136.762, 28.16284
1137.244, 27.56531
1137.727, 27.29102
1138.209, 29.59125
1138.691, 33.80621
1139.173, 37.05273
1139.655, 39.16992
1140.137, 41.37402
1140.619, 44.03394
1141.101, 46.10065
1141.583, 46.62531
1142.066, 46.50055
1142.548, 46.77417
1143.030, 47.53168
1143.512, 49.05023
1143.994, 51.15704
1144.476, 53.48743
1144.958, 55.92896
1145.440, 58.48462
1145.922, 61.21399
1146.405, 63.59607
1146.887, 64.98700
1147.369, 66.62384
1147.851, 67.15894
1148.333, 68.30719
1148.815, 68.74805
1149.297, 68.61273
1149.779, 67.99402
1150.262, 67.07281
1150.744, 67.50500
1151.226, 71.25293
1151.708, 74.81390
1152.190, 75.81256
1152.672, 75.74445
1153.154, 75.28192
1153.636, 75.02313
1154.119, 75.93219
1154.601, 77.82166
1155.083, 79.29150
1155.565, 79.88324
1156.047, 80.23303
1156.529, 79.86823
1157.011, 80.06500
1157.493, 81.86914
1157.975, 84.26910
1158.458, 86.51929
1158.940, 88.49097
1159.422, 90.37115
1159.904, 92.24115
1160.386, 93.09589
1160.868, 91.63281
1161.350, 91.32043
1161.832, 93.19940
1162.314, 94.98334
1162.797, 95.48926
1163.279, 95.69031
1163.761, 96.85449
1164.243, 97.27228
1164.725, 97.87018
1165.207, 98.72791
1165.689, 98.39508
1166.171, 98.91608
1166.654, 98.68109
1167.136, 96.98901
1167.618, 95.24109
1168.100, 94.19342
1168.582, 94.22034
1169.064, 96.24713
1169.546, 99.97681
1170.028, 101.5037
1170.510, 100.6046
1170.993, 100.1412
1171.475, 100.4484
1171.957, 99.82074
1172.439, 97.53925
1172.921, 95.39612
1173.403, 95.29932
1173.885, 96.51556
1174.367, 97.78345
1174.849, 98.47485
1175.332, 96.25476
1175.814, 92.04187
1176.296, 89.39014
1176.778, 88.67249
1177.260, 88.17859
1177.742, 87.15552
1178.224, 85.72058
1178.706, 84.13477
1179.189, 82.15540
1179.671, 78.40100
1180.153, 74.77173
1180.635, 74.94702
1181.117, 77.39075
1181.599, 78.30310
1182.081, 76.87781
1182.563, 74.37915
1183.046, 70.95081
1183.528, 67.96448
1184.010, 65.56750
1184.492, 64.80896
1184.974, 68.14001
1185.456, 71.91223
1185.938, 71.85730
1186.420, 69.29504
1186.902, 68.11792
1187.385, 69.00659
1187.867, 69.83459
1188.349, 70.02588
1188.831, 70.43408
1189.313, 71.40967
1189.795, 72.43127
1190.277, 73.51160
1190.759, 74.20667
1191.241, 73.40784
1191.724, 71.91211
1192.206, 73.22266
1192.688, 78.70361
1193.170, 81.01685
1193.652, 78.74890
1194.134, 77.79675
1194.616, 79.94543
1195.098, 81.34314
1195.581, 79.59668
1196.063, 76.78772
1196.545, 75.64441
1197.027, 76.00256
1197.509, 77.77637
1197.991, 80.80444
1198.473, 81.24451
1198.955, 79.14124
1199.438, 78.26184
1199.920, 79.52600
1200.402, 80.86108
1200.884, 80.86072
1201.366, 80.07288
1201.848, 79.26270
1202.330, 78.16150
1202.812, 76.04883
1203.294, 73.31787
1203.776, 70.74292
1204.259, 68.32104
1204.741, 65.64917
1205.223, 62.68774
1205.705, 60.06519
1206.187, 58.22327
1206.669, 56.63416
1207.151, 55.65625
1207.633, 54.00977
1208.116, 49.33655
1208.598, 44.48694
1209.080, 43.78052
1209.562, 45.57141
1210.044, 44.57947
1210.526, 39.61035
1211.008, 35.54236
1211.490, 34.26392
1211.973, 32.52100
1212.455, 28.51367
1212.937, 25.43274
1213.419, 25.77100
1213.901, 26.41919
1214.383, 23.82715
1214.865, 19.19019
1215.347, 16.72217
1215.829, 16.85938
1216.312, 16.23376
1216.794, 14.86963
1217.276, 12.48291
1217.758, 8.987793
1218.240, 4.380127
1218.722, 1.680664
1219.204, 6.005615
1219.686, 4.388794
1220.168, 0.2258300
1220.651, 6.8236999E-02
1221.133, 3.871948
1221.615, 5.954468
1222.097, 6.219971
1222.579, 4.956909
1223.061, 2.642822
1223.543, 1.283447
1224.025, 1.825195
1224.508, 2.759766
1224.990, 2.688354
1225.472, 2.498779
1225.954, 2.985107
1226.436, 3.968628
1226.918, 6.111084
1227.400, 8.201904
1227.882, 7.939331
1228.365, 5.593872
1228.847, 3.203979
1229.329, 2.222168
1229.811, 1.155396
1230.293, 1.102051
1230.775, 2.637207
1231.257, 1.535767
1231.739, 0.9310300
1232.221, 4.242432
1232.703, 8.148315
1233.186, 7.529175
1233.668, 3.508301
1234.150, 3.309082
1234.632, 7.720459
1235.114, 12.88538
1235.596, 19.57214
1236.078, 23.06726
1236.560, 21.69788
1237.043, 20.10864
1237.525, 20.91724
1238.007, 23.45044
1238.489, 27.37146
1238.971, 31.59326
1239.453, 32.60815
1239.935, 31.69226
1240.417, 32.65637
1240.900, 35.55139
1241.382, 39.81299
1241.864, 45.02393
1242.346, 49.05066
1242.828, 50.71143
1243.310, 53.91016
1243.792, 63.98169
1244.274, 74.27063
1244.756, 78.26709
1245.239, 86.82019
1245.721, 88.44275
1246.203, 97.59619
1246.685, 103.2681
1247.167, 105.8536
1247.649, 110.4402
1248.131, 118.8136
1248.613, 126.5985
1249.095, 132.6919
1249.578, 139.0975
1250.060, 146.6166
1250.542, 153.8486
1251.024, 160.3042
1251.506, 165.9546
1251.988, 170.3777
1252.470, 173.0464
1252.952, 174.2570
1253.435, 176.4690
1253.917, 177.9757
1254.399, 179.7413
1254.881, 183.6196
1255.363, 188.5564
1255.845, 189.5315
1256.327, 184.2075
1256.809, 178.4287
1257.292, 179.7987
1257.774, 184.7843
1258.256, 187.4008
1258.738, 188.8508
1259.220, 190.7615
1259.702, 193.0979
1260.184, 194.3813
1260.666, 195.0444
1261.148, 194.8303
1261.630, 193.3345
1262.113, 189.6050
1262.595, 180.1633
1263.077, 173.3706
1263.559, 173.8496
1264.041, 174.8586
1264.523, 173.3672
1265.005, 170.3689
1265.487, 166.4800
1265.970, 162.1536
1266.452, 158.6187
1266.934, 153.3906
1267.416, 150.8723
1267.898, 143.0129
1268.380, 136.2266
1268.862, 130.9343
1269.344, 126.3279
1269.827, 122.2639
1270.309, 116.6628
1270.791, 107.7852
1271.273, 98.54028
1271.755, 93.29761
1272.237, 90.39917
1272.719, 88.13843
1273.201, 85.12158
1273.683, 77.48608
1274.166, 67.38989
1274.648, 60.06934
1275.130, 56.33374
1275.612, 53.73511
1276.094, 51.46777
1276.576, 49.87378
1277.058, 51.56030
1277.540, 50.53955
1278.022, 41.47461
1278.505, 32.25244
1278.987, 28.54443
1279.469, 27.16846
1279.951, 24.64038
1280.433, 21.25391
1280.915, 18.33667
1281.397, 16.42480
1281.879, 14.28882
1282.362, 12.03564
1282.844, 7.920654
1283.326, 1.689209
1283.808, 0.8156740
1284.290, 2.789551
1284.772, 6.822510
1285.254, 5.186768
1285.736, 0.0000000E+00
##END=



