##NAMES=Miersite
##RRUFFID=R110170
##IDEAL CHEMISTRY=(Ag,Cu)I
##LOCALITY=Proprietary mine, Broken Hill, Australia
##OWNER=RRUFF
##SOURCE=Marcus Origlieri
##DESCRIPTION=Pale yellow tetrahedra, associated with hexagonal plates of iodargyrite
##STATUS=The identification of this mineral has been confirmed by single-crystal X-ray diffraction.
##URL=rruff.info/R110170
92.56775, 36195.32
93.04987, 37357.75
93.53198, 38754.81
94.01410, 39626.46
94.49622, 40004.43
94.97833, 40113.88
95.46045, 40134.66
95.94257, 40065.51
96.42468, 39954.58
96.90680, 39832.93
97.38892, 39702.00
97.87103, 39564.23
98.35315, 39374.54
98.83527, 39113.63
99.31738, 38871.00
99.79950, 38658.46
100.2816, 38476.75
100.7637, 38323.75
101.2458, 38183.15
101.7280, 38038.89
102.2101, 37882.63
102.6922, 37729.24
103.1743, 37604.32
103.6564, 37505.13
104.1385, 37400.95
104.6207, 37275.07
105.1028, 37132.16
105.5849, 36988.44
106.0670, 36842.57
106.5491, 36688.38
107.0313, 36522.98
107.5134, 36344.14
107.9955, 36155.46
108.4776, 35960.20
108.9597, 35756.74
109.4418, 35546.62
109.9240, 35331.33
110.4061, 35108.44
110.8882, 34875.03
111.3703, 34629.13
111.8524, 34375.32
112.3345, 34127.36
112.8167, 33901.95
113.2988, 33658.51
113.7809, 33384.67
114.2630, 33092.22
114.7451, 32792.27
115.2272, 32493.58
115.7094, 32193.87
116.1915, 31900.93
116.6736, 31622.94
117.1557, 31339.93
117.6378, 31041.12
118.1199, 30729.16
118.6021, 30415.88
119.0842, 30111.71
119.5663, 29817.57
120.0484, 29526.43
120.5305, 29235.82
121.0126, 28947.57
121.4948, 28665.33
121.9769, 28389.72
122.4590, 28115.65
122.9411, 27838.49
123.4232, 27559.33
123.9053, 27283.18
124.3875, 27014.53
124.8696, 26750.54
125.3517, 26486.04
125.8338, 26219.86
126.3159, 25952.44
126.7980, 25683.01
127.2802, 25411.90
127.7623, 25143.84
128.2444, 24880.70
128.7265, 24623.81
129.2086, 24370.25
129.6907, 24125.36
130.1729, 23879.27
130.6550, 23627.14
131.1371, 23368.82
131.6192, 23108.70
132.1013, 22853.81
132.5834, 22604.28
133.0656, 22355.55
133.5477, 22105.05
134.0298, 21856.78
134.5119, 21613.63
134.9940, 21377.11
135.4761, 21145.62
135.9583, 20917.96
136.4404, 20697.95
136.9225, 20478.81
137.4046, 20262.00
137.8867, 20044.81
138.3688, 19825.92
138.8510, 19603.22
139.3331, 19378.31
139.8152, 19158.12
140.2973, 18940.48
140.7794, 18727.95
141.2615, 18522.30
141.7437, 18323.47
142.2258, 18126.58
142.7079, 17928.47
143.1900, 17733.09
143.6721, 17546.72
144.1542, 17373.35
144.6364, 17204.02
145.1185, 17029.90
145.6006, 16850.42
146.0827, 16669.98
146.5648, 16485.99
147.0469, 16302.90
147.5291, 16125.84
148.0112, 15958.16
148.4933, 15796.03
148.9754, 15629.64
149.4575, 15449.88
149.9396, 15281.16
150.4218, 15136.75
150.9039, 15003.98
151.3860, 14866.36
151.8681, 14712.42
152.3502, 14544.11
152.8323, 14387.55
153.3145, 14253.81
153.7966, 14121.88
154.2787, 13986.82
154.7608, 13849.71
155.2429, 13712.53
155.7250, 13575.70
156.2072, 13439.15
156.6893, 13308.38
157.1714, 13186.05
157.6535, 13065.08
158.1356, 12940.36
158.6177, 12813.09
159.0999, 12688.43
159.5820, 12571.88
160.0641, 12464.65
160.5462, 12355.28
161.0283, 12243.24
161.5104, 12130.16
161.9926, 12016.16
162.4747, 11901.59
162.9568, 11788.91
163.4389, 11682.86
163.9210, 11582.91
164.4031, 11484.39
164.8853, 11388.93
165.3674, 11293.86
165.8495, 11196.33
166.3316, 11094.54
166.8137, 10992.92
167.2958, 10894.44
167.7780, 10798.82
168.2601, 10707.14
168.7422, 10622.06
169.2243, 10541.88
169.7064, 10461.08
170.1885, 10377.48
170.6707, 10295.64
171.1528, 10218.78
171.6349, 10146.15
172.1170, 10073.91
172.5991, 9997.588
173.0812, 9916.729
173.5634, 9841.439
174.0455, 9779.317
174.5276, 9716.929
175.0097, 9647.140
175.4918, 9570.854
175.9739, 9494.918
176.4561, 9427.954
176.9382, 9372.575
177.4203, 9315.716
177.9024, 9255.994
178.3845, 9196.087
178.8666, 9136.574
179.3488, 9078.286
179.8309, 9022.193
180.3130, 8970.781
180.7951, 8926.927
181.2772, 8881.716
181.7593, 8832.654
182.2415, 8784.128
182.7236, 8740.276
183.2057, 8701.844
183.6878, 8665.772
184.1699, 8627.304
184.6520, 8583.654
185.1342, 8543.584
185.6163, 8509.205
186.0984, 8477.840
186.5805, 8446.857
187.0626, 8415.517
187.5447, 8384.244
188.0269, 8353.550
188.5090, 8322.959
188.9911, 8294.236
189.4732, 8267.972
189.9553, 8243.809
190.4374, 8222.012
190.9196, 8203.168
191.4017, 8184.945
191.8838, 8162.022
192.3659, 8133.602
192.8480, 8109.526
193.3301, 8097.966
193.8123, 8095.276
194.2944, 8087.631
194.7765, 8069.362
195.2586, 8047.401
195.7407, 8029.558
196.2228, 8015.933
196.7050, 8002.595
197.1871, 7986.836
197.6692, 7968.749
198.1513, 7949.865
198.6334, 7927.979
199.1155, 7907.792
199.5977, 7894.046
200.0798, 7886.575
200.5619, 7879.041
201.0440, 7863.694
201.5261, 7838.617
202.0082, 7818.267
202.4904, 7809.384
202.9725, 7802.267
203.4546, 7792.592
203.9367, 7779.671
204.4188, 7764.898
204.9009, 7749.233
205.3831, 7731.159
205.8652, 7717.108
206.3473, 7709.824
206.8294, 7704.271
207.3115, 7698.196
207.7936, 7690.979
208.2758, 7682.807
208.7579, 7673.995
209.2400, 7664.593
209.7221, 7654.268
210.2042, 7642.498
210.6863, 7630.367
211.1685, 7618.680
211.6506, 7607.537
212.1327, 7596.319
212.6148, 7583.912
213.0969, 7569.140
213.5790, 7555.948
214.0612, 7543.972
214.5433, 7533.658
215.0254, 7525.608
215.5075, 7519.924
215.9896, 7515.601
216.4717, 7511.683
216.9539, 7509.884
217.4360, 7503.401
217.9181, 7487.083
218.4002, 7468.516
218.8823, 7456.267
219.3644, 7452.491
219.8466, 7450.355
220.3287, 7439.269
220.8108, 7416.615
221.2929, 7400.014
221.7750, 7398.259
222.2571, 7401.368
222.7393, 7395.650
223.2214, 7377.365
223.7035, 7355.878
224.1856, 7344.050
224.6677, 7341.094
225.1498, 7336.014
225.6320, 7323.474
226.1141, 7307.717
226.5962, 7296.412
227.0783, 7291.991
227.5604, 7288.472
228.0425, 7278.241
228.5247, 7263.104
229.0068, 7250.440
229.4889, 7244.453
229.9710, 7242.875
230.4531, 7241.341
230.9352, 7240.695
231.4174, 7237.237
231.8995, 7225.661
232.3816, 7208.845
232.8637, 7194.773
233.3458, 7189.175
233.8279, 7189.464
234.3101, 7187.002
234.7922, 7180.387
235.2743, 7172.979
235.7564, 7165.975
236.2385, 7159.682
236.7206, 7154.617
237.2028, 7150.138
237.6849, 7147.088
238.1670, 7150.332
238.6491, 7167.832
239.1312, 7179.330
239.6133, 7173.982
240.0955, 7158.333
240.5776, 7143.664
241.0597, 7137.730
241.5418, 7137.793
242.0239, 7130.419
242.5060, 7110.354
242.9882, 7089.422
243.4703, 7068.332
243.9524, 7049.181
244.4345, 7035.036
244.9166, 7028.137
245.3987, 7027.023
245.8809, 7024.793
246.3630, 7017.684
246.8451, 7014.633
247.3272, 7022.896
247.8093, 7034.548
248.2914, 7039.002
248.7736, 7030.227
249.2557, 7011.307
249.7378, 6994.815
250.2199, 6981.226
250.7020, 6969.828
251.1841, 6961.326
251.6663, 6954.694
252.1484, 6948.737
252.6305, 6942.833
253.1126, 6937.496
253.5947, 6934.310
254.0768, 6939.248
254.5590, 6938.960
255.0411, 6928.784
255.5232, 6914.572
256.0053, 6902.107
256.4874, 6893.901
256.9695, 6889.434
257.4517, 6887.449
257.9338, 6891.719
258.4159, 6894.031
258.8980, 6894.404
259.3801, 6892.738
259.8622, 6887.954
260.3444, 6879.779
260.8265, 6870.702
261.3086, 6865.585
261.7907, 6869.477
262.2728, 6869.165
262.7549, 6859.560
263.2371, 6848.018
263.7192, 6842.933
264.2013, 6846.353
264.6834, 6852.430
265.1655, 6852.260
265.6476, 6841.891
266.1298, 6834.634
266.6119, 6833.721
267.0940, 6834.391
267.5761, 6831.773
268.0582, 6825.012
268.5403, 6817.539
269.0225, 6813.565
269.5046, 6814.287
269.9867, 6813.451
270.4688, 6811.387
270.9509, 6807.485
271.4330, 6799.573
271.9152, 6787.798
272.3973, 6777.366
272.8794, 6773.878
273.3615, 6778.017
273.8436, 6780.212
274.3257, 6778.000
274.8079, 6775.400
275.2900, 6776.269
275.7721, 6780.538
276.2542, 6784.401
276.7363, 6785.073
277.2184, 6782.539
277.7006, 6779.512
278.1827, 6775.437
278.6648, 6771.301
279.1469, 6767.757
279.6290, 6764.787
280.1111, 6762.019
280.5933, 6758.759
281.0754, 6755.841
281.5575, 6755.573
282.0396, 6760.710
282.5217, 6765.177
283.0038, 6764.813
283.4860, 6760.327
283.9681, 6755.147
284.4502, 6750.144
284.9323, 6746.035
285.4144, 6743.838
285.8965, 6743.560
286.3787, 6744.986
286.8608, 6749.702
287.3429, 6756.435
287.8250, 6760.552
288.3071, 6760.206
288.7892, 6756.884
289.2714, 6752.457
289.7535, 6746.708
290.2356, 6741.619
290.7177, 6736.737
291.1998, 6733.130
291.6819, 6734.911
292.1641, 6745.704
292.6462, 6756.662
293.1283, 6756.592
293.6104, 6746.900
294.0925, 6737.769
294.5746, 6733.017
295.0568, 6731.589
295.5389, 6731.876
296.0210, 6734.235
296.5031, 6736.710
296.9852, 6738.599
297.4673, 6739.515
297.9495, 6737.598
298.4316, 6729.485
298.9137, 6719.264
299.3958, 6713.307
299.8779, 6712.349
300.3600, 6712.797
300.8422, 6713.947
301.3243, 6714.657
301.8064, 6712.597
302.2885, 6706.079
302.7706, 6697.692
303.2527, 6690.458
303.7349, 6684.468
304.2170, 6677.774
304.6991, 6667.342
305.1812, 6656.827
305.6633, 6651.889
306.1454, 6655.255
306.6276, 6659.258
307.1097, 6655.968
307.5918, 6645.915
308.0739, 6638.247
308.5560, 6636.913
309.0381, 6638.651
309.5203, 6639.845
310.0024, 6640.426
310.4845, 6640.196
310.9666, 6638.575
311.4487, 6635.847
311.9308, 6633.586
312.4130, 6632.452
312.8951, 6631.262
313.3772, 6628.185
313.8593, 6623.625
314.3414, 6620.677
314.8235, 6623.405
315.3057, 6628.769
315.7878, 6628.070
316.2699, 6618.447
316.7520, 6607.930
317.2341, 6602.501
317.7162, 6600.664
318.1984, 6599.479
318.6805, 6597.303
319.1626, 6595.507
319.6447, 6597.127
320.1268, 6603.088
320.6089, 6607.983
321.0911, 6608.757
321.5732, 6606.513
322.0553, 6602.039
322.5374, 6594.154
323.0195, 6586.284
323.5016, 6582.674
323.9838, 6583.339
324.4659, 6583.292
324.9480, 6579.816
325.4301, 6575.260
325.9122, 6572.413
326.3943, 6571.479
326.8765, 6571.766
327.3586, 6574.360
327.8407, 6578.386
328.3228, 6578.442
328.8049, 6571.353
329.2870, 6562.540
329.7692, 6557.345
330.2513, 6555.524
330.7334, 6555.057
331.2155, 6556.646
331.6976, 6558.753
332.1797, 6556.555
332.6619, 6547.475
333.1440, 6539.933
333.6261, 6543.179
334.1082, 6553.435
334.5903, 6562.271
335.0724, 6565.524
335.5546, 6566.795
336.0367, 6571.102
336.5188, 6578.758
337.0009, 6586.258
337.4830, 6592.721
337.9651, 6597.217
338.4473, 6597.832
338.9294, 6592.517
339.4115, 6586.229
339.8936, 6584.119
340.3757, 6585.332
340.8578, 6582.896
341.3400, 6571.885
341.8221, 6558.361
342.3042, 6551.810
342.7863, 6553.170
343.2684, 6555.312
343.7505, 6554.603
344.2327, 6552.092
344.7148, 6550.681
345.1969, 6551.544
345.6790, 6552.055
346.1611, 6546.744
346.6432, 6536.770
347.1254, 6532.108
347.6075, 6540.081
348.0896, 6552.455
348.5717, 6559.496
349.0538, 6560.368
349.5359, 6557.492
350.0181, 6550.821
350.5002, 6541.627
350.9823, 6535.616
351.4644, 6536.493
351.9465, 6537.760
352.4286, 6533.298
352.9108, 6524.681
353.3929, 6519.769
353.8750, 6523.367
354.3571, 6532.091
354.8392, 6537.313
355.3214, 6537.721
355.8035, 6538.182
356.2856, 6541.358
356.7677, 6545.579
357.2498, 6547.501
357.7319, 6545.946
358.2141, 6543.232
358.6962, 6542.754
359.1783, 6545.076
359.6604, 6546.118
360.1425, 6544.374
360.6246, 6541.833
361.1068, 6540.476
361.5889, 6540.442
362.0710, 6540.516
362.5531, 6539.766
363.0352, 6538.162
363.5173, 6536.107
363.9995, 6530.548
364.4816, 6527.541
364.9637, 6532.338
365.4458, 6542.158
365.9279, 6549.749
366.4100, 6551.172
366.8922, 6548.200
367.3743, 6546.509
367.8564, 6546.536
368.3385, 6547.047
368.8206, 6547.736
369.3027, 6548.863
369.7849, 6550.969
370.2670, 6554.136
370.7491, 6557.630
371.2312, 6560.614
371.7133, 6563.564
372.1954, 6564.022
372.6776, 6558.958
373.1597, 6554.134
373.6418, 6553.381
374.1239, 6556.389
374.6060, 6560.479
375.0881, 6563.674
375.5703, 6565.992
376.0524, 6567.882
376.5345, 6570.756
377.0166, 6571.708
377.4987, 6568.039
377.9808, 6562.582
378.4630, 6559.467
378.9451, 6560.613
379.4272, 6564.574
379.9093, 6567.855
380.3914, 6569.123
380.8735, 6572.073
381.3557, 6580.700
381.8378, 6588.175
382.3199, 6587.423
382.8020, 6578.677
383.2841, 6569.635
383.7662, 6569.548
384.2484, 6580.091
384.7305, 6587.654
385.2126, 6589.851
385.6947, 6591.161
386.1768, 6592.972
386.6589, 6594.911
387.1411, 6595.997
387.6232, 6595.596
388.1053, 6593.968
388.5874, 6591.945
389.0695, 6588.947
389.5516, 6586.685
390.0338, 6584.957
390.5159, 6584.334
390.9980, 6586.835
391.4801, 6592.907
391.9622, 6597.489
392.4443, 6590.817
392.9265, 6570.544
393.4086, 6562.485
393.8907, 6582.594
394.3728, 6603.956
394.8549, 6611.013
395.3370, 6605.547
395.8192, 6597.086
396.3013, 6592.749
396.7834, 6590.033
397.2655, 6578.838
397.7476, 6554.515
398.2297, 6533.899
398.7119, 6528.063
399.1940, 6530.461
399.6761, 6533.969
400.1582, 6537.624
400.6403, 6540.016
401.1224, 6539.512
401.6046, 6536.185
402.0867, 6531.558
402.5688, 6525.489
403.0509, 6518.877
403.5330, 6512.481
404.0151, 6506.250
404.4973, 6501.145
404.9794, 6498.010
405.4615, 6496.154
405.9436, 6495.286
406.4257, 6495.793
406.9078, 6493.852
407.3900, 6484.092
407.8721, 6468.690
408.3542, 6458.877
408.8363, 6458.466
409.3184, 6461.187
409.8005, 6464.417
410.2827, 6467.742
410.7648, 6469.860
411.2469, 6470.243
411.7290, 6469.040
412.2111, 6466.323
412.6932, 6461.879
413.1754, 6456.773
413.6575, 6448.624
414.1396, 6441.231
414.6217, 6439.802
415.1038, 6444.750
415.5859, 6450.669
416.0681, 6452.306
416.5502, 6449.276
417.0323, 6445.279
417.5144, 6439.197
417.9965, 6433.447
418.4786, 6427.894
418.9608, 6423.517
419.4429, 6422.582
419.9250, 6426.449
420.4071, 6432.920
420.8892, 6435.847
421.3713, 6432.642
421.8535, 6429.609
422.3356, 6427.569
422.8177, 6425.369
423.2998, 6421.647
423.7819, 6416.525
424.2640, 6411.724
424.7462, 6409.197
425.2283, 6409.134
425.7104, 6408.301
426.1925, 6405.232
426.6746, 6402.984
427.1567, 6403.990
427.6389, 6406.018
428.1210, 6405.064
428.6031, 6398.734
429.0852, 6390.438
429.5673, 6387.462
430.0494, 6391.261
430.5316, 6395.098
431.0137, 6398.646
431.4958, 6400.872
431.9779, 6400.814
432.4600, 6398.508
432.9421, 6394.968
433.4243, 6389.638
433.9064, 6383.440
434.3885, 6381.052
434.8706, 6384.619
435.3527, 6387.461
435.8348, 6384.087
436.3170, 6377.277
436.7991, 6371.429
437.2812, 6367.746
437.7633, 6365.146
438.2454, 6363.050
438.7275, 6361.308
439.2097, 6358.600
439.6918, 6353.373
440.1739, 6348.636
440.6560, 6349.810
441.1381, 6357.214
441.6202, 6363.841
442.1024, 6368.028
442.5845, 6370.282
443.0666, 6371.508
443.5487, 6371.688
444.0308, 6368.813
444.5129, 6359.767
444.9951, 6346.037
445.4772, 6341.114
445.9593, 6353.904
446.4414, 6363.829
446.9235, 6362.854
447.4056, 6355.646
447.8878, 6348.665
448.3699, 6344.187
448.8520, 6341.888
449.3341, 6341.495
449.8162, 6344.162
450.2983, 6345.461
450.7805, 6344.150
451.2626, 6342.836
451.7447, 6343.507
452.2268, 6345.382
452.7089, 6346.169
453.1910, 6344.253
453.6732, 6340.224
454.1553, 6336.308
454.6374, 6330.943
455.1195, 6328.555
455.6016, 6333.016
456.0837, 6338.285
456.5659, 6338.588
457.0480, 6333.171
457.5301, 6326.658
458.0122, 6323.141
458.4943, 6322.599
458.9764, 6325.457
459.4586, 6335.131
459.9407, 6343.014
460.4228, 6343.305
460.9049, 6339.179
461.3870, 6336.528
461.8691, 6338.544
462.3513, 6340.974
462.8334, 6337.672
463.3155, 6328.908
463.7976, 6321.555
464.2797, 6317.501
464.7618, 6316.157
465.2440, 6317.430
465.7261, 6321.391
466.2082, 6324.259
466.6903, 6325.385
467.1724, 6324.436
467.6545, 6319.467
468.1367, 6310.757
468.6188, 6303.954
469.1009, 6303.445
469.5830, 6307.801
470.0651, 6309.687
470.5472, 6307.016
471.0294, 6304.851
471.5115, 6304.960
471.9936, 6306.054
472.4757, 6306.219
472.9578, 6305.050
473.4399, 6304.131
473.9221, 6305.700
474.4042, 6310.711
474.8863, 6312.470
475.3684, 6308.362
475.8505, 6304.171
476.3326, 6302.331
476.8148, 6301.802
477.2969, 6300.495
477.7790, 6297.381
478.2611, 6293.405
478.7432, 6290.438
479.2253, 6288.318
479.7075, 6287.782
480.1896, 6291.416
480.6717, 6294.625
481.1538, 6294.805
481.6359, 6292.150
482.1180, 6288.398
482.6002, 6284.060
483.0823, 6279.708
483.5644, 6276.906
484.0465, 6275.809
484.5286, 6275.931
485.0107, 6280.189
485.4929, 6283.847
485.9750, 6280.262
486.4571, 6267.456
486.9392, 6254.275
487.4213, 6244.915
487.9034, 6239.179
488.3856, 6237.956
488.8677, 6241.972
489.3498, 6245.455
489.8319, 6242.300
490.3140, 6233.311
490.7961, 6229.502
491.2783, 6235.095
491.7604, 6241.316
492.2425, 6244.655
492.7246, 6245.752
493.2067, 6245.769
493.6888, 6245.124
494.1710, 6244.003
494.6531, 6242.622
495.1352, 6240.658
495.6173, 6239.524
496.0994, 6241.300
496.5815, 6241.775
497.0637, 6238.247
497.5458, 6231.844
498.0279, 6224.830
498.5100, 6218.280
498.9921, 6212.853
499.4742, 6210.693
499.9564, 6213.874
500.4385, 6214.955
500.9206, 6209.303
501.4027, 6204.029
501.8848, 6204.563
502.3669, 6210.198
502.8491, 6215.397
503.3312, 6215.691
503.8133, 6212.970
504.2954, 6212.657
504.7775, 6215.398
505.2596, 6217.672
505.7418, 6218.798
506.2239, 6217.913
506.7060, 6213.016
507.1881, 6202.607
507.6702, 6194.255
508.1523, 6193.701
508.6345, 6197.034
509.1166, 6197.627
509.5987, 6194.486
510.0808, 6190.351
510.5629, 6187.023
511.0450, 6184.612
511.5272, 6183.963
512.0093, 6186.398
512.4914, 6188.719
512.9735, 6189.185
513.4556, 6189.313
513.9377, 6192.454
514.4199, 6198.997
514.9020, 6204.044
515.3841, 6200.415
515.8662, 6185.939
516.3483, 6177.876
516.8304, 6184.349
517.3126, 6188.789
517.7947, 6186.240
518.2768, 6178.863
518.7589, 6168.990
519.2410, 6157.294
519.7231, 6147.157
520.2053, 6144.675
520.6874, 6150.517
521.1695, 6154.025
521.6516, 6152.104
522.1337, 6149.708
522.6158, 6150.813
523.0980, 6154.194
523.5801, 6156.416
524.0622, 6156.836
524.5443, 6155.034
525.0264, 6148.141
525.5085, 6137.563
525.9907, 6132.772
526.4728, 6138.653
526.9549, 6148.186
527.4370, 6150.077
527.9191, 6142.555
528.4012, 6139.575
528.8834, 6148.002
529.3655, 6156.718
529.8476, 6157.108
530.3297, 6151.068
530.8118, 6145.308
531.2939, 6143.411
531.7761, 6143.997
532.2582, 6143.531
532.7403, 6140.528
533.2224, 6139.088
533.7045, 6139.675
534.1866, 6141.147
534.6688, 6143.868
535.1509, 6146.925
535.6330, 6148.085
536.1151, 6145.503
536.5972, 6140.546
537.0793, 6136.470
537.5615, 6133.026
538.0436, 6131.793
538.5257, 6135.919
539.0078, 6140.483
539.4899, 6141.088
539.9720, 6137.771
540.4542, 6133.610
540.9363, 6128.929
541.4184, 6124.931
541.9005, 6123.826
542.3826, 6125.558
542.8647, 6127.539
543.3469, 6128.462
543.8290, 6128.727
544.3111, 6129.502
544.7932, 6131.587
545.2753, 6132.181
545.7574, 6129.557
546.2396, 6126.170
546.7217, 6124.285
547.2038, 6123.762
547.6859, 6122.790
548.1680, 6119.882
548.6501, 6115.893
549.1323, 6114.987
549.6144, 6120.761
550.0965, 6123.309
550.5786, 6117.641
551.0607, 6111.806
551.5428, 6112.787
552.0250, 6120.052
552.5071, 6126.991
552.9892, 6128.325
553.4713, 6125.953
553.9534, 6126.880
554.4355, 6132.924
554.9177, 6132.340
555.3998, 6114.354
555.8819, 6091.696
556.3640, 6082.104
556.8461, 6087.290
557.3282, 6093.421
557.8104, 6095.068
558.2925, 6094.875
558.7746, 6096.832
559.2567, 6100.623
559.7388, 6101.583
560.2209, 6096.405
560.7031, 6087.211
561.1852, 6080.785
561.6673, 6080.112
562.1494, 6077.991
562.6315, 6073.079
563.1136, 6067.685
563.5958, 6062.388
564.0779, 6058.010
564.5600, 6056.854
565.0421, 6061.276
565.5242, 6068.782
566.0063, 6070.686
566.4885, 6065.225
566.9706, 6059.219
567.4527, 6051.068
567.9348, 6045.391
568.4169, 6047.501
568.8990, 6056.323
569.3812, 6063.383
569.8633, 6064.006
570.3454, 6060.398
570.8275, 6054.272
571.3096, 6045.980
571.7917, 6039.838
572.2739, 6038.008
572.7560, 6038.686
573.2381, 6038.756
573.7202, 6038.083
574.2023, 6037.519
574.6844, 6038.208
575.1666, 6038.142
575.6487, 6035.459
576.1308, 6030.860
576.6129, 6025.751
577.0950, 6020.708
577.5771, 6017.058
578.0593, 6018.544
578.5414, 6028.534
579.0235, 6034.364
579.5056, 6032.139
579.9877, 6028.578
580.4698, 6025.868
580.9520, 6024.178
581.4341, 6023.595
581.9162, 6024.785
582.3983, 6025.736
582.8804, 6022.438
583.3625, 6015.519
583.8447, 6012.550
584.3268, 6016.729
584.8089, 6022.011
585.2910, 6021.486
585.7731, 6015.854
586.2552, 6012.288
586.7374, 6013.568
587.2195, 6014.838
587.7016, 6012.349
588.1837, 6008.487
588.6658, 6008.746
589.1479, 6014.440
589.6301, 6019.462
590.1122, 6015.269
590.5943, 6000.168
591.0764, 5992.126
591.5585, 5998.189
592.0406, 6003.248
592.5228, 6004.089
593.0049, 6001.822
593.4870, 5996.808
593.9691, 5989.289
594.4512, 5982.907
594.9333, 5981.776
595.4155, 5984.797
595.8976, 5987.201
596.3797, 5988.582
596.8618, 5990.240
597.3439, 5994.667
597.8260, 5999.103
598.3082, 5996.475
598.7903, 5982.352
599.2724, 5972.457
599.7545, 5976.295
600.2366, 5984.131
600.7188, 5984.357
601.2009, 5977.275
601.6830, 5971.958
602.1651, 5974.907
602.6472, 5983.298
603.1293, 5986.414
603.6115, 5979.923
604.0936, 5976.061
604.5757, 5977.420
605.0578, 5979.780
605.5399, 5981.583
606.0220, 5982.167
606.5042, 5980.251
606.9863, 5973.927
607.4684, 5966.554
607.9505, 5964.299
608.4326, 5967.014
608.9147, 5968.628
609.3969, 5967.431
609.8790, 5964.935
610.3611, 5962.659
610.8432, 5960.564
611.3253, 5958.042
611.8074, 5952.526
612.2896, 5949.195
612.7717, 5952.990
613.2538, 5960.178
613.7359, 5964.560
614.2180, 5964.269
614.7001, 5961.192
615.1823, 5957.216
615.6644, 5952.231
616.1465, 5948.297
616.6286, 5945.609
617.1107, 5943.772
617.5928, 5944.014
618.0750, 5944.233
618.5571, 5941.725
619.0392, 5936.119
619.5213, 5930.712
620.0034, 5928.393
620.4855, 5927.982
620.9677, 5926.517
621.4498, 5923.837
621.9319, 5922.374
622.4140, 5923.807
622.8961, 5926.714
623.3782, 5928.211
623.8604, 5928.530
624.3425, 5927.062
624.8246, 5920.390
625.3067, 5914.868
625.7888, 5916.140
626.2709, 5922.028
626.7531, 5926.817
627.2352, 5927.673
627.7173, 5926.097
628.1994, 5924.767
628.6815, 5923.849
629.1636, 5921.850
629.6458, 5916.189
630.1279, 5912.728
630.6100, 5916.439
631.0921, 5923.546
631.5742, 5927.470
632.0563, 5926.436
632.5385, 5922.447
633.0206, 5914.041
633.5027, 5904.469
633.9848, 5901.432
634.4669, 5905.901
634.9490, 5910.559
635.4312, 5910.220
635.9133, 5905.701
636.3954, 5900.743
636.8775, 5894.612
637.3596, 5889.115
637.8417, 5883.226
638.3239, 5878.901
638.8060, 5878.229
639.2881, 5880.473
639.7702, 5883.147
640.2523, 5884.846
640.7344, 5885.908
641.2166, 5886.940
641.6987, 5887.936
642.1808, 5888.997
642.6629, 5890.954
643.1450, 5891.625
643.6271, 5887.389
644.1093, 5879.857
644.5914, 5875.183
645.0735, 5875.721
645.5556, 5877.579
646.0377, 5880.613
646.5198, 5883.192
647.0020, 5882.362
647.4841, 5877.915
647.9662, 5872.686
648.4483, 5869.139
648.9304, 5867.084
649.4125, 5864.970
649.8947, 5862.306
650.3768, 5860.561
650.8589, 5861.037
651.3410, 5861.625
651.8231, 5861.307
652.3052, 5859.807
652.7874, 5856.495
653.2695, 5848.606
653.7516, 5841.057
654.2337, 5841.274
654.7158, 5847.606
655.1979, 5852.905
655.6801, 5855.363
656.1622, 5854.737
656.6443, 5849.876
657.1264, 5840.390
657.6085, 5834.712
658.0906, 5837.174
658.5728, 5837.522
659.0549, 5829.404
659.5370, 5820.353
660.0191, 5819.920
660.5012, 5828.233
660.9833, 5835.938
661.4655, 5834.991
661.9476, 5827.864
662.4297, 5821.422
662.9118, 5815.400
663.3939, 5812.641
663.8760, 5815.914
664.3582, 5820.581
664.8403, 5820.609
665.3224, 5816.427
665.8045, 5813.232
666.2866, 5811.861
666.7687, 5811.653
667.2509, 5814.221
667.7330, 5817.073
668.2151, 5815.217
668.6972, 5807.818
669.1793, 5799.940
669.6614, 5796.974
670.1436, 5798.534
670.6257, 5798.845
671.1078, 5796.783
671.5899, 5795.794
672.0720, 5798.828
672.5541, 5801.874
673.0363, 5800.982
673.5184, 5796.401
674.0005, 5792.873
674.4826, 5793.067
674.9647, 5794.647
675.4468, 5796.987
675.9290, 5798.810
676.4111, 5794.867
676.8932, 5783.391
677.3753, 5771.899
677.8574, 5769.617
678.3395, 5776.964
678.8217, 5782.836
679.3038, 5788.867
679.7859, 5791.153
680.2680, 5785.701
680.7501, 5778.545
681.2322, 5775.500
681.7144, 5776.781
682.1965, 5778.034
682.6786, 5775.462
683.1607, 5771.845
683.6428, 5773.021
684.1249, 5778.174
684.6071, 5779.741
685.0892, 5774.694
685.5713, 5768.059
686.0534, 5765.938
686.5355, 5768.750
687.0176, 5768.020
687.4998, 5758.627
687.9819, 5752.372
688.4640, 5755.496
688.9461, 5761.091
689.4282, 5761.592
689.9103, 5756.592
690.3925, 5751.406
690.8746, 5749.963
691.3567, 5751.264
691.8388, 5754.766
692.3209, 5760.833
692.8030, 5759.209
693.2852, 5743.261
693.7673, 5726.299
694.2494, 5723.769
694.7315, 5734.566
695.2136, 5739.745
695.6957, 5733.048
696.1779, 5727.442
696.6600, 5729.235
697.1421, 5733.335
697.6242, 5733.674
698.1063, 5729.857
698.5884, 5725.533
699.0706, 5723.165
699.5527, 5722.796
700.0348, 5725.680
700.5169, 5732.870
700.9990, 5736.022
701.4811, 5731.283
701.9633, 5725.201
702.4454, 5724.037
702.9275, 5726.190
703.4096, 5726.318
703.8917, 5723.079
704.3738, 5718.572
704.8560, 5711.498
705.3381, 5704.816
705.8202, 5702.058
706.3023, 5703.445
706.7844, 5707.959
707.2665, 5715.568
707.7487, 5723.351
708.2308, 5721.482
708.7129, 5706.577
709.1950, 5698.220
709.6771, 5702.930
710.1592, 5709.049
710.6414, 5708.107
711.1235, 5703.307
711.6056, 5701.858
712.0877, 5707.055
712.5698, 5710.755
713.0519, 5707.420
713.5341, 5701.447
714.0162, 5698.365
714.4983, 5697.994
714.9804, 5696.148
715.4625, 5690.147
715.9446, 5683.413
716.4268, 5684.078
716.9089, 5694.586
717.3910, 5701.481
717.8731, 5702.756
718.3552, 5702.594
718.8373, 5699.892
719.3195, 5698.234
719.8016, 5704.728
720.2837, 5722.469
720.7658, 5735.951
721.2479, 5736.832
721.7300, 5730.417
722.2122, 5720.221
722.6943, 5707.766
723.1764, 5695.950
723.6585, 5686.017
724.1406, 5678.235
724.6227, 5673.599
725.1049, 5672.640
725.5870, 5669.272
726.0691, 5661.300
726.5512, 5654.497
727.0333, 5650.986
727.5154, 5649.430
727.9976, 5649.046
728.4797, 5649.689
728.9618, 5650.042
729.4439, 5648.105
729.9260, 5646.865
730.4081, 5650.330
730.8903, 5656.486
731.3724, 5660.874
731.8545, 5662.115
732.3366, 5660.414
732.8187, 5655.463
733.3008, 5647.693
733.7830, 5642.256
734.2651, 5640.430
734.7472, 5638.234
735.2293, 5633.029
735.7114, 5628.701
736.1935, 5629.366
736.6757, 5633.746
737.1578, 5635.725
737.6399, 5631.471
738.1220, 5626.880
738.6041, 5627.114
739.0862, 5629.080
739.5684, 5626.783
740.0505, 5620.112
740.5326, 5615.061
741.0147, 5616.364
741.4968, 5621.275
741.9789, 5620.774
742.4611, 5612.436
742.9432, 5607.689
743.4253, 5609.705
743.9074, 5612.866
744.3895, 5615.383
744.8716, 5616.443
745.3538, 5613.861
745.8359, 5605.770
746.3180, 5599.108
746.8001, 5597.921
747.2822, 5599.070
747.7643, 5599.917
748.2465, 5600.165
748.7286, 5599.664
749.2107, 5598.351
749.6928, 5597.379
750.1749, 5599.438
750.6570, 5604.915
751.1392, 5604.540
751.6213, 5594.634
752.1034, 5587.426
752.5855, 5590.624
753.0676, 5596.971
753.5497, 5596.964
754.0319, 5590.260
754.5140, 5585.292
754.9961, 5585.953
755.4782, 5586.882
755.9603, 5584.288
756.4424, 5580.048
756.9246, 5577.233
757.4067, 5576.399
757.8888, 5576.000
758.3709, 5574.720
758.8530, 5572.798
759.3351, 5571.280
759.8173, 5570.355
760.2994, 5567.913
760.7815, 5561.899
761.2636, 5557.354
761.7457, 5561.206
762.2278, 5570.670
762.7100, 5572.090
763.1921, 5558.009
763.6742, 5547.115
764.1563, 5543.719
764.6384, 5545.222
765.1205, 5553.479
765.6027, 5564.552
766.0848, 5568.771
766.5669, 5561.380
767.0490, 5550.517
767.5311, 5547.628
768.0132, 5550.991
768.4954, 5550.405
768.9775, 5544.700
769.4596, 5539.779
769.9417, 5538.377
770.4238, 5539.462
770.9059, 5541.830
771.3881, 5546.618
771.8702, 5547.643
772.3523, 5539.525
772.8344, 5534.114
773.3165, 5537.859
773.7986, 5545.027
774.2808, 5549.303
774.7629, 5549.771
775.2450, 5549.278
775.7271, 5549.635
776.2092, 5550.172
776.6913, 5549.506
777.1735, 5548.079
777.6556, 5548.823
778.1377, 5552.602
778.6198, 5553.104
779.1019, 5543.721
779.5840, 5527.388
780.0662, 5519.749
780.5483, 5528.339
781.0304, 5531.271
781.5125, 5518.173
781.9946, 5508.391
782.4767, 5516.362
782.9589, 5533.139
783.4410, 5540.854
783.9231, 5533.900
784.4052, 5524.398
784.8873, 5517.537
785.3694, 5513.521
785.8516, 5513.650
786.3337, 5517.000
786.8158, 5521.382
787.2979, 5525.873
787.7800, 5528.096
788.2621, 5523.805
788.7443, 5513.397
789.2264, 5508.632
789.7085, 5510.917
790.1906, 5515.190
790.6727, 5522.458
791.1548, 5528.776
791.6370, 5528.835
792.1191, 5523.748
792.6012, 5521.451
793.0833, 5525.088
793.5654, 5529.173
794.0475, 5532.170
794.5297, 5534.206
795.0118, 5536.236
795.4939, 5537.524
795.9760, 5535.225
796.4581, 5527.407
796.9402, 5517.618
797.4224, 5510.809
797.9045, 5506.727
798.3866, 5504.416
798.8687, 5504.025
799.3508, 5502.950
799.8329, 5499.144
800.3151, 5495.052
800.7972, 5495.995
801.2793, 5504.917
801.7614, 5507.134
802.2435, 5497.298
802.7256, 5488.034
803.2078, 5481.315
803.6899, 5478.107
804.1720, 5480.606
804.6541, 5488.073
805.1362, 5495.281
805.6183, 5499.917
806.1005, 5502.541
806.5826, 5502.192
807.0647, 5500.601
807.5468, 5503.455
808.0289, 5510.864
808.5110, 5513.795
808.9932, 5505.080
809.4753, 5490.101
809.9574, 5483.867
810.4395, 5489.102
810.9216, 5490.378
811.4037, 5484.208
811.8859, 5478.593
812.3680, 5479.331
812.8501, 5482.170
813.3322, 5479.572
813.8143, 5469.687
814.2964, 5465.819
814.7786, 5478.690
815.2607, 5490.198
815.7428, 5486.152
816.2249, 5475.843
816.7070, 5474.069
817.1891, 5482.397
817.6713, 5490.110
818.1534, 5488.393
818.6355, 5481.980
819.1176, 5480.736
819.5997, 5483.720
820.0818, 5482.797
820.5640, 5475.970
821.0461, 5470.475
821.5282, 5472.463
822.0103, 5478.271
822.4924, 5476.255
822.9745, 5459.263
823.4567, 5450.376
823.9388, 5457.083
824.4209, 5463.249
824.9030, 5461.515
825.3851, 5456.917
825.8672, 5456.859
826.3494, 5462.307
826.8315, 5465.984
827.3136, 5462.308
827.7957, 5457.658
828.2778, 5457.490
828.7599, 5460.280
829.2421, 5463.588
829.7242, 5466.651
830.2063, 5468.852
830.6884, 5469.652
831.1705, 5469.445
831.6526, 5469.438
832.1348, 5469.659
832.6169, 5467.945
833.0990, 5463.347
833.5811, 5458.771
834.0632, 5455.622
834.5453, 5453.739
835.0275, 5453.106
835.5096, 5454.844
835.9917, 5454.172
836.4738, 5446.864
836.9559, 5442.017
837.4380, 5445.627
837.9202, 5451.810
838.4023, 5454.825
838.8844, 5453.606
839.3665, 5448.497
839.8486, 5435.405
840.3307, 5423.922
840.8129, 5427.499
841.2950, 5438.736
841.7771, 5442.604
842.2592, 5437.484
842.7413, 5429.417
843.2234, 5421.895
843.7056, 5415.953
844.1877, 5414.581
844.6698, 5418.338
845.1519, 5419.385
845.6340, 5416.497
846.1161, 5413.659
846.5983, 5412.506
847.0804, 5412.232
847.5625, 5412.432
848.0446, 5413.309
848.5267, 5410.746
849.0089, 5398.933
849.4910, 5390.897
849.9731, 5391.806
850.4552, 5396.813
850.9373, 5404.377
851.4194, 5412.002
851.9016, 5413.632
852.3837, 5405.187
852.8658, 5395.499
853.3479, 5392.558
853.8300, 5393.868
854.3121, 5395.854
854.7943, 5397.921
855.2764, 5399.317
855.7585, 5399.708
856.2406, 5399.183
856.7227, 5397.766
857.2048, 5395.499
857.6870, 5392.674
858.1691, 5388.693
858.6512, 5386.821
859.1333, 5389.570
859.6154, 5391.826
860.0975, 5387.593
860.5797, 5378.631
861.0618, 5374.955
861.5439, 5380.252
862.0260, 5384.558
862.5081, 5386.487
862.9902, 5387.555
863.4724, 5390.405
863.9545, 5392.370
864.4366, 5387.162
864.9187, 5373.579
865.4008, 5363.359
865.8829, 5367.189
866.3651, 5376.063
866.8472, 5381.560
867.3293, 5383.407
867.8114, 5379.802
868.2935, 5371.281
868.7756, 5364.652
869.2578, 5365.539
869.7399, 5370.391
870.2220, 5370.000
870.7041, 5364.030
871.1862, 5358.966
871.6683, 5354.863
872.1505, 5353.604
872.6326, 5357.550
873.1147, 5363.249
873.5968, 5364.322
874.0789, 5359.101
874.5610, 5358.238
875.0432, 5369.272
875.5253, 5374.540
876.0074, 5365.063
876.4895, 5352.248
876.9716, 5345.911
877.4537, 5345.112
877.9359, 5342.819
878.4180, 5335.274
878.9001, 5329.319
879.3822, 5330.127
879.8643, 5334.042
880.3464, 5338.560
880.8286, 5342.337
881.3107, 5342.449
881.7928, 5338.086
882.2749, 5333.089
882.7570, 5332.369
883.2391, 5333.925
883.7213, 5329.589
884.2034, 5320.013
884.6855, 5318.026
885.1676, 5327.835
885.6497, 5336.489
886.1318, 5333.380
886.6140, 5321.908
887.0961, 5313.520
887.5782, 5308.993
888.0603, 5305.416
888.5424, 5301.377
889.0245, 5300.190
889.5067, 5308.167
889.9888, 5316.625
890.4709, 5313.224
890.9530, 5297.664
891.4351, 5287.578
891.9172, 5290.524
892.3994, 5294.613
892.8815, 5295.682
893.3636, 5295.125
893.8457, 5294.762
894.3278, 5294.131
894.8099, 5291.015
895.2921, 5284.206
895.7742, 5277.209
896.2563, 5273.131
896.7384, 5271.222
897.2205, 5271.439
897.7026, 5272.838
898.1848, 5271.163
898.6669, 5265.311
899.1490, 5260.534
899.6311, 5262.313
900.1132, 5268.735
900.5953, 5272.731
901.0775, 5274.216
901.5596, 5274.076
902.0417, 5272.203
902.5238, 5269.240
903.0059, 5265.024
903.4880, 5260.442
903.9702, 5257.241
904.4523, 5255.419
904.9344, 5254.856
905.4165, 5257.516
905.8986, 5258.804
906.3807, 5254.894
906.8629, 5251.394
907.3450, 5255.261
907.8271, 5264.263
908.3092, 5268.242
908.7913, 5262.289
909.2734, 5255.886
909.7556, 5253.463
910.2377, 5252.255
910.7198, 5249.033
911.2019, 5245.320
911.6840, 5245.019
912.1661, 5248.997
912.6483, 5253.406
913.1304, 5256.221
913.6125, 5256.500
914.0946, 5250.987
914.5767, 5241.648
915.0588, 5234.624
915.5410, 5230.943
916.0231, 5229.109
916.5052, 5228.139
916.9873, 5228.577
917.4694, 5232.689
917.9515, 5240.783
918.4337, 5242.753
918.9158, 5236.816
919.3979, 5233.074
919.8800, 5236.213
920.3621, 5240.302
920.8442, 5238.912
921.3264, 5232.570
921.8085, 5226.837
922.2906, 5219.438
922.7727, 5216.443
923.2548, 5223.289
923.7369, 5228.805
924.2191, 5225.750
924.7012, 5218.992
925.1833, 5216.259
925.6654, 5218.595
926.1475, 5220.583
926.6296, 5220.260
927.1118, 5219.635
927.5939, 5220.409
928.0760, 5220.935
928.5581, 5218.659
929.0402, 5214.357
929.5223, 5211.265
930.0045, 5210.903
930.4866, 5211.205
930.9687, 5210.543
931.4508, 5209.154
931.9329, 5207.056
932.4150, 5204.574
932.8972, 5202.614
933.3793, 5201.432
933.8614, 5200.631
934.3435, 5199.688
934.8256, 5199.333
935.3077, 5202.750
935.7899, 5209.403
936.2720, 5210.425
936.7541, 5204.370
937.2362, 5198.568
937.7183, 5196.472
938.2004, 5197.141
938.6826, 5199.951
939.1647, 5205.066
939.6468, 5204.401
940.1289, 5195.479
940.6110, 5186.600
941.0931, 5176.905
941.5753, 5170.921
942.0574, 5175.531
942.5395, 5185.618
943.0216, 5186.734
943.5037, 5175.091
943.9858, 5166.116
944.4680, 5160.932
944.9501, 5158.779
945.4322, 5162.147
945.9143, 5166.435
946.3964, 5166.027
946.8785, 5161.822
947.3607, 5160.318
947.8428, 5165.911
948.3249, 5169.627
948.8070, 5163.601
949.2891, 5156.042
949.7712, 5154.826
950.2534, 5158.108
950.7355, 5162.208
951.2176, 5165.589
951.6997, 5165.978
952.1818, 5159.483
952.6639, 5151.848
953.1461, 5152.237
953.6282, 5157.272
954.1103, 5158.993
954.5924, 5156.853
955.0745, 5154.367
955.5566, 5153.269
956.0388, 5152.714
956.5209, 5151.158
957.0030, 5149.170
957.4851, 5150.578
957.9672, 5155.369
958.4493, 5156.319
958.9315, 5151.286
959.4136, 5146.650
959.8957, 5147.477
960.3778, 5151.226
960.8599, 5151.258
961.3420, 5146.815
961.8242, 5142.438
962.3063, 5138.307
962.7884, 5133.609
963.2705, 5126.764
963.7526, 5120.925
964.2347, 5118.747
964.7169, 5120.254
965.1990, 5125.782
965.6811, 5145.155
966.1632, 5153.312
966.6453, 5140.912
967.1274, 5128.002
967.6096, 5123.470
968.0917, 5122.844
968.5738, 5120.134
969.0559, 5115.034
969.5380, 5111.417
970.0201, 5110.633
970.5023, 5110.880
970.9844, 5113.278
971.4665, 5114.862
971.9486, 5110.938
972.4307, 5105.045
972.9128, 5105.689
973.3950, 5114.882
973.8771, 5121.737
974.3592, 5118.073
974.8413, 5111.106
975.3234, 5105.980
975.8055, 5102.313
976.2877, 5099.998
976.7698, 5098.479
977.2519, 5096.165
977.7340, 5092.273
978.2161, 5088.358
978.6982, 5084.839
979.1804, 5083.105
979.6625, 5088.763
980.1446, 5098.573
980.6267, 5099.833
981.1088, 5090.921
981.5909, 5083.821
982.0731, 5087.155
982.5552, 5094.546
983.0373, 5093.309
983.5194, 5085.075
984.0015, 5082.715
984.4836, 5086.576
984.9658, 5087.454
985.4479, 5082.011
985.9300, 5077.235
986.4121, 5080.143
986.8942, 5087.930
987.3763, 5089.548
987.8585, 5083.295
988.3406, 5082.804
988.8227, 5090.811
989.3048, 5097.600
989.7869, 5099.386
990.2690, 5097.745
990.7512, 5094.044
991.2333, 5088.461
991.7154, 5083.354
992.1975, 5078.344
992.6796, 5074.536
993.1617, 5071.501
993.6439, 5070.408
994.1260, 5074.052
994.6081, 5078.661
995.0902, 5078.298
995.5723, 5072.775
996.0544, 5068.614
996.5366, 5066.876
997.0187, 5065.354
997.5008, 5062.555
997.9829, 5061.053
998.4650, 5063.560
998.9471, 5067.968
999.4293, 5071.003
999.9114, 5072.268
1000.393, 5071.499
1000.876, 5067.138
1001.358, 5062.604
1001.840, 5057.706
1002.322, 5054.651
1002.804, 5057.970
1003.286, 5064.108
1003.768, 5063.884
1004.250, 5054.352
1004.733, 5047.089
1005.215, 5049.878
1005.697, 5055.573
1006.179, 5060.650
1006.661, 5064.300
1007.143, 5065.084
1007.625, 5063.638
1008.107, 5062.232
1008.589, 5061.837
1009.072, 5061.222
1009.554, 5058.876
1010.036, 5056.120
1010.518, 5054.170
1011.000, 5053.129
1011.482, 5053.655
1011.964, 5055.320
1012.446, 5055.571
1012.929, 5052.729
1013.411, 5050.747
1013.893, 5057.674
1014.375, 5067.279
1014.857, 5064.545
1015.339, 5053.086
1015.821, 5046.644
1016.303, 5047.993
1016.785, 5051.271
1017.268, 5052.709
1017.750, 5052.535
1018.232, 5050.417
1018.714, 5047.009
1019.196, 5045.395
1019.678, 5045.370
1020.160, 5044.130
1020.642, 5040.896
1021.125, 5036.754
1021.607, 5032.265
1022.089, 5028.472
1022.571, 5028.495
1023.053, 5032.039
1023.535, 5033.239
1024.017, 5031.786
1024.499, 5030.666
1024.981, 5030.865
1025.464, 5031.456
1025.946, 5031.804
1026.428, 5031.560
1026.910, 5029.102
1027.392, 5023.997
1027.874, 5020.456
1028.356, 5018.041
1028.838, 5021.167
1029.321, 5033.982
1029.803, 5044.991
1030.285, 5042.162
1030.767, 5028.616
1031.249, 5017.953
1031.731, 5009.586
1032.213, 5006.469
1032.695, 5010.161
1033.177, 5015.354
1033.660, 5020.901
1034.142, 5025.882
1034.624, 5029.425
1035.106, 5031.568
1035.588, 5032.422
1036.070, 5031.963
1036.552, 5030.255
1037.034, 5026.782
1037.516, 5022.996
1037.999, 5019.721
1038.481, 5016.016
1038.963, 5008.391
1039.445, 4998.563
1039.927, 5000.172
1040.409, 5028.731
1040.891, 5041.272
1041.373, 5026.353
1041.855, 5009.799
1042.338, 4999.546
1042.820, 4993.316
1043.302, 4988.537
1043.784, 4985.529
1044.266, 4986.708
1044.748, 4998.796
1045.230, 5003.894
1045.712, 4995.015
1046.195, 4986.316
1046.677, 4983.625
1047.159, 4983.742
1047.641, 4983.212
1048.123, 4982.109
1048.605, 4982.077
1049.087, 4984.328
1049.569, 4985.722
1050.052, 4984.927
1050.534, 4984.169
1051.016, 4986.241
1051.498, 4987.595
1051.980, 4981.814
1052.462, 4970.771
1052.944, 4966.811
1053.426, 4976.615
1053.908, 4984.341
1054.391, 4985.792
1054.873, 4985.059
1055.355, 4981.823
1055.837, 4979.186
1056.319, 4982.885
1056.801, 4990.940
1057.283, 4991.872
1057.765, 4978.288
1058.248, 4968.755
1058.730, 4971.290
1059.212, 4976.342
1059.694, 4980.819
1060.176, 4983.389
1060.658, 4982.063
1061.140, 4977.659
1061.622, 4973.817
1062.104, 4971.482
1062.587, 4969.932
1063.069, 4969.442
1063.551, 4969.068
1064.033, 4968.620
1064.515, 4967.725
1064.997, 4964.802
1065.479, 4961.000
1065.961, 4960.841
1066.443, 4966.932
1066.926, 4971.927
1067.408, 4971.494
1067.890, 4970.585
1068.372, 4973.820
1068.854, 4976.958
1069.336, 4974.452
1069.818, 4967.292
1070.300, 4960.168
1070.782, 4954.131
1071.265, 4949.466
1071.747, 4945.991
1072.229, 4944.233
1072.711, 4944.621
1073.193, 4946.808
1073.675, 4951.821
1074.157, 4958.127
1074.639, 4962.351
1075.122, 4963.772
1075.604, 4961.346
1076.086, 4950.318
1076.568, 4940.422
1077.050, 4938.775
1077.532, 4940.017
1078.014, 4938.038
1078.496, 4934.147
1078.979, 4933.448
1079.461, 4937.421
1079.943, 4940.986
1080.425, 4942.897
1080.907, 4942.436
1081.389, 4936.194
1081.871, 4929.959
1082.353, 4930.359
1082.835, 4934.848
1083.318, 4937.266
1083.800, 4936.224
1084.282, 4934.366
1084.764, 4931.931
1085.246, 4930.120
1085.728, 4930.818
1086.210, 4931.216
1086.692, 4926.884
1087.175, 4921.271
1087.657, 4921.692
1088.139, 4928.949
1088.621, 4934.599
1089.103, 4933.874
1089.585, 4932.831
1090.067, 4934.644
1090.549, 4936.524
1091.031, 4937.118
1091.514, 4935.881
1091.996, 4931.016
1092.478, 4923.104
1092.960, 4917.737
1093.442, 4917.581
1093.924, 4918.705
1094.406, 4921.672
1094.888, 4923.258
1095.370, 4920.215
1095.853, 4915.333
1096.335, 4912.278
1096.817, 4911.052
1097.299, 4909.468
1097.781, 4907.404
1098.263, 4903.933
1098.745, 4894.362
1099.227, 4888.594
1099.709, 4896.962
1100.192, 4907.906
1100.674, 4908.061
1101.156, 4899.701
1101.638, 4893.357
1102.120, 4890.449
1102.602, 4891.639
1103.084, 4902.960
1103.566, 4910.737
1104.049, 4906.076
1104.531, 4898.667
1105.013, 4896.994
1105.495, 4899.110
1105.977, 4898.641
1106.459, 4893.886
1106.941, 4892.869
1107.423, 4900.947
1107.906, 4907.305
1108.388, 4909.864
1108.870, 4909.077
1109.352, 4901.979
1109.834, 4893.236
1110.316, 4892.060
1110.798, 4899.482
1111.280, 4902.358
1111.762, 4896.928
1112.245, 4891.165
1112.727, 4884.780
1113.209, 4879.750
1113.691, 4877.047
1114.173, 4876.242
1114.655, 4877.560
1115.137, 4880.712
1115.619, 4882.051
1116.102, 4881.332
1116.584, 4879.050
1117.066, 4873.274
1117.548, 4868.687
1118.030, 4866.436
1118.512, 4866.497
1118.994, 4869.508
1119.476, 4874.725
1119.958, 4879.430
1120.441, 4884.825
1120.923, 4885.469
1121.405, 4878.253
1121.887, 4873.236
1122.369, 4873.694
1122.851, 4875.813
1123.333, 4877.240
1123.815, 4877.942
1124.297, 4877.638
1124.780, 4876.164
1125.262, 4876.222
1125.744, 4878.497
1126.226, 4880.038
1126.708, 4880.860
1127.190, 4878.578
1127.672, 4870.445
1128.154, 4862.185
1128.636, 4862.886
1129.119, 4871.105
1129.601, 4874.539
1130.083, 4872.708
1130.565, 4871.446
1131.047, 4871.485
1131.529, 4869.881
1132.011, 4865.010
1132.493, 4861.399
1132.976, 4864.106
1133.458, 4870.593
1133.940, 4872.929
1134.422, 4871.661
1134.904, 4874.953
1135.386, 4882.749
1135.868, 4886.038
1136.350, 4882.431
1136.833, 4875.766
1137.315, 4868.350
1137.797, 4862.065
1138.279, 4860.107
1138.761, 4861.904
1139.243, 4867.302
1139.725, 4874.757
1140.207, 4877.041
1140.689, 4873.737
1141.172, 4870.931
1141.654, 4871.483
1142.136, 4871.223
1142.618, 4863.920
1143.100, 4854.977
1143.582, 4853.808
1144.064, 4857.846
1144.546, 4863.396
1145.029, 4868.858
1145.511, 4871.250
1145.993, 4869.903
1146.475, 4867.023
1146.957, 4863.653
1147.439, 4860.490
1147.921, 4857.203
1148.403, 4855.350
1148.885, 4858.429
1149.368, 4863.601
1149.850, 4867.376
1150.332, 4868.123
1150.814, 4861.740
1151.296, 4844.588
1151.778, 4832.469
1152.260, 4839.833
1152.742, 4849.784
1153.224, 4850.839
1153.707, 4848.554
1154.189, 4848.072
1154.671, 4849.891
1155.153, 4855.093
1155.635, 4864.008
1156.117, 4866.755
1156.599, 4853.049
1157.081, 4842.976
1157.563, 4845.290
1158.046, 4850.336
1158.528, 4853.749
1159.010, 4855.280
1159.492, 4853.862
1159.974, 4850.160
1160.456, 4849.650
1160.938, 4857.170
1161.420, 4859.231
1161.903, 4848.354
1162.385, 4841.935
1162.867, 4848.202
1163.349, 4856.519
1163.831, 4859.512
1164.313, 4857.961
1164.795, 4852.913
1165.277, 4843.279
1165.760, 4839.532
1166.242, 4843.649
1166.724, 4847.721
1167.206, 4851.334
1167.688, 4851.610
1168.170, 4845.472
1168.652, 4840.185
1169.134, 4846.425
1169.616, 4860.396
1170.099, 4863.146
1170.581, 4854.530
1171.063, 4846.493
1171.545, 4839.719
1172.027, 4838.172
1172.509, 4843.097
1172.991, 4849.413
1173.473, 4853.373
1173.956, 4855.756
1174.438, 4858.045
1174.920, 4859.823
1175.402, 4859.487
1175.884, 4857.440
1176.366, 4854.926
1176.848, 4852.280
1177.330, 4849.595
1177.813, 4846.985
1178.295, 4845.885
1178.777, 4848.178
1179.259, 4851.752
1179.741, 4856.173
1180.223, 4858.636
1180.705, 4851.992
1181.187, 4841.203
1181.669, 4837.905
1182.151, 4842.912
1182.634, 4846.994
1183.116, 4845.697
1183.598, 4843.904
1184.080, 4845.074
1184.562, 4845.979
1185.044, 4844.343
1185.526, 4841.414
1186.008, 4837.143
1186.490, 4833.084
1186.973, 4832.444
1187.455, 4835.835
1187.937, 4840.757
1188.419, 4850.540
1188.901, 4856.118
1189.383, 4852.784
1189.865, 4848.343
1190.347, 4845.407
1190.830, 4844.412
1191.312, 4846.953
1191.794, 4851.901
1192.276, 4853.732
1192.758, 4852.139
1193.240, 4848.102
1193.722, 4840.133
1194.204, 4834.195
1194.687, 4831.690
1195.169, 4831.458
1195.651, 4832.937
1196.133, 4836.016
1196.615, 4841.544
1197.097, 4848.099
1197.579, 4845.417
1198.061, 4834.122
1198.543, 4826.939
1199.026, 4824.796
1199.508, 4821.622
1199.990, 4815.616
1200.472, 4813.700
1200.954, 4822.425
1201.436, 4833.047
1201.918, 4831.227
1202.400, 4822.411
1202.883, 4815.330
1203.365, 4811.125
1203.847, 4813.600
1204.329, 4820.729
1204.811, 4824.521
1205.293, 4822.060
1205.775, 4817.415
1206.257, 4811.295
1206.740, 4806.890
1207.222, 4807.719
1207.704, 4810.154
1208.186, 4811.139
1208.668, 4811.384
1209.150, 4812.387
1209.632, 4814.106
1210.114, 4815.506
1210.596, 4816.657
1211.078, 4816.486
1211.561, 4814.156
1212.043, 4811.300
1212.525, 4806.273
1213.007, 4803.166
1213.489, 4805.921
1213.971, 4811.074
1214.453, 4813.392
1214.935, 4812.956
1215.417, 4811.630
1215.900, 4808.672
1216.382, 4808.090
1216.864, 4811.358
1217.346, 4810.896
1217.828, 4803.656
1218.310, 4795.616
1218.792, 4791.099
1219.274, 4789.409
1219.757, 4790.357
1220.239, 4792.761
1220.721, 4789.336
1221.203, 4781.833
1221.685, 4779.396
1222.167, 4782.265
1222.649, 4785.026
1223.131, 4785.685
1223.614, 4785.105
1224.096, 4783.702
1224.578, 4782.055
1225.060, 4781.417
1225.542, 4780.315
1226.024, 4774.581
1226.506, 4768.614
1226.988, 4769.833
1227.470, 4777.164
1227.953, 4786.382
1228.435, 4796.549
1228.917, 4799.938
1229.399, 4787.102
1229.881, 4776.289
1230.363, 4772.731
1230.845, 4773.636
1231.327, 4781.380
1231.810, 4789.674
1232.292, 4790.384
1232.774, 4785.338
1233.256, 4782.104
1233.738, 4781.627
1234.220, 4778.257
1234.702, 4769.585
1235.184, 4766.824
1235.667, 4774.172
1236.149, 4778.789
1236.631, 4773.416
1237.113, 4765.500
1237.595, 4764.391
1238.077, 4766.857
1238.559, 4761.526
1239.041, 4750.805
1239.523, 4747.581
1240.005, 4750.985
1240.488, 4754.938
1240.970, 4757.471
1241.452, 4755.229
1241.934, 4746.455
1242.416, 4740.516
1242.898, 4750.501
1243.380, 4762.289
1243.862, 4760.487
1244.344, 4753.752
1244.827, 4750.542
1245.309, 4750.393
1245.791, 4752.124
1246.273, 4754.713
1246.755, 4754.927
1247.237, 4750.906
1247.719, 4748.071
1248.201, 4749.816
1248.684, 4749.835
1249.166, 4743.118
1249.648, 4737.891
1250.130, 4739.140
1250.612, 4744.237
1251.094, 4750.622
1251.576, 4757.642
1252.058, 4761.106
1252.541, 4761.064
1253.023, 4755.550
1253.505, 4743.519
1253.987, 4739.093
1254.469, 4745.683
1254.951, 4753.138
1255.433, 4755.732
1255.915, 4754.203
1256.397, 4747.762
1256.880, 4740.141
1257.362, 4739.812
1257.844, 4743.156
1258.326, 4742.921
1258.808, 4740.169
1259.290, 4738.623
1259.772, 4738.899
1260.254, 4739.859
1260.737, 4741.194
1261.219, 4742.032
1261.701, 4742.416
1262.183, 4741.555
1262.665, 4737.091
1263.147, 4733.341
1263.629, 4734.085
1264.111, 4737.042
1264.594, 4739.255
1265.076, 4740.593
1265.558, 4740.991
1266.040, 4739.823
1266.522, 4740.512
1267.004, 4745.265
1267.486, 4742.752
1267.968, 4728.643
1268.450, 4717.681
1268.932, 4717.446
1269.415, 4723.503
1269.897, 4732.178
1270.379, 4740.549
1270.861, 4740.667
1271.343, 4735.006
1271.825, 4729.005
1272.307, 4724.392
1272.789, 4726.430
1273.271, 4734.219
1273.754, 4741.380
1274.236, 4745.442
1274.718, 4746.610
1275.200, 4743.486
1275.682, 4740.009
1276.164, 4739.239
1276.646, 4738.099
1277.128, 4732.602
1277.611, 4726.951
1278.093, 4727.105
1278.575, 4731.252
1279.057, 4732.498
1279.539, 4730.346
1280.021, 4729.600
1280.503, 4729.250
1280.985, 4730.515
1281.468, 4735.073
1281.950, 4741.446
1282.432, 4749.542
1282.914, 4755.625
1283.396, 4756.343
1283.878, 4754.801
1284.360, 4757.252
1284.842, 4759.640
1285.324, 4751.376
##END=



