##NAMES=Mimetite
##RRUFFID=R050527
##IDEAL CHEMISTRY=Pb^2+^_5_(As^5+^O_4_)_3_Cl
##LOCALITY=Tsumeb mine, Tsumeb, Otavi District, Oshikoto, Namibia
##OWNER=RRUFF
##SOURCE=University of Arizona Mineral Museum
##DESCRIPTION=Yellow hexagonal prisms, monoclinic polytype
##STATUS=The identification of this mineral has been confirmed by X-ray diffraction and chemical analysis
##URL=rruff.info/R050527
##MEASURED CHEMISTRY=Pb_5.00_(As_1.00_O_4_)_3_Cl_1.00_
145.4098, 0.0000000E+00
145.8919, 0.5523070
146.3740, 0.8032840
146.8561, 0.1616210
147.3382, 2.110535
147.8204, 4.891663
148.3025, 8.648682
148.7846, 13.33508
149.2667, 18.68872
149.7488, 24.40466
150.2309, 30.36517
150.7131, 36.76440
151.1952, 43.83533
151.6773, 51.37653
152.1594, 58.65741
152.6415, 65.02716
153.1236, 71.34515
153.6058, 79.00122
154.0879, 88.28583
154.5700, 97.91827
155.0521, 106.7620
155.5342, 114.7455
156.0163, 122.9564
156.4985, 131.9459
156.9806, 141.1873
157.4627, 150.2571
157.9448, 159.0287
158.4269, 167.6054
158.9090, 175.9871
159.3912, 183.6895
159.8733, 192.4754
160.3554, 203.7710
160.8375, 215.7347
161.3196, 226.7755
161.8017, 236.1591
162.2839, 244.3933
162.7660, 252.8389
163.2481, 261.1286
163.7302, 270.2635
164.2123, 281.3702
164.6944, 293.0770
165.1766, 303.6085
165.6587, 311.9540
166.1408, 318.4315
166.6229, 325.2744
167.1050, 332.4031
167.5871, 339.9315
168.0693, 349.1382
168.5514, 358.7599
169.0335, 366.4023
169.5156, 370.3740
169.9977, 370.8448
170.4798, 371.2232
170.9620, 371.3110
171.4441, 371.4960
171.9262, 372.4097
172.4083, 373.9022
172.8904, 374.8294
173.3725, 374.3531
173.8547, 372.4135
174.3368, 369.9984
174.8189, 367.0034
175.3010, 363.6937
175.7831, 360.2842
176.2652, 356.7454
176.7474, 352.9491
177.2295, 348.7451
177.7116, 344.1902
178.1937, 339.5237
178.6758, 334.5079
179.1579, 329.0956
179.6401, 323.9466
180.1222, 319.3402
180.6043, 314.0110
181.0864, 307.7945
181.5685, 300.9516
182.0506, 293.9335
182.5328, 287.0508
183.0149, 280.2323
183.4970, 273.2556
183.9791, 266.2476
184.4612, 258.4212
184.9433, 249.6968
185.4255, 240.4224
185.9076, 231.2390
186.3897, 222.8666
186.8718, 215.0833
187.3539, 207.4449
187.8360, 200.3214
188.3182, 192.9130
188.8003, 184.6263
189.2824, 176.0576
189.7645, 167.8739
190.2466, 160.2878
190.7287, 152.9412
191.2109, 145.7092
191.6930, 138.5430
192.1751, 131.4400
192.6572, 124.7264
193.1393, 118.4772
193.6214, 112.4078
194.1036, 106.2324
194.5857, 99.88046
195.0678, 93.92392
195.5499, 88.48645
196.0320, 83.20020
196.5141, 77.84805
196.9963, 72.50150
197.4784, 67.35144
197.9605, 62.59415
198.4426, 58.26016
198.9247, 54.02240
199.4068, 49.82144
199.8890, 45.75510
200.3711, 41.92166
200.8532, 38.31537
201.3353, 34.83423
201.8174, 31.36087
202.2995, 27.89023
202.7817, 24.45990
203.2638, 22.05591
203.7459, 19.71179
204.2280, 17.36954
204.7101, 14.97086
205.1922, 12.87103
205.6744, 11.55713
206.1565, 10.86102
206.6386, 10.08432
207.1207, 8.968719
207.6028, 7.745575
208.0849, 6.776672
208.5671, 6.136017
209.0492, 5.499847
209.5313, 4.506378
210.0134, 3.304657
210.4955, 2.228363
210.9776, 1.327393
211.4598, 0.6367800
211.9419, 0.3056340
212.4240, 0.5903320
212.9061, 0.7094420
213.3882, 4.8645001E-02
213.8703, 1.281967
214.3525, 2.232330
214.8346, 2.250549
215.3167, 1.681030
215.7988, 1.832230
216.2809, 3.245438
216.7630, 4.573517
217.2451, 5.245377
217.7273, 5.453461
218.2094, 5.537720
218.6915, 5.679260
219.1736, 5.869232
219.6557, 6.031235
220.1378, 6.142883
220.6200, 6.237946
221.1021, 6.423813
221.5842, 6.590256
222.0663, 6.525009
222.5484, 6.000336
223.0305, 5.112152
223.5127, 4.803497
223.9948, 5.860779
224.4769, 6.684464
224.9590, 6.811691
225.4411, 6.491364
225.9232, 6.181091
226.4054, 6.207321
226.8875, 6.517944
227.3696, 6.614517
227.8517, 6.258682
228.3338, 5.915421
228.8159, 5.700775
229.2981, 5.563721
229.7802, 5.401657
230.2623, 5.160324
230.7444, 4.837555
231.2265, 4.376373
231.7086, 3.291061
232.1908, 2.601959
232.6729, 2.845428
233.1550, 3.671677
233.6371, 4.445145
234.1192, 4.808273
234.6013, 4.767838
235.0835, 4.307205
235.5656, 2.960144
236.0477, 1.800034
236.5298, 1.327759
237.0119, 1.287537
237.4940, 1.101089
237.9762, 0.4257970
238.4583, 0.6236720
238.9404, 1.496994
239.4225, 2.334961
239.9046, 2.886078
240.3867, 2.857437
240.8689, 2.457291
241.3510, 2.196899
241.8331, 2.329315
242.3152, 2.778915
242.7973, 3.316040
243.2794, 4.147552
243.7616, 4.736084
244.2437, 4.661713
244.7258, 4.128738
245.2079, 3.747070
245.6900, 3.775375
246.1721, 4.105530
246.6543, 4.547623
247.1364, 5.245667
247.6185, 5.681229
248.1006, 5.477402
248.5827, 4.772324
249.0648, 3.980148
249.5470, 3.041443
250.0291, 2.337662
250.5112, 2.513947
250.9933, 3.729568
251.4754, 4.768173
251.9576, 4.779160
252.4397, 3.987152
252.9218, 3.360794
253.4039, 3.127670
253.8860, 3.195267
254.3681, 3.510788
254.8503, 4.074387
255.3324, 4.524811
255.8145, 4.565201
256.2966, 4.259888
256.7787, 3.986526
257.2608, 3.742737
257.7430, 3.656235
258.2251, 3.905746
258.7072, 4.433167
259.1893, 4.840500
259.6714, 4.769333
260.1535, 4.320816
260.6357, 4.071869
261.1178, 4.200119
261.5999, 4.360825
262.0820, 4.242767
262.5641, 3.948959
263.0462, 3.798828
263.5284, 4.177460
264.0105, 4.957489
264.4926, 5.316818
264.9747, 5.004883
265.4568, 4.577957
265.9389, 4.196411
266.4211, 3.916626
266.9032, 3.858688
267.3853, 4.214127
267.8674, 4.813278
268.3495, 4.939880
268.8316, 4.294998
269.3138, 3.619598
269.7959, 3.074356
270.2780, 2.748413
270.7601, 2.743088
271.2422, 3.130814
271.7243, 3.726578
272.2065, 3.989731
272.6886, 3.712967
273.1707, 3.645325
273.6528, 4.039474
274.1349, 4.557571
274.6170, 4.860840
275.0992, 4.821991
275.5813, 4.654724
276.0634, 4.823303
276.5455, 5.482101
277.0276, 6.210312
277.5097, 6.768692
277.9919, 7.424133
278.4740, 8.457397
278.9561, 9.972244
279.4382, 11.76759
279.9203, 13.43063
280.4024, 14.54973
280.8846, 16.56564
281.3667, 20.07806
281.8488, 23.94031
282.3309, 27.27060
282.8130, 29.93336
283.2951, 32.54344
283.7773, 35.99495
284.2594, 40.57143
284.7415, 45.23659
285.2236, 49.81134
285.7057, 54.61926
286.1878, 59.79295
286.6700, 65.34644
287.1521, 71.31877
287.6342, 77.84441
288.1163, 84.97467
288.5984, 92.31709
289.0805, 99.30170
289.5627, 106.9871
290.0448, 115.8975
290.5269, 125.9199
291.0090, 136.5842
291.4911, 147.5768
291.9732, 158.9270
292.4554, 170.2953
292.9375, 181.1745
293.4196, 192.7179
293.9017, 205.3017
294.3838, 218.7988
294.8659, 233.0060
295.3481, 247.8528
295.8302, 263.3616
296.3123, 278.5617
296.7944, 292.7815
297.2765, 307.4090
297.7586, 322.7081
298.2408, 338.5273
298.7229, 354.6098
299.2050, 370.7873
299.6871, 386.9482
300.1692, 402.4971
300.6513, 416.4317
301.1335, 430.8512
301.6156, 446.3298
302.0977, 462.0704
302.5798, 477.4116
303.0619, 492.0253
303.5440, 505.8695
304.0262, 519.0530
304.5083, 531.1447
304.9904, 542.9966
305.4725, 554.3452
305.9546, 565.6104
306.4367, 577.2444
306.9189, 589.2960
307.4010, 601.5096
307.8831, 613.6334
308.3652, 626.1282
308.8473, 637.1583
309.3294, 646.7319
309.8116, 655.1804
310.2937, 662.8484
310.7758, 669.6572
311.2579, 675.1641
311.7400, 679.0150
312.2221, 681.4090
312.7043, 680.6441
313.1864, 676.9556
313.6685, 670.4568
314.1506, 660.2181
314.6327, 647.0979
315.1148, 632.9130
315.5970, 619.0309
316.0791, 605.3568
316.5612, 590.5316
317.0433, 573.4129
317.5254, 556.3113
318.0075, 539.0139
318.4897, 522.2199
318.9718, 506.7574
319.4539, 493.0335
319.9360, 481.1028
320.4181, 471.0515
320.9002, 464.1727
321.3824, 457.8898
321.8645, 451.3568
322.3466, 445.6866
322.8287, 442.1103
323.3108, 441.0159
323.7929, 441.5892
324.2751, 442.4382
324.7572, 443.2306
325.2393, 445.0741
325.7214, 448.0888
326.2035, 451.9091
326.6856, 456.3928
327.1678, 461.4684
327.6499, 467.0963
328.1320, 473.3677
328.6141, 480.5631
329.0962, 487.0555
329.5783, 492.2719
330.0605, 497.4437
330.5426, 503.5427
331.0247, 510.1018
331.5068, 515.7852
331.9889, 519.5343
332.4710, 521.4588
332.9532, 523.3276
333.4353, 526.1397
333.9174, 527.7852
334.3995, 527.7833
334.8816, 526.3682
335.3637, 523.7687
335.8459, 520.0989
336.3280, 515.5696
336.8101, 510.9518
337.2922, 507.0032
337.7743, 501.6810
338.2564, 495.0229
338.7386, 486.9505
339.2206, 477.3093
339.7028, 466.0648
340.1849, 453.5959
340.6670, 440.3389
341.1491, 426.0516
341.6312, 411.6281
342.1133, 397.1067
342.5955, 382.5165
343.0776, 367.9431
343.5597, 353.3367
344.0418, 338.5435
344.5239, 323.4853
345.0060, 308.1893
345.4882, 292.1517
345.9703, 273.4852
346.4524, 255.9108
346.9345, 240.9684
347.4166, 227.8029
347.8987, 214.7177
348.3809, 200.6822
348.8630, 186.0752
349.3451, 172.7893
349.8272, 161.4890
350.3093, 150.3639
350.7914, 138.6888
351.2736, 127.1469
351.7557, 116.5876
352.2378, 107.2623
352.7199, 98.65689
353.2020, 89.82657
353.6841, 80.31311
354.1663, 72.01389
354.6484, 65.97339
355.1305, 60.51395
355.6126, 54.56366
356.0947, 48.13513
356.5768, 42.14346
357.0590, 37.68112
357.5411, 34.84604
358.0232, 31.66156
358.5053, 27.59558
358.9874, 23.79022
359.4695, 20.67941
359.9517, 18.18427
360.4338, 16.13510
360.9159, 14.49268
361.3980, 13.18884
361.8801, 11.94031
362.3622, 10.58838
362.8444, 9.682373
363.3265, 9.494080
363.8086, 9.769714
364.2907, 10.26154
364.7728, 10.88632
365.2549, 11.76144
365.7371, 13.09735
366.2192, 14.93942
366.7013, 16.85806
367.1834, 18.85541
367.6655, 20.81552
368.1476, 22.69034
368.6298, 24.47369
369.1119, 26.09125
369.5940, 27.58478
370.0761, 28.89639
370.5582, 29.72025
371.0403, 29.98605
371.5225, 29.81772
372.0046, 29.43695
372.4867, 28.74261
372.9688, 27.38965
373.4509, 24.84729
373.9330, 21.82956
374.4152, 19.43112
374.8973, 17.72955
375.3794, 16.06488
375.8615, 13.90479
376.3436, 11.71292
376.8257, 10.20428
377.3079, 9.605103
377.7900, 9.277069
378.2721, 8.640289
378.7542, 7.842804
379.2363, 7.535492
379.7184, 7.915131
380.2006, 8.831238
380.6827, 10.15576
381.1648, 11.86203
381.6469, 13.74121
382.1290, 15.63010
382.6111, 17.70041
383.0933, 20.20157
383.5754, 23.17615
384.0575, 26.45514
384.5396, 29.97287
385.0217, 33.72800
385.5038, 37.64920
385.9860, 41.87238
386.4681, 46.12146
386.9502, 50.20242
387.4323, 54.15143
387.9144, 58.24045
388.3965, 62.69870
388.8787, 67.18564
389.3608, 70.70151
389.8429, 72.93903
390.3250, 75.11118
390.8071, 77.39127
391.2892, 79.76794
391.7714, 82.31097
392.2535, 85.01727
392.7356, 87.62589
393.2177, 89.75400
393.6998, 91.21429
394.1819, 93.30615
394.6641, 96.41797
395.1462, 99.75145
395.6283, 102.7034
396.1104, 105.4539
396.5925, 108.5852
397.0746, 112.4949
397.5568, 117.0911
398.0389, 121.9801
398.5210, 127.2405
399.0031, 132.6838
399.4852, 138.3009
399.9673, 144.1035
400.4495, 150.1330
400.9316, 156.3779
401.4137, 162.8318
401.8958, 169.5826
402.3779, 177.0172
402.8600, 183.7079
403.3422, 189.3141
403.8243, 194.5910
404.3064, 200.0611
404.7885, 205.5907
405.2706, 210.6981
405.7527, 215.0073
406.2349, 218.5219
406.7170, 221.3476
407.1991, 223.9821
407.6812, 225.0725
408.1633, 224.0797
408.6454, 221.6637
409.1276, 218.5755
409.6097, 215.0978
410.0918, 210.8648
410.5739, 205.1948
411.0560, 197.9481
411.5381, 190.1192
412.0203, 181.4753
412.5024, 172.6089
412.9845, 163.6979
413.4666, 154.8810
413.9487, 146.4654
414.4308, 138.7004
414.9130, 131.5070
415.3951, 124.5662
415.8772, 117.6318
416.3593, 111.6733
416.8414, 107.8213
417.3235, 105.0820
417.8057, 102.1858
418.2878, 98.73306
418.7699, 95.17419
419.2520, 91.77075
419.7341, 88.56712
420.2162, 85.96672
420.6984, 84.30872
421.1805, 83.04996
421.6626, 81.66397
422.1447, 80.16412
422.6268, 78.23782
423.1089, 75.32378
423.5911, 72.11166
424.0732, 69.64964
424.5553, 68.06924
425.0374, 66.49431
425.5195, 64.31870
426.0016, 61.56587
426.4838, 58.66533
426.9659, 55.34956
427.4480, 52.16975
427.9301, 49.43562
428.4122, 47.02638
428.8943, 44.71901
429.3765, 42.41908
429.8586, 40.16431
430.3407, 38.01041
430.8228, 35.90569
431.3049, 34.06970
431.7870, 32.53212
432.2692, 31.25485
432.7513, 30.35196
433.2334, 29.73830
433.7155, 29.06071
434.1976, 28.02809
434.6797, 26.67157
435.1619, 25.42834
435.6440, 24.34091
436.1261, 23.31450
436.6082, 22.30280
437.0903, 21.37184
437.5724, 20.63390
438.0546, 20.11386
438.5367, 19.62401
439.0188, 18.84898
439.5009, 17.66920
439.9830, 16.59969
440.4651, 15.74301
440.9473, 14.90601
441.4294, 14.00288
441.9115, 13.04884
442.3936, 12.11301
442.8757, 11.26297
443.3578, 10.45345
443.8400, 9.588303
444.3221, 8.624191
444.8042, 7.685860
445.2863, 6.680183
445.7684, 5.791832
446.2505, 5.350502
446.7327, 5.461075
447.2148, 5.472389
447.6969, 4.633331
448.1790, 3.136131
448.6611, 2.070793
449.1432, 1.772667
449.6254, 1.607178
450.1075, 0.9796600
450.5896, 3.2233998E-02
451.0717, 0.8317260
451.5538, 1.522514
452.0359, 2.072517
452.5181, 2.466499
453.0002, 2.722321
453.4823, 2.931549
453.9644, 3.115219
454.4465, 3.305611
454.9286, 3.587585
455.4108, 3.969528
455.8929, 4.364014
456.3750, 4.752213
456.8571, 5.149872
457.3392, 5.662994
457.8214, 6.268654
458.3035, 6.695358
458.7856, 6.670715
459.2677, 6.189583
459.7498, 5.885254
460.2319, 5.974884
460.7141, 5.961433
461.1962, 5.530464
461.6783, 4.969490
462.1604, 4.747322
462.6425, 5.030777
463.1246, 5.485664
463.6068, 5.516876
464.0889, 4.898773
464.5710, 4.434578
465.0531, 4.215454
465.5352, 4.055847
466.0173, 3.909225
466.4995, 3.752632
466.9816, 3.559174
467.4637, 3.314079
467.9458, 3.015457
468.4279, 2.649185
468.9100, 2.179985
469.3922, 1.740547
469.8743, 1.342522
470.3564, 1.010498
470.8385, 0.8356860
471.3206, 0.8243330
471.8027, 0.7069320
472.2849, 0.1367800
472.7670, 0.7323760
473.2491, 1.290680
473.7312, 1.415497
474.2133, 1.420341
474.6954, 1.423233
475.1776, 1.478096
475.6597, 1.747269
476.1418, 2.386841
476.6239, 3.089798
477.1060, 3.634445
477.5881, 4.070206
478.0703, 4.566460
478.5524, 5.204472
479.0345, 5.832874
479.5166, 6.216911
479.9987, 6.294785
480.4808, 6.400185
480.9630, 6.539452
481.4451, 6.723766
481.9272, 6.977421
482.4093, 7.287712
482.8914, 7.612755
483.3735, 7.923737
483.8557, 8.236816
484.3378, 8.609299
484.8199, 9.112392
485.3020, 9.576271
485.7841, 9.974361
486.2662, 10.34483
486.7484, 10.73999
487.2305, 11.14887
487.7126, 11.49394
488.1947, 11.68427
488.6768, 11.73212
489.1589, 11.83228
489.6411, 11.98804
490.1232, 12.19342
490.6053, 12.40747
491.0874, 12.67585
491.5695, 13.07290
492.0516, 13.62616
492.5338, 14.22192
493.0159, 14.80611
493.4980, 15.35997
493.9801, 15.66201
494.4622, 15.54487
494.9443, 15.43106
495.4265, 15.72206
495.9086, 16.29710
496.3907, 16.84625
496.8728, 17.34190
497.3549, 17.74590
497.8370, 18.01060
498.3192, 18.15364
498.8013, 18.21402
499.2834, 18.18034
499.7655, 18.14586
500.2476, 18.25964
500.7297, 18.54259
501.2119, 18.90683
501.6940, 19.45914
502.1761, 20.00045
502.6582, 20.36650
503.1403, 20.58974
503.6224, 20.81768
504.1045, 21.14732
504.5866, 21.53240
505.0688, 21.80286
505.5509, 21.86797
506.0330, 21.95902
506.5151, 22.14094
506.9972, 22.31229
507.4793, 22.35837
507.9615, 22.30105
508.4436, 22.27895
508.9257, 22.41518
509.4078, 22.67562
509.8899, 22.85085
510.3720, 22.89640
510.8542, 22.96953
511.3363, 23.28356
511.8184, 23.57560
512.3005, 23.51006
512.7827, 22.98984
513.2648, 22.47726
513.7469, 22.37639
514.2290, 22.55481
514.7111, 22.61926
515.1932, 22.50113
515.6754, 22.31654
516.1575, 22.20743
516.6396, 22.14608
517.1217, 21.92791
517.6038, 21.34222
518.0859, 20.79306
518.5681, 20.51462
519.0502, 20.41952
519.5323, 20.37007
520.0144, 20.30391
520.4965, 20.10520
520.9786, 19.63308
521.4608, 18.84495
521.9429, 18.27818
522.4250, 17.98082
522.9071, 17.77951
523.3892, 17.73415
523.8713, 17.71094
524.3535, 17.49671
524.8356, 17.00876
525.3177, 16.40129
525.7998, 15.91733
526.2819, 15.57182
526.7640, 15.30998
527.2462, 15.16012
527.7283, 15.05921
528.2104, 15.04918
528.6925, 15.04741
529.1746, 14.86846
529.6567, 14.37186
530.1389, 13.81703
530.6210, 13.54717
531.1031, 13.52723
531.5852, 13.49669
532.0673, 13.38774
532.5494, 13.22773
533.0316, 13.03242
533.5137, 12.81505
533.9958, 12.66100
534.4779, 12.64791
534.9600, 12.64262
535.4421, 12.48465
535.9243, 12.23662
536.4064, 12.13656
536.8885, 12.30627
537.3706, 12.60663
537.8527, 12.75020
538.3348, 12.67097
538.8170, 12.56142
539.2991, 12.33990
539.7812, 12.16788
540.2633, 12.19593
540.7454, 12.35691
541.2275, 12.45814
541.7097, 12.37634
542.1918, 12.18282
542.6739, 12.05667
543.1560, 12.00260
543.6381, 11.99531
544.1202, 12.07388
544.6024, 12.16293
545.0845, 12.25169
545.5666, 12.31910
546.0487, 12.28044
546.5308, 11.97291
547.0129, 11.59214
547.4951, 11.49660
547.9772, 11.67851
548.4593, 11.78867
548.9414, 11.64142
549.4235, 11.39856
549.9056, 11.37834
550.3878, 11.62098
550.8699, 11.79000
551.3520, 11.80323
551.8341, 11.72849
552.3162, 11.53715
552.7983, 11.29120
553.2805, 11.20164
553.7626, 11.40905
554.2447, 11.78664
554.7268, 11.96569
555.2089, 11.83648
555.6910, 11.68899
556.1732, 11.48346
556.6553, 11.30161
557.1374, 11.24469
557.6195, 11.26124
558.1016, 11.19001
558.5837, 10.91489
559.0659, 10.51231
559.5480, 10.12972
560.0301, 9.748859
560.5122, 9.505936
560.9943, 9.489887
561.4764, 9.584328
561.9586, 9.698994
562.4407, 9.828793
562.9228, 9.907001
563.4049, 9.915295
563.8870, 9.854183
564.3691, 9.677223
564.8513, 9.411896
565.3334, 9.215919
565.8155, 9.176025
566.2976, 9.199127
566.7797, 9.097588
567.2618, 8.753803
567.7440, 8.570820
568.2261, 8.669174
568.7082, 8.813251
569.1903, 8.911083
569.6724, 8.943405
570.1545, 8.894337
570.6367, 8.750122
571.1188, 8.544437
571.6009, 8.339718
572.0830, 8.116646
572.5651, 7.977787
573.0472, 7.996666
573.5294, 8.043800
574.0115, 8.039307
574.4936, 8.003616
574.9757, 8.012589
575.4578, 8.170971
575.9399, 8.285667
576.4221, 8.020962
576.9042, 7.468048
577.3863, 7.202530
577.8684, 7.474270
578.3505, 7.818974
578.8326, 7.630089
579.3148, 6.852680
579.7969, 6.400043
580.2790, 6.478901
580.7611, 6.700508
581.2432, 7.023968
581.7253, 7.319942
582.2075, 7.348324
582.6896, 7.038567
583.1717, 6.629753
583.6538, 6.461494
584.1359, 6.573788
584.6180, 6.644730
585.1002, 6.603001
585.5823, 6.607594
586.0643, 6.815632
586.5464, 7.054951
587.0286, 7.043297
587.5107, 6.678654
587.9928, 6.328053
588.4749, 6.453892
588.9570, 6.903702
589.4391, 7.029835
589.9213, 6.698593
590.4034, 6.350815
590.8855, 6.302742
591.3676, 6.474133
591.8497, 6.532673
592.3318, 6.334713
592.8140, 6.269875
593.2961, 6.667046
593.7782, 7.142868
594.2603, 7.157890
594.7424, 6.729340
595.2245, 6.386055
595.7067, 6.579353
596.1888, 7.187996
596.6709, 7.525272
597.1530, 7.460232
597.6351, 7.340134
598.1172, 7.196106
598.5994, 7.039101
599.0815, 6.821503
599.5636, 6.578884
600.0457, 6.464245
600.5278, 6.647171
601.0099, 6.978027
601.4921, 7.169388
601.9742, 7.219376
602.4563, 7.229591
602.9384, 7.203228
603.4205, 7.198536
603.9026, 7.316448
604.3848, 7.557716
604.8669, 7.780396
605.3490, 8.062023
605.8311, 8.232559
606.3132, 8.104610
606.7953, 7.788197
607.2775, 7.509235
607.7596, 7.362427
608.2417, 7.319309
608.7238, 7.346870
609.2059, 7.463512
609.6880, 7.563580
610.1702, 7.646938
610.6523, 7.709732
611.1344, 7.782246
611.6165, 7.820873
612.0986, 7.724102
612.5807, 7.451477
613.0629, 7.230179
613.5450, 7.374908
614.0271, 7.737774
614.5092, 7.786930
614.9913, 7.424747
615.4734, 7.096985
615.9556, 7.115429
616.4377, 7.387287
616.9198, 7.567612
617.4019, 7.673138
617.8840, 7.662891
618.3661, 7.444511
618.8483, 7.165432
619.3304, 6.955669
619.8125, 6.818653
620.2946, 6.677124
620.7767, 6.464844
621.2589, 6.245380
621.7410, 6.258961
622.2231, 6.639454
622.7052, 6.882053
623.1873, 6.833145
623.6694, 6.689011
624.1516, 6.487534
624.6337, 6.288155
625.1158, 6.243568
625.5979, 6.510910
626.0800, 6.822029
626.5621, 6.862843
627.0443, 6.697475
627.5264, 6.576790
628.0085, 6.576122
628.4906, 6.643177
628.9727, 6.752815
629.4548, 6.903168
629.9370, 6.827286
630.4191, 6.197113
630.9012, 5.775181
631.3833, 5.891148
631.8654, 6.204094
632.3475, 6.366497
632.8297, 6.327824
633.3118, 6.239159
633.7939, 6.216682
634.2760, 6.249516
634.7581, 6.310398
635.2402, 6.409084
635.7224, 6.468163
636.2045, 6.504761
636.6866, 6.467567
637.1687, 6.215401
637.6508, 5.776787
638.1329, 5.593010
638.6151, 5.982483
639.0972, 6.523575
639.5793, 6.933430
640.0614, 7.201294
640.5435, 7.308830
641.0256, 7.231167
641.5078, 7.039383
641.9899, 6.858994
642.4720, 6.724266
642.9541, 6.621403
643.4362, 6.490757
643.9183, 6.363369
644.4005, 6.266235
644.8826, 6.217674
645.3647, 6.215202
645.8468, 6.262188
646.3289, 6.375195
646.8110, 6.629848
647.2932, 6.945740
647.7753, 7.097908
648.2574, 7.066967
648.7395, 7.026569
649.2216, 7.067692
649.7037, 7.132179
650.1859, 7.081356
650.6680, 6.845928
651.1501, 6.849022
651.6322, 7.425842
652.1143, 7.938492
652.5964, 7.892124
653.0786, 7.565346
653.5607, 7.481247
654.0428, 7.800327
654.5249, 8.233688
655.0070, 8.413734
655.4891, 8.353271
655.9713, 8.290470
656.4534, 8.127769
656.9355, 8.089489
657.4176, 8.455753
657.8997, 8.928116
658.3818, 9.133087
658.8640, 9.008381
659.3461, 8.968632
659.8282, 9.310081
660.3103, 9.701004
660.7924, 9.769688
661.2745, 9.577652
661.7567, 9.381363
662.2388, 9.282589
662.7209, 9.241409
663.2030, 9.188801
663.6851, 9.093048
664.1672, 9.165104
664.6494, 9.582672
665.1315, 9.948387
665.6136, 10.13587
666.0957, 10.17242
666.5778, 10.08590
667.0599, 9.879421
667.5421, 9.661900
668.0242, 9.507557
668.5063, 9.428555
668.9884, 9.505306
669.4705, 9.746464
669.9526, 9.824482
670.4348, 9.487450
670.9169, 8.969162
671.3990, 8.796745
671.8811, 9.146324
672.3632, 9.430782
672.8453, 9.776939
673.3275, 9.888996
673.8096, 9.437618
674.2917, 8.698647
674.7738, 8.136940
675.2559, 7.950165
675.7380, 7.945309
676.2202, 7.920563
676.7023, 7.870602
677.1844, 7.708847
677.6665, 7.374443
678.1486, 7.135296
678.6307, 7.224522
679.1129, 7.439312
679.5950, 7.356819
680.0771, 6.878761
680.5592, 6.560226
681.0413, 6.753838
681.5234, 6.963726
682.0056, 6.796665
682.4877, 6.331703
682.9698, 5.752018
683.4519, 5.142944
683.9340, 4.668846
684.4161, 4.668175
684.8983, 5.208866
685.3804, 5.373333
685.8625, 4.978081
686.3446, 4.525433
686.8267, 4.157200
687.3088, 3.885094
687.7910, 3.760345
688.2731, 3.799622
688.7552, 3.812756
689.2373, 3.733963
689.7194, 3.580448
690.2015, 3.322895
690.6837, 2.997894
691.1658, 2.705849
691.6479, 2.487713
692.1300, 2.359749
692.6121, 2.372597
693.0942, 2.560986
693.5764, 2.629990
694.0585, 2.559303
694.5406, 2.385826
695.0227, 2.064159
695.5048, 1.681934
695.9869, 1.311306
696.4691, 0.9697760
696.9512, 0.6996610
697.4333, 0.4819760
697.9154, 0.3747600
698.3975, 0.6030460
698.8796, 1.060139
699.3618, 1.158180
699.8439, 0.6463810
700.3260, 6.6220001E-03
700.8081, 0.1561930
701.2902, 0.2736210
701.7723, 0.4849210
702.2545, 0.3396220
702.7366, 0.1344180
703.2187, 0.1209830
703.7008, 0.3843990
704.1829, 0.6361240
704.6650, 0.8629460
705.1472, 1.018673
705.6293, 1.040131
706.1114, 1.002110
706.5935, 1.002327
707.0756, 1.045540
707.5577, 1.178272
708.0399, 1.428242
708.5220, 1.705421
709.0041, 1.900410
709.4862, 2.008110
709.9683, 2.187901
710.4504, 2.670418
710.9326, 2.930061
711.4147, 2.603836
711.8968, 2.213402
712.3789, 2.285301
712.8610, 2.765182
713.3431, 3.200447
713.8253, 3.310207
714.3074, 3.237221
714.7895, 3.119568
715.2716, 2.984688
715.7537, 3.093414
716.2358, 3.565964
716.7180, 3.982956
717.2001, 3.947945
717.6822, 3.544678
718.1643, 3.336288
718.6464, 3.578117
719.1285, 3.653404
719.6107, 3.230034
720.0928, 2.852417
720.5749, 2.989250
721.0570, 3.511116
721.5391, 4.007607
722.0212, 4.290543
722.5034, 4.385674
722.9855, 4.296822
723.4676, 4.043846
723.9497, 3.732834
724.4318, 3.353447
724.9139, 3.052383
725.3961, 2.938156
725.8782, 2.953629
726.3603, 2.970428
726.8424, 3.025818
727.3245, 2.981346
727.8066, 2.661888
728.2888, 2.411758
728.7709, 2.572365
729.2530, 2.895126
729.7351, 2.940781
730.2172, 2.563805
730.6993, 1.971039
731.1815, 1.789597
731.6636, 1.543480
732.1457, 0.5015560
732.6278, 0.3228610
733.1099, 0.9476390
733.5920, 0.7811740
734.0742, 1.641090
734.5563, 2.091583
735.0384, 2.525032
735.5205, 3.526749
736.0026, 3.390694
736.4847, 4.213196
736.9669, 5.204079
737.4490, 6.328690
737.9311, 7.660767
738.4132, 9.156250
738.8953, 10.55579
739.3774, 11.54639
739.8596, 12.40283
740.3417, 13.70443
740.8238, 15.43649
741.3059, 17.38978
741.7880, 19.53066
742.2701, 21.80721
742.7523, 24.17460
743.2344, 26.63296
743.7165, 29.16755
744.1986, 31.34950
744.6807, 34.16823
745.1628, 37.75751
745.6450, 42.02306
746.1271, 47.33118
746.6092, 53.22224
747.0913, 58.55942
747.5734, 62.63699
748.0555, 66.41922
748.5377, 70.75627
749.0198, 75.73637
749.5019, 81.80438
749.9840, 89.08672
750.4661, 96.47507
750.9482, 103.3250
751.4304, 109.8817
751.9125, 116.8119
752.3946, 123.9624
752.8767, 131.8164
753.3588, 141.1706
753.8409, 150.3287
754.3231, 158.2173
754.8052, 165.6523
755.2873, 173.7279
755.7694, 182.7194
756.2515, 192.3454
756.7336, 202.6596
757.2158, 213.3384
757.6979, 223.6763
758.1800, 233.7641
758.6621, 244.2586
759.1442, 255.4650
759.6263, 266.8632
760.1085, 277.9896
760.5906, 288.8005
761.0727, 299.1155
761.5548, 309.2054
762.0369, 318.3762
762.5190, 327.2084
763.0012, 334.5892
763.4833, 339.8816
763.9654, 343.0224
764.4475, 344.0569
764.9296, 342.6662
765.4117, 339.7631
765.8939, 336.1977
766.3760, 331.5917
766.8581, 324.6188
767.3402, 315.4501
767.8223, 306.6441
768.3044, 299.8450
768.7866, 294.2249
769.2687, 287.7848
769.7508, 280.1476
770.2329, 272.9318
770.7150, 265.7454
771.1971, 259.5226
771.6793, 254.5844
772.1614, 250.8924
772.6435, 248.5956
773.1256, 247.7914
773.6077, 247.5509
774.0898, 247.3681
774.5720, 247.7246
775.0541, 248.9569
775.5362, 251.0886
776.0183, 254.0686
776.5004, 257.8659
776.9825, 262.6230
777.4647, 268.6769
777.9468, 275.7601
778.4289, 282.2976
778.9110, 288.0789
779.3931, 294.6304
779.8752, 302.6485
780.3574, 311.0235
780.8395, 318.5342
781.3216, 325.5074
781.8037, 333.2193
782.2858, 342.5804
782.7679, 351.5005
783.2501, 359.3846
783.7322, 366.6821
784.2143, 373.4136
784.6964, 379.9023
785.1785, 386.8575
785.6606, 394.6558
786.1428, 402.7669
786.6249, 410.3376
787.1070, 417.6351
787.5891, 425.3976
788.0712, 433.5555
788.5533, 443.9866
789.0355, 457.4111
789.5176, 473.6571
789.9997, 492.2103
790.4818, 512.8082
790.9639, 537.5668
791.4460, 568.2423
791.9282, 600.6921
792.4103, 633.3798
792.8924, 667.9301
793.3745, 706.3806
793.8566, 748.5602
794.3387, 793.0490
794.8209, 838.6573
795.3030, 886.9739
795.7851, 939.1674
796.2672, 995.6189
796.7493, 1056.586
797.2314, 1122.353
797.7136, 1193.466
798.1957, 1270.498
798.6778, 1353.089
799.1599, 1439.378
799.6420, 1528.982
800.1241, 1624.489
800.6063, 1727.296
801.0884, 1834.340
801.5705, 1945.003
802.0526, 2058.080
802.5347, 2171.349
803.0168, 2284.822
803.4990, 2399.811
803.9811, 2520.859
804.4632, 2638.668
804.9453, 2750.721
805.4274, 2853.513
805.9095, 2944.295
806.3917, 3021.401
806.8738, 3082.688
807.3559, 3124.866
807.8380, 3152.201
808.3201, 3172.165
808.8022, 3185.102
809.2844, 3196.649
809.7665, 3208.480
810.2486, 3215.825
810.7307, 3215.746
811.2128, 3208.519
811.6949, 3195.354
812.1771, 3180.954
812.6592, 3150.160
813.1413, 3103.190
813.6234, 3040.142
814.1055, 2960.627
814.5876, 2865.502
815.0698, 2754.767
815.5519, 2629.081
816.0340, 2493.803
816.5161, 2349.919
816.9982, 2200.643
817.4803, 2047.143
817.9625, 1892.412
818.4446, 1742.765
818.9267, 1599.590
819.4088, 1466.119
819.8909, 1345.685
820.3730, 1236.981
820.8552, 1136.610
821.3373, 1044.260
821.8194, 959.5180
822.3015, 882.4662
822.7836, 812.1605
823.2657, 748.9515
823.7479, 692.1038
824.2300, 641.5392
824.7121, 598.0851
825.1942, 557.8779
825.6763, 520.1867
826.1584, 485.7802
826.6406, 455.7574
827.1227, 429.0538
827.6048, 404.2344
828.0869, 380.9450
828.5690, 359.2536
829.0511, 339.4593
829.5333, 321.2393
830.0154, 303.9871
830.4975, 287.8084
830.9796, 273.3376
831.4617, 260.6953
831.9438, 248.8141
832.4260, 236.8965
832.9081, 225.2382
833.3902, 214.6284
833.8723, 205.3478
834.3544, 196.3996
834.8365, 187.7780
835.3187, 179.5926
835.8008, 171.7397
836.2829, 164.3924
836.7650, 157.8393
837.2471, 152.1321
837.7292, 146.4849
838.2114, 140.2917
838.6935, 134.4205
839.1756, 129.6087
839.6577, 125.3599
840.1398, 120.8967
840.6219, 116.1891
841.1041, 111.9100
841.5862, 108.5631
842.0683, 105.5612
842.5504, 101.8994
843.0325, 97.71064
843.5146, 93.64774
843.9968, 89.78006
844.4789, 86.19763
844.9610, 82.97117
845.4431, 80.03111
845.9252, 77.37307
846.4073, 75.13061
846.8895, 72.71960
847.3716, 69.83422
847.8537, 67.13297
848.3358, 64.93693
848.8179, 62.81295
849.3000, 60.27348
849.7822, 57.37392
850.2643, 54.67818
850.7464, 52.50260
851.2285, 50.36115
851.7106, 47.84850
852.1927, 45.33777
852.6749, 43.21078
853.1570, 41.42081
853.6391, 39.82860
854.1212, 38.38864
854.6033, 36.95726
855.0854, 34.68244
855.5676, 33.16711
856.0497, 32.11133
856.5318, 30.77459
857.0139, 29.17283
857.4960, 26.51714
857.9781, 25.22409
858.4603, 23.38719
858.9424, 21.53089
859.4245, 20.43564
859.9066, 17.18124
860.3887, 15.93883
860.8708, 15.02496
861.3530, 14.01710
861.8351, 12.48540
862.3172, 10.76834
862.7993, 9.509254
863.2814, 8.860107
863.7635, 8.354767
864.2457, 7.869293
864.7278, 7.371452
865.2099, 6.917488
865.6920, 6.403976
866.1741, 5.599518
866.6563, 4.523628
867.1384, 3.555519
867.6205, 3.004417
868.1026, 2.671402
868.5847, 2.102287
869.0668, 1.382301
869.5490, 1.141792
870.0311, 1.488182
870.5132, 1.695068
870.9953, 1.311340
871.4774, 0.5805050
871.9595, 2.1980001E-02
872.4417, 0.4876630
872.9238, 0.9005430
873.4059, 1.351158
873.8880, 1.606491
874.3701, 1.414459
874.8522, 1.140717
875.3344, 1.099136
875.8165, 1.261375
876.2986, 1.405617
876.7807, 1.422546
877.2628, 1.505669
877.7449, 1.759178
878.2271, 2.071167
878.7092, 2.431686
879.1913, 2.743118
879.6734, 2.778465
880.1555, 2.466522
880.6376, 2.135033
881.1198, 2.114601
881.6019, 2.259499
882.0840, 2.343452
882.5661, 2.353691
883.0482, 2.207001
883.5303, 1.887825
884.0125, 1.612648
884.4946, 1.577065
884.9767, 1.700829
885.4588, 1.705673
885.9409, 1.556946
886.4230, 1.488770
886.9052, 1.491768
887.3873, 1.652122
887.8694, 2.190292
888.3515, 2.788147
888.8336, 2.894730
889.3157, 2.440636
889.7979, 2.029194
890.2800, 1.602852
890.7621, 1.316246
891.2442, 1.216312
891.7263, 1.266708
892.2084, 1.518085
892.6906, 1.890560
893.1727, 2.158375
893.6548, 2.235218
894.1369, 2.238182
894.6190, 2.212852
895.1011, 2.179905
895.5833, 2.147736
896.0654, 2.124977
896.5475, 2.122726
897.0296, 2.144512
897.5117, 2.215157
897.9938, 2.399883
898.4760, 2.599972
898.9581, 2.468067
899.4402, 2.045700
899.9223, 1.893299
900.4044, 2.133675
900.8865, 2.361591
901.3687, 2.342659
901.8508, 2.100071
902.3329, 1.628681
902.8150, 0.7985530
903.2971, 0.4074480
903.7792, 0.7673760
904.2614, 1.031223
904.7435, 0.9303020
905.2256, 0.6441120
905.7077, 0.3578680
906.1898, 3.9898001E-02
906.6719, 0.5052260
907.1541, 1.551579
907.6362, 2.427204
908.1183, 3.017593
908.6004, 3.332100
909.0825, 3.101646
909.5646, 2.702847
910.0468, 2.803516
910.5289, 3.555489
911.0110, 4.377445
911.4931, 4.848511
911.9752, 5.216431
912.4573, 5.770599
912.9395, 6.420704
913.4216, 6.960541
913.9037, 7.377769
914.3858, 7.812420
914.8679, 8.346497
915.3500, 8.961258
915.8321, 9.665432
916.3142, 10.43672
916.7963, 11.11331
917.2784, 11.69107
917.7606, 12.15577
918.2427, 12.49958
918.7248, 12.73380
919.2069, 12.85944
919.6890, 12.88772
920.1711, 12.91374
920.6533, 13.04239
921.1354, 12.91074
921.6175, 12.31457
922.0996, 11.68484
922.5817, 11.34464
923.0638, 11.06108
923.5460, 10.41181
924.0281, 9.318165
924.5102, 8.492384
924.9923, 8.217266
925.4744, 7.980688
925.9565, 7.524393
926.4387, 7.085661
926.9208, 6.929655
927.4029, 6.989220
927.8850, 7.011448
928.3671, 6.885342
928.8492, 6.818954
929.3314, 7.028492
929.8135, 7.307077
930.2956, 7.405861
930.7777, 7.389713
931.2598, 7.408600
931.7419, 7.507771
932.2241, 7.696451
932.7062, 7.992565
933.1883, 8.333549
933.6704, 8.625736
934.1525, 8.867123
934.6346, 9.042170
935.1168, 9.147116
935.5989, 9.182056
936.0810, 9.135719
936.5631, 9.118755
937.0452, 9.308022
937.5273, 9.691389
938.0095, 9.938990
938.4916, 9.998894
938.9737, 10.13537
939.4558, 10.42727
939.9379, 10.73311
940.4200, 10.95380
940.9022, 11.12501
941.3843, 11.33792
941.8664, 11.62846
942.3485, 11.83585
942.8306, 11.83716
943.3127, 11.90976
943.7949, 12.22551
944.2770, 12.56634
944.7591, 12.70629
945.2412, 12.68427
945.7233, 12.71118
946.2054, 12.85952
946.6876, 13.01768
947.1697, 13.20810
947.6518, 13.37519
948.1339, 13.46575
948.6160, 13.50589
949.0981, 13.52338
949.5803, 13.52647
950.0624, 13.52501
950.5445, 13.46846
951.0266, 13.49648
951.5087, 13.88717
951.9908, 14.40123
952.4730, 14.63815
952.9551, 14.59527
953.4372, 14.42149
953.9193, 14.18535
954.4014, 13.96058
954.8835, 13.87808
955.3657, 13.84395
955.8478, 13.54060
956.3299, 13.01068
956.8120, 12.60142
957.2941, 12.39463
957.7762, 12.19838
958.2584, 11.86788
958.7405, 11.48328
959.2226, 11.24491
959.7047, 11.18452
960.1868, 10.96100
960.6689, 10.53472
961.1511, 10.19268
961.6332, 10.00624
962.1153, 9.826326
962.5974, 9.533316
963.0795, 9.170893
963.5616, 8.876799
964.0438, 8.676697
964.5259, 8.509098
965.0080, 8.406927
965.4901, 8.332575
965.9722, 8.301708
966.4543, 8.241653
966.9365, 8.022171
967.4186, 7.659510
967.9007, 7.414888
968.3828, 7.432573
968.8649, 7.469454
969.3470, 7.449406
969.8292, 7.426941
970.3113, 7.441887
970.7934, 7.486822
971.2755, 7.533791
971.7576, 7.578165
972.2397, 7.659803
972.7219, 7.867445
973.2040, 8.034243
973.6861, 8.031935
974.1682, 7.946503
974.6503, 7.823357
975.1324, 7.714190
975.6146, 7.722002
976.0967, 7.881512
976.5788, 8.094271
977.0609, 8.362730
977.5430, 8.567457
978.0251, 8.450197
978.5073, 8.160143
978.9894, 8.065502
979.4715, 8.190241
979.9536, 8.303225
980.4357, 8.278145
980.9178, 8.188318
981.4000, 8.099731
981.8821, 8.015997
982.3642, 8.036652
982.8463, 8.155704
983.3284, 8.204617
983.8105, 8.135550
984.2927, 8.086113
984.7748, 8.188892
985.2569, 8.316589
985.7390, 8.099003
986.2211, 7.502748
986.7032, 7.201084
987.1854, 7.266569
987.6675, 7.320042
988.1496, 7.238462
988.6317, 7.098883
989.1138, 6.974369
989.5959, 6.860546
990.0781, 6.732079
990.5602, 6.596674
991.0423, 6.420500
991.5244, 6.124594
992.0065, 5.939951
992.4886, 6.074741
992.9708, 6.228745
993.4529, 6.003723
993.9350, 5.446232
994.4171, 5.115152
994.8992, 5.167345
995.3813, 5.213263
995.8635, 5.276772
996.3456, 5.285418
996.8277, 5.115253
997.3098, 4.936193
997.7919, 5.001783
998.2740, 5.301979
998.7562, 5.487400
999.2383, 5.525797
999.7204, 5.391117
1000.203, 4.818571
1000.685, 4.326130
1001.167, 4.385252
1001.649, 4.720137
1002.131, 4.861368
1002.613, 4.734144
1003.095, 4.587376
1003.577, 4.509062
1004.059, 4.468380
1004.542, 4.254608
1005.024, 4.228970
1005.506, 5.152704
1005.988, 6.455881
1006.470, 6.783360
1006.952, 5.801098
1007.434, 4.680323
1007.916, 4.113665
1008.398, 3.878435
1008.881, 3.922127
1009.363, 4.069382
1009.845, 4.070061
1010.327, 3.921791
1010.809, 3.703653
1011.291, 3.452333
1011.773, 3.253872
1012.255, 3.246023
1012.738, 3.301085
1013.220, 3.189079
1013.702, 2.981565
1014.184, 2.843861
1014.666, 2.796021
1015.148, 2.795744
1015.630, 2.823858
1016.112, 2.892139
1016.594, 3.077974
1017.077, 3.280334
1017.559, 3.140154
1018.041, 2.749773
1018.523, 2.609112
1019.005, 2.783524
1019.487, 2.944380
1019.969, 2.907366
1020.451, 2.738993
1020.934, 2.511410
1021.416, 2.244617
1021.898, 2.037174
1022.380, 1.888603
1022.862, 1.811840
1023.344, 1.809780
1023.826, 1.882124
1024.308, 2.045076
1024.791, 2.211292
1025.273, 2.195490
1025.755, 2.008053
1026.237, 2.047243
1026.719, 2.370825
1027.201, 2.402752
1027.683, 1.948929
1028.165, 1.522837
1028.647, 1.488836
1029.130, 1.660946
1029.612, 1.654419
1030.094, 1.454926
1030.576, 1.270372
1031.058, 1.048889
1031.540, 1.040590
1032.022, 1.438581
1032.504, 1.738592
1032.986, 1.516531
1033.469, 1.026876
1033.951, 0.8667050
1034.433, 1.119621
1034.915, 1.188080
1035.397, 0.9843370
1035.879, 0.7721610
1036.361, 0.5075150
1036.843, 0.4010200
1037.326, 0.7630900
1037.808, 1.307398
1038.290, 1.306665
1038.772, 0.5578540
1039.254, 0.1790900
1039.736, 0.4687600
1040.218, 0.6541900
1040.700, 0.4710350
1041.182, 0.2629450
1041.665, 0.2699950
1042.147, 0.4253790
1042.629, 0.5857720
1043.111, 0.7665840
1043.593, 0.8838080
1044.075, 0.8910480
1044.557, 0.8944380
1045.039, 0.9540690
1045.521, 0.9814070
1046.004, 0.9016320
1046.486, 0.7478160
1046.968, 0.5763050
1047.450, 0.3729520
1047.932, 0.2602830
1048.414, 0.3260000
1048.896, 0.3809990
1049.378, 0.3363300
1049.861, 0.3023820
1050.343, 0.4534050
1050.825, 0.6442580
1051.307, 0.5151480
1051.789, 3.5792999E-02
1052.271, 0.3446750
1052.753, 6.8980999E-02
1053.235, 0.1820130
1053.718, 0.2249220
1054.200, 0.1653540
1054.682, 2.8997000E-02
1055.164, 0.1296440
1055.646, 0.2277830
1056.128, 0.2518520
1056.610, 0.2213990
1057.092, 8.2502000E-02
1057.574, 2.7411001E-02
1058.057, 1.4920000E-03
1058.539, 1.6047001E-02
1059.021, 0.1189540
1059.503, 0.3324150
1059.985, 0.4719560
1060.467, 0.5133000
1060.949, 0.5700610
1061.431, 0.7590940
1061.913, 0.8657510
1062.396, 0.7333580
1062.878, 0.5598680
1063.360, 0.4818500
1063.842, 0.4789810
1064.324, 0.5171810
1064.806, 0.5851880
1065.288, 0.6289080
1065.770, 0.5940440
1066.253, 0.5762120
1066.735, 0.6510790
1067.217, 0.7247430
1067.699, 0.6539290
1068.181, 0.5652200
1068.663, 0.7294980
1069.145, 1.139143
1069.627, 1.381735
1070.109, 1.210236
1070.592, 1.006758
1071.074, 0.8657440
1071.556, 0.8354170
1072.038, 1.090767
1072.520, 1.403872
1073.002, 1.387358
1073.484, 1.056065
1073.966, 0.8478930
1074.448, 0.9624880
1074.931, 1.132973
1075.413, 1.289343
1075.895, 1.393114
1076.377, 1.354538
1076.859, 1.287889
1077.341, 1.377663
1077.823, 1.597918
1078.305, 1.727455
1078.788, 1.655308
1079.270, 1.596189
1079.752, 1.665276
1080.234, 1.769701
1080.716, 1.881691
1081.198, 1.968033
1081.680, 2.000433
1082.162, 1.972973
1082.644, 1.858536
1083.127, 1.607533
1083.609, 1.502975
1084.091, 1.834391
1084.573, 2.165951
1085.055, 2.148968
1085.537, 2.050804
1086.019, 2.248604
1086.501, 2.614557
1086.984, 2.681952
1087.466, 2.289825
1087.948, 2.057781
1088.430, 2.471014
1088.912, 2.830984
1089.394, 2.667206
1089.876, 2.379333
1090.358, 2.338257
1090.840, 2.471039
1091.323, 2.563482
1091.805, 2.572470
1092.287, 2.592121
1092.769, 2.603504
1093.251, 2.701466
1093.733, 3.088751
1094.215, 3.422029
1094.697, 3.384043
1095.179, 3.129927
1095.662, 2.888872
1096.144, 2.706343
1096.626, 2.649870
1097.108, 2.776186
1097.590, 2.980261
1098.072, 3.341042
1098.554, 3.645552
1099.036, 3.703196
1099.519, 3.661428
1100.001, 3.728558
1100.483, 3.896999
1100.965, 4.001978
1101.447, 3.981802
1101.929, 3.954605
1102.411, 3.915300
1102.893, 3.912294
1103.375, 3.993597
1103.858, 4.105862
1104.340, 4.201151
1104.822, 4.276354
1105.304, 4.344887
1105.786, 4.423887
1106.268, 4.468948
1106.750, 4.417316
1107.232, 4.378380
1107.714, 4.393160
1108.197, 4.452686
1108.679, 4.594456
1109.161, 4.757347
1109.643, 4.776773
1110.125, 4.596128
1110.607, 4.521221
1111.089, 4.640722
1111.571, 4.782883
1112.054, 4.994766
1112.536, 5.198690
1113.018, 5.217512
1113.500, 5.132191
1113.982, 5.211348
1114.464, 5.480797
1114.946, 5.556284
1115.428, 5.212767
1115.911, 5.103106
1116.393, 5.379196
1116.875, 5.681217
1117.357, 5.867720
1117.839, 5.987604
1118.321, 6.145861
1118.803, 6.325691
1119.285, 6.338966
1119.767, 6.039778
1120.250, 5.959629
1120.732, 6.149769
1121.214, 6.346085
1121.696, 6.555822
1122.178, 6.741440
1122.660, 6.723415
1123.142, 6.629389
1123.624, 6.541561
1124.106, 6.475792
1124.589, 6.607376
1125.071, 6.880243
1125.553, 6.888538
1126.035, 6.435074
1126.517, 6.170687
1126.999, 6.572332
1127.481, 7.218508
1127.963, 7.396221
1128.446, 7.154045
1128.928, 7.160723
1129.410, 7.434614
1129.892, 7.529896
1130.374, 7.367525
1130.856, 7.181011
1131.338, 7.067581
1131.820, 7.069979
1132.302, 7.263794
1132.785, 7.572727
1133.267, 7.733347
1133.749, 7.739927
1134.231, 7.798214
1134.713, 7.903244
1135.195, 7.813286
1135.677, 7.483273
1136.159, 7.296143
1136.641, 7.543695
1137.124, 7.875809
1137.606, 7.569233
1138.088, 6.882580
1138.570, 6.696331
1139.052, 7.002968
1139.534, 8.014740
1140.016, 9.567474
1140.498, 10.42710
1140.981, 10.02787
1141.463, 9.084389
1141.945, 8.170021
1142.427, 7.422417
1142.909, 7.177349
1143.391, 7.235012
1143.873, 7.200684
1144.355, 7.054813
1144.838, 6.876514
1145.320, 6.691814
1145.802, 6.495338
1146.284, 6.256157
1146.766, 6.095390
1147.248, 6.235977
1147.730, 6.430397
1148.212, 6.337154
1148.694, 6.102737
1149.177, 6.005440
1149.659, 6.058193
1150.141, 6.133194
1150.623, 6.194054
1151.105, 6.157261
1151.587, 5.941349
1152.069, 5.672375
1152.551, 5.440277
1153.033, 5.192326
1153.516, 4.802330
1153.998, 4.376686
1154.480, 4.174850
1154.962, 4.226059
1155.444, 4.175316
1155.926, 3.794365
1156.408, 3.457481
1156.890, 3.259224
1157.373, 3.153782
1157.855, 3.232784
1158.337, 3.308979
1158.819, 3.117126
1159.301, 2.719425
1159.783, 2.467026
1160.265, 2.463284
1160.747, 2.414356
1161.229, 2.259827
1161.712, 2.123413
1162.194, 2.147972
1162.676, 2.060390
1163.158, 1.522976
1163.640, 0.8753930
1164.122, 0.7998310
1164.604, 1.326279
1165.086, 1.434883
1165.568, 0.9472540
1166.051, 0.5756420
1166.533, 0.3735200
1167.015, 0.3431210
1167.497, 0.5212670
1167.979, 0.7872580
1168.461, 1.079437
1168.943, 1.275894
1169.425, 0.8379820
1169.908, 0.2703970
1170.390, 0.5526280
1170.872, 3.6247000E-02
1171.354, 0.5319670
1171.836, 0.7158050
1172.318, 0.5999150
1172.800, 0.1718600
1173.282, 0.3307720
1173.765, 0.5941160
1174.247, 0.6477580
1174.729, 0.4902730
1175.211, 0.2166750
1175.693, 0.1615750
1176.175, 0.3387910
1176.657, 0.7073590
1177.139, 1.210953
1177.621, 1.490234
1178.104, 1.219917
1178.586, 0.8117290
1179.068, 1.239044
1179.550, 1.460396
1180.032, 1.025414
1180.514, 4.277473
1180.996, 4.118706
1181.478, 1.113098
1181.960, 0.5300670
1182.443, 0.7661740
1182.925, 2.133591
1183.407, 1.906708
1183.889, 1.207100
1184.371, 0.4933930
1184.853, 0.1732180
1185.335, 0.8544010
1185.817, 1.405579
1186.300, 1.569420
1186.782, 1.350266
1187.264, 1.045364
1187.746, 0.5974810
1188.228, 0.3158340
1188.710, 0.2981720
1189.192, 0.4070820
1189.674, 0.7876970
1190.156, 1.093964
1190.639, 1.051300
1191.121, 0.7451320
1191.603, 0.3018260
1192.085, 0.3142850
1192.567, 0.5356450
1193.049, 0.1564180
1193.531, 1.8486001E-02
1194.013, 0.1365430
1194.495, 0.4071350
1194.978, 0.7440490
1195.460, 1.001129
1195.942, 0.9629290
1196.424, 0.8378450
1196.906, 1.382935
1197.388, 2.542915
1197.870, 2.892799
1198.352, 2.465431
1198.835, 2.481140
1199.317, 3.151253
1199.799, 3.776825
1200.281, 3.987366
1200.763, 4.143700
1201.245, 4.655312
1201.727, 5.369270
1202.209, 6.281525
1202.692, 7.071243
1203.174, 6.785004
1203.656, 5.855095
1204.138, 5.537766
1204.620, 6.063477
1205.102, 6.877388
1205.584, 7.742302
1206.066, 8.592484
1206.548, 9.497330
1207.031, 10.22414
1207.513, 10.15959
1207.995, 10.17484
1208.477, 11.75143
1208.959, 13.95598
1209.441, 14.52281
1209.923, 13.16663
1210.405, 12.21826
1210.887, 12.37152
1211.370, 12.73271
1211.852, 13.15245
1212.334, 13.77219
1212.816, 14.87126
1213.298, 15.97765
1213.780, 16.70515
1214.262, 17.15051
1214.744, 17.53217
1215.227, 17.82274
1215.709, 18.35199
1216.191, 19.15401
1216.673, 20.15944
1217.155, 21.47224
1217.637, 22.34773
1218.119, 22.37613
1218.601, 22.35686
1219.083, 23.12302
1219.566, 24.30283
1220.048, 24.92668
1220.530, 25.14322
1221.012, 25.65158
1221.494, 26.43814
1221.976, 27.51900
1222.458, 28.78685
1222.940, 29.64494
1223.422, 29.82959
1223.905, 29.93915
1224.387, 30.46414
1224.869, 31.23071
1225.351, 32.08047
1225.833, 33.04164
1226.315, 34.25839
1226.797, 35.53433
1227.279, 36.46297
1227.762, 37.05763
1228.244, 37.84413
1228.726, 39.08606
1229.208, 40.15425
1229.690, 40.64194
1230.172, 40.98758
1230.654, 41.33995
1231.136, 41.85965
1231.619, 42.56807
1232.101, 43.28273
1232.583, 44.08147
1233.065, 44.83049
1233.547, 45.62517
1234.029, 46.16402
1234.511, 46.20940
1234.993, 45.73331
1235.475, 46.03874
1235.958, 47.57527
1236.440, 48.68748
1236.922, 48.53117
1237.404, 48.07796
1237.886, 48.52246
1238.368, 49.32990
1238.850, 49.17561
1239.332, 48.43924
1239.814, 48.00490
1240.297, 47.84167
1240.779, 47.96124
1241.261, 48.27744
1241.743, 48.70547
1242.225, 49.26202
1242.707, 49.63403
1243.189, 49.38214
1243.671, 49.10031
1244.154, 49.43896
1244.636, 49.97783
1245.118, 50.44592
1245.600, 50.63159
1246.082, 50.02747
1246.564, 48.81699
1247.046, 48.27403
1247.528, 49.03044
1248.010, 49.41588
1248.493, 48.83127
1248.975, 48.27379
1249.457, 47.95459
1249.939, 47.79678
1250.421, 48.04172
1250.903, 48.04675
1251.385, 46.73233
1251.867, 44.48671
1252.349, 43.66046
1252.832, 44.41039
1253.314, 44.52531
1253.796, 43.92691
1254.278, 43.18073
1254.760, 42.41901
1255.242, 41.64694
1255.724, 40.86928
1256.206, 40.06174
1256.689, 39.23381
1257.171, 38.29466
1257.653, 36.81398
1258.135, 35.29843
1258.617, 34.77470
1259.099, 34.86404
1259.581, 34.70427
1260.063, 34.22134
1260.546, 33.85217
1261.028, 33.77356
1261.510, 33.55499
1261.992, 33.49097
1262.474, 32.56055
1262.956, 29.01059
1263.438, 25.98294
1263.920, 26.13654
1264.402, 27.36047
1264.885, 27.12442
1265.367, 25.76218
1265.849, 24.46060
1266.331, 23.16132
1266.813, 22.35083
1267.295, 22.15585
1267.777, 21.82874
1268.259, 21.24289
1268.741, 20.72232
1269.224, 20.42752
1269.706, 19.95746
1270.188, 18.92520
1270.670, 17.52216
1271.152, 15.87766
1271.634, 14.25589
1272.116, 13.35522
1272.598, 12.95575
1273.081, 12.62674
1273.563, 12.23752
1274.045, 11.58316
1274.527, 10.65375
1275.009, 9.941681
1275.491, 9.760681
1275.973, 9.698120
1276.455, 9.595856
1276.938, 9.516327
1277.420, 9.847382
1277.902, 9.894318
1278.384, 8.893005
1278.866, 7.211212
1279.348, 5.492554
1279.830, 3.764984
1280.312, 2.747040
1280.794, 2.764313
1281.276, 2.132355
1281.759, 0.5702510
1282.241, 0.3436580
1282.723, 0.1358640
1283.205, 0.2306820
1283.687, 0.1921690
1284.169, 4.3152001E-02
1284.651, 7.7510001E-03
1285.133, 0.2413640
1285.616, 0.1086430
1286.098, 0.0000000E+00
##END=



