##NAMES=Mimetite-M
##RRUFFID=R070138
##IDEAL CHEMISTRY=Pb_5_(AsO_4_)_3_Cl
##LOCALITY=Eureka Hill Mine, Tintic District, East Tintic Mts, Juab County, Utah, USA
##OWNER=RRUFF
##SOURCE=Michael Scott
##DESCRIPTION=Colorless thin hexagonal prisms associated with quartz and anglesite
##STATUS=The identification of this mineral is confirmed by single-crystal X-ray diffraction and chemical analysis.
##URL=rruff.info/R070138
##MEASURED CHEMISTRY=Pb_5.00_(As_1.00_O_4_)_3_Cl_1.00_
114.0229, 0.0000000E+00
114.5050, 22.96002
114.9871, 35.40018
115.4692, 35.88184
115.9513, 54.09381
116.4335, 42.01248
116.9156, 18.09302
117.3977, 3.224243
117.8798, 16.60519
118.3619, 14.95251
118.8440, 7.791138
119.3262, 2.735962
119.8083, 4.622375
120.2904, 2.147156
120.7725, 13.54865
121.2546, 40.55396
121.7367, 71.55774
122.2189, 97.45703
122.7010, 125.2444
123.1831, 165.5599
123.6652, 227.3431
124.1473, 299.1025
124.6294, 368.9896
125.1115, 436.9396
125.5937, 504.5673
126.0758, 574.3915
126.5579, 645.6364
127.0400, 714.1931
127.5221, 777.2178
128.0043, 837.3073
128.4864, 897.3721
128.9685, 956.6855
129.4506, 1020.254
129.9327, 1098.398
130.4148, 1190.150
130.8969, 1281.989
131.3791, 1363.134
131.8612, 1434.986
132.3433, 1509.341
132.8254, 1587.244
133.3075, 1668.874
133.7896, 1756.434
134.2718, 1849.873
134.7539, 1944.276
135.2360, 2038.974
135.7181, 2132.980
136.2002, 2215.624
136.6823, 2283.317
137.1645, 2336.951
137.6466, 2383.379
138.1287, 2421.830
138.6108, 2455.292
139.0929, 2485.703
139.5750, 2510.888
140.0572, 2539.463
140.5393, 2575.763
141.0214, 2622.646
141.5035, 2664.883
141.9856, 2701.412
142.4677, 2733.993
142.9499, 2767.553
143.4320, 2800.323
143.9141, 2835.090
144.3962, 2871.868
144.8783, 2906.922
145.3604, 2951.527
145.8425, 3007.808
146.3247, 3074.488
146.8068, 3147.509
147.2889, 3233.584
147.7710, 3319.903
148.2531, 3399.915
148.7352, 3466.939
149.2174, 3534.494
149.6995, 3604.857
150.1816, 3678.313
150.6637, 3748.066
151.1458, 3815.103
151.6279, 3877.001
152.1101, 3933.231
152.5922, 3974.135
153.0743, 4017.532
153.5564, 4069.481
154.0385, 4135.482
154.5206, 4195.503
155.0028, 4244.724
155.4849, 4286.439
155.9670, 4326.251
156.4491, 4360.038
156.9312, 4396.079
157.4133, 4439.163
157.8955, 4497.580
158.3776, 4550.090
158.8597, 4587.488
159.3418, 4613.952
159.8239, 4643.272
160.3060, 4678.876
160.7882, 4720.014
161.2703, 4766.227
161.7524, 4820.652
162.2345, 4877.067
162.7166, 4936.742
163.1987, 4998.825
163.6808, 5052.441
164.1630, 5082.104
164.6451, 5104.560
165.1272, 5137.818
165.6093, 5204.702
166.0914, 5272.668
166.5735, 5319.203
167.0557, 5342.419
167.5378, 5362.081
168.0199, 5396.086
168.5020, 5434.457
168.9841, 5460.257
169.4662, 5464.473
169.9484, 5453.082
170.4305, 5429.059
170.9126, 5390.412
171.3947, 5348.102
171.8768, 5308.660
172.3589, 5273.480
172.8411, 5233.131
173.3232, 5184.985
173.8053, 5127.555
174.2874, 5056.370
174.7695, 4965.844
175.2516, 4871.217
175.7338, 4788.803
176.2159, 4718.369
176.6980, 4653.558
177.1801, 4596.907
177.6622, 4541.445
178.1443, 4472.601
178.6264, 4377.127
179.1086, 4273.798
179.5907, 4196.921
180.0728, 4145.886
180.5549, 4095.775
181.0370, 4023.206
181.5191, 3933.490
182.0013, 3841.018
182.4834, 3743.010
182.9655, 3647.734
183.4476, 3577.069
183.9297, 3534.179
184.4118, 3495.266
184.8940, 3432.786
185.3761, 3349.115
185.8582, 3263.304
186.3403, 3180.299
186.8224, 3100.778
187.3046, 3026.625
187.7867, 2957.618
188.2688, 2892.550
188.7509, 2832.531
189.2330, 2777.219
189.7151, 2716.677
190.1973, 2637.059
190.6794, 2542.772
191.1615, 2469.934
191.6436, 2426.110
192.1257, 2395.647
192.6078, 2346.390
193.0900, 2277.114
193.5721, 2206.653
194.0542, 2147.375
194.5363, 2098.814
195.0184, 2047.288
195.5005, 1989.192
195.9826, 1928.581
196.4648, 1878.241
196.9469, 1840.392
197.4290, 1805.002
197.9111, 1761.472
198.3932, 1708.802
198.8753, 1665.446
199.3575, 1639.418
199.8396, 1625.317
200.3217, 1591.304
200.8038, 1531.697
201.2859, 1470.606
201.7680, 1434.463
202.2502, 1426.729
202.7323, 1417.800
203.2144, 1400.774
203.6965, 1376.321
204.1786, 1349.170
204.6607, 1319.424
205.1429, 1287.453
205.6250, 1251.310
206.1071, 1208.095
206.5892, 1172.349
207.0713, 1150.481
207.5534, 1144.064
208.0356, 1136.600
208.5177, 1130.139
208.9998, 1120.465
209.4819, 1098.270
209.9640, 1057.198
210.4461, 1018.963
210.9282, 992.7423
211.4104, 981.0583
211.8925, 969.9644
212.3746, 961.8540
212.8567, 953.5574
213.3388, 936.4319
213.8209, 904.7644
214.3031, 874.1157
214.7852, 851.8679
215.2673, 841.8706
215.7494, 831.4563
216.2315, 820.0884
216.7136, 807.6997
217.1958, 795.1045
217.6779, 783.6337
218.1600, 770.9202
218.6421, 754.8726
219.1242, 732.6238
219.6063, 714.4878
220.0885, 701.7202
220.5706, 692.0762
221.0527, 678.7191
221.5348, 662.0105
222.0169, 643.1467
222.4990, 622.0679
222.9812, 596.6343
223.4633, 574.6523
223.9454, 557.4092
224.4275, 544.4303
224.9096, 534.1685
225.3917, 529.2667
225.8739, 523.5120
226.3560, 512.1770
226.8381, 493.7188
227.3202, 472.3470
227.8023, 446.0428
228.2844, 415.4385
228.7665, 393.1832
229.2487, 383.1564
229.7308, 377.8590
230.2129, 371.0775
230.6950, 363.0798
231.1771, 353.1111
231.6592, 340.2665
232.1414, 324.4158
232.6235, 310.1160
233.1056, 299.1443
233.5877, 288.2367
234.0698, 272.9406
234.5519, 246.2808
235.0341, 228.1337
235.5162, 226.4186
235.9983, 244.5317
236.4804, 249.3062
236.9625, 233.9622
237.4446, 210.5929
237.9268, 193.6829
238.4089, 187.0443
238.8910, 180.0986
239.3731, 169.0304
239.8552, 151.8622
240.3373, 141.6552
240.8195, 142.2030
241.3016, 147.1781
241.7837, 147.9381
242.2658, 144.3557
242.7479, 136.6394
243.2300, 123.2856
243.7122, 101.3662
244.1943, 86.12463
244.6764, 80.31848
245.1585, 79.60278
245.6406, 76.96985
246.1227, 72.18140
246.6048, 65.79541
247.0870, 56.86841
247.5691, 42.60291
248.0512, 35.99805
248.5333, 43.20593
249.0154, 54.98779
249.4975, 52.99951
249.9797, 29.41345
250.4618, 5.206787
250.9439, 12.48779
251.4260, 23.46106
251.9081, 27.99365
252.3902, 23.01074
252.8724, 12.95654
253.3545, 7.772217
253.8366, 9.044800
254.3187, 12.38342
254.8008, 16.25586
255.2829, 20.98560
255.7651, 25.56287
256.2472, 30.75854
256.7293, 35.52026
257.2114, 36.57666
257.6935, 31.15747
258.1756, 27.12402
258.6577, 29.13586
259.1399, 41.13220
259.6220, 47.15454
260.1041, 43.88953
260.5862, 35.76221
261.0683, 35.31213
261.5504, 45.76489
262.0326, 57.42065
262.5147, 66.23425
262.9968, 72.47778
263.4789, 74.14575
263.9610, 68.69653
264.4431, 59.66577
264.9253, 57.53149
265.4074, 64.29102
265.8895, 73.41797
266.3716, 83.03223
266.8537, 94.97205
267.3358, 99.19800
267.8180, 92.82324
268.3001, 79.70605
268.7822, 69.37085
269.2643, 61.12939
269.7464, 57.66528
270.2285, 63.04114
270.7107, 80.63245
271.1928, 88.62952
271.6749, 82.52087
272.1570, 67.89954
272.6391, 61.76343
273.1212, 66.70789
273.6034, 71.66760
274.0855, 68.43872
274.5676, 55.25488
275.0497, 48.56311
275.5318, 51.21045
276.0139, 59.80054
276.4961, 67.57898
276.9782, 76.08582
277.4603, 77.17236
277.9424, 61.71863
278.4245, 28.42725
278.9066, 3.857056
279.3888, 7.521484
279.8709, 11.19812
280.3530, 19.65808
280.8351, 33.19653
281.3172, 49.74939
281.7993, 68.79028
282.2815, 90.34729
282.7636, 110.6118
283.2457, 128.5044
283.7278, 145.8422
284.2099, 165.5116
284.6920, 187.3102
285.1741, 214.2169
285.6563, 250.4180
286.1384, 295.1008
286.6205, 335.1426
287.1026, 367.2313
287.5847, 398.0884
288.0668, 440.0308
288.5490, 493.0522
289.0311, 553.0916
289.5132, 619.8142
289.9953, 691.3191
290.4774, 764.0884
290.9595, 836.6321
291.4417, 912.5366
291.9238, 997.7036
292.4059, 1091.253
292.8880, 1192.066
293.3701, 1300.208
293.8522, 1415.008
294.3344, 1535.534
294.8165, 1662.674
295.2986, 1795.466
295.7807, 1934.252
296.2628, 2078.046
296.7449, 2218.151
297.2271, 2334.692
297.7092, 2443.915
298.1913, 2587.500
298.6734, 2775.595
299.1555, 2975.651
299.6376, 3147.863
300.1198, 3297.247
300.6019, 3439.907
301.0840, 3581.875
301.5661, 3722.595
302.0482, 3862.137
302.5303, 4003.161
303.0125, 4137.273
303.4946, 4260.957
303.9767, 4372.539
304.4588, 4471.419
304.9409, 4550.327
305.4230, 4617.740
305.9052, 4684.908
306.3873, 4752.438
306.8694, 4818.434
307.3515, 4877.009
307.8336, 4931.954
308.3157, 4991.382
308.7979, 5068.726
309.2800, 5146.079
309.7621, 5209.719
310.2442, 5259.041
310.7263, 5294.938
311.2084, 5321.252
311.6906, 5333.501
312.1727, 5325.381
312.6548, 5286.470
313.1369, 5231.747
313.6190, 5169.756
314.1011, 5100.636
314.5833, 5026.667
315.0654, 4961.732
315.5475, 4889.626
316.0296, 4790.167
316.5117, 4613.932
316.9938, 4443.467
317.4760, 4322.450
317.9580, 4257.766
318.4402, 4193.326
318.9223, 4096.725
319.4044, 3995.499
319.8865, 3919.044
320.3686, 3883.611
320.8507, 3865.906
321.3329, 3861.724
321.8150, 3871.328
322.2971, 3889.295
322.7792, 3913.248
323.2613, 3944.651
323.7434, 3984.991
324.2256, 4025.029
324.7077, 4083.900
325.1898, 4172.937
325.6719, 4291.402
326.1540, 4407.949
326.6361, 4517.121
327.1183, 4625.729
327.6004, 4738.160
328.0825, 4857.767
328.5646, 4975.631
329.0467, 5088.958
329.5288, 5200.494
330.0110, 5317.843
330.4931, 5455.730
330.9752, 5585.237
331.4573, 5688.357
331.9394, 5756.373
332.4215, 5817.592
332.9037, 5875.911
333.3858, 5927.631
333.8679, 5960.613
334.3500, 5970.525
334.8321, 5969.287
335.3142, 5965.441
335.7964, 5965.707
336.2785, 5946.804
336.7606, 5904.202
337.2427, 5842.066
337.7248, 5775.327
338.2069, 5708.799
338.6891, 5623.079
339.1712, 5502.447
339.6533, 5343.826
340.1354, 5189.417
340.6175, 5043.994
341.0996, 4898.824
341.5818, 4740.086
342.0639, 4566.669
342.5460, 4391.979
343.0281, 4217.978
343.5102, 4046.524
343.9923, 3883.105
344.4745, 3731.199
344.9566, 3580.099
345.4387, 3418.433
345.9208, 3248.575
346.4029, 3071.094
346.8850, 2881.323
347.3672, 2685.194
347.8493, 2504.132
348.3314, 2338.871
348.8135, 2187.113
349.2956, 2054.119
349.7777, 1936.199
350.2599, 1818.284
350.7419, 1689.363
351.2241, 1560.189
351.7062, 1445.913
352.1883, 1346.592
352.6704, 1255.650
353.1525, 1168.276
353.6346, 1087.187
354.1168, 1016.344
354.5989, 965.3989
355.0810, 915.2083
355.5631, 839.7415
356.0452, 746.2170
356.5273, 669.5625
357.0095, 643.8787
357.4916, 638.9275
357.9737, 624.6936
358.4558, 588.3201
358.9379, 552.6521
359.4200, 528.3293
359.9022, 514.0227
360.3843, 506.2239
360.8664, 508.6519
361.3485, 513.5808
361.8306, 515.0327
362.3127, 507.8145
362.7949, 508.3767
363.2770, 524.8518
363.7591, 551.6819
364.2412, 579.5283
364.7233, 604.5095
365.2054, 631.8816
365.6876, 664.7886
366.1697, 706.2876
366.6518, 742.8364
367.1339, 761.5776
367.6160, 778.6641
368.0981, 812.9690
368.5803, 899.1514
369.0624, 964.2114
369.5445, 988.9580
370.0266, 970.6931
370.5087, 956.7075
370.9908, 951.6318
371.4730, 946.7097
371.9551, 935.2275
372.4372, 918.6440
372.9193, 891.8428
373.4014, 851.3328
373.8835, 799.6865
374.3657, 750.9436
374.8478, 706.2512
375.3299, 662.9463
375.8120, 619.3259
376.2941, 574.5103
376.7762, 533.2139
377.2584, 496.2737
377.7405, 462.9971
378.2226, 432.3247
378.7047, 403.2678
379.1868, 381.3586
379.6689, 369.8784
380.1511, 368.4753
380.6332, 374.3091
381.1153, 388.6299
381.5974, 405.9705
382.0795, 416.5686
382.5616, 421.8525
383.0438, 430.4961
383.5259, 446.0508
384.0080, 467.9021
384.4901, 497.3323
384.9722, 535.3655
385.4543, 571.5833
385.9364, 592.7041
386.4185, 605.4900
386.9007, 624.5549
387.3828, 662.7217
387.8649, 704.2500
388.3470, 733.9700
388.8291, 752.4495
389.3112, 765.3074
389.7934, 769.5439
390.2755, 772.5427
390.7576, 782.4653
391.2397, 806.7048
391.7218, 831.0708
392.2039, 844.4258
392.6861, 851.2327
393.1682, 865.3721
393.6503, 900.7402
394.1324, 939.5208
394.6145, 969.0923
395.0966, 977.6694
395.5788, 998.7439
396.0609, 1040.039
396.5430, 1098.510
397.0251, 1169.060
397.5072, 1257.802
397.9893, 1352.804
398.4715, 1452.685
398.9536, 1558.943
399.4357, 1662.040
399.9178, 1755.512
400.3999, 1848.970
400.8820, 1953.152
401.3642, 2077.952
401.8463, 2197.829
402.3284, 2307.446
402.8105, 2407.436
403.2926, 2509.948
403.7747, 2619.381
404.2569, 2725.657
404.7390, 2822.447
405.2211, 2910.402
405.7032, 2980.011
406.1853, 3028.882
406.6674, 3064.049
407.1496, 3106.125
407.6317, 3156.999
408.1138, 3188.682
408.5959, 3183.907
409.0780, 3146.372
409.5602, 3095.150
410.0423, 3031.419
410.5244, 2953.567
411.0065, 2856.546
411.4886, 2743.073
411.9707, 2626.067
412.4529, 2503.393
412.9350, 2380.900
413.4171, 2271.154
413.8992, 2172.877
414.3813, 2087.422
414.8634, 2019.973
415.3456, 1963.190
415.8277, 1907.090
416.3098, 1841.724
416.7919, 1783.585
417.2740, 1747.944
417.7561, 1731.154
418.2382, 1713.728
418.7203, 1682.194
419.2025, 1648.703
419.6846, 1622.890
420.1667, 1607.793
420.6488, 1597.348
421.1309, 1593.348
421.6130, 1591.749
422.0952, 1585.149
422.5773, 1578.154
423.0594, 1560.846
423.5415, 1526.948
424.0236, 1472.928
424.5057, 1420.189
424.9879, 1371.695
425.4700, 1324.288
425.9521, 1273.698
426.4342, 1220.113
426.9163, 1163.018
427.3984, 1100.373
427.8806, 1033.329
428.3627, 975.1077
428.8448, 928.7039
429.3269, 883.7518
429.8090, 831.6323
430.2911, 770.3881
430.7733, 718.7404
431.2554, 678.4811
431.7375, 647.5793
432.2196, 624.8701
432.7017, 610.8022
433.1838, 593.9373
433.6660, 564.7286
434.1481, 527.9319
434.6302, 502.9529
435.1123, 490.9526
435.5944, 481.8621
436.0765, 465.1877
436.5587, 443.3506
437.0408, 422.4902
437.5229, 406.3982
438.0050, 390.9556
438.4871, 372.0283
438.9692, 349.9099
439.4514, 326.1930
439.9335, 299.3933
440.4156, 272.7107
440.8977, 249.0188
441.3798, 229.4091
441.8619, 212.5155
442.3441, 199.7866
442.8262, 189.1565
443.3083, 176.6833
443.7904, 160.8279
444.2725, 143.5077
444.7546, 124.7529
445.2368, 104.2941
445.7189, 85.65027
446.2010, 71.01221
446.6831, 57.64417
447.1652, 43.06848
447.6473, 22.71204
448.1295, 7.698486
448.6116, 1.109863
449.0937, 1.331787
449.5758, 0.6787110
450.0579, 0.2150880
450.5400, 3.007813
451.0221, 12.42981
451.5042, 29.94336
451.9864, 40.66846
452.4685, 42.59619
452.9506, 39.98706
453.4327, 38.79688
453.9148, 38.99536
454.3969, 42.21497
454.8791, 50.53589
455.3612, 62.12048
455.8433, 71.75195
456.3254, 79.33203
456.8075, 83.61340
457.2896, 80.40247
457.7718, 73.01355
458.2539, 68.88733
458.7360, 71.80383
459.2181, 75.48389
459.7002, 71.62915
460.1823, 62.80798
460.6645, 57.18237
461.1466, 65.86279
461.6287, 75.06604
462.1108, 71.90833
462.5929, 51.68976
463.0750, 35.48218
463.5572, 36.09180
464.0393, 44.00714
464.5214, 48.03448
465.0035, 39.05035
465.4856, 32.45599
465.9677, 34.72046
466.4499, 45.30469
466.9320, 48.62787
467.4141, 38.10876
467.8962, 25.96228
468.3783, 18.89795
468.8604, 20.37994
469.3426, 19.41748
469.8247, 14.56513
470.3068, 8.125854
470.7889, 5.139587
471.2710, 6.691101
471.7531, 7.632141
472.2353, 5.494629
472.7174, 0.7520140
473.1995, 2.012695
473.6816, 2.770996
474.1637, 1.839783
474.6458, 2.805359
475.1280, 9.607056
475.6101, 10.25043
476.0922, 0.3196410
476.5743, 12.48566
477.0564, 15.89874
477.5385, 11.85260
478.0207, 8.669556
478.5028, 12.72858
478.9849, 19.20166
479.4670, 21.93121
479.9491, 19.49603
480.4312, 19.87958
480.9134, 32.86041
481.3955, 49.76807
481.8776, 60.25024
482.3597, 54.55945
482.8418, 48.37952
483.3239, 47.67151
483.8060, 51.58417
484.2881, 52.91016
484.7703, 44.74664
485.2524, 38.43048
485.7345, 39.89880
486.2166, 55.85840
486.6987, 65.61029
487.1808, 66.32855
487.6630, 62.71765
488.1451, 62.34674
488.6272, 66.79425
489.1093, 69.89722
489.5914, 68.98303
490.0735, 65.03162
490.5557, 65.71295
491.0378, 71.80762
491.5199, 78.60175
492.0020, 82.00629
492.4841, 82.55621
492.9662, 83.35260
493.4484, 84.62000
493.9305, 86.84100
494.4126, 91.31744
494.8947, 97.48932
495.3768, 103.4424
495.8589, 108.2559
496.3411, 112.3799
496.8232, 116.8387
497.3053, 121.5876
497.7874, 124.3222
498.2695, 121.9581
498.7516, 117.7912
499.2338, 114.7110
499.7159, 112.2118
500.1980, 112.7243
500.6801, 119.9488
501.1622, 130.8210
501.6443, 137.7618
502.1265, 136.7162
502.6086, 134.4482
503.0907, 132.5730
503.5728, 130.7766
504.0549, 130.6810
504.5370, 132.7367
505.0192, 136.0674
505.5013, 140.3709
505.9834, 146.4296
506.4655, 149.7986
506.9476, 148.6353
507.4297, 145.4282
507.9119, 148.3990
508.3940, 157.9634
508.8761, 164.8793
509.3582, 161.7902
509.8403, 151.8433
510.3224, 144.1108
510.8046, 138.9600
511.2867, 137.3775
511.7688, 144.6436
512.2509, 155.4695
512.7330, 159.5613
513.2151, 148.7141
513.6973, 135.7159
514.1794, 129.9578
514.6615, 130.1469
515.1436, 131.9727
515.6257, 138.0447
516.1078, 141.8862
516.5900, 137.7717
517.0721, 122.2462
517.5542, 111.5453
518.0363, 113.2422
518.5184, 118.7287
519.0005, 118.5992
519.4827, 108.4355
519.9648, 99.89685
520.4469, 95.28156
520.9290, 94.02173
521.4111, 94.73834
521.8932, 98.36768
522.3754, 99.89795
522.8575, 96.00122
523.3396, 86.50696
523.8217, 81.55341
524.3038, 81.40552
524.7859, 82.66016
525.2681, 81.91235
525.7502, 79.80176
526.2323, 78.45642
526.7144, 78.85468
527.1965, 78.86035
527.6786, 74.32880
528.1608, 66.73340
528.6429, 60.98004
529.1250, 60.77454
529.6071, 62.78479
530.0892, 64.82312
530.5714, 66.88959
531.0535, 68.47083
531.5356, 69.58368
532.0176, 69.74646
532.4998, 68.35803
532.9819, 61.97327
533.4640, 58.08148
533.9461, 60.66492
534.4282, 67.50330
534.9103, 69.85748
535.3925, 64.13739
535.8746, 58.62433
536.3567, 57.23083
536.8388, 60.45569
537.3209, 63.26672
537.8030, 66.09344
538.2852, 66.60260
538.7673, 60.20294
539.2494, 47.67755
539.7315, 41.54626
540.2136, 46.18530
540.6957, 54.36877
541.1779, 53.13361
541.6600, 44.85010
542.1421, 38.87805
542.6242, 43.34332
543.1063, 50.83850
543.5884, 53.49597
544.0706, 51.28711
544.5527, 48.51489
545.0348, 45.08746
545.5169, 43.22784
545.9990, 45.27838
546.4811, 55.91876
546.9633, 64.96307
547.4454, 71.00708
547.9275, 73.72571
548.4096, 72.67084
548.8917, 64.56451
549.3738, 57.32922
549.8560, 53.01685
550.3381, 51.58997
550.8202, 50.40594
551.3023, 49.39526
551.7844, 48.82849
552.2665, 49.19098
552.7487, 50.48846
553.2308, 50.95325
553.7129, 49.91534
554.1950, 49.25781
554.6771, 52.48016
555.1592, 58.78650
555.6414, 64.69824
556.1235, 70.12598
556.6056, 73.40411
557.0877, 70.48859
557.5698, 62.54266
558.0519, 56.93347
558.5341, 61.55731
559.0162, 68.06738
559.4983, 68.79413
559.9804, 59.47900
560.4625, 54.01221
560.9446, 60.10510
561.4268, 70.43213
561.9089, 76.05914
562.3910, 73.10461
562.8731, 70.07965
563.3552, 68.14575
563.8373, 67.00134
564.3195, 64.86224
564.8016, 60.88367
565.2837, 58.10309
565.7658, 58.64807
566.2479, 62.45874
566.7300, 65.54382
567.2122, 67.81104
567.6943, 69.25745
568.1764, 71.78149
568.6585, 73.74402
569.1406, 68.79388
569.6227, 51.46094
570.1049, 34.60583
570.5870, 33.29694
571.0691, 43.09491
571.5512, 53.40363
572.0333, 61.08075
572.5154, 66.51208
572.9976, 69.05481
573.4797, 68.78918
573.9618, 68.64307
574.4439, 68.87976
574.9260, 69.63440
575.4081, 71.09424
575.8903, 74.42377
576.3724, 76.70123
576.8545, 78.19232
577.3366, 78.31543
577.8187, 75.10815
578.3008, 67.03265
578.7830, 63.35132
579.2651, 67.83923
579.7472, 77.64679
580.2293, 84.49756
580.7114, 88.35425
581.1935, 89.79181
581.6757, 87.34198
582.1578, 83.31989
582.6399, 82.55804
583.1220, 85.61462
583.6041, 88.14545
584.0862, 85.32312
584.5684, 80.71558
585.0505, 78.42346
585.5326, 78.72174
586.0147, 82.66986
586.4968, 95.04779
586.9789, 111.2615
587.4611, 120.8547
587.9432, 114.0662
588.4253, 109.8196
588.9074, 114.4810
589.3895, 127.8705
589.8716, 133.2684
590.3538, 127.2321
590.8359, 120.5402
591.3180, 121.7827
591.8001, 131.0117
592.2822, 135.7909
592.7643, 134.7222
593.2465, 131.4257
593.7286, 128.9833
594.2107, 127.9598
594.6928, 130.6617
595.1749, 140.9531
595.6570, 151.5574
596.1392, 152.2200
596.6213, 146.4586
597.1034, 145.9349
597.5854, 164.2044
598.0676, 182.7474
598.5497, 189.5230
599.0318, 182.1825
599.5139, 177.5944
599.9960, 180.4084
600.4781, 185.5581
600.9603, 189.9222
601.4424, 193.6426
601.9245, 195.9908
602.4066, 196.0911
602.8887, 195.6973
603.3708, 198.3055
603.8530, 204.1807
604.3351, 208.5751
604.8172, 209.3168
605.2993, 208.2882
605.7814, 211.0845
606.2635, 216.9103
606.7457, 219.8719
607.2278, 211.2860
607.7099, 200.1935
608.1920, 198.7584
608.6741, 208.4835
609.1563, 217.2390
609.6384, 217.4925
610.1205, 214.2825
610.6026, 212.0341
611.0847, 212.0980
611.5668, 212.6002
612.0490, 212.3894
612.5311, 212.8337
613.0132, 216.9693
613.4953, 229.1971
613.9774, 235.1638
614.4595, 229.2467
614.9417, 214.6822
615.4238, 207.0872
615.9059, 206.8347
616.3880, 209.3936
616.8701, 213.3373
617.3522, 217.9097
617.8344, 221.8843
618.3165, 225.4236
618.7986, 224.9465
619.2807, 212.0085
619.7628, 194.9602
620.2449, 185.2750
620.7271, 189.5112
621.2092, 194.4064
621.6913, 193.7178
622.1734, 189.7631
622.6555, 186.5634
623.1376, 185.6743
623.6198, 185.1292
624.1019, 184.6990
624.5840, 184.3008
625.0661, 183.8525
625.5482, 183.8500
626.0303, 182.3768
626.5125, 176.6548
626.9946, 167.3939
627.4767, 167.0438
627.9588, 176.4792
628.4409, 185.4225
628.9230, 182.3442
629.4052, 172.3416
629.8873, 167.0613
630.3694, 170.2847
630.8515, 173.3384
631.3336, 166.1552
631.8157, 155.1394
632.2979, 150.4069
632.7800, 161.7926
633.2621, 173.4686
633.7442, 180.2433
634.2263, 182.5516
634.7084, 183.3835
635.1906, 182.9946
635.6727, 181.0115
636.1548, 176.9335
636.6369, 170.8633
637.1190, 165.5023
637.6011, 160.5671
638.0833, 158.1057
638.5654, 160.8324
639.0475, 166.7340
639.5296, 169.6026
640.0117, 168.9340
640.4938, 168.4099
640.9760, 170.8613
641.4581, 174.9993
641.9402, 179.3563
642.4223, 185.6801
642.9044, 189.7253
643.3865, 187.8563
643.8687, 181.8224
644.3508, 176.3567
644.8329, 170.0164
645.3150, 167.9047
645.7971, 173.0244
646.2792, 184.7783
646.7614, 191.7004
647.2435, 192.6777
647.7256, 193.1722
648.2077, 196.4703
648.6898, 201.4852
649.1719, 201.3524
649.6541, 195.8459
650.1362, 190.1402
650.6183, 189.1148
651.1004, 191.4380
651.5825, 194.5993
652.0646, 198.1508
652.5468, 200.7429
653.0289, 202.8627
653.5110, 205.3001
653.9931, 207.2618
654.4752, 204.6863
654.9573, 201.3567
655.4395, 198.4989
655.9216, 197.6902
656.4037, 201.2535
656.8858, 211.7177
657.3679, 220.4666
657.8500, 223.9226
658.3322, 222.2725
658.8143, 221.2221
659.2964, 221.0943
659.7785, 221.3156
660.2606, 220.0782
660.7427, 218.7667
661.2249, 223.0583
661.7070, 234.7487
662.1891, 245.1121
662.6712, 245.1345
663.1533, 238.4124
663.6354, 230.1483
664.1175, 219.5681
664.5996, 212.3589
665.0817, 211.2626
665.5638, 214.3511
666.0460, 218.2923
666.5281, 223.8817
667.0102, 229.4501
667.4923, 234.9853
667.9744, 239.4970
668.4565, 239.4294
668.9387, 234.7795
669.4208, 228.9224
669.9029, 221.0851
670.3850, 212.9264
670.8671, 213.2173
671.3492, 221.7238
671.8314, 228.5872
672.3135, 223.1705
672.7956, 213.3799
673.2777, 208.6013
673.7598, 211.4160
674.2419, 214.9144
674.7241, 217.9698
675.2062, 219.4692
675.6883, 218.2061
676.1704, 210.8073
676.6525, 205.2176
677.1346, 202.8111
677.6168, 201.9474
678.0989, 198.9599
678.5810, 193.1093
679.0631, 189.9474
679.5452, 192.7994
680.0273, 197.9085
680.5095, 194.7243
680.9916, 184.3344
681.4737, 173.4623
681.9558, 165.4047
682.4379, 159.1389
682.9200, 154.8728
683.4022, 152.2697
683.8843, 147.0659
684.3664, 130.8691
684.8485, 116.5219
685.3306, 113.2654
685.8127, 128.0150
686.2949, 134.9594
686.7770, 130.0262
687.2591, 121.9232
687.7412, 118.8053
688.2233, 121.8790
688.7054, 120.8814
689.1876, 114.2076
689.6697, 104.9464
690.1518, 96.23511
690.6339, 88.54517
691.1160, 83.47321
691.5981, 82.55487
692.0803, 82.81519
692.5624, 82.98877
693.0445, 82.25891
693.5266, 78.75391
694.0087, 69.48645
694.4908, 59.67065
694.9730, 48.56049
695.4551, 37.38025
695.9372, 36.41095
696.4193, 54.44586
696.9014, 67.67584
697.3835, 63.59229
697.8657, 43.14526
698.3478, 31.85602
698.8299, 30.49249
699.3120, 32.06561
699.7941, 31.13892
700.2762, 28.86218
700.7584, 28.19739
701.2405, 29.73987
701.7226, 29.87610
702.2047, 24.39062
702.6868, 16.75635
703.1689, 10.79321
703.6511, 10.07349
704.1332, 6.547241
704.6153, 7.008423
705.0974, 21.63123
705.5795, 25.03418
706.0616, 10.84167
706.5438, 1.793335
707.0259, 2.673096
707.5080, 9.322754
707.9901, 13.52844
708.4722, 15.25073
708.9543, 14.67151
709.4365, 6.737427
709.9186, 0.4763180
710.4007, 15.77856
710.8828, 46.11719
711.3649, 66.08789
711.8470, 50.10828
712.3292, 30.94409
712.8113, 28.80725
713.2934, 45.75281
713.7755, 55.91235
714.2576, 53.58179
714.7397, 48.09387
715.2219, 42.74524
715.7040, 37.35522
716.1861, 35.60645
716.6682, 37.88318
717.1503, 42.16516
717.6324, 46.42188
718.1146, 51.06140
718.5967, 58.65784
719.0788, 70.60828
719.5609, 79.00879
720.0430, 72.62085
720.5251, 60.55994
721.0073, 54.06677
721.4894, 60.49280
721.9715, 66.62830
722.4536, 67.95081
722.9357, 67.48047
723.4178, 70.55664
723.9000, 81.60010
724.3821, 85.64526
724.8642, 77.01038
725.3463, 62.54688
725.8284, 60.59192
726.3105, 70.60938
726.7927, 80.11108
727.2748, 84.91003
727.7569, 85.37366
728.2390, 80.48096
728.7211, 71.21313
729.2032, 61.86670
729.6853, 53.57568
730.1674, 46.99878
730.6495, 42.73669
731.1317, 40.76660
731.6138, 39.79224
732.0959, 44.01562
732.5780, 43.74573
733.0601, 32.73145
733.5422, 9.900635
734.0244, 6.526245
734.5065, 16.31287
734.9886, 23.36487
735.4707, 31.69006
735.9528, 39.89941
736.4349, 42.08496
736.9171, 36.55798
737.3992, 36.03589
737.8813, 52.75537
738.3634, 78.24902
738.8455, 103.3070
739.3276, 125.8892
739.8098, 148.7469
740.2919, 170.5411
740.7740, 193.9817
741.2561, 222.3535
741.7382, 256.0337
742.2203, 292.0725
742.7025, 330.2292
743.1846, 369.7837
743.6667, 407.3701
744.1488, 444.0415
744.6309, 487.0715
745.1130, 539.0603
745.5952, 596.2344
746.0773, 651.7249
746.5594, 709.3887
747.0415, 777.0129
747.5236, 860.2820
748.0057, 952.2859
748.4879, 1053.952
748.9700, 1163.591
749.4521, 1266.146
749.9342, 1350.891
750.4163, 1451.103
750.8984, 1580.148
751.3806, 1733.418
751.8627, 1896.156
752.3448, 2066.930
752.8269, 2249.793
753.3090, 2452.397
753.7911, 2662.372
754.2733, 2849.735
754.7554, 3018.008
755.2375, 3207.211
755.7196, 3454.244
756.2017, 3716.221
756.6838, 3974.080
757.1660, 4222.090
757.6481, 4462.718
758.1302, 4690.380
758.6123, 4915.353
759.0944, 5146.865
759.5765, 5382.902
760.0587, 5628.771
760.5408, 5888.015
761.0229, 6130.355
761.5050, 6328.220
761.9871, 6493.869
762.4692, 6655.338
762.9514, 6825.317
763.4335, 6958.048
763.9156, 7025.367
764.3977, 7042.679
764.8798, 7026.575
765.3619, 6976.406
765.8441, 6895.315
766.3262, 6784.892
766.8083, 6642.415
767.2904, 6458.417
767.7725, 6232.091
768.2546, 5991.055
768.7368, 5735.586
769.2189, 5487.460
769.7010, 5278.203
770.1831, 5103.125
770.6652, 4950.459
771.1473, 4822.783
771.6295, 4705.880
772.1116, 4585.911
772.5937, 4473.516
773.0758, 4392.224
773.5579, 4348.420
774.0400, 4331.546
774.5222, 4345.372
775.0043, 4382.572
775.4864, 4420.939
775.9685, 4459.870
776.4506, 4511.590
776.9327, 4579.711
777.4149, 4664.871
777.8970, 4776.356
778.3791, 4909.383
778.8612, 5045.228
779.3433, 5150.113
779.8254, 5276.663
780.3076, 5477.688
780.7897, 5740.755
781.2718, 5952.074
781.7539, 6061.715
782.2360, 6180.565
782.7181, 6352.452
783.2003, 6570.049
783.6824, 6753.136
784.1645, 6899.543
784.6466, 7028.639
785.1287, 7142.725
785.6108, 7251.009
786.0930, 7369.053
786.5751, 7498.288
787.0572, 7640.323
787.5393, 7802.762
788.0214, 7972.368
788.5035, 8128.849
788.9857, 8262.423
789.4678, 8469.243
789.9499, 8770.021
790.4320, 9117.166
790.9141, 9482.651
791.3962, 9860.290
791.8784, 10302.40
792.3605, 10803.04
792.8426, 11417.64
793.3247, 12223.55
793.8068, 13164.22
794.2889, 14159.59
794.7711, 15191.14
795.2531, 16350.40
795.7352, 17719.43
796.2173, 19202.56
796.6995, 20744.38
797.1816, 22316.10
797.6637, 23985.01
798.1458, 25751.71
798.6279, 27652.77
799.1100, 29710.11
799.5922, 31917.78
800.0743, 34247.18
800.5564, 36686.86
801.0385, 39231.29
801.5206, 41908.49
802.0027, 44673.28
802.4849, 47482.19
802.9670, 50356.39
803.4491, 53174.36
803.9312, 56046.18
804.4133, 58740.23
804.8954, 61086.40
805.3776, 63130.89
805.8597, 64678.73
806.3418, 65676.84
806.8239, 66249.39
807.3060, 66463.16
807.7881, 66371.52
808.2703, 66222.08
808.7524, 66062.52
809.2345, 65837.25
809.7166, 65382.50
810.1987, 64878.50
810.6808, 64563.93
811.1630, 64727.66
811.6451, 64697.50
812.1272, 64369.74
812.6093, 63800.86
813.0914, 63061.95
813.5735, 62185.91
814.0557, 60973.27
814.5378, 59412.59
815.0199, 57502.53
815.5020, 55217.36
815.9841, 52605.13
816.4662, 49784.53
816.9484, 46719.37
817.4305, 43589.62
817.9126, 40503.08
818.3947, 37485.45
818.8768, 34594.46
819.3589, 31839.74
819.8411, 29262.50
820.3232, 26855.20
820.8053, 24627.44
821.2874, 22628.98
821.7695, 20860.21
822.2516, 19251.80
822.7338, 17787.64
823.2159, 16449.14
823.6980, 15239.76
824.1801, 14142.55
824.6622, 13154.80
825.1443, 12281.45
825.6265, 11488.71
826.1086, 10781.31
826.5907, 10141.43
827.0728, 9549.602
827.5549, 9007.786
828.0370, 8493.636
828.5192, 8003.064
829.0013, 7539.995
829.4834, 7133.977
829.9655, 6773.923
830.4476, 6433.446
830.9297, 6098.610
831.4119, 5786.041
831.8940, 5516.326
832.3761, 5275.256
832.8582, 5045.062
833.3403, 4828.338
833.8224, 4616.038
834.3046, 4402.035
834.7867, 4196.083
835.2688, 4015.377
835.7509, 3860.923
836.2330, 3714.144
836.7151, 3571.838
837.1973, 3432.489
837.6794, 3287.656
838.1615, 3142.681
838.6436, 3007.843
839.1257, 2889.377
839.6078, 2776.329
840.0900, 2658.787
840.5721, 2544.892
841.0542, 2444.216
841.5363, 2363.563
842.0184, 2285.818
842.5005, 2210.304
842.9827, 2136.047
843.4648, 2061.650
843.9469, 1987.350
844.4290, 1914.854
844.9111, 1846.827
845.3932, 1775.524
845.8754, 1687.168
846.3575, 1592.759
846.8396, 1508.092
847.3217, 1440.064
847.8038, 1382.736
848.2859, 1343.678
848.7681, 1307.016
849.2502, 1252.220
849.7323, 1176.001
850.2144, 1111.613
850.6965, 1065.835
851.1786, 1025.198
851.6608, 968.1438
852.1429, 904.0889
852.6250, 850.4326
853.1071, 815.9473
853.5892, 782.0779
854.0714, 732.7378
854.5535, 681.2905
855.0356, 645.8813
855.5177, 642.1965
855.9998, 622.1326
856.4819, 578.4153
856.9641, 529.0066
857.4462, 497.7239
857.9283, 480.2720
858.4104, 458.0381
858.8925, 427.4290
859.3746, 395.3108
859.8568, 369.8845
860.3389, 343.8152
860.8210, 307.9495
861.3030, 247.5076
861.7852, 210.7937
862.2673, 217.8601
862.7494, 230.7737
863.2315, 212.4036
863.7136, 161.0947
864.1957, 135.2590
864.6779, 140.0183
865.1600, 149.8965
865.6421, 141.6299
866.1242, 124.0430
866.6063, 108.7874
867.0884, 97.70605
867.5706, 88.39136
868.0527, 81.40942
868.5348, 74.74316
869.0169, 68.25635
869.4990, 63.83179
869.9811, 49.10547
870.4633, 20.49829
870.9454, 6.394043
871.4275, 17.72534
871.9096, 18.08618
872.3917, 17.14941
872.8738, 14.99390
873.3560, 12.24805
873.8381, 8.642334
874.3202, 6.522217
874.8023, 6.080200
875.2844, 7.039917
875.7665, 14.03784
876.2487, 32.02649
876.7308, 46.56006
877.2129, 48.03259
877.6950, 39.29138
878.1771, 35.79639
878.6592, 37.22400
879.1414, 40.84192
879.6235, 47.03491
880.1056, 52.76367
880.5877, 57.06445
881.0698, 59.66858
881.5519, 56.37061
882.0341, 36.87439
882.5162, 23.07166
882.9983, 23.32019
883.4804, 34.04614
883.9625, 39.08252
884.4446, 38.65979
884.9268, 35.54199
885.4089, 29.69873
885.8910, 22.44446
886.3731, 14.43115
886.8552, 6.794067
887.3373, 2.287964
887.8195, 6.585205
888.3016, 8.590332
888.7837, 2.123779
889.2658, 7.657837
889.7479, 6.575684
890.2300, 6.852173
890.7122, 17.58362
891.1943, 21.41162
891.6764, 21.46973
892.1585, 19.42090
892.6406, 17.44788
893.1227, 20.94470
893.6049, 40.20935
894.0870, 52.70679
894.5691, 41.60168
895.0512, 22.31482
895.5333, 17.00073
896.0154, 30.26257
896.4976, 43.49304
896.9797, 56.22131
897.4618, 64.12683
897.9439, 56.30542
898.4260, 39.07629
898.9081, 28.57922
899.3903, 29.15869
899.8724, 31.98706
900.3545, 32.34668
900.8366, 32.35925
901.3187, 34.37329
901.8008, 40.69995
902.2830, 43.21887
902.7651, 41.84839
903.2472, 37.15161
903.7293, 24.82776
904.2114, 9.201782
904.6935, 11.96960
905.1757, 34.07849
905.6578, 51.65698
906.1399, 42.50366
906.6220, 25.78406
907.1041, 15.31104
907.5862, 12.92212
908.0684, 12.06348
908.5505, 13.53760
909.0326, 14.43811
909.5147, 12.66956
909.9968, 9.285767
910.4789, 11.77820
910.9611, 18.99512
911.4432, 20.09253
911.9253, 1.144043
912.4074, 20.24976
912.8895, 30.40161
913.3716, 30.96069
913.8538, 30.93030
914.3359, 30.50098
914.8180, 31.40894
915.3001, 34.43152
915.7822, 38.76764
916.2643, 41.03156
916.7465, 41.94092
917.2286, 47.52271
917.7107, 62.82562
918.1928, 78.72009
918.6749, 87.43591
919.1570, 90.81421
919.6392, 91.86896
920.1213, 90.85394
920.6034, 87.57782
921.0855, 78.22308
921.5676, 70.87756
922.0497, 79.83929
922.5319, 103.4935
923.0140, 116.0137
923.4961, 112.2967
923.9782, 105.3513
924.4603, 104.3754
924.9424, 108.3680
925.4246, 117.5443
925.9067, 134.8801
926.3888, 146.7088
926.8708, 149.0609
927.3530, 148.8100
927.8351, 149.3109
928.3172, 150.5534
928.7993, 157.7054
929.2814, 170.8204
929.7635, 179.3514
930.2457, 167.0723
930.7278, 151.8442
931.2099, 155.3396
931.6920, 176.3027
932.1741, 191.2565
932.6563, 189.2023
933.1384, 187.5825
933.6205, 191.4950
934.1026, 199.4502
934.5847, 206.8842
935.0668, 213.9982
935.5490, 220.1060
936.0311, 225.1938
936.5132, 228.3042
936.9953, 225.0569
937.4774, 219.5323
937.9595, 220.3234
938.4417, 240.1591
938.9238, 252.3823
939.4059, 252.0124
939.8880, 245.7650
940.3701, 239.9722
940.8522, 234.8461
941.3344, 240.5784
941.8165, 261.6767
942.2986, 281.0640
942.7807, 277.7791
943.2628, 266.1281
943.7449, 262.1530
944.2271, 270.6807
944.7092, 280.7396
945.1913, 293.4164
945.6734, 303.9932
946.1555, 308.4207
946.6376, 307.3752
947.1198, 307.3544
947.6019, 308.2894
948.0840, 312.5150
948.5661, 325.3907
949.0482, 339.7272
949.5303, 349.5276
950.0125, 354.7833
950.4946, 358.6002
950.9767, 360.4475
951.4588, 361.2039
951.9409, 360.8400
952.4230, 361.4726
952.9052, 367.6414
953.3873, 377.8761
953.8694, 385.6890
954.3515, 386.7379
954.8336, 387.8346
955.3157, 395.8187
955.7979, 407.8270
956.2800, 418.2205
956.7621, 421.5138
957.2442, 430.8579
957.7263, 449.4950
958.2084, 469.4562
958.6906, 480.0745
959.1727, 483.5171
959.6548, 488.8857
960.1369, 497.7455
960.6190, 506.5309
961.1011, 513.5516
961.5833, 519.2911
962.0654, 521.6370
962.5475, 517.7340
963.0296, 525.7050
963.5117, 551.7408
963.9938, 574.6844
964.4760, 581.4750
964.9581, 575.8389
965.4402, 566.3126
965.9223, 553.6131
966.4044, 541.3585
966.8865, 534.8915
967.3687, 526.3876
967.8508, 509.7716
968.3329, 488.1536
968.8150, 471.6252
969.2971, 462.1268
969.7792, 452.0518
970.2614, 439.6109
970.7435, 425.3520
971.2256, 408.3168
971.7077, 390.5618
972.1898, 376.1108
972.6719, 367.2847
973.1541, 359.2584
973.6362, 350.2473
974.1183, 341.3352
974.6004, 333.3641
975.0825, 326.5751
975.5646, 320.4948
976.0468, 315.0568
976.5289, 310.2510
977.0110, 306.3078
977.4931, 302.7388
977.9752, 299.3722
978.4573, 295.9396
978.9395, 290.8743
979.4216, 279.1985
979.9037, 272.5593
980.3858, 276.9747
980.8679, 287.2557
981.3500, 287.8726
981.8322, 279.2081
982.3143, 270.6349
982.7964, 265.6976
983.2785, 261.5015
983.7606, 254.2310
984.2427, 246.3197
984.7249, 241.1941
985.2070, 242.0568
985.6891, 242.0341
986.1712, 242.0069
986.6533, 239.8207
987.1354, 230.3712
987.6176, 216.2582
988.0997, 210.9828
988.5818, 215.1779
989.0639, 221.2739
989.5460, 227.3350
990.0281, 230.9142
990.5103, 228.3792
990.9924, 220.1910
991.4745, 216.2966
991.9566, 217.7583
992.4387, 220.4400
992.9208, 224.1229
993.4029, 226.5612
993.8850, 220.1298
994.3671, 208.6688
994.8492, 202.6150
995.3314, 211.5083
995.8135, 218.5588
996.2956, 218.0774
996.7777, 213.1733
997.2598, 206.3090
997.7419, 196.6519
998.2241, 190.0481
998.7062, 187.3195
999.1883, 185.5106
999.6704, 181.0112
1000.153, 176.4086
1000.635, 174.6328
1001.117, 175.8787
1001.599, 178.2460
1002.081, 184.8685
1002.563, 188.0201
1003.045, 183.5208
1003.527, 173.9769
1004.009, 170.9153
1004.492, 173.4341
1004.974, 174.7601
1005.456, 171.3436
1005.938, 166.6177
1006.420, 162.0081
1006.902, 158.2711
1007.384, 156.6110
1007.866, 158.2077
1008.349, 159.2941
1008.831, 160.2767
1009.313, 159.4203
1009.795, 152.6751
1010.277, 143.1205
1010.759, 138.9548
1011.241, 140.8405
1011.723, 142.4662
1012.205, 138.2141
1012.688, 135.3053
1013.170, 139.3126
1013.652, 148.3861
1014.134, 150.5396
1014.616, 145.2386
1015.098, 139.4348
1015.580, 135.1743
1016.062, 132.7135
1016.544, 134.6843
1017.027, 138.1295
1017.509, 137.9489
1017.991, 127.2087
1018.473, 120.8210
1018.955, 121.2978
1019.437, 124.0653
1019.919, 123.8471
1020.401, 121.5051
1020.884, 125.1168
1021.366, 135.2054
1021.848, 140.1500
1022.330, 122.6590
1022.812, 104.9282
1023.294, 105.8873
1023.776, 123.5873
1024.258, 128.2758
1024.740, 116.7252
1025.223, 103.8872
1025.705, 93.16705
1026.187, 85.75128
1026.669, 85.92871
1027.151, 90.59998
1027.633, 92.94495
1028.115, 88.15094
1028.597, 86.22552
1029.079, 91.67902
1029.562, 99.20508
1030.044, 106.0212
1030.526, 112.2840
1031.008, 110.0490
1031.490, 99.18445
1031.972, 89.32336
1032.454, 87.96191
1032.936, 90.07343
1033.419, 92.55176
1033.901, 94.95911
1034.383, 95.99084
1034.865, 95.61200
1035.347, 94.03699
1035.829, 91.31213
1036.311, 87.46472
1036.793, 80.67908
1037.276, 73.05164
1037.758, 70.64355
1038.240, 76.85168
1038.722, 81.64630
1039.204, 77.88892
1039.686, 73.65149
1040.168, 75.91461
1040.650, 85.05292
1041.132, 83.95361
1041.615, 72.40277
1042.097, 62.27155
1042.579, 63.86145
1043.061, 68.02240
1043.543, 64.40332
1044.025, 56.06403
1044.507, 52.33344
1044.989, 56.05328
1045.471, 62.52661
1045.954, 73.02234
1046.436, 82.17706
1046.918, 82.25287
1047.400, 75.40717
1047.882, 65.84698
1048.364, 53.71802
1048.846, 44.95886
1049.328, 44.73981
1049.811, 47.06720
1050.293, 49.22235
1050.775, 50.92450
1051.257, 49.11884
1051.739, 43.71692
1052.221, 39.00104
1052.703, 37.69446
1053.185, 36.96838
1053.667, 31.77576
1054.150, 25.53088
1054.632, 24.07977
1055.114, 34.72308
1055.596, 39.83301
1056.078, 38.04059
1056.560, 33.19623
1057.042, 27.20477
1057.524, 21.38593
1058.006, 20.22302
1058.489, 23.55164
1058.971, 26.95111
1059.453, 29.28619
1059.935, 29.96698
1060.417, 28.64404
1060.899, 25.63611
1061.381, 20.58325
1061.863, 13.59259
1062.346, 11.43494
1062.828, 17.37885
1063.310, 23.37610
1063.792, 18.67859
1064.274, 11.09784
1064.756, 10.18549
1065.238, 21.16644
1065.720, 25.37506
1066.203, 21.45966
1066.685, 14.73425
1067.167, 5.989807
1067.649, 2.087402
1068.131, 1.641235
1068.613, 5.361633
1069.095, 12.09112
1069.577, 17.66895
1070.059, 19.92920
1070.542, 17.02167
1071.024, 12.01746
1071.506, 8.399170
1071.988, 5.905334
1072.470, 5.486511
1072.952, 7.464233
1073.434, 8.941956
1073.916, 5.986938
1074.398, 2.994263
1074.881, 4.108398
1075.363, 9.605957
1075.845, 13.35577
1076.327, 14.81256
1076.809, 13.65796
1077.291, 10.32623
1077.773, 5.513306
1078.255, 3.050415
1078.738, 11.30090
1079.220, 11.48615
1079.702, 3.660034
1080.184, 13.07092
1080.666, 12.08136
1081.148, 8.635803
1081.630, 8.189880
1082.112, 9.836426
1082.594, 8.746094
1083.077, 5.278015
1083.559, 1.799927
1084.041, 1.136353
1084.523, 2.806641
1085.005, 2.687500
1085.487, 1.221802
1085.969, 1.921814
1086.451, 7.344971
1086.933, 7.569336
1087.416, 0.8940430
1087.898, 4.847534
1088.380, 4.3823000E-02
1088.862, 7.909607
1089.344, 12.04089
1089.826, 11.69714
1090.308, 9.522766
1090.790, 3.750977
1091.272, 1.847046
1091.755, 7.653381
1092.237, 15.93402
1092.719, 17.02881
1093.201, 13.36932
1093.683, 10.12347
1094.165, 9.058838
1094.647, 7.186340
1095.129, 2.514038
1095.612, 1.644287
1096.094, 3.106995
1096.576, 2.149475
1097.058, 0.4541020
1097.540, 1.749329
1098.022, 2.825073
1098.504, 0.7986450
1098.986, 1.464600
1099.469, 3.382080
1099.951, 4.172668
1100.433, 1.838806
1100.915, 4.706177
1101.397, 6.055176
1101.879, 0.8767700
1102.361, 5.209106
1102.843, 9.417114
1103.325, 10.39758
1103.807, 5.219055
1104.290, 5.565979
1104.772, 14.08429
1105.254, 21.35272
1105.736, 21.88342
1106.218, 11.88458
1106.700, 0.4571530
1107.182, 0.4664310
1107.664, 6.303223
1108.147, 8.784851
1108.629, 3.162170
1109.111, 1.6235000E-02
1109.593, 4.248413
1110.075, 8.253235
1110.557, 7.427185
1111.039, 3.772766
1111.521, 8.521179
1112.004, 19.24011
1112.486, 24.16608
1112.968, 11.35486
1113.450, 1.765869
1113.932, 8.986023
1114.414, 20.44940
1114.896, 22.68036
1115.378, 14.84271
1115.860, 7.686523
1116.343, 1.388123
1116.825, 1.503601
1117.307, 1.481384
1117.789, 8.097168
1118.271, 19.26367
1118.753, 32.46204
1119.235, 38.49530
1119.717, 34.85931
1120.199, 32.35986
1120.682, 32.83978
1121.164, 34.29150
1121.646, 35.46985
1122.128, 35.52692
1122.610, 33.17096
1123.092, 28.26520
1123.574, 22.59760
1124.056, 15.03406
1124.539, 9.467041
1125.021, 7.375000
1125.503, 7.553406
1125.985, 8.253845
1126.467, 9.302917
1126.949, 10.41357
1127.431, 12.38739
1127.913, 11.57397
1128.396, 1.860962
1128.878, 5.452454
1129.360, 2.800476
1129.842, 8.117981
1130.324, 19.20630
1130.806, 29.27991
1131.288, 31.60211
1131.770, 16.12238
1132.252, 0.2382200
1132.734, 13.62219
1133.217, 21.07904
1133.699, 17.22858
1134.181, 0.8140260
1134.663, 8.330627
1135.145, 9.358215
1135.627, 8.419556
1136.109, 8.074036
1136.591, 9.094482
1137.074, 15.07043
1137.556, 23.68207
1138.038, 25.10114
1138.520, 17.30304
1139.002, 10.87842
1139.484, 7.494019
1139.966, 5.934692
1140.448, 6.313354
1140.931, 6.921570
1141.413, 4.778076
1141.895, 0.3714600
1142.377, 0.9073490
1142.859, 6.511108
1143.341, 10.30957
1143.823, 5.662781
1144.305, 1.743958
1144.787, 2.572205
1145.270, 0.7901610
1145.752, 3.872864
1146.234, 5.146912
1146.716, 9.419861
1147.198, 20.01172
1147.680, 28.68658
1148.162, 30.22485
1148.644, 27.36731
1149.126, 29.71368
1149.609, 35.11548
1150.091, 36.51166
1150.573, 26.31665
1151.055, 19.92102
1151.537, 24.97302
1152.019, 31.14966
1152.501, 28.37616
1152.983, 18.34375
1153.466, 18.65350
1153.948, 27.91028
1154.430, 34.23083
1154.912, 26.76166
1155.394, 19.66412
1155.876, 20.45270
1156.358, 24.51276
1156.840, 26.56079
1157.322, 26.57446
1157.805, 22.60876
1158.287, 14.52594
1158.769, 8.457520
1159.251, 11.63147
1159.733, 15.84515
1160.215, 13.56830
1160.697, 7.740051
1161.179, 9.065491
1161.661, 18.52057
1162.144, 24.17310
1162.626, 23.22137
1163.108, 21.08527
1163.590, 23.97760
1164.072, 27.37036
1164.554, 27.00018
1165.036, 22.62805
1165.518, 15.69727
1166.000, 5.070068
1166.483, 1.386963
1166.965, 0.6947020
1167.447, 3.806702
1167.929, 11.11157
1168.411, 18.15381
1168.893, 21.59045
1169.375, 20.89380
1169.857, 13.69055
1170.340, 2.789673
1170.822, 15.22467
1171.304, 15.64984
1171.786, 9.698914
1172.268, 3.826965
1172.750, 1.414795
1173.232, 5.032837
1173.714, 6.744019
1174.197, 5.978638
1174.679, 1.273560
1175.161, 2.016418
1175.643, 1.481201
1176.125, 8.298950
1176.607, 11.61084
1177.089, 12.28857
1177.571, 12.86871
1178.053, 13.75726
1178.536, 15.44153
1179.018, 18.58466
1179.500, 21.21027
1179.982, 20.64630
1180.464, 18.30444
1180.946, 17.80707
1181.428, 18.91479
1181.910, 19.09485
1182.392, 15.37750
1182.875, 13.74737
1183.357, 16.74536
1183.839, 19.94556
1184.321, 14.34662
1184.803, 4.316956
1185.285, 4.990662
1185.767, 17.32745
1186.249, 24.44324
1186.732, 11.45471
1187.214, 1.154785
1187.696, 8.5083000E-02
1188.178, 5.594849
1188.660, 15.89355
1189.142, 28.34863
1189.624, 33.04749
1190.106, 27.49176
1190.589, 20.81537
1191.071, 14.41553
1191.553, 12.77240
1192.035, 20.63824
1192.517, 32.48108
1192.999, 29.82007
1193.481, 16.86108
1193.963, 12.37549
1194.445, 23.91663
1194.927, 34.33075
1195.410, 35.43872
1195.892, 32.37103
1196.374, 25.32050
1196.856, 16.95068
1197.338, 26.21521
1197.820, 48.28754
1198.302, 58.21375
1198.784, 39.78821
1199.267, 22.09265
1199.749, 19.23096
1200.231, 22.94916
1200.713, 28.96155
1201.195, 36.67102
1201.677, 40.57385
1202.159, 40.68463
1202.641, 37.30621
1203.124, 25.53339
1203.606, 17.34546
1204.088, 21.25000
1204.570, 29.20844
1205.052, 34.41406
1205.534, 36.92981
1206.016, 36.57489
1206.498, 33.85010
1206.980, 33.54456
1207.463, 43.09296
1207.945, 50.32904
1208.427, 47.75684
1208.909, 40.73541
1209.391, 33.76318
1209.873, 27.04883
1210.355, 25.09607
1210.837, 27.88666
1211.319, 31.41656
1211.802, 34.19672
1212.284, 35.83521
1212.766, 34.39905
1213.248, 32.76556
1213.730, 35.66785
1214.212, 42.80438
1214.694, 50.77521
1215.176, 59.24365
1215.659, 61.37958
1216.141, 44.27045
1216.623, 28.97717
1217.105, 27.22766
1217.587, 33.94952
1218.069, 41.46875
1218.551, 49.30524
1219.033, 52.06879
1219.516, 48.81427
1219.998, 43.77203
1220.480, 34.62250
1220.962, 30.24878
1221.444, 38.76031
1221.926, 53.39099
1222.408, 55.58746
1222.890, 47.07489
1223.372, 43.28418
1223.854, 47.54163
1224.337, 52.12836
1224.819, 54.10468
1225.301, 52.97369
1225.783, 46.53674
1226.265, 37.87952
1226.747, 39.23120
1227.229, 48.47986
1227.711, 52.70898
1228.193, 47.52441
1228.676, 42.34991
1229.158, 44.01709
1229.640, 47.15778
1230.122, 48.22345
1230.604, 48.26495
1231.086, 52.44263
1231.568, 59.65924
1232.050, 65.46869
1232.533, 70.29187
1233.015, 67.51233
1233.497, 42.46857
1233.979, 21.50677
1234.461, 21.10083
1234.943, 35.31836
1235.425, 41.20917
1235.907, 40.03815
1236.390, 36.36243
1236.872, 30.01770
1237.354, 26.21094
1237.836, 27.69373
1238.318, 31.04266
1238.800, 35.17096
1239.282, 39.77350
1239.764, 44.88885
1240.246, 49.44891
1240.729, 49.55310
1241.211, 39.76416
1241.693, 33.72119
1242.175, 35.15643
1242.657, 40.30560
1243.139, 48.33844
1243.621, 57.77753
1244.103, 64.96356
1244.585, 69.02820
1245.068, 67.16553
1245.550, 52.93292
1246.032, 42.19666
1246.514, 37.41925
1246.996, 35.12140
1247.478, 33.17078
1247.960, 31.65588
1248.442, 30.26752
1248.925, 29.52155
1249.407, 30.88287
1249.889, 39.26727
1250.371, 41.82556
1250.853, 34.91931
1251.335, 29.73468
1251.817, 39.39709
1252.299, 54.60358
1252.781, 58.52032
1253.264, 53.65704
1253.746, 46.69470
1254.228, 33.92279
1254.710, 30.68811
1255.192, 40.37640
1255.674, 48.95740
1256.156, 39.43121
1256.638, 25.34625
1257.120, 28.77130
1257.603, 42.98230
1258.085, 47.54419
1258.567, 34.55603
1259.049, 28.52820
1259.531, 31.66254
1260.013, 36.04083
1260.495, 34.70087
1260.977, 31.60907
1261.460, 30.31268
1261.942, 30.72528
1262.424, 32.37408
1262.906, 35.55768
1263.388, 37.73328
1263.870, 38.64117
1264.352, 39.91138
1264.834, 46.73157
1265.317, 50.74243
1265.799, 41.29816
1266.281, 25.07056
1266.763, 16.66791
1267.245, 16.28931
1267.727, 21.92133
1268.209, 33.38422
1268.691, 42.03308
1269.173, 40.54120
1269.656, 35.46167
1270.138, 27.62280
1270.620, 20.45502
1271.102, 20.92548
1271.584, 28.13104
1272.066, 28.35443
1272.548, 20.96368
1273.030, 16.00220
1273.512, 23.43427
1273.995, 29.87299
1274.477, 29.81689
1274.959, 26.53418
1275.441, 23.49139
1275.923, 21.25574
1276.405, 23.55725
1276.887, 30.15234
1277.369, 34.83325
1277.852, 34.75684
1278.334, 32.00757
1278.816, 25.62183
1279.298, 19.47382
1279.780, 20.09418
1280.262, 24.40411
1280.744, 25.31219
1281.226, 22.71802
1281.708, 20.00342
1282.191, 16.78082
1282.673, 16.42438
1283.155, 20.47052
1283.637, 24.50610
1284.119, 22.40155
1284.601, 17.58801
1285.083, 14.72437
1285.565, 13.80481
1286.047, 11.90576
1286.530, 7.039673
1287.012, 8.268005
1287.494, 18.07233
1287.976, 27.10596
1288.458, 25.19250
1288.940, 18.74683
1289.422, 11.72729
1289.904, 5.704956
1290.386, 5.355469
1290.869, 11.49548
1291.351, 15.29480
1291.833, 15.57654
1292.315, 13.95319
1292.797, 10.96545
1293.279, 7.228455
1293.761, 1.788696
1294.243, 3.524597
1294.726, 5.062256
1295.208, 3.025024
1295.690, 1.234558
1296.172, 7.462524
1296.654, 11.37427
1297.136, 6.081848
1297.618, 3.707764
1298.100, 10.37573
1298.583, 19.69867
1299.065, 20.76910
1299.547, 16.18048
1300.029, 13.32214
1300.511, 12.81232
1300.993, 13.36023
1301.475, 15.32861
1301.957, 17.23560
1302.439, 19.04565
1302.922, 20.27423
1303.404, 20.22632
1303.886, 18.10657
1304.368, 12.88696
1304.850, 9.834045
1305.332, 9.309265
1305.814, 13.14539
1306.296, 14.01471
1306.778, 10.35504
1307.261, 6.752991
1307.743, 9.756165
1308.225, 13.19800
1308.707, 8.265930
1309.189, 0.7341310
1309.671, 1.033691
1310.153, 14.85767
1310.635, 23.39056
1311.118, 25.34070
1311.600, 14.14044
1312.082, 9.155029
1312.564, 2.913208
1313.046, 0.0000000E+00
##END=



