##NAMES=Minasgeraisite-(Y)
##RRUFFID=R120134
##IDEAL CHEMISTRY=CaY_2_Be_2_Si_2_O_10_
##LOCALITY=Jaguara√ßu, Minas Gerais, Brazil
##OWNER=RRUFF
##SOURCE=Luiz Menezes
##DESCRIPTION=Purple crystals on muscovite, associated with milarite R120135
##STATUS=The identification of this mineral has been confirmed only by single crystal X-ray diffraction.
##URL=rruff.info/R120134
110.9664, 0.0000000E+00
111.4485, 3.414307
111.9306, 2.502686
112.4127, 0.5578610
112.8948, 0.9704590
113.3769, 0.2199710
113.8591, 1.627197
114.3412, 3.262695
114.8233, 4.566895
115.3054, 5.141846
115.7875, 5.440430
116.2696, 5.738281
116.7517, 6.075928
117.2339, 6.662354
117.7160, 7.960693
118.1981, 9.313965
118.6802, 12.18506
119.1623, 17.28467
119.6444, 24.19702
120.1266, 32.17896
120.6087, 41.64331
121.0908, 51.18750
121.5729, 58.50977
122.0550, 63.20142
122.5371, 66.31763
123.0193, 68.34912
123.5014, 69.19336
123.9835, 69.81323
124.4656, 69.41577
124.9477, 69.47363
125.4298, 71.84399
125.9120, 77.85522
126.3941, 85.64526
126.8762, 90.73438
127.3583, 91.25806
127.8404, 92.17383
128.3225, 95.31543
128.8047, 99.67407
129.2868, 104.1165
129.7689, 108.1987
130.2510, 111.7876
130.7331, 112.7312
131.2152, 106.8855
131.6974, 102.2585
132.1795, 100.7683
132.6616, 102.1824
133.1437, 105.4702
133.6258, 109.9041
134.1079, 115.7744
134.5901, 121.0098
135.0722, 125.3936
135.5543, 129.4778
136.0364, 133.5417
136.5185, 137.6221
137.0006, 141.5764
137.4828, 145.0371
137.9649, 147.8118
138.4470, 151.6768
138.9291, 158.2407
139.4112, 165.3489
139.8933, 169.9592
140.3755, 170.9116
140.8576, 171.2056
141.3397, 175.0791
141.8218, 182.1550
142.3039, 189.2666
142.7860, 195.0696
143.2681, 199.8464
143.7503, 204.7034
144.2324, 210.0081
144.7145, 215.2419
145.1966, 219.7458
145.6787, 223.5107
146.1608, 227.5608
146.6430, 232.9697
147.1251, 239.9082
147.6072, 246.5942
148.0893, 253.0928
148.5714, 259.0078
149.0535, 263.6392
149.5357, 266.9199
150.0178, 270.0903
150.4999, 275.1304
150.9820, 283.3132
151.4641, 290.7444
151.9462, 296.8916
152.4284, 302.4282
152.9105, 308.3813
153.3926, 315.0249
153.8747, 321.2935
154.3568, 324.4155
154.8389, 320.2551
155.3211, 317.6475
155.8032, 317.4253
156.2853, 318.8289
156.7674, 321.1565
157.2495, 324.1230
157.7316, 327.4612
158.2138, 330.0105
158.6959, 330.8203
159.1780, 332.0112
159.6601, 334.2400
160.1422, 337.2383
160.6243, 340.5469
161.1065, 344.1587
161.5886, 347.6562
162.0707, 349.4431
162.5528, 348.6633
163.0349, 347.1873
163.5170, 346.0662
163.9991, 345.4695
164.4813, 345.5996
164.9634, 347.3708
165.4455, 350.3215
165.9276, 352.3264
166.4097, 352.6575
166.8918, 353.1636
167.3740, 353.3152
167.8561, 353.3892
168.3382, 353.3445
168.8203, 351.9485
169.3024, 350.2725
169.7845, 349.2314
170.2667, 349.5898
170.7488, 350.6013
171.2309, 350.4333
171.7130, 348.7185
172.1951, 346.3069
172.6772, 343.0020
173.1594, 339.4436
173.6415, 336.5415
174.1236, 334.8877
174.6057, 334.3389
175.0878, 334.0969
175.5699, 335.6011
176.0521, 335.7017
176.5342, 332.7427
177.0163, 327.8804
177.4984, 323.2102
177.9805, 320.3584
178.4626, 319.3413
178.9448, 317.1484
179.4269, 312.6550
179.9090, 308.0920
180.3911, 303.7532
180.8732, 299.8396
181.3553, 296.8708
181.8375, 295.5947
182.3196, 296.4932
182.8017, 293.7327
183.2838, 284.2310
183.7659, 274.6228
184.2480, 268.7158
184.7301, 266.1873
185.2123, 263.8770
185.6944, 258.9185
186.1765, 250.8599
186.6586, 242.6948
187.1407, 234.1567
187.6228, 225.7698
188.1050, 217.9768
188.5871, 210.8445
189.0692, 203.9773
189.5513, 196.9812
190.0334, 189.9026
190.5155, 183.1411
190.9977, 176.3088
191.4798, 170.0701
191.9619, 165.7485
192.4440, 163.8999
192.9261, 161.8188
193.4082, 156.2085
193.8904, 148.0715
194.3725, 140.1401
194.8546, 132.8359
195.3367, 126.3394
195.8188, 121.4321
196.3009, 119.1816
196.7831, 116.2783
197.2652, 109.0115
197.7473, 98.99683
198.2294, 90.59229
198.7115, 87.22510
199.1936, 87.58252
199.6758, 85.91895
200.1579, 80.81763
200.6400, 75.36011
201.1221, 71.16138
201.6042, 67.95312
202.0863, 65.06982
202.5685, 61.91968
203.0506, 58.55078
203.5327, 56.00342
204.0148, 54.53540
204.4969, 53.74194
204.9790, 54.44604
205.4612, 55.79761
205.9433, 55.85181
206.4254, 52.49194
206.9075, 45.43408
207.3896, 40.47583
207.8717, 40.28784
208.3539, 39.86938
208.8360, 37.48315
209.3181, 33.46265
209.8002, 29.17651
210.2823, 25.93286
210.7644, 24.01025
211.2466, 20.84741
211.7287, 14.87598
212.2108, 9.279541
212.6929, 5.160645
213.1750, 2.558838
213.6571, 1.110840
214.1393, 0.6899410
214.6214, 1.653320
215.1035, 0.9973140
215.5856, 2.677490
216.0677, 6.336670
216.5498, 8.447754
217.0320, 9.058105
217.5141, 9.160889
217.9962, 9.602783
218.4783, 10.43213
218.9604, 11.28467
219.4425, 13.08350
219.9247, 14.20068
220.4068, 12.88403
220.8889, 9.435547
221.3710, 6.553955
221.8531, 7.062988
222.3352, 11.17065
222.8174, 12.19531
223.2995, 7.779541
223.7816, 2.071289
224.2637, 2.041992
224.7458, 4.390625
225.2279, 5.994629
225.7100, 7.679199
226.1922, 9.301025
226.6743, 10.13354
227.1564, 8.654541
227.6385, 7.289063
228.1206, 8.604004
228.6027, 12.77881
229.0849, 17.53662
229.5670, 21.49902
230.0491, 24.75439
230.5312, 27.57153
231.0133, 30.11157
231.4954, 32.15747
231.9776, 33.35596
232.4597, 33.63208
232.9418, 33.57251
233.4239, 32.58618
233.9060, 31.68604
234.3881, 32.64917
234.8703, 36.65332
235.3524, 42.09424
235.8345, 46.90625
236.3166, 51.01880
236.7987, 54.87134
237.2808, 59.72314
237.7630, 64.12549
238.2451, 65.90796
238.7272, 63.32129
239.2093, 59.39966
239.6914, 59.13843
240.1735, 63.41016
240.6557, 68.62842
241.1378, 74.72583
241.6199, 80.51807
242.1020, 84.43188
242.5841, 85.54639
243.0662, 85.77759
243.5484, 88.52148
244.0305, 94.50488
244.5126, 101.0479
244.9947, 108.6494
245.4768, 115.8901
245.9589, 121.2761
246.4410, 124.1982
246.9232, 125.6882
247.4053, 127.7793
247.8874, 131.3989
248.3695, 133.2949
248.8516, 130.6572
249.3337, 127.5564
249.8159, 127.4185
250.2980, 131.2412
250.7801, 137.0115
251.2622, 141.5693
251.7443, 144.7729
252.2264, 146.9463
252.7086, 147.1924
253.1907, 147.1160
253.6728, 148.0251
254.1549, 150.2891
254.6370, 153.1533
255.1191, 155.1467
255.6013, 155.0974
256.0834, 156.6531
256.5655, 162.0249
257.0476, 167.2817
257.5297, 169.2786
258.0118, 167.7480
258.4940, 165.3206
258.9761, 165.7578
259.4582, 170.5569
259.9403, 174.6465
260.4224, 179.0278
260.9045, 181.9387
261.3867, 181.3699
261.8688, 177.5850
262.3509, 173.2292
262.8330, 171.4165
263.3151, 173.3491
263.7972, 173.9707
264.2794, 171.6174
264.7615, 169.7683
265.2436, 170.5984
265.7257, 173.7629
266.2078, 177.3420
266.6899, 179.5195
267.1721, 180.0303
267.6542, 180.3594
268.1363, 180.7974
268.6184, 180.7451
269.1005, 179.9778
269.5826, 178.5496
270.0648, 176.5291
270.5469, 173.8208
271.0290, 170.2620
271.5111, 167.9033
271.9932, 168.0576
272.4753, 167.8906
272.9575, 165.7310
273.4396, 162.1257
273.9217, 158.8394
274.4038, 157.2302
274.8859, 157.2063
275.3680, 156.6672
275.8501, 155.6992
276.3322, 154.2097
276.8144, 151.8286
277.2965, 148.8372
277.7786, 146.1157
278.2607, 144.3735
278.7428, 143.3572
279.2249, 141.3240
279.7071, 136.5166
280.1892, 132.3372
280.6713, 131.4011
281.1534, 132.0300
281.6355, 130.5637
282.1176, 125.0808
282.5998, 116.8000
283.0819, 109.1013
283.5640, 101.3623
284.0461, 95.12305
284.5282, 90.82324
285.0103, 88.19556
285.4925, 87.18750
285.9746, 87.92847
286.4567, 89.44849
286.9388, 90.26514
287.4209, 90.58228
287.9030, 89.67407
288.3852, 86.12671
288.8673, 81.80200
289.3494, 79.32471
289.8315, 79.34741
290.3136, 79.84204
290.7957, 78.27173
291.2779, 74.36890
291.7600, 70.25879
292.2421, 65.80151
292.7242, 61.40137
293.2063, 57.23389
293.6884, 53.36792
294.1706, 50.35620
294.6527, 48.91162
295.1348, 49.11279
295.6169, 49.09888
296.0990, 48.72266
296.5811, 48.19580
297.0633, 47.76953
297.5454, 47.41235
298.0275, 46.86572
298.5096, 46.18091
298.9917, 45.08862
299.4738, 42.61157
299.9560, 37.01074
300.4381, 31.65161
300.9202, 28.88843
301.4023, 28.22461
301.8844, 27.11548
302.3665, 23.78442
302.8487, 19.44653
303.3308, 17.72852
303.8129, 19.95190
304.2950, 22.30981
304.7771, 22.95581
305.2592, 22.43018
305.7414, 22.19873
306.2235, 22.92139
306.7056, 23.98047
307.1877, 24.29736
307.6698, 24.08887
308.1519, 22.83032
308.6341, 19.37500
309.1162, 14.96460
309.5983, 12.02539
310.0804, 11.41187
310.5625, 11.35303
311.0446, 8.987305
311.5268, 4.134766
312.0089, 1.035889
312.4910, 1.685059
312.9731, 3.970459
313.4552, 5.567627
313.9373, 6.139404
314.4195, 6.122803
314.9016, 6.086182
315.3837, 5.892578
315.8658, 4.275879
316.3479, 0.4953610
316.8300, 5.588135
317.3121, 8.830811
317.7943, 10.17627
318.2764, 10.24487
318.7585, 9.060547
319.2406, 6.898926
319.7227, 5.261719
320.2048, 3.405029
320.6870, 2.729492
321.1691, 5.110840
321.6512, 9.582031
322.1333, 12.61670
322.6154, 12.23462
323.0975, 9.767334
323.5797, 8.733887
324.0618, 9.880615
324.5439, 10.55151
325.0260, 9.242432
325.5081, 6.888916
325.9902, 5.240723
326.4724, 4.866943
326.9545, 5.283447
327.4366, 6.194824
327.9187, 8.051025
328.4008, 8.079346
328.8829, 3.893799
329.3651, 1.511230
329.8472, 4.373291
330.3293, 4.037354
330.8114, 2.863525
331.2935, 3.002441
331.7756, 4.582520
332.2578, 6.822266
332.7399, 10.60718
333.2220, 14.31299
333.7041, 15.83276
334.1862, 15.58911
334.6683, 17.24219
335.1505, 24.15845
335.6326, 35.17603
336.1147, 41.58228
336.5968, 40.87256
337.0789, 38.90381
337.5610, 37.79321
338.0432, 37.31152
338.5253, 36.93848
339.0074, 36.55542
339.4895, 35.88403
339.9716, 33.95215
340.4537, 29.56250
340.9359, 26.29370
341.4180, 25.09058
341.9001, 25.28687
342.3822, 26.30273
342.8643, 27.96875
343.3464, 29.82031
343.8286, 31.44580
344.3107, 33.47607
344.7928, 32.73608
345.2749, 25.91382
345.7570, 18.58740
346.2391, 15.59619
346.7213, 16.97949
347.2034, 19.07349
347.6855, 18.63721
348.1676, 15.52271
348.6497, 12.70337
349.1318, 10.75928
349.6140, 8.505859
350.0961, 4.665527
350.5782, 0.1201170
351.0603, 3.063965
351.5424, 3.583740
352.0245, 1.999756
352.5067, 0.6708980
352.9888, 0.6496580
353.4709, 1.404297
353.9530, 0.3486330
354.4351, 0.8688960
354.9172, 0.1948240
355.3994, 4.300293
355.8815, 9.325684
356.3636, 11.62622
356.8457, 9.313232
357.3278, 7.923584
357.8099, 7.551758
358.2920, 7.899414
358.7741, 8.847168
359.2563, 10.34375
359.7384, 12.23413
360.2205, 14.34619
360.7026, 16.63843
361.1847, 19.37378
361.6668, 23.90063
362.1490, 27.58667
362.6311, 28.95874
363.1132, 28.84595
363.5953, 28.64941
364.0774, 29.12427
364.5595, 30.48340
365.0417, 33.70581
365.5238, 40.84473
366.0059, 47.03638
366.4880, 50.17554
366.9701, 52.81519
367.4522, 58.20703
367.9344, 67.19971
368.4165, 76.96045
368.8986, 82.84961
369.3807, 83.33960
369.8628, 83.64526
370.3449, 83.29321
370.8271, 83.76099
371.3092, 86.38062
371.7913, 90.69849
372.2734, 94.89062
372.7555, 97.20557
373.2376, 97.71631
373.7198, 98.74097
374.2019, 99.42651
374.6840, 101.4451
375.1661, 106.5400
375.6482, 113.2170
376.1303, 119.0527
376.6125, 122.8743
377.0946, 125.4805
377.5767, 128.3064
378.0588, 131.0718
378.5409, 134.8281
379.0230, 140.4705
379.5052, 146.4246
379.9873, 151.6658
380.4694, 156.1719
380.9515, 160.6362
381.4336, 165.8843
381.9157, 171.7542
382.3979, 176.0618
382.8800, 177.5664
383.3621, 178.8105
383.8442, 181.2524
384.3263, 184.7043
384.8084, 188.7737
385.2906, 193.7783
385.7727, 199.0459
386.2548, 203.2151
386.7369, 206.2732
387.2190, 209.4209
387.7011, 213.7622
388.1833, 218.0854
388.6654, 220.3965
389.1475, 219.2390
389.6296, 218.1335
390.1117, 220.4331
390.5938, 225.7539
391.0760, 231.3687
391.5581, 236.8105
392.0402, 241.6699
392.5223, 245.5012
393.0044, 248.3696
393.4865, 250.3604
393.9687, 251.1843
394.4508, 251.2627
394.9329, 251.2546
395.4150, 251.2644
395.8971, 251.0081
396.3792, 249.9299
396.8614, 248.1843
397.3435, 247.4678
397.8256, 248.1196
398.3077, 249.5427
398.7898, 251.9404
399.2719, 254.8926
399.7540, 257.1133
400.2361, 258.0156
400.7183, 257.6436
401.2004, 255.8574
401.6825, 251.1621
402.1646, 247.8525
402.6467, 247.4148
403.1288, 248.4141
403.6110, 249.6665
404.0931, 250.7910
404.5752, 251.1960
405.0573, 250.1958
405.5394, 247.7083
406.0215, 244.0198
406.5037, 238.1470
406.9858, 232.2195
407.4679, 226.6606
407.9500, 221.8821
408.4321, 218.8870
408.9142, 218.4614
409.3964, 219.7107
409.8785, 218.3364
410.3606, 210.9583
410.8427, 205.1802
411.3248, 201.9714
411.8069, 200.3701
412.2891, 199.5569
412.7712, 199.2754
413.2533, 199.5500
413.7354, 200.9111
414.2175, 204.3335
414.6996, 204.8689
415.1818, 200.2358
415.6639, 194.7515
416.1460, 189.1565
416.6281, 184.0132
417.1102, 180.3330
417.5923, 178.9817
418.0745, 179.3203
418.5566, 179.1357
419.0387, 178.2471
419.5208, 177.2527
420.0029, 176.2429
420.4850, 175.2876
420.9672, 174.6470
421.4493, 174.4121
421.9314, 173.8098
422.4135, 171.8696
422.8956, 168.6589
423.3777, 165.4414
423.8599, 162.1179
424.3420, 159.2769
424.8241, 157.4863
425.3062, 156.5369
425.7883, 155.6277
426.2704, 154.8176
426.7526, 153.6953
427.2347, 151.1833
427.7168, 147.1409
428.1989, 143.9727
428.6810, 143.0720
429.1631, 143.9219
429.6453, 145.1221
430.1274, 146.8726
430.6095, 148.4890
431.0916, 149.5615
431.5737, 150.2537
432.0558, 151.0017
432.5380, 151.9583
433.0201, 152.5183
433.5022, 151.5715
433.9843, 148.7300
434.4664, 147.9136
434.9485, 151.9734
435.4307, 155.5642
435.9128, 154.0020
436.3949, 148.7532
436.8770, 145.2810
437.3591, 146.9851
437.8412, 152.2432
438.3234, 155.0042
438.8055, 151.8931
439.2876, 150.8555
439.7697, 153.4106
440.2518, 157.5771
440.7339, 161.7798
441.2160, 165.6567
441.6982, 169.5942
442.1803, 174.2463
442.6624, 180.0642
443.1445, 182.9558
443.6266, 178.5071
444.1087, 175.5137
444.5909, 178.4336
445.0730, 184.4731
445.5551, 188.5608
446.0372, 187.8813
446.5193, 184.7461
447.0014, 184.5247
447.4836, 188.3860
447.9657, 191.7158
448.4478, 193.2412
448.9299, 194.2844
449.4120, 195.4771
449.8941, 196.9309
450.3763, 198.6785
450.8584, 201.5564
451.3405, 204.9033
451.8226, 205.5173
452.3047, 202.4280
452.7868, 198.8782
453.2690, 196.2241
453.7511, 194.4312
454.2332, 193.8948
454.7153, 195.6506
455.1974, 196.8069
455.6795, 193.5718
456.1617, 187.2769
456.6438, 184.1174
457.1259, 186.7002
457.6080, 191.1729
458.0901, 192.7100
458.5722, 191.4741
459.0544, 189.1309
459.5365, 185.1863
460.0186, 180.8589
460.5007, 177.2361
460.9828, 174.2881
461.4649, 171.5190
461.9471, 168.7563
462.4292, 165.7869
462.9113, 161.4995
463.3934, 154.5945
463.8755, 148.1782
464.3576, 142.4988
464.8398, 137.4307
465.3219, 133.1526
465.8040, 129.5164
466.2861, 125.7720
466.7682, 121.0828
467.2503, 115.2830
467.7325, 109.4612
468.2146, 103.2881
468.6967, 97.40674
469.1788, 91.32007
469.6609, 85.82910
470.1430, 82.25854
470.6252, 81.21851
471.1073, 81.78784
471.5894, 83.06445
472.0715, 85.93945
472.5536, 85.63135
473.0357, 78.03394
473.5179, 69.95532
474.0000, 65.52808
474.4821, 64.26685
474.9642, 63.03027
475.4463, 59.71655
475.9284, 55.30957
476.4106, 52.01636
476.8927, 50.05713
477.3748, 47.93384
477.8569, 44.67578
478.3390, 40.97314
478.8211, 37.83130
479.3033, 35.21631
479.7854, 33.42236
480.2675, 32.97144
480.7496, 33.33398
481.2317, 33.75806
481.7138, 34.13354
482.1959, 33.98389
482.6780, 32.96973
483.1602, 31.00635
483.6423, 27.82031
484.1244, 21.29370
484.6065, 15.91406
485.0886, 14.06006
485.5707, 14.43628
486.0529, 14.76758
486.5350, 14.18994
487.0171, 13.36670
487.4992, 13.63354
487.9813, 16.39136
488.4634, 16.21240
488.9456, 10.27319
489.4277, 4.623047
489.9098, 2.946533
490.3919, 3.953369
490.8740, 4.055664
491.3561, 0.8825680
491.8383, 3.933838
492.3204, 5.558350
492.8025, 2.418457
493.2846, 0.3920900
493.7667, 1.826416
494.2488, 3.961914
494.7310, 4.705811
495.2131, 4.101807
495.6952, 4.120361
496.1773, 6.888672
496.6594, 11.23071
497.1415, 13.67773
497.6237, 13.80176
498.1058, 13.82471
498.5879, 15.37085
499.0700, 17.46753
499.5521, 18.34888
500.0342, 17.97974
500.5164, 16.30859
500.9985, 12.16699
501.4806, 7.016602
501.9627, 3.608154
502.4448, 2.512207
502.9269, 2.200684
503.4091, 1.222900
503.8912, 0.4414060
504.3733, 1.528809
504.8554, 1.064453
505.3375, 1.186768
505.8196, 2.537354
506.3018, 4.996094
506.7839, 8.714600
507.2660, 13.67065
507.7481, 18.81665
508.2302, 22.38013
508.7123, 23.67065
509.1945, 25.88086
509.6766, 29.61304
510.1587, 33.66064
510.6408, 38.21387
511.1229, 42.65942
511.6050, 45.55835
512.0872, 45.72852
512.5693, 45.55469
513.0514, 50.08105
513.5335, 60.12183
514.0156, 68.68823
514.4977, 74.54346
514.9799, 78.03052
515.4620, 78.62524
515.9441, 76.86035
516.4262, 76.14648
516.9083, 78.65674
517.3904, 82.53882
517.8726, 85.50488
518.3547, 87.56201
518.8368, 89.52148
519.3189, 91.86426
519.8010, 94.20654
520.2831, 95.64575
520.7653, 96.04175
521.2474, 96.15161
521.7295, 96.23804
522.2116, 96.00415
522.6937, 94.83936
523.1758, 92.99512
523.6580, 91.51514
524.1401, 91.14746
524.6222, 91.83154
525.1043, 93.24683
525.5864, 96.58203
526.0685, 98.96240
526.5507, 99.34766
527.0328, 99.28540
527.5149, 100.0540
527.9970, 101.8044
528.4791, 103.9177
528.9612, 106.1741
529.4434, 108.4128
529.9255, 109.2439
530.4076, 107.9038
530.8897, 107.3201
531.3718, 108.9434
531.8539, 111.7688
532.3361, 114.9260
532.8182, 118.2781
533.3003, 121.7764
533.7824, 125.9573
534.2645, 130.2915
534.7466, 133.0247
535.2288, 133.8718
535.7109, 135.6489
536.1930, 140.4553
536.6751, 147.6035
537.1572, 154.0430
537.6393, 159.6338
538.1215, 165.0520
538.6036, 170.4390
539.0857, 175.7007
539.5678, 180.6387
540.0499, 185.4009
540.5320, 190.5037
541.0142, 196.4160
541.4963, 202.9402
541.9784, 208.1553
542.4605, 210.7842
542.9426, 213.8203
543.4247, 218.3545
543.9068, 223.4199
544.3889, 227.8796
544.8710, 231.4890
545.3531, 235.0591
545.8353, 239.5420
546.3174, 244.8757
546.7995, 250.2314
547.2816, 255.8142
547.7637, 260.8711
548.2458, 264.1631
548.7280, 266.7725
549.2101, 270.5085
549.6922, 275.8718
550.1743, 281.7656
550.6564, 288.6736
551.1385, 295.5090
551.6207, 299.5825
552.1028, 300.2803
552.5849, 300.1211
553.0670, 301.3672
553.5491, 304.0181
554.0313, 306.8496
554.5134, 310.4395
554.9955, 313.4404
555.4776, 315.3462
555.9597, 316.6294
556.4418, 317.7542
556.9240, 318.8552
557.4061, 320.0007
557.8882, 321.3806
558.3703, 323.0808
558.8524, 324.1223
559.3345, 324.8066
559.8167, 324.2441
560.2988, 321.5522
560.7809, 317.7573
561.2630, 314.1299
561.7451, 311.0388
562.2272, 307.7056
562.7094, 303.4775
563.1915, 298.4634
563.6736, 292.8259
564.1557, 286.3484
564.6378, 280.3083
565.1199, 276.0039
565.6021, 272.9038
566.0842, 268.5552
566.5663, 262.1533
567.0484, 255.7153
567.5305, 250.5059
568.0126, 245.4026
568.4948, 238.5315
568.9769, 229.8494
569.4590, 221.1367
569.9411, 214.3425
570.4232, 209.2698
570.9053, 202.7644
571.3875, 193.9255
571.8696, 184.7371
572.3517, 174.9084
572.8338, 165.2046
573.3159, 156.0854
573.7980, 147.6790
574.2802, 140.3586
574.7623, 135.4165
575.2444, 131.9397
575.7265, 125.7244
576.2086, 116.0972
576.6907, 106.5205
577.1729, 98.17432
577.6550, 91.28125
578.1371, 86.18530
578.6192, 83.18579
579.1013, 80.66211
579.5834, 79.08301
580.0656, 77.02783
580.5477, 72.41309
581.0298, 65.43213
581.5119, 57.86670
581.9940, 50.60522
582.4761, 44.03394
582.9583, 39.48608
583.4404, 38.80518
583.9225, 37.33667
584.4046, 34.41309
584.8867, 31.17236
585.3688, 28.44434
585.8510, 26.07910
586.3331, 23.45581
586.8152, 20.29346
587.2973, 16.42480
587.7794, 11.02710
588.2615, 3.632324
588.7437, 2.178955
589.2258, 5.215576
589.7079, 6.729980
590.1900, 7.418701
590.6721, 7.478271
591.1542, 8.204834
591.6364, 9.922607
592.1185, 12.48169
592.6006, 16.89673
593.0827, 22.06274
593.5648, 24.45093
594.0469, 22.62305
594.5291, 18.98413
595.0112, 16.84790
595.4933, 16.55396
595.9754, 16.18896
596.4575, 15.31299
596.9396, 14.83179
597.4218, 16.44019
597.9039, 18.14844
598.3860, 16.96094
598.8681, 11.91138
599.3502, 5.067627
599.8323, 1.172363
600.3145, 6.854492
600.7966, 13.12500
601.2787, 20.39258
601.7608, 27.41797
602.2429, 33.22144
602.7250, 38.37573
603.2072, 43.63721
603.6893, 49.06592
604.1714, 54.67139
604.6535, 60.23486
605.1356, 66.07715
605.6177, 72.89819
606.0999, 80.65625
606.5820, 88.37329
607.0641, 95.32080
607.5462, 101.6479
608.0283, 108.0630
608.5104, 114.2334
608.9926, 121.0100
609.4747, 128.8420
609.9568, 136.9446
610.4389, 145.0684
610.9210, 152.9893
611.4031, 160.2253
611.8853, 166.3040
612.3674, 171.8081
612.8495, 177.9448
613.3316, 184.7690
613.8137, 191.8862
614.2958, 199.1582
614.7780, 206.7944
615.2601, 215.6150
615.7422, 225.2974
616.2243, 233.5808
616.7064, 238.7949
617.1885, 243.6638
617.6707, 250.0984
618.1528, 257.4102
618.6349, 264.2185
619.1170, 270.1023
619.5991, 275.3713
620.0812, 280.1892
620.5634, 284.4331
621.0455, 290.2195
621.5276, 299.6807
622.0097, 308.0737
622.4918, 314.0254
622.9739, 318.6633
623.4561, 323.0745
623.9382, 327.4806
624.4203, 331.5490
624.9024, 334.6025
625.3845, 337.1675
625.8666, 340.8767
626.3487, 345.8889
626.8308, 350.6578
627.3129, 354.7151
627.7950, 357.9117
628.2772, 359.7928
628.7593, 360.2673
629.2414, 360.2922
629.7235, 358.7449
630.2056, 357.8979
630.6877, 359.8179
631.1699, 363.6793
631.6520, 367.5164
632.1341, 370.4274
632.6162, 372.5204
633.0983, 374.0140
633.5804, 374.9857
634.0626, 374.9399
634.5447, 373.5015
635.0268, 371.5187
635.5089, 368.7369
635.9910, 365.9255
636.4731, 364.4230
636.9553, 364.8186
637.4374, 365.3597
637.9195, 365.0580
638.4016, 363.9885
638.8837, 361.6519
639.3658, 358.1150
639.8480, 355.8915
640.3301, 357.1045
640.8122, 360.2631
641.2943, 360.3357
641.7764, 354.2957
642.2585, 349.4946
642.7407, 346.2590
643.2228, 343.9126
643.7049, 342.2852
644.1870, 341.1532
644.6691, 340.2518
645.1512, 339.5417
645.6334, 338.4729
646.1155, 335.6387
646.5976, 331.0187
647.0797, 327.8313
647.5618, 327.2544
648.0439, 327.0641
648.5261, 325.6801
649.0082, 323.3073
649.4903, 320.7649
649.9724, 318.8770
650.4545, 315.4098
650.9366, 308.2014
651.4188, 299.8009
651.9009, 293.3619
652.3830, 289.2446
652.8651, 286.0551
653.3472, 282.8047
653.8293, 279.4141
654.3115, 275.4844
654.7936, 270.6250
655.2757, 265.9581
655.7578, 261.5295
656.2399, 257.6119
656.7220, 254.6992
657.2042, 252.7123
657.6863, 251.1627
658.1684, 250.1353
658.6505, 248.6465
659.1326, 245.3236
659.6147, 240.7721
660.0969, 236.6660
660.5790, 233.3657
661.0611, 230.6356
661.5432, 228.3542
662.0253, 226.4489
662.5074, 224.1904
662.9896, 220.1785
663.4717, 217.7247
663.9538, 219.2688
664.4359, 220.8230
664.9180, 218.5114
665.4001, 213.0250
665.8823, 208.3011
666.3644, 207.0629
666.8465, 207.4160
667.3286, 205.9169
667.8107, 202.6072
668.2928, 198.7021
668.7750, 194.0485
669.2571, 189.9495
669.7392, 188.0348
670.2213, 188.0530
670.7034, 187.3635
671.1855, 185.2855
671.6677, 183.2595
672.1498, 182.3524
672.6319, 181.3767
673.1140, 178.6846
673.5961, 174.3627
674.0782, 169.9532
674.5604, 166.5244
675.0425, 163.9919
675.5246, 162.1276
676.0067, 161.0516
676.4888, 160.2147
676.9709, 160.0602
677.4531, 159.4761
677.9352, 157.8202
678.4173, 155.1078
678.8994, 151.2847
679.3815, 145.7441
679.8636, 139.8800
680.3458, 133.3103
680.8279, 127.4220
681.3100, 124.9071
681.7921, 125.9236
682.2742, 127.8214
682.7563, 128.6379
683.2385, 128.2817
683.7206, 126.1049
684.2027, 120.9120
684.6848, 116.5309
685.1669, 113.6285
685.6490, 111.5425
686.1312, 110.2577
686.6133, 109.5090
687.0954, 108.6310
687.5775, 107.4757
688.0596, 105.9551
688.5417, 103.2438
689.0239, 100.2408
689.5060, 99.96521
689.9881, 102.8262
690.4702, 104.3384
690.9523, 100.5907
691.4344, 92.86243
691.9166, 87.49744
692.3987, 86.37756
692.8808, 84.67200
693.3629, 80.88611
693.8450, 77.65625
694.3271, 77.45044
694.8093, 79.06604
695.2914, 79.10107
695.7735, 75.57446
696.2556, 71.48206
696.7377, 70.48291
697.2198, 71.72595
697.7020, 72.19617
698.1841, 71.45996
698.6662, 69.94885
699.1483, 67.86450
699.6304, 65.36255
700.1125, 63.11694
700.5947, 61.40381
701.0768, 59.68042
701.5589, 58.03467
702.0410, 56.40601
702.5231, 54.16858
703.0052, 51.98279
703.4874, 51.41724
703.9695, 53.30432
704.4516, 55.47302
704.9337, 54.90698
705.4158, 52.22437
705.8979, 50.60779
706.3801, 50.54749
706.8622, 50.24353
707.3442, 48.33508
707.8264, 45.60583
708.3085, 44.21533
708.7906, 44.82007
709.2727, 45.03711
709.7548, 44.35498
710.2369, 43.60828
710.7191, 43.43213
711.2012, 43.62329
711.6833, 43.85974
712.1654, 44.06042
712.6475, 43.93201
713.1296, 42.72424
713.6118, 40.71069
714.0939, 39.60327
714.5760, 39.67981
715.0581, 39.27795
715.5402, 36.98987
716.0223, 34.58325
716.5045, 35.68054
716.9866, 41.17578
717.4687, 43.92200
717.9508, 40.60608
718.4329, 37.40955
718.9150, 37.99524
719.3972, 40.45337
719.8793, 41.87793
720.3614, 41.43176
720.8435, 40.11060
721.3256, 39.00647
721.8077, 38.29407
722.2899, 38.16138
722.7720, 38.39661
723.2541, 37.88635
723.7362, 36.06665
724.2183, 34.18494
724.7004, 33.88672
725.1826, 35.08484
725.6647, 35.30371
726.1468, 33.29248
726.6289, 31.55176
727.1110, 31.09302
727.5931, 31.43420
728.0753, 31.91003
728.5574, 32.45850
729.0395, 33.93567
729.5216, 37.56189
730.0037, 41.67212
730.4858, 41.92676
730.9680, 38.20605
731.4501, 34.87878
731.9322, 32.74634
732.4143, 31.10962
732.8964, 29.45825
733.3785, 27.88684
733.8607, 26.77148
734.3428, 26.47888
734.8249, 26.11047
735.3070, 25.26514
735.7891, 24.42236
736.2712, 23.84607
736.7534, 23.61047
737.2355, 23.97803
737.7176, 25.14587
738.1997, 26.09204
738.6818, 24.73975
739.1639, 21.45508
739.6461, 20.02344
740.1282, 21.23425
740.6103, 21.99048
741.0924, 20.17200
741.5745, 17.11951
742.0566, 15.95496
742.5388, 17.33557
743.0209, 18.15198
743.5030, 18.02112
743.9851, 17.44177
744.4672, 16.52795
744.9493, 15.39307
745.4315, 14.02625
745.9136, 12.48242
746.3957, 11.17346
746.8778, 10.56738
747.3599, 10.52881
747.8420, 10.90491
748.3242, 11.71716
748.8063, 11.70093
749.2884, 10.19360
749.7705, 8.319214
750.2526, 7.500244
750.7347, 7.855347
751.2169, 7.055908
751.6990, 3.551025
752.1811, 1.010986
752.6632, 1.112915
753.1453, 1.864868
753.6274, 1.273193
754.1096, 0.4885250
754.5917, 1.750610
755.0738, 1.273560
755.5559, 0.5241700
756.0380, 2.131714
756.5201, 5.368164
757.0023, 6.692139
757.4844, 5.436646
757.9665, 4.050903
758.4486, 4.344482
758.9307, 5.751099
759.4128, 6.338501
759.8950, 5.380737
760.3771, 4.920898
760.8592, 5.444092
761.3413, 5.926758
761.8234, 5.905396
762.3055, 5.520630
762.7877, 4.976074
763.2698, 4.307617
763.7519, 3.746094
764.2340, 3.717285
764.7161, 3.768921
765.1982, 3.062378
765.6804, 1.722412
766.1625, 0.3148190
766.6446, 1.006348
767.1267, 1.625366
767.6088, 0.5119630
768.0909, 2.482788
768.5731, 4.028931
769.0552, 3.080322
769.5373, 2.419434
770.0194, 2.940552
770.5015, 3.724487
770.9836, 4.062988
771.4658, 3.996948
771.9479, 3.955078
772.4300, 4.075317
772.9121, 4.282837
773.3942, 4.888062
773.8763, 5.376099
774.3585, 4.640259
774.8406, 2.753906
775.3227, 1.000122
775.8048, 0.2142330
776.2869, 0.1667480
776.7690, 0.5362550
777.2512, 1.530151
777.7333, 1.283569
778.2154, 1.677490
778.6975, 3.337158
779.1796, 0.2690430
779.6617, 5.770142
780.1439, 7.123901
780.6260, 3.219849
781.1081, 6.0913000E-02
781.5902, 0.3752440
782.0723, 0.1394040
782.5544, 0.2076420
783.0366, 0.7091060
783.5187, 1.798706
784.0008, 3.334351
784.4829, 4.344238
784.9650, 3.431885
785.4471, 1.534424
785.9293, 1.574585
786.4114, 3.580566
786.8935, 6.404419
787.3756, 10.21851
787.8577, 13.31201
788.3398, 13.51208
788.8220, 11.40161
789.3041, 11.95801
789.7861, 18.20972
790.2682, 22.38940
790.7504, 23.42993
791.2325, 22.87952
791.7146, 20.89124
792.1967, 18.42078
792.6788, 16.70569
793.1609, 16.17969
793.6431, 16.07739
794.1252, 15.99219
794.6073, 16.01624
795.0894, 16.35388
795.5715, 17.03638
796.0536, 17.28821
796.5358, 16.70349
797.0179, 16.07227
797.5000, 16.47803
797.9821, 17.92639
798.4642, 19.31909
798.9464, 20.69775
799.4285, 21.78601
799.9106, 23.11877
800.3927, 23.64258
800.8748, 21.99463
801.3569, 18.69177
801.8391, 16.18652
802.3212, 14.90344
802.8033, 14.70227
803.2854, 16.10950
803.7675, 18.23511
804.2496, 20.22058
804.7318, 21.91565
805.2139, 23.40430
805.6960, 24.73022
806.1781, 25.71155
806.6602, 25.88245
807.1423, 25.31213
807.6245, 25.03491
808.1066, 25.11218
808.5887, 25.29590
809.0708, 25.40918
809.5529, 25.64685
810.0350, 26.52954
810.5172, 28.35107
810.9993, 28.88684
811.4814, 27.06116
811.9635, 25.30493
812.4456, 24.40125
812.9277, 23.81250
813.4099, 22.76685
813.8920, 21.40381
814.3741, 20.64355
814.8562, 21.05713
815.3383, 22.42200
815.8204, 25.06604
816.3026, 28.09143
816.7847, 29.45618
817.2668, 29.10229
817.7489, 28.40198
818.2310, 28.00513
818.7131, 27.82397
819.1953, 27.92139
819.6774, 28.47815
820.1595, 28.35022
820.6416, 27.27258
821.1237, 26.00745
821.6058, 24.25305
822.0880, 22.81812
822.5701, 23.23865
823.0522, 25.44434
823.5343, 25.98816
824.0164, 22.39221
824.4985, 19.08545
824.9807, 17.64136
825.4628, 17.67639
825.9449, 19.50354
826.4270, 22.39819
826.9091, 24.08008
827.3912, 23.04541
827.8734, 20.72729
828.3555, 18.94006
828.8376, 17.69617
829.3197, 16.94788
829.8018, 16.69189
830.2839, 17.09033
830.7661, 18.49585
831.2482, 19.75281
831.7303, 18.85498
832.2124, 15.48926
832.6945, 12.99084
833.1766, 11.79382
833.6588, 10.79565
834.1409, 9.501831
834.6230, 8.408447
835.1051, 8.132202
835.5872, 8.547485
836.0693, 8.729858
836.5515, 8.022705
837.0336, 7.022461
837.5157, 5.801392
837.9978, 4.731079
838.4799, 4.637817
838.9620, 5.120117
839.4442, 4.659058
839.9263, 2.567261
840.4084, 0.4318850
840.8905, 0.8308110
841.3726, 3.260498
841.8547, 4.619385
842.3369, 4.782227
842.8190, 4.386597
843.3011, 3.504517
843.7832, 2.509521
844.2653, 1.828613
844.7474, 1.430420
845.2296, 1.015747
845.7117, 0.5783690
846.1938, 4.0894002E-02
846.6759, 1.505493
847.1580, 2.327637
847.6401, 0.1195070
848.1223, 3.434692
848.6044, 4.265869
849.0865, 0.6799320
849.5686, 2.693115
850.0507, 3.531250
850.5328, 2.795898
851.0150, 0.2797850
851.4971, 2.775024
851.9792, 3.279419
852.4613, 0.5645750
852.9434, 2.277832
853.4255, 1.905273
853.9077, 0.4141850
854.3898, 0.4445800
854.8719, 1.811768
855.3540, 3.472168
855.8361, 3.971191
856.3182, 3.725220
856.8004, 2.882568
857.2825, 1.648315
857.7646, 0.6115720
858.2467, 0.6750490
858.7288, 0.7309570
859.2109, 2.117432
859.6931, 4.236816
860.1752, 3.916992
860.6573, 2.404541
861.1394, 1.223145
861.6215, 0.5189210
862.1036, 0.5284420
862.5858, 3.418091
863.0679, 5.530029
863.5500, 4.266846
864.0321, 1.548218
864.5142, 0.1264650
864.9963, 0.4468990
865.4785, 4.5044001E-02
865.9606, 1.127808
866.4427, 2.148315
866.9248, 1.844971
867.4069, 0.5247800
867.8890, 0.1845700
868.3712, 0.1829830
868.8533, 0.2841800
869.3354, 1.188110
869.8175, 2.244385
870.2996, 3.125977
870.7817, 3.837036
871.2639, 4.086548
871.7460, 3.370850
872.2280, 3.080322
872.7101, 3.649292
873.1923, 4.536621
873.6744, 5.478638
874.1565, 6.492798
874.6386, 7.699341
875.1207, 9.261108
875.6028, 10.53577
876.0850, 11.77527
876.5671, 12.19092
877.0492, 10.25610
877.5313, 7.439331
878.0134, 6.035156
878.4955, 6.619873
878.9777, 8.635376
879.4598, 12.45325
879.9419, 16.50012
880.4240, 17.62695
880.9061, 16.74280
881.3882, 17.24548
881.8704, 19.60706
882.3525, 22.16321
882.8346, 23.81238
883.3167, 27.01526
883.7988, 28.15833
884.2809, 32.87976
884.7631, 36.48340
885.2452, 39.01941
885.7273, 40.19971
886.2094, 39.34326
886.6915, 37.69653
887.1736, 36.17786
887.6558, 34.88599
888.1379, 35.20544
888.6200, 38.66809
889.1021, 41.63586
889.5842, 42.62537
890.0663, 43.71472
890.5485, 47.10681
891.0306, 51.48840
891.5127, 53.92493
891.9948, 53.56213
892.4769, 52.99036
892.9590, 53.76453
893.4412, 55.25659
893.9233, 56.95203
894.4054, 58.78687
894.8875, 60.67053
895.3696, 62.58765
895.8517, 64.52905
896.3339, 66.36865
896.8160, 68.60046
897.2981, 72.76025
897.7802, 78.49695
898.2623, 82.41602
898.7444, 84.18713
899.2266, 85.87415
899.7087, 88.38269
900.1908, 91.14600
900.6729, 93.37903
901.1550, 95.07068
901.6371, 96.24268
902.1193, 96.42749
902.6014, 96.93469
903.0835, 98.03320
903.5656, 99.50146
904.0477, 101.1504
904.5298, 102.9861
905.0120, 105.3696
905.4941, 109.1168
905.9762, 111.7991
906.4583, 111.6478
906.9404, 111.3044
907.4225, 112.7738
907.9047, 114.7775
908.3868, 114.9486
908.8689, 113.3523
909.3510, 112.5984
909.8331, 114.5870
910.3152, 117.3269
910.7974, 119.3279
911.2795, 120.4615
911.7616, 119.5057
912.2437, 116.8953
912.7258, 115.4650
913.2079, 116.6394
913.6901, 118.6476
914.1722, 118.8812
914.6543, 117.8207
915.1364, 118.3965
915.6185, 120.6643
916.1006, 122.2173
916.5828, 122.3176
917.0649, 121.8529
917.5470, 121.6331
918.0291, 121.6412
918.5112, 121.4255
918.9933, 121.0676
919.4755, 120.1752
919.9576, 118.9543
920.4397, 116.8759
920.9218, 112.7476
921.4039, 108.3177
921.8860, 105.7700
922.3682, 105.0354
922.8503, 103.7419
923.3324, 100.9409
923.8145, 98.42065
924.2966, 96.68091
924.7787, 95.41260
925.2609, 94.51587
925.7430, 93.85291
926.2251, 93.31531
926.7072, 92.87842
927.1893, 92.16382
927.6714, 90.68823
928.1536, 89.02124
928.6357, 87.69128
929.1178, 86.60767
929.5999, 85.42163
930.0820, 84.18372
930.5641, 83.63928
931.0463, 84.41992
931.5284, 85.24866
932.0105, 84.05627
932.4926, 81.17993
932.9747, 77.30652
933.4568, 72.66797
933.9390, 70.53455
934.4211, 72.34424
934.9032, 74.95496
935.3853, 75.03589
935.8674, 72.86902
936.3495, 69.74109
936.8317, 65.04321
937.3138, 62.24243
937.7959, 62.63770
938.2780, 62.86304
938.7601, 60.60852
939.2422, 57.40796
939.7244, 56.25562
940.2065, 57.79236
940.6886, 57.55139
941.1707, 53.73340
941.6528, 50.64099
942.1349, 49.11633
942.6171, 48.53894
943.0992, 48.67957
943.5813, 49.35742
944.0634, 50.51636
944.5455, 52.74658
945.0276, 53.15393
945.5098, 49.03137
945.9919, 44.55396
946.4740, 42.15576
946.9561, 41.33472
947.4382, 41.83765
947.9203, 43.14380
948.4025, 43.53296
948.8846, 41.67944
949.3667, 39.66797
949.8488, 39.94678
950.3309, 38.62390
950.8130, 40.42114
951.2952, 38.52075
951.7773, 37.98840
952.2594, 39.59827
952.7415, 41.46875
953.2236, 41.79211
953.7057, 41.09387
954.1879, 40.89111
954.6699, 40.94983
955.1520, 39.18726
955.6342, 35.31726
956.1163, 32.55164
956.5984, 32.66895
957.0805, 34.46729
957.5626, 36.16003
958.0447, 37.75659
958.5269, 39.23450
959.0090, 40.85767
959.4911, 41.10559
959.9732, 39.04797
960.4553, 36.98059
960.9374, 36.90247
961.4196, 37.92212
961.9017, 37.45081
962.3838, 34.80261
962.8659, 32.72351
963.3480, 30.24500
963.8301, 29.66052
964.3123, 32.53015
964.7944, 36.67700
965.2765, 40.98840
965.7586, 45.06287
966.2407, 47.41467
966.7228, 47.52197
967.2050, 46.60742
967.6871, 44.51099
968.1692, 41.91394
968.6513, 38.56677
969.1334, 35.34167
969.6155, 33.32605
970.0977, 32.66858
970.5798, 32.84766
971.0619, 34.46313
971.5440, 35.65063
972.0261, 35.00818
972.5082, 33.51831
972.9904, 31.65710
973.4725, 29.97974
973.9546, 29.63904
974.4367, 30.93030
974.9188, 32.45569
975.4009, 33.24255
975.8831, 33.44177
976.3652, 32.44141
976.8473, 30.98438
977.3294, 30.97498
977.8115, 32.31360
978.2936, 33.06311
978.7758, 32.31042
979.2579, 31.72815
979.7400, 33.69153
980.2221, 37.40100
980.7042, 40.69629
981.1863, 43.38330
981.6685, 43.63647
982.1506, 41.10840
982.6327, 37.72375
983.1148, 34.57520
983.5969, 32.15112
984.0790, 31.78394
984.5612, 30.25513
985.0433, 29.17883
985.5254, 30.02710
986.0075, 28.45898
986.4896, 29.70117
986.9717, 31.74609
987.4539, 33.28906
987.9360, 34.21887
988.4181, 34.41943
988.9002, 34.02429
989.3823, 32.99902
989.8644, 30.57336
990.3466, 28.96484
990.8287, 28.64319
991.3108, 29.70264
991.7929, 33.52148
992.2750, 39.12927
992.7571, 40.51843
993.2393, 33.90503
993.7214, 29.80371
994.2035, 30.58752
994.6856, 31.30151
995.1677, 29.30933
995.6498, 26.82446
996.1320, 26.62769
996.6141, 28.44604
997.0962, 29.34766
997.5783, 28.07727
998.0604, 27.02307
998.5425, 27.25488
999.0247, 27.37878
999.5068, 26.11658
999.9889, 24.40527
1000.471, 23.50500
1000.953, 23.61328
1001.435, 24.56165
1001.917, 27.78064
1002.399, 29.53149
1002.882, 26.14600
1003.364, 21.79236
1003.846, 20.53149
1004.328, 21.29993
1004.810, 21.23108
1005.292, 19.71667
1005.774, 18.53381
1006.256, 19.09131
1006.739, 20.05945
1007.221, 20.50696
1007.703, 20.39294
1008.185, 19.55847
1008.667, 18.12280
1009.149, 16.17603
1009.631, 13.84827
1010.113, 12.03149
1010.595, 12.03479
1011.078, 12.44543
1011.560, 10.43188
1012.042, 7.397705
1012.524, 6.821655
1013.006, 8.526978
1013.488, 9.994873
1013.970, 10.15125
1014.452, 10.33765
1014.935, 12.47046
1015.417, 15.41272
1015.899, 16.28748
1016.381, 15.42273
1016.863, 13.99622
1017.345, 12.13123
1017.827, 10.20178
1018.309, 8.399658
1018.791, 6.710938
1019.274, 4.936768
1019.756, 3.121460
1020.238, 2.528198
1020.720, 3.141479
1021.202, 3.392090
1021.684, 3.000000
1022.166, 2.394043
1022.648, 1.797974
1023.130, 1.303101
1023.613, 1.028809
1024.095, 0.9208980
1024.577, 0.7301030
1025.059, 0.4309080
1025.541, 0.4427490
1026.023, 1.000122
1026.505, 1.061523
1026.987, 0.4080810
1027.469, 2.024170
1027.952, 0.9967040
1028.434, 2.800659
1028.916, 5.985718
1029.398, 9.171997
1029.880, 9.353760
1030.362, 4.691162
1030.844, 4.8830002E-03
1031.326, 1.336182
1031.809, 4.046021
1032.291, 5.559692
1032.773, 5.330444
1033.255, 6.546997
1033.737, 4.709595
1034.219, 2.908325
1034.701, 1.426392
1035.183, 0.5682370
1035.666, 0.7475590
1036.148, 1.542847
1036.630, 2.063843
1037.112, 2.212646
1037.594, 2.669800
1038.076, 3.951660
1038.558, 4.713989
1039.040, 4.572876
1039.522, 4.109009
1040.005, 3.583008
1040.487, 2.912720
1040.969, 2.372192
1041.451, 2.214966
1041.933, 1.219116
1042.415, 1.941284
1042.897, 4.167358
1043.379, 5.085205
1043.861, 4.662720
1044.344, 1.274353
1044.826, 2.912415
1045.308, 3.140076
1045.790, 1.760132
1046.272, 4.869324
1046.754, 4.366394
1047.236, 3.387024
1047.718, 1.996643
1048.201, 0.8245240
1048.683, 0.5841670
1049.165, 0.8960570
1049.647, 0.7316280
1050.129, 0.1342770
1050.611, 7.3239999E-03
1051.093, 2.085571
1051.575, 4.306152
1052.057, 6.418823
1052.540, 8.148682
1053.022, 9.246521
1053.504, 9.852661
1053.986, 10.07410
1054.468, 9.901794
1054.950, 10.17249
1055.432, 12.07947
1055.914, 13.12628
1056.396, 10.65735
1056.879, 8.782898
1057.361, 12.24115
1057.843, 17.80139
1058.325, 19.29816
1058.807, 15.86792
1059.289, 12.77862
1059.771, 12.39526
1060.253, 11.76691
1060.736, 9.021545
1061.218, 6.319641
1061.700, 5.507080
1062.182, 5.789246
1062.664, 5.718628
1063.146, 5.083984
1063.628, 4.577148
1064.110, 4.590454
1064.593, 4.561279
1065.075, 4.181030
1065.557, 3.745972
1066.039, 3.509949
1066.521, 3.360596
1067.003, 3.099121
1067.485, 2.710876
1067.967, 2.335754
1068.449, 2.093567
1068.932, 1.758057
1069.414, 0.5740970
1069.896, 7.6172002E-02
1070.378, 1.569092
1070.860, 3.995361
1071.342, 4.929565
1071.824, 4.251282
1072.306, 3.541626
1072.788, 3.473022
1073.271, 3.235413
1073.753, 1.595398
1074.235, 0.5488890
1074.717, 2.770752
1075.199, 5.696045
1075.681, 5.211548
1076.163, 1.814270
1076.645, 0.1208500
1077.128, 2.291565
1077.610, 4.407104
1078.092, 4.506836
1078.574, 4.092957
1079.056, 4.182617
1079.538, 4.344177
1080.020, 3.749878
1080.502, 2.676025
1080.984, 2.348083
1081.467, 3.332947
1081.949, 4.122314
1082.431, 4.075073
1082.913, 3.590088
1083.395, 2.490356
1083.877, 1.405090
1084.359, 0.8807980
1084.841, 0.9547120
1085.323, 1.538208
1085.806, 2.718811
1086.288, 4.153625
1086.770, 6.346863
1087.252, 7.907227
1087.734, 8.022278
1088.216, 7.253601
1088.698, 5.478333
1089.180, 3.436707
1089.662, 2.561768
1090.145, 3.192383
1090.627, 4.104736
1091.109, 4.234985
1091.591, 5.265991
1092.073, 9.212952
1092.555, 13.01514
1093.037, 14.37976
1093.519, 13.72491
1094.002, 11.65192
1094.484, 8.444885
1094.966, 5.693115
1095.448, 3.572937
1095.930, 2.386047
1096.412, 3.475281
1096.894, 4.291870
1097.376, 2.122253
1097.859, 0.6417240
1098.341, 0.1436160
1098.823, 3.306091
1099.305, 5.176941
1099.787, 3.303528
1100.269, 2.277954
1100.751, 4.372253
1101.233, 6.144653
1101.715, 5.905334
1102.198, 4.520752
1102.680, 2.381226
1103.162, 6.0302999E-02
1103.644, 1.853516
1104.126, 3.267029
1104.608, 3.431702
1105.090, 1.613464
1105.572, 0.7283940
1106.054, 3.975281
1106.537, 6.763367
1107.019, 7.743530
1107.501, 7.463440
1107.983, 7.267212
1108.465, 7.253662
1108.947, 7.684082
1109.429, 9.683167
1109.911, 10.43799
1110.394, 8.366394
1110.876, 5.959412
1111.358, 4.308655
1111.840, 3.470947
1112.322, 3.726440
1112.804, 5.136841
1113.286, 6.168152
1113.768, 6.347961
1114.250, 6.942810
1114.733, 8.413086
1115.215, 9.806702
1115.697, 11.06085
1116.179, 11.72375
1116.661, 10.72461
1117.143, 8.508789
1117.625, 8.430847
1118.107, 11.46240
1118.589, 14.43652
1119.072, 18.00293
1119.554, 20.07288
1120.036, 19.50970
1120.518, 18.02466
1121.000, 16.78284
1121.482, 15.93549
1121.964, 16.03473
1122.446, 17.30872
1122.929, 18.04974
1123.411, 17.93768
1123.893, 18.44037
1124.375, 20.11975
1124.857, 21.70667
1125.339, 22.40784
1125.821, 22.48657
1126.303, 22.40826
1126.786, 22.14728
1127.268, 21.20050
1127.750, 19.43524
1128.232, 18.45557
1128.714, 18.46179
1129.196, 19.15710
1129.678, 20.49847
1130.160, 21.80743
1130.642, 22.37756
1131.125, 22.24194
1131.607, 21.02417
1132.089, 18.85956
1132.571, 18.54095
1133.053, 20.11780
1133.535, 22.12061
1134.017, 24.06952
1134.499, 25.23456
1134.981, 25.17517
1135.464, 24.46112
1135.946, 24.02124
1136.428, 23.90118
1136.910, 24.41437
1137.392, 25.43384
1137.874, 26.29474
1138.356, 26.88806
1138.838, 27.57092
1139.321, 28.60138
1139.803, 29.42352
1140.285, 29.34857
1140.767, 28.72003
1141.249, 28.02087
1141.731, 27.32812
1142.213, 26.72644
1142.695, 26.29706
1143.177, 26.27783
1143.660, 26.73413
1144.142, 27.43866
1144.624, 28.28802
1145.106, 29.13281
1145.588, 30.12073
1146.070, 30.74017
1146.552, 30.15942
1147.034, 28.81079
1147.516, 26.93353
1147.999, 25.16534
1148.481, 25.65881
1148.963, 29.80902
1149.445, 33.16467
1149.927, 31.80750
1150.409, 29.96222
1150.891, 30.91895
1151.373, 32.66693
1151.856, 32.87183
1152.338, 32.03607
1152.820, 31.78503
1153.302, 32.47198
1153.784, 33.46838
1154.266, 35.20355
1154.748, 36.45392
1155.230, 36.78479
1155.713, 36.39386
1156.195, 35.11694
1156.677, 33.83643
1157.159, 33.35632
1157.641, 33.74347
1158.123, 34.81091
1158.605, 37.63483
1159.087, 39.02429
1159.569, 37.21387
1160.052, 36.07098
1160.534, 37.10089
1161.016, 38.36115
1161.498, 38.55902
1161.980, 38.01385
1162.462, 38.29663
1162.944, 39.66400
1163.426, 39.44757
1163.908, 36.44476
1164.391, 35.53333
1164.873, 38.15295
1165.355, 40.23505
1165.837, 39.53583
1166.319, 37.91248
1166.801, 37.88208
1167.283, 39.15442
1167.765, 40.56915
1168.247, 42.15070
1168.730, 42.35339
1169.212, 41.03955
1169.694, 40.15826
1170.176, 40.24536
1170.658, 40.46478
1171.140, 40.17322
1171.622, 39.79718
1172.104, 40.32349
1172.587, 41.30463
1173.069, 41.11652
1173.551, 40.03210
1174.033, 39.02478
1174.515, 38.19128
1174.997, 37.08344
1175.479, 35.61798
1175.961, 34.93054
1176.443, 36.38696
1176.926, 38.11084
1177.408, 37.50446
1177.890, 35.79626
1178.372, 34.74658
1178.854, 34.08679
1179.336, 33.00385
1179.818, 31.43420
1180.300, 29.82245
1180.782, 28.35828
1181.265, 26.90198
1181.747, 24.99707
1182.229, 23.53809
1182.711, 23.16559
1183.193, 23.46930
1183.675, 24.49335
1184.157, 25.69843
1184.639, 26.40948
1185.122, 26.47284
1185.604, 25.37744
1186.086, 21.30609
1186.568, 18.83606
1187.050, 20.26990
1187.532, 21.53723
1188.014, 20.70477
1188.496, 19.11725
1188.979, 17.67682
1189.461, 16.56665
1189.943, 16.45319
1190.425, 17.65051
1190.907, 17.96777
1191.389, 16.96185
1191.871, 16.38922
1192.353, 16.79553
1192.835, 16.79871
1193.318, 15.63672
1193.800, 13.87952
1194.282, 12.04810
1194.764, 10.41418
1195.246, 10.26465
1195.728, 9.978760
1196.210, 12.05029
1196.692, 11.81006
1197.174, 12.89331
1197.657, 15.66260
1198.139, 16.74451
1198.621, 13.91565
1199.103, 10.26428
1199.585, 10.29517
1200.067, 12.06262
1200.549, 12.00208
1201.031, 10.49902
1201.514, 7.422119
1201.996, 3.878296
1202.478, 3.222412
1202.960, 5.937988
1203.442, 8.416260
1203.924, 8.518066
1204.406, 7.907959
1204.888, 7.701172
1205.370, 7.450806
1205.853, 7.047729
1206.335, 6.195435
1206.817, 4.110718
1207.299, 1.412964
1207.781, 0.1269530
1208.263, 7.4097000E-02
1208.745, 0.5255130
1209.227, 3.127075
1209.709, 4.581909
1210.192, 3.368408
1210.674, 1.848145
1211.156, 1.026978
1211.638, 0.6229250
1212.120, 0.4711910
1212.602, 0.4779050
1213.084, 0.2473140
1213.566, 0.4093020
1214.049, 0.6400150
1214.531, 0.6499020
1215.013, 1.309692
1215.495, 1.325928
1215.977, 1.519531
1216.459, 2.395020
1216.941, 3.321167
1217.423, 3.594116
1217.906, 3.213379
1218.388, 1.663818
1218.870, 2.158813
1219.352, 0.3662110
1219.834, 1.786621
1220.316, 2.757690
1220.798, 2.052979
1221.280, 1.918701
1221.762, 3.606689
1222.245, 5.143188
1222.727, 5.094971
1223.209, 3.281250
1223.691, 1.978882
1224.173, 7.987915
1224.655, 11.07397
1225.137, 12.06445
1225.619, 13.58472
1226.101, 13.27002
1226.584, 15.26440
1227.066, 10.45203
1227.548, 6.615479
1228.030, 3.738892
1228.512, 2.635986
1228.994, 4.553345
1229.476, 7.512695
1229.958, 10.53027
1230.441, 13.28223
1230.923, 15.21729
1231.405, 16.35962
1231.887, 17.79712
1232.369, 19.43652
1232.851, 21.79114
1233.333, 25.40588
1233.815, 27.51501
1234.297, 26.71167
1234.780, 27.25500
1235.262, 32.62231
1235.744, 39.34094
1236.226, 41.39197
1236.708, 40.00183
1237.190, 40.73193
1237.672, 42.97986
1238.154, 43.79395
1238.636, 43.16382
1239.119, 42.76172
1239.601, 43.04346
1240.083, 43.68042
1240.565, 44.53113
1241.047, 46.02539
1241.529, 49.06958
1242.011, 52.34204
1242.493, 54.81213
1242.975, 57.03833
1243.458, 60.08337
1243.940, 63.21826
1244.422, 64.21594
1244.904, 62.76892
1245.386, 62.35291
1245.868, 64.83594
1246.350, 66.16187
1246.832, 65.10291
1247.315, 63.50989
1247.797, 63.46582
1248.279, 63.69934
1248.761, 62.54944
1249.243, 61.10718
1249.725, 61.40540
1250.207, 63.25732
1250.689, 65.41907
1251.172, 67.88574
1251.654, 68.55847
1252.136, 67.30847
1252.618, 64.83813
1253.100, 61.91321
1253.582, 59.73230
1254.064, 60.19812
1254.546, 62.90808
1255.028, 65.02686
1255.510, 66.08838
1255.993, 64.33069
1256.475, 61.36658
1256.957, 61.43726
1257.439, 63.76306
1257.921, 65.07312
1258.403, 64.50684
1258.885, 62.68677
1259.367, 59.36658
1259.850, 56.88892
1260.332, 56.89832
1260.814, 57.66138
1261.296, 58.29297
1261.778, 59.38733
1262.260, 62.03601
1262.742, 65.08423
1263.224, 66.74792
1263.707, 67.04919
1264.189, 65.97864
1264.671, 63.40881
1265.153, 59.58789
1265.635, 53.79016
1266.117, 50.20740
1266.599, 49.98792
1267.081, 50.88110
1267.563, 51.77026
1268.046, 52.08643
1268.528, 51.07495
1269.010, 49.20007
1269.492, 47.15112
1269.974, 45.29321
1270.456, 44.91833
1270.938, 45.61597
1271.420, 46.42419
1271.902, 46.89099
1272.385, 46.38770
1272.867, 44.66284
1273.349, 42.03162
1273.831, 37.98193
1274.313, 34.08569
1274.795, 30.48059
1275.277, 28.07263
1275.759, 28.89539
1276.242, 30.13916
1276.724, 28.36938
1277.206, 24.36523
1277.688, 20.96167
1278.170, 18.17188
1278.652, 16.07300
1279.134, 14.99841
1279.616, 13.38477
1280.099, 10.90674
1280.581, 8.866211
1281.063, 7.777344
1281.545, 6.911255
1282.027, 5.773804
1282.509, 4.332275
1282.991, 2.054688
1283.473, 0.1594240
1283.955, 9.0209998E-02
1284.438, 0.0000000E+00
##END=



