##NAMES=Molybdenite
##RRUFFID=R050209
##IDEAL CHEMISTRY=MoS_2_
##LOCALITY=Boss Mountain mine, Hendrix Lake, British Columbia, Canada
##OWNER=RRUFF
##SOURCE=Lloyd Twaites
##DESCRIPTION=Foiliated gray colored, represents the 2H polytype
##STATUS=The identification of this mineral has been confirmed by X-ray diffraction and chemical analysis
##URL=rruff.info/R050209
##MEASURED CHEMISTRY=Mo_1.00_S_2.00_
170.4319, 4.896677
170.9140, 4.930438
171.3962, 4.945842
171.8783, 4.931035
172.3604, 4.905114
172.8425, 4.887810
173.3246, 4.884614
173.8067, 4.885713
174.2889, 4.881308
174.7710, 4.873705
175.2531, 4.870300
175.7352, 4.876746
176.2173, 4.889804
176.6994, 4.904360
177.1816, 4.917556
177.6637, 4.935611
178.1458, 4.967471
178.6279, 5.011528
179.1100, 5.058385
179.5921, 5.122021
180.0743, 5.182684
180.5564, 5.196021
181.0385, 5.136386
181.5206, 5.049779
182.0027, 5.002727
182.4848, 4.991881
182.9670, 4.987543
183.4491, 4.963837
183.9312, 4.928776
184.4133, 4.904813
184.8954, 4.895677
185.3775, 4.900995
185.8597, 4.926096
186.3418, 4.970546
186.8239, 5.015335
187.3060, 5.057200
187.7881, 5.090456
188.2702, 5.083363
188.7523, 5.009543
189.2345, 4.904385
189.7166, 4.858386
190.1987, 4.873888
190.6808, 4.899299
191.1629, 4.889611
191.6451, 4.848065
192.1272, 4.799047
192.6093, 4.742841
193.0914, 4.685385
193.5735, 4.647108
194.0556, 4.629570
194.5378, 4.617694
195.0199, 4.600793
195.5020, 4.578789
195.9841, 4.543904
196.4662, 4.481850
196.9483, 4.406739
197.4305, 4.385880
197.9126, 4.426442
198.3947, 4.488274
198.8768, 4.540225
199.3589, 4.583460
199.8410, 4.591702
200.3232, 4.539745
200.8053, 4.444603
201.2874, 4.417103
201.7695, 4.473556
202.2516, 4.549682
202.7337, 4.579737
203.2159, 4.559117
203.6980, 4.528549
204.1801, 4.496572
204.6622, 4.463074
205.1443, 4.423897
205.6264, 4.375244
206.1086, 4.330116
206.5907, 4.301632
207.0728, 4.290839
207.5549, 4.293446
208.0370, 4.314351
208.5191, 4.351622
209.0013, 4.367750
209.4834, 4.353511
209.9655, 4.335608
210.4476, 4.353878
210.9297, 4.428695
211.4118, 4.459744
211.8940, 4.406307
212.3761, 4.271601
212.8582, 4.195511
213.3403, 4.197088
213.8224, 4.227277
214.3045, 4.233200
214.7867, 4.207637
215.2688, 4.179495
215.7509, 4.151317
216.2330, 4.123394
216.7151, 4.112966
217.1972, 4.122821
217.6794, 4.146312
218.1615, 4.182570
218.6436, 4.247687
219.1257, 4.282582
219.6078, 4.262665
220.0899, 4.187404
220.5721, 4.143590
221.0542, 4.141348
221.5363, 4.158362
222.0184, 4.176174
222.5005, 4.205340
222.9826, 4.208685
223.4648, 4.162878
223.9469, 4.065928
224.4290, 4.033088
224.9111, 4.096421
225.3932, 4.186259
225.8753, 4.235459
226.3575, 4.235061
226.8396, 4.211424
227.3217, 4.163799
227.8038, 4.091178
228.2859, 4.026090
228.7680, 3.958547
229.2502, 3.909723
229.7323, 3.907056
230.2144, 3.984276
230.6965, 4.038141
231.1786, 4.038822
231.6607, 3.986433
232.1429, 3.973933
232.6250, 4.033246
233.1071, 4.096927
233.5892, 4.098398
234.0713, 3.999163
234.5534, 3.915416
235.0356, 3.870010
235.5177, 3.862015
235.9998, 3.853002
236.4819, 3.840597
236.9640, 3.829597
237.4461, 3.824376
237.9283, 3.827707
238.4104, 3.830902
238.8925, 3.830202
239.3746, 3.826311
239.8567, 3.834520
240.3388, 3.860575
240.8210, 3.891969
241.3031, 3.922944
241.7852, 3.969649
242.2673, 3.981467
242.7494, 3.937409
243.2315, 3.844058
243.7137, 3.781120
244.1958, 3.759310
244.6779, 3.753964
245.1600, 3.745792
245.6421, 3.721726
246.1242, 3.724591
246.6064, 3.778050
247.0885, 3.868824
247.5706, 3.899325
248.0527, 3.832917
248.5348, 3.754304
249.0169, 3.719673
249.4990, 3.748612
249.9812, 3.777450
250.4633, 3.804679
250.9454, 3.828305
251.4275, 3.836412
251.9096, 3.817806
252.3917, 3.799932
252.8739, 3.802595
253.3560, 3.844453
253.8381, 3.858738
254.3202, 3.824388
254.8023, 3.761049
255.2844, 3.747919
255.7666, 3.819088
256.2487, 3.883628
256.7308, 3.887014
257.2129, 3.796268
257.6950, 3.735656
258.1772, 3.719624
258.6593, 3.732808
259.1414, 3.730389
259.6235, 3.696337
260.1056, 3.676016
260.5877, 3.697547
261.0699, 3.785274
261.5520, 3.836163
262.0341, 3.841526
262.5162, 3.814656
262.9983, 3.780132
263.4804, 3.731794
263.9626, 3.690055
264.4447, 3.664413
264.9268, 3.657981
265.4089, 3.652484
265.8910, 3.646169
266.3731, 3.642442
266.8553, 3.646284
267.3374, 3.656578
267.8195, 3.678158
268.3016, 3.719141
268.7837, 3.785422
269.2658, 3.822185
269.7480, 3.823060
270.2301, 3.803271
270.7122, 3.780346
271.1943, 3.750507
271.6764, 3.731852
272.1585, 3.734269
272.6407, 3.757699
273.1228, 3.772459
273.6049, 3.776926
274.0870, 3.775328
274.5691, 3.769606
275.0512, 3.757150
275.5334, 3.754947
276.0155, 3.774540
276.4976, 3.811872
276.9797, 3.817314
277.4618, 3.781662
277.9439, 3.739414
278.4261, 3.728901
278.9081, 3.753871
279.3903, 3.771857
279.8724, 3.767752
280.3545, 3.749750
280.8366, 3.763909
281.3187, 3.819073
281.8008, 3.867912
282.2830, 3.851780
282.7651, 3.768759
283.2472, 3.737639
283.7293, 3.797469
284.2114, 3.910234
284.6935, 3.954194
285.1757, 3.922811
285.6578, 3.887816
286.1399, 3.917989
286.6220, 4.005654
287.1041, 4.043745
287.5862, 4.008990
288.0684, 3.932080
288.5505, 3.874481
289.0326, 3.835958
289.5147, 3.800257
289.9968, 3.749772
290.4789, 3.690129
290.9611, 3.658003
291.4432, 3.660424
291.9253, 3.679625
292.4074, 3.691119
292.8895, 3.695298
293.3716, 3.695189
293.8538, 3.692043
294.3359, 3.685871
294.8180, 3.674091
295.3001, 3.655047
295.7822, 3.638938
296.2643, 3.641784
296.7465, 3.659996
297.2286, 3.676949
297.7107, 3.693170
298.1928, 3.701836
298.6749, 3.676394
299.1570, 3.614220
299.6392, 3.562034
300.1213, 3.580170
300.6034, 3.646478
301.0855, 3.703902
301.5676, 3.733791
302.0497, 3.743001
302.5319, 3.735348
303.0140, 3.711692
303.4961, 3.686951
303.9782, 3.659713
304.4603, 3.641347
304.9424, 3.654273
305.4246, 3.726112
305.9067, 3.806471
306.3888, 3.843718
306.8709, 3.842015
307.3530, 3.821817
307.8351, 3.768946
308.3173, 3.715180
308.7994, 3.703556
309.2815, 3.758523
309.7636, 3.824430
310.2457, 3.859943
310.7278, 3.871946
311.2100, 3.877916
311.6921, 3.890511
312.1742, 3.899394
312.6563, 3.890746
313.1384, 3.856186
313.6205, 3.830026
314.1027, 3.835219
314.5848, 3.861992
315.0669, 3.893233
315.5490, 3.935796
316.0311, 3.970451
316.5132, 3.978045
316.9954, 3.953721
317.4775, 3.938847
317.9596, 3.952522
318.4417, 3.984571
318.9238, 4.023829
319.4059, 4.097539
319.8881, 4.149380
320.3702, 4.143387
320.8523, 4.081581
321.3344, 4.032159
321.8165, 4.019912
322.2986, 4.024907
322.7808, 4.032002
323.2629, 4.057714
323.7450, 4.064230
324.2271, 4.022604
324.7092, 3.947133
325.1913, 3.908756
325.6735, 3.941130
326.1556, 3.996478
326.6377, 4.052098
327.1198, 4.118010
327.6019, 4.167104
328.0840, 4.199434
328.5662, 4.213841
329.0483, 4.207685
329.5304, 4.147790
330.0125, 4.099658
330.4946, 4.086729
330.9767, 4.124036
331.4589, 4.155442
331.9410, 4.186181
332.4231, 4.208504
332.9052, 4.209524
333.3873, 4.166800
333.8694, 4.137129
334.3516, 4.137705
334.8337, 4.170923
335.3158, 4.198926
335.7979, 4.223738
336.2800, 4.240574
336.7621, 4.241289
337.2443, 4.215205
337.7264, 4.202041
338.2085, 4.210685
338.6906, 4.237788
339.1727, 4.265634
339.6548, 4.296170
340.1370, 4.323034
340.6191, 4.337455
341.1012, 4.335210
341.5833, 4.355385
342.0654, 4.413084
342.5475, 4.482601
343.0297, 4.495791
343.5118, 4.445015
343.9939, 4.394307
344.4760, 4.375862
344.9581, 4.388377
345.4402, 4.419092
345.9224, 4.472410
346.4045, 4.528005
346.8866, 4.552712
347.3687, 4.549187
347.8508, 4.547173
348.3329, 4.562009
348.8151, 4.586286
349.2972, 4.589742
349.7793, 4.570735
350.2614, 4.567298
350.7435, 4.642508
351.2256, 4.765165
351.7078, 4.842436
352.1899, 4.825188
352.6720, 4.775367
353.1541, 4.776931
353.6362, 4.824603
354.1183, 4.886384
354.6005, 4.951049
355.0826, 5.012718
355.5647, 5.064346
356.0468, 5.104759
356.5289, 5.133593
357.0110, 5.130955
357.4932, 5.115540
357.9753, 5.131167
358.4574, 5.223712
358.9395, 5.340875
359.4216, 5.442953
359.9037, 5.526152
360.3859, 5.598244
360.8680, 5.630620
361.3501, 5.663756
361.8322, 5.746863
362.3143, 5.921186
362.7964, 6.126627
363.2786, 6.313202
363.7607, 6.489908
364.2428, 6.758244
364.7249, 7.082326
365.2070, 7.548628
365.6891, 8.220477
366.1713, 9.263388
366.6534, 10.32174
367.1355, 11.48603
367.6176, 12.63454
368.0997, 13.40536
368.5818, 13.43019
369.0640, 13.34890
369.5461, 13.39011
370.0282, 13.58629
370.5103, 13.84481
370.9924, 14.19941
371.4745, 14.60336
371.9567, 14.99085
372.4388, 15.28510
372.9209, 15.67204
373.4030, 16.20945
373.8851, 16.90322
374.3672, 17.60546
374.8494, 18.31835
375.3315, 19.04661
375.8136, 19.75269
376.2957, 20.37268
376.7778, 21.18785
377.2599, 22.16275
377.7421, 23.38199
378.2242, 25.10229
378.7063, 27.30389
379.1884, 30.02569
379.6705, 33.43884
380.1526, 37.57734
380.6348, 41.46228
381.1169, 45.02707
381.5990, 48.39696
382.0811, 51.70563
382.5632, 54.94029
383.0453, 58.48613
383.5275, 63.92715
384.0096, 69.52864
384.4917, 69.86781
384.9738, 64.88317
385.4559, 56.92500
385.9380, 45.93881
386.4202, 33.49961
386.9023, 23.57825
387.3844, 17.35234
387.8665, 13.56037
388.3486, 11.10079
388.8307, 9.839396
389.3129, 9.241712
389.7950, 9.214208
390.2771, 9.570700
390.7592, 10.13822
391.2413, 10.90546
391.7234, 11.80913
392.2056, 12.96744
392.6877, 14.19497
393.1698, 15.22231
393.6519, 15.85665
394.1340, 16.33665
394.6161, 16.74026
395.0983, 17.07510
395.5804, 17.41582
396.0625, 17.71160
396.5446, 18.06789
397.0267, 18.56504
397.5089, 19.31699
397.9910, 20.09323
398.4731, 20.78715
398.9552, 21.46657
399.4373, 22.33493
399.9194, 23.54089
400.4016, 24.83032
400.8837, 26.05343
401.3658, 27.05715
401.8479, 28.45812
402.3300, 30.12769
402.8121, 32.27369
403.2942, 35.13319
403.7763, 38.69495
404.2585, 43.03928
404.7406, 48.32200
405.2227, 54.46820
405.7048, 60.53931
406.1869, 66.51651
406.6690, 72.32605
407.1512, 77.79644
407.6333, 82.85489
408.1154, 88.63731
408.5975, 96.24791
409.0796, 103.2361
409.5617, 105.5819
410.0439, 103.2836
410.5260, 96.40838
411.0081, 82.37674
411.4902, 63.34612
411.9723, 47.71353
412.4544, 35.44842
412.9366, 26.17487
413.4187, 19.88592
413.9008, 16.06688
414.3829, 13.37855
414.8650, 11.66586
415.3471, 10.56632
415.8293, 9.759299
416.3114, 9.210825
416.7935, 8.797612
417.2756, 8.491768
417.7577, 8.253692
418.2398, 8.049229
418.7220, 7.871615
419.2041, 7.726246
419.6862, 7.640770
420.1683, 7.582672
420.6504, 7.504431
421.1325, 7.338379
421.6147, 7.192400
422.0968, 7.127685
422.5789, 7.141510
423.0610, 7.146532
423.5431, 7.100798
424.0252, 7.050448
424.5074, 7.025397
424.9895, 7.059916
425.4716, 7.080957
425.9537, 7.078176
426.4358, 7.059022
426.9179, 7.039620
427.4001, 7.013708
427.8822, 6.994536
428.3643, 6.983078
428.8464, 6.976869
429.3285, 6.998911
429.8106, 7.064447
430.2928, 7.137899
430.7749, 7.177373
431.2570, 7.167483
431.7391, 7.192750
432.2212, 7.284944
432.7033, 7.412027
433.1855, 7.454925
433.6676, 7.401674
434.1497, 7.367139
434.6318, 7.441054
435.1139, 7.602454
435.5960, 7.718121
436.0782, 7.775786
436.5603, 7.823072
437.0424, 7.937543
437.5245, 8.094692
438.0066, 8.206022
438.4887, 8.196767
438.9709, 8.157773
439.4530, 8.218774
439.9351, 8.369113
440.4172, 8.531079
440.8993, 8.661576
441.3814, 8.774699
441.8636, 8.886651
442.3457, 9.003804
442.8278, 9.109638
443.3099, 9.171348
443.7920, 9.219077
444.2741, 9.303417
444.7563, 9.481484
445.2384, 9.661686
445.7205, 9.808124
446.2026, 9.919237
446.6847, 10.02216
447.1668, 10.08687
447.6490, 10.16701
448.1311, 10.29735
448.6132, 10.57312
449.0953, 10.77170
449.5774, 10.84199
450.0595, 10.84510
450.5417, 10.92113
451.0238, 11.14261
451.5059, 11.30527
451.9880, 11.33159
452.4701, 11.21425
452.9522, 11.11742
453.4344, 11.05174
453.9165, 10.97847
454.3986, 10.86894
454.8807, 10.72318
455.3628, 10.51555
455.8449, 10.22203
456.3271, 9.890014
456.8092, 9.607625
457.2913, 9.371275
457.7734, 9.166254
458.2555, 8.992199
458.7376, 8.841015
459.2198, 8.687119
459.7019, 8.529624
460.1840, 8.387027
460.6661, 8.282176
461.1482, 8.201501
461.6303, 8.125881
462.1125, 8.055353
462.5946, 7.980204
463.0767, 7.895262
463.5588, 7.800428
464.0409, 7.697265
464.5230, 7.581047
465.0052, 7.461852
465.4873, 7.351179
465.9694, 7.255145
466.4515, 7.139507
466.9336, 7.006586
467.4157, 6.845693
467.8979, 6.646753
468.3800, 6.354287
468.8621, 6.088544
469.3442, 5.877528
469.8263, 5.705379
470.3084, 5.500186
470.7906, 5.231203
471.2727, 4.978311
471.7548, 4.780767
472.2369, 4.649327
472.7190, 4.501078
473.2011, 4.328749
473.6833, 4.149063
474.1654, 3.972247
474.6475, 3.796920
475.1296, 3.657868
475.6117, 3.569469
476.0938, 3.515049
476.5760, 3.454076
477.0581, 3.387963
477.5402, 3.339745
478.0223, 3.346168
478.5044, 3.375343
478.9865, 3.340566
479.4687, 3.227054
479.9508, 3.156856
480.4329, 3.325961
480.9150, 3.587413
481.3971, 3.716328
481.8792, 3.534683
482.3614, 3.314045
482.8435, 3.214299
483.3256, 3.209141
483.8077, 3.218892
484.2898, 3.232948
484.7719, 3.238647
485.2541, 3.223588
485.7362, 3.177302
486.2183, 3.151364
486.7004, 3.163167
487.1825, 3.192865
487.6646, 3.223028
488.1468, 3.264023
488.6289, 3.287068
489.1110, 3.279319
489.5931, 3.252407
490.0752, 3.249442
490.5573, 3.281785
491.0395, 3.309772
491.5216, 3.310844
492.0037, 3.284016
492.4858, 3.280307
492.9679, 3.304091
493.4500, 3.332874
493.9322, 3.342502
494.4143, 3.335099
494.8964, 3.321786
495.3785, 3.300374
495.8606, 3.282029
496.3427, 3.292251
496.8249, 3.322725
497.3070, 3.342156
497.7891, 3.315745
498.2712, 3.279142
498.7533, 3.272393
499.2354, 3.297575
499.7176, 3.327987
500.1997, 3.357021
500.6818, 3.379143
501.1639, 3.388389
501.6460, 3.373475
502.1281, 3.360377
502.6103, 3.357059
503.0924, 3.360522
503.5745, 3.364472
504.0566, 3.372745
504.5387, 3.376536
505.0208, 3.372695
505.5030, 3.360956
505.9851, 3.347664
506.4672, 3.324027
506.9493, 3.310911
507.4314, 3.329387
507.9135, 3.391883
508.3957, 3.427445
508.8778, 3.425016
509.3599, 3.404757
509.8420, 3.402161
510.3241, 3.416789
510.8062, 3.427151
511.2884, 3.421544
511.7705, 3.407866
512.2526, 3.402770
512.7347, 3.406304
513.2168, 3.420077
513.6989, 3.451687
514.1810, 3.491885
514.6631, 3.529580
515.1453, 3.564491
515.6274, 3.590751
516.1095, 3.604093
516.5916, 3.606837
517.0737, 3.602072
517.5558, 3.569113
518.0380, 3.550947
518.5201, 3.573256
519.0022, 3.626942
519.4843, 3.668262
519.9664, 3.683304
520.4485, 3.689828
520.9307, 3.694368
521.4128, 3.697139
521.8949, 3.695798
522.3770, 3.682458
522.8591, 3.673685
523.3412, 3.689433
523.8234, 3.736548
524.3055, 3.775513
524.7876, 3.800475
525.2697, 3.814693
525.7518, 3.822526
526.2339, 3.824063
526.7161, 3.827921
527.1982, 3.837634
527.6803, 3.852910
528.1624, 3.878839
528.6445, 3.915087
529.1266, 3.940754
529.6088, 3.931279
530.0909, 3.904047
530.5730, 3.884480
531.0551, 3.880782
531.5372, 3.875787
532.0193, 3.851803
532.5015, 3.820781
532.9836, 3.801585
533.4657, 3.819454
533.9478, 3.830316
534.4299, 3.812182
534.9120, 3.768988
535.3942, 3.739654
535.8763, 3.727462
536.3584, 3.730535
536.8405, 3.753379
537.3226, 3.807017
537.8047, 3.835691
538.2869, 3.831498
538.7690, 3.813131
539.2511, 3.798830
539.7332, 3.788304
540.2153, 3.787750
540.6974, 3.802023
541.1796, 3.821882
541.6617, 3.825927
542.1438, 3.815773
542.6259, 3.808208
543.1080, 3.809168
543.5901, 3.819410
544.0723, 3.849327
544.5544, 3.896954
545.0365, 3.930433
545.5186, 3.910892
546.0007, 3.873122
546.4828, 3.850759
546.9650, 3.848195
547.4471, 3.867738
547.9292, 3.932325
548.4113, 4.013230
548.8934, 4.070795
549.3755, 4.066095
549.8577, 4.072356
550.3398, 4.106848
550.8219, 4.165222
551.3040, 4.224458
551.7861, 4.288957
552.2682, 4.348950
552.7504, 4.402002
553.2325, 4.448811
553.7146, 4.475367
554.1967, 4.474774
554.6788, 4.474831
555.1609, 4.512399
555.6431, 4.580670
556.1252, 4.630664
556.6073, 4.648055
557.0894, 4.657555
557.5715, 4.695078
558.0536, 4.753173
558.5358, 4.810234
559.0179, 4.859604
559.5000, 4.900513
559.9821, 4.924820
560.4642, 4.936143
560.9464, 4.956606
561.4285, 5.001780
561.9106, 5.055388
562.3927, 5.106675
562.8748, 5.152798
563.3569, 5.202666
563.8391, 5.265604
564.3212, 5.328157
564.8033, 5.377208
565.2854, 5.398070
565.7675, 5.436929
566.2496, 5.508788
566.7318, 5.596003
567.2139, 5.648592
567.6960, 5.662484
568.1781, 5.676740
568.6602, 5.712226
569.1423, 5.759542
569.6245, 5.778063
570.1066, 5.768446
570.5887, 5.757812
571.0708, 5.772624
571.5529, 5.797963
572.0350, 5.811273
572.5172, 5.810418
572.9993, 5.793463
573.4814, 5.755467
573.9635, 5.701736
574.4456, 5.639181
574.9277, 5.544878
575.4099, 5.470126
575.8920, 5.438914
576.3741, 5.438034
576.8562, 5.430350
577.3383, 5.399981
577.8204, 5.376975
578.3026, 5.366923
578.7847, 5.370064
579.2668, 5.391520
579.7489, 5.435333
580.2310, 5.487636
580.7131, 5.542569
581.1953, 5.599787
581.6774, 5.645655
582.1595, 5.678270
582.6416, 5.703507
583.1237, 5.717593
583.6058, 5.728797
584.0880, 5.766393
584.5701, 5.856668
585.0522, 5.944669
585.5343, 5.970038
586.0164, 5.949931
586.4985, 5.926071
586.9807, 5.892158
587.4628, 5.881071
587.9449, 5.922193
588.4270, 6.013201
588.9091, 6.091830
589.3912, 6.152651
589.8734, 6.192089
590.3555, 6.204554
590.8376, 6.175979
591.3197, 6.168321
591.8018, 6.191042
592.2839, 6.222023
592.7661, 6.238863
593.2482, 6.240847
593.7303, 6.234591
594.2124, 6.218272
594.6945, 6.199244
595.1766, 6.182941
595.6588, 6.172196
596.1409, 6.182866
596.6230, 6.252618
597.1051, 6.326566
597.5872, 6.330251
598.0693, 6.273282
598.5515, 6.205447
599.0336, 6.160631
599.5157, 6.109332
599.9978, 6.030500
600.4799, 5.920419
600.9620, 5.796851
601.4442, 5.652764
601.9263, 5.503329
602.4084, 5.361575
602.8905, 5.244062
603.3726, 5.097878
603.8547, 4.902994
604.3369, 4.696886
604.8190, 4.548277
605.3011, 4.462752
605.7832, 4.385156
606.2653, 4.299493
606.7474, 4.215582
607.2296, 4.163640
607.7117, 4.140450
608.1938, 4.123324
608.6759, 4.102058
609.1580, 4.077780
609.6401, 4.044946
610.1223, 4.005027
610.6044, 3.984221
611.0865, 4.017023
611.5686, 4.062493
612.0507, 4.085279
612.5328, 4.066705
613.0150, 4.064175
613.4971, 4.102434
613.9792, 4.154988
614.4613, 4.195814
614.9434, 4.226281
615.4255, 4.242676
615.9077, 4.242465
616.3898, 4.229835
616.8719, 4.207632
617.3540, 4.173242
617.8361, 4.158198
618.3182, 4.184173
618.8004, 4.231541
619.2825, 4.245527
619.7646, 4.230484
620.2467, 4.221876
620.7288, 4.256919
621.2109, 4.303326
621.6931, 4.316864
622.1752, 4.294343
622.6573, 4.281325
623.1394, 4.310874
623.6215, 4.353859
624.1036, 4.387549
624.5858, 4.405294
625.0679, 4.419059
625.5500, 4.418074
626.0321, 4.420397
626.5142, 4.452973
626.9963, 4.542968
627.4785, 4.590388
627.9606, 4.569283
628.4427, 4.507067
628.9248, 4.463428
629.4069, 4.438645
629.8890, 4.432318
630.3712, 4.462837
630.8533, 4.501005
631.3354, 4.479704
631.8175, 4.407328
632.2996, 4.337430
632.7817, 4.309837
633.2639, 4.296415
633.7460, 4.272338
634.2281, 4.234825
634.7102, 4.196661
635.1923, 4.162852
635.6744, 4.129799
636.1566, 4.095143
636.6387, 4.062486
637.1208, 4.020340
637.6029, 3.959845
638.0850, 3.898101
638.5671, 3.859963
639.0493, 3.849842
639.5314, 3.837001
640.0135, 3.817575
640.4956, 3.790115
640.9777, 3.744879
641.4598, 3.685483
641.9420, 3.634474
642.4241, 3.612412
642.9062, 3.596020
643.3883, 3.553582
643.8704, 3.489993
644.3525, 3.428332
644.8347, 3.389781
645.3168, 3.348702
645.7989, 3.283349
646.2810, 3.189398
646.7631, 3.109350
647.2452, 3.060743
647.7274, 3.019032
648.2095, 2.970019
648.6916, 2.903930
649.1737, 2.861414
649.6558, 2.848565
650.1379, 2.846261
650.6201, 2.833619
651.1022, 2.811128
651.5843, 2.786563
652.0664, 2.759127
652.5485, 2.736212
653.0306, 2.733752
653.5128, 2.744079
653.9949, 2.749471
654.4770, 2.739481
654.9591, 2.725357
655.4412, 2.707609
655.9233, 2.690692
656.4055, 2.687357
656.8876, 2.726170
657.3697, 2.754209
657.8518, 2.747827
658.3339, 2.709300
658.8160, 2.679866
659.2982, 2.657222
659.7803, 2.648234
660.2624, 2.665291
660.7445, 2.708064
661.2266, 2.714790
661.7087, 2.680821
662.1909, 2.645786
662.6730, 2.650864
663.1551, 2.681461
663.6372, 2.705776
664.1193, 2.719042
664.6014, 2.725181
665.0836, 2.719702
665.5657, 2.711959
666.0478, 2.713597
666.5299, 2.737712
667.0120, 2.758449
667.4941, 2.765600
667.9763, 2.766560
668.4584, 2.774985
668.9405, 2.795058
669.4226, 2.815243
669.9047, 2.834900
670.3868, 2.852340
670.8690, 2.859225
671.3511, 2.854650
671.8332, 2.854032
672.3153, 2.871833
672.7974, 2.895322
673.2795, 2.890234
673.7617, 2.861113
674.2438, 2.839971
674.7259, 2.861440
675.2080, 2.890649
675.6901, 2.895642
676.1722, 2.872209
676.6544, 2.850578
677.1365, 2.834139
677.6186, 2.827019
678.1007, 2.836050
678.5828, 2.878412
679.0649, 2.885442
679.5471, 2.838563
680.0292, 2.782415
680.5113, 2.770196
680.9934, 2.802945
681.4755, 2.816642
681.9576, 2.799099
682.4398, 2.772779
682.9219, 2.768386
683.4040, 2.780015
683.8861, 2.793086
684.3682, 2.808636
684.8503, 2.815690
685.3325, 2.796362
685.8146, 2.763531
686.2967, 2.743954
686.7788, 2.762856
687.2609, 2.777332
687.7430, 2.765610
688.2252, 2.737502
688.7073, 2.737757
689.1894, 2.785320
689.6715, 2.817975
690.1536, 2.800339
690.6357, 2.745490
691.1179, 2.750072
691.6000, 2.815993
692.0821, 2.879040
692.5642, 2.891025
693.0463, 2.873874
693.5284, 2.858069
694.0106, 2.845850
694.4927, 2.851256
694.9748, 2.898829
695.4569, 2.957797
695.9390, 3.004319
696.4211, 3.032597
696.9033, 3.055403
697.3854, 3.064432
697.8675, 3.076318
698.3496, 3.107893
698.8317, 3.171768
699.3138, 3.211692
699.7960, 3.219601
700.2781, 3.212551
700.7602, 3.208928
701.2423, 3.209472
701.7244, 3.220903
702.2065, 3.249455
702.6887, 3.278603
703.1708, 3.283684
703.6529, 3.276030
704.1350, 3.276985
704.6171, 3.307409
705.0992, 3.335011
705.5814, 3.346991
706.0635, 3.346349
706.5456, 3.341802
707.0277, 3.335500
707.5098, 3.323093
707.9919, 3.298849
708.4741, 3.267620
708.9562, 3.257656
709.4383, 3.272081
709.9204, 3.282411
710.4025, 3.268767
710.8846, 3.241740
711.3667, 3.229660
711.8488, 3.231252
712.3309, 3.235981
712.8130, 3.244288
713.2952, 3.247604
713.7773, 3.236511
714.2594, 3.209591
714.7415, 3.182885
715.2236, 3.141932
715.7057, 3.118211
716.1879, 3.131919
716.6700, 3.193447
717.1521, 3.239371
717.6342, 3.238707
718.1163, 3.287617
718.5984, 3.555416
719.0806, 4.001229
719.5627, 4.178182
720.0448, 4.016985
720.5269, 3.764037
721.0090, 3.632211
721.4911, 3.592381
721.9733, 3.604014
722.4554, 3.680121
722.9375, 3.750401
723.4196, 3.784586
723.9017, 3.793772
724.3839, 3.792386
724.8660, 3.778101
725.3481, 3.758365
725.8302, 3.728313
726.3123, 3.696713
726.7944, 3.682698
727.2766, 3.688272
727.7587, 3.685448
728.2408, 3.660059
728.7229, 3.634120
729.2050, 3.659849
729.6871, 3.721514
730.1693, 3.765353
730.6514, 3.738379
731.1335, 3.711095
731.6156, 3.742001
732.0977, 3.813176
732.5798, 3.869376
733.0620, 3.880689
733.5441, 3.891088
734.0262, 3.908597
734.5083, 3.934325
734.9904, 3.978930
735.4725, 4.046360
735.9547, 4.118833
736.4368, 4.189183
736.9189, 4.257947
737.4010, 4.337641
737.8831, 4.424684
738.3652, 4.483591
738.8474, 4.461947
739.3295, 4.418360
739.8116, 4.412891
740.2937, 4.448342
740.7758, 4.492663
741.2579, 4.542612
741.7401, 4.590498
742.2222, 4.626179
742.7043, 4.642831
743.1864, 4.700105
743.6685, 4.823158
744.1506, 4.937141
744.6328, 4.975398
745.1149, 4.944459
745.5970, 4.942694
746.0791, 4.975363
746.5612, 5.019333
747.0433, 5.056239
747.5255, 5.090063
748.0076, 5.128709
748.4897, 5.176485
748.9718, 5.213699
749.4539, 5.225990
749.9360, 5.225997
750.4182, 5.224560
750.9003, 5.222380
751.3824, 5.220837
751.8645, 5.226504
752.3466, 5.224634
752.8287, 5.189205
753.3109, 5.118822
753.7930, 5.081937
754.2751, 5.093992
754.7572, 5.114481
755.2393, 5.095492
755.7214, 5.048326
756.2036, 4.993789
756.6857, 4.936225
757.1678, 4.876454
757.6499, 4.797045
758.1320, 4.721377
758.6141, 4.684189
759.0963, 4.737313
759.5784, 4.761526
760.0605, 4.741655
760.5426, 4.693456
761.0247, 4.644357
761.5068, 4.594714
761.9890, 4.534701
762.4711, 4.455207
762.9532, 4.377283
763.4353, 4.346299
763.9174, 4.345276
764.3995, 4.330235
764.8817, 4.272931
765.3638, 4.207367
765.8459, 4.148123
766.3280, 4.094154
766.8101, 4.044576
767.2922, 4.006001
767.7744, 3.962851
768.2565, 3.909862
768.7386, 3.851343
769.2207, 3.796660
769.7028, 3.745613
770.1849, 3.699999
770.6671, 3.655423
771.1492, 3.621752
771.6313, 3.625304
772.1134, 3.657284
772.5955, 3.687162
773.0776, 3.682514
773.5598, 3.686896
774.0419, 3.731728
774.5240, 3.809299
775.0061, 3.883751
775.4882, 3.965839
775.9703, 4.022569
776.4525, 4.035016
776.9346, 4.014909
777.4167, 4.019859
777.8988, 4.050682
778.3809, 4.095222
778.8630, 4.159454
779.3452, 4.226988
779.8273, 4.261675
780.3094, 4.269048
780.7915, 4.276364
781.2736, 4.312021
781.7557, 4.339910
782.2379, 4.338045
782.7200, 4.307014
783.2021, 4.265528
783.6842, 4.208960
784.1663, 4.152800
784.6484, 4.103080
785.1306, 4.058808
785.6127, 4.002242
786.0948, 3.931754
786.5769, 3.878429
787.0590, 3.878875
787.5411, 3.901626
788.0233, 3.893568
788.5054, 3.857050
788.9875, 3.811601
789.4696, 3.764553
789.9517, 3.714725
790.4338, 3.657246
790.9160, 3.591651
791.3981, 3.545757
791.8802, 3.536972
792.3623, 3.519427
792.8444, 3.462440
793.3265, 3.373853
793.8087, 3.341083
794.2908, 3.364463
794.7729, 3.392633
795.2550, 3.392253
795.7371, 3.374782
796.2192, 3.347391
796.7014, 3.312677
797.1835, 3.292566
797.6656, 3.314428
798.1477, 3.338413
798.6298, 3.335682
799.1119, 3.304035
799.5941, 3.307093
800.0762, 3.364745
800.5583, 3.410976
801.0404, 3.400388
801.5225, 3.344898
802.0046, 3.321301
802.4868, 3.328626
802.9689, 3.345033
803.4510, 3.363309
803.9331, 3.377645
804.4152, 3.374789
804.8973, 3.356223
805.3795, 3.355308
805.8616, 3.404592
806.3437, 3.453533
806.8258, 3.476641
807.3079, 3.473686
807.7900, 3.481854
808.2722, 3.503467
808.7543, 3.527241
809.2364, 3.547044
809.7185, 3.563552
810.2006, 3.571629
810.6827, 3.573682
811.1649, 3.594935
811.6470, 3.676249
812.1291, 3.763937
812.6112, 3.816730
813.0933, 3.832450
813.5754, 3.841612
814.0576, 3.832179
814.5397, 3.837921
815.0218, 3.880143
815.5039, 3.955128
815.9860, 3.992493
816.4681, 3.989692
816.9503, 3.985304
817.4324, 4.004094
817.9145, 4.037525
818.3966, 4.080442
818.8787, 4.128154
819.3608, 4.152979
819.8430, 4.110734
820.3251, 4.068079
820.8072, 4.070300
821.2893, 4.117654
821.7714, 4.136076
822.2535, 4.119890
822.7357, 4.085136
823.2178, 4.031038
823.6999, 3.964607
824.1820, 3.912777
824.6641, 3.875666
825.1462, 3.857066
825.6284, 3.886909
826.1105, 3.915684
826.5926, 3.884600
827.0747, 3.804198
827.5568, 3.732648
828.0389, 3.693114
828.5211, 3.661127
829.0032, 3.630348
829.4853, 3.599948
829.9674, 3.565010
830.4495, 3.526015
830.9316, 3.479561
831.4138, 3.417973
831.8959, 3.352412
832.3780, 3.309419
832.8601, 3.284183
833.3422, 3.256475
833.8243, 3.198311
834.3065, 3.151455
834.7886, 3.152780
835.2707, 3.187629
835.7528, 3.196627
836.2349, 3.155320
836.7170, 3.124699
837.1992, 3.124078
837.6813, 3.140342
838.1634, 3.136065
838.6455, 3.112290
839.1276, 3.084322
839.6097, 3.052062
840.0919, 3.026405
840.5740, 3.028050
841.0561, 3.045379
841.5382, 3.052909
842.0203, 3.029757
842.5024, 3.009903
842.9846, 3.008305
843.4667, 3.013331
843.9488, 2.989648
844.4309, 2.914480
844.9130, 2.934957
845.3951, 3.118627
845.8773, 3.332855
846.3594, 3.309761
846.8415, 3.141126
847.3236, 3.084861
847.8057, 3.320607
848.2878, 3.509573
848.7700, 3.386069
849.2521, 3.120234
849.7342, 2.950632
850.2163, 2.952170
850.6984, 2.959264
851.1805, 2.967421
851.6627, 2.971852
852.1448, 2.958946
852.6269, 2.932455
853.1090, 2.930378
853.5911, 2.963867
854.0732, 2.998398
854.5554, 2.996766
855.0375, 2.977872
855.5196, 2.964086
856.0017, 2.958861
856.4838, 2.962667
856.9659, 2.986354
857.4481, 3.009812
857.9302, 3.017857
858.4123, 3.009393
858.8944, 2.990536
859.3765, 2.959526
859.8586, 2.928355
860.3408, 2.902573
860.8229, 2.886575
861.3050, 2.896255
861.7871, 2.935257
862.2692, 2.961036
862.7513, 2.943203
863.2335, 2.912085
863.7156, 2.885407
864.1977, 2.863409
864.6798, 2.851954
865.1619, 2.851933
865.6440, 2.860194
866.1262, 2.882758
866.6083, 2.912292
867.0904, 2.919827
867.5725, 2.905801
868.0546, 2.877215
868.5367, 2.808797
869.0189, 2.752051
869.5010, 2.760544
869.9831, 2.829781
870.4652, 2.861611
870.9473, 2.832738
871.4294, 2.789740
871.9116, 2.738201
872.3937, 2.686826
872.8758, 2.683942
873.3579, 2.725509
873.8400, 2.750862
874.3221, 2.718887
874.8043, 2.666466
875.2864, 2.623847
875.7685, 2.591907
876.2506, 2.574559
876.7327, 2.577759
877.2148, 2.591369
877.6970, 2.622366
878.1791, 2.657048
878.6612, 2.661869
879.1433, 2.633147
879.6254, 2.616849
880.1075, 2.629186
880.5897, 2.644391
881.0718, 2.617844
881.5539, 2.570145
882.0360, 2.541156
882.5181, 2.554106
883.0002, 2.567286
883.4824, 2.565218
883.9645, 2.556730
884.4466, 2.551846
884.9287, 2.552522
885.4108, 2.550988
885.8929, 2.548468
886.3751, 2.538046
886.8572, 2.501144
887.3393, 2.452602
887.8214, 2.425467
888.3035, 2.424685
888.7856, 2.439039
889.2678, 2.487794
889.7499, 2.530049
890.2320, 2.529473
890.7141, 2.476382
891.1962, 2.432509
891.6783, 2.396028
892.1605, 2.374500
892.6426, 2.380558
893.1247, 2.406134
893.6068, 2.418067
894.0889, 2.417379
894.5710, 2.414675
895.0532, 2.414295
895.5353, 2.416232
896.0174, 2.422097
896.4995, 2.431092
896.9816, 2.436740
897.4637, 2.440152
897.9459, 2.436994
898.4280, 2.423009
898.9101, 2.403683
899.3922, 2.394680
899.8743, 2.395449
900.3564, 2.403730
900.8386, 2.426644
901.3207, 2.445813
901.8028, 2.443996
902.2849, 2.427955
902.7670, 2.409567
903.2491, 2.382324
903.7313, 2.367287
904.2134, 2.373199
904.6955, 2.383753
905.1776, 2.370697
905.6597, 2.336306
906.1418, 2.317364
906.6240, 2.320655
907.1061, 2.333053
907.5882, 2.345495
908.0703, 2.357925
908.5524, 2.372836
909.0345, 2.396152
909.5167, 2.400901
909.9988, 2.369893
910.4809, 2.336864
910.9630, 2.328963
911.4451, 2.347164
911.9272, 2.320143
912.4094, 2.246206
912.8915, 2.187841
913.3736, 2.214621
913.8557, 2.266954
914.3378, 2.273222
914.8199, 2.237142
915.3021, 2.216591
915.7842, 2.249681
916.2663, 2.277102
916.7484, 2.279832
917.2305, 2.263467
917.7126, 2.245380
918.1948, 2.225453
918.6769, 2.221285
919.1590, 2.252024
919.6411, 2.283581
920.1232, 2.262496
920.6053, 2.212086
921.0875, 2.178669
921.5696, 2.190819
922.0517, 2.203629
922.5338, 2.208857
923.0159, 2.211828
923.4980, 2.220401
923.9802, 2.235253
924.4623, 2.244760
924.9444, 2.247617
925.4265, 2.243894
925.9086, 2.222484
926.3907, 2.199607
926.8729, 2.202625
927.3550, 2.241510
927.8371, 2.266922
928.3192, 2.257210
928.8013, 2.236383
929.2834, 2.212363
929.7656, 2.185197
930.2477, 2.171201
930.7298, 2.170506
931.2119, 2.177079
931.6940, 2.191067
932.1761, 2.207383
932.6583, 2.220243
933.1404, 2.229966
933.6225, 2.237778
934.1046, 2.244439
934.5867, 2.249184
935.0688, 2.255035
935.5510, 2.257524
936.0331, 2.240729
936.5152, 2.204068
936.9973, 2.181685
937.4794, 2.186926
937.9615, 2.197271
938.4437, 2.180289
938.9258, 2.153041
939.4079, 2.141450
939.8900, 2.158118
940.3721, 2.179131
940.8542, 2.215310
941.3364, 2.239173
941.8185, 2.219958
942.3006, 2.155700
942.7827, 2.118857
943.2648, 2.111759
943.7469, 2.122692
944.2291, 2.162651
944.7112, 2.201363
945.1933, 2.200724
945.6754, 2.161226
946.1575, 2.129478
946.6396, 2.121485
947.1218, 2.115958
947.6039, 2.102900
948.0860, 2.089110
948.5681, 2.108399
949.0502, 2.157347
949.5323, 2.191815
950.0145, 2.191757
950.4966, 2.173769
950.9787, 2.138798
951.4608, 2.101037
951.9429, 2.083953
952.4250, 2.118233
952.9072, 2.136931
953.3893, 2.132739
953.8714, 2.118633
954.3535, 2.106866
954.8356, 2.097852
955.3177, 2.094774
955.7999, 2.098141
956.2820, 2.103217
956.7641, 2.110620
957.2462, 2.114954
957.7283, 2.107821
958.2104, 2.086882
958.6925, 2.082495
959.1746, 2.108597
959.6567, 2.122406
960.1389, 2.096752
960.6210, 2.049012
961.1031, 2.041616
961.5852, 2.066874
962.0673, 2.089353
962.5494, 2.090789
963.0316, 2.085570
963.5137, 2.075377
963.9958, 2.065672
964.4779, 2.066947
964.9600, 2.081446
965.4421, 2.103042
965.9243, 2.134785
966.4064, 2.163783
966.8885, 2.171931
967.3706, 2.165221
967.8527, 2.156840
968.3348, 2.148429
968.8170, 2.142731
969.2991, 2.149396
969.7812, 2.152089
970.2633, 2.132407
970.7454, 2.089985
971.2275, 2.091877
971.7097, 2.147207
972.1918, 2.191799
972.6739, 2.181805
973.1560, 2.148442
973.6381, 2.149683
974.1202, 2.173297
974.6024, 2.184741
975.0845, 2.157752
975.5666, 2.132442
976.0487, 2.115135
976.5308, 2.107448
977.0129, 2.118228
977.4951, 2.148872
977.9772, 2.154880
978.4593, 2.126400
978.9414, 2.095961
979.4235, 2.101558
979.9056, 2.120939
980.3878, 2.126304
980.8699, 2.111409
981.3520, 2.101442
981.8341, 2.104875
982.3162, 2.106473
982.7983, 2.093976
983.2805, 2.073769
983.7626, 2.090212
984.2447, 2.138315
984.7268, 2.174186
985.2089, 2.170784
985.6910, 2.151144
986.1732, 2.125077
986.6553, 2.095779
987.1374, 2.069550
987.6195, 2.041680
988.1016, 2.028038
988.5837, 2.032130
989.0659, 2.046335
989.5480, 2.069160
990.0301, 2.093730
990.5122, 2.097996
990.9943, 2.078459
991.4764, 2.054207
991.9586, 2.029680
992.4407, 2.009542
992.9228, 1.994056
993.4049, 1.983511
993.8870, 1.994645
994.3691, 2.031047
994.8513, 2.064546
995.3334, 2.082893
995.8155, 2.090379
996.2976, 2.091937
996.7797, 2.088366
997.2618, 2.081485
997.7440, 2.050432
998.2261, 2.046635
998.7082, 2.095792
999.1903, 2.157611
999.6724, 2.186912
1000.155, 2.183950
1000.637, 2.174987
1001.119, 2.161964
1001.601, 2.145981
1002.083, 2.119072
1002.565, 2.096122
1003.047, 2.095891
1003.529, 2.119339
1004.011, 2.127119
1004.494, 2.107838
1004.976, 2.093220
1005.458, 2.097220
1005.940, 2.109643
1006.422, 2.098048
1006.904, 2.072192
1007.386, 2.061890
1007.868, 2.052093
1008.351, 2.106843
1008.833, 2.382160
1009.315, 2.662730
1009.797, 2.703070
1010.279, 2.421526
1010.761, 2.220783
1011.243, 2.108905
1011.725, 2.063303
1012.207, 2.111204
1012.690, 2.190049
1013.172, 2.208350
1013.654, 2.169593
1014.136, 2.129395
1014.618, 2.098809
1015.100, 2.079663
1015.582, 2.074843
1016.064, 2.079921
1016.547, 2.093046
1017.029, 2.110560
1017.511, 2.095836
1017.993, 2.028599
1018.475, 1.966521
1018.957, 1.960115
1019.439, 1.980888
1019.921, 2.002742
1020.403, 2.025202
1020.886, 2.037232
1021.368, 2.037512
1021.850, 2.031229
1022.332, 2.015462
1022.814, 1.998036
1023.296, 2.005484
1023.778, 2.029255
1024.260, 2.038190
1024.743, 1.998922
1025.225, 1.965706
1025.707, 1.959640
1026.189, 1.967153
1026.671, 1.967445
1027.153, 1.959765
1027.635, 1.971166
1028.117, 2.008570
1028.599, 2.038061
1029.082, 2.016695
1029.564, 1.978801
1030.046, 1.957254
1030.528, 1.956298
1031.010, 1.964167
1031.492, 1.984129
1031.974, 2.003393
1032.456, 2.019870
1032.938, 2.029818
1033.421, 2.016004
1033.903, 1.986895
1034.385, 1.971756
1034.867, 1.994856
1035.349, 2.009984
1035.831, 1.982248
1036.313, 1.945604
1036.795, 1.936139
1037.278, 1.959507
1037.760, 1.972575
1038.242, 1.974119
1038.724, 1.972452
1039.206, 1.970706
1039.688, 1.971598
1040.170, 1.982283
1040.652, 1.999694
1041.135, 2.007630
1041.617, 1.994158
1042.099, 1.986703
1042.581, 1.993428
1043.063, 2.003694
1043.545, 1.992846
1044.027, 1.969364
1044.509, 1.967569
1044.991, 1.998979
1045.474, 2.020485
1045.956, 1.991257
1046.438, 1.957017
1046.920, 1.953917
1047.402, 1.980961
1047.884, 1.986370
1048.366, 1.968954
1048.848, 1.945789
1049.330, 1.917090
1049.813, 1.896461
1050.295, 1.911746
1050.777, 1.944181
1051.259, 1.958891
1051.741, 1.932552
1052.223, 1.908184
1052.705, 1.885915
1053.187, 1.867829
1053.670, 1.856495
1054.152, 1.851250
1054.634, 1.850783
1055.116, 1.854735
1055.598, 1.859821
1056.080, 1.873409
1056.562, 1.877894
1057.044, 1.857749
1057.526, 1.824026
1058.009, 1.802830
1058.491, 1.794237
1058.973, 1.799222
1059.455, 1.821445
1059.937, 1.843558
1060.419, 1.846326
1060.901, 1.839711
1061.383, 1.835763
1061.865, 1.838321
1062.348, 1.830573
1062.830, 1.806917
1063.312, 1.785285
1063.794, 1.776343
1064.276, 1.773900
1064.758, 1.759094
1065.240, 1.737110
1065.722, 1.723147
1066.205, 1.709616
1066.687, 1.724694
1067.169, 1.823308
1067.651, 1.916957
1068.133, 1.907110
1068.615, 1.792463
1069.097, 1.729238
1069.579, 1.723640
1070.062, 1.732888
1070.544, 1.730054
1071.026, 1.724761
1071.508, 1.728239
1071.990, 1.736391
1072.472, 1.727077
1072.954, 1.687835
1073.436, 1.672095
1073.918, 1.695562
1074.401, 1.729321
1074.883, 1.736538
1075.365, 1.727469
1075.847, 1.717406
1076.329, 1.708501
1076.811, 1.702630
1077.293, 1.705958
1077.775, 1.704244
1078.257, 1.685954
1078.740, 1.660926
1079.222, 1.669367
1079.704, 1.705058
1080.186, 1.738824
1080.668, 1.766950
1081.150, 1.777321
1081.632, 1.750297
1082.114, 1.709712
1082.596, 1.677153
1083.079, 1.648582
1083.561, 1.662467
1084.043, 1.722788
1084.525, 1.773908
1085.007, 1.758993
1085.489, 1.728432
1085.971, 1.740948
1086.453, 1.781808
1086.936, 1.801350
1087.418, 1.784458
1087.900, 1.763563
1088.382, 1.740780
1088.864, 1.718533
1089.346, 1.699251
1089.828, 1.683186
1090.310, 1.671908
1090.792, 1.665506
1091.275, 1.659521
1091.757, 1.649827
1092.239, 1.643458
1092.721, 1.644528
1093.203, 1.649429
1093.685, 1.647949
1094.167, 1.640761
1094.649, 1.629941
1095.131, 1.612080
1095.614, 1.604669
1096.096, 1.628349
1096.578, 1.661749
1097.060, 1.691855
1097.542, 1.719275
1098.024, 1.706704
1098.506, 1.650390
1098.988, 1.600191
1099.471, 1.582444
1099.953, 1.583772
1100.435, 1.600971
1100.917, 1.622662
1101.399, 1.627603
1101.881, 1.590271
1102.363, 1.580599
1102.845, 1.610502
1103.328, 1.638171
1103.810, 1.615625
1104.292, 1.569334
1104.774, 1.557058
1105.256, 1.574844
1105.738, 1.593335
1106.220, 1.609702
1106.702, 1.613060
1107.184, 1.596664
1107.667, 1.572275
1108.149, 1.556146
1108.631, 1.547843
1109.113, 1.547826
1109.595, 1.556441
1110.077, 1.564213
1110.559, 1.568613
1111.041, 1.566805
1111.523, 1.551058
1112.006, 1.527971
1112.488, 1.529446
1112.970, 1.555849
1113.452, 1.568934
1113.934, 1.554073
1114.416, 1.535190
1114.898, 1.536861
1115.380, 1.546017
1115.863, 1.546521
1116.345, 1.533758
1116.827, 1.542749
1117.309, 1.582260
1117.791, 1.601788
1118.273, 1.559406
1118.755, 1.501943
1119.237, 1.504304
1119.719, 1.541780
1120.202, 1.566382
1120.684, 1.547700
1121.166, 1.547577
1121.648, 1.577650
1122.130, 1.606693
1122.612, 1.605371
1123.094, 1.584241
1123.576, 1.573259
1124.058, 1.570315
1124.541, 1.563592
1125.023, 1.544721
1125.505, 1.524909
1125.987, 1.503817
1126.469, 1.486674
1126.951, 1.482991
1127.433, 1.490499
1127.915, 1.494045
1128.398, 1.492392
1128.880, 1.491412
1129.362, 1.491059
1129.844, 1.496586
1130.326, 1.519662
1130.808, 1.548395
1131.290, 1.548977
1131.772, 1.521176
1132.255, 1.496602
1132.737, 1.481556
1133.219, 1.470792
1133.701, 1.451967
1134.183, 1.440582
1134.665, 1.458807
1135.147, 1.505755
1135.629, 1.525042
1136.111, 1.511940
1136.594, 1.499614
1137.076, 1.499967
1137.558, 1.505705
1138.040, 1.513160
1138.522, 1.517491
1139.004, 1.510155
1139.486, 1.482324
1139.968, 1.468583
1140.450, 1.473990
1140.933, 1.479262
1141.415, 1.469806
1141.897, 1.456910
1142.379, 1.465453
1142.861, 1.487028
1143.343, 1.503119
1143.825, 1.517493
1144.307, 1.505794
1144.790, 1.451927
1145.272, 1.400670
1145.754, 1.395028
1146.236, 1.421178
1146.718, 1.437656
1147.200, 1.445511
1147.682, 1.454029
1148.164, 1.466151
1148.646, 1.481413
1149.129, 1.504036
1149.611, 1.524784
1150.093, 1.531630
1150.575, 1.526194
1151.057, 1.516701
1151.539, 1.503927
1152.021, 1.488527
1152.503, 1.463133
1152.985, 1.444155
1153.468, 1.444370
1153.950, 1.453333
1154.432, 1.448117
1154.914, 1.430026
1155.396, 1.418335
1155.878, 1.416009
1156.360, 1.423635
1156.842, 1.462765
1157.325, 1.493537
1157.807, 1.470554
1158.289, 1.412418
1158.771, 1.401708
1159.253, 1.440145
1159.735, 1.476091
1160.217, 1.497105
1160.699, 1.507419
1161.182, 1.508784
1161.664, 1.502919
1162.146, 1.489388
1162.628, 1.468126
1163.110, 1.447585
1163.592, 1.425788
1164.074, 1.422292
1164.556, 1.455870
1165.038, 1.489616
1165.521, 1.469716
1166.003, 1.428807
1166.485, 1.413259
1166.967, 1.438288
1167.449, 1.450139
1167.931, 1.445956
1168.413, 1.442267
1168.895, 1.452429
1169.377, 1.464197
1169.860, 1.454913
1170.342, 1.435267
1170.824, 1.425000
1171.306, 1.436781
1171.788, 1.444157
1172.270, 1.447772
1172.752, 1.445025
1173.234, 1.426962
1173.717, 1.405136
1174.199, 1.399300
1174.681, 1.406882
1175.163, 1.419803
1175.645, 1.452972
1176.127, 1.462577
1176.609, 1.439497
1177.091, 1.407177
1177.573, 1.384872
1178.056, 1.371918
1178.538, 1.365875
1179.020, 1.367438
1179.502, 1.380090
1179.984, 1.425654
1180.466, 1.451797
1180.948, 1.444954
1181.430, 1.426632
1181.912, 1.426761
1182.395, 1.436299
1182.877, 1.426807
1183.359, 1.398506
1183.841, 1.383472
1184.323, 1.418800
1184.805, 1.436201
1185.287, 1.411347
1185.769, 1.371130
1186.252, 1.362818
1186.734, 1.377540
1187.216, 1.391485
1187.698, 1.401587
1188.180, 1.404003
1188.662, 1.395913
1189.144, 1.379252
1189.626, 1.348439
1190.109, 1.315954
1190.591, 1.312173
1191.073, 1.331619
1191.555, 1.357139
1192.037, 1.386166
1192.519, 1.411741
1193.001, 1.432772
1193.483, 1.446877
1193.965, 1.455221
1194.448, 1.454996
1194.930, 1.426863
1195.412, 1.380501
1195.894, 1.356750
1196.376, 1.372292
1196.858, 1.390246
1197.340, 1.394243
1197.822, 1.394391
1198.304, 1.396227
1198.787, 1.398833
1199.269, 1.397479
1199.751, 1.392738
1200.233, 1.386842
1200.715, 1.378374
1201.197, 1.374170
1201.679, 1.378569
1202.161, 1.388100
1202.644, 1.405498
1203.126, 1.426511
1203.608, 1.413178
1204.090, 1.373133
1204.572, 1.347508
1205.054, 1.365650
1205.536, 1.381251
1206.018, 1.366737
1206.500, 1.346228
1206.983, 1.337809
1207.465, 1.340530
1207.947, 1.349070
1208.429, 1.361392
1208.911, 1.364978
1209.393, 1.344496
1209.875, 1.325371
1210.357, 1.321427
1210.839, 1.321580
1211.322, 1.316355
1211.804, 1.306231
1212.286, 1.297893
1212.768, 1.292028
1213.250, 1.293894
1213.732, 1.320196
1214.214, 1.337922
1214.696, 1.322984
1215.179, 1.301598
1215.661, 1.300581
1216.143, 1.318051
1216.625, 1.341616
1217.107, 1.368414
1217.589, 1.377052
1218.071, 1.326751
1218.553, 1.292216
1219.036, 1.319417
1219.518, 1.362335
1220.000, 1.359660
1220.482, 1.319844
1220.964, 1.315484
1221.446, 1.347176
1221.928, 1.375730
1222.410, 1.375965
1222.892, 1.373320
1223.375, 1.379264
1223.857, 1.385605
1224.339, 1.379596
1224.821, 1.363264
1225.303, 1.343868
1225.785, 1.323194
1226.267, 1.317158
1226.749, 1.358846
1227.231, 1.384641
1227.714, 1.366518
1228.196, 1.331396
1228.678, 1.322643
1229.160, 1.333463
1229.642, 1.337261
1230.124, 1.331634
1230.606, 1.324461
1231.088, 1.318617
1231.571, 1.313114
1232.053, 1.307853
1232.535, 1.302407
1233.017, 1.294846
1233.499, 1.286579
1233.981, 1.281599
1234.463, 1.280411
1234.945, 1.283779
1235.427, 1.300553
1235.910, 1.309646
1236.392, 1.301103
1236.874, 1.288578
1237.356, 1.305433
1237.838, 1.335482
1238.320, 1.333997
1238.802, 1.295222
1239.284, 1.259905
1239.766, 1.237759
1240.249, 1.228507
1240.731, 1.234756
1241.213, 1.249645
1241.695, 1.269446
1242.177, 1.286776
1242.659, 1.279926
1243.141, 1.244694
1243.623, 1.227797
1244.106, 1.250481
1244.588, 1.268925
1245.070, 1.271538
1245.552, 1.264522
1246.034, 1.249588
1246.516, 1.235656
1246.998, 1.242676
1247.480, 1.275092
1247.963, 1.287168
1248.445, 1.265444
1248.927, 1.250631
1249.409, 1.257225
1249.891, 1.269351
1250.373, 1.261838
1250.855, 1.246420
1251.337, 1.238258
1251.819, 1.240034
1252.302, 1.245281
1252.784, 1.255079
1253.266, 1.263630
1253.748, 1.271360
1254.230, 1.270704
1254.712, 1.241935
1255.194, 1.206342
1255.676, 1.184951
1256.158, 1.181160
1256.641, 1.204554
1257.123, 1.261775
1257.605, 1.296135
1258.087, 1.285454
1258.569, 1.261047
1259.051, 1.250339
1259.533, 1.244935
1260.015, 1.234102
1260.498, 1.218901
1260.980, 1.221020
1261.462, 1.240751
1261.944, 1.252059
1262.426, 1.245137
1262.908, 1.234843
1263.390, 1.229754
1263.872, 1.229420
1264.354, 1.234041
1264.837, 1.242872
1265.319, 1.254644
1265.801, 1.268387
1266.283, 1.272911
1266.765, 1.262322
1267.247, 1.252577
1267.729, 1.253752
1268.211, 1.259024
1268.693, 1.266167
1269.176, 1.272910
1269.658, 1.267564
1270.140, 1.253508
1270.622, 1.247076
1271.104, 1.255989
1271.586, 1.257406
1272.068, 1.226595
1272.550, 1.204519
1273.033, 1.212586
1273.515, 1.236521
1273.997, 1.238204
1274.479, 1.225673
1274.961, 1.219595
1275.443, 1.225838
1275.925, 1.232910
1276.407, 1.238855
1276.890, 1.244557
1277.372, 1.250675
1277.854, 1.256328
1278.336, 1.259788
1278.818, 1.261782
1279.300, 1.265727
1279.782, 1.274474
1280.264, 1.265008
1280.746, 1.228567
1281.229, 1.202318
1281.711, 1.202183
1282.193, 1.212795
1282.675, 1.218626
1283.157, 1.219590
1283.639, 1.210286
1284.121, 1.188982
1284.603, 1.201931
1285.085, 1.254933
1285.568, 1.287128
1286.050, 1.273850
1286.532, 1.247618
1287.014, 1.235374
1287.496, 1.228256
1287.978, 1.216569
1288.460, 1.201613
1288.942, 1.196010
1289.425, 1.199396
1289.907, 1.207409
1290.389, 1.221442
1290.871, 1.228176
1291.353, 1.211351
1291.835, 1.191163
1292.317, 1.173428
1292.799, 1.165114
1293.281, 1.212060
1293.764, 1.292987
1294.246, 1.316415
1294.728, 1.249691
1295.210, 1.192457
1295.692, 1.194595
1296.174, 1.204673
1296.656, 1.208397
1297.138, 1.205412
1297.620, 1.185604
1298.103, 1.161388
1298.585, 1.162462
1299.067, 1.197937
1299.549, 1.219214
##END=



