##NAMES=Monazite-(Ce)
##RRUFFID=R060925
##IDEAL CHEMISTRY=CePO_4_
##LOCALITY=Siglo Veinte mine, Llallagua, Bustillos Province, Potosi Department, Bolivia
##OWNER=RRUFF
##SOURCE=Alfredo Petrov
##DESCRIPTION=Pale peach semi-transparent crystals associated with quartz
##STATUS=The identification of this mineral is confirmed by single-crystal X-ray diffraction and chemical analysis.
##URL=rruff.info/R060925
##MEASURED CHEMISTRY=light phase: (Ce_0.52_La_0.21_Nd_0.19_Y_0.06_Ca_0.01_Th_0.01_)_Σ=1_P_1.00_O_4_ ; dark phase: (Ce_0.49_La_0.21_Nd_0.20_Y_0.07_Ca_0.02_Th_0.02_)_Σ=1_P_1.00_O_4_
120.0767, 0.0000000E+00
120.5588, 37.65527
121.0409, 98.35498
121.5230, 158.2188
122.0051, 208.5344
122.4873, 248.1475
122.9694, 269.8953
123.4515, 275.0251
123.9336, 275.8821
124.4157, 278.4480
124.8979, 288.6807
125.3800, 302.7456
125.8621, 321.6819
126.3442, 345.4487
126.8263, 372.9961
127.3084, 404.3552
127.7905, 443.1108
128.2727, 497.3103
128.7548, 586.0078
129.2369, 702.0854
129.7190, 817.6609
130.2011, 935.5945
130.6832, 1015.306
131.1654, 1057.877
131.6475, 1056.803
132.1296, 993.9939
132.6117, 871.7886
133.0938, 730.0500
133.5759, 573.5388
134.0581, 405.0002
134.5402, 264.8237
135.0223, 154.6965
135.5044, 70.86963
135.9865, 10.25684
136.4686, 25.25562
136.9508, 48.52832
137.4329, 69.46216
137.9150, 90.08569
138.3971, 88.24438
138.8792, 53.49707
139.3613, 3.876221
139.8434, 40.02515
140.3256, 48.83740
140.8077, 50.08374
141.2898, 58.97119
141.7719, 77.83936
142.2540, 97.61182
142.7361, 117.4961
143.2183, 137.7485
143.7004, 153.3560
144.1825, 158.8374
144.6646, 164.7053
145.1467, 182.0981
145.6288, 216.6160
146.1110, 254.2405
146.5931, 289.8887
147.0752, 320.1250
147.5573, 363.5864
148.0394, 420.1882
148.5215, 489.4109
149.0037, 572.1189
149.4858, 678.7903
149.9679, 787.3232
150.4500, 894.1362
150.9321, 1006.357
151.4142, 1102.234
151.8964, 1185.016
152.3785, 1251.917
152.8606, 1295.772
153.3427, 1294.948
153.8248, 1288.232
154.3069, 1292.000
154.7890, 1311.689
155.2712, 1337.907
155.7533, 1374.364
156.2354, 1418.156
156.7175, 1457.086
157.1996, 1501.451
157.6817, 1533.290
158.1639, 1541.010
158.6460, 1507.736
159.1281, 1463.486
159.6102, 1414.143
160.0923, 1359.652
160.5744, 1301.054
161.0566, 1234.071
161.5387, 1164.416
162.0208, 1097.613
162.5029, 1027.916
162.9850, 967.2568
163.4671, 920.9519
163.9493, 889.8398
164.4314, 870.3491
164.9135, 862.4541
165.3956, 864.9688
165.8777, 876.2544
166.3598, 897.7979
166.8420, 926.6609
167.3241, 960.4307
167.8062, 998.6343
168.2883, 1044.398
168.7704, 1098.587
169.2525, 1162.232
169.7346, 1237.754
170.2168, 1332.860
170.6989, 1436.701
171.1810, 1538.899
171.6631, 1638.344
172.1452, 1735.647
172.6273, 1838.578
173.1095, 1942.100
173.5916, 2032.941
174.0737, 2108.013
174.5558, 2164.213
175.0379, 2196.705
175.5201, 2205.720
176.0022, 2189.544
176.4843, 2140.135
176.9664, 2060.479
177.4485, 1967.626
177.9306, 1864.127
178.4128, 1757.401
178.8949, 1651.743
179.3770, 1542.052
179.8591, 1439.067
180.3412, 1361.166
180.8233, 1307.328
181.3055, 1264.359
181.7876, 1221.138
182.2697, 1179.234
182.7518, 1142.437
183.2339, 1113.740
183.7160, 1090.615
184.1982, 1067.684
184.6803, 1044.704
185.1624, 1024.363
185.6445, 1011.109
186.1266, 1003.706
186.6087, 995.5271
187.0908, 981.8008
187.5730, 965.7070
188.0551, 959.7568
188.5372, 964.7351
189.0193, 975.1069
189.5014, 985.8467
189.9835, 996.6426
190.4657, 1004.326
190.9478, 1006.869
191.4299, 1004.820
191.9120, 1002.679
192.3941, 1002.073
192.8762, 997.3066
193.3584, 974.2422
193.8405, 932.6907
194.3226, 895.6553
194.8047, 882.0798
195.2868, 889.7065
195.7689, 880.4485
196.2511, 850.1641
196.7332, 811.5938
197.2153, 786.9993
197.6974, 775.5835
198.1795, 764.6816
198.6616, 744.7817
199.1438, 715.0740
199.6259, 692.8118
200.1080, 679.7432
200.5901, 674.7583
201.0722, 676.1382
201.5543, 684.9360
202.0364, 695.5222
202.5186, 703.7727
203.0007, 709.0820
203.4828, 715.2134
203.9649, 719.5903
204.4470, 725.9167
204.9291, 750.1975
205.4113, 796.4150
205.8934, 848.9082
206.3755, 896.9800
206.8576, 940.2915
207.3397, 979.0776
207.8218, 1008.660
208.3040, 1033.074
208.7861, 1079.116
209.2682, 1151.727
209.7503, 1234.770
210.2324, 1311.551
210.7145, 1374.266
211.1967, 1458.764
211.6788, 1578.658
212.1609, 1730.561
212.6430, 1863.028
213.1251, 1962.967
213.6072, 2062.879
214.0894, 2197.769
214.5715, 2380.996
215.0536, 2561.527
215.5357, 2723.055
216.0178, 2866.232
216.4999, 3029.899
216.9820, 3220.922
217.4642, 3420.868
217.9463, 3613.226
218.4284, 3794.479
218.9105, 3971.178
219.3926, 4147.582
219.8747, 4323.213
220.3569, 4482.335
220.8390, 4630.459
221.3211, 4756.343
221.8032, 4849.595
222.2853, 4902.869
222.7674, 4938.484
223.2496, 4967.255
223.7317, 4995.203
224.2138, 4971.617
224.6959, 4876.364
225.1780, 4747.187
225.6601, 4631.579
226.1423, 4541.163
226.6244, 4443.829
227.1065, 4327.759
227.5886, 4184.726
228.0707, 4060.002
228.5528, 3962.584
229.0350, 3875.405
229.5171, 3775.381
229.9992, 3664.881
230.4813, 3533.822
230.9634, 3376.788
231.4455, 3185.719
231.9276, 2993.165
232.4098, 2798.175
232.8919, 2601.196
233.3740, 2410.483
233.8561, 2230.531
234.3382, 2047.992
234.8203, 1852.569
235.3025, 1633.510
235.7846, 1442.091
236.2667, 1287.429
236.7488, 1155.540
237.2309, 1022.785
237.7130, 884.5515
238.1952, 755.0649
238.6773, 638.8467
239.1594, 535.4033
239.6415, 447.7444
240.1236, 379.6565
240.6057, 325.1646
241.0879, 271.5833
241.5700, 218.5227
242.0521, 167.8840
242.5342, 120.5623
243.0163, 77.14966
243.4984, 34.78735
243.9806, 9.484863
244.4627, 51.69336
244.9448, 83.05322
245.4269, 100.3308
245.9090, 112.0020
246.3911, 121.5764
246.8732, 130.3098
247.3554, 133.7385
247.8375, 130.1897
248.3196, 122.1077
248.8017, 114.8989
249.2838, 109.9968
249.7659, 103.7556
250.2481, 93.55811
250.7302, 75.10278
251.2123, 64.83960
251.6944, 69.59546
252.1765, 79.43115
252.6586, 70.93140
253.1408, 34.31665
253.6229, 4.875732
254.1050, 36.19434
254.5871, 55.15332
255.0692, 78.47510
255.5513, 106.5708
256.0334, 138.9060
256.5156, 175.8086
256.9977, 220.8784
257.4798, 264.3777
257.9619, 302.0366
258.4440, 332.7866
258.9261, 360.5222
259.4083, 381.4827
259.8904, 401.4211
260.3725, 436.2898
260.8546, 498.4221
261.3367, 551.1921
261.8188, 573.9795
262.3010, 552.1958
262.7831, 551.2893
263.2652, 575.3354
263.7473, 617.3535
264.2294, 665.0100
264.7115, 720.1255
265.1937, 775.6345
265.6758, 826.4856
266.1579, 868.6221
266.6400, 922.0469
267.1221, 989.5596
267.6042, 1065.781
268.0864, 1135.689
268.5685, 1193.518
269.0506, 1263.174
269.5327, 1360.859
270.0148, 1494.818
270.4969, 1609.770
270.9791, 1701.292
271.4612, 1778.948
271.9433, 1857.582
272.4254, 1936.936
272.9075, 2017.774
273.3896, 2102.139
273.8718, 2190.667
274.3539, 2271.002
274.8360, 2344.087
275.3181, 2408.868
275.8002, 2467.536
276.2823, 2523.051
276.7645, 2556.923
277.2466, 2554.642
277.7287, 2513.575
278.2108, 2484.988
278.6929, 2475.465
279.1750, 2465.233
279.6572, 2416.675
280.1393, 2324.620
280.6214, 2238.799
281.1035, 2187.520
281.5856, 2168.294
282.0677, 2120.899
282.5499, 2040.764
283.0320, 1944.188
283.5141, 1848.230
283.9962, 1752.540
284.4783, 1668.939
284.9604, 1612.250
285.4425, 1576.129
285.9247, 1507.188
286.4068, 1399.860
286.8889, 1284.023
287.3710, 1197.042
287.8531, 1137.755
288.3352, 1084.462
288.8174, 1028.463
289.2995, 971.9849
289.7816, 926.2551
290.2637, 893.5837
290.7458, 862.3694
291.2279, 815.3821
291.7101, 755.9966
292.1922, 706.9321
292.6743, 680.9717
293.1564, 669.9897
293.6385, 652.9541
294.1206, 629.5015
294.6028, 606.8142
295.0849, 592.5474
295.5670, 585.0381
296.0491, 577.7954
296.5312, 567.9216
297.0133, 557.8516
297.4955, 553.2217
297.9776, 554.1929
298.4597, 555.4797
298.9418, 549.4316
299.4239, 540.1985
299.9060, 538.6187
300.3882, 553.7932
300.8703, 572.8928
301.3524, 573.1965
301.8345, 556.3867
302.3166, 543.0327
302.7987, 555.1145
303.2809, 581.3181
303.7630, 602.3420
304.2451, 612.8401
304.7272, 616.6960
305.2093, 613.1250
305.6914, 604.0503
306.1736, 600.3755
306.6557, 614.6328
307.1378, 636.1411
307.6199, 652.5142
308.1020, 660.5884
308.5841, 664.2041
309.0663, 657.6074
309.5484, 645.1445
310.0305, 643.7795
310.5126, 678.3811
310.9947, 722.7075
311.4768, 748.0552
311.9590, 739.0195
312.4411, 729.9644
312.9232, 747.3608
313.4053, 781.5876
313.8874, 809.4729
314.3695, 820.8975
314.8517, 822.3218
315.3337, 816.1362
315.8159, 799.8328
316.2980, 783.8672
316.7801, 769.7688
317.2622, 759.1655
317.7443, 754.4866
318.2264, 766.5542
318.7086, 776.5459
319.1907, 771.6470
319.6728, 745.9143
320.1549, 727.6631
320.6370, 735.8816
321.1191, 753.2944
321.6013, 758.1670
322.0834, 731.3147
322.5655, 704.9673
323.0476, 690.7566
323.5297, 691.1150
324.0118, 689.3892
324.4940, 683.3909
324.9761, 673.9490
325.4582, 661.8552
325.9403, 641.6592
326.4224, 624.4731
326.9045, 611.9126
327.3867, 604.0300
327.8688, 600.1299
328.3509, 610.1167
328.8330, 617.9746
329.3151, 612.1245
329.7972, 576.5945
330.2794, 548.3821
330.7615, 532.7568
331.2436, 528.4763
331.7257, 524.5151
332.2078, 523.1611
332.6899, 519.7375
333.1721, 510.8193
333.6542, 492.6206
334.1363, 476.6343
334.6184, 461.6677
335.1005, 449.6492
335.5826, 448.9436
336.0648, 468.2241
336.5469, 482.9309
337.0290, 477.2686
337.5111, 442.3691
337.9932, 420.8633
338.4753, 417.8716
338.9575, 425.1226
339.4396, 425.4607
339.9217, 417.0073
340.4038, 408.5164
340.8859, 404.4814
341.3680, 405.2800
341.8502, 402.5081
342.3323, 395.1667
342.8144, 386.8318
343.2965, 384.5034
343.7786, 388.5234
344.2607, 388.7896
344.7429, 376.3740
345.2250, 355.9824
345.7071, 355.1328
346.1892, 376.5005
346.6713, 401.8450
347.1534, 412.8196
347.6355, 410.9294
348.1176, 404.6982
348.5998, 392.2644
349.0819, 379.5293
349.5640, 383.2351
350.0461, 402.9463
350.5282, 419.2380
351.0103, 410.7532
351.4925, 387.2043
351.9746, 370.6958
352.4567, 371.2527
352.9388, 374.9453
353.4209, 361.4927
353.9030, 334.6289
354.3852, 311.9399
354.8673, 312.3804
355.3494, 320.5039
355.8315, 316.9468
356.3136, 295.8613
356.7957, 269.3652
357.2779, 245.9038
357.7600, 224.2407
358.2421, 201.8054
358.7242, 175.0378
359.2063, 148.3372
359.6884, 125.7100
360.1706, 108.6045
360.6527, 90.17480
361.1348, 64.01733
361.6169, 35.12158
362.0990, 10.85425
362.5811, 5.929443
363.0633, 18.50317
363.5454, 25.28760
364.0275, 25.75049
364.5096, 32.51050
364.9917, 57.72925
365.4738, 86.26221
365.9560, 105.0552
366.4381, 98.48535
366.9202, 96.24634
367.4023, 108.3423
367.8844, 132.7920
368.3665, 146.2725
368.8487, 138.1475
369.3308, 125.6292
369.8129, 117.3677
370.2950, 113.1042
370.7771, 113.7104
371.2592, 123.0447
371.7414, 137.0581
372.2235, 143.9976
372.7056, 142.4746
373.1877, 135.9341
373.6698, 124.3835
374.1519, 104.8806
374.6341, 92.61621
375.1162, 91.87109
375.5983, 94.32178
376.0804, 85.92651
376.5625, 64.66821
377.0446, 40.78540
377.5267, 19.10986
378.0089, 1.127197
378.4910, 30.65918
378.9731, 70.31519
379.4552, 116.2520
379.9373, 165.0874
380.4194, 217.2339
380.9016, 267.9470
381.3837, 313.1660
381.8658, 358.8362
382.3479, 422.7415
382.8300, 504.5649
383.3121, 594.0325
383.7943, 682.8569
384.2764, 771.9387
384.7585, 864.4124
385.2406, 957.5603
385.7227, 1059.702
386.2048, 1181.455
386.6870, 1319.539
387.1691, 1463.651
387.6512, 1601.404
388.1333, 1742.231
388.6154, 1901.369
389.0975, 2081.007
389.5797, 2269.050
390.0618, 2453.344
390.5439, 2639.253
391.0260, 2830.983
391.5081, 3034.772
391.9902, 3240.927
392.4724, 3443.369
392.9545, 3641.419
393.4366, 3848.430
393.9187, 4081.634
394.4008, 4319.646
394.8829, 4549.663
395.3651, 4798.745
395.8472, 5004.699
396.3293, 5160.168
396.8114, 5262.518
397.2935, 5300.419
397.7756, 5246.909
398.2578, 5147.293
398.7399, 5022.074
399.2220, 4874.353
399.7041, 4695.873
400.1862, 4468.180
400.6683, 4214.410
401.1505, 3973.798
401.6326, 3736.372
402.1147, 3525.953
402.5968, 3346.598
403.0789, 3198.093
403.5610, 3085.243
404.0432, 3016.210
404.5253, 2972.285
405.0074, 2932.365
405.4895, 2891.857
405.9716, 2874.101
406.4537, 2885.080
406.9359, 2921.837
407.4180, 2972.786
407.9001, 3038.371
408.3822, 3117.071
408.8643, 3212.562
409.3464, 3323.310
409.8285, 3431.780
410.3106, 3531.887
410.7928, 3636.108
411.2749, 3769.233
411.7570, 3928.810
412.2391, 4091.679
412.7212, 4249.244
413.2033, 4403.151
413.6855, 4561.858
414.1676, 4726.922
414.6497, 4870.536
415.1318, 4970.963
415.6139, 5030.597
416.0960, 5051.834
416.5782, 5046.270
417.0603, 4993.791
417.5424, 4869.922
418.0245, 4680.195
418.5066, 4459.913
418.9887, 4208.810
419.4709, 3943.532
419.9530, 3671.424
420.4351, 3386.833
420.9172, 3114.220
421.3993, 2859.653
421.8814, 2625.716
422.3636, 2416.380
422.8457, 2244.036
423.3278, 2083.890
423.8099, 1927.666
424.2920, 1770.349
424.7741, 1637.408
425.2563, 1536.503
425.7384, 1453.925
426.2205, 1380.279
426.7026, 1318.295
427.1847, 1263.931
427.6668, 1216.216
428.1490, 1175.107
428.6311, 1143.456
429.1132, 1124.473
429.5953, 1106.589
430.0774, 1081.395
430.5595, 1046.934
431.0417, 1021.883
431.5238, 1008.430
432.0059, 1004.718
432.4880, 1007.067
432.9701, 1014.882
433.4522, 1024.897
433.9344, 1032.997
434.4165, 1043.258
434.8986, 1073.813
435.3807, 1125.904
435.8628, 1183.885
436.3449, 1227.756
436.8271, 1264.516
437.3092, 1314.188
437.7913, 1384.051
438.2734, 1466.099
438.7555, 1553.834
439.2376, 1646.588
439.7197, 1741.439
440.2018, 1831.647
440.6840, 1925.632
441.1661, 2031.842
441.6482, 2151.173
442.1303, 2280.144
442.6124, 2415.747
443.0945, 2560.429
443.5767, 2715.781
444.0588, 2886.748
444.5409, 3065.786
445.0230, 3248.720
445.5051, 3436.047
445.9872, 3635.935
446.4694, 3842.324
446.9515, 4065.873
447.4336, 4313.796
447.9157, 4587.051
448.3978, 4884.241
448.8799, 5205.962
449.3621, 5551.479
449.8442, 5909.793
450.3263, 6278.561
450.8084, 6661.244
451.2905, 7056.342
451.7726, 7457.642
452.2548, 7895.823
452.7369, 8373.898
453.2190, 8884.967
453.7011, 9431.758
454.1832, 10012.06
454.6653, 10617.22
455.1475, 11255.71
455.6296, 11914.33
456.1117, 12570.66
456.5938, 13220.44
457.0759, 13901.85
457.5580, 14628.86
458.0402, 15403.05
458.5223, 16233.73
459.0044, 17138.93
459.4865, 18060.81
459.9686, 18957.90
460.4507, 19834.52
460.9329, 20725.69
461.4150, 21643.29
461.8971, 22561.48
462.3792, 23495.88
462.8613, 24433.55
463.3434, 25300.11
463.8256, 26044.28
464.3077, 26699.81
464.7898, 27304.52
465.2719, 27948.03
465.7540, 28421.44
466.2361, 28663.88
466.7183, 28712.42
467.2004, 28651.42
467.6825, 28545.98
468.1646, 28271.85
468.6467, 27775.60
469.1288, 27033.08
469.6110, 26192.90
470.0930, 25235.35
470.5752, 24199.59
471.0573, 23100.53
471.5394, 21929.17
472.0215, 20743.97
472.5036, 19540.12
472.9857, 18337.42
473.4679, 17191.93
473.9500, 16115.28
474.4321, 15081.23
474.9142, 14066.42
475.3963, 13081.59
475.8784, 12175.81
476.3606, 11354.42
476.8427, 10594.51
477.3248, 9886.627
477.8069, 9226.467
478.2890, 8611.320
478.7711, 8045.775
479.2533, 7520.004
479.7354, 7024.405
480.2175, 6559.602
480.6996, 6127.485
481.1817, 5732.517
481.6638, 5373.129
482.1460, 5052.041
482.6281, 4781.736
483.1102, 4524.411
483.5923, 4267.561
484.0744, 4015.852
484.5565, 3775.056
485.0387, 3545.825
485.5208, 3331.027
486.0029, 3131.024
486.4850, 2945.236
486.9671, 2770.634
487.4492, 2610.879
487.9314, 2460.898
488.4135, 2318.396
488.8956, 2185.915
489.3777, 2057.169
489.8598, 1930.521
490.3419, 1808.326
490.8241, 1689.274
491.3062, 1571.488
491.7883, 1471.539
492.2704, 1403.752
492.7525, 1357.560
493.2346, 1281.739
493.7168, 1176.444
494.1989, 1073.567
494.6810, 1004.462
495.1631, 958.4692
495.6452, 909.7373
496.1273, 853.8169
496.6095, 793.3518
497.0916, 727.1699
497.5737, 659.7146
498.0558, 600.4580
498.5379, 557.7275
499.0201, 522.5161
499.5022, 492.6624
499.9843, 467.6633
500.4664, 438.7708
500.9485, 395.5449
501.4306, 351.8452
501.9127, 318.5735
502.3948, 312.3293
502.8770, 297.4707
503.3591, 264.2983
503.8412, 221.9866
504.3233, 189.5520
504.8054, 174.5488
505.2875, 157.6731
505.7697, 130.5642
506.2518, 92.25171
506.7339, 68.04370
507.2160, 62.05029
507.6981, 60.01611
508.1802, 48.76685
508.6624, 28.39648
509.1445, 9.054443
509.6266, 8.392578
510.1087, 22.78442
510.5908, 32.35889
511.0729, 37.13794
511.5551, 37.40088
512.0372, 28.16675
512.5193, 16.65161
513.0014, 12.99927
513.4835, 17.29810
513.9656, 26.28735
514.4478, 39.38843
514.9299, 55.31665
515.4120, 73.24707
515.8941, 96.12720
516.3762, 115.9426
516.8583, 132.1001
517.3405, 142.7131
517.8226, 143.6426
518.3047, 118.8928
518.7868, 98.96240
519.2689, 95.91064
519.7510, 111.3823
520.2332, 123.4275
520.7153, 135.8494
521.1974, 140.2205
521.6795, 128.6174
522.1616, 95.67212
522.6437, 65.18188
523.1259, 39.95923
523.6080, 16.87842
524.0901, 10.60010
524.5722, 42.97925
525.0543, 73.60840
525.5364, 95.55640
526.0186, 115.2405
526.5007, 154.3091
526.9828, 212.1445
527.4649, 272.8926
527.9470, 320.3130
528.4291, 362.9180
528.9113, 416.0366
529.3934, 483.2185
529.8755, 557.4109
530.3576, 631.7400
530.8397, 709.5642
531.3218, 798.1240
531.8040, 895.6765
532.2861, 1008.315
532.7682, 1138.029
533.2503, 1285.741
533.7324, 1442.291
534.2145, 1617.941
534.6967, 1794.138
535.1788, 1967.399
535.6609, 2154.760
536.1430, 2301.382
536.6251, 2420.249
537.1072, 2483.858
537.5894, 2443.176
538.0715, 2286.105
538.5536, 2085.064
539.0357, 1847.153
539.5178, 1586.982
539.9999, 1336.407
540.4821, 1098.396
540.9642, 891.2517
541.4463, 725.0227
541.9284, 596.6409
542.4105, 501.3860
542.8926, 439.9038
543.3748, 398.0591
543.8569, 376.3584
544.3390, 364.2905
544.8211, 345.3376
545.3032, 299.5581
545.7853, 261.1738
546.2675, 255.1775
546.7495, 271.6555
547.2316, 279.5537
547.7137, 261.4727
548.1959, 241.5281
548.6780, 228.1177
549.1601, 221.9595
549.6422, 223.4819
550.1243, 238.0063
550.6064, 255.0334
551.0886, 264.0959
551.5707, 259.0266
552.0528, 268.7380
552.5349, 300.9468
553.0170, 343.4001
553.4991, 369.5981
553.9813, 379.2832
554.4634, 389.5889
554.9455, 406.0403
555.4276, 428.9221
555.9097, 459.9539
556.3918, 498.7610
556.8740, 541.1624
557.3561, 582.0996
557.8382, 625.5276
558.3203, 678.8643
558.8024, 747.9055
559.2845, 812.4631
559.7667, 866.7522
560.2488, 908.1956
560.7309, 934.0039
561.2130, 937.9500
561.6951, 931.7510
562.1772, 908.7651
562.6594, 873.6257
563.1415, 859.1809
563.6236, 873.0188
564.1057, 898.6003
564.5878, 927.3208
565.0699, 955.7734
565.5521, 1008.218
566.0342, 1088.215
566.5163, 1185.075
566.9984, 1285.404
567.4805, 1389.407
567.9626, 1517.140
568.4448, 1673.180
568.9269, 1855.630
569.4090, 2078.651
569.8911, 2331.459
570.3732, 2578.444
570.8553, 2854.230
571.3375, 3079.474
571.8196, 3175.775
572.3017, 3143.510
572.7838, 2993.228
573.2659, 2656.648
573.7480, 2250.916
574.2302, 1848.286
574.7123, 1430.251
575.1944, 1086.225
575.6765, 856.3420
576.1586, 701.4570
576.6407, 569.9365
577.1229, 459.3369
577.6050, 371.3765
578.0871, 309.5220
578.5692, 270.1301
579.0513, 241.8801
579.5334, 226.1697
580.0156, 220.8628
580.4977, 227.8640
580.9798, 244.4863
581.4619, 256.2708
581.9440, 262.6438
582.4261, 268.6748
582.9083, 278.8313
583.3904, 292.7800
583.8725, 309.0454
584.3546, 324.7285
584.8367, 348.3687
585.3188, 393.4414
585.8010, 450.0137
586.2831, 499.9534
586.7652, 523.3379
587.2473, 552.2505
