##NAMES=Monazite-(La)
##RRUFFID=R070263
##IDEAL CHEMISTRY=LaPO_4_
##LOCALITY=Bear Lodge, Bear Creek placers, First Choice District (Garnet District), Granite County, Montana, USA
##OWNER=RRUFF
##SOURCE=Michael Scott
##DESCRIPTION=Black polished surface
##STATUS=The identification of this mineral is not yet confirmed.
##URL=rruff.info/R070263
173.2856, 0.0000000E+00
173.7677, 8.165039
174.2498, 22.54688
174.7319, 32.13550
175.2140, 22.47412
175.6961, 5.608643
176.1783, 1.051025
176.6604, 17.28833
177.1425, 38.03223
177.6246, 40.99780
178.1067, 25.59180
178.5888, 14.72217
179.0710, 35.14014
179.5531, 71.29858
180.0352, 86.42383
180.5173, 63.01318
180.9994, 23.21729
181.4815, 0.3378910
181.9637, 5.940186
182.4458, 0.3435060
182.9279, 21.43164
183.4100, 54.00781
183.8921, 77.44946
184.3742, 84.27832
184.8564, 79.14307
185.3385, 68.42944
185.8206, 51.20654
186.3027, 38.88916
186.7848, 49.01611
187.2669, 78.11157
187.7491, 100.0640
188.2312, 103.0999
188.7133, 91.81812
189.1954, 83.66675
189.6775, 79.60596
190.1596, 74.62646
190.6418, 58.43726
191.1239, 31.56860
191.6060, 12.45825
192.0881, 9.849854
192.5702, 22.50830
193.0524, 42.36426
193.5345, 72.56812
194.0166, 101.7288
194.4987, 107.9736
194.9808, 89.71191
195.4629, 72.52271
195.9451, 72.00903
196.4272, 87.70239
196.9093, 90.14697
197.3914, 73.31714
197.8735, 51.26172
198.3556, 49.28955
198.8378, 68.15283
199.3199, 101.6411
199.8020, 159.9729
200.2841, 247.0295
200.7662, 289.7097
201.2483, 274.1992
201.7305, 220.8218
202.2126, 174.1543
202.6947, 131.8772
203.1768, 104.9534
203.6589, 108.6611
204.1410, 149.4153
204.6232, 168.7668
205.1053, 154.9487
205.5874, 120.1658
206.0695, 105.8242
206.5516, 115.7432
207.0337, 128.7656
207.5159, 128.4475
207.9980, 111.4658
208.4801, 96.36084
208.9622, 83.66577
209.4443, 74.50098
209.9264, 76.66797
210.4086, 96.83447
210.8907, 121.3916
211.3728, 121.8828
211.8549, 92.74756
212.3370, 71.24976
212.8191, 63.50586
213.3013, 68.16211
213.7834, 76.08228
214.2655, 89.06055
214.7476, 98.55786
215.2297, 94.00439
215.7118, 68.05933
216.1940, 48.03418
216.6761, 37.16455
217.1582, 35.52979
217.6403, 51.10547
218.1224, 97.55127
218.6045, 142.6851
219.0867, 150.7236
219.5688, 100.9878
220.0509, 63.28320
220.5330, 56.58301
221.0151, 81.70947
221.4972, 95.35059
221.9794, 94.75293
222.4615, 85.93262
222.9436, 73.82812
223.4257, 53.91602
223.9078, 40.02588
224.3899, 35.79834
224.8721, 41.69678
225.3542, 52.20020
225.8363, 73.72510
226.3184, 93.90723
226.8005, 96.39062
227.2827, 69.81885
227.7648, 47.09082
228.2469, 36.67139
228.7290, 39.82910
229.2111, 46.24707
229.6932, 60.24512
230.1754, 73.89600
230.6575, 76.11963
231.1396, 60.65186
231.6217, 44.38721
232.1038, 31.60596
232.5859, 22.78027
233.0681, 14.46484
233.5502, 4.242676
234.0323, 3.762207
234.5144, 2.265625
234.9965, 16.33545
235.4786, 31.52393
235.9608, 36.77686
236.4429, 30.16602
236.9250, 21.67188
237.4071, 8.136230
237.8892, 5.266113
238.3713, 10.41797
238.8535, 6.044922
239.3356, 4.724121
239.8177, 24.29541
240.2998, 60.07227
240.7819, 76.45166
241.2640, 65.77051
241.7462, 40.46338
242.2283, 21.25879
242.7104, 8.642578
243.1925, 1.390137
243.6746, 0.1127930
244.1567, 5.984375
244.6389, 11.94824
245.1210, 19.20557
245.6031, 25.48340
246.0852, 26.70752
246.5673, 22.30664
247.0494, 13.65088
247.5316, 1.732910
248.0137, 31.00244
248.4958, 41.31494
248.9779, 23.61230
249.4600, 8.023438
249.9421, 26.37207
250.4243, 24.67725
250.9064, 22.17236
251.3885, 27.92773
251.8706, 48.77100
252.3527, 53.46191
252.8348, 33.39355
253.3170, 2.549316
253.7991, 11.26855
254.2812, 0.2998050
254.7633, 13.05664
255.2454, 17.54932
255.7275, 10.80225
256.2097, 6.566406
256.6918, 5.288574
257.1739, 6.225586
257.6560, 7.928711
258.1381, 9.895996
258.6202, 13.70557
259.1024, 20.01660
259.5845, 28.82080
260.0666, 40.57959
260.5487, 58.53467
261.0308, 76.93799
261.5129, 85.76855
261.9951, 83.07031
262.4772, 75.09717
262.9593, 60.94141
263.4414, 35.89893
263.9235, 29.04932
264.4056, 49.07129
264.8878, 79.18799
265.3699, 86.99072
265.8520, 62.64502
266.3341, 44.44531
266.8162, 51.90820
267.2983, 91.67529
267.7805, 112.8931
268.2626, 110.8418
268.7447, 95.13672
269.2268, 78.76562
269.7089, 58.31445
270.1910, 49.75244
270.6732, 67.60693
271.1553, 117.4302
271.6374, 133.3169
272.1195, 104.2358
272.6016, 57.39307
273.0837, 40.55029
273.5659, 60.04199
274.0480, 76.49902
274.5301, 70.43359
275.0122, 40.55322
275.4943, 28.07910
275.9764, 37.21582
276.4586, 55.85498
276.9407, 66.23438
277.4228, 67.37451
277.9049, 67.51758
278.3870, 69.97119
278.8691, 74.57031
279.3513, 76.76465
279.8334, 75.58057
280.3155, 74.50586
280.7976, 80.59326
281.2798, 94.28516
281.7619, 102.8828
282.2440, 98.14209
282.7261, 82.61719
283.2082, 76.39014
283.6903, 80.60840
284.1725, 89.90381
284.6546, 99.82373
285.1367, 110.1035
285.6188, 116.7505
286.1009, 119.7979
286.5830, 118.1929
287.0652, 103.8726
287.5473, 74.88818
288.0294, 45.44580
288.5115, 30.39014
288.9936, 29.61035
289.4757, 37.47168
289.9579, 56.63916
290.4400, 80.54980
290.9221, 90.71533
291.4042, 87.18213
291.8863, 81.18799
292.3684, 87.36084
292.8506, 102.2480
293.3327, 110.2446
293.8148, 102.6489
294.2969, 87.45068
294.7790, 80.49805
295.2611, 81.80811
295.7433, 84.96533
296.2254, 83.50342
296.7075, 79.98193
297.1896, 80.47754
297.6717, 89.23682
298.1538, 100.7192
298.6360, 103.9541
299.1181, 100.0420
299.6002, 95.29590
300.0823, 95.07715
300.5644, 98.21045
301.0465, 99.94092
301.5287, 96.38086
302.0108, 93.08984
302.4929, 97.95557
302.9750, 109.3423
303.4571, 117.4443
303.9392, 113.8286
304.4214, 103.9819
304.9035, 95.01416
305.3856, 87.92188
305.8677, 79.71533
306.3498, 69.39746
306.8319, 60.56543
307.3141, 55.70898
307.7962, 55.71484
308.2783, 58.70508
308.7604, 62.53467
309.2425, 65.70264
309.7246, 71.77930
310.2068, 89.42578
310.6889, 112.5957
311.1710, 125.8994
311.6531, 110.6899
312.1352, 89.83057
312.6173, 80.34814
313.0995, 89.70703
313.5816, 96.85400
314.0637, 85.64844
314.5458, 65.78564
315.0279, 55.37598
315.5100, 72.24805
315.9922, 92.23291
316.4743, 101.4927
316.9564, 95.68945
317.4385, 90.53906
317.9206, 95.35498
318.4027, 102.9863
318.8849, 103.4331
319.3670, 83.66113
319.8491, 65.35156
320.3312, 58.08057
320.8133, 64.71777
321.2954, 69.02197
321.7776, 65.11328
322.2597, 58.41895
322.7418, 54.72607
323.2239, 55.08740
323.7060, 58.30078
324.1881, 66.20654
324.6703, 79.58887
325.1524, 87.78662
325.6345, 90.29395
326.1166, 87.07617
326.5987, 77.91748
327.0808, 43.27344
327.5630, 25.90576
328.0451, 39.91455
328.5272, 83.18896
329.0093, 109.9502
329.4914, 115.2017
329.9735, 107.9526
330.4557, 91.69727
330.9378, 50.35889
331.4199, 29.05518
331.9020, 40.62061
332.3841, 76.38818
332.8662, 93.53369
333.3484, 85.02246
333.8305, 68.83594
334.3126, 51.89209
334.7947, 29.37256
335.2768, 20.34766
335.7589, 32.26953
336.2411, 55.70605
336.7232, 65.37012
337.2053, 56.85938
337.6874, 46.87207
338.1695, 44.08301
338.6516, 49.52881
339.1338, 48.82422
339.6159, 38.69092
340.0980, 27.54785
340.5801, 33.62598
341.0622, 59.60156
341.5443, 79.02637
342.0265, 77.31055
342.5086, 57.31934
342.9907, 47.16602
343.4728, 48.56006
343.9549, 53.33350
344.4370, 52.84766
344.9192, 47.20264
345.4013, 36.67383
345.8834, 17.04053
346.3655, 6.158691
346.8476, 18.19531
347.3297, 19.01611
347.8119, 11.00000
348.2940, 12.92285
348.7761, 45.24463
349.2582, 61.66016
349.7403, 47.05566
350.2225, 22.39014
350.7046, 21.20947
351.1867, 40.44482
351.6688, 56.31299
352.1509, 43.81641
352.6331, 19.04492
353.1152, 7.916504
353.5973, 22.83398
354.0794, 40.18896
354.5615, 33.11279
355.0436, 9.889648
355.5258, 4.264648
356.0079, 20.40869
356.4900, 51.39746
356.9721, 56.46191
357.4542, 22.27930
357.9363, 9.389160
358.4185, 11.58447
358.9006, 4.197754
359.3827, 18.07812
359.8648, 24.25732
360.3469, 24.99023
360.8290, 19.69678
361.3112, 7.293457
361.7933, 3.372559
362.2754, 16.88379
362.7575, 24.55664
363.2396, 16.90723
363.7217, 38.65283
364.2039, 79.22461
364.6860, 79.02637
365.1681, 37.25342
365.6502, 10.12988
366.1323, 12.41455
366.6144, 26.03076
367.0966, 38.70898
367.5787, 53.74023
368.0608, 63.01025
368.5429, 64.41992
369.0250, 59.15137
369.5071, 53.15137
369.9893, 46.16113
370.4714, 38.75781
370.9535, 30.31934
371.4356, 16.59229
371.9177, 12.57764
372.3998, 24.02246
372.8820, 42.48682
373.3641, 46.63184
373.8462, 28.54883
374.3283, 16.84033
374.8104, 27.93896
375.2925, 65.54346
375.7747, 81.33691
376.2568, 70.04883
376.7389, 47.73096
377.2210, 33.97266
377.7031, 28.87891
378.1852, 31.29346
378.6674, 44.13135
379.1495, 64.01025
379.6316, 78.52246
380.1137, 87.77881
380.5958, 89.33447
381.0779, 74.72510
381.5601, 48.01611
382.0422, 30.24268
382.5243, 26.85986
383.0064, 33.25244
383.4885, 44.99707
383.9706, 61.30322
384.4528, 75.30469
384.9349, 86.35059
385.4170, 91.15918
385.8991, 80.26416
386.3812, 45.96680
386.8633, 16.27197
387.3455, 27.74561
387.8276, 64.26318
388.3097, 89.14795
388.7918, 74.31055
389.2739, 46.23340
389.7560, 24.96533
390.2382, 12.35156
390.7203, 2.860352
391.2024, 8.179688
391.6845, 17.16846
392.1666, 20.00977
392.6487, 6.189941
393.1309, 5.522949
393.6130, 5.079590
394.0951, 6.310547
394.5772, 13.90332
395.0593, 15.37451
395.5414, 10.98926
396.0236, 0.8515630
396.5057, 30.55029
396.9878, 49.33203
397.4699, 41.93018
397.9520, 18.14355
398.4341, 8.801758
398.9163, 22.86768
399.3984, 42.16650
399.8805, 61.10742
400.3626, 80.73242
400.8447, 97.11084
401.3268, 111.4219
401.8090, 121.5776
402.2911, 124.1582
402.7732, 116.7847
403.2553, 107.7598
403.7374, 98.29688
404.2195, 87.95117
404.7017, 80.49561
405.1838, 77.13477
405.6659, 76.51562
406.1480, 80.40088
406.6301, 88.15576
407.1122, 83.36133
407.5944, 56.16748
408.0765, 21.85645
408.5586, 21.96045
409.0407, 55.83594
409.5228, 91.68359
410.0049, 105.1611
410.4871, 104.0093
410.9692, 113.3311
411.4513, 139.2363
411.9334, 161.6450
412.4155, 147.6001
412.8976, 109.9160
413.3798, 85.50977
413.8619, 105.5034
414.3440, 139.8135
414.8261, 157.4355
415.3082, 157.7344
415.7903, 154.6646
416.2725, 159.7212
416.7546, 168.0508
417.2367, 172.2549
417.7188, 162.4370
418.2009, 156.9014
418.6830, 163.8433
419.1652, 181.7559
419.6473, 202.5601
420.1294, 231.8862
420.6115, 257.1606
421.0937, 271.2681
421.5758, 265.5581
422.0579, 265.3477
422.5400, 277.4609
423.0221, 297.3130
423.5042, 314.7817
423.9864, 329.1904
424.4685, 343.5698
424.9506, 361.1641
425.4327, 382.8501
425.9148, 391.0972
426.3969, 374.2817
426.8791, 357.2710
427.3612, 366.3511
427.8433, 416.3672
428.3254, 444.3018
428.8075, 434.7549
429.2896, 399.6016
429.7718, 377.9624
430.2539, 370.5137
430.7360, 372.3457
431.2181, 390.5889
431.7002, 422.4082
432.1823, 421.5542
432.6645, 380.1089
433.1466, 324.6162
433.6287, 289.6465
434.1108, 272.5903
434.5929, 260.7363
435.0750, 247.6533
435.5572, 237.2139
436.0393, 240.2427
436.5214, 255.9927
437.0035, 268.6479
437.4856, 258.3657
437.9677, 239.3848
438.4499, 233.4443
438.9320, 255.7554
439.4141, 275.8403
439.8962, 264.2705
440.3783, 232.8135
440.8604, 211.5518
441.3426, 223.1411
441.8247, 241.8071
442.3068, 251.7979
442.7889, 248.4932
443.2710, 250.5654
443.7531, 273.0024
444.2353, 299.4150
444.7174, 312.1074
445.1995, 301.0684
445.6816, 284.0991
446.1637, 260.8887
446.6458, 232.5430
447.1280, 208.3911
447.6101, 186.5518
448.0922, 170.9453
448.5743, 165.1006
449.0564, 174.0415
449.5385, 177.3965
450.0207, 173.5625
450.5028, 166.5586
450.9849, 162.3779
451.4670, 161.5293
451.9491, 159.1108
452.4312, 155.2852
452.9134, 151.1855
453.3955, 144.5586
453.8776, 134.9146
454.3597, 128.4897
454.8418, 138.0693
455.3239, 158.1260
455.8061, 164.0649
456.2882, 146.2139
456.7703, 118.3726
457.2524, 97.78516
457.7345, 83.77002
458.2166, 72.82324
458.6988, 58.44043
459.1809, 48.65332
459.6630, 57.22656
460.1451, 89.06201
460.6272, 114.6548
461.1093, 107.1611
461.5915, 85.39062
462.0736, 72.78955
462.5557, 88.52295
463.0378, 103.5547
463.5199, 108.6514
464.0020, 104.0015
464.4842, 92.68994
464.9663, 64.04785
465.4484, 37.27441
465.9305, 22.95264
466.4126, 30.88965
466.8947, 34.11719
467.3769, 26.41309
467.8590, 16.68848
468.3411, 22.12012
468.8232, 56.71533
469.3053, 77.64600
469.7874, 67.24561
470.2696, 28.21143
470.7517, 21.42285
471.2338, 56.03125
471.7159, 90.12451
472.1980, 84.16016
472.6801, 39.58447
473.1623, 10.22119
473.6444, 6.572754
474.1265, 15.22900
474.6086, 10.74170
475.0907, 4.001465
475.5728, 10.43652
476.0550, 14.33789
476.5371, 49.19336
477.0192, 55.08252
477.5013, 30.43848
477.9834, 4.654785
478.4655, 3.924805
478.9477, 14.57422
479.4298, 17.88330
479.9119, 3.818359
480.3940, 18.76758
480.8761, 0.7382810
481.3582, 38.48291
481.8404, 64.75586
482.3225, 51.66846
482.8046, 35.69824
483.2867, 34.98389
483.7688, 56.98291
484.2509, 73.64258
484.7331, 82.37939
485.2152, 84.74707
485.6973, 81.14014
486.1794, 61.94727
486.6615, 54.00977
487.1436, 66.58887
487.6258, 93.53320
488.1079, 104.0713
488.5900, 92.94287
489.0721, 79.67529
489.5542, 76.72119
490.0363, 84.21973
490.5185, 82.78613
491.0006, 69.73828
491.4827, 55.03467
491.9648, 52.39404
492.4470, 59.85938
492.9291, 69.28320
493.4112, 81.34961
493.8933, 90.67236
494.3754, 83.76562
494.8575, 63.94727
495.3397, 48.97852
495.8218, 54.55322
496.3039, 70.38867
496.7860, 86.03076
497.2681, 101.0195
497.7502, 112.3672
498.2324, 117.5796
498.7145, 118.5713
499.1966, 118.0874
499.6787, 123.8296
500.1608, 121.1772
500.6429, 98.23047
501.1251, 57.09619
501.6072, 31.66211
502.0893, 37.46436
502.5714, 48.10010
503.0535, 50.35400
503.5356, 30.52539
504.0178, 27.87598
504.4999, 53.41357
504.9820, 86.92725
505.4641, 95.85107
505.9462, 75.36523
506.4283, 55.65381
506.9105, 47.35693
507.3926, 46.04248
507.8747, 27.66064
508.3568, 9.383301
508.8389, 34.35205
509.3210, 10.68945
509.8032, 42.42139
510.2853, 69.67188
510.7674, 60.36230
511.2495, 41.42139
511.7316, 40.25439
512.2137, 49.87500
512.6959, 56.03418
513.1780, 51.17725
513.6601, 42.28467
514.1422, 29.31836
514.6243, 14.13477
515.1064, 8.623047
515.5886, 32.87109
516.0707, 57.44678
516.5528, 61.68066
517.0349, 25.29932
517.5170, 5.741699
517.9991, 25.66162
518.4813, 58.69531
518.9634, 70.72314
519.4455, 46.74854
519.9276, 27.48779
520.4097, 21.70752
520.8918, 27.63770
521.3740, 34.39014
521.8561, 42.93799
522.3382, 49.08545
522.8203, 49.60303
523.3024, 44.72412
523.7845, 38.11816
524.2667, 29.28906
524.7488, 21.31787
525.2309, 20.93652
525.7130, 25.10596
526.1951, 22.84570
526.6772, 5.125977
527.1594, 15.89795
527.6415, 30.15918
528.1236, 36.58594
528.6057, 30.40186
529.0878, 3.592285
529.5699, 43.10449
530.0521, 73.11426
530.5342, 93.09229
531.0163, 98.48389
531.4984, 73.14697
531.9805, 38.87842
532.4626, 18.74219
532.9448, 18.45703
533.4269, 29.54248
533.9090, 63.52197
534.3911, 109.8286
534.8732, 125.7412
535.3553, 95.87598
535.8375, 64.51416
536.3196, 50.68506
536.8017, 54.92432
537.2838, 63.85596
537.7659, 78.66797
538.2480, 93.05811
538.7302, 104.8242
539.2123, 112.6807
539.6944, 110.7769
540.1765, 92.83447
540.6586, 73.87744
541.1407, 81.72656
541.6229, 108.3403
542.1050, 124.9951
542.5871, 103.9902
543.0692, 74.17627
543.5513, 61.74951
544.0334, 68.11963
544.5156, 78.28662
544.9977, 92.18262
545.4798, 102.9995
545.9619, 104.5767
546.4440, 85.27783
546.9261, 72.33643
547.4083, 79.76855
547.8904, 93.75049
548.3725, 87.48730
548.8546, 38.98535
549.3367, 7.299316
549.8188, 15.06641
550.3010, 57.02246
550.7831, 67.48975
551.2652, 38.14746
551.7473, 5.007813
552.2294, 6.233887
552.7115, 2.614258
553.1937, 15.62500
553.6758, 32.37646
554.1579, 49.81494
554.6400, 67.15283
555.1221, 82.47119
555.6042, 89.65137
556.0864, 81.31543
556.5685, 69.35400
557.0506, 65.77783
557.5327, 68.50537
558.0148, 69.83936
558.4969, 71.08252
558.9791, 65.93604
559.4612, 44.01611
559.9433, 3.196777
560.4254, 26.63281
560.9075, 2.187500
561.3896, 48.19482
561.8718, 80.50342
562.3539, 94.43359
562.8360, 100.1880
563.3181, 96.16846
563.8002, 86.37695
564.2823, 74.74902
564.7645, 59.31445
565.2466, 52.91895
565.7287, 66.26807
566.2108, 91.81982
566.6929, 89.57422
567.1750, 61.29053
567.6572, 38.15625
568.1393, 56.93555
568.6214, 97.45850
569.1035, 115.8945
569.5856, 101.2871
570.0677, 82.46094
570.5499, 80.66064
571.0320, 90.94824
571.5141, 105.4399
571.9962, 129.1611
572.4783, 148.9282
572.9604, 158.4829
573.4426, 159.3594
573.9247, 157.5640
574.4068, 142.6006
574.8889, 135.8462
575.3710, 147.4292
575.8531, 181.9004
576.3353, 212.1816
576.8174, 239.1743
577.2995, 260.1685
577.7816, 269.8218
578.2637, 266.4126
578.7458, 268.8218
579.2280, 278.5522
579.7101, 297.5005
580.1922, 341.8643
580.6743, 404.3101
581.1564, 443.4165
581.6385, 420.3135
582.1207, 373.6108
582.6028, 350.0342
583.0849, 348.5796
583.5670, 359.6465
584.0491, 391.8628
584.5313, 425.0366
585.0134, 441.0078
585.4955, 432.0103
585.9776, 424.5361
586.4597, 422.6963
586.9418, 429.4893
587.4240, 445.2324
587.9061, 476.8618
588.3882, 506.5742
588.8703, 538.0635
589.3524, 564.9087
589.8345, 566.5332
590.3167, 539.1577
590.7988, 500.5000
591.2809, 456.4663
591.7630, 407.5615
592.2451, 353.8242
592.7272, 294.6377
593.2094, 245.7144
593.6915, 228.8662
594.1736, 229.8169
594.6557, 219.7280
595.1378, 191.4839
595.6199, 163.3892
596.1021, 146.4902
596.5842, 139.1772
597.0663, 139.1689
597.5485, 159.2476
598.0306, 172.1763
598.5127, 157.3999
598.9948, 125.0562
599.4769, 119.8784
599.9590, 173.5078
600.4412, 219.0513
600.9233, 230.2305
601.4054, 203.9038
601.8875, 195.4634
602.3696, 209.5288
602.8517, 230.3364
603.3339, 245.2256
603.8160, 254.6694
604.2981, 264.8643
604.7802, 278.8042
605.2623, 285.0098
605.7444, 260.8623
606.2266, 216.2466
606.7087, 178.8408
607.1908, 162.0488
607.6729, 152.1807
608.1550, 138.3970
608.6371, 122.1587
609.1193, 107.9258
609.6014, 98.30469
610.0835, 89.69580
610.5656, 81.82129
611.0477, 74.25586
611.5298, 67.84326
612.0120, 60.81299
612.4941, 56.65820
612.9762, 57.84229
613.4583, 65.05078
613.9404, 77.43652
614.4225, 100.2759
614.9047, 118.7202
615.3868, 105.6865
615.8689, 63.75293
616.3510, 28.77002
616.8331, 13.68896
617.3152, 7.664551
617.7974, 8.621582
618.2795, 32.44727
618.7616, 48.16650
619.2437, 50.03418
619.7258, 42.75488
620.2079, 23.68604
620.6901, 6.787109
621.1722, 26.20801
621.6543, 17.12354
622.1364, 1.216797
622.6185, 7.554199
623.1006, 5.843750
623.5828, 2.412598
624.0649, 4.865234
624.5470, 11.92773
625.0291, 12.53857
625.5112, 4.664551
625.9933, 1.807617
626.4755, 8.000000
626.9576, 18.32764
627.4397, 23.57764
627.9218, 23.90283
628.4039, 20.50000
628.8860, 7.953125
629.3682, 4.845215
629.8503, 3.785645
630.3324, 9.601563
630.8145, 23.66113
631.2966, 31.38135
631.7787, 37.32031
632.2609, 44.38135
632.7430, 52.86963
633.2251, 62.83496
633.7072, 76.82275
634.1893, 90.59766
634.6714, 101.5347
635.1536, 113.2979
635.6357, 112.5811
636.1178, 92.72314
636.5999, 65.95312
637.0820, 54.97607
637.5641, 60.32129
638.0463, 70.92773
638.5284, 86.34717
639.0105, 102.1631
639.4926, 109.7041
639.9747, 109.6831
640.4568, 106.1069
640.9390, 94.74756
641.4211, 85.31641
641.9032, 91.34863
642.3853, 113.6919
642.8674, 127.5474
643.3495, 110.5884
643.8317, 89.97314
644.3138, 85.54590
644.7959, 114.7075
645.2780, 130.4561
645.7601, 127.2153
646.2422, 115.4712
646.7244, 104.3667
647.2065, 91.24023
647.6886, 95.30469
648.1707, 126.0156
648.6528, 166.8867
649.1349, 183.6768
649.6171, 179.1089
650.0992, 173.2734
650.5813, 177.4180
651.0634, 184.8867
651.5455, 185.4346
652.0276, 179.2236
652.5098, 174.3223
652.9919, 176.0532
653.4740, 180.5840
653.9561, 186.4702
654.4382, 194.2344
654.9203, 199.1035
655.4025, 199.3613
655.8846, 197.4951
656.3667, 194.0952
656.8488, 186.1929
657.3309, 186.6577
657.8130, 198.3066
658.2952, 214.0747
658.7773, 220.6470
659.2594, 219.6694
659.7415, 233.2744
660.2236, 277.5664
660.7057, 321.9209
661.1879, 314.5239
661.6700, 270.1499
662.1521, 229.9243
662.6342, 211.5776
663.1163, 205.6660
663.5984, 214.0503
664.0806, 233.5576
664.5627, 241.1240
665.0448, 216.5898
665.5269, 192.0190
666.0090, 180.8223
666.4911, 184.4053
666.9733, 192.7061
667.4554, 209.0659
667.9375, 223.5244
668.4196, 227.1641
668.9017, 220.2603
669.3839, 210.5088
669.8660, 197.6035
670.3481, 186.7295
670.8302, 184.1562
671.3123, 188.1919
671.7944, 195.8608
672.2766, 209.6836
672.7587, 221.1538
673.2408, 224.8750
673.7229, 222.2905
674.2050, 216.3604
674.6871, 203.8521
675.1693, 192.3706
675.6514, 180.6475
676.1335, 169.5864
676.6156, 169.3745
677.0977, 187.2251
677.5798, 202.5903
678.0620, 207.9482
678.5441, 203.9136
679.0262, 185.7515
679.5083, 152.1177
679.9904, 123.9761
680.4725, 124.5283
680.9547, 140.2910
681.4368, 145.4468
681.9189, 135.9282
682.4010, 126.8042
682.8831, 129.3892
683.3652, 137.0913
683.8474, 143.9751
684.3295, 157.6714
684.8116, 156.4946
685.2937, 119.1958
685.7758, 73.45020
686.2579, 57.78076
686.7401, 85.12598
687.2222, 106.8979
687.7043, 114.9165
688.1864, 112.9849
688.6685, 107.8325
689.1506, 99.61816
689.6328, 90.69092
690.1149, 79.17773
690.5970, 69.37744
691.0791, 69.02246
691.5612, 76.76758
692.0433, 85.64648
692.5255, 95.71973
693.0076, 102.8486
693.4897, 104.6704
693.9718, 100.9448
694.4539, 92.25098
694.9360, 71.47168
695.4182, 52.52051
695.9003, 44.29102
696.3824, 51.54346
696.8645, 47.73486
697.3466, 28.71484
697.8287, 9.534180
698.3109, 7.764648
698.7930, 20.69678
699.2751, 33.93652
699.7572, 44.57764
700.2393, 56.14258
700.7214, 77.95605
701.2036, 101.9951
701.6857, 114.8140
702.1678, 106.5259
702.6499, 92.16260
703.1320, 72.44873
703.6141, 50.84424
704.0963, 36.28711
704.5784, 34.29053
705.0605, 30.71240
705.5426, 19.45703
706.0247, 4.537598
706.5068, 9.815430
706.9890, 39.25537
707.4711, 55.82812
707.9532, 26.39502
708.4353, 26.94238
708.9174, 43.26855
709.3995, 25.66162
709.8817, 2.892090
710.3638, 8.276367
710.8459, 13.79785
711.3280, 18.50244
711.8101, 23.10205
712.2922, 25.71826
712.7744, 17.92871
713.2565, 14.01123
713.7386, 26.02539
714.2207, 70.83594
714.7028, 84.99463
715.1849, 57.86035
715.6671, 18.76855
716.1492, 0.7587890
716.6313, 1.848633
717.1134, 1.130371
717.5955, 6.853516
718.0776, 12.39746
718.5598, 12.70117
719.0419, 10.36133
719.5240, 10.30762
720.0061, 13.09619
720.4882, 20.02734
720.9703, 36.38672
721.4525, 57.06787
721.9346, 70.54004
722.4167, 73.41455
722.8988, 71.10352
723.3809, 61.27246
723.8630, 47.14697
724.3452, 46.52734
724.8273, 62.18848
725.3094, 71.22314
725.7915, 55.78516
726.2736, 28.50635
726.7557, 23.70557
727.2379, 39.23926
727.7200, 58.22559
728.2021, 72.43945
728.6842, 83.50488
729.1663, 93.78320
729.6484, 103.5093
730.1306, 107.5171
730.6127, 107.2593
731.0948, 97.91846
731.5769, 73.71875
732.0590, 25.78320
732.5411, 0.6777340
733.0233, 3.160156
733.5054, 17.79932
733.9875, 34.97852
734.4696, 53.37793
734.9517, 60.29639
735.4338, 52.53857
735.9160, 44.43018
736.3981, 54.14844
736.8802, 71.77100
737.3623, 81.73535
737.8444, 73.67383
738.3266, 69.58887
738.8087, 83.65234
739.2908, 104.5181
739.7729, 117.2227
740.2551, 120.5342
740.7372, 116.6562
741.2193, 102.8281
741.7014, 84.45410
742.1835, 70.98242
742.6656, 62.47119
743.1478, 63.68066
743.6299, 79.21631
744.1120, 101.3809
744.5941, 121.7900
745.0762, 139.0391
745.5583, 149.3794
746.0405, 155.3179
746.5226, 151.1763
747.0047, 117.5068
747.4868, 61.17822
747.9689, 37.26807
748.4510, 85.49365
748.9332, 125.6177
749.4153, 128.9619
749.8974, 99.45068
750.3795, 84.54053
750.8616, 85.66943
751.3438, 90.39990
751.8259, 93.10791
752.3080, 93.22607
752.7901, 85.12402
753.2722, 69.64404
753.7543, 63.12646
754.2365, 89.83154
754.7186, 120.7773
755.2007, 129.8691
755.6828, 109.6143
756.1649, 95.69287
756.6470, 99.02246
757.1292, 105.8096
757.6113, 107.7627
758.0934, 103.3257
758.5755, 101.4561
759.0576, 102.8599
759.5397, 104.4087
760.0219, 103.0420
760.5040, 99.14062
760.9861, 92.97217
761.4682, 83.83008
761.9503, 76.98145
762.4324, 81.28076
762.9146, 88.18799
763.3967, 87.00879
763.8788, 65.22070
764.3609, 51.58643
764.8430, 62.43311
765.3251, 77.19238
765.8073, 67.19043
766.2894, 18.18408
766.7715, 0.8452150
767.2536, 35.06982
767.7357, 89.69092
768.2178, 115.1636
768.7000, 115.4629
769.1821, 105.6924
769.6642, 84.08984
770.1463, 65.06689
770.6284, 65.12158
771.1105, 76.17725
771.5927, 82.62695
772.0748, 79.51074
772.5569, 72.37256
773.0390, 55.71533
773.5211, 36.50146
774.0032, 30.35742
774.4854, 39.62402
774.9675, 53.96973
775.4496, 73.19629
775.9317, 93.57031
776.4138, 107.4077
776.8959, 112.2656
777.3781, 102.5854
777.8602, 54.70361
778.3423, 7.687012
778.8244, 0.3818360
779.3065, 22.62598
779.7886, 35.43896
780.2708, 9.526367
780.7529, 8.630859
781.2350, 0.5380860
781.7171, 30.36035
782.1992, 52.90137
782.6813, 68.49902
783.1635, 76.37256
783.6456, 64.90186
784.1277, 42.17627
784.6098, 44.73242
785.0919, 70.04639
785.5740, 90.60205
786.0562, 84.40576
786.5383, 69.09619
787.0204, 55.83740
787.5025, 45.72510
787.9846, 46.28809
788.4667, 75.22559
788.9489, 99.07666
789.4310, 102.8555
789.9131, 85.45312
790.3952, 69.06201
790.8773, 53.19189
791.3594, 41.27783
791.8416, 36.61865
792.3237, 37.94873
792.8058, 41.96680
793.2879, 48.60596
793.7700, 58.84619
794.2521, 89.04688
794.7343, 112.3354
795.2164, 97.46875
795.6985, 27.34180
796.1806, 10.06445
796.6627, 11.53125
797.1448, 47.71973
797.6270, 71.90723
798.1091, 82.94873
798.5912, 90.04980
799.0733, 92.68408
799.5554, 94.87500
800.0375, 102.5098
800.5197, 112.0288
801.0018, 118.6431
801.4839, 122.9268
801.9660, 116.6450
802.4481, 86.46289
802.9302, 47.69336
803.4124, 11.48438
803.8945, 30.27344
804.3766, 43.80127
804.8587, 16.49072
805.3408, 22.43262
805.8229, 48.16016
806.3051, 60.71143
806.7872, 65.88818
807.2693, 63.47510
807.7514, 57.97217
808.2335, 52.21582
808.7156, 47.00342
809.1978, 43.68896
809.6799, 43.00293
810.1620, 43.12305
810.6441, 46.75195
811.1262, 48.45947
811.6083, 41.43604
812.0905, 12.96680
812.5726, 7.728027
813.0547, 35.48438
813.5368, 69.43066
814.0189, 73.62695
814.5010, 53.99951
814.9832, 47.65186
815.4653, 63.32275
815.9474, 79.18408
816.4295, 70.32471
816.9116, 51.89307
817.3937, 42.97705
817.8759, 52.55566
818.3580, 63.70850
818.8401, 78.27490
819.3222, 89.14551
819.8043, 85.74121
820.2864, 60.87451
820.7686, 59.90479
821.2507, 93.20410
821.7328, 131.8164
822.2149, 135.6968
822.6970, 115.1836
823.1791, 94.83936
823.6613, 78.88184
824.1434, 69.21045
824.6255, 76.03174
825.1076, 85.80762
825.5897, 83.38184
826.0718, 45.17090
826.5540, 25.93311
827.0361, 35.05078
827.5182, 52.04004
828.0003, 51.48682
828.4824, 33.67529
828.9645, 15.08887
829.4467, 4.484375
829.9288, 13.30371
830.4109, 15.34912
830.8930, 59.60449
831.3751, 85.81152
831.8572, 81.74219
832.3394, 66.83154
832.8215, 31.26904
833.3036, 2.473633
833.7857, 7.049316
834.2678, 37.00000
834.7499, 54.02881
835.2321, 31.95947
835.7142, 0.2548830
836.1963, 7.493652
836.6784, 5.751953
837.1605, 26.63184
837.6426, 55.62256
838.1248, 77.55908
838.6069, 83.21533
839.0890, 74.64600
839.5711, 51.03320
840.0532, 12.04883
840.5353, 44.07178
841.0175, 27.20801
841.4996, 7.058105
841.9817, 28.63770
842.4638, 37.06787
842.9459, 39.13916
843.4280, 35.58301
843.9102, 29.78320
844.3923, 21.05957
844.8744, 11.26855
845.3565, 6.523926
845.8386, 9.409180
846.3207, 20.22998
846.8029, 55.06494
847.2850, 87.38623
847.7671, 92.21533
848.2492, 53.21289
848.7313, 32.45996
849.2134, 34.92480
849.6956, 42.71973
850.1777, 37.76562
850.6598, 23.68750
851.1419, 9.636230
851.6240, 4.527344
852.1061, 4.258301
852.5883, 44.36377
853.0704, 97.95508
853.5525, 113.4399
854.0346, 66.21875
854.5167, 36.14502
854.9988, 34.30859
855.4810, 40.90527
855.9631, 43.13818
856.4452, 40.94824
856.9273, 37.85254
857.4094, 34.02637
857.8915, 27.77979
858.3737, 11.65088
858.8558, 4.480469
859.3379, 7.996582
859.8200, 2.916992
860.3021, 22.03418
860.7842, 65.95752
861.2664, 100.0894
861.7485, 99.87988
862.2306, 61.57764
862.7127, 39.33838
863.1948, 34.04883
863.6769, 35.05762
864.1591, 35.99707
864.6412, 38.01123
865.1233, 47.30859
865.6054, 62.95898
866.0875, 70.36133
866.5696, 50.65869
867.0518, 28.47656
867.5339, 19.42676
868.0160, 25.31689
868.4981, 33.12744
868.9802, 42.88379
869.4623, 54.26709
869.9445, 70.44385
870.4266, 88.02344
870.9087, 88.21777
871.3908, 71.63574
871.8729, 54.76904
872.3550, 45.77393
872.8372, 43.61670
873.3193, 53.00488
873.8014, 70.49902
874.2835, 77.30859
874.7656, 59.52295
875.2477, 41.60742
875.7299, 26.79395
876.2120, 16.75879
876.6941, 21.24072
877.1762, 40.16895
877.6583, 55.96143
878.1404, 56.20508
878.6226, 53.92041
879.1047, 75.69141
879.5869, 108.8545
880.0690, 121.3892
880.5511, 75.33936
881.0332, 36.74219
881.5153, 29.91260
881.9974, 41.32471
882.4796, 43.88965
882.9617, 35.74854
883.4438, 29.06885
883.9259, 26.46240
884.4080, 27.20801
884.8901, 32.89062
885.3723, 40.89062
885.8544, 44.44092
886.3365, 35.25684
886.8186, 30.90234
887.3007, 46.12646
887.7828, 67.05713
888.2650, 76.29053
888.7471, 70.84131
889.2292, 54.04541
889.7113, 20.12158
890.1934, 11.46387
890.6755, 12.02490
891.1577, 9.878418
891.6398, 31.20996
892.1219, 49.56299
892.6040, 62.17529
893.0861, 68.89697
893.5682, 67.85791
894.0504, 55.70068
894.5325, 23.05518
895.0146, 7.147949
895.4967, 13.42920
895.9788, 25.68945
896.4609, 29.53809
896.9431, 26.93164
897.4252, 33.21387
897.9073, 48.01416
898.3894, 53.65234
898.8715, 28.77832
899.3536, 1.662109
899.8358, 1.283691
900.3179, 25.35010
900.8000, 32.39258
901.2821, 6.280273
901.7642, 33.46924
902.2463, 18.74170
902.7285, 31.06543
903.2106, 72.65918
903.6927, 105.7578
904.1748, 122.0254
904.6569, 106.5396
905.1390, 78.71484
905.6212, 48.44385
906.1033, 21.02930
906.5854, 15.25830
907.0675, 71.56543
907.5496, 107.3252
908.0317, 95.85205
908.5139, 53.47852
908.9960, 25.05029
909.4781, 10.33691
909.9602, 16.62354
910.4423, 60.46680
910.9244, 105.0186
911.4066, 96.04443
911.8887, 58.37012
912.3708, 37.60938
912.8529, 75.82471
913.3350, 97.54248
913.8171, 75.71094
914.2993, 41.00439
914.7814, 37.55322
915.2635, 68.50879
915.7456, 88.72998
916.2277, 91.28955
916.7098, 82.47510
917.1920, 64.05371
917.6741, 43.42578
918.1562, 30.84180
918.6383, 30.15723
919.1204, 29.49023
919.6025, 20.64893
920.0847, 14.68066
920.5668, 19.64746
921.0489, 37.16309
921.5310, 57.29150
922.0131, 81.39258
922.4952, 96.45215
922.9774, 82.84473
923.4595, 57.82275
923.9416, 49.59814
924.4237, 58.47168
924.9058, 62.17529
925.3879, 38.35303
925.8701, 22.24121
926.3522, 36.09521
926.8343, 73.14111
927.3164, 71.51270
927.7985, 26.65771
928.2806, 8.901855
928.7628, 7.167969
929.2449, 17.41553
929.7270, 54.94043
930.2091, 96.76709
930.6912, 120.5908
931.1733, 107.0220
931.6555, 85.35107
932.1376, 50.91895
932.6197, 19.60742
933.1018, 27.45117
933.5839, 81.83740
934.0660, 104.2129
934.5482, 74.07764
935.0303, 39.39502
935.5124, 76.49707
935.9945, 148.0903
936.4766, 184.9810
936.9587, 155.9009
937.4409, 135.4092
937.9230, 157.3491
938.4051, 189.7573
938.8872, 208.7173
939.3693, 212.3442
939.8514, 210.7788
940.3336, 202.2148
940.8157, 201.9805
941.2978, 232.5781
941.7799, 275.4106
942.2620, 301.9517
942.7441, 310.2139
943.2263, 321.8516
943.7084, 351.8750
944.1905, 383.5630
944.6726, 409.7441
945.1547, 431.3867
945.6368, 451.9829
946.1190, 471.3647
946.6011, 494.6514
947.0832, 521.9834
947.5653, 556.9380
948.0474, 606.7417
948.5295, 668.1143
949.0117, 733.8384
949.4938, 775.1797
949.9759, 853.8359
950.4580, 996.3486
950.9401, 1168.910
951.4222, 1313.529
951.9044, 1429.850
952.3865, 1575.272
952.8686, 1759.695
953.3507, 1971.385
953.8328, 2207.224
954.3149, 2457.837
954.7971, 2713.815
955.2792, 2968.095
955.7613, 3230.854
956.2434, 3506.285
956.7255, 3786.595
957.2076, 4063.672
957.6898, 4339.659
958.1719, 4646.404
958.6540, 4985.193
959.1361, 5310.670
959.6182, 5620.879
960.1003, 5886.629
960.5825, 6080.550
961.0646, 6205.180
961.5467, 6291.617
962.0288, 6415.371
962.5109, 6391.811
962.9930, 6163.855
963.4752, 5775.048
963.9573, 5299.474
964.4394, 4753.011
964.9215, 4203.519
965.4036, 3655.086
965.8857, 3144.691
966.3679, 2699.884
966.8500, 2311.463
967.3321, 1963.641
967.8142, 1648.478
968.2963, 1391.936
968.7784, 1204.043
969.2606, 1058.334
969.7427, 941.1274
970.2248, 846.0684
970.7069, 749.1680
971.1890, 649.0034
971.6711, 557.6577
972.1533, 488.2871
972.6354, 427.2031
973.1175, 361.2876
973.5996, 291.0439
974.0817, 254.7627
974.5638, 265.6348
975.0460, 262.6582
975.5281, 211.3525
976.0102, 138.3525
976.4923, 95.38965
976.9744, 78.33643
977.4565, 75.02100
977.9387, 96.29688
978.4208, 111.6196
978.9029, 107.0889
979.3850, 91.88037
979.8671, 76.83838
980.3492, 61.36084
980.8314, 50.73779
981.3135, 46.29932
981.7956, 43.26514
982.2777, 34.81494
982.7598, 25.04199
983.2419, 21.52783
983.7241, 26.72852
984.2062, 26.41357
984.6883, 0.3452150
985.1704, 15.08838
985.6525, 2.555664
986.1346, 47.58057
986.6168, 65.31494
987.0989, 57.12402
987.5810, 47.49072
988.0631, 55.52588
988.5452, 64.40234
989.0273, 58.04346
989.5095, 39.91699
989.9916, 18.32422
990.4737, 24.00684
990.9558, 36.76807
991.4379, 1.327637
991.9200, 47.95264
992.4022, 52.39844
992.8843, 22.61768
993.3664, 5.685547
993.8485, 11.59570
994.3306, 22.53955
994.8127, 31.85059
995.2949, 36.99512
995.7770, 31.48926
996.2591, 11.11279
996.7412, 16.38135
997.2233, 57.02734
997.7054, 87.63184
998.1876, 74.93213
998.6697, 35.08789
999.1518, 7.459473
999.6339, 47.55811
1000.116, 65.58252
1000.598, 31.22754
1001.080, 1.785645
1001.562, 15.64062
1002.044, 16.36426
1002.527, 11.86670
1003.009, 1.387695
1003.491, 1.679199
1003.973, 6.809570
1004.455, 16.03711
1004.937, 5.104004
1005.419, 7.910156
1005.901, 6.249512
1006.384, 66.15576
1006.866, 92.44727
1007.348, 55.37842
1007.830, 16.14600
1008.312, 10.58203
1008.794, 32.71045
1009.276, 53.37744
1009.758, 71.00244
1010.240, 73.68945
1010.723, 32.53662
1011.205, 4.087402
1011.687, 1.311035
1012.169, 29.54834
1012.651, 56.21338
1013.133, 79.19482
1013.615, 94.87988
1014.097, 103.4092
1014.580, 102.7061
1015.062, 85.19775
1015.544, 57.78809
1016.026, 30.32959
1016.508, 2.258789
1016.990, 10.14893
1017.472, 10.99805
1017.954, 39.95215
1018.436, 65.03564
1018.919, 85.66504
1019.401, 87.70703
1019.883, 71.09326
1020.365, 61.42383
1020.847, 82.89209
1021.329, 110.4985
1021.811, 114.7617
1022.293, 105.8447
1022.776, 109.3833
1023.258, 143.3662
1023.740, 167.6851
1024.222, 175.4814
1024.704, 177.3794
1025.186, 188.7124
1025.668, 206.4219
1026.150, 219.7666
1026.632, 227.2261
1027.115, 231.6899
1027.597, 230.4028
1028.079, 230.5996
1028.561, 240.0234
1029.043, 257.8882
1029.525, 260.1953
1030.007, 243.4141
1030.489, 240.9316
1030.972, 280.8467
1031.454, 329.1118
1031.936, 333.2959
1032.418, 310.1782
1032.900, 295.7031
1033.382, 313.4023
1033.864, 322.0737
1034.346, 310.6484
1034.828, 298.0718
1035.311, 310.5566
1035.793, 343.0513
1036.275, 361.2866
1036.757, 362.6221
1037.239, 355.9805
1037.721, 340.6445
1038.203, 325.7007
1038.685, 315.3042
1039.167, 310.5591
1039.650, 320.3354
1040.132, 349.2808
1040.614, 371.2017
1041.096, 373.5967
1041.578, 370.1548
1042.060, 386.1836
1042.542, 411.1011
1043.024, 422.2715
1043.507, 392.8267
1043.989, 396.8994
1044.471, 473.8794
1044.953, 557.5210
1045.435, 595.5176
1045.917, 591.1504
1046.399, 583.7231
1046.881, 574.6797
1047.364, 576.8530
1047.846, 604.3013
1048.328, 639.3535
1048.810, 685.0752
1049.292, 733.6401
1049.774, 743.2056
1050.256, 703.7197
1050.738, 657.0283
1051.220, 609.3179
1051.703, 566.6016
1052.185, 552.4058
1052.667, 547.9390
1053.149, 515.8672
1053.631, 441.3042
1054.113, 375.4165
1054.595, 329.8125
1055.077, 299.1167
1055.559, 287.1050
1056.042, 289.5254
1056.524, 272.1650
1057.006, 237.2305
1057.488, 205.0640
1057.970, 196.0200
1058.452, 191.2197
1058.934, 175.4316
1059.416, 152.3594
1059.899, 132.1670
1060.381, 113.5640
1060.863, 104.6631
1061.345, 108.4077
1061.827, 112.0713
1062.309, 94.98047
1062.791, 72.66113
1063.273, 71.85254
1063.755, 94.97314
1064.238, 111.9629
1064.720, 112.0562
1065.202, 107.4067
1065.684, 98.17041
1066.166, 88.83887
1066.648, 95.93164
1067.130, 115.1777
1067.612, 130.8906
1068.094, 138.2944
1068.577, 144.4414
1069.059, 152.5459
1069.541, 162.2217
1070.023, 173.1851
1070.505, 185.8740
1070.987, 196.3867
1071.469, 204.0454
1071.951, 212.8945
1072.434, 226.6987
1072.916, 242.5151
1073.398, 259.7207
1073.880, 276.4219
1074.362, 286.0625
1074.844, 282.3838
1075.326, 279.9473
1075.808, 279.8862
1076.291, 282.1797
1076.773, 287.9102
1077.255, 293.9531
1077.737, 294.4946
1078.219, 288.8223
1078.701, 277.3838
1079.183, 251.4595
1079.665, 228.9336
1080.147, 221.5439
1080.630, 225.2236
1081.112, 214.0112
1081.594, 186.6553
1082.076, 162.8599
1082.558, 150.2446
1083.040, 142.7402
1083.522, 137.1201
1084.004, 132.3521
1084.486, 127.1240
1084.969, 121.7041
1085.451, 115.5337
1085.933, 106.2354
1086.415, 99.10840
1086.897, 102.8540
1087.379, 111.0176
1087.861, 112.1797
1088.343, 107.3296
1088.826, 101.7295
1089.308, 99.47949
1089.790, 93.30664
1090.272, 80.71533
1090.754, 65.26855
1091.236, 47.93506
1091.718, 31.89404
1092.200, 36.76172
1092.682, 64.32080
1093.165, 89.20947
1093.647, 101.2920
1094.129, 98.61621
1094.611, 70.89160
1095.093, 25.15283
1095.575, 14.79688
1096.057, 41.45020
1096.539, 62.66406
1097.022, 59.56250
1097.504, 50.32812
1097.986, 48.51953
1098.468, 54.38721
1098.950, 71.23975
1099.432, 115.8018
1099.914, 122.5586
1100.396, 81.06055
1100.879, 35.39648
1101.361, 17.87451
1101.843, 17.90527
1102.325, 14.59473
1102.807, 10.02539
1103.289, 12.71973
1103.771, 29.96533
1104.253, 50.70557
1104.735, 79.00098
1105.218, 102.5845
1105.700, 100.0459
1106.182, 76.75586
1106.664, 59.19287
1107.146, 50.18457
1107.628, 38.27246
1108.110, 3.191406
1108.592, 23.45703
1109.074, 17.49121
1109.557, 11.16895
1110.039, 23.26611
1110.521, 18.71533
1111.003, 10.42871
1111.485, 5.2246001E-02
1111.967, 6.103516
1112.449, 3.0273000E-02
1112.931, 13.21484
1113.414, 29.64844
1113.896, 50.12793
1114.378, 66.76514
1114.860, 80.53467
1115.342, 86.02100
1115.824, 74.95752
1116.306, 58.19434
1116.788, 51.85156
1117.271, 53.65234
1117.753, 58.06787
1118.235, 72.08936
1118.717, 73.63770
1119.199, 55.89551
1119.681, 36.17578
1120.163, 33.84814
1120.645, 42.97217
1121.127, 44.48389
1121.609, 38.85010
1122.092, 38.06348
1122.574, 66.40820
1123.056, 76.46436
1123.538, 39.53076
1124.020, 13.43848
1124.502, 13.24414
1124.984, 32.61182
1125.466, 59.98291
1125.949, 55.97412
1126.431, 41.86670
1126.913, 23.67480
1127.395, 8.853516
1127.877, 6.7870997E-02
1128.359, 2.613770
1128.841, 10.00928
1129.323, 39.01904
1129.806, 67.32471
1130.288, 92.19531
1130.770, 106.3896
1131.252, 97.18066
1131.734, 75.22021
1132.216, 54.08105
1132.698, 35.75684
1133.180, 15.01465
1133.662, 10.52197
1134.145, 27.86084
1134.627, 25.74854
1135.109, 12.45459
1135.591, 2.123535
1136.073, 17.12061
1136.555, 29.90967
1137.037, 47.75244
1137.519, 47.09424
1138.001, 15.45752
1138.484, 11.21436
1138.966, 22.25000
1139.448, 85.11670
1139.930, 94.87549
1140.412, 53.11133
1140.894, 16.57178
1141.376, 13.92871
1141.858, 12.14209
1142.341, 1.661621
1142.823, 15.52051
1143.305, 10.51318
1143.787, 13.40674
1144.269, 68.62988
1144.751, 163.0122
1145.233, 222.3311
1145.715, 173.6602
1146.198, 108.0815
1146.680, 74.24902
1147.162, 66.45264
1147.644, 62.95312
1148.126, 63.66553
1148.608, 51.16602
1149.090, 10.20947
1149.572, 14.77539
1150.054, 38.04736
1150.536, 103.2979
1151.019, 109.0742
1151.501, 46.29980
1151.983, 31.62109
1152.465, 66.89795
1152.947, 101.4824
1153.429, 105.9438
1153.911, 99.84521
1154.393, 102.5327
1154.876, 107.1846
1155.358, 100.2212
1155.840, 74.03516
1156.322, 58.36279
1156.804, 54.56982
1157.286, 56.74170
1157.768, 63.50293
1158.250, 71.11963
1158.733, 77.94238
1159.215, 81.81592
1159.697, 74.24658
1160.179, 44.12012
1160.661, 23.88623
1161.143, 16.29980
1161.625, 22.32227
1162.107, 56.28125
1162.589, 98.52734
1163.072, 111.8311
1163.554, 95.36182
1164.036, 83.38037
1164.518, 89.61182
1165.000, 92.13477
1165.482, 85.58350
1165.964, 73.05420
1166.446, 54.63232
1166.928, 36.31836
1167.411, 27.87744
1167.893, 30.90039
1168.375, 38.28271
1168.857, 54.42969
1169.339, 66.07812
1169.821, 67.59570
1170.303, 61.51514
1170.785, 50.03076
1171.268, 35.43799
1171.750, 24.78369
1172.232, 19.31494
1172.714, 20.83447
1173.196, 44.19580
1173.678, 60.37207
1174.160, 44.49609
1174.642, 4.807129
1175.125, 3.325684
1175.607, 32.75781
1176.089, 52.89893
1176.571, 36.42236
1177.053, 17.82080
1177.535, 7.354492
1178.017, 6.340332
1178.499, 21.22900
1178.981, 51.74707
1179.464, 59.90430
1179.946, 46.73682
1180.428, 34.56543
1180.910, 31.14502
1181.392, 39.33203
1181.874, 77.47070
1182.356, 119.3506
1182.838, 121.1162
1183.320, 80.26318
1183.803, 43.15283
1184.285, 13.11084
1184.767, 4.278320
1185.249, 2.255371
1185.731, 10.80225
1186.213, 37.30273
1186.695, 69.57275
1187.177, 86.51855
1187.660, 86.62891
1188.142, 81.86084
1188.624, 73.90771
1189.106, 69.25879
1189.588, 76.56592
1190.070, 86.21045
1190.552, 89.74561
1191.034, 87.86523
1191.516, 89.40967
1191.999, 95.46973
1192.481, 90.48926
1192.963, 67.22803
1193.445, 46.60449
1193.927, 55.71826
1194.409, 72.34375
1194.891, 71.00244
1195.373, 49.60645
1195.855, 42.72168
1196.338, 51.00928
1196.820, 62.04443
1197.302, 73.01904
1197.784, 75.65479
1198.266, 45.01953
1198.748, 8.927734
1199.230, 8.270996
1199.712, 55.56738
1200.195, 76.43408
1200.677, 66.58008
1201.159, 57.26758
1201.641, 66.67529
1202.123, 82.40967
1202.605, 99.42676
1203.087, 110.6211
1203.569, 102.8188
1204.052, 66.95996
1204.534, 34.99023
1205.016, 5.086426
1205.498, 11.33252
1205.980, 7.014648
1206.462, 31.98730
1206.944, 26.07959
1207.426, 1.181641
1207.908, 10.77148
1208.391, 12.65625
1208.873, 15.35596
1209.355, 82.46240
1209.837, 135.8096
1210.319, 113.4277
1210.801, 65.84961
1211.283, 45.44092
1211.765, 49.60547
1212.247, 65.46094
1212.730, 98.81152
1213.212, 118.8525
1213.694, 121.9116
1214.176, 113.6655
1214.658, 87.43994
1215.140, 59.97900
1215.622, 55.06982
1216.104, 42.02588
1216.587, 34.10303
1217.069, 43.09277
1217.551, 33.87256
1218.033, 50.08350
1218.515, 67.40625
1218.997, 48.81201
1219.479, 23.15039
1219.961, 28.71924
1220.443, 65.19482
1220.926, 81.93018
1221.408, 71.18213
1221.890, 65.71240
1222.372, 76.35352
1222.854, 83.26807
1223.336, 47.26172
1223.818, 4.102051
1224.300, 0.8002930
1224.782, 39.72852
1225.265, 69.83740
1225.747, 89.84473
1226.229, 94.26562
1226.711, 75.58105
1227.193, 56.77344
1227.675, 77.91211
1228.157, 107.6641
1228.639, 103.5488
1229.122, 56.79150
1229.604, 30.32764
1230.086, 25.69971
1230.568, 31.00244
1231.050, 45.28809
1231.532, 60.32471
1232.014, 70.25977
1232.496, 71.58936
1232.979, 54.03271
1233.461, 12.99121
1233.943, 1.049805
1234.425, 13.25342
1234.907, 42.66064
1235.389, 86.45459
1235.871, 134.6958
1236.353, 194.5732
1236.835, 242.7710
1237.318, 240.9932
1237.800, 182.6333
1238.282, 131.4629
1238.764, 87.71631
1239.246, 53.90430
1239.728, 34.25684
1240.210, 22.69629
1240.692, 13.57324
1241.175, 10.55762
1241.657, 19.49414
1242.139, 42.85986
1242.621, 65.12891
1243.103, 87.36133
1243.585, 89.60254
1244.067, 34.13477
1244.549, 18.78809
1245.031, 30.51221
1245.514, 12.47070
1245.996, 22.08398
1246.478, 77.35596
1246.960, 97.36426
1247.442, 82.59619
1247.924, 59.50195
1248.406, 34.47852
1248.888, 17.80713
1249.370, 21.10986
1249.853, 32.83350
1250.335, 35.19482
1250.817, 28.91309
1251.299, 45.92285
1251.781, 85.34229
1252.263, 114.9082
1252.745, 101.3608
1253.227, 89.62207
1253.710, 113.2959
1254.192, 138.5610
1254.674, 112.3945
1255.156, 44.83057
1255.638, 6.452637
1256.120, 0.7416990
1256.602, 13.46533
1257.084, 66.70947
1257.567, 97.48584
1258.049, 77.12549
1258.531, 37.98730
1259.013, 21.00244
1259.495, 23.43262
1259.977, 42.36523
1260.459, 73.87305
1260.941, 93.91748
1261.423, 60.35938
1261.906, 56.32471
1262.388, 124.9473
1262.870, 198.0825
1263.352, 156.1538
1263.834, 52.06836
1264.316, 14.26172
1264.798, 48.94824
1265.280, 73.37695
1265.762, 47.94873
1266.245, 36.31641
1266.727, 54.45312
1267.209, 79.33301
1267.691, 79.91309
1268.173, 65.41016
1268.655, 45.95166
1269.137, 23.71289
1269.619, 19.16016
1270.102, 46.18896
1270.584, 53.58838
1271.066, 24.74121
1271.548, 8.027832
1272.030, 2.130859
1272.512, 22.13281
1272.994, 43.62451
1273.476, 60.00244
1273.958, 75.57568
1274.441, 92.79199
1274.923, 94.30273
1275.405, 72.86572
1275.887, 53.48730
1276.369, 64.55029
1276.851, 88.79004
1277.333, 118.3965
1277.815, 147.5557
1278.297, 143.6733
1278.780, 104.6479
1279.262, 79.43652
1279.744, 81.15820
1280.226, 81.81982
1280.708, 70.09082
1281.190, 59.48291
1281.672, 63.62842
1282.154, 76.36133
1282.637, 73.71631
1283.119, 57.26758
1283.601, 41.31982
1284.083, 28.26221
1284.565, 19.69629
1285.047, 20.90039
1285.529, 21.55762
1286.011, 12.62012
1286.494, 2.450684
1286.976, 25.67139
1287.458, 67.84717
1287.940, 72.19678
1288.422, 20.34473
1288.904, 10.95654
1289.386, 33.81689
1289.868, 66.19434
1290.350, 51.52148
1290.833, 16.68408
1291.315, 19.78662
1291.797, 41.59229
1292.279, 39.31934
1292.761, 0.2006840
1293.243, 14.84717
1293.725, 6.171387
1294.207, 33.26562
1294.689, 56.44238
1295.172, 73.92529
1295.654, 81.75195
1296.136, 83.03076
1296.618, 81.38965
1297.100, 77.00049
1297.582, 68.53467
1298.064, 53.43896
1298.546, 54.36475
1299.029, 84.88135
1299.511, 112.8237
1299.993, 99.48926
1300.475, 70.54492
1300.957, 46.09912
1301.439, 28.45850
1301.921, 29.79053
1302.403, 47.35938
1302.885, 66.77637
1303.368, 82.85498
1303.850, 89.71826
1304.332, 68.32178
1304.814, 51.69922
1305.296, 56.22070
1305.778, 71.86572
1306.260, 55.03516
1306.742, 16.64111
1307.224, 3.853516
1307.707, 34.06787
1308.189, 56.81152
1308.671, 45.28271
1309.153, 30.44727
1309.635, 22.06885
1310.117, 18.19287
1310.599, 11.24365
1311.081, 16.74561
1311.564, 12.47998
1312.046, 35.75732
1312.528, 56.34521
1313.010, 77.86963
1313.492, 77.82959
1313.974, 39.68115
1314.456, 0.2944340
1314.938, 0.0000000E+00
##END=



