##NAMES=Monticellite
##RRUFFID=R100108
##IDEAL CHEMISTRY=CaMgSiO_4_
##LOCALITY=Oka, Deux-montagnes County, Quebec, Canada
##OWNER=RRUFF
##SOURCE=American Museum of Natural History
##DESCRIPTION=Pale brown transparent fragment
##STATUS=The identification of this mineral is confirmed by single-crystal X-ray diffraction and chemical analysis.
##URL=rruff.info/R100108
##MEASURED CHEMISTRY=(Ca_0.959_Mg_0.474_Mn^+2^_0.305_Fe^+2^_0.268_Zn_0.002_)_Î£=2.008_Si_0.996_O_4_
127.6152, 0.0000000E+00
128.0973, 0.3874310
128.5794, 1.069862
129.0615, 2.085822
129.5436, 2.978454
130.0258, 3.329893
130.5079, 3.677959
130.9900, 4.381599
131.4721, 3.962736
131.9542, 2.833773
132.4363, 2.450937
132.9185, 1.672791
133.4006, 0.8356560
133.8827, 0.1384030
134.3648, 0.3885270
134.8469, 0.4498860
135.3290, 4.9008999E-02
135.8112, 0.5971360
136.2933, 0.3741380
136.7754, 0.6964740
137.2575, 1.292166
137.7396, 0.9109340
138.2217, 0.3979780
138.7039, 2.029146
139.1860, 4.078564
139.6681, 6.304520
140.1502, 8.362148
140.6323, 10.11610
141.1144, 12.04412
141.5966, 14.42551
142.0787, 17.40860
142.5608, 20.14555
143.0429, 22.77226
143.5250, 25.07074
144.0071, 26.41457
144.4893, 26.31859
144.9714, 26.01859
145.4535, 25.99096
145.9356, 26.09277
146.4177, 26.79217
146.8998, 28.25775
147.3820, 30.34592
147.8641, 32.57995
148.3462, 34.86821
148.8283, 37.34671
149.3104, 40.11934
149.7925, 43.01631
150.2747, 46.41245
150.7568, 50.45220
151.2389, 55.07756
151.7210, 59.60735
152.2031, 63.90644
152.6852, 68.13605
153.1674, 72.45506
153.6495, 77.16429
154.1316, 81.60593
154.6137, 85.72163
155.0958, 89.51016
155.5779, 92.91877
156.0601, 95.34785
156.5422, 97.66821
157.0243, 100.5840
157.5064, 104.5996
157.9885, 108.8728
158.4706, 113.5687
158.9528, 118.8650
159.4349, 122.9308
159.9170, 124.5168
160.3991, 124.8540
160.8812, 125.3666
161.3633, 126.4416
161.8455, 127.7950
162.3276, 129.5360
162.8097, 131.8353
163.2918, 133.5319
163.7739, 134.2384
164.2560, 133.7836
164.7382, 130.9595
165.2203, 126.3128
165.7024, 121.3988
166.1845, 116.8319
166.6666, 112.6706
167.1487, 108.8568
167.6309, 105.0985
168.1130, 101.5983
168.5951, 98.84617
169.0772, 97.88551
169.5593, 97.28698
170.0414, 95.76972
170.5236, 92.85316
171.0057, 89.61689
171.4878, 86.97038
171.9699, 84.65641
172.4520, 81.93748
172.9341, 77.83356
173.4163, 73.28093
173.8984, 69.37398
174.3805, 66.38888
174.8626, 64.00314
175.3447, 61.95768
175.8268, 60.22281
176.3090, 58.67467
176.7911, 57.41687
177.2732, 56.26197
177.7553, 54.89290
178.2374, 53.12576
178.7195, 51.22186
179.2017, 49.28169
179.6838, 47.34412
180.1659, 45.94817
180.6480, 45.95232
181.1301, 46.81067
181.6122, 47.25461
182.0944, 46.81943
182.5765, 45.85398
183.0586, 44.82434
183.5407, 43.73930
184.0228, 42.77887
184.5049, 42.17461
184.9871, 41.85089
185.4692, 41.40213
185.9513, 40.85077
186.4334, 40.25533
186.9155, 39.74563
187.3976, 39.32194
187.8798, 38.96556
188.3619, 38.71249
188.8440, 38.53927
189.3261, 38.27960
189.8082, 37.93266
190.2903, 37.45605
190.7725, 36.60353
191.2546, 35.29672
191.7367, 34.01126
192.2188, 33.43680
192.7009, 33.55511
193.1830, 33.53110
193.6652, 32.88805
194.1473, 31.74785
194.6294, 30.93974
195.1115, 30.52811
195.5936, 30.27147
196.0757, 29.77155
196.5579, 28.99734
197.0400, 28.29167
197.5221, 27.73737
198.0042, 27.33948
198.4863, 27.37921
198.9684, 28.07022
199.4506, 28.72113
199.9327, 28.02444
200.4148, 25.80225
200.8969, 23.87242
201.3790, 23.06056
201.8611, 23.40654
202.3433, 23.81653
202.8254, 24.44672
203.3075, 24.89304
203.7896, 24.14935
204.2717, 21.87955
204.7538, 20.10686
205.2360, 19.94908
205.7181, 21.64256
206.2002, 22.77008
206.6823, 23.32191
207.1644, 23.32472
207.6465, 22.70717
208.1287, 21.31386
208.6108, 19.85944
209.0929, 18.59886
209.5750, 17.50703
210.0571, 16.76540
210.5392, 16.43245
211.0214, 16.39667
211.5035, 16.48767
211.9856, 16.79059
212.4677, 16.98117
212.9498, 16.92279
213.4319, 16.60144
213.9140, 16.04587
214.3962, 15.11867
214.8783, 14.04420
215.3604, 13.41943
215.8425, 13.48311
216.3246, 13.44783
216.8067, 12.83034
217.2889, 11.28903
217.7710, 10.37596
218.2531, 10.23193
218.7352, 10.64650
219.2173, 11.23172
219.6994, 12.21919
220.1816, 12.94934
220.6637, 13.09517
221.1458, 12.44330
221.6279, 11.80344
222.1100, 11.13533
222.5921, 10.50769
223.0743, 10.12267
223.5564, 10.10713
224.0385, 10.13701
224.5206, 9.957214
225.0027, 9.238022
225.4848, 9.232071
225.9670, 10.30515
226.4491, 11.98486
226.9312, 12.99869
227.4133, 12.91885
227.8954, 12.85225
228.3775, 13.31442
228.8597, 14.53880
229.3418, 15.74544
229.8239, 16.92073
230.3060, 18.07268
230.7881, 19.18674
231.2702, 20.29831
231.7524, 21.33449
232.2345, 22.18657
232.7166, 22.59879
233.1987, 23.45674
233.6808, 24.79518
234.1629, 26.56087
234.6451, 28.74930
235.1272, 31.79169
235.6093, 34.59523
236.0914, 36.58904
236.5735, 37.18712
237.0556, 38.34245
237.5378, 40.20821
238.0199, 42.59314
238.5020, 44.98776
238.9841, 47.29024
239.4662, 49.80827
239.9483, 52.81674
240.4305, 56.88823
240.9126, 59.94089
241.3947, 61.30775
241.8768, 61.86002
242.3589, 63.79471
242.8410, 67.68521
243.3232, 72.05617
243.8053, 76.31358
244.2874, 80.51154
244.7695, 84.49048
245.2516, 88.31955
245.7337, 91.92914
246.2159, 95.08548
246.6980, 97.37967
247.1801, 99.87251
247.6622, 102.9209
248.1443, 106.4156
248.6264, 110.9024
249.1086, 116.8961
249.5907, 123.6624
250.0728, 129.7329
250.5549, 135.0769
251.0370, 139.7764
251.5191, 143.7927
252.0013, 146.8842
252.4834, 150.0207
252.9655, 153.4627
253.4476, 156.7573
253.9297, 159.1222
254.4118, 160.6956
254.8940, 161.0406
255.3761, 160.0726
255.8582, 157.8898
256.3403, 153.8519
256.8224, 147.5987
257.3046, 139.8138
257.7867, 131.5693
258.2688, 122.3841
258.7509, 113.5721
259.2330, 105.8083
259.7151, 99.31567
260.1973, 92.21336
260.6794, 84.39111
261.1615, 76.22623
261.6436, 68.24879
262.1257, 60.01157
262.6078, 52.90816
263.0900, 47.62946
263.5721, 44.31746
264.0542, 40.96082
264.5363, 37.38371
265.0184, 33.92885
265.5005, 30.97472
265.9827, 28.70035
266.4648, 26.45570
266.9469, 23.98714
267.4290, 21.28571
267.9111, 19.14142
268.3932, 17.74097
268.8754, 16.63022
269.3575, 15.34267
269.8396, 13.86989
270.3217, 12.18799
270.8038, 10.16974
271.2859, 7.839615
271.7681, 6.045609
272.2502, 4.932526
272.7323, 4.057007
273.2144, 2.963272
273.6965, 1.573395
274.1786, 0.3504790
274.6608, 0.6702270
275.1429, 1.457077
275.6250, 1.735245
276.1071, 1.382217
276.5892, 0.8718110
277.0714, 0.6547390
277.5535, 0.7639160
278.0356, 0.8343050
278.5177, 0.7826540
278.9998, 0.6405790
279.4819, 0.5016330
279.9641, 0.3025210
280.4462, 0.1818540
280.9283, 0.5657650
281.4104, 1.511887
281.8925, 1.382462
282.3746, 0.4247590
282.8568, 3.196869
283.3389, 4.793259
283.8210, 5.095291
284.3031, 5.233765
284.7852, 5.997009
285.2673, 7.335159
285.7495, 8.676315
286.2316, 9.910202
286.7137, 11.12733
287.1958, 12.47932
287.6779, 13.99800
288.1600, 15.62102
288.6422, 17.28098
289.1243, 19.00125
289.6064, 20.98004
290.0885, 23.44974
290.5706, 25.78694
291.0527, 26.65590
291.5349, 26.14841
292.0170, 25.89395
292.4991, 26.82788
292.9812, 28.77776
293.4633, 31.32315
293.9454, 34.64246
294.4276, 37.73506
294.9097, 38.95587
295.3918, 38.60095
295.8739, 38.28365
296.3560, 38.98723
296.8381, 40.28094
297.3203, 41.20015
297.8024, 41.72198
298.2845, 41.84225
298.7666, 41.56546
299.2487, 40.89520
299.7308, 39.82767
300.2130, 38.35042
300.6951, 36.45799
301.1772, 34.08577
301.6593, 31.26761
302.1414, 28.15436
302.6235, 24.58592
303.1057, 20.84358
303.5878, 17.58904
304.0699, 15.19388
304.5520, 13.22093
305.0341, 11.03615
305.5162, 8.709213
305.9984, 6.780762
306.4805, 6.115845
306.9626, 5.994781
307.4447, 5.375153
307.9268, 3.577927
308.4089, 1.706894
308.8911, 0.7304230
309.3732, 0.5163270
309.8553, 0.5248570
310.3374, 0.4944150
310.8195, 0.5018770
311.3016, 0.6722260
311.7838, 1.168961
312.2659, 1.537857
312.7480, 1.471756
313.2301, 1.049210
313.7122, 0.4637450
314.1943, 0.5119170
314.6765, 1.418076
315.1586, 1.907150
315.6407, 1.858398
316.1228, 1.639954
316.6049, 1.527176
317.0870, 1.342545
317.5692, 0.7982640
318.0513, 0.6526640
318.5334, 2.125092
319.0155, 3.215881
319.4976, 3.884476
319.9797, 4.262695
320.4619, 4.099457
320.9440, 3.766296
321.4261, 3.681808
321.9082, 4.203140
322.3903, 4.733490
322.8724, 5.056824
323.3546, 5.161957
323.8367, 5.351273
324.3188, 5.866821
324.8009, 6.392838
325.2830, 6.685471
325.7651, 6.163513
326.2473, 6.028351
326.7294, 6.822952
327.2115, 8.367340
327.6936, 9.216568
328.1757, 8.714523
328.6578, 7.913803
329.1400, 7.329987
329.6221, 7.159668
330.1042, 6.957993
330.5863, 6.910110
331.0684, 6.829147
331.5505, 6.130722
332.0327, 4.062180
332.5148, 2.244247
332.9969, 1.377121
333.4790, 1.940186
333.9611, 2.189667
334.4432, 1.988312
334.9254, 1.547287
335.4075, 1.265335
335.8896, 1.310669
336.3717, 1.162842
336.8538, 0.5637210
337.3359, 0.5709690
337.8180, 1.277237
338.3001, 1.459412
338.7823, 1.363800
339.2644, 1.209625
339.7465, 0.9344180
340.2286, 0.8015440
340.7107, 0.9427950
341.1928, 1.309357
341.6750, 1.580948
342.1571, 1.803604
342.6392, 1.792542
343.1213, 1.161804
343.6034, 0.1004330
344.0855, 0.7226720
344.5677, 0.2988890
345.0498, 0.6895450
345.5319, 0.9576720
346.0140, 0.4776610
346.4961, 6.7763999E-02
346.9782, 0.5063780
347.4604, 1.549377
347.9425, 1.890747
348.4246, 1.274445
348.9067, 0.3481750
349.3888, 3.2180998E-02
349.8709, 8.4351003E-02
350.3531, 0.4366910
350.8352, 1.304230
351.3173, 2.225174
351.7994, 2.132339
352.2815, 0.9209590
352.7636, 0.4763790
353.2458, 1.238251
353.7279, 1.515198
354.2100, 1.625168
354.6921, 1.476273
355.1742, 1.360504
355.6563, 1.716064
356.1385, 2.488922
356.6206, 3.138321
357.1027, 2.946945
357.5848, 2.549316
358.0669, 2.761826
358.5490, 4.291565
359.0312, 5.740753
359.5133, 6.143570
359.9954, 5.728668
360.4775, 5.220779
360.9596, 4.734573
361.4417, 4.425705
361.9239, 4.376907
362.4060, 4.576523
362.8881, 5.107300
363.3702, 6.319778
363.8523, 7.822708
364.3344, 9.016388
364.8166, 9.487183
365.2987, 9.844513
365.7808, 10.30902
366.2629, 10.91595
366.7450, 11.48195
367.2271, 11.71603
367.7093, 12.02890
368.1914, 12.78114
368.6735, 14.82486
369.1556, 16.40765
369.6377, 16.95425
370.1198, 16.63542
370.6020, 16.90327
371.0841, 18.06454
371.5662, 19.53217
372.0483, 20.97095
372.5304, 22.31300
373.0125, 23.75880
373.4947, 25.39645
373.9768, 27.12416
374.4589, 28.68602
374.9410, 29.98206
375.4231, 31.33734
375.9052, 32.82933
376.3874, 34.40179
376.8695, 36.39230
377.3516, 38.84311
377.8337, 41.67564
378.3158, 45.06844
378.7979, 49.16884
379.2801, 52.75641
379.7622, 55.25023
380.2443, 57.00806
380.7264, 59.83990
381.2085, 63.82629
381.6906, 68.23399
382.1728, 72.51988
382.6549, 76.72931
383.1370, 80.83461
383.6191, 84.76031
384.1012, 88.77823
384.5833, 93.53003
385.0655, 98.94897
385.5476, 104.4470
386.0297, 109.6003
386.5118, 114.6929
386.9939, 120.5018
387.4760, 127.1510
387.9582, 133.8483
388.4403, 139.8436
388.9224, 145.4073
389.4045, 151.0546
389.8866, 157.2542
390.3687, 163.5227
390.8509, 169.1991
391.3330, 174.3297
391.8151, 179.7757
392.2972, 186.2655
392.7793, 193.1550
393.2614, 199.8881
393.7436, 206.4589
394.2257, 212.5194
394.7078, 217.6154
395.1899, 221.9623
395.6720, 226.2330
396.1541, 230.4872
396.6363, 234.8840
397.1184, 239.7137
397.6005, 245.4996
398.0826, 250.1837
398.5647, 253.4048
399.0468, 255.3486
399.5290, 256.2656
400.0111, 255.5424
400.4932, 254.4949
400.9753, 253.7207
401.4574, 253.2447
401.9395, 250.9914
402.4217, 246.1364
402.9038, 240.2319
403.3859, 234.4857
403.8680, 229.7577
404.3501, 223.0851
404.8322, 213.5905
405.3144, 202.2774
405.7965, 192.3285
406.2786, 184.1830
406.7607, 175.9646
407.2428, 166.5920
407.7249, 155.9438
408.2071, 146.0376
408.6892, 136.8878
409.1713, 128.2737
409.6534, 119.8255
410.1355, 111.7329
410.6176, 104.4706
411.0998, 98.28345
411.5819, 92.79201
412.0640, 87.01639
412.5461, 81.01306
413.0282, 75.31448
413.5103, 70.47894
413.9925, 66.33267
414.4746, 62.43988
414.9567, 58.71536
415.4388, 55.17844
415.9209, 51.74390
416.4030, 48.52710
416.8852, 45.63348
417.3673, 43.28394
417.8494, 41.21336
418.3315, 39.22545
418.8136, 37.32056
419.2957, 35.39711
419.7779, 33.14763
420.2600, 30.99422
420.7421, 29.38306
421.2242, 28.95790
421.7063, 28.54851
422.1884, 27.84650
422.6706, 26.85846
423.1527, 25.58429
423.6348, 23.66115
424.1169, 21.80370
424.5990, 20.30879
425.0811, 19.12999
425.5633, 18.51962
426.0454, 19.01518
426.5275, 19.79814
427.0096, 19.84196
427.4917, 18.66573
427.9738, 17.48831
428.4560, 16.57477
428.9381, 15.91978
429.4202, 15.13390
429.9023, 13.98521
430.3844, 13.06134
430.8665, 13.03583
431.3487, 14.18428
431.8308, 14.55794
432.3129, 13.76244
432.7950, 12.46603
433.2771, 12.05496
433.7592, 12.55147
434.2414, 12.94914
434.7235, 12.74731
435.2056, 12.07657
435.6877, 11.36191
436.1698, 10.60205
436.6519, 9.845917
437.1341, 8.926453
437.6162, 8.049698
438.0983, 7.809998
438.5804, 8.707932
439.0625, 9.828705
439.5446, 10.16541
440.0268, 9.835129
440.5089, 9.260895
440.9910, 8.435410
441.4731, 7.628143
441.9552, 7.125473
442.4373, 7.028534
442.9195, 6.888718
443.4016, 6.190842
443.8837, 5.446274
444.3658, 5.276321
444.8479, 6.949844
445.3300, 8.133347
445.8122, 7.759308
446.2943, 6.019943
446.7764, 4.708649
447.2585, 4.238159
447.7406, 4.139725
448.2227, 4.214417
448.7049, 4.620270
449.1870, 4.870041
449.6691, 4.827591
450.1512, 4.695450
450.6333, 4.884415
451.1154, 5.820114
451.5976, 6.117523
452.0797, 5.072586
452.5618, 2.843506
453.0439, 2.038895
453.5260, 3.057098
454.0081, 4.298615
454.4903, 4.376663
454.9724, 3.311035
455.4545, 2.551376
455.9366, 2.331207
456.4187, 2.374313
456.9008, 2.069366
457.3830, 1.504837
457.8651, 1.380447
458.3472, 2.706192
458.8293, 4.477249
459.3114, 4.567627
459.7935, 2.981247
460.2757, 1.446487
460.7578, 1.765121
461.2399, 2.881027
461.7220, 3.262482
462.2041, 2.103790
462.6862, 0.8233640
463.1684, 0.3722530
463.6505, 0.4972690
464.1326, 0.6242220
464.6147, 0.6349180
465.0968, 0.4947970
465.5789, 2.3026001E-02
466.0611, 1.065948
466.5432, 1.410233
467.0253, 9.7930998E-02
467.5074, 1.920975
467.9895, 2.763428
468.4716, 1.588074
468.9538, 0.6677860
469.4359, 0.1831050
469.9180, 5.3176999E-02
470.4001, 5.3070001E-02
470.8822, 0.2777100
471.3643, 0.4669650
471.8465, 0.4772640
472.3286, 0.2758180
472.8107, 0.3176570
473.2928, 0.7026370
473.7749, 1.093796
474.2570, 1.059402
474.7392, 0.6041560
475.2213, 0.1655880
475.7034, 0.2106320
476.1855, 0.4569850
476.6676, 0.3072510
477.1497, 0.1893310
477.6319, 0.5645140
478.1140, 0.4395140
478.5961, 4.2541999E-02
479.0782, 0.2976380
479.5603, 0.5687710
480.0424, 0.6729130
480.5246, 0.2445830
481.0067, 0.3224180
481.4888, 0.4495390
481.9709, 0.5911100
482.4530, 1.490051
482.9352, 1.468384
483.4173, 0.7415770
483.8994, 1.0284000E-02
484.3815, 0.9272460
484.8636, 1.515717
485.3457, 1.412201
485.8279, 0.3330690
486.3100, 0.4340520
486.7921, 0.7609250
487.2742, 0.7374110
487.7563, 0.3731540
488.2384, 0.9065090
488.7206, 1.504181
489.2027, 0.9760130
489.6848, 0.3161320
490.1669, 1.093018
490.6490, 1.269913
491.1311, 1.167175
491.6133, 0.8598020
492.0954, 0.3499910
492.5775, 8.4320001E-02
493.0596, 0.4480590
493.5417, 0.7081300
494.0238, 0.7377620
494.5060, 0.6035310
494.9881, 0.6417690
495.4702, 1.027771
495.9523, 1.477325
496.4344, 1.535294
496.9165, 1.286316
497.3987, 1.049561
497.8808, 1.127670
498.3629, 1.224686
498.8450, 0.8415990
499.3271, 0.1027830
499.8092, 0.5070190
500.2914, 0.9525910
500.7735, 2.869232
501.2556, 3.936554
501.7377, 3.013367
502.2198, 2.177643
502.7019, 1.674911
503.1841, 1.571106
503.6662, 2.038101
504.1483, 3.844849
504.6304, 5.439102
505.1125, 6.431503
505.5946, 6.823410
506.0768, 6.618378
506.5589, 5.444687
507.0410, 4.232117
507.5231, 3.761765
508.0052, 4.124329
508.4873, 4.678970
508.9695, 5.431396
509.4516, 6.216446
509.9337, 6.601349
510.4158, 6.613968
510.8979, 6.841400
511.3800, 7.775650
511.8622, 9.041534
512.3443, 9.626953
512.8264, 9.574173
513.3085, 9.786194
513.7906, 11.58917
514.2728, 13.83118
514.7549, 14.80142
515.2370, 13.71556
515.7191, 12.74329
516.2012, 13.66020
516.6833, 15.48466
517.1655, 16.73361
517.6476, 16.14229
518.1297, 15.67201
518.6118, 15.99516
519.0939, 17.09245
519.5760, 18.48376
520.0582, 20.50818
520.5403, 22.45592
521.0224, 23.95467
521.5045, 24.74503
521.9866, 25.94142
522.4688, 27.71855
522.9509, 29.69878
523.4330, 31.43607
523.9151, 32.85394
524.3972, 34.19655
524.8793, 35.59409
525.3615, 36.98947
525.8436, 38.57463
526.3257, 40.33771
526.8078, 41.63290
527.2899, 42.07243
527.7720, 41.79555
528.2542, 40.91928
528.7363, 39.44122
529.2184, 38.01794
529.7005, 37.53685
530.1826, 37.35783
530.6647, 36.58211
531.1469, 34.68820
531.6290, 32.62257
532.1111, 30.91859
532.5932, 29.42258
533.0753, 27.83391
533.5574, 26.07222
534.0396, 24.15990
534.5217, 21.84225
535.0038, 19.08855
535.4859, 17.27153
535.9680, 16.87144
536.4501, 16.96170
536.9323, 17.10184
537.4144, 17.53561
537.8965, 17.25003
538.3786, 15.93126
538.8607, 14.35901
539.3428, 13.89464
539.8250, 14.60049
540.3071, 14.89305
540.7892, 14.16234
541.2713, 13.01292
541.7534, 12.99596
542.2355, 13.97572
542.7177, 14.87361
543.1998, 14.84575
543.6819, 14.36009
544.1640, 14.08253
544.6461, 14.06544
545.1282, 14.26114
545.6104, 14.91318
546.0925, 15.65561
546.5746, 16.03465
547.0567, 15.42093
547.5388, 15.11461
548.0209, 15.60316
548.5031, 16.70934
548.9852, 17.99107
549.4673, 19.95979
549.9494, 21.51091
550.4315, 22.16371
550.9136, 21.91510
551.3958, 22.14055
551.8779, 23.10669
552.3600, 24.09671
552.8421, 24.59471
553.3242, 24.52461
553.8063, 24.67076
554.2885, 25.03929
554.7706, 25.69969
555.2527, 26.92767
555.7348, 28.61586
556.2169, 30.08809
556.6990, 31.06902
557.1812, 31.80154
557.6633, 32.55287
558.1454, 33.35440
558.6275, 34.22334
559.1096, 35.06247
559.5917, 36.05032
560.0739, 37.40677
560.5560, 39.17513
561.0381, 40.95940
561.5202, 42.57085
562.0023, 44.20915
562.4844, 45.98880
562.9666, 48.17229
563.4487, 50.12440
563.9308, 51.61661
564.4129, 52.95242
564.8950, 54.58167
565.3771, 56.63020
565.8593, 58.66121
566.3414, 60.48878
566.8235, 62.24208
567.3056, 64.73018
567.7877, 68.08713
568.2698, 71.04692
568.7520, 72.52019
569.2341, 72.94380
569.7162, 74.09229
570.1983, 76.03587
570.6804, 78.26009
571.1625, 80.50430
571.6447, 82.63591
572.1268, 84.42470
572.6089, 85.79196
573.0910, 86.90999
573.5731, 87.88744
574.0552, 88.71133
574.5374, 89.38177
575.0195, 89.70755
575.5016, 90.12225
575.9837, 90.78183
576.4658, 91.67523
576.9479, 92.66043
577.4301, 94.21858
577.9122, 95.28212
578.3943, 95.27136
578.8764, 93.94028
579.3585, 93.03226
579.8406, 92.81650
580.3228, 92.41861
580.8049, 90.58656
581.2870, 87.44179
581.7691, 85.16676
582.2512, 84.41876
582.7333, 84.06049
583.2155, 82.29941
583.6975, 79.46452
584.1796, 76.57880
584.6617, 74.30002
585.1439, 72.05029
585.6260, 69.26088
586.1081, 66.04724
586.5902, 62.97864
587.0723, 60.46321
587.5544, 58.05443
588.0366, 55.39619
588.5187, 52.31590
589.0008, 49.70834
589.4829, 48.25089
589.9650, 46.89903
590.4471, 44.85757
590.9293, 41.62468
591.4114, 38.93690
591.8935, 37.12949
592.3756, 35.66991
592.8577, 33.40533
593.3398, 30.21275
593.8220, 27.43257
594.3041, 25.59631
594.7862, 24.44971
595.2683, 23.59821
595.7504, 22.99098
596.2325, 22.19284
596.7147, 20.79469
597.1968, 19.13663
597.6789, 17.46259
598.1610, 15.78624
598.6431, 14.47939
599.1252, 14.20399
599.6074, 14.13515
600.0895, 13.56587
600.5716, 11.96985
601.0537, 10.56723
601.5358, 9.510254
602.0179, 8.765274
602.5001, 8.366211
602.9822, 8.674896
603.4643, 8.594467
603.9464, 7.777603
604.4285, 6.490219
604.9106, 5.646255
605.3928, 5.298660
605.8749, 5.025635
606.3570, 4.550095
606.8391, 3.977982
607.3212, 3.777634
607.8033, 3.938354
608.2855, 4.074631
608.7676, 3.948837
609.2497, 3.582748
609.7318, 2.919159
610.2139, 1.840683
610.6960, 0.9982150
611.1782, 0.7515110
611.6603, 0.9347530
612.1424, 1.369156
612.6245, 2.636658
613.1066, 3.394897
613.5887, 3.183563
614.0709, 2.411362
614.5530, 1.880554
615.0351, 1.711029
615.5172, 1.571075
615.9993, 1.448181
616.4814, 1.272202
616.9636, 0.4512630
617.4457, 1.109116
617.9278, 2.149750
618.4099, 1.455551
618.8920, 0.3247220
619.3741, 1.567917
619.8563, 2.230713
620.3384, 2.344330
620.8205, 1.316467
621.3026, 2.1423001E-02
621.7847, 0.3283690
622.2668, 0.9623410
622.7490, 1.946136
623.2311, 1.406845
623.7132, 0.2067870
624.1953, 0.5546420
624.6774, 0.4527280
625.1595, 0.1827550
625.6417, 0.2729950
626.1238, 0.8230130
626.6059, 1.220352
627.0880, 1.483475
627.5701, 1.542892
628.0522, 1.302094
628.5344, 0.8406520
629.0165, 0.6072240
629.4986, 0.6117550
629.9807, 0.5433810
630.4628, 6.9916002E-02
630.9449, 0.8450470
631.4271, 0.9965360
631.9092, 0.4597020
632.3913, 0.1453250
632.8734, 0.3856960
633.3555, 0.4638980
633.8376, 0.5603330
634.3198, 0.6411740
634.8019, 0.8261570
635.2840, 1.374741
635.7661, 1.983917
636.2482, 2.199127
636.7303, 1.590317
637.2125, 1.274567
637.6946, 1.604797
638.1767, 2.249878
638.6588, 2.232117
639.1409, 1.484161
639.6230, 0.6093900
640.1052, 0.3202060
640.5873, 1.164230
641.0694, 1.422256
641.5515, 1.146042
642.0336, 0.6555330
642.5157, 0.1499020
642.9979, 0.8955840
643.4800, 0.9803620
643.9621, 0.3275910
644.4442, 0.1257930
644.9263, 0.4173740
645.4084, 1.151978
645.8906, 1.374542
646.3727, 0.4043580
646.8548, 3.7262000E-02
647.3369, 0.5080570
647.8190, 1.361145
648.3011, 1.694901
648.7833, 1.382492
649.2654, 0.8960880
649.7475, 0.1159970
650.2296, 0.5708010
650.7117, 0.1863250
651.1938, 1.184784
651.6760, 2.452591
652.1581, 3.192078
652.6402, 3.551422
653.1223, 3.703690
653.6044, 3.668533
654.0865, 3.524277
654.5687, 3.140060
655.0508, 2.808350
655.5329, 2.649902
656.0150, 2.673492
656.4971, 3.030655
656.9792, 4.476456
657.4614, 5.666000
657.9435, 5.765106
658.4256, 4.289825
658.9077, 3.483215
659.3898, 3.628708
659.8719, 3.957764
660.3541, 3.448105
660.8362, 2.140274
661.3183, 1.711258
661.8004, 2.617508
662.2825, 3.798264
662.7646, 3.638763
663.2468, 2.708801
663.7289, 2.323410
664.2110, 3.569794
664.6931, 4.650787
665.1752, 3.916565
665.6573, 2.093704
666.1395, 0.8486180
666.6216, 0.8423160
667.1037, 1.319611
667.5858, 2.389160
668.0679, 3.890854
668.5500, 4.647415
669.0322, 4.363861
669.5143, 3.932800
669.9964, 3.674881
670.4785, 3.595398
670.9606, 3.892975
671.4427, 4.631317
671.9249, 5.131042
672.4070, 4.498734
672.8891, 3.300705
673.3712, 2.908371
673.8533, 3.535324
674.3354, 4.114273
674.8176, 3.533020
675.2997, 2.627121
675.7818, 2.291870
676.2639, 3.113571
676.7460, 4.094116
677.2281, 5.454529
677.7103, 6.567276
678.1924, 6.563873
678.6745, 4.638077
679.1566, 3.345795
679.6387, 3.125107
680.1208, 3.609100
680.6030, 3.932922
681.0851, 4.091339
681.5672, 4.403870
682.0493, 5.152390
682.5314, 5.971893
683.0135, 6.062927
683.4957, 5.580170
683.9778, 5.169083
684.4599, 5.205048
684.9420, 5.423981
685.4241, 5.800964
685.9063, 6.276154
686.3884, 6.284988
686.8705, 5.110504
687.3526, 3.892731
687.8347, 3.027969
688.3168, 2.536224
688.7990, 2.877213
689.2811, 4.586243
689.7632, 6.134659
690.2453, 5.887405
690.7274, 4.026917
691.2095, 3.446304
691.6917, 4.492035
692.1738, 5.746521
692.6559, 5.375473
693.1380, 4.223160
693.6201, 3.771088
694.1022, 4.608170
694.5844, 5.631088
695.0665, 6.618515
695.5486, 7.234955
696.0307, 7.061462
696.5128, 5.051498
696.9949, 3.464096
697.4771, 2.504410
697.9592, 2.096024
698.4413, 2.316132
698.9234, 3.387146
699.4055, 4.183594
699.8876, 4.524429
700.3698, 4.549118
700.8519, 4.343796
701.3340, 3.949203
701.8161, 3.555923
702.2982, 3.090652
702.7803, 2.786835
703.2625, 2.872437
703.7446, 3.331421
704.2267, 3.993576
704.7088, 5.184799
705.1909, 6.129578
705.6730, 6.401794
706.1552, 5.932495
706.6373, 5.453293
707.1194, 4.948929
707.6015, 4.439560
708.0836, 3.872833
708.5657, 3.299759
709.0479, 3.052963
709.5300, 3.111603
710.0121, 3.362473
710.4942, 3.911331
710.9763, 4.538742
711.4584, 4.674484
711.9406, 4.182205
712.4227, 3.720901
712.9048, 3.831268
713.3869, 4.198135
713.8690, 4.516251
714.3511, 4.833237
714.8333, 4.890610
715.3154, 4.497269
715.7975, 3.894196
716.2796, 3.297089
716.7617, 2.656158
717.2438, 2.188446
717.7260, 1.919342
718.2081, 1.846191
718.6902, 2.197189
719.1723, 2.870224
719.6544, 2.917053
720.1365, 1.654144
720.6187, 0.2237850
721.1008, 3.6513999E-02
721.5829, 0.5865020
722.0650, 1.432724
722.5471, 2.426010
723.0292, 3.345901
723.5114, 4.220718
723.9935, 4.934662
724.4756, 5.065475
724.9577, 4.259262
725.4398, 3.439606
725.9219, 2.812332
726.4041, 2.377853
726.8862, 2.252670
727.3683, 2.468658
727.8504, 2.640091
728.3325, 2.512115
728.8146, 2.207382
729.2968, 2.038086
729.7789, 1.971756
730.2610, 1.722244
730.7431, 0.5830080
731.2252, 0.4203030
731.7073, 0.3233030
732.1895, 1.061401
732.6716, 2.040482
733.1537, 2.103271
733.6358, 1.859726
734.1179, 1.587936
734.6000, 1.289780
735.0822, 0.8506010
735.5643, 0.1816560
736.0464, 0.3503110
736.5285, 0.2550960
737.0106, 0.2673340
737.4927, 0.4207310
737.9749, 9.3718998E-02
738.4570, 0.2004240
738.9391, 0.1150210
739.4212, 0.6561430
739.9033, 1.025497
740.3854, 1.228226
740.8676, 1.034027
741.3497, 2.7725000E-02
741.8318, 1.291092
742.3139, 2.083862
742.7960, 2.255554
743.2781, 2.347977
743.7603, 2.464478
744.2424, 2.401810
744.7245, 1.594666
745.2066, 0.2065730
745.6887, 0.4787450
746.1708, 6.2870001E-03
746.6530, 0.8433690
747.1351, 1.224319
747.6172, 1.282242
748.0993, 1.221588
748.5814, 0.8865200
749.0635, 0.7342380
749.5457, 1.135162
750.0278, 1.769104
750.5099, 1.919754
750.9920, 1.126007
751.4741, 0.7620090
751.9562, 1.264496
752.4384, 2.170944
752.9205, 2.257385
753.4026, 1.544174
753.8847, 0.6534420
754.3668, 0.4896550
754.8489, 1.284790
755.3311, 0.2479400
755.8132, 1.909714
756.2953, 3.102951
756.7774, 1.144501
757.2595, 0.8263400
757.7416, 1.180237
758.2238, 0.1440120
758.7059, 0.6745910
759.1880, 1.209488
759.6701, 1.483978
760.1522, 1.393784
760.6343, 1.051086
761.1165, 1.240906
761.5986, 2.002548
762.0807, 2.239487
762.5628, 0.6859740
763.0449, 1.479782
763.5270, 2.019272
764.0092, 1.198608
764.4913, 0.4764100
764.9734, 0.8790280
765.4555, 1.432007
765.9376, 1.571457
766.4197, 1.267792
766.9019, 0.8276060
767.3840, 6.6069998E-03
767.8661, 0.5426330
768.3482, 0.4070740
768.8303, 0.3715360
769.3124, 1.084229
769.7946, 1.724396
770.2767, 2.245575
770.7588, 2.549561
771.2409, 2.749680
771.7230, 2.994125
772.2051, 3.295364
772.6873, 3.754379
773.1694, 4.630310
773.6515, 5.526688
774.1336, 6.136063
774.6157, 6.349625
775.0978, 6.757217
775.5800, 7.690720
776.0621, 8.407883
776.5442, 8.172623
777.0263, 6.887970
777.5084, 7.312225
777.9905, 9.567017
778.4727, 11.92114
778.9548, 12.84918
779.4369, 13.03285
779.9190, 13.59712
780.4011, 14.65918
780.8832, 15.65419
781.3654, 16.00226
781.8475, 16.31921
782.3296, 17.09033
782.8117, 18.53291
783.2938, 19.89078
783.7759, 20.95589
784.2581, 22.23482
784.7402, 24.30684
785.2223, 27.17220
785.7044, 29.22354
786.1865, 30.26868
786.6686, 31.49149
787.1508, 34.21648
787.6329, 37.76724
788.1150, 41.17517
788.5971, 44.27481
789.0792, 47.20111
789.5613, 49.90936
790.0435, 52.78256
790.5256, 56.06927
791.0077, 59.71324
791.4898, 63.74362
791.9719, 68.01221
792.4540, 72.86646
792.9362, 78.48022
793.4183, 84.89018
793.9004, 91.86975
794.3825, 99.49667
794.8646, 107.7971
795.3467, 116.5578
795.8289, 126.2028
796.3110, 137.3382
796.7931, 150.4932
797.2752, 164.1715
797.7573, 177.5514
798.2394, 191.5835
798.7216, 206.8563
799.2037, 222.8567
799.6858, 241.8842
800.1679, 264.6772
800.6500, 288.9727
801.1321, 312.7646
801.6143, 336.3978
802.0964, 361.9926
802.5785, 389.7100
803.0606, 419.5751
803.5427, 451.2415
804.0248, 484.6678
804.5070, 520.4041
804.9891, 559.0060
805.4712, 598.3767
805.9533, 638.0467
806.4354, 678.8480
806.9175, 721.2455
807.3997, 764.8888
807.8818, 811.9937
808.3639, 862.6419
808.8460, 915.2313
809.3281, 968.6016
809.8102, 1022.286
810.2924, 1075.240
810.7745, 1127.397
811.2566, 1178.951
811.7387, 1231.459
812.2208, 1281.920
812.7029, 1327.864
813.1851, 1369.847
813.6672, 1404.044
814.1493, 1430.326
814.6314, 1449.407
815.1135, 1462.114
815.5956, 1468.649
816.0778, 1464.211
816.5599, 1448.333
817.0420, 1423.737
817.5241, 1393.024
818.0062, 1355.386
818.4883, 1308.138
818.9705, 1250.130
819.4526, 1187.661
819.9347, 1121.354
820.4168, 1053.637
820.8989, 985.3929
821.3810, 916.1483
821.8632, 850.9900
822.3453, 789.8384
822.8274, 733.2269
823.3095, 680.2656
823.7916, 632.3101
824.2737, 588.3566
824.7559, 548.1681
825.2380, 512.2332
825.7201, 482.3176
826.2022, 456.3376
826.6843, 432.7494
827.1664, 411.3360
827.6486, 392.4607
828.1307, 376.5980
828.6128, 362.8610
829.0949, 350.7289
829.5770, 340.2776
830.0591, 331.7282
830.5413, 325.1544
831.0234, 320.3317
831.5055, 317.0472
831.9876, 315.4122
832.4697, 315.9623
832.9518, 318.6093
833.4340, 322.0341
833.9161, 324.5247
834.3982, 328.3001
834.8803, 334.9681
835.3624, 344.8405
835.8445, 355.3094
836.3267, 366.0572
836.8088, 377.9108
837.2909, 390.6627
837.7730, 404.7186
838.2551, 423.1055
838.7372, 445.6388
839.2194, 469.2975
839.7015, 492.0809
840.1836, 515.1108
840.6657, 539.1717
841.1478, 564.5275
841.6299, 591.2334
842.1121, 620.7600
842.5942, 650.1703
843.0763, 678.8196
843.5584, 706.7082
844.0405, 734.4238
844.5226, 762.3839
845.0048, 787.0565
845.4869, 806.7783
845.9690, 822.3679
846.4511, 835.3607
846.9332, 845.4812
847.4153, 851.6130
847.8975, 854.2929
848.3796, 851.7400
848.8617, 842.7168
849.3438, 827.4946
849.8259, 807.9914
850.3080, 784.1811
850.7902, 756.2453
851.2723, 723.8692
851.7544, 688.2503
852.2365, 652.0076
852.7186, 615.0658
853.2007, 576.7355
853.6829, 536.0270
854.1650, 495.7616
854.6471, 457.1249
855.1292, 420.6280
855.6113, 386.9742
856.0934, 358.4409
856.5756, 330.5354
857.0577, 301.6980
857.5398, 274.0460
858.0219, 249.9846
858.5040, 229.5726
858.9861, 210.5569
859.4683, 192.4170
859.9504, 175.4471
860.4325, 160.4342
860.9146, 146.8049
861.3967, 133.9107
861.8788, 121.5372
862.3610, 110.2835
862.8431, 100.7652
863.3252, 92.39259
863.8073, 84.62410
864.2894, 77.25995
864.7715, 71.10089
865.2537, 66.44293
865.7358, 62.11261
866.2179, 56.60722
866.7000, 50.49794
867.1821, 45.32980
867.6642, 41.23502
868.1464, 37.63152
868.6285, 33.89537
869.1106, 30.61409
869.5927, 28.38101
870.0748, 27.54538
870.5569, 26.10980
871.0391, 23.92540
871.5212, 21.39584
872.0033, 18.47130
872.4854, 15.31345
872.9675, 13.45215
873.4496, 12.79086
873.9318, 12.29462
874.4139, 11.29582
874.8960, 10.10881
875.3781, 8.881149
875.8602, 7.657120
876.3423, 6.765259
876.8245, 6.693817
877.3066, 6.493759
877.7887, 5.887878
878.2708, 4.967545
878.7529, 4.012360
879.2350, 3.027832
879.7172, 2.341873
880.1993, 2.195953
880.6814, 2.337021
881.1635, 2.657578
881.6456, 2.999954
882.1277, 2.993332
882.6099, 1.963776
883.0920, 1.210663
883.5741, 1.323517
884.0562, 1.813477
884.5383, 1.774292
885.0204, 1.017654
885.5026, 1.007172
885.9847, 2.141479
886.4668, 3.691193
886.9489, 4.851776
887.4310, 5.645248
887.9131, 5.940536
888.3953, 5.267303
888.8774, 5.365356
889.3595, 7.723495
889.8416, 10.77565
890.3237, 12.98186
890.8058, 13.83998
891.2880, 15.21832
891.7701, 17.20226
892.2522, 19.41502
892.7343, 21.72333
893.2164, 23.97864
893.6985, 25.64290
894.1807, 26.67119
894.6628, 27.83372
895.1449, 29.67905
895.6270, 31.76103
896.1091, 33.86079
896.5912, 35.95081
897.0734, 37.93146
897.5555, 39.89815
898.0376, 41.51907
898.5197, 42.87436
899.0018, 43.67654
899.4839, 42.53532
899.9661, 39.70633
900.4482, 36.68942
900.9303, 34.24063
901.4124, 31.92546
901.8945, 29.81200
902.3766, 27.62297
902.8588, 24.22151
903.3409, 18.17712
903.8230, 13.64058
904.3051, 11.77809
904.7872, 11.25690
905.2693, 9.220139
905.7515, 5.969589
906.2336, 3.315689
906.7157, 1.840958
907.1978, 0.8444980
907.6799, 0.1184390
908.1620, 1.021973
908.6442, 1.855560
909.1263, 2.708328
909.6084, 3.280777
910.0905, 3.461151
910.5726, 3.497025
911.0547, 3.611618
911.5369, 3.795242
912.0190, 4.179611
912.5011, 4.780426
912.9832, 5.283859
913.4653, 5.444580
913.9474, 5.375198
914.4296, 5.114243
914.9117, 4.657990
915.3938, 4.319656
915.8759, 4.311569
916.3580, 4.165649
916.8401, 3.764359
917.3223, 3.095703
917.8044, 1.906921
918.2865, 0.2517400
918.7686, 1.287720
919.2507, 2.488022
919.7328, 3.387863
920.2150, 3.786865
920.6971, 3.931320
921.1792, 4.426941
921.6613, 5.307510
922.1434, 6.700485
922.6255, 8.651917
923.1077, 11.11615
923.5898, 14.31798
924.0719, 18.14769
924.5540, 20.94478
925.0361, 22.13042
925.5182, 23.33728
926.0004, 26.30632
926.4825, 30.17497
926.9646, 33.95245
927.4467, 37.28827
927.9288, 41.26610
928.4109, 46.26683
928.8931, 51.61009
929.3752, 56.85539
929.8573, 61.96783
930.3394, 67.40611
930.8215, 73.16330
931.3036, 79.07576
931.7858, 85.12798
932.2679, 91.29608
932.7500, 97.38416
933.2321, 103.4475
933.7142, 110.6072
934.1964, 120.0204
934.6785, 129.2593
935.1606, 137.4502
935.6427, 146.7935
936.1248, 154.1356
936.6069, 164.3356
937.0891, 173.7606
937.5712, 182.0367
938.0533, 189.0682
938.5354, 195.0716
939.0175, 199.7570
939.4996, 202.5919
939.9818, 203.2916
940.4639, 202.2645
940.9460, 199.6667
941.4281, 195.3216
941.9102, 188.7759
942.3923, 180.1928
942.8745, 170.9973
943.3566, 161.1978
943.8387, 151.1213
944.3208, 140.8425
944.8029, 130.7013
945.2850, 120.8503
945.7672, 111.3594
946.2493, 102.3550
946.7314, 93.77513
947.2135, 85.73483
947.6956, 78.23523
948.1777, 71.28461
948.6599, 65.53957
949.1420, 60.81262
949.6241, 56.16064
950.1062, 50.72639
950.5883, 45.68628
951.0704, 41.82747
951.5526, 38.94661
952.0347, 36.77853
952.5168, 35.59718
952.9989, 34.37039
953.4810, 33.03534
953.9631, 31.60942
954.4453, 30.13866
954.9274, 28.59631
955.4095, 26.75157
955.8916, 24.54831
956.3737, 22.67574
956.8558, 21.79855
957.3380, 21.27205
957.8201, 20.58604
958.3022, 19.68423
958.7843, 19.13142
959.2664, 19.08620
959.7485, 18.87639
960.2307, 18.07961
960.7128, 16.94740
961.1949, 15.87053
961.6770, 14.95306
962.1591, 14.57915
962.6412, 15.89584
963.1234, 16.68352
963.6055, 15.54633
964.0876, 13.49953
964.5697, 12.22791
965.0518, 11.89339
965.5339, 11.75122
966.0161, 11.84381
966.4982, 11.51193
966.9803, 9.198700
967.4624, 6.211960
967.9445, 4.983292
968.4266, 6.076538
968.9088, 7.143417
969.3909, 7.440842
969.8730, 7.315735
970.3551, 6.856827
970.8372, 6.097870
971.3193, 5.670502
971.8015, 5.609772
972.2836, 5.196518
972.7657, 3.630371
973.2478, 1.861420
973.7299, 0.9912570
974.2120, 0.8074950
974.6942, 0.7657470
975.1763, 0.6261750
975.6584, 0.8453520
976.1405, 1.787857
976.6226, 2.815475
977.1047, 2.893616
977.5869, 2.090530
978.0690, 1.160416
978.5511, 0.1622010
979.0332, 0.4683840
979.5153, 3.8070999E-02
979.9974, 0.6920320
980.4796, 0.9981230
980.9617, 0.7284090
981.4438, 0.6769410
981.9259, 1.093307
982.4080, 1.278351
982.8901, 0.5791470
983.3723, 0.5436100
983.8544, 0.2657780
984.3365, 1.053589
984.8186, 1.907166
985.3007, 0.9684910
985.7828, 3.8497999E-02
986.2650, 0.1506200
986.7471, 0.3824010
987.2292, 0.5708010
987.7113, 0.1972660
988.1934, 0.3592990
988.6755, 0.5333100
989.1577, 1.658295
989.6398, 2.173950
990.1219, 2.263702
990.6040, 2.156189
991.0861, 1.876236
991.5682, 1.684784
992.0504, 1.745819
992.5325, 1.875732
993.0146, 2.118637
993.4967, 2.374771
993.9788, 1.846542
994.4609, 0.5375210
994.9431, 0.2992710
995.4252, 7.3227003E-02
995.9073, 0.7530210
996.3894, 2.276901
996.8715, 3.879944
997.3536, 4.572113
997.8358, 3.204285
998.3179, 2.188858
998.8000, 1.626434
999.2821, 1.370407
999.7642, 1.242920
1000.246, 1.272675
1000.728, 1.772980
1001.211, 2.733124
1001.693, 3.448502
1002.175, 3.200165
1002.657, 2.783340
1003.139, 2.721725
1003.621, 2.981842
1004.103, 3.147888
1004.585, 3.206009
1005.068, 3.268555
1005.550, 3.442535
1006.032, 3.480682
1006.514, 2.643143
1006.996, 1.440201
1007.478, 0.9413910
1007.960, 1.815109
1008.442, 2.662369
1008.924, 2.712082
1009.407, 2.740646
1009.889, 3.352707
1010.371, 4.595230
1010.853, 4.835175
1011.335, 4.047913
1011.817, 3.408493
1012.299, 4.105621
1012.781, 5.007904
1013.263, 5.031738
1013.746, 4.370850
1014.228, 3.771286
1014.710, 3.270828
1015.192, 3.003601
1015.674, 3.091263
1016.156, 3.290909
1016.638, 3.048782
1017.120, 2.566895
1017.603, 2.669479
1018.085, 3.605682
1018.567, 4.249146
1019.049, 3.466141
1019.531, 2.555679
1020.013, 2.488617
1020.495, 3.227936
1020.977, 3.624313
1021.459, 3.683273
1021.942, 3.764709
1022.424, 4.194275
1022.906, 4.584839
1023.388, 4.258224
1023.870, 3.514099
1024.352, 2.851761
1024.834, 2.366196
1025.316, 2.257202
1025.799, 2.692062
1026.281, 3.278107
1026.763, 3.622467
1027.245, 3.729294
1027.727, 3.570816
1028.209, 3.159256
1028.691, 2.822678
1029.173, 2.808060
1029.656, 2.921860
1030.138, 3.091629
1030.620, 3.282303
1031.102, 3.376953
1031.584, 3.417175
1032.066, 3.180176
1032.548, 2.542938
1033.030, 1.757202
1033.512, 0.8338470
1033.995, 0.1707310
1034.477, 0.7072140
1034.959, 3.242157
1035.441, 4.675247
1035.923, 3.247635
1036.405, 1.636642
1036.887, 1.398071
1037.369, 2.372574
1037.851, 2.758148
1038.334, 2.550659
1038.816, 1.977676
1039.298, 0.5374300
1039.780, 0.5548550
1040.262, 0.3392330
1040.744, 0.7315220
1041.226, 1.829483
1041.708, 3.425766
1042.191, 3.668991
1042.673, 2.004089
1043.155, 0.3649440
1043.637, 1.475143
1044.119, 3.723969
1044.601, 4.001129
1045.083, 2.187469
1045.565, 0.6541750
1046.047, 0.1475220
1046.530, 0.1893010
1047.012, 0.7441410
1047.494, 1.582932
1047.976, 2.163956
1048.458, 2.495682
1048.940, 2.606491
1049.422, 2.500946
1049.904, 2.207596
1050.386, 1.454269
1050.869, 0.7015990
1051.351, 0.3857570
1051.833, 0.4809270
1052.315, 1.382294
1052.797, 3.409515
1053.279, 4.716263
1053.761, 3.535294
1054.243, 1.404129
1054.726, 1.192764
1055.208, 2.216003
1055.690, 2.676178
1056.172, 0.9574280
1056.654, 2.6458999E-02
1057.136, 0.6503300
1057.618, 1.703873
1058.100, 1.717285
1058.583, 0.9206850
1059.065, 0.9703980
1059.547, 1.962326
1060.029, 2.665909
1060.511, 1.926193
1060.993, 0.9064790
1061.475, 0.1725160
1061.957, 0.2321930
1062.439, 0.1869960
1062.922, 0.3663790
1063.404, 1.135086
1063.886, 2.253281
1064.368, 2.912704
1064.850, 1.287292
1065.332, 1.036133
1065.814, 1.657898
1066.296, 0.4424900
1066.778, 1.544586
1067.261, 0.8723600
1067.743, 3.2150000E-02
1068.225, 0.4872590
1068.707, 0.5402830
1069.189, 0.1767270
1069.671, 0.4862060
1070.153, 1.025635
1070.635, 1.263229
1071.118, 1.325150
1071.600, 1.251923
1072.082, 1.021255
1072.564, 0.5106200
1073.046, 0.3342130
1073.528, 0.7404630
1074.010, 0.6783750
1074.492, 0.3135680
1074.974, 0.5202940
1075.457, 1.353897
1075.939, 1.725052
1076.421, 1.715515
1076.903, 1.791824
1077.385, 2.242630
1077.867, 1.958420
1078.349, 0.4996190
1078.831, 1.030884
1079.313, 0.8507230
1079.796, 0.1765900
1080.278, 0.3410030
1080.760, 0.6538850
1081.242, 1.139313
1081.724, 3.4317002E-02
1082.206, 1.083572
1082.688, 1.651245
1083.170, 1.832535
1083.652, 2.185028
1084.135, 2.639313
1084.617, 2.782730
1085.099, 2.339523
1085.581, 1.937439
1086.063, 2.037949
1086.545, 2.310852
1087.027, 2.460129
1087.509, 2.475555
1087.992, 2.501999
1088.474, 2.554108
1088.956, 2.423019
1089.438, 1.725372
1089.920, 1.002792
1090.402, 0.9631810
1090.884, 1.293533
1091.366, 1.310257
1091.849, 0.5217740
1092.331, 0.2521970
1092.813, 0.7456820
1093.295, 1.257645
1093.777, 0.6627960
1094.259, 0.3037720
1094.741, 0.2484280
1095.223, 2.138000
1095.705, 3.362289
1096.188, 2.345779
1096.670, 1.511307
1097.152, 1.511841
1097.634, 1.948135
1098.116, 2.332809
1098.598, 2.656830
1099.080, 2.645782
1099.562, 2.221191
1100.044, 1.891800
1100.527, 2.304672
1101.009, 2.630051
1101.491, 2.140060
1101.973, 1.040466
1102.455, 0.6646120
1102.937, 1.025604
1103.419, 1.620346
1103.901, 2.405258
1104.384, 3.042999
1104.866, 3.147827
1105.348, 2.909027
1105.830, 2.503998
1106.312, 1.887924
1106.794, 1.383026
1107.276, 0.9634400
1107.758, 0.7378690
1108.240, 0.7510220
1108.723, 1.003693
1109.205, 1.865112
1109.687, 2.936371
1110.169, 3.306656
1110.651, 1.684830
1111.133, 0.8713070
1111.615, 1.388321
1112.097, 2.203384
1112.579, 2.342957
1113.062, 1.999832
1113.544, 1.802872
1114.026, 1.776825
1114.508, 1.949585
1114.990, 2.837357
1115.472, 3.320221
1115.954, 2.554718
1116.436, 1.481171
1116.919, 1.656372
1117.401, 2.989655
1117.883, 4.081635
1118.365, 4.784515
1118.847, 4.982086
1119.329, 4.028214
1119.811, 3.034058
1120.293, 2.965500
1120.776, 3.567749
1121.258, 3.716232
1121.740, 3.373138
1122.222, 2.845230
1122.704, 2.141876
1123.186, 1.454742
1123.668, 0.8414610
1124.150, 0.6631620
1124.632, 1.371155
1125.115, 3.201767
1125.597, 3.639160
1126.079, 2.173523
1126.561, 0.8913120
1127.043, 0.6041260
1127.525, 0.9745480
1128.007, 1.818405
1128.489, 2.799484
1128.971, 3.315689
1129.454, 3.078812
1129.936, 2.736954
1130.418, 2.263153
1130.900, 1.870728
1131.382, 1.692673
1131.864, 1.703857
1132.346, 1.745010
1132.828, 1.853104
1133.311, 2.161194
1133.793, 3.231918
1134.275, 3.755859
1134.757, 3.058243
1135.239, 2.181793
1135.721, 2.080368
1136.203, 2.646118
1136.685, 3.033813
1137.167, 3.280014
1137.650, 3.333603
1138.132, 3.002289
1138.614, 2.555237
1139.096, 1.779053
1139.578, 1.222855
1140.060, 1.770447
1140.542, 3.448151
1141.024, 3.771042
1141.506, 2.516388
1141.989, 1.445786
1142.471, 2.255219
1142.953, 3.373428
1143.435, 3.574966
1143.917, 3.164963
1144.399, 3.465988
1144.881, 4.689804
1145.363, 4.862152
1145.846, 3.486343
1146.328, 2.127594
1146.810, 2.744278
1147.292, 3.884125
1147.774, 3.992599
1148.256, 2.994659
1148.738, 2.769562
1149.220, 3.615967
1149.703, 4.139908
1150.185, 3.898865
1150.667, 3.356552
1151.149, 2.898804
1151.631, 2.684769
1152.113, 2.869308
1152.595, 3.500732
1153.077, 4.137192
1153.559, 4.873886
1154.042, 5.284225
1154.524, 5.035110
1155.006, 4.596497
1155.488, 5.109344
1155.970, 6.012436
1156.452, 6.080383
1156.934, 4.502197
1157.416, 3.740463
1157.898, 4.521851
1158.381, 5.255951
1158.863, 4.977493
1159.345, 4.069595
1159.827, 3.351761
1160.309, 2.939453
1160.791, 3.226654
1161.273, 5.226791
1161.755, 6.344513
1162.238, 5.748108
1162.720, 4.673828
1163.202, 3.770279
1163.684, 3.065414
1164.166, 3.167160
1164.648, 3.919403
1165.130, 4.568375
1165.612, 4.931519
1166.094, 4.877319
1166.577, 3.996765
1167.059, 3.014420
1167.541, 2.635483
1168.023, 2.827896
1168.505, 3.685989
1168.987, 5.061096
1169.469, 5.741898
1169.951, 4.089096
1170.433, 2.650818
1170.916, 2.838287
1171.398, 3.725632
1171.880, 4.235886
1172.362, 4.380478
1172.844, 4.196182
1173.326, 3.699112
1173.808, 3.281296
1174.290, 3.391891
1174.773, 3.489899
1175.255, 2.982727
1175.737, 2.353088
1176.219, 2.836029
1176.701, 4.442413
1177.183, 4.655487
1177.665, 3.075821
1178.147, 1.546692
1178.630, 1.521255
1179.112, 2.110458
1179.594, 2.940262
1180.076, 3.754349
1180.558, 3.688339
1181.040, 2.669739
1181.522, 2.287735
1182.004, 2.894363
1182.486, 3.538406
1182.969, 3.393112
1183.451, 2.947495
1183.933, 2.478165
1184.415, 2.048782
1184.897, 2.036926
1185.379, 2.515137
1185.861, 2.432281
1186.343, 1.298981
1186.825, 0.4612880
1187.308, 1.799377
1187.790, 3.677063
1188.272, 4.498764
1188.754, 4.215698
1189.236, 3.845200
1189.718, 3.309982
1190.200, 2.866302
1190.682, 2.643570
1191.165, 2.380753
1191.647, 1.457306
1192.129, 0.5630950
1192.611, 0.5135350
1193.093, 1.420425
1193.575, 2.694229
1194.057, 4.554062
1194.539, 4.996582
1195.021, 2.575531
1195.504, 0.1997380
1195.986, 0.3358460
1196.468, 0.7649690
1196.950, 1.288116
1197.432, 0.9031980
1197.914, 1.004105
1198.396, 1.665619
1198.878, 2.318466
1199.360, 2.774612
1199.843, 2.955597
1200.325, 2.703033
1200.807, 2.143311
1201.289, 1.330399
1201.771, 4.8659999E-02
1202.253, 0.2234650
1202.735, 0.6859130
1203.217, 1.501129
1203.700, 1.326309
1204.182, 0.9086610
1204.664, 1.174637
1205.146, 1.762558
1205.628, 2.065689
1206.110, 1.885681
1206.592, 1.989471
1207.074, 2.479813
1207.557, 2.576523
1208.039, 1.353638
1208.521, 0.1122890
1209.003, 0.9303440
1209.485, 1.050598
1209.967, 0.2008210
1210.449, 2.351074
1210.931, 3.541763
1211.413, 3.220291
1211.896, 2.530014
1212.378, 2.096100
1212.860, 1.858597
1213.342, 1.991852
1213.824, 2.222824
1214.306, 1.910126
1214.788, 0.6968540
1215.270, 0.1139830
1215.752, 0.2419430
1216.235, 0.6221620
1216.717, 1.242218
1217.199, 1.664551
1217.681, 1.197083
1218.163, 0.2529300
1218.645, 0.1773830
1219.127, 0.1728970
1219.609, 0.1635590
1220.092, 0.3303990
1220.574, 0.6521450
1221.056, 0.1115570
1221.538, 0.6527400
1222.020, 1.237946
1222.502, 1.529846
1222.984, 1.245361
1223.466, 0.1041720
1223.948, 5.4625999E-02
1224.431, 0.9617770
1224.913, 1.853607
1225.395, 1.140823
1225.877, 0.2659610
1226.359, 0.6394040
1226.841, 1.725754
1227.323, 2.084290
1227.805, 1.618912
1228.287, 1.378128
1228.770, 1.493790
1229.252, 1.635590
1229.734, 1.387665
1230.216, 1.206329
1230.698, 1.569580
1231.180, 2.214737
1231.662, 2.576447
1232.144, 2.661804
1232.627, 2.190353
1233.109, 1.112915
1233.591, 0.4277500
1234.073, 1.436142
1234.555, 2.519089
1235.037, 2.634811
1235.519, 2.065369
1236.001, 1.054764
1236.484, 0.3888090
1236.966, 8.3495997E-02
1237.448, 2.152359
1237.930, 3.723938
1238.412, 1.855728
1238.894, 0.1003270
1239.376, 3.0670001E-03
1239.858, 1.118927
1240.340, 1.638901
1240.823, 1.607529
1241.305, 1.679901
1241.787, 1.906876
1242.269, 1.959747
1242.751, 1.388779
1243.233, 0.8913270
1243.715, 0.8598940
1244.197, 0.9981540
1244.679, 0.8420560
1245.162, 0.4420010
1245.644, 5.7464998E-02
1246.126, 0.5999760
1246.608, 0.7281040
1247.090, 0.2892300
1247.572, 1.141037
1248.054, 1.340714
1248.536, 1.270798
1249.019, 1.514923
1249.501, 1.953720
1249.983, 2.351181
1250.465, 2.672409
1250.947, 2.589874
1251.429, 1.502716
1251.911, 0.6120000
1252.393, 0.1170200
1252.875, 1.7670000E-02
1253.358, 0.3442230
1253.840, 1.017853
1254.322, 1.738632
1254.804, 2.443573
1255.286, 2.805695
1255.768, 2.593262
1256.250, 2.147705
1256.732, 1.489609
1257.214, 1.082153
1257.697, 1.433929
1258.179, 2.123642
1258.661, 2.493408
1259.143, 2.537750
1259.625, 2.492905
1260.107, 2.277924
1260.589, 2.379272
1261.071, 2.909241
1261.554, 3.493134
1262.036, 3.726227
1262.518, 3.710281
1263.000, 3.004868
1263.482, 1.818253
1263.964, 1.295563
1264.446, 1.631210
1264.928, 2.189590
1265.411, 2.977142
1265.893, 3.389328
1266.375, 2.353622
1266.857, 1.189667
1267.339, 1.049942
1267.821, 1.747559
1268.303, 2.624054
1268.785, 3.751678
1269.267, 3.988724
1269.750, 3.183212
1270.232, 2.134323
1270.714, 1.470596
1271.196, 1.114029
1271.678, 1.415375
1272.160, 2.009460
1272.642, 2.233978
1273.124, 2.126740
1273.606, 2.365707
1274.089, 2.969284
1274.571, 3.163940
1275.053, 2.083160
1275.535, 1.098007
1276.017, 0.1222840
1276.499, 0.5589450
1276.981, 0.4019620
1277.463, 0.3824010
1277.946, 1.021576
1278.428, 1.470551
1278.910, 1.855957
1279.392, 2.188477
1279.874, 2.274597
1280.356, 2.053665
1280.838, 1.658005
1281.320, 1.057617
1281.802, 0.4594120
1282.285, 0.2641910
1282.767, 0.4674990
1283.249, 1.009872
1283.731, 2.649490
1284.213, 2.866318
1284.695, 1.066437
1285.177, 0.6389310
1285.659, 9.0424001E-02
1286.141, 1.730530
1286.624, 2.542694
1287.106, 2.629120
1287.588, 2.364319
1288.070, 1.623856
1288.552, 1.298035
1289.034, 1.451843
1289.516, 1.819687
1289.998, 2.220306
1290.481, 2.517380
1290.963, 2.422379
1291.445, 1.968521
1291.927, 1.494995
1292.409, 0.9856720
1292.891, 0.6467290
1293.373, 0.5247800
1293.855, 0.7235260
1294.338, 1.551010
1294.820, 2.284561
1295.302, 1.573456
1295.784, 0.6314540
1296.266, 0.6145630
1296.748, 1.374191
1297.230, 1.919327
1297.712, 2.248489
1298.194, 2.448868
1298.677, 2.657471
1299.159, 2.449234
1299.641, 1.486588
1300.123, 0.6040950
1300.605, 0.5472410
1301.087, 0.9645840
1301.569, 1.079010
1302.051, 0.9224090
1302.533, 0.5904080
1303.016, 0.0000000E+00
##END=



