##NAMES=Monticellite
##RRUFFID=R100107
##IDEAL CHEMISTRY=CaMgSiO_4_
##LOCALITY=Crestmore, Riverside County, California, USA
##OWNER=RRUFF
##SOURCE=American Museum of Natural History
##DESCRIPTION=White to dirty-white massive
##STATUS=The identification of this mineral is confirmed by single-crystal X-ray diffraction and chemical analysis.
##URL=rruff.info/R100107
##MEASURED CHEMISTRY=(Ca_1.021_Mg_0.896_Fe^+2^_0.086_Mn^+2^_0.003_)_Î£=2.006_Si_0.996_O_4_
128.0973, 0.0000000E+00
128.5794, 0.8249490
129.0615, 2.964928
129.5436, 4.133312
130.0258, 3.345819
130.5079, 1.568981
130.9900, 1.198431
131.4721, 3.351202
131.9542, 3.902088
132.4363, 3.735033
132.9185, 4.541948
133.4006, 3.350372
133.8827, 1.793232
134.3648, 0.1978720
134.8469, 7.2839998E-02
135.3290, 1.713493
135.8112, 3.525667
136.2933, 3.246088
136.7754, 0.6986030
137.2575, 1.112114
137.7396, 1.034885
138.2217, 0.8627470
138.7039, 2.906178
139.1860, 5.137180
139.6681, 7.451469
140.1502, 9.693371
140.6323, 11.72599
141.1144, 14.04720
141.5966, 17.18336
142.0787, 21.64223
142.5608, 24.47321
143.0429, 25.36048
143.5250, 24.80165
144.0071, 23.71700
144.4893, 21.55196
144.9714, 19.77980
145.4535, 19.13901
145.9356, 20.23056
146.4177, 21.21108
146.8998, 21.89993
147.3820, 22.43829
147.8641, 23.48507
148.3462, 25.12216
148.8283, 27.16659
149.3104, 29.56752
149.7925, 32.58954
150.2747, 35.59647
150.7568, 38.09224
151.2389, 40.20332
151.7210, 43.59079
152.2031, 48.69497
152.6852, 54.76107
153.1674, 61.37751
153.6495, 69.64931
154.1316, 77.23579
154.6137, 83.92591
155.0958, 89.71452
155.5779, 94.43369
156.0601, 96.46772
156.5422, 98.14904
157.0243, 101.4432
157.5064, 107.7950
157.9885, 114.7722
158.4706, 122.1555
158.9528, 130.0942
159.4349, 136.8244
159.9170, 140.2089
160.3991, 142.7247
160.8812, 147.0859
161.3633, 155.3452
161.8455, 164.9094
162.3276, 174.5653
162.8097, 183.7423
163.2918, 193.9207
163.7739, 208.6925
164.2560, 224.4037
164.7382, 233.8154
165.2203, 235.3162
165.7024, 232.7632
166.1845, 227.5731
166.6666, 219.1849
167.1487, 210.8264
167.6309, 202.2915
168.1130, 194.9173
168.5951, 191.7117
169.0772, 195.5104
169.5593, 203.0858
170.0414, 211.8617
170.5236, 221.5535
171.0057, 231.9842
171.4878, 246.4356
171.9699, 262.4977
172.4520, 272.4650
172.9341, 274.0000
173.4163, 266.7019
173.8984, 248.8939
174.3805, 216.2557
174.8626, 179.6649
175.3447, 146.3129
175.8268, 116.4357
176.3090, 91.14959
176.7911, 72.94173
177.2732, 59.52628
177.7553, 48.28119
178.2374, 38.87586
178.7195, 31.27321
179.2017, 25.68764
179.6838, 21.97157
180.1659, 19.31082
180.6480, 17.39619
181.1301, 16.03684
181.6122, 14.77152
182.0944, 13.55363
182.5765, 12.29879
183.0586, 10.61291
183.5407, 8.524521
184.0228, 6.784698
184.5049, 6.438126
184.9871, 7.110855
185.4692, 7.445152
185.9513, 6.752586
186.4334, 5.509750
186.9155, 4.498322
187.3976, 3.708153
187.8798, 3.274849
188.3619, 3.690376
188.8440, 4.775238
189.3261, 5.327011
189.8082, 4.810753
190.2903, 3.466423
190.7725, 1.982422
191.2546, 0.2743760
191.7367, 1.160286
192.2188, 1.570641
192.7009, 0.9731600
193.1830, 0.4536440
193.6652, 0.5454410
194.1473, 1.142700
194.6294, 1.614868
195.1115, 2.022774
195.5936, 2.340767
196.0757, 2.702545
196.5579, 3.194504
197.0400, 3.295830
197.5221, 2.568909
198.0042, 1.099632
198.4863, 0.1554870
198.9684, 0.1973800
199.4506, 0.1585850
199.9327, 0.1015320
200.4148, 0.6231230
200.8969, 0.9998630
201.3790, 1.038216
201.8611, 0.7303470
202.3433, 0.3200450
202.8254, 0.2849580
203.3075, 0.8462140
203.7896, 0.7709960
204.2717, 0.1320110
204.7538, 0.7052540
205.2360, 0.3310930
205.7181, 1.111771
206.2002, 2.360710
206.6823, 3.379005
207.1644, 4.247238
207.6465, 5.143944
208.1287, 6.107071
208.6108, 6.928825
209.0929, 7.411606
209.5750, 7.424782
210.0571, 7.837471
210.5392, 8.698479
211.0214, 9.924324
211.5035, 11.29568
211.9856, 12.67725
212.4677, 14.52711
212.9498, 17.08987
213.4319, 20.42033
213.9140, 24.20963
214.3962, 28.78810
214.8783, 33.62694
215.3604, 37.44725
215.8425, 40.19441
216.3246, 42.13397
216.8067, 43.61477
217.2889, 45.08468
217.7710, 44.42787
218.2531, 41.16326
218.7352, 35.99030
219.2173, 30.29312
219.6994, 23.53796
220.1816, 17.23549
220.6637, 11.94334
221.1458, 7.735313
221.6279, 4.299919
222.1100, 1.609032
222.5921, 0.3218690
223.0743, 1.331345
223.5564, 0.7656780
224.0385, 0.4136660
224.5206, 1.409225
225.0027, 5.004959
225.4848, 6.501106
225.9670, 5.058403
226.4491, 1.727539
226.9312, 0.7700960
227.4133, 1.967941
227.8954, 3.061813
228.3775, 4.562668
228.8597, 6.635727
229.3418, 8.791061
229.8239, 11.10329
230.3060, 13.47639
230.7881, 15.50529
231.2702, 16.85006
231.7524, 18.40533
232.2345, 20.57495
232.7166, 23.65017
233.1987, 26.73662
233.6808, 29.78024
234.1629, 32.82849
234.6451, 36.02452
235.1272, 39.11993
235.6093, 42.70470
236.0914, 46.95214
236.5735, 51.54459
237.0556, 57.55067
237.5378, 65.18258
238.0199, 74.16581
238.5020, 83.73397
238.9841, 93.71512
239.4662, 104.7112
239.9483, 117.2753
240.4305, 132.3824
240.9126, 146.4531
241.3947, 159.2215
241.8768, 171.0405
242.3589, 182.7270
242.8410, 194.1226
243.3232, 205.5922
243.8053, 217.2820
244.2874, 229.6386
244.7695, 241.1147
245.2516, 251.2529
245.7337, 260.7563
246.2159, 271.1740
246.6980, 282.6952
247.1801, 294.8613
247.6622, 307.3893
248.1443, 319.6679
248.6264, 334.2828
249.1086, 352.1352
249.5907, 371.9399
250.0728, 391.0810
250.5549, 408.9251
251.0370, 427.2219
251.5191, 446.1922
252.0013, 464.5278
252.4834, 487.3853
252.9655, 515.3506
253.4476, 547.2335
253.9297, 580.7778
254.4118, 615.2251
254.8940, 652.0158
255.3761, 691.7890
255.8582, 735.1567
256.3403, 780.9023
256.8224, 833.4194
257.3046, 884.9900
257.7867, 923.8109
258.2688, 954.9874
258.7509, 963.5126
259.2330, 943.1021
259.7151, 891.3214
260.1973, 822.8855
260.6794, 732.0206
261.1615, 631.5751
261.6436, 541.2520
262.1257, 459.8599
262.6078, 389.6285
263.0900, 332.5394
263.5721, 288.6426
264.0542, 252.8894
264.5363, 225.9758
265.0184, 205.9375
265.5005, 190.0066
265.9827, 179.1443
266.4648, 169.9922
266.9469, 161.8513
267.4290, 154.7480
267.9111, 148.5934
268.3932, 143.6024
268.8754, 139.2974
269.3575, 135.2510
269.8396, 131.5138
270.3217, 127.6343
270.8038, 123.0889
271.2859, 117.9770
271.7681, 115.2113
272.2502, 115.2920
272.7323, 116.6769
273.2144, 117.6387
273.6965, 117.8771
274.1786, 119.5016
274.6608, 123.8814
275.1429, 130.2543
275.6250, 133.0615
276.1071, 131.8131
276.5892, 128.4301
277.0714, 124.8053
277.5535, 121.1006
278.0356, 115.5417
278.5177, 107.5699
278.9998, 97.55904
279.4819, 86.60341
279.9641, 74.23009
280.4462, 62.44141
280.9283, 52.79904
281.4104, 45.45326
281.8925, 39.01043
282.3746, 33.32218
282.8568, 28.23456
283.3389, 23.40468
283.8210, 18.82564
284.3031, 15.44639
284.7852, 14.34831
285.2673, 15.36535
285.7495, 15.77409
286.2316, 14.98411
286.7137, 13.79555
287.1958, 13.68798
287.6779, 14.65911
288.1600, 16.73331
288.6422, 20.21313
289.1243, 24.98450
289.6064, 30.05679
290.0885, 35.53838
290.5706, 41.01340
291.0527, 45.60254
291.5349, 49.37302
292.0170, 53.30783
292.4991, 58.06751
292.9812, 63.46938
293.4633, 68.79580
293.9454, 74.15210
294.4276, 79.12997
294.9097, 82.32007
295.3918, 84.18474
295.8739, 87.35619
296.3560, 93.65836
296.8381, 102.1200
297.3203, 110.3369
297.8024, 118.2281
298.2845, 126.3248
298.7666, 135.1391
299.2487, 144.5713
299.7308, 154.4673
300.2130, 165.0301
300.6951, 175.8851
301.1772, 186.3242
301.6593, 196.3044
302.1414, 206.6620
302.6235, 217.9320
303.1057, 230.1007
303.5878, 242.9271
304.0699, 256.9465
304.5520, 271.2121
305.0341, 285.4826
305.5162, 299.4465
305.9984, 311.1906
306.4805, 321.3213
306.9626, 327.9279
307.4447, 328.1622
307.9268, 321.0964
308.4089, 307.5554
308.8911, 286.5605
309.3732, 259.1591
309.8553, 229.4444
310.3374, 196.4986
310.8195, 163.8900
311.3016, 135.6146
311.7838, 113.0178
312.2659, 93.82641
312.7480, 77.12042
313.2301, 63.01131
313.7122, 51.37934
314.1943, 42.59473
314.6765, 35.89091
315.1586, 30.91177
315.6407, 27.90112
316.1228, 25.59518
316.6049, 23.34699
317.0870, 21.44022
317.5692, 20.37104
318.0513, 20.99986
318.5334, 21.92603
319.0155, 22.35404
319.4976, 22.09287
319.9797, 22.25744
320.4619, 23.68777
320.9440, 25.57200
321.4261, 26.98708
321.9082, 27.05258
322.3903, 27.26271
322.8724, 27.96021
323.3546, 29.16148
323.8367, 30.97791
324.3188, 34.00018
324.8009, 37.34959
325.2830, 40.32328
325.7651, 41.50322
326.2473, 43.81068
326.7294, 48.38956
327.2115, 54.87398
327.6936, 60.36139
328.1757, 63.55812
328.6578, 66.49550
329.1400, 70.18906
329.6221, 75.12915
330.1042, 80.12794
330.5863, 85.77035
331.0684, 91.49964
331.5505, 95.60834
332.0327, 97.84304
332.5148, 98.79630
332.9969, 98.64985
333.4790, 97.36192
333.9611, 95.15626
334.4432, 92.21339
334.9254, 88.22382
335.4075, 82.63880
335.8896, 74.95950
336.3717, 66.56159
336.8538, 57.63535
337.3359, 47.94167
337.8180, 39.37675
338.3001, 31.81286
338.7823, 25.58102
339.2644, 21.56042
339.7465, 20.28075
340.2286, 18.75365
340.7107, 16.18196
341.1928, 12.72657
341.6750, 9.668358
342.1571, 6.858330
342.6392, 4.802010
343.1213, 4.324097
343.6034, 5.463615
344.0855, 5.803932
344.5677, 4.734055
345.0498, 2.859207
345.5319, 1.673851
346.0140, 1.195168
346.4961, 0.9135820
346.9782, 0.5794750
347.4604, 0.1813740
347.9425, 0.3634950
348.4246, 1.130547
348.9067, 1.863335
349.3888, 1.922623
349.8709, 1.485779
350.3531, 1.543289
350.8352, 3.285309
351.3173, 5.702393
351.7994, 6.801582
352.2815, 6.456047
352.7636, 5.441315
353.2458, 4.257126
353.7279, 2.960617
354.2100, 1.662872
354.6921, 5.9905998E-02
355.1742, 1.444077
355.6563, 1.376549
356.1385, 1.6541000E-02
356.6206, 1.402725
357.1027, 1.913940
357.5848, 1.889404
358.0669, 1.726028
358.5490, 1.484795
359.0312, 1.194756
359.5133, 0.6404190
359.9954, 4.8219999E-03
360.4775, 0.1549380
360.9596, 1.103905
361.4417, 2.488876
361.9239, 3.175026
362.4060, 3.021095
362.8881, 2.203117
363.3702, 6.9481000E-02
363.8523, 2.805069
364.3344, 4.483139
364.8166, 3.031471
365.2987, 1.918022
365.7808, 2.955116
366.2629, 6.611923
366.7450, 9.060555
367.2271, 8.715523
367.7093, 7.393990
368.1914, 6.693245
368.6735, 7.469414
369.1556, 8.078987
369.6377, 8.059280
370.1198, 7.534851
370.6020, 7.634644
371.0841, 8.573135
371.5662, 9.940918
372.0483, 11.53143
372.5304, 13.47539
373.0125, 15.42838
373.4947, 17.42587
373.9768, 19.39500
374.4589, 21.17002
374.9410, 22.67214
375.4231, 24.15217
375.9052, 25.76850
376.3874, 27.58308
376.8695, 28.88394
377.3516, 29.21793
377.8337, 29.82163
378.3158, 32.64832
378.7979, 38.06760
379.2801, 42.98438
379.7622, 46.36858
380.2443, 48.62357
380.7264, 51.66353
381.2085, 55.50856
381.6906, 59.92087
382.1728, 64.34022
382.6549, 69.00852
383.1370, 75.47025
383.6191, 84.62065
384.1012, 94.64471
384.5833, 102.5624
385.0655, 108.5995
385.5476, 114.4226
386.0297, 120.3063
386.5118, 126.8770
386.9939, 135.7478
387.4760, 147.2164
387.9582, 159.4710
388.4403, 171.1530
388.9224, 182.4843
389.4045, 193.8325
389.8866, 204.5638
390.3687, 216.0538
390.8509, 229.5816
391.3330, 244.9753
391.8151, 261.0572
392.2972, 276.6991
392.7793, 292.7309
393.2614, 310.0262
393.7436, 328.7206
394.2257, 348.4936
394.7078, 369.1168
395.1899, 390.5764
395.6720, 412.8395
396.1541, 436.1931
396.6363, 460.1163
397.1184, 484.5652
397.6005, 509.9305
398.0826, 534.5807
398.5647, 558.3719
399.0468, 581.2936
399.5290, 603.3334
400.0111, 624.8928
400.4932, 645.1459
400.9753, 664.1095
401.4574, 681.8555
401.9395, 697.5062
402.4217, 711.1475
402.9038, 722.7517
403.3859, 732.2200
403.8680, 739.2769
404.3501, 744.7682
404.8322, 748.4348
405.3144, 750.8175
405.7965, 753.2371
406.2786, 756.3251
406.7607, 756.9832
407.2428, 753.6891
407.7249, 746.3820
408.2071, 737.8830
408.6892, 728.6295
409.1713, 716.7452
409.6534, 699.0109
410.1355, 675.7711
410.6176, 651.8091
411.0998, 628.5312
411.5819, 605.2179
412.0640, 580.3708
412.5461, 554.2000
413.0282, 525.8375
413.5103, 493.3281
413.9925, 458.6071
414.4746, 425.2986
414.9567, 394.0152
415.4388, 364.4494
415.9209, 335.6528
416.4030, 307.9817
416.8852, 281.5560
417.3673, 255.6562
417.8494, 231.9724
418.3315, 212.1608
418.8136, 196.5417
419.2957, 182.0116
419.7779, 166.9757
420.2600, 152.2549
420.7421, 138.9271
421.2242, 127.2054
421.7063, 117.1629
422.1884, 109.1439
422.6706, 102.7338
423.1527, 96.27330
423.6348, 88.96191
424.1169, 82.08439
424.5990, 76.00492
425.0811, 70.59412
425.5633, 66.50385
426.0454, 64.81944
426.5275, 64.00825
427.0096, 62.06139
427.4917, 58.18561
427.9738, 54.38274
428.4560, 51.01982
428.9381, 48.10764
429.4202, 45.48801
429.9023, 43.04244
430.3844, 41.01324
430.8665, 39.82139
431.3487, 39.79530
431.8308, 38.88832
432.3129, 36.70767
432.7950, 33.91911
433.2771, 32.05619
433.7592, 31.15424
434.2414, 30.01089
434.7235, 27.68882
435.2056, 24.68432
435.6877, 23.15706
436.1698, 23.22995
436.6519, 23.47053
437.1341, 22.06732
437.6162, 19.70036
438.0983, 18.13555
438.5804, 18.11680
439.0625, 18.71852
439.5446, 19.33694
440.0268, 19.79665
440.5089, 19.45344
440.9910, 16.75392
441.4731, 13.78071
441.9552, 12.71605
442.4373, 14.21635
442.9195, 15.29446
443.4016, 13.58005
443.8837, 10.89094
444.3658, 9.437126
444.8479, 11.60245
445.3300, 13.35796
445.8122, 13.05322
446.2943, 10.93650
446.7764, 9.401566
447.2585, 9.234413
447.7406, 9.394966
448.2227, 9.400864
448.7049, 9.345573
449.1870, 8.888245
449.6691, 7.391815
450.1512, 5.813652
450.6333, 5.923996
451.1154, 8.936089
451.5976, 10.98585
452.0797, 10.67763
452.5618, 8.233665
453.0439, 7.058594
453.5260, 7.515244
454.0081, 8.173683
454.4903, 7.781158
454.9724, 6.359886
455.4545, 5.285934
455.9366, 4.810097
456.4187, 4.586868
456.9008, 3.834679
457.3830, 2.668266
457.8651, 2.041000
458.3472, 3.045410
458.8293, 4.676483
459.3114, 4.904556
459.7935, 3.727318
460.2757, 2.516022
460.7578, 2.874153
461.2399, 3.736137
461.7220, 3.462181
462.2041, 0.7608800
462.6862, 1.693893
463.1684, 1.757500
463.6505, 0.2467420
464.1326, 0.9528200
464.6147, 1.303894
465.0968, 0.9768750
465.5789, 0.5023190
466.0611, 3.500458
466.5432, 4.871819
467.0253, 2.382149
467.5074, 1.147163
467.9895, 3.346054
468.4716, 2.987946
468.9538, 2.721771
469.4359, 2.787979
469.9180, 3.058159
470.4001, 3.154831
470.8822, 3.180153
471.3643, 2.832794
471.8465, 1.748718
472.3286, 0.2400890
472.8107, 1.064117
473.2928, 0.4578020
473.7749, 0.6752780
474.2570, 1.563644
474.7392, 2.205208
475.2213, 1.989044
475.7034, 0.4167560
476.1855, 1.643944
476.6676, 2.444672
477.1497, 2.047653
477.6319, 1.045837
478.1140, 0.8869550
478.5961, 2.984108
479.0782, 3.815094
479.5603, 3.222473
480.0424, 2.254745
480.5246, 1.265648
481.0067, 0.5713200
481.4888, 0.6426090
481.9709, 2.347237
482.4530, 4.021721
482.9352, 4.797363
483.4173, 4.848114
483.8994, 4.724144
484.3815, 4.929832
484.8636, 4.737976
485.3457, 3.595886
485.8279, 1.046059
486.3100, 0.8513340
486.7921, 1.787056
487.2742, 2.064621
487.7563, 1.874962
488.2384, 0.6341930
488.7206, 4.4677999E-02
489.2027, 0.2334750
489.6848, 1.165604
490.1669, 1.717308
490.6490, 1.882538
491.1311, 1.667068
491.6133, 0.8062210
492.0954, 0.6832810
492.5775, 1.173706
493.0596, 0.4877400
493.5417, 0.4601900
494.0238, 0.6213840
494.5060, 0.1540220
494.9881, 0.2127610
495.4702, 0.2662730
495.9523, 0.1816710
496.4344, 0.1983030
496.9165, 0.2892610
497.3987, 0.3536450
497.8808, 0.3488690
498.3629, 0.2824940
498.8450, 4.6620001E-03
499.3271, 0.5542220
499.8092, 0.6253280
500.2914, 0.7488630
500.7735, 2.509247
501.2556, 3.680534
501.7377, 3.426086
502.2198, 3.257874
502.7019, 3.583008
503.1841, 4.237068
503.6662, 4.768593
504.1483, 4.806984
504.6304, 5.092041
505.1125, 5.949646
505.5946, 7.456810
506.0768, 8.524742
506.5589, 8.965645
507.0410, 9.236595
507.5231, 9.670128
508.0052, 10.26066
508.4873, 11.04585
508.9695, 12.03181
509.4516, 13.18896
509.9337, 14.46043
510.4158, 15.84697
510.8979, 17.35103
511.3800, 18.96268
511.8622, 20.70808
512.3443, 22.66226
512.8264, 24.80813
513.3085, 27.15033
513.7906, 29.90797
514.2728, 32.77636
514.7549, 35.16421
515.2370, 36.57676
515.7191, 38.65268
516.2012, 42.66497
516.6833, 47.95605
517.1655, 53.58987
517.6476, 59.43356
518.1297, 65.39355
518.6118, 71.30203
519.0939, 77.20983
519.5760, 83.71825
520.0582, 91.36011
520.5403, 99.01624
521.0224, 106.2852
521.5045, 113.1048
521.9866, 120.1438
522.4688, 127.2300
522.9509, 134.6156
523.4330, 142.6794
523.9151, 151.3486
524.3972, 160.4519
524.8793, 170.1182
525.3615, 180.3747
525.8436, 191.0767
526.3257, 202.2681
526.8078, 214.2615
527.2899, 227.4227
527.7720, 241.6472
528.2542, 256.5098
528.7363, 271.9279
529.2184, 288.1445
529.7005, 305.7055
530.1826, 323.8315
530.6647, 341.6230
531.1469, 359.3521
531.6290, 375.7926
532.1111, 391.0924
532.5932, 404.3644
533.0753, 413.7756
533.5574, 421.7356
534.0396, 422.9220
534.5217, 414.8051
535.0038, 397.0829
535.4859, 375.5281
535.9680, 348.7470
536.4501, 319.9104
536.9323, 290.5766
537.4144, 259.4231
537.8965, 230.5459
538.3786, 203.8280
538.8607, 179.6758
539.3428, 159.5224
539.8250, 143.3493
540.3071, 129.0995
540.7892, 116.4128
541.2713, 105.2148
541.7534, 96.03339
542.2355, 88.78176
542.7177, 82.57340
543.1998, 77.11744
543.6819, 72.16241
544.1640, 67.10060
544.6461, 61.82353
545.1282, 57.39120
545.6104, 55.74760
546.0925, 55.00151
546.5746, 52.76248
547.0567, 46.06435
547.5388, 40.92268
548.0209, 40.51637
548.5031, 43.12631
548.9852, 44.91833
549.4673, 45.05827
549.9494, 44.63590
550.4315, 43.64138
550.9136, 42.07951
551.3958, 41.15614
551.8779, 41.09978
552.3600, 41.33846
552.8421, 41.45635
553.3242, 41.40421
553.8063, 41.68423
554.2885, 42.35862
554.7706, 43.25247
555.2527, 43.98379
555.7348, 44.65276
556.2169, 45.99620
556.6990, 48.66149
557.1812, 51.51837
557.6633, 52.65377
558.1454, 52.51469
558.6275, 52.71194
559.1096, 54.32074
559.5917, 56.55067
560.0739, 59.08477
560.5560, 61.91933
561.0381, 63.98693
561.5202, 63.86707
562.0023, 63.50092
562.4844, 64.32678
562.9666, 67.90290
563.4487, 70.62766
563.9308, 71.74039
564.4129, 72.16761
564.8950, 73.34482
565.3771, 75.63228
565.8593, 78.02825
566.3414, 80.20544
566.8235, 82.32829
567.3056, 85.52868
567.7877, 89.95245
568.2698, 94.09676
568.7520, 96.76243
569.2341, 98.40720
569.7162, 100.7374
570.1983, 103.7867
570.6804, 107.4285
571.1625, 111.7496
571.6447, 116.5009
572.1268, 121.3693
572.6089, 126.6504
573.0910, 131.3736
573.5731, 134.6306
574.0552, 136.9323
574.5374, 139.2826
575.0195, 142.2660
575.5016, 145.0964
575.9837, 147.5790
576.4658, 149.6972
576.9479, 151.5253
577.4301, 153.3050
577.9122, 154.5152
578.3943, 154.9300
578.8764, 154.3019
579.3585, 153.6483
579.8406, 153.1997
580.3228, 152.6035
580.8049, 151.5386
581.2870, 150.0128
581.7691, 147.9343
582.2512, 145.1402
582.7333, 142.1658
583.2155, 139.6823
583.6975, 137.6552
584.1796, 135.9974
584.6617, 135.2187
585.1439, 134.4377
585.6260, 132.8729
586.1081, 130.5978
586.5902, 127.9422
587.0723, 124.7354
587.5544, 121.5119
588.0366, 118.6149
588.5187, 116.2763
589.0008, 113.5231
589.4829, 110.3366
589.9650, 106.5947
590.4471, 102.1133
590.9293, 96.29610
591.4114, 91.17043
591.8935, 87.06727
592.3756, 83.45704
592.8577, 79.39983
593.3398, 74.90770
593.8220, 70.17940
594.3041, 65.12639
594.7862, 60.00620
595.2683, 55.41752
595.7504, 51.36452
596.2325, 47.54408
596.7147, 43.60796
597.1968, 39.90639
597.6789, 36.92008
598.1610, 34.69624
598.6431, 32.48611
599.1252, 29.65306
599.6074, 26.82305
600.0895, 24.50214
600.5716, 23.01138
601.0537, 21.62608
601.5358, 20.37390
602.0179, 19.13190
602.5001, 17.74473
602.9822, 16.19118
603.4643, 14.52849
603.9464, 12.61955
604.4285, 10.65697
604.9106, 9.231705
605.3928, 8.384216
605.8749, 7.817986
606.3570, 7.572830
606.8391, 7.485085
607.3212, 6.845215
607.8033, 5.685677
608.2855, 4.749809
608.7676, 5.047348
609.2497, 5.728554
609.7318, 5.605240
610.2139, 4.324348
610.6960, 3.108826
611.1782, 2.562096
611.6603, 2.459976
612.1424, 2.559464
612.6245, 3.411545
613.1066, 3.731064
613.5887, 2.895668
614.0709, 1.514168
614.5530, 0.8284230
615.0351, 1.235504
615.5172, 1.536377
615.9993, 1.447113
616.4814, 0.9786450
616.9636, 7.8185998E-02
617.4457, 1.829117
617.9278, 2.910492
618.4099, 1.832756
618.8920, 0.5339280
619.3741, 1.871620
619.8563, 2.103088
620.3384, 1.673676
620.8205, 1.5450000E-02
621.3026, 1.690857
621.7847, 1.734245
622.2668, 1.065353
622.7490, 3.272285
623.2311, 3.033051
623.7132, 1.471809
624.1953, 2.5597000E-02
624.6774, 1.544960
625.1595, 2.371674
625.6417, 2.043518
626.1238, 0.9613950
626.6059, 0.2887190
627.0880, 0.1894990
627.5701, 3.3913001E-02
628.0522, 0.8078690
628.5344, 1.905083
629.0165, 2.110001
629.4986, 1.409973
629.9807, 0.3907090
630.4628, 0.9662170
630.9449, 2.224442
631.4271, 2.467491
631.9092, 1.607811
632.3913, 0.5067980
632.8734, 0.4354170
633.3555, 1.194008
633.8376, 1.799110
634.3198, 2.487854
634.8019, 2.540833
635.2840, 0.7100680
635.7661, 1.487869
636.2482, 1.886421
636.7303, 1.135063
637.2125, 3.296913
637.6946, 3.890373
638.1767, 3.314339
638.6588, 2.570427
639.1409, 1.617729
639.6230, 0.8134460
640.1052, 0.2081450
640.5873, 0.1420820
641.0694, 0.1953510
641.5515, 1.137695
642.0336, 1.809868
642.5157, 1.236084
642.9979, 0.2898030
643.4800, 5.4700002E-03
643.9621, 0.4860150
644.4442, 1.089714
644.9263, 1.844528
645.4084, 2.409637
645.8906, 2.420570
646.3727, 1.096474
646.8548, 0.5346910
647.3369, 1.243004
647.8190, 2.456894
648.3011, 3.330078
648.7833, 3.902931
649.2654, 3.971054
649.7475, 3.233620
650.2296, 2.275146
650.7117, 2.322945
651.1938, 3.336906
651.6760, 4.711220
652.1581, 6.413567
652.6402, 8.163795
653.1223, 9.868233
653.6044, 11.34518
654.0865, 11.91693
654.5687, 10.07533
655.0508, 8.084919
655.5329, 7.374611
656.0150, 8.083244
656.4971, 9.340912
656.9792, 12.11113
657.4614, 14.42620
657.9435, 15.08093
658.4256, 13.44973
658.9077, 12.35349
659.3898, 11.93385
659.8719, 11.86683
660.3541, 11.69660
660.8362, 11.43132
661.3183, 11.99535
661.8004, 13.79896
662.2825, 15.56089
662.7646, 15.18833
663.2468, 13.44524
663.7289, 12.25365
664.2110, 12.79802
664.6931, 13.48508
665.1752, 12.77657
665.6573, 11.32991
666.1395, 10.60670
666.6216, 11.69244
667.1037, 12.88873
667.5858, 13.81188
668.0679, 14.45491
668.5500, 14.58916
669.0322, 13.86455
669.5143, 13.29265
669.9964, 13.43821
670.4785, 14.24058
670.9606, 14.56191
671.4427, 14.40258
671.9249, 13.89548
672.4070, 12.64207
672.8891, 11.20280
673.3712, 10.93253
673.8533, 12.02837
674.3354, 13.43162
674.8176, 14.76565
675.2997, 15.76944
675.7818, 16.14267
676.2639, 15.45383
676.7460, 15.20543
677.2281, 16.28160
677.7103, 17.64224
678.1924, 17.94414
678.6745, 16.44358
679.1566, 15.48877
679.6387, 15.69746
680.1208, 16.51109
680.6030, 16.23750
681.0851, 14.88235
681.5672, 14.17862
682.0493, 15.24058
682.5314, 16.82909
683.0135, 16.69150
683.4957, 15.30356
683.9778, 14.19264
684.4599, 14.35653
684.9420, 14.85132
685.4241, 15.05399
685.9063, 14.96394
686.3884, 14.98112
686.8705, 15.85612
687.3526, 16.23475
687.8347, 15.24110
688.3168, 12.44592
688.7990, 10.95686
689.2811, 11.22399
689.7632, 12.07609
690.2453, 12.55680
690.7274, 12.66682
691.2095, 13.04119
691.6917, 13.81460
692.1738, 14.48422
692.6559, 14.19974
693.1380, 13.46544
693.6201, 13.02551
694.1022, 13.27291
694.5844, 13.95706
695.0665, 15.51323
695.5486, 16.93384
696.0307, 16.94411
696.5128, 13.45084
696.9949, 10.83543
697.4771, 9.597519
697.9592, 9.477524
698.4413, 10.15726
698.9234, 12.02489
699.4055, 13.27310
699.8876, 13.18641
700.3698, 12.24895
700.8519, 11.92892
701.3340, 12.15343
701.8161, 12.20808
702.2982, 11.17854
702.7803, 10.02058
703.2625, 9.738525
703.7446, 10.22832
704.2267, 11.04570
704.7088, 12.76040
705.1909, 14.23306
705.6730, 14.62495
706.1552, 13.74575
706.6373, 13.49450
707.1194, 14.31118
707.6015, 14.97073
708.0836, 14.75327
708.5657, 13.69850
709.0479, 13.23126
709.5300, 13.36305
710.0121, 13.82561
710.4942, 14.51526
710.9763, 15.28523
711.4584, 15.85099
711.9406, 16.15535
712.4227, 16.32489
712.9048, 16.51679
713.3869, 16.64030
713.8690, 16.54810
714.3511, 15.80880
714.8333, 15.55276
715.3154, 16.79365
715.7975, 18.18312
716.2796, 18.15807
716.7617, 16.04727
717.2438, 14.52908
717.7260, 14.03892
718.2081, 14.15409
718.6902, 14.18336
719.1723, 14.14436
719.6544, 14.18520
720.1365, 14.48370
720.6187, 14.57613
721.1008, 13.12234
721.5829, 11.09569
722.0650, 10.71239
722.5471, 15.06708
723.0292, 19.12638
723.5114, 20.64709
723.9935, 19.97793
724.4756, 18.80350
724.9577, 16.75214
725.4398, 14.91214
725.9219, 13.47578
726.4041, 12.50864
726.8862, 12.70559
727.3683, 14.20691
727.8504, 15.34271
728.3325, 14.87650
728.8146, 13.49399
729.2968, 12.55699
729.7789, 12.05024
730.2610, 11.73730
730.7431, 11.30901
731.2252, 11.13203
731.7073, 11.69823
732.1895, 13.13824
732.6716, 14.02527
733.1537, 13.72765
733.6358, 13.14648
734.1179, 12.72079
734.6000, 12.51348
735.0822, 12.03652
735.5643, 11.21419
736.0464, 10.37850
736.5285, 9.769577
737.0106, 9.392151
737.4927, 9.278358
737.9749, 9.437920
738.4570, 9.801025
738.9391, 10.89458
739.4212, 11.87556
739.9033, 11.58987
740.3854, 9.045448
740.8676, 7.115303
741.3497, 7.094841
741.8318, 7.811462
742.3139, 8.065819
742.7960, 7.716095
743.2781, 7.212975
743.7603, 6.510544
744.2424, 5.781837
744.7245, 5.239403
745.2066, 4.883316
745.6887, 4.815849
746.1708, 5.225456
746.6530, 5.481461
747.1351, 4.451225
747.6172, 2.840706
748.0993, 1.895119
748.5814, 3.040298
749.0635, 3.798790
749.5457, 2.820084
750.0278, 0.9524770
750.5099, 6.4842001E-02
750.9920, 0.9460750
751.4741, 1.322586
751.9562, 0.5781330
752.4384, 0.7532880
752.9205, 1.287766
753.4026, 1.048172
753.8847, 0.6756130
754.3668, 0.2624660
754.8489, 6.0036000E-02
755.3311, 0.5714720
755.8132, 1.588997
756.2953, 2.530106
756.7774, 3.504730
757.2595, 3.964378
757.7416, 3.165024
758.2238, 1.472885
758.7059, 0.7926940
759.1880, 1.821022
759.6701, 2.891159
760.1522, 3.609604
760.6343, 3.990822
761.1165, 3.874237
761.5986, 3.212212
762.0807, 2.864197
762.5628, 3.612717
763.0449, 4.843025
763.5270, 5.665413
764.0092, 6.068245
764.4913, 5.914429
764.9734, 4.098854
765.4555, 2.558380
765.9376, 2.741402
766.4197, 4.708382
766.9019, 6.265198
767.3840, 7.315742
767.8661, 7.884796
768.3482, 7.913284
768.8303, 7.411293
769.3124, 6.740829
769.7946, 5.888779
770.2767, 5.201950
770.7588, 5.046379
771.2409, 5.179893
771.7230, 5.209740
772.2051, 5.125237
772.6873, 4.945923
773.1694, 4.597176
773.6515, 4.192505
774.1336, 3.759247
774.6157, 3.281982
775.0978, 3.128510
775.5800, 3.442093
776.0621, 3.848709
776.5442, 4.274094
777.0263, 4.747635
777.5084, 4.388489
777.9905, 3.115616
778.4727, 1.700363
778.9548, 0.9394680
779.4369, 0.4963680
779.9190, 0.4345400
780.4011, 2.055328
780.8832, 3.413803
781.3654, 3.313828
781.8475, 3.123413
782.3296, 3.988907
782.8117, 6.573746
783.2938, 8.347397
783.7759, 8.776611
784.2581, 9.153595
784.7402, 10.44041
785.2223, 12.65019
785.7044, 15.47807
786.1865, 18.94658
786.6686, 22.20625
787.1508, 24.32294
787.6329, 25.75169
788.1150, 27.10320
788.5971, 28.40674
789.0792, 30.14552
789.5613, 32.97461
790.0435, 36.13583
790.5256, 38.96706
791.0077, 40.96507
791.4898, 43.69777
791.9719, 47.03133
792.4540, 51.30600
792.9362, 56.92807
793.4183, 63.85748
793.9004, 70.64813
794.3825, 77.19485
794.8646, 84.17947
795.3467, 92.64349
795.8289, 101.9576
796.3110, 111.0683
796.7931, 119.7811
797.2752, 129.0234
797.7573, 138.7697
798.2394, 149.5410
798.7216, 161.4883
799.2037, 173.7775
799.6858, 190.1801
800.1679, 211.4577
800.6500, 235.0856
801.1321, 258.1494
801.6143, 281.5256
802.0964, 310.2201
802.5785, 344.8204
803.0606, 383.2643
803.5427, 423.8384
804.0248, 466.7017
804.5070, 512.5821
804.9891, 561.7382
805.4712, 613.0123
805.9533, 666.1739
806.4354, 722.1693
806.9175, 781.8519
807.3997, 845.4894
807.8818, 911.3260
808.3639, 978.5140
808.8460, 1048.955
809.3281, 1122.867
809.8102, 1201.333
810.2924, 1287.378
810.7745, 1381.597
811.2566, 1482.685
811.7387, 1587.708
812.2208, 1699.201
812.7029, 1819.162
813.1851, 1948.643
813.6672, 2085.165
814.1493, 2230.112
814.6314, 2380.222
815.1135, 2533.380
815.5956, 2691.315
816.0778, 2844.473
816.5599, 2994.481
817.0420, 3128.767
817.5241, 3246.467
818.0062, 3335.980
818.4883, 3382.916
818.9705, 3385.513
819.4526, 3341.841
819.9347, 3240.607
820.4168, 3100.753
820.8989, 2929.299
821.3810, 2721.460
821.8632, 2516.258
822.3453, 2312.077
822.8274, 2112.789
823.3095, 1921.984
823.7916, 1739.494
824.2737, 1579.697
824.7559, 1442.529
825.2380, 1321.874
825.7201, 1217.361
826.2022, 1125.252
826.6843, 1043.610
827.1664, 972.2620
827.6486, 910.4598
828.1307, 860.2671
828.6128, 817.2518
829.0949, 779.2164
829.5770, 746.4617
830.0591, 718.2394
830.5413, 694.4480
831.0234, 676.8332
831.5055, 667.3984
831.9876, 664.8193
832.4697, 665.9746
832.9518, 670.9083
833.4340, 682.3671
833.9161, 699.8192
834.3982, 726.0317
834.8803, 762.9968
835.3624, 811.5347
835.8445, 868.1129
836.3267, 932.3112
836.8088, 1005.023
837.2909, 1087.230
837.7730, 1177.980
838.2551, 1271.718
838.7372, 1368.525
839.2194, 1469.531
839.7015, 1574.712
840.1836, 1685.031
840.6657, 1800.285
841.1478, 1921.754
841.6299, 2050.823
842.1121, 2184.495
842.5942, 2330.512
843.0763, 2491.359
843.5584, 2666.757
844.0405, 2854.326
844.5226, 3053.448
845.0048, 3269.230
845.4869, 3505.191
845.9690, 3759.066
846.4511, 4025.844
846.9332, 4304.493
847.4153, 4588.426
847.8975, 4890.212
848.3796, 5180.286
848.8617, 5465.676
849.3438, 5728.517
849.8259, 5918.065
850.3080, 6050.412
850.7902, 6078.973
851.2723, 5991.945
851.7544, 5797.925
852.2365, 5493.305
852.7186, 5089.973
853.2007, 4651.170
853.6829, 4181.176
854.1650, 3722.047
854.6471, 3295.388
855.1292, 2904.822
855.6113, 2555.143
856.0934, 2257.792
856.5756, 1996.636
857.0577, 1770.735
857.5398, 1577.615
858.0219, 1408.908
858.5040, 1264.368
858.9861, 1137.855
859.4683, 1028.780
859.9504, 932.2358
860.4325, 844.4738
860.9146, 764.9739
861.3967, 694.7875
861.8788, 635.1699
862.3610, 582.4724
862.8431, 538.4225
863.3252, 499.5768
863.8073, 462.9297
864.2894, 427.8928
864.7715, 396.2750
865.2537, 368.3108
865.7358, 342.9112
866.2179, 318.5826
866.7000, 295.7715
867.1821, 275.9735
867.6642, 259.2760
868.1464, 243.5411
868.6285, 226.0770
869.1106, 209.7453
869.5927, 196.7964
870.0748, 188.0538
870.5569, 179.2684
871.0391, 170.3810
871.5212, 161.5368
872.0033, 152.7345
872.4854, 144.0293
872.9675, 136.1398
873.4496, 128.9679
873.9318, 122.6880
874.4139, 117.6841
874.8960, 113.3871
875.3781, 109.3235
875.8602, 105.4662
876.3423, 102.0827
876.8245, 99.34189
877.3066, 97.04228
877.7887, 95.22891
878.2708, 93.81335
878.7529, 92.40932
879.2350, 91.02710
879.7172, 89.85361
880.1993, 89.28571
880.6814, 88.66168
881.1635, 86.89441
881.6456, 84.40756
882.1277, 82.18672
882.6099, 80.45984
883.0920, 79.21112
883.5741, 77.90053
884.0562, 77.31006
884.5383, 78.68141
885.0204, 82.05753
885.5026, 87.18259
885.9847, 94.10522
886.4668, 102.4827
886.9489, 112.5086
887.4310, 123.5533
887.9131, 133.9536
888.3953, 142.4802
888.8774, 152.5947
889.3595, 166.9641
889.8416, 182.9395
890.3237, 197.8475
890.8058, 210.2707
891.2880, 225.2230
891.7701, 242.7689
892.2522, 262.3708
892.7343, 283.9117
893.2164, 307.2147
893.6985, 331.4610
894.1807, 356.4203
894.6628, 384.3513
895.1449, 416.6580
895.6270, 452.0159
896.1091, 490.6220
896.5912, 532.4096
897.0734, 574.4377
897.5555, 618.2961
898.0376, 658.1224
898.5197, 693.4571
899.0018, 721.6091
899.4839, 733.6129
899.9661, 729.1783
900.4482, 706.7137
900.9303, 658.7091
901.4124, 598.5317
901.8945, 528.1624
902.3766, 452.1859
902.8588, 382.3959
903.3409, 320.1108
903.8230, 265.4249
904.3051, 218.0481
904.7872, 178.1141
905.2693, 145.7609
905.7515, 120.6219
906.2336, 99.83453
906.7157, 83.23262
907.1978, 69.03978
907.6799, 55.61200
908.1620, 43.80304
908.6442, 34.58441
909.1263, 29.90038
909.6084, 24.97878
910.0905, 19.25375
910.5726, 13.86256
911.0547, 9.799347
911.5369, 6.986542
912.0190, 4.327789
912.5011, 1.765106
912.9832, 0.7617030
913.4653, 3.291916
913.9474, 5.822052
914.4296, 8.620667
914.9117, 11.74301
915.3938, 13.63960
915.8759, 13.30368
916.3580, 12.80914
916.8401, 13.10060
917.3223, 13.96236
917.8044, 13.89549
918.2865, 12.93608
918.7686, 12.14990
919.2507, 12.25223
919.7328, 12.65137
920.2150, 12.76939
920.6971, 12.74812
921.1792, 12.93588
921.6613, 14.08190
922.1434, 14.46642
922.6255, 13.76768
923.1077, 12.24263
923.5898, 10.11046
924.0719, 7.463768
924.5540, 5.256821
925.0361, 3.667343
925.5182, 2.432831
926.0004, 1.951416
926.4825, 1.413155
926.9646, 0.2665940
927.4467, 3.725182
927.9288, 7.279144
928.4109, 10.71439
928.8931, 14.04430
929.3752, 17.07835
929.8573, 19.94331
930.3394, 24.31317
930.8215, 30.03593
931.3036, 36.39891
931.7858, 42.75235
932.2679, 49.83028
932.7500, 58.13330
933.2321, 67.66467
933.7142, 79.12337
934.1964, 93.09674
934.6785, 108.2917
935.1606, 124.0267
935.6427, 140.9515
936.1248, 161.0313
936.6069, 184.2648
937.0891, 207.3186
937.5712, 229.2320
938.0533, 251.1506
938.5354, 274.0310
939.0175, 297.7953
939.4996, 321.9233
939.9818, 345.7390
940.4639, 371.2360
940.9460, 397.3719
941.4281, 426.2088
941.9102, 459.5562
942.3923, 497.2105
942.8745, 537.3359
943.3566, 580.1169
943.8387, 625.6605
944.3208, 673.7524
944.8029, 724.2473
945.2850, 778.4523
945.7672, 836.3069
946.2493, 892.9107
946.7314, 952.3406
947.2135, 1003.357
947.6956, 1044.780
948.1777, 1073.274
948.6599, 1075.687
949.1420, 1052.756
949.6241, 1007.399
950.1062, 931.6215
950.5883, 845.0439
951.0704, 754.6778
951.5526, 664.0364
952.0347, 581.3726
952.5168, 506.0762
952.9989, 439.2500
953.4810, 381.1883
953.9631, 331.2036
954.4453, 289.9132
954.9274, 256.0491
955.4095, 225.1406
955.8916, 196.8311
956.3737, 171.9653
956.8558, 151.8601
957.3380, 134.9580
957.8201, 120.1913
958.3022, 107.4693
958.7843, 96.43652
959.2664, 87.29252
959.7485, 79.11157
960.2307, 71.53930
960.7128, 64.53895
961.1949, 57.67035
961.6770, 51.27058
962.1591, 46.65362
962.6412, 46.40154
963.1234, 45.74899
963.6055, 42.06606
964.0876, 37.00174
964.5697, 33.20628
965.0518, 30.86487
965.5339, 29.32156
966.0161, 28.76688
966.4982, 27.96230
966.9803, 24.53811
967.4624, 20.16021
967.9445, 17.88126
968.4266, 18.35456
968.9088, 19.04179
969.3909, 19.21307
969.8730, 19.11307
970.3551, 18.73377
970.8372, 18.09937
971.3193, 18.17293
971.8015, 18.97765
972.2836, 19.02052
972.7657, 16.99355
973.2478, 14.22310
973.7299, 11.91373
974.2120, 10.20171
974.6942, 9.328300
975.1763, 10.57739
975.6584, 11.00648
976.1405, 10.03188
976.6226, 8.407074
977.1047, 7.000900
977.5869, 5.812332
978.0690, 5.321037
978.5511, 5.705681
979.0332, 5.818909
979.5153, 4.351898
979.9974, 2.352173
980.4796, 0.7071990
980.9617, 0.4327930
981.4438, 0.9473270
981.9259, 0.4706190
982.4080, 0.1328350
982.8901, 0.6615300
983.3723, 1.669617
983.8544, 1.776375
984.3365, 1.198448
984.8186, 0.7960130
985.3007, 1.621376
985.7828, 2.108910
986.2650, 0.6657560
986.7471, 1.314117
987.2292, 1.282776
987.7113, 1.841225
988.1934, 2.821991
988.6755, 0.8282550
989.1577, 1.810234
989.6398, 2.509705
990.1219, 2.078354
990.6040, 1.713921
991.0861, 1.549858
991.5682, 1.774048
992.0504, 2.945091
992.5325, 4.026924
993.0146, 4.537659
993.4967, 4.564571
993.9788, 4.571259
994.4609, 4.562054
994.9431, 4.577904
995.4252, 4.428970
995.9073, 4.624344
996.3894, 6.303772
996.8715, 8.545441
997.3536, 9.845684
997.8358, 9.420094
998.3179, 8.437508
998.8000, 6.445358
999.2821, 4.743416
999.7642, 4.462856
1000.246, 5.503307
1000.728, 7.708229
1001.211, 10.99163
1001.693, 13.10497
1002.175, 11.57836
1002.657, 9.292580
1003.139, 7.977173
1003.621, 7.614136
1004.103, 7.329403
1004.585, 6.932419
1005.068, 7.542023
1005.550, 9.953766
1006.032, 12.58780
1006.514, 12.70109
1006.996, 11.20966
1007.478, 9.734154
1007.960, 8.289856
1008.442, 8.123444
1008.924, 10.54761
1009.407, 13.51378
1009.889, 15.94699
1010.371, 17.85655
1010.853, 18.30774
1011.335, 17.29047
1011.817, 16.22570
1012.299, 16.04427
1012.781, 16.26169
1013.263, 16.61916
1013.746, 17.01521
1014.228, 17.10888
1014.710, 16.30140
1015.192, 16.29932
1015.674, 17.74743
1016.156, 19.46007
1016.638, 19.14244
1017.120, 17.60139
1017.603, 17.60738
1018.085, 19.82600
1018.567, 21.84281
1019.049, 22.26466
1019.531, 21.93452
1020.013, 21.08937
1020.495, 19.80859
1020.977, 20.17419
1021.459, 22.42717
1021.942, 24.18195
1022.424, 24.07413
1022.906, 23.15681
1023.388, 22.78629
1023.870, 22.71615
1024.352, 22.46373
1024.834, 21.68085
1025.316, 20.97805
1025.799, 20.30856
1026.281, 19.85058
1026.763, 19.95343
1027.245, 20.47766
1027.727, 20.40987
1028.209, 19.71779
1028.691, 19.11269
1029.173, 19.24496
1029.656, 19.51245
1030.138, 19.55009
1030.620, 19.32757
1031.102, 18.84659
1031.584, 17.96031
1032.066, 17.49817
1032.548, 17.88134
1033.030, 18.36156
1033.512, 17.17086
1033.995, 15.35072
1034.477, 15.09952
1034.959, 17.68175
1035.441, 18.74069
1035.923, 15.66871
1036.405, 12.80545
1036.887, 12.81718
1037.369, 15.19229
1037.851, 15.71247
1038.334, 14.47985
1038.816, 12.59201
1039.298, 9.880741
1039.780, 7.627850
1040.262, 6.455379
1040.744, 6.305553
1041.226, 7.323914
1041.708, 10.70664
1042.191, 11.62407
1042.673, 9.259178
1043.155, 6.191513
1043.637, 5.437592
1044.119, 5.993633
1044.601, 5.850361
1045.083, 4.782143
1045.565, 3.905231
1046.047, 4.355244
1046.530, 4.711578
1047.012, 4.364143
1047.494, 3.554920
1047.976, 3.360760
1048.458, 3.675293
1048.940, 3.577900
1049.422, 2.647141
1049.904, 1.876511
1050.386, 2.243481
1050.869, 2.948395
1051.351, 3.103577
1051.833, 2.505146
1052.315, 2.524239
1052.797, 3.394646
1053.279, 3.791531
1053.761, 2.284161
1054.243, 0.2842180
1054.726, 0.7336390
1055.208, 2.648327
1055.690, 3.444031
1056.172, 0.3312760
1056.654, 1.284519
1057.136, 2.4357000E-02
1057.618, 2.131199
1058.100, 2.464375
1058.583, 1.315994
1059.065, 0.4550060
1059.547, 6.6000002E-04
1060.029, 0.2273060
1060.511, 0.1200290
1060.993, 2.7306000E-02
1061.475, 0.1381910
1061.957, 0.4426310
1062.439, 1.031094
1062.922, 2.058071
1063.404, 2.139778
1063.886, 0.6171260
1064.368, 0.9774890
1064.850, 0.3864400
1065.332, 1.134029
1065.814, 1.825836
1066.296, 1.139133
1066.778, 0.5997960
1067.261, 0.4472350
1067.743, 0.3366200
1068.225, 5.2944001E-02
1068.707, 0.3115040
1069.189, 0.4342080
1069.671, 0.3538890
1070.153, 0.2344590
1070.635, 0.1483270
1071.118, 3.5046000E-02
1071.600, 0.3791280
1072.082, 0.6527790
1072.564, 0.1779790
1073.046, 1.155640
1073.528, 1.720928
1074.010, 1.445595
1074.492, 0.9942210
1074.974, 0.6217540
1075.457, 0.5130230
1075.939, 0.9567600
1076.421, 1.827385
1076.903, 2.677864
1077.385, 3.771801
1077.867, 3.888042
1078.349, 2.496300
1078.831, 0.9684100
1079.313, 1.336491
1079.796, 2.774662
1080.278, 3.814495
1080.760, 4.241245
1081.242, 4.688068
1081.724, 5.416161
1082.206, 6.130138
1082.688, 6.628227
1083.170, 7.079899
1083.652, 8.184093
1084.135, 9.791817
1084.617, 10.98119
1085.099, 11.07185
1085.581, 11.68486
1086.063, 14.98557
1086.545, 18.40501
1087.027, 19.73300
1087.509, 18.85899
1087.992, 16.51151
1088.474, 12.57837
1088.956, 8.906570
1089.438, 6.704510
1089.920, 5.255733
1090.402, 4.135422
1090.884, 3.108479
1091.366, 1.597786
1091.849, 1.662479
1092.331, 2.842400
1092.813, 1.206364
1093.295, 1.026966
1093.777, 1.536572
1094.259, 1.076599
1094.741, 1.270569
1095.223, 2.092823
1095.705, 2.684437
1096.188, 2.539379
1096.670, 2.294247
1097.152, 2.052490
1097.634, 1.864479
1098.116, 2.032906
1098.598, 2.406326
1099.080, 1.859310
1099.562, 7.9287998E-02
1100.044, 1.142006
1100.527, 0.1282690
1101.009, 1.678219
1101.491, 1.812668
1101.973, 0.8738250
1102.455, 1.006195
1102.937, 2.239529
1103.419, 3.142670
1103.901, 3.191841
1104.384, 2.828075
1104.866, 2.191429
1105.348, 1.565197
1105.830, 1.326607
1106.312, 1.642719
1106.794, 1.885612
1107.276, 2.067741
1107.758, 2.106964
1108.240, 1.846333
1108.723, 1.514847
1109.205, 1.454033
1109.687, 1.638054
1110.169, 2.012020
1110.651, 2.957581
1111.133, 3.492561
1111.615, 3.464298
1112.097, 3.160641
1112.579, 2.800312
1113.062, 2.405853
1113.544, 1.940636
1114.026, 1.436203
1114.508, 1.176548
1114.990, 1.585396
1115.472, 2.114479
1115.954, 2.688061
1116.436, 3.162361
1116.919, 3.213367
1117.401, 2.884747
1117.883, 3.032513
1118.365, 3.785725
1118.847, 4.167580
1119.329, 2.585079
1119.811, 1.139645
1120.293, 1.874031
1120.776, 4.042660
1121.258, 4.562420
1121.740, 3.324017
1122.222, 1.907379
1122.704, 0.5035970
1123.186, 0.3865510
1123.668, 0.1839490
1124.150, 1.359570
1124.632, 2.280403
1125.115, 2.829670
1125.597, 2.474091
1126.079, 0.7416460
1126.561, 0.2702450
1127.043, 0.4686470
1127.525, 2.028797
1128.007, 3.173199
1128.489, 3.945801
1128.971, 4.406494
1129.454, 4.550964
1129.936, 4.334450
1130.418, 3.512989
1130.900, 2.886044
1131.382, 3.045563
1131.864, 3.687527
1132.346, 3.880684
1132.828, 3.773327
1133.311, 3.838673
1133.793, 4.612144
1134.275, 5.086014
1134.757, 4.834461
1135.239, 4.452698
1135.721, 4.425007
1136.203, 4.727077
1136.685, 5.445705
1137.167, 6.459873
1137.650, 6.727482
1138.132, 4.532604
1138.614, 2.713093
1139.096, 2.936550
1139.578, 4.127430
1140.060, 4.972214
1140.542, 5.477009
1141.024, 5.598186
1141.506, 5.332474
1141.989, 4.708355
1142.471, 3.000576
1142.953, 1.632778
1143.435, 2.001476
1143.917, 3.541107
1144.399, 4.310982
1144.881, 4.268692
1145.363, 3.540543
1145.846, 2.004948
1146.328, 0.7564700
1146.810, 1.507919
1147.292, 2.665913
1147.774, 2.318928
1148.256, 0.4357640
1148.738, 0.2876740
1149.220, 2.589001
1149.703, 3.850403
1150.185, 2.903843
1150.667, 1.268486
1151.149, 0.3792270
1151.631, 0.1069830
1152.113, 0.4380110
1152.595, 1.476685
1153.077, 2.259785
1153.559, 2.716423
1154.042, 2.967052
1154.524, 2.875465
1155.006, 2.874950
1155.488, 4.447018
1155.970, 6.538445
1156.452, 6.867474
1156.934, 4.036697
1157.416, 2.088722
1157.898, 1.898041
1158.381, 1.857937
1158.863, 0.7244830
1159.345, 0.8266870
1159.827, 0.7358170
1160.309, 0.5821230
1160.791, 2.024681
1161.273, 3.420574
1161.755, 4.624943
1162.238, 5.630596
1162.720, 6.170437
1163.202, 5.813931
1163.684, 4.880650
1164.166, 5.167622
1164.648, 6.290955
1165.130, 6.536594
1165.612, 3.645535
1166.094, 1.590340
1166.577, 2.051701
1167.059, 3.446274
1167.541, 4.370804
1168.023, 4.874882
1168.505, 5.466305
1168.987, 6.101913
1169.469, 6.263741
1169.951, 5.064362
1170.433, 3.988682
1170.916, 3.777771
1171.398, 4.024155
1171.880, 4.253933
1172.362, 4.476849
1172.844, 4.901089
1173.326, 5.435246
1173.808, 5.833435
1174.290, 5.739826
1174.773, 5.655922
1175.255, 5.911705
1175.737, 6.371628
1176.219, 6.869728
1176.701, 7.412338
1177.183, 7.407536
1177.665, 6.734951
1178.147, 6.325043
1178.630, 7.613651
1179.112, 8.781567
1179.594, 8.006279
1180.076, 6.069717
1180.558, 5.719772
1181.040, 7.048573
1181.522, 8.001644
1182.004, 8.180805
1182.486, 7.908340
1182.969, 6.897171
1183.451, 6.027115
1183.933, 6.284473
1184.415, 7.488888
1184.897, 8.110191
1185.379, 8.058674
1185.861, 7.660908
1186.343, 6.911522
1186.825, 6.229561
1187.308, 5.905830
1187.790, 5.937016
1188.272, 6.528442
1188.754, 7.680672
1189.236, 8.282761
1189.718, 8.139614
1190.200, 7.855717
1190.682, 7.512321
1191.165, 7.395409
1191.647, 8.141846
1192.129, 8.935791
1192.611, 8.612034
1193.093, 7.008041
1193.575, 6.658394
1194.057, 7.817448
1194.539, 8.271255
1195.021, 6.751007
1195.504, 4.979305
1195.986, 5.218758
1196.468, 6.213562
1196.950, 6.239017
1197.432, 4.923306
1197.914, 4.255573
1198.396, 4.346474
1198.878, 4.308254
1199.360, 3.527584
1199.843, 2.772728
1200.325, 3.324638
1200.807, 4.192585
1201.289, 3.726803
1201.771, 1.070885
1202.253, 0.7586440
1202.735, 3.201912
1203.217, 5.318066
1203.700, 5.061562
1204.182, 3.965057
1204.664, 3.447880
1205.146, 3.433949
1205.628, 3.965069
1206.110, 5.639473
1206.592, 5.472290
1207.074, 3.137062
1207.557, 1.032219
1208.039, 1.097004
1208.521, 1.795952
1209.003, 1.193447
1209.485, 5.7381000E-02
1209.967, 9.5940001E-02
1210.449, 1.473446
1210.931, 2.025497
1211.413, 1.380489
1211.896, 0.8884320
1212.378, 1.687271
1212.860, 2.951767
1213.342, 4.375526
1213.824, 5.450348
1214.306, 4.878979
1214.788, 1.804489
1215.270, 4.9549998E-03
1215.752, 0.3738370
1216.235, 1.3611000E-02
1216.717, 1.437141
1217.199, 2.711647
1217.681, 2.559597
1218.163, 1.413315
1218.645, 0.1326520
1219.127, 1.516937
1219.609, 1.987957
1220.092, 1.118637
1220.574, 4.2160001E-02
1221.056, 0.2465670
1221.538, 0.4223330
1222.020, 1.390045
1222.502, 2.650299
1222.984, 2.967209
1223.466, 1.992634
1223.948, 1.813072
1224.431, 2.613163
1224.913, 3.263008
1225.395, 2.617176
1225.877, 1.665970
1226.359, 1.081230
1226.841, 0.8699420
1227.323, 0.9618150
1227.805, 1.422203
1228.287, 1.779957
1228.770, 2.013023
1229.252, 1.899273
1229.734, 0.5930330
1230.216, 0.4747510
1230.698, 0.2238270
1231.180, 1.833622
1231.662, 2.282669
1232.144, 1.464848
1232.627, 0.9933280
1233.109, 1.005726
1233.591, 1.205681
1234.073, 1.402237
1234.555, 1.677032
1235.037, 2.390892
1235.519, 3.089912
1236.001, 2.623425
1236.484, 0.9955520
1236.966, 0.9698330
1237.448, 2.782326
1237.930, 4.175835
1238.412, 2.823284
1238.894, 1.462818
1239.376, 2.161304
1239.858, 3.573772
1240.340, 3.348904
1240.823, 1.663582
1241.305, 0.3839840
1241.787, 0.2968790
1242.269, 0.4061050
1242.751, 0.5717160
1243.233, 1.510674
1243.715, 1.931328
1244.197, 2.023254
1244.679, 2.142731
1245.162, 2.206795
1245.644, 1.434666
1246.126, 0.1186260
1246.608, 0.8569450
1247.090, 1.485245
1247.572, 2.892296
1248.054, 1.770210
1248.536, 0.3503380
1249.019, 1.477623
1249.501, 1.619972
1249.983, 0.2414470
1250.465, 2.483246
1250.947, 4.161152
1251.429, 2.773991
1251.911, 1.547222
1252.393, 1.159138
1252.875, 1.194031
1253.358, 1.023441
1253.840, 0.8653070
1254.322, 1.444969
1254.804, 2.679806
1255.286, 3.341461
1255.768, 2.852077
1256.250, 2.079082
1256.732, 0.9398650
1257.214, 5.3665001E-02
1257.697, 0.1702650
1258.179, 0.9137310
1258.661, 1.846981
1259.143, 2.875492
1259.625, 3.534351
1260.107, 3.705860
1260.589, 4.156803
1261.071, 5.026546
1261.554, 5.571823
1262.036, 6.107281
1262.518, 6.334484
1263.000, 5.542629
1263.482, 3.999474
1263.964, 3.184914
1264.446, 3.383549
1264.928, 3.197475
1265.411, 2.380142
1265.893, 1.750469
1266.375, 2.448425
1266.857, 3.185135
1267.339, 2.717319
1267.821, 1.619465
1268.303, 2.088493
1268.785, 4.366203
1269.267, 4.851940
1269.750, 3.103668
1270.232, 1.460606
1270.714, 2.024437
1271.196, 2.905872
1271.678, 2.728142
1272.160, 2.158947
1272.642, 2.309757
1273.124, 3.207504
1273.606, 3.471233
1274.089, 2.892708
1274.571, 2.343182
1275.053, 2.030247
1275.535, 2.182873
1276.017, 2.407288
1276.499, 2.103947
1276.981, 1.660301
1277.463, 0.9993820
1277.946, 1.199104
1278.428, 2.158737
1278.910, 2.651615
1279.392, 1.706238
1279.874, 0.8915560
1280.356, 0.2895010
1280.838, 3.0033000E-02
1281.320, 5.3004999E-02
1281.802, 0.1370430
1282.285, 0.8807680
1282.767, 2.015018
1283.249, 2.721172
1283.731, 2.562973
1284.213, 2.341030
1284.695, 2.027157
1285.177, 1.985332
1285.659, 3.026840
1286.141, 4.157299
1286.624, 3.808788
1287.106, 2.484695
1287.588, 1.787968
1288.070, 2.008038
1288.552, 2.024223
1289.034, 1.753201
1289.516, 1.534084
1289.998, 1.760956
1290.481, 2.013161
1290.963, 1.809402
1291.445, 1.454418
1291.927, 1.513279
1292.409, 1.943493
1292.891, 1.859028
1293.373, 1.212601
1293.855, 0.9608800
1294.338, 2.456974
1294.820, 3.567120
1295.302, 2.656021
1295.784, 1.427330
1296.266, 1.445457
1296.748, 2.503647
1297.230, 3.426514
1297.712, 4.111195
1298.194, 4.170345
1298.677, 2.759655
1299.159, 1.611645
1299.641, 0.9249730
1300.123, 0.6592250
1300.605, 1.090427
1301.087, 1.771385
1301.569, 1.439312
1302.051, 0.5234870
1302.533, 1.4500000E-02
1303.016, 0.0000000E+00
##END=



