##NAMES=Montgomeryite
##RRUFFID=R070631
##IDEAL CHEMISTRY=Ca_4_MgAl_4_(PO_4_)_6_(OH)_4_&#183;12H_2_O
##LOCALITY=Tip Top mine, Custer County, South Dakota, USA
##OWNER=RRUFF
##SOURCE=Dakota Matrix Minerals
##DESCRIPTION=Translucent reddish orange tabular crystals associated with orthoclase.
##STATUS=The identification of this mineral has been confirmed by single-crystal X-ray diffraction.
##URL=rruff.info/R070631
109.8272, 0.0000000E+00
110.3093, 30.29199
110.7914, 26.91162
111.2735, 0.6845700
111.7556, 34.44238
112.2377, 70.07080
112.7199, 86.49658
113.2020, 88.59229
113.6841, 89.52881
114.1662, 96.36523
114.6483, 109.5698
115.1304, 123.6406
115.6126, 144.4585
116.0947, 140.5918
116.5768, 116.7949
117.0589, 83.82617
117.5410, 53.38672
118.0231, 40.34961
118.5053, 67.93164
118.9874, 78.20654
119.4695, 60.03564
119.9516, 31.78857
120.4337, 3.172363
120.9158, 11.32275
121.3980, 12.90186
121.8801, 5.753418
122.3622, 14.76953
122.8443, 36.16992
123.3264, 57.60205
123.8085, 77.62061
124.2907, 90.43066
124.7728, 90.30908
125.2549, 79.72217
125.7370, 72.23486
126.2191, 70.98291
126.7012, 71.10449
127.1834, 68.90918
127.6655, 64.53516
128.1476, 56.46973
128.6297, 32.93115
129.1118, 4.207031
129.5939, 7.882324
130.0761, 16.67676
130.5582, 66.10107
131.0403, 101.4316
131.5224, 114.6758
132.0045, 121.3203
132.4866, 130.5952
132.9688, 141.7476
133.4509, 151.4548
133.9330, 155.1106
134.4151, 151.2373
134.8972, 153.0486
135.3793, 165.0815
135.8615, 180.4229
136.3436, 193.1592
136.8257, 203.8328
137.3078, 220.3918
137.7899, 257.4541
138.2720, 336.3201
138.7542, 394.5820
139.2363, 424.5017
139.7184, 439.3408
140.2005, 448.2424
140.6826, 455.0347
141.1647, 460.3215
141.6469, 465.8452
142.1290, 461.1511
142.6111, 468.7510
143.0932, 503.6699
143.5753, 550.9500
144.0574, 585.1284
144.5396, 589.1702
145.0217, 568.5146
145.5038, 572.2661
145.9859, 626.4094
146.4680, 674.5244
146.9501, 685.7271
147.4323, 665.2188
147.9144, 644.4678
148.3965, 647.8188
148.8786, 675.4517
149.3607, 697.9443
149.8429, 713.0286
150.3250, 723.5579
150.8071, 730.4810
151.2892, 733.0801
151.7713, 738.3677
152.2534, 760.0842
152.7356, 792.5366
153.2177, 816.8921
153.6998, 818.2253
154.1819, 807.4998
154.6640, 810.2166
155.1461, 830.3630
155.6283, 864.8774
156.1104, 914.2920
156.5925, 976.3992
157.0746, 1035.591
157.5567, 1077.625
158.0388, 1102.991
158.5210, 1135.539
159.0031, 1197.128
159.4852, 1251.880
159.9673, 1280.938
160.4494, 1282.026
160.9315, 1262.151
161.4137, 1223.778
161.8958, 1157.023
162.3779, 1107.314
162.8600, 1102.097
163.3421, 1104.027
163.8242, 1091.757
164.3064, 1056.219
164.7885, 999.4478
165.2706, 952.6448
165.7527, 921.8359
166.2348, 889.5029
166.7169, 855.0396
167.1991, 822.5566
167.6812, 795.5349
168.1633, 771.2891
168.6454, 749.8074
169.1275, 730.5737
169.6096, 714.4883
170.0918, 702.0029
170.5739, 693.8418
171.0560, 689.5747
171.5381, 689.6287
172.0202, 695.2634
172.5023, 705.7300
172.9845, 704.1663
173.4666, 675.7122
173.9487, 652.3606
174.4308, 649.1428
174.9129, 662.6675
175.3951, 679.4250
175.8772, 691.5908
176.3593, 698.4380
176.8414, 687.2722
177.3235, 641.8708
177.8056, 591.4126
178.2878, 553.7100
178.7699, 530.2153
179.2520, 517.7104
179.7341, 519.1611
180.2162, 534.1011
180.6983, 533.9578
181.1805, 505.3948
181.6626, 464.2109
182.1447, 427.0769
182.6268, 395.8696
183.1089, 371.1052
183.5910, 358.7610
184.0732, 356.3298
184.5553, 348.5037
185.0374, 325.4026
185.5195, 293.1719
186.0016, 265.9683
186.4837, 246.7903
186.9659, 232.2246
187.4480, 219.4526
187.9301, 209.2183
188.4122, 199.0249
188.8943, 184.5386
189.3764, 167.0459
189.8586, 157.8047
190.3407, 166.1038
190.8228, 176.6694
191.3049, 176.3335
191.7870, 164.7178
192.2691, 153.3962
192.7513, 155.2688
193.2334, 172.1423
193.7155, 183.8882
194.1976, 171.1873
194.6797, 162.2305
195.1618, 177.6328
195.6440, 220.7476
196.1261, 271.5051
196.6082, 302.1748
197.0903, 304.4492
197.5724, 312.1355
198.0546, 337.9260
198.5367, 365.9250
199.0188, 384.7498
199.5009, 390.9526
199.9830, 389.7407
200.4651, 391.6375
200.9473, 403.2627
201.4294, 404.9351
201.9115, 384.9084
202.3936, 360.2996
202.8757, 349.2959
203.3578, 359.6208
203.8400, 380.1318
204.3221, 380.5037
204.8042, 339.9314
205.2863, 305.0417
205.7684, 279.2510
206.2505, 261.7288
206.7327, 253.1555
207.2148, 254.3872
207.6969, 261.8171
208.1790, 260.4487
208.6611, 255.0283
209.1432, 234.3567
209.6254, 180.3010
210.1075, 112.6023
210.5896, 60.05688
211.0717, 39.47070
211.5538, 46.61987
212.0359, 52.14453
212.5181, 59.73242
213.0002, 62.02759
213.4823, 56.43433
213.9644, 44.04932
214.4465, 26.14697
214.9286, 2.093994
215.4108, 26.69995
215.8929, 44.64062
216.3750, 43.92627
216.8571, 42.87573
217.3392, 54.00220
217.8213, 72.29468
218.3035, 79.85303
218.7856, 61.29370
219.2677, 19.47119
219.7498, 3.461670
220.2319, 6.768799
220.7140, 20.69263
221.1962, 22.87573
221.6783, 14.00244
222.1604, 2.029785
222.6425, 9.267822
223.1246, 18.81274
223.6067, 21.10596
224.0889, 5.583984
224.5710, 9.105957
225.0531, 12.04639
225.5352, 2.602783
226.0173, 21.06348
226.4994, 71.72656
226.9816, 141.1807
227.4637, 176.7112
227.9458, 150.6387
228.4279, 104.4307
228.9100, 74.14966
229.3921, 61.76123
229.8743, 55.32520
230.3564, 43.59424
230.8385, 30.35645
231.3206, 29.96411
231.8027, 50.41357
232.2849, 82.05273
232.7670, 119.0588
233.2491, 163.8257
233.7312, 197.5552
234.2133, 193.2400
234.6954, 165.4907
235.1776, 149.6345
235.6597, 162.6125
236.1418, 189.7595
236.6239, 209.4480
237.1060, 219.6023
237.5881, 228.0464
238.0703, 247.1611
238.5524, 269.3020
239.0345, 276.7268
239.5166, 251.7336
239.9987, 211.0352
240.4808, 184.7957
240.9630, 175.6462
241.4451, 175.4919
241.9272, 183.6621
242.4093, 196.5161
242.8914, 206.9207
243.3735, 209.5498
243.8557, 208.0645
244.3378, 211.2620
244.8199, 220.7498
245.3020, 231.5630
245.7841, 240.5337
246.2662, 248.6230
246.7484, 257.7432
247.2305, 271.5327
247.7126, 286.7773
248.1947, 294.5503
248.6768, 294.0625
249.1589, 286.7874
249.6411, 266.4507
250.1232, 240.9780
250.6053, 225.2153
251.0874, 228.8223
251.5695, 247.5774
252.0516, 269.8748
252.5338, 301.3569
253.0159, 326.3411
253.4980, 333.7878
253.9801, 331.0483
254.4622, 331.1858
254.9443, 344.3210
255.4265, 365.1340
255.9086, 373.6555
256.3907, 361.7437
256.8728, 350.3347
257.3549, 349.7000
257.8370, 355.2529
258.3192, 359.3838
258.8013, 357.9365
259.2834, 351.9536
259.7655, 344.5042
260.2476, 332.1987
260.7297, 324.0935
261.2119, 318.1379
261.6940, 318.5674
262.1761, 333.3391
262.6582, 370.9319
263.1403, 424.1321
263.6224, 465.1526
264.1046, 490.1577
264.5867, 507.9067
265.0688, 519.9580
265.5509, 528.3318
266.0330, 535.8987
266.5151, 544.5000
266.9973, 553.1580
267.4794, 557.4587
267.9615, 551.8430
268.4436, 551.0422
268.9257, 565.1104
269.4078, 584.7458
269.8900, 597.8396
270.3721, 598.3999
270.8542, 588.2168
271.3363, 571.0308
271.8184, 536.9490
272.3005, 512.9700
272.7827, 512.8350
273.2648, 521.3035
273.7469, 521.5781
274.2290, 505.0891
274.7111, 480.2236
275.1932, 468.7144
275.6754, 475.9827
276.1575, 487.2305
276.6396, 504.8418
277.1217, 524.7375
277.6038, 538.7283
278.0859, 540.8875
278.5681, 536.7607
279.0502, 539.7188
279.5323, 550.5137
280.0144, 570.0737
280.4965, 602.3799
280.9786, 639.3225
281.4608, 675.3916
281.9429, 708.5271
282.4250, 735.6733
282.9071, 750.1790
283.3892, 743.3413
283.8713, 746.1165
284.3535, 773.8123
284.8356, 806.5581
285.3177, 828.9189
285.7998, 835.6948
286.2819, 830.6785
286.7640, 816.7817
287.2462, 785.1870
287.7283, 768.8137
288.2104, 783.5195
288.6925, 807.9668
289.1746, 827.8018
289.6567, 839.0886
290.1389, 845.9141
290.6210, 855.6724
291.1031, 873.9172
291.5852, 883.6990
292.0673, 875.1575
292.5495, 862.9744
293.0316, 857.4417
293.5137, 859.8977
293.9958, 862.1270
294.4779, 851.5479
294.9601, 823.4910
295.4422, 804.9746
295.9243, 807.0503
296.4064, 813.0591
296.8885, 819.4492
297.3706, 823.7634
297.8528, 819.3787
298.3349, 793.9214
298.8170, 744.0728
299.2991, 707.9009
299.7812, 701.2346
300.2633, 696.4443
300.7455, 683.6782
301.2276, 661.8787
301.7097, 632.8232
302.1918, 593.1887
302.6739, 542.5737
303.1560, 503.4778
303.6382, 479.5950
304.1203, 465.4922
304.6024, 465.4170
305.0845, 474.4792
305.5666, 477.7190
306.0487, 459.1802
306.5309, 423.1011
307.0130, 405.1543
307.4951, 416.2571
307.9772, 431.5083
308.4593, 447.6306
308.9414, 459.8208
309.4236, 457.4458
309.9057, 427.3118
310.3878, 380.3252
310.8699, 353.3047
311.3520, 351.5044
311.8341, 361.4014
312.3163, 385.4470
312.7984, 414.3188
313.2805, 434.5051
313.7626, 439.2141
314.2447, 433.4153
314.7268, 426.3540
315.2090, 417.7576
315.6911, 408.6145
316.1732, 399.8687
316.6553, 390.5769
317.1374, 379.2922
317.6195, 365.0938
318.1017, 349.9900
318.5838, 337.2715
319.0659, 327.5798
319.5480, 316.2378
320.0301, 298.6746
320.5122, 280.1501
320.9944, 261.1956
321.4765, 239.1436
321.9586, 231.1479
322.4407, 270.3293
322.9228, 356.4546
323.4049, 408.6875
323.8871, 391.8313
324.3692, 341.1421
324.8513, 287.4248
325.3334, 231.4807
325.8155, 181.3000
326.2976, 140.9219
326.7798, 110.4268
327.2619, 92.02930
327.7440, 89.27197
328.2261, 95.10278
328.7082, 104.5750
329.1903, 117.2695
329.6725, 126.6724
330.1546, 132.0491
330.6367, 131.7668
331.1188, 119.2305
331.6009, 89.39673
332.0830, 58.50122
332.5652, 41.11279
333.0473, 34.74585
333.5294, 34.00244
334.0115, 43.80933
334.4936, 55.52734
334.9757, 55.49585
335.4579, 41.71143
335.9400, 27.01489
336.4221, 21.10693
336.9042, 22.40186
337.3863, 24.30469
337.8684, 28.62280
338.3506, 31.42261
338.8327, 27.55029
339.3148, 17.69434
339.7969, 9.334473
340.2790, 6.550537
340.7611, 8.997559
341.2433, 13.88354
341.7254, 26.62671
342.2075, 35.62524
342.6896, 32.68213
343.1717, 21.05273
343.6538, 10.39648
344.1360, 5.408447
344.6181, 3.168701
345.1002, 4.720703
345.5823, 22.27246
346.0644, 36.50391
346.5465, 48.61816
347.0287, 54.22852
347.5108, 42.41602
347.9929, 8.668213
348.4750, 31.46997
348.9571, 52.54102
349.4392, 47.01782
349.9214, 39.73145
350.4035, 29.68872
350.8856, 19.70435
351.3677, 11.50195
351.8498, 5.676514
352.3319, 3.145020
352.8141, 5.445801
353.2962, 14.02222
353.7783, 21.15161
354.2604, 31.32959
354.7425, 36.34106
355.2246, 27.18042
355.7068, 7.517822
356.1889, 9.571533
356.6710, 13.33862
357.1531, 4.020508
357.6352, 1.828125
358.1173, 3.097168
358.5995, 2.864258
359.0816, 0.7443850
359.5637, 5.994629
360.0458, 7.028320
360.5279, 1.177734
361.0100, 15.58423
361.4922, 20.83398
361.9743, 3.484619
362.4564, 9.846924
362.9385, 13.96606
363.4206, 12.34961
363.9027, 9.118164
364.3849, 5.553467
364.8670, 0.6855470
365.3491, 7.699951
365.8312, 22.10132
366.3133, 32.51587
366.7954, 30.55103
367.2776, 29.83521
367.7597, 40.22070
368.2418, 61.86206
368.7239, 86.55786
369.2060, 106.3208
369.6881, 120.7256
370.1703, 135.0847
370.6524, 152.0015
371.1345, 165.9722
371.6166, 175.8894
372.0987, 181.1553
372.5808, 181.0024
373.0630, 164.5657
373.5451, 140.3372
374.0272, 145.0681
374.5093, 194.2288
374.9915, 238.8872
375.4736, 248.1426
375.9557, 240.6243
376.4378, 242.8984
376.9199, 268.9399
377.4020, 300.3027
377.8842, 310.6211
378.3663, 298.4172
378.8484, 288.5618
379.3305, 288.9121
379.8126, 298.4563
380.2947, 315.1780
380.7769, 339.6882
381.2590, 368.9519
381.7411, 407.6267
382.2232, 450.7568
382.7053, 478.2812
383.1874, 480.4731
383.6696, 474.9551
384.1517, 485.0125
384.6338, 510.0374
385.1159, 537.1145
385.5980, 568.3899
386.0801, 597.1860
386.5623, 612.6692
387.0444, 613.4004
387.5265, 612.4495
388.0086, 621.8538
388.4907, 642.2000
388.9728, 656.9407
389.4550, 663.2258
389.9371, 666.5413
390.4192, 668.3665
390.9013, 669.7844
391.3834, 673.7019
391.8655, 682.3323
392.3477, 694.2688
392.8298, 702.3115
393.3119, 711.2083
393.7940, 710.7097
394.2761, 696.0007
394.7582, 672.2170
395.2404, 643.9365
395.7225, 612.9194
396.2046, 582.1909
396.6867, 556.5181
397.1688, 536.1060
397.6509, 521.3123
398.1331, 520.6130
398.6152, 518.2214
399.0973, 504.9592
399.5794, 479.9189
400.0615, 445.7573
400.5436, 401.3572
401.0258, 345.3711
401.5079, 307.1338
401.9900, 300.9541
402.4721, 298.8845
402.9542, 294.3074
403.4363, 286.6704
403.9185, 278.3196
404.4006, 271.8779
404.8827, 264.0427
405.3648, 244.2649
405.8469, 207.2974
406.3290, 175.1863
406.8112, 160.7363
407.2933, 151.0378
407.7754, 133.0886
408.2575, 102.7551
408.7396, 73.60303
409.2217, 60.90576
409.7039, 63.60864
410.1860, 64.02539
410.6681, 55.80615
411.1502, 48.12231
411.6323, 52.35767
412.1144, 67.23560
412.5966, 76.84229
413.0787, 71.03223
413.5608, 56.78247
414.0429, 45.33691
414.5250, 38.29541
415.0071, 31.16626
415.4893, 17.72119
415.9714, 0.1542970
416.4535, 11.01611
416.9356, 3.937500
417.4177, 0.4035640
417.8998, 17.24609
418.3820, 48.02002
418.8641, 65.47021
419.3462, 55.38501
419.8283, 28.41382
420.3104, 12.64014
420.7925, 11.99365
421.2747, 13.40576
421.7568, 17.94141
422.2389, 22.48901
422.7210, 25.17505
423.2031, 24.94727
423.6852, 19.10352
424.1674, 2.729492
424.6495, 29.43481
425.1316, 47.68994
425.6137, 43.16553
426.0958, 35.62891
426.5779, 30.81812
427.0601, 29.72534
427.5422, 33.88843
428.0243, 46.30933
428.5064, 62.12231
428.9885, 57.61865
429.4706, 10.34839
429.9528, 19.28784
430.4349, 11.42896
430.9170, 13.43359
431.3991, 37.20679
431.8812, 54.76270
432.3633, 67.95117
432.8455, 78.83008
433.3276, 87.49976
433.8097, 92.29785
434.2918, 87.73486
434.7739, 85.10181
435.2560, 96.17944
435.7382, 118.1917
436.2203, 134.2747
436.7024, 130.1904
437.1845, 116.3525
437.6666, 109.7000
438.1487, 110.3198
438.6309, 123.3718
439.1130, 160.0239
439.5951, 210.9124
440.0772, 247.2307
440.5593, 259.2305
441.0414, 266.0981
441.5236, 276.0842
442.0057, 289.2092
442.4878, 306.5571
442.9699, 329.5632
443.4520, 353.5947
443.9341, 369.6970
444.4163, 370.9526
444.8984, 381.2825
445.3805, 411.5383
445.8626, 444.7349
446.3447, 464.4988
446.8268, 471.5745
447.3090, 479.4434
447.7911, 498.9336
448.2732, 530.1475
448.7553, 572.6450
449.2374, 656.2952
449.7195, 718.1509
450.2017, 727.6511
450.6838, 712.5120
451.1659, 709.8530
451.6480, 735.8657
452.1301, 779.5774
452.6122, 823.9858
453.0944, 872.5559
453.5765, 910.0483
454.0586, 921.4749
454.5407, 930.3218
455.0228, 954.9453
455.5049, 993.1531
455.9871, 1023.062
456.4692, 1021.601
456.9513, 998.3789
457.4334, 988.7402
457.9156, 998.6396
458.3977, 1008.154
458.8798, 1003.519
459.3619, 989.8040
459.8440, 975.9775
460.3261, 964.9011
460.8083, 952.4170
461.2904, 934.2341
461.7725, 911.7466
462.2546, 889.3621
462.7367, 867.9189
463.2188, 849.1323
463.7010, 839.5190
464.1831, 848.3787
464.6652, 834.9587
465.1473, 769.4736
465.6294, 696.9529
466.1115, 656.7224
466.5937, 650.0979
467.0758, 654.8779
467.5579, 653.9326
468.0400, 647.5764
468.5221, 642.9417
469.0042, 635.2991
469.4864, 635.1604
469.9685, 647.1091
470.4506, 666.7195
470.9327, 690.8140
471.4148, 718.0610
471.8969, 743.5891
472.3791, 759.1091
472.8612, 762.9741
473.3433, 764.3853
473.8254, 774.2966
474.3075, 770.8635
474.7896, 729.5508
475.2718, 661.6343
475.7539, 610.4875
476.2360, 618.9917
476.7181, 656.6614
477.2002, 650.0847
477.6823, 591.9465
478.1645, 538.2441
478.6466, 520.5020
479.1287, 522.5435
479.6108, 512.9116
480.0929, 486.8479
480.5750, 456.7451
481.0572, 422.7656
481.5393, 390.8591
482.0214, 375.6133
482.5035, 380.8535
482.9856, 389.4890
483.4677, 382.1294
483.9499, 355.1287
484.4320, 331.2039
484.9141, 306.3862
485.3962, 288.1267
485.8783, 285.9265
486.3604, 293.1206
486.8426, 294.6848
487.3247, 281.9353
487.8068, 258.8743
488.2889, 242.3545
488.7710, 235.2751
489.2531, 229.9045
489.7353, 226.4282
490.2174, 223.4236
490.6995, 218.7512
491.1816, 212.8418
491.6637, 209.3899
492.1458, 209.5154
492.6280, 214.0459
493.1101, 231.4807
493.5922, 269.2578
494.0743, 304.0396
494.5564, 321.0173
495.0385, 327.4128
495.5207, 332.6433
496.0028, 337.4644
496.4849, 345.5530
496.9670, 357.4438
497.4491, 372.7898
497.9312, 394.5107
498.4134, 426.2549
498.8955, 457.9897
499.3776, 472.0122
499.8597, 461.3433
500.3418, 472.8557
500.8239, 531.3899
501.3061, 595.1541
501.7882, 632.7810
502.2703, 650.0442
502.7524, 670.1533
503.2345, 707.8411
503.7166, 760.3152
504.1988, 817.6077
504.6809, 887.6294
505.1630, 949.7957
505.6451, 999.4993
506.1272, 1045.119
506.6093, 1094.092
507.0915, 1145.663
507.5736, 1191.337
508.0557, 1217.323
508.5378, 1226.884
509.0199, 1258.026
509.5020, 1325.170
509.9842, 1386.595
510.4663, 1418.102
510.9484, 1431.296
511.4305, 1444.582
511.9126, 1472.002
512.3948, 1479.263
512.8769, 1422.469
513.3590, 1321.293
513.8411, 1243.430
514.3232, 1210.971
514.8054, 1188.240
515.2875, 1128.573
515.7696, 1022.968
516.2517, 941.3213
516.7338, 901.6714
517.2159, 871.1543
517.6981, 833.8601
518.1802, 789.5674
518.6623, 740.6377
519.1444, 687.5896
519.6265, 634.5825
520.1086, 593.8115
520.5908, 571.3687
521.0729, 550.0039
521.5550, 529.7063
522.0371, 509.1750
522.5192, 487.3657
523.0013, 464.4761
523.4835, 441.2214
523.9656, 415.9121
524.4477, 390.9863
524.9298, 376.5962
525.4119, 375.4590
525.8940, 375.2864
526.3762, 373.8701
526.8583, 368.4712
527.3404, 353.5178
527.8225, 324.6440
528.3046, 299.0461
528.7867, 288.4785
529.2689, 286.3555
529.7510, 280.0383
530.2331, 267.3044
530.7152, 257.5483
531.1973, 260.5210
531.6794, 276.4568
532.1616, 285.6987
532.6437, 290.0796
533.1258, 286.8499
533.6079, 275.4397
534.0900, 255.9045
534.5721, 223.8218
535.0543, 178.6113
535.5364, 134.1980
536.0185, 110.6050
536.5006, 110.2471
536.9827, 119.4175
537.4648, 152.5166
537.9470, 179.1863
538.4291, 185.2783
538.9112, 175.1858
539.3933, 157.9883
539.8754, 132.1565
540.3575, 108.5894
540.8397, 107.4265
541.3218, 125.7192
541.8039, 128.7612
542.2860, 100.0728
542.7681, 61.94897
543.2502, 47.29248
543.7324, 57.61206
544.2145, 65.19531
544.6966, 66.73535
545.1787, 63.64673
545.6608, 53.35693
546.1429, 38.88135
546.6251, 29.46606
547.1072, 30.93921
547.5893, 38.77173
548.0714, 39.68774
548.5535, 28.99951
549.0356, 19.55200
549.5178, 10.58862
549.9999, 4.085205
550.4820, 1.639648
550.9641, 2.992188
551.4462, 6.888184
551.9283, 15.87036
552.4105, 25.37524
552.8926, 18.70972
553.3747, 8.802734
553.8568, 28.89185
554.3389, 24.75293
554.8210, 9.849854
555.3032, 6.029785
555.7853, 16.76147
556.2674, 24.24805
556.7495, 18.94092
557.2316, 7.917480
557.7137, 1.612061
558.1959, 8.405518
558.6780, 11.46948
559.1601, 10.23560
559.6422, 4.574463
560.1243, 6.415039
560.6064, 39.48950
561.0886, 56.75146
561.5707, 40.70386
562.0528, 16.14233
562.5349, 6.631592
563.0170, 14.99243
563.4991, 25.74951
563.9813, 21.81348
564.4634, 6.049561
564.9455, 4.913574
565.4276, 28.19458
565.9097, 42.72607
566.3918, 22.76660
566.8740, 11.53271
567.3561, 34.39160
567.8382, 39.94238
568.3203, 42.31763
568.8024, 49.05420
569.2845, 57.84521
569.7667, 63.47534
570.2488, 65.26318
570.7309, 69.85596
571.2130, 83.73657
571.6951, 106.2056
572.1772, 124.3223
572.6594, 139.1265
573.1415, 148.4907
573.6236, 144.3281
574.1057, 138.5952
574.5878, 145.4834
575.0699, 167.3206
575.5521, 193.4185
576.0342, 211.7405
576.5163, 222.9216
576.9984, 240.4272
577.4805, 270.7495
577.9626, 294.5181
578.4448, 292.0710
578.9269, 280.7012
579.4090, 285.1509
579.8911, 313.9697
580.3732, 345.6401
580.8553, 368.8679
581.3375, 385.7134
581.8196, 398.6360
582.3017, 408.1396
582.7838, 417.5955
583.2659, 429.4036
583.7480, 443.6057
584.2302, 462.9231
584.7123, 506.8613
585.1944, 531.3943
585.6765, 507.2683
586.1586, 471.3423
586.6407, 466.2297
587.1229, 498.8313
587.6050, 537.8608
588.0871, 547.8738
588.5692, 532.3564
589.0513, 530.6543
589.5334, 548.1843
590.0156, 567.0503
590.4977, 580.9336
590.9798, 589.7998
591.4619, 591.8701
591.9440, 584.2913
592.4261, 578.3142
592.9083, 581.5967
593.3904, 589.2678
593.8725, 593.1274
594.3546, 592.4631
594.8367, 595.0098
595.3188, 609.5903
595.8010, 632.5706
596.2831, 632.4932
596.7652, 572.9326
597.2473, 536.2683
597.7294, 547.6770
598.2115, 573.6738
598.6937, 587.2197
599.1758, 583.8572
599.6579, 572.2534
600.1400, 554.4397
600.6221, 534.4563
601.1042, 531.5801
601.5864, 550.8540
602.0685, 562.0115
602.5506, 545.4021
603.0327, 516.5598
603.5148, 502.9248
603.9969, 507.8516
604.4791, 513.9209
604.9612, 518.5420
605.4433, 520.0295
605.9254, 516.2827
606.4075, 507.6150
606.8896, 495.1414
607.3718, 478.8333
607.8539, 461.3523
608.3360, 453.1672
608.8181, 464.2231
609.3002, 464.8926
609.7823, 446.5588
610.2645, 423.1018
610.7466, 399.9895
611.2287, 378.7307
611.7108, 361.3755
612.1929, 349.7344
612.6750, 345.2947
613.1572, 355.4802
613.6393, 377.8167
614.1214, 383.5720
614.6035, 359.1602
615.0856, 323.9509
615.5677, 307.0422
616.0499, 314.6609
616.5320, 304.4355
617.0141, 248.5156
617.4962, 199.7935
617.9783, 194.3936
618.4604, 215.4209
618.9426, 230.0344
619.4247, 227.5652
619.9068, 213.2378
620.3889, 188.3486
620.8710, 148.5049
621.3531, 125.8362
621.8353, 131.8867
622.3174, 144.6599
622.7995, 156.2822
623.2816, 162.8203
623.7637, 157.6245
624.2458, 135.4131
624.7280, 112.5654
625.2101, 97.05957
625.6922, 87.61670
626.1743, 83.68555
626.6564, 85.24780
627.1385, 86.85571
627.6207, 82.85864
628.1028, 73.48853
628.5849, 66.53271
629.0670, 63.81885
629.5491, 61.46289
630.0313, 54.38110
630.5134, 50.35669
630.9955, 61.86694
631.4776, 88.20532
631.9597, 108.8213
632.4418, 103.6719
632.9240, 81.99097
633.4061, 69.58813
633.8882, 67.11865
634.3703, 69.09399
634.8524, 75.42285
635.3345, 82.88892
635.8167, 85.89819
636.2988, 81.85718
636.7809, 79.55664
637.2630, 85.69287
637.7451, 90.03687
638.2272, 82.08105
638.7094, 66.03931
639.1915, 53.63232
639.6736, 50.96265
640.1557, 55.24878
640.6378, 61.75488
641.1199, 71.45215
641.6021, 79.23584
642.0842, 84.93604
642.5663, 88.27979
643.0484, 87.76562
643.5305, 85.75342
644.0126, 86.86646
644.4948, 96.69360
644.9769, 103.7844
645.4590, 98.02661
645.9411, 84.75195
646.4232, 71.81567
646.9053, 61.36426
647.3875, 60.43457
647.8696, 79.11670
648.3517, 116.0347
648.8338, 129.7454
649.3159, 92.77832
649.7980, 69.20679
650.2802, 80.95435
650.7623, 102.0383
651.2444, 107.6865
651.7265, 95.87329
652.2086, 85.07446
652.6907, 92.55615
653.1729, 108.2415
653.6550, 109.6177
654.1371, 96.90967
654.6192, 90.52026
655.1013, 101.1809
655.5834, 118.8472
656.0656, 127.6619
656.5477, 128.3643
657.0298, 114.9148
657.5119, 62.39185
657.9940, 20.74438
658.4761, 20.51587
658.9583, 48.21558
659.4404, 81.09717
659.9225, 110.0508
660.4046, 129.9722
660.8867, 131.0791
661.3688, 114.3352
661.8510, 94.68506
662.3331, 70.51587
662.8152, 51.16577
663.2974, 43.88013
663.7795, 46.01465
664.2616, 48.73022
664.7437, 50.20630
665.2258, 55.29980
665.7079, 71.03418
666.1901, 87.45312
666.6722, 96.55225
667.1543, 96.58984
667.6364, 84.58472
668.1185, 55.80396
668.6006, 20.27563
669.0828, 9.877686
669.5649, 32.45288
670.0470, 52.02856
670.5291, 65.39844
671.0112, 71.10645
671.4933, 62.60034
671.9755, 44.61084
672.4576, 37.21069
672.9397, 59.79517
673.4218, 80.45020
673.9039, 75.34082
674.3860, 53.45703
674.8682, 26.07690
675.3503, 2.535156
675.8324, 16.40674
676.3145, 5.109131
676.7966, 59.77368
677.2787, 85.18188
677.7609, 61.47998
678.2430, 40.66577
678.7251, 39.06274
679.2072, 41.58691
679.6893, 34.05200
680.1714, 15.85718
680.6536, 0.3820800
681.1357, 7.441650
681.6178, 9.778564
682.0999, 13.63940
682.5820, 17.83984
683.0641, 15.69995
683.5463, 4.121826
684.0284, 10.66235
684.5105, 19.76123
684.9926, 22.04834
685.4747, 23.93213
685.9568, 26.92969
686.4390, 27.77222
686.9211, 25.51782
687.4032, 20.63013
687.8853, 11.14795
688.3674, 3.359619
688.8495, 11.77563
689.3317, 1.321289
689.8138, 24.40479
690.2959, 32.67969
690.7780, 25.49731
691.2601, 18.26416
691.7422, 19.88647
692.2244, 23.54761
692.7065, 13.38916
693.1886, 24.20117
693.6707, 43.32373
694.1528, 30.99609
694.6349, 15.25195
695.1171, 8.217529
695.5992, 7.062988
696.0813, 6.044922
696.5634, 3.471436
697.0455, 2.003662
697.5276, 14.72046
698.0098, 31.54639
698.4919, 42.68311
698.9740, 47.35352
699.4561, 42.68311
699.9382, 23.19653
700.4203, 4.113281
700.9025, 17.96729
701.3846, 11.44458
701.8667, 2.087646
702.3488, 15.05029
702.8309, 30.31030
703.3130, 34.44897
703.7952, 32.71436
704.2773, 38.80884
704.7594, 56.77734
705.2415, 75.57373
705.7236, 77.21631
706.2057, 65.33838
706.6879, 59.92261
707.1700, 64.81274
707.6521, 68.78296
708.1342, 63.34839
708.6163, 50.68945
709.0984, 40.54810
709.5806, 34.47021
710.0627, 28.72437
710.5448, 16.63623
711.0269, 9.917725
711.5090, 23.38770
711.9911, 49.86792
712.4733, 66.36084
712.9554, 57.34033
713.4375, 43.28003
713.9196, 61.90918
714.4017, 106.2102
714.8839, 124.6621
715.3660, 104.8169
715.8481, 77.85938
716.3302, 68.25952
716.8123, 72.77100
717.2944, 69.14624
717.7766, 44.83130
718.2587, 30.68237
718.7408, 35.76660
719.2229, 47.47485
719.7050, 60.24634
720.1871, 70.88086
720.6693, 73.62646
721.1514, 63.04614
721.6335, 48.43408
722.1156, 42.49829
722.5977, 44.58936
723.0798, 52.50122
723.5620, 67.22925
724.0441, 79.25098
724.5262, 80.02710
725.0083, 71.05176
725.4904, 63.64478
725.9725, 57.04248
726.4547, 52.95850
726.9368, 53.41455
727.4189, 55.20850
727.9010, 51.59790
728.3831, 46.57056
728.8652, 54.86890
729.3474, 90.28101
729.8295, 129.2036
730.3116, 138.9133
730.7937, 124.2629
731.2758, 102.9175
731.7579, 76.46338
732.2401, 63.48120
732.7222, 84.84595
733.2043, 131.5986
733.6864, 147.3188
734.1685, 102.8877
734.6506, 71.55249
735.1328, 58.21436
735.6149, 56.82275
736.0970, 72.18701
736.5791, 96.17798
737.0612, 106.4978
737.5433, 86.97876
738.0255, 62.73462
738.5076, 61.53271
738.9897, 77.39429
739.4718, 96.87012
739.9539, 117.3115
740.4360, 132.2664
740.9182, 137.2202
741.4003, 133.8135
741.8824, 125.7227
742.3645, 102.8960
742.8466, 92.45386
743.3287, 106.6733
743.8109, 122.8855
744.2930, 126.4841
744.7751, 121.9141
745.2572, 122.6892
745.7393, 136.7246
746.2214, 148.8530
746.7036, 146.3508
747.1857, 135.6736
747.6678, 124.1553
748.1499, 113.0510
748.6320, 103.3782
749.1141, 95.71045
749.5963, 90.41089
750.0784, 88.62744
750.5605, 91.10571
751.0426, 93.24854
751.5247, 101.5032
752.0068, 104.6475
752.4890, 89.22070
752.9711, 65.37891
753.4532, 55.68945
753.9353, 70.95386
754.4174, 83.62476
754.8995, 71.23340
755.3817, 54.79395
755.8638, 62.18726
756.3459, 89.86523
756.8280, 117.1333
757.3101, 133.2773
757.7922, 137.2632
758.2744, 121.0415
758.7565, 80.70239
759.2386, 64.24365
759.7207, 90.79663
760.2028, 105.5962
760.6849, 62.06860
761.1671, 7.027588
761.6492, 35.07910
762.1313, 8.098145
762.6134, 17.21655
763.0955, 26.76270
763.5776, 31.15527
764.0598, 33.93701
764.5419, 38.58301
765.0240, 54.31836
765.5061, 83.41113
765.9882, 106.0854
766.4703, 89.91602
766.9525, 45.26611
767.4346, 31.98486
767.9167, 55.74902
768.3988, 74.19971
768.8809, 66.81299
769.3630, 47.65869
769.8452, 38.66748
770.3273, 41.58545
770.8094, 46.30322
771.2915, 52.42139
771.7736, 61.07959
772.2557, 81.25928
772.7379, 99.69141
773.2200, 93.63428
773.7021, 61.74023
774.1842, 38.27100
774.6663, 62.68115
775.1484, 101.9189
775.6306, 97.04102
776.1127, 57.71631
776.5948, 34.04688
777.0769, 42.47705
777.5590, 59.54834
778.0411, 57.81445
778.5233, 37.63770
779.0054, 29.30566
779.4875, 42.16113
779.9696, 51.48877
780.4517, 46.39502
780.9338, 39.50684
781.4160, 40.82471
781.8981, 49.78027
782.3802, 59.85596
782.8623, 73.38086
783.3444, 82.50879
783.8265, 79.92236
784.3087, 70.85742
784.7908, 60.87695
785.2729, 51.91260
785.7550, 45.34131
786.2371, 41.06641
786.7192, 42.28320
787.2014, 64.49805
787.6835, 111.6313
788.1656, 127.4761
788.6477, 90.76953
789.1298, 51.06250
789.6119, 45.34473
790.0941, 64.20117
790.5762, 71.75537
791.0583, 66.14697
791.5404, 55.60596
792.0225, 23.22754
792.5046, 1.888672
792.9868, 6.763672
793.4689, 37.65820
793.9510, 65.70654
794.4331, 81.41797
794.9152, 85.32666
795.3973, 70.09961
795.8795, 44.84668
796.3616, 32.89014
796.8437, 35.56641
797.3258, 49.43457
797.8079, 75.81494
798.2900, 100.7969
798.7722, 97.74463
799.2543, 58.01758
799.7364, 34.56250
800.2185, 35.22705
800.7006, 41.57910
801.1827, 52.66455
801.6649, 63.64355
802.1470, 68.02734
802.6291, 65.44482
803.1112, 65.12842
803.5933, 76.78076
804.0754, 86.20752
804.5576, 79.22070
805.0397, 63.67090
805.5218, 52.42676
806.0039, 48.78809
806.4860, 50.61816
806.9681, 58.10205
807.4503, 68.61426
807.9324, 67.22266
808.4145, 51.64844
808.8966, 53.81006
809.3787, 89.39355
809.8608, 121.2378
810.3430, 112.7627
810.8251, 71.48096
811.3072, 51.75781
811.7893, 68.84521
812.2714, 84.64844
812.7535, 104.2021
813.2357, 114.3311
813.7178, 96.86377
814.1999, 64.78955
814.6820, 48.53613
815.1641, 61.19287
815.6462, 80.05811
816.1284, 88.73682
816.6105, 90.50830
817.0926, 89.97070
817.5747, 87.66699
818.0568, 83.77979
818.5389, 78.50439
819.0211, 71.20996
819.5032, 60.18848
819.9853, 48.28467
820.4674, 36.46289
820.9495, 22.68750
821.4316, 8.866699
821.9138, 4.423828
822.3959, 13.50439
822.8780, 12.96387
823.3601, 2.754395
823.8422, 10.27393
824.3243, 28.89062
824.8065, 45.94482
825.2886, 68.48047
825.7707, 84.42334
826.2528, 71.90625
826.7349, 35.49854
827.2170, 7.886719
827.6992, 10.21875
828.1813, 29.81787
828.6635, 59.18066
829.1456, 92.00879
829.6277, 105.4702
830.1098, 96.55518
830.5919, 76.69678
831.0740, 51.04639
831.5562, 25.78955
832.0383, 22.78760
832.5204, 51.34570
833.0025, 65.75977
833.4846, 57.08789
833.9667, 46.55371
834.4489, 43.61670
834.9310, 46.33154
835.4131, 55.80469
835.8952, 76.27344
836.3773, 82.23877
836.8594, 46.23291
837.3416, 15.16309
837.8237, 26.85938
838.3058, 59.39502
838.7879, 77.64941
839.2700, 73.03857
839.7521, 59.51855
840.2343, 47.10107
840.7164, 35.80713
841.1985, 23.54736
841.6806, 15.08594
842.1627, 33.99756
842.6448, 87.33203
843.1270, 128.9312
843.6091, 112.4644
844.0912, 51.86084
844.5733, 24.22949
845.0554, 47.95703
845.5375, 59.68652
846.0197, 38.47656
846.5018, 16.38477
846.9839, 22.60107
847.4660, 43.39941
847.9481, 43.77637
848.4302, 6.304199
848.9124, 13.95850
849.3945, 12.91064
849.8766, 47.27490
850.3587, 65.35791
850.8408, 69.69141
851.3229, 65.62793
851.8051, 55.43604
852.2872, 47.56836
852.7693, 50.81299
853.2514, 60.84521
853.7335, 72.70947
854.2156, 84.22314
854.6978, 83.21240
855.1799, 65.86230
855.6620, 46.04346
856.1441, 37.26953
856.6262, 38.42090
857.1083, 41.77783
857.5905, 45.94043
858.0726, 58.04150
858.5547, 90.65283
859.0368, 116.0664
859.5189, 108.7876
860.0010, 78.63818
860.4832, 53.55615
860.9653, 33.04639
861.4474, 21.13525
861.9295, 23.79541
862.4116, 30.10303
862.8937, 37.99561
863.3759, 42.84521
863.8580, 34.36328
864.3401, 9.974609
864.8222, 8.974121
865.3043, 4.988770
865.7864, 13.42822
866.2686, 39.85156
866.7507, 70.39209
867.2328, 96.14014
867.7149, 113.9956
868.1970, 116.9141
868.6791, 94.77979
869.1613, 55.74561
869.6434, 33.28418
870.1255, 27.87500
870.6076, 37.92773
871.0897, 72.13330
871.5718, 100.0542
872.0540, 96.56055
872.5361, 70.45410
873.0182, 53.06982
873.5003, 49.79248
873.9824, 45.74121
874.4645, 41.75000
874.9467, 36.03027
875.4288, 27.07031
875.9109, 16.14062
876.3930, 3.397949
876.8751, 11.16943
877.3572, 19.89453
877.8394, 23.81250
878.3215, 15.89697
878.8036, 25.43115
879.2857, 76.80273
879.7678, 96.20654
880.2499, 77.65381
880.7321, 45.31885
881.2142, 12.12646
881.6963, 11.85010
882.1784, 2.934570
882.6605, 49.55127
883.1426, 76.57812
883.6248, 76.31396
884.1069, 65.80273
884.5890, 54.50049
885.0711, 41.29346
885.5532, 22.50732
886.0353, 7.044434
886.5175, 19.46191
886.9996, 4.909180
887.4817, 10.26465
887.9638, 18.75488
888.4459, 20.88818
888.9280, 11.61816
889.4102, 9.449219
889.8923, 13.26562
890.3744, 27.01660
890.8565, 57.33008
891.3386, 54.29150
891.8207, 35.60840
892.3029, 12.37842
892.7850, 10.25391
893.2671, 24.70801
893.7492, 26.85205
894.2313, 22.01270
894.7134, 13.55176
895.1956, 2.139648
895.6777, 20.37598
896.1598, 47.36230
896.6419, 47.08643
897.1240, 6.728516
897.6061, 38.33789
898.0883, 37.81445
898.5704, 0.4482420
899.0525, 18.26318
899.5346, 17.14014
900.0167, 19.91064
900.4988, 35.65967
900.9810, 46.52246
901.4631, 33.58740
901.9452, 0.5854490
902.4273, 25.36572
902.9094, 48.61230
903.3915, 54.08789
903.8737, 24.61768
904.3558, 4.368652
904.8379, 11.75586
905.3200, 8.452148
905.8021, 15.82568
906.2842, 39.49219
906.7664, 51.49072
907.2485, 41.50684
907.7306, 26.97900
908.2127, 14.36914
908.6948, 4.433105
909.1769, 2.185547
909.6591, 5.685547
910.1412, 7.678223
910.6233, 9.955566
911.1054, 9.724121
911.5875, 1.042969
912.0696, 10.96631
912.5518, 14.93506
913.0339, 11.26807
913.5160, 9.972656
913.9981, 16.73975
914.4802, 28.06348
914.9623, 41.40137
915.4445, 55.26318
915.9266, 53.42480
916.4087, 34.11865
916.8908, 26.03662
917.3729, 41.51221
917.8550, 66.57861
918.3372, 87.52637
918.8193, 103.3823
919.3014, 95.72217
919.7835, 46.59473
920.2656, 16.66895
920.7477, 29.48535
921.2299, 46.49805
921.7120, 32.46240
922.1941, 3.383301
922.6762, 2.016602
923.1583, 47.98926
923.6404, 80.79150
924.1226, 90.33350
924.6047, 85.36719
925.0868, 52.96973
925.5689, 18.38428
926.0510, 16.44922
926.5331, 50.12695
927.0153, 88.17432
927.4974, 125.5503
927.9795, 149.8350
928.4616, 139.9839
928.9437, 117.6157
929.4258, 115.4863
929.9080, 132.3896
930.3901, 147.9277
930.8722, 152.2852
931.3543, 142.7139
931.8364, 100.8120
932.3185, 45.45068
932.8007, 34.49951
933.2828, 64.57617
933.7649, 93.87842
934.2470, 107.5977
934.7291, 108.1118
935.2112, 96.33301
935.6934, 76.14502
936.1755, 67.46777
936.6576, 71.52393
937.1397, 90.95068
937.6218, 135.7114
938.1039, 167.1597
938.5861, 154.2129
939.0682, 113.2393
939.5503, 86.55908
940.0324, 78.38770
940.5145, 80.37158
940.9966, 106.2007
941.4788, 122.8862
941.9609, 110.0649
942.4430, 90.50195
942.9251, 88.98926
943.4072, 104.7139
943.8893, 114.7412
944.3715, 119.2124
944.8536, 114.5771
945.3357, 86.17041
945.8178, 58.74414
946.2999, 53.36035
946.7820, 64.89893
947.2642, 80.33398
947.7463, 97.98975
948.2284, 107.6006
948.7105, 90.57031
949.1926, 69.72900
949.6747, 70.28125
950.1569, 82.54541
950.6390, 84.25879
951.1211, 73.10156
951.6032, 67.68311
952.0853, 84.88379
952.5674, 106.3618
953.0496, 100.5439
953.5317, 76.64258
954.0138, 55.50488
954.4959, 42.16504
954.9780, 58.65234
955.4601, 114.5308
955.9423, 172.9082
956.4244, 173.1919
956.9065, 122.8633
957.3886, 104.4570
957.8707, 119.9580
958.3528, 136.5366
958.8350, 145.1416
959.3171, 156.8130
959.7992, 182.6045
960.2813, 215.5742
960.7634, 233.6240
961.2455, 229.2207
961.7277, 240.0693
962.2098, 277.6470
962.6919, 308.8765
963.1740, 318.2041
963.6561, 315.4814
964.1382, 309.8682
964.6204, 299.5752
965.1025, 309.5317
965.5846, 363.1538
966.0667, 404.6006
966.5488, 413.4785
967.0309, 417.0020
967.5131, 427.1733
967.9952, 448.1987
968.4773, 490.1992
968.9594, 562.8281
969.4415, 626.4741
969.9236, 668.9072
970.4058, 696.5684
970.8879, 698.3213
971.3700, 696.0981
971.8521, 722.2856
972.3342, 776.6831
972.8163, 829.3350
973.2985, 865.7207
973.7806, 893.0903
974.2627, 916.5161
974.7448, 934.8843
975.2269, 941.2100
975.7090, 941.6411
976.1912, 957.1079
976.6733, 994.6035
977.1554, 1028.265
977.6375, 1025.101
978.1196, 1005.512
978.6017, 1011.951
979.0839, 1034.254
979.5660, 1036.625
980.0481, 1014.706
980.5302, 997.2676
981.0123, 1005.357
981.4944, 1019.430
981.9766, 996.8340
982.4587, 944.8755
982.9408, 921.7598
983.4229, 929.9927
983.9050, 927.3696
984.3871, 897.0361
984.8693, 865.6626
985.3514, 863.6465
985.8335, 884.3823
986.3156, 892.2441
986.7977, 887.2090
987.2798, 864.3838
987.7620, 811.3745
988.2441, 777.8735
988.7262, 796.3271
989.2083, 844.4614
989.6904, 883.6514
990.1725, 914.0854
990.6547, 934.7856
991.1368, 932.0254
991.6189, 946.4038
992.1011, 996.7744
992.5832, 1055.700
993.0653, 1099.992
993.5474, 1134.535
994.0295, 1178.204
994.5117, 1235.783
994.9938, 1294.237
995.4759, 1342.810
995.9580, 1404.125
996.4401, 1496.728
996.9222, 1600.051
997.4044, 1694.360
997.8865, 1777.796
998.3686, 1851.864
998.8507, 1900.150
999.3328, 1960.958
999.8149, 2052.736
1000.297, 2152.278
1000.779, 2244.517
1001.261, 2331.212
1001.743, 2418.471
1002.226, 2507.534
1002.708, 2592.191
1003.190, 2668.547
1003.672, 2741.863
1004.154, 2822.108
1004.636, 2897.794
1005.118, 2949.858
1005.600, 2983.917
1006.082, 3022.081
1006.565, 3074.175
1007.047, 3128.397
1007.529, 3185.232
1008.011, 3231.818
1008.493, 3247.725
1008.975, 3244.067
1009.457, 3234.005
1009.939, 3225.508
1010.422, 3241.729
1010.904, 3307.464
1011.386, 3376.440
1011.868, 3379.437
1012.350, 3347.733
1012.832, 3348.569
1013.314, 3375.905
1013.796, 3386.331
1014.278, 3364.906
1014.761, 3327.942
1015.243, 3290.337
1015.725, 3249.132
1016.207, 3198.834
1016.689, 3139.073
1017.171, 3077.289
1017.653, 3010.791
1018.135, 2899.325
1018.617, 2720.848
1019.100, 2526.479
1019.582, 2396.162
1020.064, 2315.349
1020.546, 2198.374
1021.028, 2048.059
1021.510, 1913.602
1021.992, 1806.715
1022.474, 1710.801
1022.957, 1616.247
1023.439, 1519.104
1023.921, 1406.953
1024.403, 1279.007
1024.885, 1170.032
1025.367, 1082.460
1025.849, 993.5933
1026.331, 890.9531
1026.813, 807.9673
1027.296, 782.4741
1027.778, 795.3306
1028.260, 767.5942
1028.742, 686.1475
1029.224, 631.4424
1029.706, 616.4653
1030.188, 598.5889
1030.670, 559.0381
1031.152, 511.4907
1031.635, 472.4224
1032.117, 441.1914
1032.599, 406.1851
1033.081, 362.0801
1033.563, 329.6841
1034.045, 316.8228
1034.527, 305.3813
1035.009, 282.7007
1035.492, 259.0469
1035.974, 252.7983
1036.456, 266.3945
1036.938, 271.8403
1037.420, 274.3066
1037.902, 258.4233
1038.384, 204.1646
1038.866, 151.6309
1039.349, 125.4028
1039.831, 119.4438
1040.313, 123.1323
1040.795, 142.7363
1041.277, 148.8657
1041.759, 126.8716
1042.241, 111.4146
1042.723, 115.0078
1043.205, 123.0293
1043.688, 126.7178
1044.170, 125.7559
1044.652, 119.7090
1045.134, 108.0562
1045.616, 92.64502
1046.098, 59.29150
1046.580, 40.04102
1047.062, 63.39648
1047.544, 92.48975
1048.027, 82.86719
1048.509, 44.16943
1048.991, 33.48828
1049.473, 83.28516
1049.955, 112.0625
1050.437, 97.82373
1050.919, 69.08057
1051.401, 19.39746
1051.884, 24.10596
1052.366, 19.23633
1052.848, 29.00439
1053.330, 53.02588
1053.812, 21.70508
1054.294, 9.094238
1054.776, 26.05615
1055.258, 38.14160
1055.740, 51.83740
1056.223, 63.51904
1056.705, 65.37695
1057.187, 56.90674
1057.669, 48.00293
1058.151, 42.20215
1058.633, 35.38135
1059.115, 24.90674
1059.597, 14.14893
1060.079, 2.770508
1060.562, 5.655762
1061.044, 4.027832
1061.526, 8.715820
1062.008, 15.26074
1062.490, 3.333984
1062.972, 8.863281
1063.454, 11.42969
1063.936, 12.66602
1064.419, 24.72607
1064.901, 39.72900
1065.383, 37.71289
1065.865, 13.09277
1066.347, 6.245117
1066.829, 8.459961
1067.311, 3.917480
1067.793, 1.119629
1068.276, 8.541504
1068.758, 45.80908
1069.240, 94.66602
1069.722, 113.2905
1070.204, 87.64355
1070.686, 59.13086
1071.168, 31.91895
1071.650, 23.14014
1072.132, 59.33105
1072.615, 106.7100
1073.097, 131.9521
1073.579, 135.9014
1074.061, 129.8501
1074.543, 113.6426
1075.025, 107.9097
1075.507, 132.0703
1075.989, 158.2085
1076.472, 164.1221
1076.954, 166.3203
1077.436, 193.6675
1077.918, 235.5190
1078.400, 247.5464
1078.882, 207.7666
1079.364, 173.6289
1079.846, 170.4590
1080.328, 183.2310
1080.811, 214.2915
1081.293, 247.5693
1081.775, 262.9717
1082.257, 262.4883
1082.739, 262.1689
1083.221, 266.7998
1083.703, 273.2939
1084.185, 288.3521
1084.667, 295.9492
1085.150, 275.4829
1085.632, 248.2764
1086.114, 241.3989
1086.596, 254.0269
1087.078, 269.3447
1087.560, 286.9585
1088.042, 292.2812
1088.524, 263.5635
1089.007, 237.4863
1089.489, 244.3252
1089.971, 262.9248
1090.453, 265.9580
1090.935, 253.5469
1091.417, 243.6753
1091.899, 243.6099
1092.381, 241.9136
1092.864, 235.1304
1093.346, 224.3643
1093.828, 198.7632
1094.310, 177.1592
1094.792, 191.5708
1095.274, 234.3682
1095.756, 255.9316
1096.238, 234.9946
1096.720, 209.9805
1097.203, 181.5864
1097.685, 165.5996
1098.167, 184.4824
1098.649, 211.8057
1099.131, 212.9600
1099.613, 190.9326
1100.095, 180.1504
1100.577, 206.9795
1101.059, 205.9038
1101.542, 123.6323
1102.024, 52.36426
1102.506, 51.69873
1102.988, 77.62793
1103.470, 78.93896
1103.952, 56.84033
1104.434, 41.86475
1104.916, 38.22070
1105.399, 43.35303
1105.881, 66.08057
1106.363, 86.24414
1106.845, 98.41357
1107.327, 100.9546
1107.809, 87.16357
1108.291, 60.91943
1108.773, 43.51807
1109.255, 40.37256
1109.738, 38.61279
1110.220, 35.96240
1110.702, 39.07715
1111.184, 62.51416
1111.666, 82.76953
1112.148, 69.88574
1112.630, 28.65088
1113.112, 2.649902
1113.594, 3.453613
1114.077, 3.964844
1114.559, 2.883301
1115.041, 5.452148
1115.523, 20.77979
1116.005, 33.81348
1116.487, 26.59424
1116.969, 3.221680
1117.451, 10.23389
1117.934, 9.224609
1118.416, 6.397461
1118.898, 4.990723
1119.380, 2.758789
1119.862, 27.08984
1120.344, 48.98096
1120.826, 49.00293
1121.308, 34.15332
1121.791, 26.86035
1122.273, 23.73096
1122.755, 28.16211
1123.237, 44.62451
1123.719, 59.47607
1124.201, 65.60742
1124.683, 78.47559
1125.165, 116.7930
1125.647, 162.8022
1126.130, 164.2358
1126.612, 111.5371
1127.094, 102.0308
1127.576, 144.6245
1128.058, 178.4663
1128.540, 187.0923
1129.022, 192.8862
1129.504, 213.7388
1129.986, 244.4146
1130.469, 279.2188
1130.951, 316.8555
1131.433, 312.1816
1131.915, 263.8979
1132.397, 245.5000
1132.879, 272.6655
1133.361, 311.8770
1133.843, 344.3896
1134.326, 364.0137
1134.808, 353.8130
1135.290, 322.8403
1135.772, 317.1821
1136.254, 333.1694
1136.736, 349.4263
1137.218, 360.6821
1137.700, 352.0200
1138.182, 315.1704
1138.665, 273.4907
1139.147, 251.9131
1139.629, 249.7520
1140.111, 280.3296
1140.593, 326.4985
1141.075, 330.2031
1141.557, 294.4766
1142.039, 269.5142
1142.521, 274.5181
1143.004, 282.7432
1143.486, 265.0078
1143.968, 242.8022
1144.450, 244.1455
1144.932, 262.4756
1145.414, 295.0850
1145.896, 333.0127
1146.378, 353.1997
1146.861, 350.8340
1147.343, 354.5366
1147.825, 399.7588
1148.307, 432.8540
1148.789, 385.5669
1149.271, 321.8979
1149.753, 318.5986
1150.235, 349.5410
1150.718, 355.6455
1151.200, 329.0522
1151.682, 308.8154
1152.164, 320.8999
1152.646, 323.7280
1153.128, 284.4858
1153.610, 244.1284
1154.092, 233.9248
1154.574, 233.9653
1155.057, 213.6929
1155.539, 176.5581
1156.021, 157.0825
1156.503, 171.4062
1156.985, 183.3589
1157.467, 186.5527
1157.949, 184.0991
1158.431, 171.9170
1158.913, 158.9971
1159.396, 160.9370
1159.878, 169.6377
1160.360, 149.9390
1160.842, 78.94629
1161.324, 45.63477
1161.806, 74.60449
1162.288, 100.1636
1162.770, 107.7188
1163.253, 109.4941
1163.735, 116.2798
1164.217, 120.6748
1164.699, 104.2383
1165.181, 64.12695
1165.663, 42.50439
1166.145, 42.89404
1166.627, 49.60840
1167.109, 63.58203
1167.592, 69.44727
1168.074, 58.28613
1168.556, 35.42578
1169.038, 3.061523
1169.520, 32.14795
1170.002, 21.98682
1170.484, 31.35400
1170.966, 60.19971
1171.448, 58.53760
1171.931, 46.10938
1172.413, 30.71729
1172.895, 13.06836
1173.377, 9.390137
1173.859, 26.97412
1174.341, 9.649414
1174.823, 26.64258
1175.305, 29.68311
1175.788, 8.004883
1176.270, 6.934082
1176.752, 34.64355
1177.234, 57.66260
1177.716, 54.32959
1178.198, 36.26025
1178.680, 0.3837890
1179.162, 29.55664
1179.645, 10.67236
1180.127, 30.10352
1180.609, 43.26660
1181.091, 28.45410
1181.573, 15.63672
1182.055, 15.91943
1182.537, 22.27539
1183.019, 35.07422
1183.501, 47.58447
1183.984, 63.76318
1184.466, 70.68018
1184.948, 44.12695
1185.430, 2.046387
1185.912, 13.12451
1186.394, 7.259277
1186.876, 23.89648
1187.358, 21.11230
1187.840, 25.73926
1188.323, 55.25000
1188.805, 80.27441
1189.287, 81.25049
1189.769, 70.75684
1190.251, 64.57959
1190.733, 62.04248
1191.215, 53.69629
1191.697, 31.82959
1192.180, 27.47070
1192.662, 51.15527
1193.144, 65.36816
1193.626, 53.78564
1194.108, 39.35107
1194.590, 43.17773
1195.072, 58.07568
1195.554, 64.51904
1196.036, 62.62549
1196.519, 59.89990
1197.001, 56.51465
1197.483, 60.57324
1197.965, 73.66797
1198.447, 70.92822
1198.929, 37.91309
1199.411, 2.364258
1199.893, 4.115723
1200.375, 29.49902
1200.858, 53.77490
1201.340, 74.62109
1201.822, 88.69043
1202.304, 93.71289
1202.786, 79.06250
1203.268, 43.52588
1203.750, 13.97021
1204.232, 8.495117
1204.715, 18.51562
1205.197, 55.20947
1205.679, 86.85889
1206.161, 67.29590
1206.643, 26.85938
1207.125, 22.18359
1207.607, 52.80127
1208.089, 66.29004
1208.572, 37.89307
1209.054, 15.79053
1209.536, 23.79736
1210.018, 28.75684
1210.500, 5.626953
1210.982, 16.82959
1211.464, 10.14258
1211.946, 17.24072
1212.428, 44.18506
1212.911, 73.18506
1213.393, 82.24268
1213.875, 62.49463
1214.357, 46.87256
1214.839, 39.09766
1215.321, 40.13281
1215.803, 54.38916
1216.285, 66.68750
1216.767, 54.65479
1217.250, 27.15479
1217.732, 27.85449
1218.214, 54.85303
1218.696, 67.21631
1219.178, 62.99414
1219.660, 52.82324
1220.142, 39.72754
1220.624, 25.76074
1221.107, 25.09961
1221.589, 30.26904
1222.071, 38.99512
1222.553, 46.63330
1223.035, 61.09473
1223.517, 76.29053
1223.999, 81.92578
1224.481, 78.43066
1224.964, 67.30322
1225.446, 46.41016
1225.928, 34.08984
1226.410, 21.93848
1226.892, 27.56055
1227.374, 81.70947
1227.856, 137.9648
1228.338, 164.4331
1228.820, 161.9434
1229.302, 128.3164
1229.785, 67.63770
1230.267, 38.03662
1230.749, 67.15186
1231.231, 88.91992
1231.713, 101.6787
1232.195, 105.8848
1232.677, 97.97168
1233.159, 86.57666
1233.642, 77.09033
1234.124, 70.46777
1234.606, 70.44775
1235.088, 76.97363
1235.570, 66.81006
1236.052, 42.48633
1236.534, 34.83301
1237.016, 48.44824
1237.499, 54.58252
1237.981, 40.35547
1238.463, 29.75781
1238.945, 46.99170
1239.427, 74.87842
1239.909, 83.54492
1240.391, 78.49414
1240.873, 70.19531
1241.355, 56.07373
1241.838, 49.91895
1242.320, 46.43115
1242.802, 40.43896
1243.284, 28.10107
1243.766, 22.31689
1244.248, 39.98389
1244.730, 54.92871
1245.212, 43.05469
1245.695, 28.30957
1246.177, 36.81445
1246.659, 58.72900
1247.141, 70.02344
1247.623, 67.81836
1248.105, 65.96582
1248.587, 66.51025
1249.069, 65.32617
1249.552, 64.31592
1250.034, 58.51123
1250.516, 43.67139
1250.998, 28.72021
1251.480, 21.27539
1251.962, 20.18945
1252.444, 23.35889
1252.926, 30.57275
1253.408, 41.43262
1253.891, 54.23730
1254.373, 41.94727
1254.855, 4.808594
1255.337, 9.984375
1255.819, 18.83398
1256.301, 53.98926
1256.783, 62.37988
1257.265, 53.75342
1257.747, 28.47314
1258.230, 3.797363
1258.712, 1.938477
1259.194, 19.02490
1259.676, 57.28271
1260.158, 105.8540
1260.640, 118.8779
1261.122, 66.74512
1261.604, 32.21777
1262.087, 61.16797
1262.569, 87.24707
1263.051, 80.95654
1263.533, 62.37500
1264.015, 59.09082
1264.497, 60.36865
1264.979, 55.23975
1265.461, 49.81396
1265.943, 48.09912
1266.426, 52.37598
1266.908, 42.11328
1267.390, 13.45801
1267.872, 1.118652
1268.354, 9.320313
1268.836, 22.12988
1269.318, 18.60938
1269.800, 0.3671880
1270.282, 9.849609
1270.765, 0.0000000E+00
##END=



