##NAMES=Monticellite
##RRUFFID=R100106
##IDEAL CHEMISTRY=CaMgSiO_4_
##LOCALITY=Crestmore, Riverside County, California, USA
##OWNER=RRUFF
##SOURCE=American Museum of Natural History
##DESCRIPTION=Colorless to light gray translucent crystals associated with pale yellow vesuvianite
##STATUS=The identification of this mineral is confirmed by single-crystal X-ray diffraction and chemical analysis.
##URL=rruff.info/R100106
##MEASURED CHEMISTRY=(Ca_1.017_Mg_0.916_Fe^+2^_0.070_Mn^+2^_0.006_Zn_0.001_)_Î£=2.010_Si_0.995_O_4_
152.6852, 0.0000000E+00
153.1674, 0.1371460
153.6495, 0.2111510
154.1316, 0.4925990
154.6137, 2.039993
155.0958, 4.252380
155.5779, 6.776718
156.0601, 10.08987
156.5422, 13.33423
157.0243, 15.71182
157.5064, 16.18500
157.9885, 16.54562
158.4706, 17.18491
158.9528, 18.10620
159.4349, 19.37457
159.9170, 21.05237
160.3991, 23.05568
160.8812, 25.28970
161.3633, 27.51982
161.8455, 30.12709
162.3276, 33.29861
162.8097, 37.01360
163.2918, 41.17725
163.7739, 46.21935
164.2560, 51.31540
164.7382, 54.01419
165.2203, 55.74387
165.7024, 56.53792
166.1845, 55.84232
166.6666, 53.19733
167.1487, 50.46259
167.6309, 48.20540
168.1130, 46.55196
168.5951, 45.80859
169.0772, 46.28389
169.5593, 47.58987
170.0414, 49.44060
170.5236, 51.86331
171.0057, 54.62494
171.4878, 58.32822
171.9699, 62.45840
172.4520, 65.34695
172.9341, 66.83046
173.4163, 66.36836
173.8984, 62.98625
174.3805, 55.33130
174.8626, 46.62282
175.3447, 39.32439
175.8268, 33.34071
176.3090, 28.28830
176.7911, 24.12643
177.2732, 20.70163
177.7553, 17.80569
178.2374, 15.35832
178.7195, 13.42018
179.2017, 12.26363
179.6838, 11.81314
180.1659, 11.44476
180.6480, 10.54613
181.1301, 9.359024
181.6122, 8.439911
182.0944, 7.984695
182.5765, 7.842880
183.0586, 7.869110
183.5407, 8.053879
184.0228, 8.156281
184.5049, 7.655075
184.9871, 6.804489
185.4692, 6.595306
185.9513, 7.994049
186.4334, 9.991791
186.9155, 9.916443
187.3976, 7.624146
187.8798, 4.935989
188.3619, 3.739105
188.8440, 3.842117
189.3261, 4.077957
189.8082, 4.084686
190.2903, 3.924957
190.7725, 3.808167
191.2546, 3.734116
191.7367, 3.710327
192.2188, 3.758987
192.7009, 3.879242
193.1830, 4.012833
193.6652, 3.962906
194.1473, 3.846252
194.6294, 4.645615
195.1115, 6.622604
195.5936, 8.645676
196.0757, 9.171204
196.5579, 8.169052
197.0400, 6.677017
197.5221, 4.775772
198.0042, 2.543350
198.4863, 1.217712
198.9684, 0.9537810
199.4506, 1.270645
199.9327, 1.527359
200.4148, 1.726364
200.8969, 1.871384
201.3790, 1.965240
201.8611, 2.005157
202.3433, 1.973373
202.8254, 1.822006
203.3075, 1.667587
203.7896, 1.628815
204.2717, 1.647751
204.7538, 2.043243
205.2360, 3.286911
205.7181, 5.599731
206.2002, 6.575134
206.6823, 5.834686
207.1644, 4.215790
207.6465, 3.216110
208.1287, 2.917221
208.6108, 2.970108
209.0929, 3.302917
209.5750, 3.991058
210.0571, 4.571335
210.5392, 4.729355
211.0214, 4.851501
211.5035, 5.173508
211.9856, 5.777664
212.4677, 6.337845
212.9498, 6.675690
213.4319, 6.702194
213.9140, 6.843643
214.3962, 7.083939
214.8783, 7.452408
215.3604, 8.057129
215.8425, 9.043091
216.3246, 9.944580
216.8067, 10.52776
217.2889, 10.66673
217.7710, 10.96237
218.2531, 11.79153
218.7352, 12.58499
219.2173, 11.79103
219.6994, 8.560730
220.1816, 5.347549
220.6637, 3.242126
221.1458, 2.582230
221.6279, 2.053360
222.1100, 1.611526
222.5921, 1.301025
223.0743, 1.245850
223.5564, 1.505676
224.0385, 1.927780
224.5206, 2.508911
225.0027, 3.397400
225.4848, 4.065140
225.9670, 4.354813
226.4491, 4.489990
226.9312, 5.055923
227.4133, 6.192764
227.8954, 7.506195
228.3775, 8.809723
228.8597, 10.18880
229.3418, 11.28421
229.8239, 11.94165
230.3060, 12.32071
230.7881, 12.92789
231.2702, 14.06111
231.7524, 15.00568
232.2345, 15.39316
232.7166, 14.98541
233.1987, 14.59048
233.6808, 14.19594
234.1629, 13.83444
234.6451, 13.61319
235.1272, 13.68915
235.6093, 13.68533
236.0914, 13.33049
236.5735, 12.07072
237.0556, 11.80052
237.5378, 12.96262
238.0199, 14.99501
238.5020, 16.37042
238.9841, 16.39034
239.4662, 16.82323
239.9483, 18.51744
240.4305, 22.08051
240.9126, 25.45560
241.3947, 28.73758
241.8768, 31.79886
242.3589, 34.24271
242.8410, 35.57996
243.3232, 37.03284
243.8053, 39.20898
244.2874, 42.74948
244.7695, 45.43312
245.2516, 46.98924
245.7337, 47.81384
246.2159, 48.70142
246.6980, 49.34067
247.1801, 50.54297
247.6622, 52.71790
248.1443, 56.25511
248.6264, 59.69756
249.1086, 62.96935
249.5907, 66.21078
250.0728, 69.80307
250.5549, 74.22754
251.0370, 78.17957
251.5191, 80.84705
252.0013, 81.25629
252.4834, 83.59607
252.9655, 88.33276
253.4476, 94.67786
253.9297, 101.1485
254.4118, 107.3211
254.8940, 114.2645
255.3761, 122.5038
255.8582, 132.4653
256.3403, 142.2192
256.8224, 151.8996
257.3046, 161.2842
257.7867, 170.2788
258.2688, 180.4766
258.7509, 187.1861
259.2330, 189.2171
259.7151, 186.8214
260.1973, 177.8926
260.6794, 160.3997
261.1615, 138.5005
261.6436, 118.2255
262.1257, 99.14426
262.6078, 82.32425
263.0900, 68.30502
263.5721, 57.04803
264.0542, 47.79807
264.5363, 40.53741
265.0184, 35.18646
265.5005, 31.80029
265.9827, 31.15250
266.4648, 30.26059
266.9469, 28.08038
267.4290, 24.57056
267.9111, 22.10297
268.3932, 21.01184
268.8754, 20.47412
269.3575, 19.52695
269.8396, 17.99066
270.3217, 16.68900
270.8038, 15.89581
271.2859, 15.57465
271.7681, 15.08353
272.2502, 14.37198
272.7323, 13.59985
273.2144, 12.89972
273.6965, 12.23813
274.1786, 11.82303
274.6608, 11.76791
275.1429, 12.01321
275.6250, 12.16843
276.1071, 12.27469
276.5892, 12.17871
277.0714, 11.66064
277.5535, 10.66602
278.0356, 9.765381
278.5177, 9.128601
278.9998, 8.652344
279.4819, 7.961304
279.9641, 7.077789
280.4462, 5.871918
280.9283, 3.974243
281.4104, 1.361176
281.8925, 0.6185000
282.3746, 1.627594
282.8568, 1.972534
283.3389, 2.517273
283.8210, 3.283020
284.3031, 4.004028
284.7852, 4.589233
285.2673, 5.020966
285.7495, 5.144165
286.2316, 4.895538
286.7137, 4.338684
287.1958, 3.563293
287.6779, 2.589844
288.1600, 1.674194
288.6422, 1.003418
289.1243, 0.5342710
289.6064, 8.8927999E-02
290.0885, 0.2969670
290.5706, 0.7459410
291.0527, 1.502502
291.5349, 2.559784
292.0170, 3.697266
292.4991, 4.887756
292.9812, 6.104492
293.4633, 7.132385
293.9454, 7.959381
294.4276, 8.616486
294.9097, 8.996216
295.3918, 9.183746
295.8739, 9.444061
296.3560, 9.601349
296.8381, 9.934723
297.3203, 11.37000
297.8024, 14.02310
298.2845, 16.73840
298.7666, 18.22623
299.2487, 18.77835
299.7308, 19.29459
300.2130, 19.92593
300.6951, 20.84888
301.1772, 22.46008
301.6593, 24.74069
302.1414, 27.27698
302.6235, 29.93094
303.1057, 32.63129
303.5878, 35.05255
304.0699, 36.89175
304.5520, 38.58835
305.0341, 40.76328
305.5162, 43.34775
305.9984, 45.84509
306.4805, 48.19547
306.9626, 50.13895
307.4447, 51.31226
307.9268, 51.83521
308.4089, 51.28033
308.8911, 48.94418
309.3732, 45.08463
309.8553, 40.77271
310.3374, 36.48190
310.8195, 32.10983
311.3016, 27.51660
311.7838, 22.42203
312.2659, 17.65765
312.7480, 13.61237
313.2301, 10.35968
313.7122, 7.980804
314.1943, 7.284882
314.6765, 6.967773
315.1586, 6.006195
315.6407, 4.025818
316.1228, 2.233185
316.6049, 1.048035
317.0870, 0.4566960
317.5692, 0.4460140
318.0513, 1.602264
318.5334, 2.844391
319.0155, 3.597931
319.4976, 3.749542
319.9797, 3.917175
320.4619, 4.538879
320.9440, 5.196106
321.4261, 5.415161
321.9082, 4.254791
322.3903, 3.437225
322.8724, 3.750488
323.3546, 5.239899
323.8367, 6.315613
324.3188, 6.089355
324.8009, 5.665527
325.2830, 5.889313
325.7651, 7.859192
326.2473, 9.389191
326.7294, 9.910217
327.2115, 9.576660
327.6936, 9.604187
328.1757, 10.04324
328.6578, 10.87732
329.1400, 12.11691
329.6221, 14.40063
330.1042, 16.20087
330.5863, 17.32364
331.0684, 17.95099
331.5505, 18.59119
332.0327, 19.18872
332.5148, 19.86539
332.9969, 20.81766
333.4790, 22.55060
333.9611, 23.04446
334.4432, 21.72784
334.9254, 19.49246
335.4075, 17.94690
335.8896, 17.58377
336.3717, 16.87573
336.8538, 15.17047
337.3359, 12.29239
337.8180, 10.23883
338.3001, 9.228241
338.7823, 8.714142
339.2644, 8.179352
339.7465, 7.635803
340.2286, 6.767059
340.7107, 5.297363
341.1928, 3.399811
341.6750, 2.690460
342.1571, 3.463531
342.6392, 4.292633
343.1213, 3.759827
343.6034, 1.853119
344.0855, 0.5389100
344.5677, 0.2998050
345.0498, 0.7130130
345.5319, 0.7093510
346.0140, 0.2665410
346.4961, 0.1342470
346.9782, 0.1662600
347.4604, 0.1143190
347.9425, 0.5108640
348.4246, 1.094360
348.9067, 1.526978
349.3888, 1.034821
349.8709, 0.1769710
350.3531, 0.9837340
350.8352, 0.3139950
351.3173, 1.036957
351.7994, 1.392548
352.2815, 0.6269230
352.7636, 0.2944950
353.2458, 0.4289250
353.7279, 2.6306000E-02
354.2100, 0.3707280
354.6921, 0.3675230
355.1742, 0.3818360
355.6563, 1.115753
356.1385, 2.467896
356.6206, 3.443542
357.1027, 3.202087
357.5848, 2.256165
358.0669, 1.112396
358.5490, 0.5987550
359.0312, 1.727661
359.5133, 1.114746
359.9954, 0.7593080
360.4775, 2.405914
360.9596, 2.850281
361.4417, 2.988220
361.9239, 3.489685
362.4060, 4.639709
362.8881, 5.614899
363.3702, 5.910095
363.8523, 5.873047
364.3344, 6.037262
364.8166, 6.887451
365.2987, 7.671448
365.7808, 8.041443
366.2629, 7.935425
366.7450, 7.878723
367.2271, 7.866669
367.7093, 7.986481
368.1914, 8.315216
368.6735, 9.349976
369.1556, 10.05798
369.6377, 10.18927
370.1198, 9.810242
370.6020, 9.428925
371.0841, 8.776428
371.5662, 8.370819
372.0483, 8.513428
372.5304, 9.500000
373.0125, 10.48804
373.4947, 11.48499
373.9768, 12.44571
374.4589, 13.28033
374.9410, 14.01862
375.4231, 14.61258
375.9052, 15.02780
376.3874, 15.19397
376.8695, 15.55716
377.3516, 16.13098
377.8337, 16.88431
378.3158, 17.73306
378.7979, 18.64038
379.2801, 20.01337
379.7622, 22.21912
380.2443, 24.95303
380.7264, 26.85666
381.2085, 27.83731
381.6906, 28.55875
382.1728, 29.43942
382.6549, 30.50494
383.1370, 31.86429
383.6191, 33.54721
384.1012, 35.52679
384.5833, 37.90884
385.0655, 40.65363
385.5476, 43.42001
386.0297, 46.33572
386.5118, 49.12476
386.9939, 51.14780
387.4760, 52.14230
387.9582, 53.10486
388.4403, 54.95724
388.9224, 57.48026
389.4045, 60.18484
389.8866, 63.14923
390.3687, 66.05817
390.8509, 68.43073
391.3330, 70.30524
391.8151, 72.40381
392.2972, 75.35605
392.7793, 78.62772
393.2614, 81.68579
393.7436, 84.06445
394.2257, 86.71545
394.7078, 89.78265
395.1899, 93.24149
395.6720, 97.26367
396.1541, 102.3013
396.6363, 107.6253
397.1184, 112.8844
397.6005, 118.0102
398.0826, 123.2797
398.5647, 128.3963
399.0468, 133.7982
399.5290, 140.0086
400.0111, 148.9058
400.4932, 156.6216
400.9753, 162.1703
401.4574, 165.5569
401.9395, 169.1033
402.4217, 173.3492
402.9038, 177.2993
403.3859, 180.0427
403.8680, 180.4975
404.3501, 182.4499
404.8322, 187.0737
405.3144, 192.9453
405.7965, 195.8985
406.2786, 195.2664
406.7607, 194.0028
407.2428, 193.5962
407.7249, 194.0672
408.2071, 193.0694
408.6892, 190.5287
409.1713, 187.1027
409.6534, 183.6405
410.1355, 180.0801
410.6176, 175.4372
411.0998, 169.1040
411.5819, 161.7879
412.0640, 154.9273
412.5461, 148.5531
413.0282, 142.4594
413.5103, 137.5067
413.9925, 132.7138
414.4746, 125.5439
414.9567, 114.8865
415.4388, 103.7595
415.9209, 95.10294
416.4030, 88.31128
416.8852, 81.78381
417.3673, 74.98343
417.8494, 68.34961
418.3315, 61.83694
418.8136, 55.43726
419.2957, 49.59586
419.7779, 44.45224
420.2600, 40.06561
420.7421, 36.57742
421.2242, 34.88742
421.7063, 33.16284
422.1884, 30.42566
422.6706, 27.07324
423.1527, 24.48273
423.6348, 23.86212
424.1169, 23.39233
424.5990, 22.16431
425.0811, 19.58234
425.5633, 17.48761
426.0454, 16.17834
426.5275, 15.29099
427.0096, 14.38687
427.4917, 13.70499
427.9738, 12.61798
428.4560, 10.65356
428.9381, 7.890717
429.4202, 6.541260
429.9023, 7.129211
430.3844, 8.182098
430.8665, 8.654785
431.3487, 8.461853
431.8308, 8.214020
432.3129, 7.994507
432.7950, 7.698456
433.2771, 6.937805
433.7592, 5.683044
434.2414, 4.801727
434.7235, 4.945343
435.2056, 5.848328
435.6877, 6.239716
436.1698, 6.099182
436.6519, 5.871918
437.1341, 6.066589
437.6162, 6.528778
438.0983, 6.916840
438.5804, 7.286316
439.0625, 7.310913
439.5446, 6.223694
440.0268, 4.326233
440.5089, 2.744659
440.9910, 2.476929
441.4731, 2.756683
441.9552, 2.959412
442.4373, 3.053009
442.9195, 2.822784
443.4016, 1.586975
443.8837, 0.1549070
444.3658, 0.4898070
444.8479, 0.8046570
445.3300, 2.064026
445.8122, 2.763031
446.2943, 2.918335
446.7764, 2.712280
447.2585, 1.670197
447.7406, 0.7016300
448.2227, 0.2517400
448.7049, 0.4425050
449.1870, 0.9756470
449.6691, 2.528839
450.1512, 4.129547
450.6333, 4.029663
451.1154, 1.314545
451.5976, 0.8759770
452.0797, 1.576538
452.5618, 0.9300540
453.0439, 0.4810790
453.5260, 0.3491520
454.0081, 7.5165004E-02
454.4903, 1.060760
454.9724, 3.022919
455.4545, 3.721375
455.9366, 2.566589
456.4187, 0.7404480
456.9008, 0.2893980
457.3830, 1.077454
457.8651, 2.061707
458.3472, 2.903809
458.8293, 3.572968
459.3114, 4.073578
459.7935, 4.399475
460.2757, 4.426178
460.7578, 3.674408
461.2399, 2.671051
461.7220, 2.215637
462.2041, 2.878967
462.6862, 3.503815
463.1684, 3.091309
463.6505, 2.058044
464.1326, 1.376984
464.6147, 1.647949
465.0968, 2.192596
465.5789, 2.700775
466.0611, 3.143219
466.5432, 3.563019
467.0253, 4.384735
467.5074, 4.954498
467.9895, 4.711700
468.4716, 2.122070
468.9538, 0.6727910
469.4359, 1.240021
469.9180, 3.087219
470.4001, 3.788239
470.8822, 2.704407
471.3643, 1.609863
471.8465, 1.292480
472.3286, 1.859589
472.8107, 2.140503
473.2928, 2.152527
473.7749, 1.849304
474.2570, 0.8783570
474.7392, 0.7481990
475.2213, 1.566956
475.7034, 1.020294
476.1855, 0.2208250
476.6676, 0.7491760
477.1497, 0.6326900
477.6319, 0.5034480
478.1140, 0.9223630
478.5961, 1.515381
479.0782, 1.538788
479.5603, 0.8981630
480.0424, 0.3031920
480.5246, 0.3424380
481.0067, 0.7852170
481.4888, 1.310577
481.9709, 1.944244
482.4530, 2.489197
482.9352, 2.974884
483.4173, 3.313293
483.8994, 3.228180
484.3815, 1.878326
484.8636, 0.6941220
485.3457, 0.5462950
485.8279, 1.927032
486.3100, 2.682678
486.7921, 2.032837
487.2742, 1.009491
487.7563, 0.5209960
488.2384, 0.9374390
488.7206, 1.243164
489.2027, 1.212189
489.6848, 1.007996
490.1669, 1.380249
490.6490, 2.674469
491.1311, 3.484528
491.6133, 2.774658
492.0954, 0.5831300
492.5775, 0.4115600
493.0596, 1.0193000E-02
493.5417, 0.7778930
494.0238, 0.9004520
494.5060, 0.4615170
494.9881, 0.1041560
495.4702, 0.7629090
495.9523, 1.376312
496.4344, 1.872742
496.9165, 2.185425
497.3987, 2.063538
497.8808, 0.8340450
498.3629, 0.5771480
498.8450, 1.178772
499.3271, 0.8714290
499.8092, 0.5554200
500.2914, 0.7605290
500.7735, 1.157349
501.2556, 1.438385
501.7377, 1.645813
502.2198, 1.532166
502.7019, 0.7880250
503.1841, 0.2866210
503.6662, 0.7856450
504.1483, 0.2567440
504.6304, 0.4575200
505.1125, 1.328003
505.5946, 2.446655
506.0768, 2.424316
506.5589, 0.5449220
507.0410, 1.369141
507.5231, 1.577087
508.0052, 0.2815250
508.4873, 1.255035
508.9695, 0.6719670
509.4516, 0.5083010
509.9337, 6.3812003E-02
510.4158, 2.351318
510.8979, 4.010651
511.3800, 3.510223
511.8622, 1.834503
512.3443, 1.155151
512.8264, 1.425446
513.3085, 2.066071
513.7906, 2.979950
514.2728, 3.866852
514.7549, 4.278839
515.2370, 3.984863
515.7191, 3.740662
516.2012, 4.182312
516.6833, 4.940338
517.1655, 5.459778
517.6476, 5.004028
518.1297, 4.838440
518.6118, 5.519470
519.0939, 6.987915
519.5760, 8.444824
520.0582, 10.01450
520.5403, 11.36127
521.0224, 12.32227
521.5045, 12.85446
521.9866, 13.03732
522.4688, 12.42868
522.9509, 11.96652
523.4330, 13.12375
523.9151, 16.34042
524.3972, 18.63608
524.8793, 19.00372
525.3615, 18.34015
525.8436, 19.11343
526.3257, 21.30988
526.8078, 23.65533
527.2899, 25.30615
527.7720, 26.63358
528.2542, 28.45584
528.7363, 30.80682
529.2184, 33.44666
529.7005, 36.28604
530.1826, 39.23114
530.6647, 42.20297
531.1469, 45.46863
531.6290, 48.21994
532.1111, 49.57593
532.5932, 50.03412
533.0753, 50.73431
533.5574, 52.99258
534.0396, 54.80972
534.5217, 55.49118
535.0038, 54.96466
535.4859, 53.53760
535.9680, 51.16852
536.4501, 47.98352
536.9323, 43.91254
537.4144, 38.35730
537.8965, 33.47516
538.3786, 29.41711
538.8607, 25.90930
539.3428, 22.69971
539.8250, 19.78256
540.3071, 16.81726
540.7892, 13.46951
541.2713, 10.22940
541.7534, 8.660187
542.2355, 8.639435
542.7177, 8.854401
543.1998, 8.590607
543.6819, 7.999573
544.1640, 7.335815
544.6461, 6.628357
545.1282, 5.669769
545.6104, 3.888855
546.0925, 1.960510
546.5746, 0.6377870
547.0567, 0.2639470
547.5388, 0.3218380
548.0209, 1.111847
548.5031, 2.192169
548.9852, 2.615173
549.4673, 1.344818
549.9494, 0.3442380
550.4315, 0.1897890
550.9136, 0.9261780
551.3958, 1.393219
551.8779, 1.467041
552.3600, 1.462769
552.8421, 1.542816
553.3242, 1.670593
553.8063, 1.962036
554.2885, 2.480865
554.7706, 3.040894
555.2527, 3.529633
555.7348, 3.971863
556.2169, 3.998566
556.6990, 3.205048
557.1812, 2.226624
557.6633, 2.125519
558.1454, 2.675995
558.6275, 3.021454
559.1096, 2.094177
559.5917, 1.157379
560.0739, 1.345642
560.5560, 2.748566
561.0381, 4.327667
561.5202, 6.230530
562.0023, 7.818207
562.4844, 8.509094
562.9666, 7.173187
563.4487, 6.512543
563.9308, 7.145630
564.4129, 8.317108
564.8950, 8.753448
565.3771, 8.072632
565.8593, 7.761383
566.3414, 8.026794
566.8235, 8.816071
567.3056, 10.15945
567.7877, 12.22604
568.2698, 13.78903
568.7520, 13.63220
569.2341, 12.32504
569.7162, 12.23593
570.1983, 13.50146
570.6804, 14.92166
571.1625, 15.40976
571.6447, 15.29025
572.1268, 15.04434
572.6089, 14.69553
573.0910, 14.45224
573.5731, 14.38016
574.0552, 14.51627
574.5374, 14.92508
575.0195, 15.79956
575.5016, 16.78018
575.9837, 17.96838
576.4658, 19.28952
576.9479, 19.95364
577.4301, 19.44748
577.9122, 18.87292
578.3943, 18.68082
578.8764, 18.91409
579.3585, 19.45703
579.8406, 20.61658
580.3228, 21.40079
580.8049, 20.19516
581.2870, 17.17645
581.7691, 15.74646
582.2512, 16.94464
582.7333, 18.87616
583.2155, 18.34091
583.6975, 16.09567
584.1796, 14.50616
584.6617, 15.57108
585.1439, 17.12546
585.6260, 16.96915
586.1081, 15.43921
586.5902, 14.27255
587.0723, 14.76505
587.5544, 15.47498
588.0366, 15.51880
588.5187, 14.60925
589.0008, 13.89627
589.4829, 13.60489
589.9650, 13.52094
590.4471, 13.57864
590.9293, 14.26169
591.4114, 13.85763
591.8935, 11.79752
592.3756, 9.102692
592.8577, 7.724091
593.3398, 7.751434
593.8220, 7.752838
594.3041, 7.249939
594.7862, 6.455078
595.2683, 5.844116
595.7504, 5.418762
596.2325, 5.085388
596.7147, 4.707947
597.1968, 4.365082
597.6789, 4.385529
598.1610, 4.829529
598.6431, 4.843292
599.1252, 3.171356
599.6074, 1.326843
600.0895, 0.6322020
600.5716, 2.329254
601.0537, 3.454651
601.5358, 2.978027
602.0179, 1.840637
602.5001, 1.410919
602.9822, 2.042847
603.4643, 2.704895
603.9464, 3.329559
604.4285, 3.821167
604.9106, 3.812531
605.3928, 3.250549
605.8749, 2.628571
606.3570, 2.050659
606.8391, 1.607666
607.3212, 1.677124
607.8033, 2.239868
608.2855, 2.935791
608.7676, 3.780243
609.2497, 4.364990
609.7318, 4.295898
610.2139, 3.417328
610.6960, 2.471191
611.1782, 1.468903
611.6603, 0.7860110
612.1424, 0.8158260
612.6245, 2.294525
613.1066, 3.719025
613.5887, 5.306763
614.0709, 6.643036
614.5530, 6.723083
615.0351, 4.677063
615.5172, 3.262024
615.9993, 3.410522
616.4814, 4.791077
616.9636, 5.524841
617.4457, 5.546906
617.9278, 5.655334
618.4099, 6.468872
618.8920, 7.742096
619.3741, 8.919434
619.8563, 9.994690
620.3384, 10.73547
620.8205, 10.74487
621.3026, 10.40201
621.7847, 10.14481
622.2668, 10.04575
622.7490, 10.08157
623.2311, 10.47000
623.7132, 10.90454
624.1953, 10.99438
624.6774, 10.12222
625.1595, 9.575623
625.6417, 9.498932
626.1238, 9.849823
626.6059, 10.75739
627.0880, 12.80359
627.5701, 13.57776
628.0522, 11.47003
628.5344, 7.411377
629.0165, 6.396454
629.4986, 8.481537
629.9807, 11.14380
630.4628, 12.91754
630.9449, 13.92914
631.4271, 14.31372
631.9092, 14.06180
632.3913, 13.67068
632.8734, 13.26868
633.3555, 13.02295
633.8376, 13.21210
634.3198, 14.50418
634.8019, 15.00754
635.2840, 13.40689
635.7661, 11.01175
636.2482, 9.666321
636.7303, 10.15723
637.2125, 10.44705
637.6946, 10.23773
638.1767, 9.664093
638.6588, 9.063019
639.1409, 8.415619
639.6230, 7.861359
640.1052, 7.480133
640.5873, 7.225159
641.0694, 7.047089
641.5515, 6.926636
642.0336, 6.604858
642.5157, 5.627319
642.9979, 4.507019
643.4800, 3.943970
643.9621, 4.020325
644.4442, 4.008545
644.9263, 3.593323
645.4084, 2.907715
645.8906, 2.010773
646.3727, 0.4945070
646.8548, 0.4645690
647.3369, 0.6731870
647.8190, 0.4243470
648.3011, 1.4252000E-02
648.7833, 0.7788090
649.2654, 1.259949
649.7475, 1.348114
650.2296, 1.120331
650.7117, 0.6267700
651.1938, 0.1051940
651.6760, 0.6802060
652.1581, 0.8623660
652.6402, 0.8567200
653.1223, 1.053101
653.6044, 1.362305
654.0865, 1.417389
654.5687, 0.7638550
655.0508, 1.2756000E-02
655.5329, 0.5622860
656.0150, 0.8580630
656.4971, 1.040985
656.9792, 1.307495
657.4614, 1.371399
657.9435, 0.8703610
658.4256, 0.6657100
658.9077, 1.057159
659.3898, 0.2163090
659.8719, 1.745575
660.3541, 1.840027
660.8362, 0.5773620
661.3183, 6.4575002E-02
661.8004, 0.7514040
662.2825, 1.727478
662.7646, 1.619843
663.2468, 0.8655090
663.7289, 0.5630800
664.2110, 1.700287
664.6931, 2.674408
665.1752, 1.745178
665.6573, 0.2416690
666.1395, 1.304016
666.6216, 0.1299440
667.1037, 1.337189
667.5858, 2.747772
668.0679, 4.028412
668.5500, 4.493744
669.0322, 3.785065
669.5143, 2.987335
669.9964, 2.502380
670.4785, 2.338959
670.9606, 2.695984
671.4427, 3.605469
671.9249, 4.464539
672.4070, 4.787231
672.8891, 4.717957
673.3712, 4.484070
673.8533, 4.084900
674.3354, 3.780518
674.8176, 3.674133
675.2997, 3.814941
675.7818, 4.308044
676.2639, 5.573456
676.7460, 6.600647
677.2281, 6.875427
677.7103, 6.802368
678.1924, 6.858368
678.6745, 7.093323
679.1566, 7.334259
679.6387, 7.428772
680.1208, 7.613129
680.6030, 8.784912
681.0851, 10.92435
681.5672, 12.41159
682.0493, 12.23212
682.5314, 11.49918
683.0135, 12.22760
683.4957, 14.03439
683.9778, 15.47729
684.4599, 15.59641
684.9420, 15.31421
685.4241, 15.11813
685.9063, 15.05792
686.3884, 15.32327
686.8705, 15.81839
687.3526, 16.81589
687.8347, 18.72510
688.3168, 21.87097
688.7990, 23.47430
689.2811, 23.06711
689.7632, 22.23947
690.2453, 22.41779
690.7274, 23.49063
691.2095, 23.59882
691.6917, 22.54724
692.1738, 21.25192
692.6559, 20.82358
693.1380, 20.80441
693.6201, 20.36221
694.1022, 19.27454
694.5844, 18.24265
695.0665, 17.87164
695.5486, 17.72537
696.0307, 17.24298
696.5128, 15.92938
696.9949, 14.69336
697.4771, 13.49042
697.9592, 12.49661
698.4413, 12.26733
698.9234, 13.08963
699.4055, 13.38446
699.8876, 12.61823
700.3698, 11.22491
700.8519, 10.18839
701.3340, 9.476349
701.8161, 8.940948
702.2982, 8.386719
702.7803, 8.021179
703.2625, 8.226257
703.7446, 8.843719
704.2267, 9.223541
704.7088, 9.133972
705.1909, 8.642151
705.6730, 7.661530
706.1552, 6.143951
706.6373, 5.287048
707.1194, 5.377045
707.6015, 5.792053
708.0836, 6.306885
708.5657, 6.940674
709.0479, 7.173340
709.5300, 6.960022
710.0121, 6.493042
710.4942, 5.674957
710.9763, 4.663818
711.4584, 3.979614
711.9406, 3.697723
712.4227, 3.822845
712.9048, 5.118958
713.3869, 6.408630
713.8690, 6.352753
714.3511, 3.515625
714.8333, 1.569550
715.3154, 1.859772
715.7975, 2.962708
716.2796, 3.471497
716.7617, 3.332245
717.2438, 2.856262
717.7260, 1.783417
718.2081, 0.7140200
718.6902, 1.010468
719.1723, 2.451721
719.6544, 3.377869
720.1365, 3.138611
720.6187, 2.354309
721.1008, 1.386963
721.5829, 0.4596860
722.0650, 4.7607001E-02
722.5471, 0.8512270
723.0292, 1.669098
723.5114, 1.864014
723.9935, 1.543396
724.4756, 1.573242
724.9577, 2.156372
725.4398, 2.660889
725.9219, 2.968750
726.4041, 3.053558
726.8862, 2.587372
727.3683, 1.496796
727.8504, 0.6871030
728.3325, 0.8309940
728.8146, 1.559906
729.2968, 2.199707
729.7789, 2.736206
730.2610, 3.075256
730.7431, 2.884094
731.2252, 2.679535
731.7073, 3.088959
732.1895, 4.270020
732.6716, 4.556732
733.1537, 2.589569
733.6358, 0.6071470
734.1179, 0.2645870
734.6000, 0.1859130
735.0822, 0.5422360
735.5643, 0.7875060
736.0464, 0.9944150
736.5285, 1.067108
737.0106, 1.137512
737.4927, 2.006165
737.9749, 3.886719
738.4570, 5.237122
738.9391, 4.062378
739.4212, 1.908997
739.9033, 0.5058900
740.3854, 0.3195500
740.8676, 0.6694030
741.3497, 2.118835
741.8318, 3.604919
742.3139, 3.990570
742.7960, 2.627106
743.2781, 1.816559
743.7603, 1.838898
744.2424, 2.215637
744.7245, 2.188690
745.2066, 1.825897
745.6887, 1.835754
746.1708, 2.560425
746.6530, 3.231628
747.1351, 2.691254
747.6172, 1.519958
748.0993, 0.7457580
748.5814, 1.333801
749.0635, 1.696716
749.5457, 0.8088680
750.0278, 0.5980830
750.5099, 0.8981630
750.9920, 0.8060300
751.4741, 1.941406
751.9562, 1.914581
752.4384, 1.145233
752.9205, 0.5921330
753.4026, 0.2548220
753.8847, 0.1671140
754.3668, 0.5386660
754.8489, 0.9467470
755.3311, 0.5688780
755.8132, 0.3106690
756.2953, 0.8559880
756.7774, 0.3317570
757.2595, 0.2759700
757.7416, 0.6347350
758.2238, 0.6968690
758.7059, 0.3317870
759.1880, 0.7574770
759.6701, 1.802673
760.1522, 2.694244
760.6343, 3.361053
761.1165, 3.383942
761.5986, 2.745270
762.0807, 1.829559
762.5628, 0.3993230
763.0449, 0.9736940
763.5270, 1.052917
764.0092, 4.9896002E-02
764.4913, 0.8898010
764.9734, 1.106476
765.4555, 1.086029
765.9376, 1.083893
766.4197, 1.112823
766.9019, 1.147369
767.3840, 1.527191
767.8661, 1.391327
768.3482, 5.4076999E-02
768.8303, 2.700653
769.3124, 3.066589
769.7946, 0.9718630
770.2767, 1.193115
770.7588, 1.431366
771.2409, 0.7160640
771.7230, 0.9216000
772.2051, 2.076385
772.6873, 2.983337
773.1694, 2.602325
773.6515, 1.861389
774.1336, 1.412598
774.6157, 1.392212
775.0978, 1.303223
775.5800, 1.272186
776.0621, 1.040863
776.5442, 0.1521300
777.0263, 1.506927
777.5084, 1.975189
777.9905, 1.136353
778.4727, 1.9073000E-02
778.9548, 0.7608950
779.4369, 1.150635
779.9190, 0.7815550
780.4011, 0.4859620
780.8832, 1.503967
781.3654, 1.266724
781.8475, 0.7084660
782.3296, 0.5500790
782.8117, 1.047089
783.2938, 1.462128
783.7759, 1.625458
784.2581, 1.936432
784.7402, 2.856171
785.2223, 4.361481
785.7044, 5.219208
786.1865, 5.375519
786.6686, 5.301422
787.1508, 5.152466
787.6329, 5.116333
788.1150, 5.511505
788.5971, 6.410126
789.0792, 7.536896
789.5613, 8.984192
790.0435, 10.47751
790.5256, 11.86957
791.0077, 13.34665
791.4898, 13.94302
791.9719, 13.15131
792.4540, 12.43008
792.9362, 13.10556
793.4183, 15.08337
793.9004, 17.28903
794.3825, 19.68201
794.8646, 22.06552
795.3467, 24.34442
795.8289, 26.52960
796.3110, 28.57434
796.7931, 30.44363
797.2752, 32.46701
797.7573, 34.38470
798.2394, 36.78397
798.7216, 40.11179
799.2037, 44.55240
799.6858, 49.59567
800.1679, 55.35458
800.6500, 61.45880
801.1321, 67.39624
801.6143, 73.39249
802.0964, 80.66772
802.5785, 89.33542
803.0606, 99.13599
803.5427, 110.0479
804.0248, 121.7224
804.5070, 133.8723
804.9891, 146.2965
805.4712, 159.5703
805.9533, 174.6724
806.4354, 190.2025
806.9175, 204.9303
807.3997, 218.2550
807.8818, 233.4735
808.3639, 250.8070
808.8460, 269.3697
809.3281, 287.5196
809.8102, 305.9949
810.2924, 326.7924
810.7745, 350.2590
811.2566, 375.3441
811.7387, 400.5136
812.2208, 427.1963
812.7029, 456.5834
813.1851, 489.2036
813.6672, 523.6903
814.1493, 559.8719
814.6314, 598.0831
815.1135, 639.2380
815.5956, 683.9176
816.0778, 724.8210
816.5599, 761.9397
817.0420, 794.5599
817.5241, 823.9271
818.0062, 847.5751
818.4883, 863.1949
818.9705, 870.9197
819.4526, 866.4868
819.9347, 845.5756
820.4168, 813.6058
820.8989, 772.8815
821.3810, 722.7644
821.8632, 670.0002
822.3453, 612.9489
822.8274, 556.3604
823.3095, 504.4414
823.7916, 456.6524
824.2737, 414.1585
824.7559, 376.8127
825.2380, 343.3529
825.7201, 313.5448
826.2022, 287.0491
826.6843, 264.0365
827.1664, 244.6387
827.6486, 227.5342
828.1307, 212.7311
828.6128, 199.7534
829.0949, 188.4225
829.5770, 178.8339
830.0591, 170.0316
830.5413, 162.0053
831.0234, 155.2177
831.5055, 149.8620
831.9876, 145.9963
832.4697, 143.6815
832.9518, 142.9427
833.4340, 143.7811
833.9161, 146.2211
834.3982, 150.2547
834.8803, 155.7534
835.3624, 162.7799
835.8445, 171.7976
836.3267, 182.7113
836.8088, 195.7579
837.2909, 211.4070
837.7730, 229.2918
838.2551, 246.9892
838.7372, 264.5584
839.2194, 283.0935
839.7015, 304.0019
840.1836, 325.7223
840.6657, 346.3214
841.1478, 366.2468
841.6299, 387.3368
842.1121, 408.9312
842.5942, 433.3416
843.0763, 461.5853
843.5584, 493.3041
844.0405, 525.8243
844.5226, 558.5788
845.0048, 596.2972
845.4869, 642.3586
845.9690, 693.7603
846.4511, 743.9225
846.9332, 793.8171
847.4153, 846.0497
847.8975, 904.0895
848.3796, 962.4915
848.8617, 1021.932
849.3438, 1079.862
849.8259, 1129.101
850.3080, 1175.376
850.7902, 1201.536
851.2723, 1203.759
851.7544, 1183.708
852.2365, 1142.256
852.7186, 1080.679
853.2007, 1004.902
853.6829, 911.7204
854.1650, 815.2343
854.6471, 722.3447
855.1292, 635.2272
855.6113, 557.2622
856.0934, 492.5654
856.5756, 434.6466
857.0577, 382.3855
857.5398, 336.5858
858.0219, 297.0323
858.5040, 263.6383
858.9861, 235.4027
859.4683, 212.4204
859.9504, 192.6353
860.4325, 174.1443
860.9146, 157.0629
861.3967, 142.0074
861.8788, 129.4235
862.3610, 118.3399
862.8431, 108.7256
863.3252, 100.2521
863.8073, 92.81546
864.2894, 86.81058
864.7715, 80.72253
865.2537, 74.43784
865.7358, 68.38977
866.2179, 62.72156
866.7000, 57.53241
867.1821, 53.20407
867.6642, 49.73904
868.1464, 46.76770
868.6285, 44.37244
869.1106, 42.18234
869.5927, 39.81729
870.0748, 37.11819
870.5569, 34.85901
871.0391, 33.19254
871.5212, 31.62970
872.0033, 29.74023
872.4854, 27.68008
872.9675, 26.64105
873.4496, 26.53201
873.9318, 26.24295
874.4139, 24.61707
874.8960, 22.76947
875.3781, 21.78845
875.8602, 21.57968
876.3423, 21.18124
876.8245, 19.79330
877.3066, 18.90518
877.7887, 19.09875
878.2708, 20.07471
878.7529, 20.58505
879.2350, 20.63342
879.7172, 20.61746
880.1993, 20.78897
880.6814, 20.89960
881.1635, 20.51355
881.6456, 19.81833
882.1277, 19.24765
882.6099, 19.28394
883.0920, 19.08551
883.5741, 18.14969
884.0562, 16.97507
884.5383, 16.23898
885.0204, 15.89899
885.5026, 16.30045
885.9847, 17.56708
886.4668, 19.40686
886.9489, 21.67328
887.4310, 24.17377
887.9131, 26.43222
888.3953, 28.14111
888.8774, 30.12122
889.3595, 32.97391
889.8416, 36.11472
890.3237, 38.99420
890.8058, 41.48038
891.2880, 43.89951
891.7701, 46.11044
892.2522, 48.64328
892.7343, 51.93628
893.2164, 55.95529
893.6985, 60.46802
894.1807, 65.43085
894.6628, 71.60635
895.1449, 80.66116
895.6270, 90.04626
896.1091, 98.02313
896.5912, 104.2981
897.0734, 110.9814
897.5555, 118.1334
898.0376, 125.5226
898.5197, 133.8882
899.0018, 142.0989
899.4839, 146.2847
899.9661, 146.4812
900.4482, 142.9087
900.9303, 135.0569
901.4124, 124.0719
901.8945, 108.5374
902.3766, 90.30359
902.8588, 74.87744
903.3409, 63.84799
903.8230, 54.04022
904.3051, 44.91248
904.7872, 36.60229
905.2693, 28.90747
905.7515, 22.01614
906.2336, 16.99982
906.7157, 14.51166
907.1978, 12.96014
907.6799, 11.36060
908.1620, 9.735291
908.6442, 8.065186
909.1263, 5.983337
909.6084, 4.634094
910.0905, 4.528656
910.5726, 4.490997
911.0547, 3.138000
911.5369, 0.6493230
912.0190, 0.7686460
912.5011, 0.9512020
912.9832, 0.7934570
913.4653, 0.6909790
913.9474, 0.8248600
914.4296, 1.567078
914.9117, 2.987885
915.3938, 3.901398
915.8759, 4.014343
916.3580, 3.761139
916.8401, 3.247192
917.3223, 2.515198
917.8044, 1.609833
918.2865, 0.5716860
918.7686, 5.3130999E-02
919.2507, 1.008118
919.7328, 2.086853
920.2150, 1.574951
920.6971, 0.1605220
921.1792, 0.4552920
921.6613, 0.8482060
922.1434, 2.154877
922.6255, 3.388733
923.1077, 4.313232
923.5898, 4.432343
924.0719, 3.777313
924.5540, 2.825562
925.0361, 1.546326
925.5182, 0.4682620
926.0004, 0.2312930
926.4825, 0.4490970
926.9646, 0.6940000
927.4467, 0.9755860
927.9288, 1.020569
928.4109, 0.8126530
928.8931, 0.3157960
929.3752, 0.7268680
929.8573, 2.330078
930.3394, 2.948425
930.8215, 2.582123
931.3036, 2.177032
931.7858, 2.500000
932.2679, 3.086700
932.7500, 3.257324
933.2321, 3.134155
933.7142, 3.834259
934.1964, 6.406799
934.6785, 8.817657
935.1606, 10.56815
935.6427, 11.79135
936.1248, 12.67648
936.6069, 13.31155
937.0891, 14.48544
937.5712, 16.62512
938.0533, 18.88428
938.5354, 20.27588
939.0175, 21.47906
939.4996, 23.40811
939.9818, 26.97870
940.4639, 30.16144
940.9460, 32.88806
941.4281, 35.27295
941.9102, 36.98688
942.3923, 38.14731
942.8745, 40.40207
943.3566, 43.94574
943.8387, 48.06659
944.3208, 52.26480
944.8029, 56.66574
945.2850, 61.35141
945.7672, 66.30154
946.2493, 71.83054
946.7314, 78.45905
947.2135, 84.75903
947.6956, 90.28754
948.1777, 95.05673
948.6599, 99.33170
949.1420, 102.8573
949.6241, 104.0253
950.1062, 102.0778
950.5883, 97.52829
951.0704, 89.54883
951.5526, 79.43906
952.0347, 69.67624
952.5168, 59.60159
952.9989, 51.72247
953.4810, 46.77051
953.9631, 42.97372
954.4453, 37.87155
954.9274, 32.05121
955.4095, 27.72000
955.8916, 25.28638
956.3737, 23.19971
956.8558, 19.97131
957.3380, 17.06839
957.8201, 15.98297
958.3022, 16.93344
958.7843, 16.29086
959.2664, 13.46127
959.7485, 10.90195
960.2307, 10.08066
960.7128, 10.18283
961.1949, 9.199280
961.6770, 7.437164
962.1591, 6.001038
962.6412, 5.530304
963.1234, 5.336578
963.6055, 5.126770
964.0876, 5.036804
964.5697, 5.382385
965.0518, 6.361572
965.5339, 6.858734
966.0161, 6.711700
966.4982, 6.165558
966.9803, 5.302917
967.4624, 4.317108
967.9445, 3.487213
968.4266, 2.818939
968.9088, 2.549194
969.3909, 3.246063
969.8730, 3.857269
970.3551, 3.766785
970.8372, 3.046600
971.3193, 2.787323
971.8015, 2.986420
972.2836, 3.354645
972.7657, 3.858276
973.2478, 4.303253
973.7299, 4.612091
974.2120, 4.717468
974.6942, 4.427338
975.1763, 2.842926
975.6584, 2.082520
976.1405, 2.719360
976.6226, 3.922821
977.1047, 4.506165
977.5869, 4.503662
978.0690, 4.423737
978.5511, 4.361603
979.0332, 4.292572
979.5153, 4.279968
979.9974, 4.102234
980.4796, 3.422791
980.9617, 2.112244
981.4438, 1.479065
981.9259, 1.866791
982.4080, 2.432068
982.8901, 2.825226
983.3723, 3.097565
983.8544, 3.639557
984.3365, 4.234650
984.8186, 4.089691
985.3007, 1.662537
985.7828, 0.3207400
986.2650, 0.2054440
986.7471, 1.099945
987.2292, 2.046631
987.7113, 2.589874
988.1934, 2.665070
988.6755, 2.159851
989.1577, 1.501343
989.6398, 1.043518
990.1219, 0.8132630
990.6040, 1.023376
991.0861, 1.706268
991.5682, 2.039154
992.0504, 1.239899
992.5325, 0.5122380
993.0146, 0.5531010
993.4967, 1.139435
993.9788, 0.7138060
994.4609, 0.7140500
994.9431, 1.510376
995.4252, 0.5770870
995.9073, 0.6461790
996.3894, 0.4262700
996.8715, 0.5292970
997.3536, 1.065887
997.8358, 0.2998960
998.3179, 2.1911999E-02
998.8000, 0.5799260
999.2821, 1.161835
999.7642, 0.8684080
1000.246, 0.1307680
1000.728, 0.9169920
1001.211, 1.427979
1001.693, 1.712616
1002.175, 1.462982
1002.657, 1.310913
1003.139, 1.764038
1003.621, 2.745361
1004.103, 3.621246
1004.585, 4.518402
1005.068, 4.752563
1005.550, 3.933136
1006.032, 2.782227
1006.514, 2.336731
1006.996, 2.445343
1007.478, 2.834839
1007.960, 3.642609
1008.442, 4.209290
1008.924, 3.938080
1009.407, 3.689850
1009.889, 4.103241
1010.371, 5.184479
1010.853, 6.109619
1011.335, 6.881836
1011.817, 7.395416
1012.299, 7.437347
1012.781, 7.288269
1013.263, 7.096924
1013.746, 6.922821
1014.228, 6.971436
1014.710, 7.631470
1015.192, 7.780640
1015.674, 7.019318
1016.156, 6.078308
1016.638, 6.226135
1017.120, 7.107910
1017.603, 7.620728
1018.085, 7.563019
1018.567, 7.288940
1019.049, 6.677643
1019.531, 6.207031
1020.013, 6.333344
1020.495, 7.014191
1020.977, 7.052582
1021.459, 6.335663
1021.942, 5.987976
1022.424, 6.819946
1022.906, 7.974823
1023.388, 8.432312
1023.870, 8.309296
1024.352, 7.831848
1024.834, 6.278534
1025.316, 5.600006
1025.799, 6.476227
1026.281, 7.519531
1026.763, 7.024170
1027.245, 5.351135
1027.727, 4.783997
1028.209, 5.398010
1028.691, 6.032898
1029.173, 5.741058
1029.656, 5.379272
1030.138, 5.731628
1030.620, 6.573334
1031.102, 6.480316
1031.584, 4.974213
1032.066, 4.580475
1032.548, 6.285919
1033.030, 8.456207
1033.512, 8.651611
1033.995, 7.642456
1034.477, 6.607391
1034.959, 5.715820
1035.441, 5.102875
1035.923, 4.829437
1036.405, 4.820648
1036.887, 5.149445
1037.369, 5.749725
1037.851, 5.974854
1038.334, 5.864807
1038.816, 5.790466
1039.298, 6.467346
1039.780, 6.780945
1040.262, 5.500641
1040.744, 3.429016
1041.226, 2.203094
1041.708, 2.149689
1042.191, 2.100647
1042.673, 1.934998
1043.155, 1.902161
1043.637, 2.602264
1044.119, 3.461731
1044.601, 3.114258
1045.083, 1.493134
1045.565, 0.4074400
1046.047, 0.9364320
1046.530, 1.610443
1047.012, 2.025208
1047.494, 2.216888
1047.976, 2.268646
1048.458, 2.197540
1048.940, 1.992249
1049.422, 1.491180
1049.904, 1.318726
1050.386, 2.502014
1050.869, 3.927612
1051.351, 4.303833
1051.833, 3.289825
1052.315, 2.912903
1052.797, 3.372650
1053.279, 3.799469
1053.761, 3.492859
1054.243, 2.813538
1054.726, 2.378174
1055.208, 2.161560
1055.690, 2.127563
1056.172, 2.670288
1056.654, 2.606598
1057.136, 1.496033
1057.618, 0.1905210
1058.100, 0.3365780
1058.583, 0.2023620
1059.065, 0.1135560
1059.547, 0.5679320
1060.029, 1.002197
1060.511, 1.322083
1060.993, 1.484589
1061.475, 1.423706
1061.957, 1.158386
1062.439, 0.6759640
1062.922, 0.1398010
1063.404, 0.3240050
1063.886, 0.5761410
1064.368, 1.549896
1064.850, 1.209900
1065.332, 0.2418210
1065.814, 0.4287410
1066.296, 0.5517880
1066.778, 0.7433170
1067.261, 1.284454
1067.743, 1.502686
1068.225, 0.9048460
1068.707, 0.2050780
1069.189, 0.8286130
1069.671, 1.044739
1070.153, 1.211121
1070.635, 1.429749
1071.118, 1.697083
1071.600, 2.235657
1072.082, 2.661011
1072.564, 2.425110
1073.046, 1.419647
1073.528, 1.230957
1074.010, 1.927551
1074.492, 2.759064
1074.974, 3.403229
1075.457, 3.703644
1075.939, 3.283112
1076.421, 2.358459
1076.903, 1.810608
1077.385, 1.758240
1077.867, 1.899292
1078.349, 2.217010
1078.831, 2.622559
1079.313, 2.964600
1079.796, 3.324554
1080.278, 4.060974
1080.760, 5.280975
1081.242, 5.700714
1081.724, 3.658600
1082.206, 2.219177
1082.688, 2.762085
1083.170, 4.554443
1083.652, 5.148285
1084.135, 4.703217
1084.617, 4.171234
1085.099, 3.794800
1085.581, 3.685577
1086.063, 4.201294
1086.545, 4.807404
1087.027, 4.992401
1087.509, 4.700226
1087.992, 4.606293
1088.474, 4.729401
1088.956, 4.822113
1089.438, 4.799438
1089.920, 4.644257
1090.402, 4.007263
1090.884, 3.165070
1091.366, 2.904541
1091.849, 3.699005
1092.331, 4.352386
1092.813, 4.831970
1093.295, 5.063446
1093.777, 4.894531
1094.259, 4.445709
1094.741, 3.722229
1095.223, 2.849152
1095.705, 2.631134
1096.188, 4.407684
1096.670, 5.560577
1097.152, 5.160950
1097.634, 4.091675
1098.116, 4.010712
1098.598, 4.744598
1099.080, 5.299805
1099.562, 5.513367
1100.044, 5.673187
1100.527, 6.170319
1101.009, 6.493225
1101.491, 6.214691
1101.973, 5.443451
1102.455, 4.724701
1102.937, 4.032532
1103.419, 3.810730
1103.901, 4.382629
1104.384, 5.094269
1104.866, 5.159302
1105.348, 5.057953
1105.830, 5.346191
1106.312, 6.267395
1106.794, 6.593842
1107.276, 6.209229
1107.758, 5.609558
1108.240, 4.963470
1108.723, 4.379486
1109.205, 4.101898
1109.687, 4.025330
1110.169, 3.904572
1110.651, 3.190826
1111.133, 3.251984
1111.615, 4.720062
1112.097, 6.075317
1112.579, 5.725525
1113.062, 4.121735
1113.544, 2.544556
1114.026, 1.165131
1114.508, 0.8241580
1114.990, 3.650208
1115.472, 5.519012
1115.954, 4.353668
1116.436, 1.851715
1116.919, 0.1952210
1117.401, 0.6159360
1117.883, 1.9135000E-02
1118.365, 2.093933
1118.847, 4.140991
1119.329, 5.212311
1119.811, 5.545685
1120.293, 4.808929
1120.776, 3.423309
1121.258, 3.199463
1121.740, 4.342651
1122.222, 4.836914
1122.704, 4.081909
1123.186, 3.080353
1123.668, 2.927216
1124.150, 3.064484
1124.632, 2.882507
1125.115, 2.252533
1125.597, 1.383453
1126.079, 1.1993000E-02
1126.561, 0.3638610
1127.043, 1.238312
1127.525, 3.407349
1128.007, 3.816833
1128.489, 3.139069
1128.971, 2.492249
1129.454, 2.145355
1129.936, 1.820984
1130.418, 1.379913
1130.900, 1.156647
1131.382, 1.478333
1131.864, 2.101074
1132.346, 2.373535
1132.828, 2.332336
1133.311, 2.086670
1133.793, 0.8801880
1134.275, 0.6810610
1134.757, 2.791077
1135.239, 5.024109
1135.721, 5.276489
1136.203, 3.828705
1136.685, 2.966278
1137.167, 2.678040
1137.650, 2.512115
1138.132, 2.334442
1138.614, 2.074066
1139.096, 1.728210
1139.578, 1.256836
1140.060, 0.4575200
1140.542, 0.6860050
1141.024, 1.190552
1141.506, 0.9734190
1141.989, 0.3576050
1142.471, 0.6626280
1142.953, 1.767792
1143.435, 3.059113
1143.917, 4.223236
1144.399, 4.161285
1144.881, 2.624268
1145.363, 1.931793
1145.846, 2.652527
1146.328, 3.246643
1146.810, 1.410553
1147.292, 0.7360840
1147.774, 0.9378970
1148.256, 0.9123540
1148.738, 2.065521
1149.220, 2.433502
1149.703, 2.198853
1150.185, 1.205780
1150.667, 0.2051390
1151.149, 7.7179000E-02
1151.631, 0.6126400
1152.113, 1.748352
1152.595, 3.649933
1153.077, 4.601349
1153.559, 4.243195
1154.042, 3.619995
1154.524, 2.973969
1155.006, 2.552612
1155.488, 3.171875
1155.970, 4.267365
1156.452, 4.697296
1156.934, 3.990997
1157.416, 3.159790
1157.898, 2.154083
1158.381, 1.409088
1158.863, 1.253082
1159.345, 1.482788
1159.827, 1.571777
1160.309, 1.556732
1160.791, 1.548950
1161.273, 1.853790
1161.755, 1.656952
1162.238, 0.3130490
1162.720, 0.8883060
1163.202, 0.8898320
1163.684, 8.8134997E-02
1164.166, 0.9425050
1164.648, 1.693542
1165.130, 2.408875
1165.612, 3.227814
1166.094, 3.875031
1166.577, 4.364899
1167.059, 4.530762
1167.541, 3.952667
1168.023, 2.765564
1168.505, 2.405762
1168.987, 2.822083
1169.469, 3.320801
1169.951, 3.381836
1170.433, 3.274902
1170.916, 3.199677
1171.398, 3.061737
1171.880, 2.629028
1172.362, 1.934418
1172.844, 1.737427
1173.326, 2.085846
1173.808, 2.342133
1174.290, 1.934235
1174.773, 1.483185
1175.255, 1.175781
1175.737, 1.055786
1176.219, 1.321625
1176.701, 1.979492
1177.183, 2.644409
1177.665, 3.251862
1178.147, 3.670288
1178.630, 3.933289
1179.112, 3.880920
1179.594, 2.975494
1180.076, 1.686218
1180.558, 1.743713
1181.040, 3.255676
1181.522, 3.833191
1182.004, 2.908325
1182.486, 1.762024
1182.969, 1.284027
1183.451, 1.267761
1183.933, 1.720245
1184.415, 2.512787
1184.897, 3.084839
1185.379, 3.444275
1185.861, 3.265045
1186.343, 2.311218
1186.825, 1.453552
1187.308, 1.701263
1187.790, 2.353271
1188.272, 2.807159
1188.754, 3.020386
1189.236, 2.947205
1189.718, 2.531891
1190.200, 2.467560
1190.682, 3.120697
1191.165, 3.799957
1191.647, 3.759827
1192.129, 3.357330
1192.611, 2.937653
1193.093, 2.536926
1193.575, 2.066498
1194.057, 1.457642
1194.539, 1.313477
1195.021, 2.124359
1195.504, 2.956299
1195.986, 2.303650
1196.468, 1.272949
1196.950, 1.426300
1197.432, 3.140625
1197.914, 4.369324
1198.396, 5.071991
1198.878, 5.309570
1199.360, 5.034119
1199.843, 4.557098
1200.325, 4.201111
1200.807, 3.839966
1201.289, 3.219849
1201.771, 2.117432
1202.253, 1.943542
1202.735, 2.913055
1203.217, 3.410095
1203.700, 2.109009
1204.182, 0.3895570
1204.664, 0.3566590
1205.146, 0.3958130
1205.628, 1.6418001E-02
1206.110, 1.224548
1206.592, 1.552460
1207.074, 0.8146970
1207.557, 0.3795470
1208.039, 1.512726
1208.521, 3.086884
1209.003, 3.894867
1209.485, 4.105499
1209.967, 3.815430
1210.449, 2.771179
1210.931, 2.002777
1211.413, 1.454102
1211.896, 1.533661
1212.378, 3.318115
1212.860, 5.184692
1213.342, 5.081696
1213.824, 3.830444
1214.306, 3.090210
1214.788, 2.985474
1215.270, 3.547394
1215.752, 4.903381
1216.235, 5.881226
1216.717, 5.302551
1217.199, 4.198242
1217.681, 3.591095
1218.163, 3.250061
1218.645, 2.553436
1219.127, 1.162933
1219.609, 0.7805480
1220.092, 1.567230
1220.574, 2.436005
1221.056, 2.561707
1221.538, 2.521454
1222.020, 2.972443
1222.502, 3.530579
1222.984, 3.167328
1223.466, 1.445587
1223.948, 1.073517
1224.431, 2.318359
1224.913, 3.474976
1225.395, 3.166260
1225.877, 2.198944
1226.359, 0.5317990
1226.841, 1.004150
1227.323, 0.6026310
1227.805, 2.246765
1228.287, 4.068817
1228.770, 4.596283
1229.252, 4.485870
1229.734, 3.978943
1230.216, 3.299866
1230.698, 2.578247
1231.180, 1.806366
1231.662, 0.8391110
1232.144, 0.4051510
1232.627, 0.6046140
1233.109, 0.3800960
1233.591, 1.224426
1234.073, 0.5780030
1234.555, 0.1737060
1235.037, 6.2438998E-02
1235.519, 0.5652160
1236.001, 1.041870
1236.484, 1.369110
1236.966, 1.938385
1237.448, 2.787567
1237.930, 3.341187
1238.412, 3.005615
1238.894, 2.482483
1239.376, 2.184326
1239.858, 1.944061
1240.340, 1.292328
1240.823, 0.3305970
1241.305, 0.3608400
1241.787, 1.464478
1242.269, 2.355865
1242.751, 1.838684
1243.233, 1.399597
1243.715, 1.881714
1244.197, 2.640411
1244.679, 2.593567
1245.162, 1.906433
1245.644, 1.343719
1246.126, 1.000061
1246.608, 1.060638
1247.090, 2.025177
1247.572, 2.920227
1248.054, 3.468140
1248.536, 3.747498
1249.019, 3.873016
1249.501, 3.813690
1249.983, 3.247955
1250.465, 2.236694
1250.947, 1.781860
1251.429, 3.061737
1251.911, 3.882996
1252.393, 3.680511
1252.875, 3.049957
1253.358, 2.601868
1253.840, 2.403870
1254.322, 2.809113
1254.804, 3.820526
1255.286, 4.199615
1255.768, 3.017487
1256.250, 2.249237
1256.732, 2.308380
1257.214, 2.586945
1257.697, 2.355072
1258.179, 1.840698
1258.661, 1.234772
1259.143, 0.6399840
1259.625, 0.5788270
1260.107, 0.9578250
1260.589, 2.541412
1261.071, 5.929443
1261.554, 8.474274
1262.036, 6.020844
1262.518, 2.105194
1263.000, 0.9447330
1263.482, 2.169739
1263.964, 2.741180
1264.446, 2.432465
1264.928, 1.601898
1265.411, 2.5665000E-02
1265.893, 0.8610530
1266.375, 0.5819700
1266.857, 2.611633
1267.339, 3.740173
1267.821, 4.198608
1268.303, 5.281036
1268.785, 7.238098
1269.267, 7.853424
1269.750, 7.004089
1270.232, 5.585449
1270.714, 3.033905
1271.196, 1.448792
1271.678, 3.615631
1272.160, 6.943390
1272.642, 6.844971
1273.124, 3.654480
1273.606, 2.343140
1274.089, 3.212006
1274.571, 4.084381
1275.053, 3.520935
1275.535, 2.887207
1276.017, 2.677185
1276.499, 2.681396
1276.981, 2.676880
1277.463, 2.643463
1277.946, 2.333893
1278.428, 1.832764
1278.910, 1.805206
1279.392, 3.531891
1279.874, 4.205048
1280.356, 2.859406
1280.838, 1.304077
1281.320, 1.918640
1281.802, 3.591553
1282.285, 4.158142
1282.767, 3.629333
1283.249, 2.476379
1283.731, 0.3221130
1284.213, 1.275879
1284.695, 1.5778000E-02
1285.177, 1.930664
1285.659, 2.402771
1286.141, 2.179718
1286.624, 2.067596
1287.106, 2.094971
1287.588, 2.299866
1288.070, 2.815979
1288.552, 2.860382
1289.034, 2.347015
1289.516, 1.934784
1289.998, 2.208008
1290.481, 2.703949
1290.963, 3.192902
1291.445, 3.576080
1291.927, 3.790863
1292.409, 3.852234
1292.891, 3.173370
1293.373, 1.818787
1293.855, 3.5645001E-02
1294.338, 0.1387630
1294.820, 0.7770390
1295.302, 1.625824
1295.784, 2.361847
1296.266, 2.533569
1296.748, 2.290955
1297.230, 2.870636
1297.712, 4.047241
1298.194, 4.751312
1298.677, 3.678040
1299.159, 3.226532
1299.641, 3.726898
1300.123, 4.496582
1300.605, 5.433777
1301.087, 6.068146
1301.569, 4.423584
1302.051, 1.581604
1302.533, 1.4099000E-02
1303.016, 0.0000000E+00
##END=



