##NAMES=Montebrasite
##RRUFFID=R040060
##IDEAL CHEMISTRY=LiAlPO_4_(OH)
##LOCALITY=Oxford County, Maine, USA
##OWNER=RRUFF
##SOURCE=University of Arizona Mineral Museum
##DESCRIPTION=White massive
##STATUS=The identification of this mineral has been confirmed by X-ray diffraction and chemical analysis
##URL=rruff.info/R040060
##MEASURED CHEMISTRY=LiAl(PO_4_)((OH)_0.79_F_0.21_)
114.7725, 0.0000000E+00
115.2547, 1.966389
115.7368, 5.574215
116.2189, 9.402504
116.7010, 4.610138
117.1831, 0.1913830
117.6652, 1.522057
118.1474, 0.7019960
118.6295, 1.202263
119.1116, 4.361252
119.5937, 7.964767
120.0758, 10.99649
120.5579, 11.54734
121.0401, 12.34066
121.5222, 15.67263
122.0043, 21.95289
122.4864, 28.59052
122.9685, 33.73872
123.4506, 37.81451
123.9328, 41.75569
124.4149, 44.91846
124.8970, 48.58424
125.3791, 54.81021
125.8612, 64.52474
126.3433, 75.24731
126.8255, 83.59672
127.3076, 90.03390
127.7897, 97.36015
128.2718, 108.3141
128.7539, 121.7897
129.2361, 134.9786
129.7182, 147.9021
130.2003, 159.7007
130.6824, 168.0982
131.1645, 173.0027
131.6466, 176.9734
132.1288, 183.1036
132.6109, 191.0623
133.0930, 197.4316
133.5751, 200.6058
134.0572, 201.0304
134.5393, 201.0902
135.0215, 200.7071
135.5036, 200.1888
135.9857, 201.0171
136.4678, 203.7665
136.9499, 203.5139
137.4320, 197.4257
137.9142, 184.9209
138.3963, 171.7558
138.8784, 157.6901
139.3605, 143.3224
139.8426, 130.9049
140.3247, 121.2725
140.8069, 111.3293
141.2890, 98.50607
141.7711, 80.31409
142.2532, 66.51268
142.7353, 58.53069
143.2174, 55.78465
143.6996, 53.92220
144.1817, 53.08411
144.6638, 52.91690
145.1459, 53.35649
145.6280, 55.66708
146.1101, 56.41026
146.5923, 54.52097
147.0744, 49.68942
147.5565, 45.65866
148.0386, 42.70717
148.5207, 40.43773
149.0028, 38.40741
149.4850, 35.91980
149.9671, 34.38319
150.4492, 34.48090
150.9313, 37.56238
151.4134, 38.98495
151.8955, 37.20013
152.3777, 33.97264
152.8598, 32.35435
153.3419, 34.24681
153.8240, 36.37184
154.3061, 37.55945
154.7883, 36.73958
155.2704, 36.46500
155.7525, 37.06180
156.2346, 38.44145
156.7167, 40.32620
157.1988, 43.61002
157.6810, 46.78621
158.1631, 48.99602
158.6452, 46.34520
159.1273, 46.42509
159.6094, 52.99283
160.0915, 65.07275
160.5737, 75.43326
161.0558, 80.52930
161.5379, 83.30902
162.0200, 86.32509
162.5021, 90.14156
162.9842, 94.46185
163.4664, 99.56007
163.9485, 105.4622
164.4306, 110.5622
164.9127, 113.7885
165.3948, 115.8462
165.8769, 117.6483
166.3591, 119.6731
166.8412, 121.5158
167.3233, 122.9415
167.8054, 123.9548
168.2875, 124.5630
168.7696, 125.2628
169.2518, 125.5751
169.7339, 124.5629
170.2160, 121.0630
170.6981, 116.3723
171.1802, 111.2024
171.6623, 105.0563
172.1445, 100.2333
172.6266, 99.35104
173.1087, 101.6858
173.5908, 103.7292
174.0729, 103.6712
174.5550, 101.9400
175.0372, 98.88544
175.5193, 94.04768
176.0014, 88.77124
176.4835, 83.65086
176.9656, 78.84622
177.4477, 75.50121
177.9299, 76.29929
178.4120, 79.12491
178.8941, 79.42653
179.3762, 74.20126
179.8583, 67.20660
180.3405, 64.40189
180.8226, 65.69147
181.3047, 68.09280
181.7868, 68.69946
182.2689, 68.33783
182.7510, 68.95859
183.2332, 72.44421
183.7153, 76.97984
184.1974, 77.90613
184.6795, 74.93704
185.1616, 70.95377
185.6437, 68.96396
186.1259, 68.72150
186.6080, 68.92365
187.0901, 67.94562
187.5722, 66.76340
188.0543, 70.21407
188.5364, 79.56398
189.0186, 89.32823
189.5007, 91.18059
189.9828, 85.56259
190.4649, 80.35794
190.9470, 80.83096
191.4291, 85.70834
191.9113, 86.45744
192.3934, 81.71130
192.8755, 74.85599
193.3576, 71.76746
193.8397, 72.59625
194.3218, 74.13226
194.8040, 74.97063
195.2861, 75.17224
195.7682, 75.14334
196.2503, 75.27213
196.7324, 74.45729
197.2145, 69.74881
197.6967, 60.88771
198.1788, 51.90007
198.6609, 46.06837
199.1430, 43.38507
199.6251, 39.07716
200.1072, 31.38133
200.5894, 22.19504
201.0715, 18.25789
201.5536, 20.80927
202.0357, 24.37692
202.5178, 23.78284
202.9999, 18.07034
203.4821, 15.58173
203.9642, 19.30447
204.4463, 27.47229
204.9284, 29.19125
205.4105, 22.47453
205.8926, 14.15930
206.3748, 10.55196
206.8569, 12.46184
207.3390, 15.59061
207.8211, 20.13806
208.3032, 25.75327
208.7854, 25.77444
209.2675, 17.65868
209.7496, 8.632233
210.2317, 7.566238
210.7138, 17.30118
211.1959, 25.36665
211.6781, 28.25493
212.1602, 25.89037
212.6423, 23.38844
213.1244, 19.88441
213.6065, 17.37213
214.0886, 18.86313
214.5708, 25.74884
215.0529, 32.89099
215.5350, 39.39760
216.0171, 45.53818
216.4992, 47.90994
216.9813, 44.66467
217.4635, 39.43057
217.9456, 38.11917
218.4277, 42.41077
218.9098, 46.88483
219.3919, 49.88080
219.8740, 51.33070
220.3562, 51.40875
220.8383, 49.19266
221.3204, 46.26677
221.8025, 45.82965
222.2846, 49.29820
222.7667, 52.58589
223.2489, 54.22217
223.7310, 53.84209
224.2131, 52.92702
224.6952, 51.48604
225.1773, 49.50658
225.6594, 46.61995
226.1416, 41.21335
226.6237, 37.54678
227.1058, 38.04593
227.5879, 45.86047
228.0700, 49.94836
228.5521, 49.03154
229.0343, 44.74724
229.5164, 41.36276
229.9985, 39.30878
230.4806, 37.54486
230.9627, 35.46524
231.4448, 32.32428
231.9270, 30.59952
232.4091, 30.68918
232.8912, 32.19632
233.3733, 34.12970
233.8554, 38.05304
234.3376, 40.25885
234.8197, 38.50232
235.3018, 30.61435
235.7839, 23.37329
236.2660, 16.65613
236.7481, 10.84824
237.2303, 8.056335
237.7124, 10.78650
238.1945, 13.16931
238.6766, 11.31015
239.1587, 1.352600
239.6408, 4.734772
240.1230, 5.002609
240.6051, 0.6173710
241.0872, 3.040985
241.5693, 6.433868
242.0514, 8.493408
242.5335, 8.318817
243.0157, 4.428741
243.4978, 1.251343
243.9799, 0.9534300
244.4620, 2.178314
244.9441, 2.176331
245.4262, 0.4390260
245.9084, 2.509033
246.3905, 1.661591
246.8726, 4.316010
247.3547, 8.514206
247.8368, 10.00595
248.3189, 9.064041
248.8011, 7.451324
249.2832, 4.451263
249.7653, 1.681152
250.2474, 0.4275510
250.7295, 1.641174
251.2116, 2.100098
251.6938, 0.4654240
252.1759, 2.630005
252.6580, 1.405090
253.1401, 7.654388
253.6222, 16.18384
254.1043, 17.20476
254.5865, 5.814941
255.0686, 1.526428
255.5507, 1.053009
256.0328, 6.019104
256.5149, 8.968842
256.9970, 6.710938
257.4792, 1.954803
257.9613, 3.627808
258.4434, 10.63693
258.9255, 16.74261
259.4076, 21.48059
259.8897, 24.95410
260.3719, 27.98398
260.8540, 29.61237
261.3361, 32.29272
261.8182, 37.89337
262.3003, 46.76511
262.7824, 58.02417
263.2646, 73.29944
263.7467, 91.50098
264.2288, 102.0103
264.7109, 101.7964
265.1930, 99.30325
265.6751, 100.9063
266.1573, 107.2023
266.6394, 115.6068
267.1215, 126.0562
267.6036, 138.3360
268.0857, 152.2433
268.5678, 168.4478
269.0500, 184.3286
269.5321, 197.7371
270.0142, 208.0074
270.4963, 218.4099
270.9784, 229.8978
271.4605, 241.8938
271.9427, 250.6184
272.4248, 254.8251
272.9069, 259.0133
273.3890, 266.9098
273.8711, 279.1266
274.3532, 292.2897
274.8354, 307.4791
275.3175, 322.9513
275.7996, 330.2232
276.2817, 327.8821
276.7639, 322.0017
277.2460, 318.2574
277.7281, 317.3252
278.2102, 310.1694
278.6923, 293.5692
279.1744, 270.4425
279.6566, 251.2061
280.1387, 235.7701
280.6208, 224.4749
281.1029, 218.8285
281.5850, 218.9269
282.0671, 217.5573
282.5493, 212.0620
283.0314, 205.5628
283.5135, 207.2113
283.9956, 217.5091
284.4777, 232.0208
284.9598, 247.0601
285.4420, 262.8989
285.9241, 282.8146
286.4062, 307.6459
286.8883, 336.4352
287.3704, 366.7528
287.8525, 398.6998
288.3347, 434.2914
288.8168, 476.4295
289.2989, 523.7452
289.7810, 566.3714
290.2631, 601.5647
290.7452, 633.5379
291.2274, 671.0146
291.7095, 713.5585
292.1916, 756.3911
292.6737, 794.3853
293.1558, 829.2014
293.6379, 865.4958
294.1201, 904.1843
294.6022, 945.4271
295.0843, 993.6882
295.5664, 1047.558
296.0485, 1095.037
296.5306, 1128.094
297.0128, 1147.980
297.4949, 1160.613
297.9770, 1168.206
298.4591, 1165.235
298.9412, 1141.720
299.4233, 1099.823
299.9055, 1050.427
300.3876, 996.9595
300.8697, 941.2846
301.3518, 885.0172
301.8339, 828.6083
302.3160, 771.3461
302.7982, 709.5756
303.2803, 646.1722
303.7624, 591.1533
304.2445, 551.7501
304.7266, 522.5112
305.2087, 495.8593
305.6909, 471.4767
306.1730, 450.2626
306.6551, 434.4046
307.1372, 422.6958
307.6193, 411.8766
308.1014, 400.2736
308.5836, 389.4353
309.0657, 381.9747
309.5478, 378.6907
310.0299, 373.6447
310.5120, 359.7548
310.9941, 341.6432
311.4763, 326.7410
311.9584, 322.9421
312.4405, 321.5111
312.9226, 315.9220
313.4047, 305.3627
313.8868, 293.4238
314.3690, 282.8099
314.8511, 272.2923
315.3332, 260.0989
315.8153, 238.9062
316.2974, 221.3524
316.7795, 216.2230
317.2617, 223.3245
317.7438, 228.5001
318.2259, 225.1844
318.7080, 218.1498
319.1901, 211.6589
319.6722, 205.4756
320.1544, 201.3076
320.6365, 201.8444
321.1186, 206.3061
321.6007, 206.9092
322.0828, 198.9959
322.5649, 188.1769
323.0471, 178.2841
323.5292, 170.1913
324.0113, 162.7823
324.4934, 157.4249
324.9755, 153.3354
325.4576, 145.6490
325.9398, 129.1574
326.4219, 112.2673
326.9040, 99.17300
327.3861, 93.84436
327.8682, 87.99463
328.3503, 80.96570
328.8325, 73.28650
329.3146, 66.40247
329.7967, 59.19202
330.2788, 53.89661
330.7610, 51.73370
331.2431, 55.56766
331.7252, 56.87744
332.2073, 54.63245
332.6894, 50.18219
333.1715, 46.06607
333.6537, 41.70621
334.1358, 38.62274
334.6179, 38.02014
335.1000, 41.28305
335.5821, 41.23035
336.0642, 36.57727
336.5464, 29.74576
337.0285, 24.39056
337.5106, 20.60056
337.9927, 18.04837
338.4748, 16.92230
338.9569, 17.26041
339.4391, 17.53760
339.9212, 17.93533
340.4033, 17.90073
340.8854, 16.17538
341.3675, 12.37930
341.8496, 10.28619
342.3318, 11.91440
342.8139, 16.20215
343.2960, 17.17105
343.7781, 14.49188
344.2602, 10.19495
344.7423, 4.950104
345.2245, 0.9444580
345.7066, 3.537262
346.1887, 0.9541020
346.6708, 4.715118
347.1529, 9.359863
347.6350, 12.95102
348.1172, 14.19745
348.5993, 10.02966
349.0814, 2.388397
349.5635, 2.711731
350.0456, 4.185944
350.5277, 2.671112
351.0099, 4.154449
351.4920, 14.70172
351.9741, 20.60263
352.4562, 10.58185
352.9383, 5.739899
353.4204, 12.65085
353.9026, 6.291077
354.3847, 3.295959
354.8668, 7.821259
355.3489, 8.510986
355.8310, 8.140015
356.3131, 8.747070
356.7953, 8.568939
357.2774, 4.852936
357.7595, 3.267761
358.2416, 9.342224
358.7237, 7.511597
359.2058, 1.616302
359.6880, 2.943329
360.1701, 4.153900
360.6522, 3.416199
361.1343, 9.4756998E-02
361.6164, 5.801331
362.0985, 9.176392
362.5807, 5.262390
363.0628, 0.7120970
363.5449, 4.144531
364.0270, 0.9354550
364.5091, 3.687897
364.9912, 0.7270510
365.4734, 11.09595
365.9555, 18.28537
366.4376, 18.64505
366.9197, 16.89908
367.4018, 15.62878
367.8839, 16.19809
368.3661, 15.82101
368.8482, 12.95688
369.3303, 8.976410
369.8124, 7.906738
370.2945, 12.68607
370.7766, 17.22574
371.2588, 18.99771
371.7409, 16.25259
372.2230, 15.26144
372.7051, 16.11716
373.1872, 18.65280
373.6693, 23.38470
374.1515, 32.62213
374.6336, 38.58252
375.1157, 37.45584
375.5978, 28.76227
376.0799, 24.51251
376.5620, 25.65509
377.0442, 29.53088
377.5263, 34.16568
378.0084, 39.87967
378.4905, 43.10516
378.9726, 42.08826
379.4547, 38.10284
379.9369, 36.21786
380.4190, 36.55930
380.9011, 38.24954
381.3832, 41.93552
381.8653, 46.97864
382.3474, 48.59909
382.8296, 44.98630
383.3117, 39.23215
383.7938, 35.80759
384.2759, 34.73779
384.7580, 36.01526
385.2402, 40.80902
385.7223, 47.71945
386.2044, 55.11008
386.6865, 63.65262
387.1686, 69.03629
387.6508, 63.89517
388.1329, 52.08099
388.6150, 43.06351
389.0971, 43.14624
389.5792, 46.74646
390.0613, 49.33069
390.5435, 50.53464
391.0256, 51.32828
391.5077, 53.17392
391.9898, 54.77271
392.4719, 54.48254
392.9540, 47.99838
393.4362, 42.57227
393.9183, 42.02826
394.4004, 45.74243
394.8825, 49.30734
395.3646, 51.04138
395.8467, 52.31448
396.3289, 54.03030
396.8110, 57.17096
397.2931, 59.52933
397.7752, 61.22699
398.2573, 61.92267
398.7394, 60.74991
399.2216, 54.46002
399.7037, 49.17709
400.1858, 47.05334
400.6679, 49.13303
401.1500, 51.11179
401.6321, 52.07837
402.1143, 53.53519
402.5964, 58.24854
403.0785, 70.30911
403.5606, 76.57828
404.0427, 72.00372
404.5248, 57.28613
405.0070, 50.23517
405.4891, 52.69672
405.9712, 58.36099
406.4533, 61.61844
406.9354, 61.94415
407.4175, 64.18427
407.8997, 70.20490
408.3818, 78.18228
408.8639, 82.11612
409.3460, 81.58356
409.8281, 82.00644
410.3102, 87.92535
410.7924, 97.41129
411.2745, 104.1923
411.7566, 108.0781
412.2387, 112.3873
412.7208, 119.7812
413.2029, 130.2240
413.6851, 143.9697
414.1672, 164.0754
414.6493, 186.1303
415.1314, 204.6766
415.6135, 219.1702
416.0956, 232.2125
416.5778, 244.8632
417.0599, 258.1360
417.5420, 272.9624
418.0241, 288.2006
418.5062, 306.1519
418.9883, 329.3412
419.4705, 356.4402
419.9526, 382.6713
420.4347, 406.8986
420.9168, 429.8690
421.3989, 451.2540
421.8810, 467.9199
422.3632, 488.7100
422.8453, 519.1234
423.3274, 554.2673
423.8095, 586.8326
424.2916, 617.7213
424.7737, 643.7325
425.2559, 665.1899
425.7380, 682.2325
426.2201, 692.7798
426.7022, 703.3279
427.1843, 701.5795
427.6664, 675.8076
428.1486, 617.1610
428.6307, 552.4835
429.1128, 481.8647
429.5949, 408.1160
430.0770, 339.8247
430.5591, 276.2166
431.0413, 221.8606
431.5234, 180.2795
432.0055, 151.7018
432.4876, 130.2869
432.9697, 117.2202
433.4518, 108.6841
433.9340, 100.0847
434.4161, 91.35272
434.8982, 81.64545
435.3803, 68.96661
435.8624, 55.51514
436.3445, 47.00650
436.8267, 43.59558
437.3088, 40.59732
437.7909, 33.05966
438.2730, 23.33008
438.7551, 15.49374
439.2372, 10.45062
439.7194, 7.941101
440.2015, 9.229858
440.6836, 13.20322
441.1657, 16.31729
441.6479, 17.56918
442.1300, 16.82199
442.6121, 13.06354
443.0942, 4.917816
443.5763, 1.104156
444.0584, 1.571442
444.5406, 1.104980
445.0227, 3.852081
445.5048, 8.161163
445.9869, 10.26385
446.4690, 7.722137
446.9511, 0.4418950
447.4333, 3.539764
447.9154, 0.7677920
448.3975, 2.578644
448.8796, 2.494781
449.3617, 5.121185
449.8438, 7.568176
450.3260, 2.002716
450.8081, 7.978088
451.2902, 13.38498
451.7723, 12.96637
452.2544, 11.88388
452.7365, 12.64993
453.2187, 15.19858
453.7008, 14.81775
454.1829, 10.98535
454.6650, 6.145935
455.1471, 2.698364
455.6292, 0.5998840
456.1114, 0.2378850
456.5935, 0.3145750
457.0756, 1.937775
457.5577, 3.976440
458.0398, 6.492584
458.5219, 10.08743
459.0041, 17.04492
459.4862, 24.70459
459.9683, 28.86588
460.4504, 28.71588
460.9325, 26.66217
461.4146, 23.08597
461.8968, 19.06146
462.3789, 16.41940
462.8610, 14.59235
463.3431, 15.42337
463.8252, 21.85501
464.3073, 33.37781
464.7895, 43.07098
465.2716, 47.79105
465.7537, 50.78278
466.2358, 54.13815
466.7179, 57.02417
467.2000, 61.28674
467.6822, 69.59888
468.1643, 79.27203
468.6464, 84.25027
469.1285, 79.14273
469.6106, 77.41034
470.0927, 84.61163
470.5749, 101.9286
471.0570, 114.2291
471.5391, 119.9406
472.0212, 123.5052
472.5033, 129.7245
472.9854, 139.2605
473.4676, 147.3311
473.9497, 152.1960
474.4318, 155.3789
474.9139, 161.0097
475.3960, 168.9161
475.8781, 176.6549
476.3603, 181.7849
476.8424, 186.3230
477.3245, 194.5511
477.8066, 207.0794
478.2887, 220.8080
478.7708, 235.4611
479.2530, 249.0046
479.7351, 257.4323
480.2172, 254.8265
480.6993, 250.6102
481.1814, 251.8863
481.6635, 257.4596
482.1457, 261.4288
482.6278, 261.8395
483.1099, 259.3211
483.5920, 253.7523
484.0741, 243.3145
484.5562, 234.2034
485.0384, 226.3378
485.5205, 220.7014
486.0026, 219.0056
486.4847, 227.3600
486.9668, 231.8698
487.4489, 228.7114
487.9311, 218.4262
488.4132, 209.5706
488.8953, 202.4292
489.3774, 196.2611
489.8595, 190.3974
490.3416, 184.6754
490.8238, 180.5265
491.3059, 178.4285
491.7880, 177.2245
492.2701, 174.3791
492.7522, 169.9895
493.2343, 167.1828
493.7165, 169.3496
494.1986, 173.4406
494.6807, 171.4348
495.1628, 163.3708
495.6450, 153.8343
496.1271, 146.4207
496.6092, 139.7643
497.0913, 131.1857
497.5734, 118.6263
498.0555, 107.4335
498.5377, 103.0221
499.0198, 102.5015
499.5019, 100.2918
499.9840, 91.51620
500.4661, 82.89084
500.9482, 77.91653
501.4304, 77.13477
501.9125, 75.55167
502.3946, 70.44702
502.8767, 65.36310
503.3588, 63.09018
503.8409, 68.34973
504.3231, 68.97757
504.8052, 62.22070
505.2873, 51.13120
505.7694, 43.53604
506.2515, 39.59030
506.7336, 37.93359
507.2158, 38.66684
507.6979, 41.63925
508.1800, 43.94901
508.6621, 45.70526
509.1442, 45.25345
509.6263, 39.12537
510.1085, 28.70746
510.5906, 21.57208
511.0727, 19.75620
511.5548, 20.57669
512.0369, 21.24237
512.5190, 21.54465
513.0012, 20.76053
513.4833, 16.54150
513.9654, 12.26370
514.4475, 11.89569
514.9296, 15.67551
515.4117, 18.77094
515.8939, 18.90631
516.3760, 17.09814
516.8581, 14.15591
517.3402, 7.872711
517.8223, 3.561401
518.3044, 3.565552
518.7866, 6.362732
519.2687, 8.018188
519.7508, 9.208191
520.2329, 8.227600
520.7150, 3.385651
521.1971, 5.988495
521.6793, 10.36130
522.1614, 7.917084
522.6435, 3.565338
523.1256, 1.788116
523.6077, 2.960663
524.0898, 2.313385
524.5720, 1.434692
525.0541, 6.092987
525.5362, 7.216217
526.0183, 5.136169
526.5004, 2.989105
526.9825, 1.833679
527.4647, 1.771790
527.9468, 4.137848
528.4289, 8.783264
528.9110, 11.39499
529.3931, 7.591492
529.8752, 0.5929260
530.3574, 6.223419
530.8395, 13.10861
531.3216, 17.76080
531.8037, 19.03754
532.2858, 17.48981
532.7679, 14.12054
533.2501, 6.313232
533.7322, 0.4489750
534.2143, 4.363647
534.6964, 5.399536
535.1785, 5.452179
535.6606, 3.697693
536.1428, 1.913818
536.6249, 1.089783
537.1070, 1.282532
537.5891, 2.563660
538.0712, 5.687683
538.5533, 8.831726
539.0355, 8.009003
539.5176, 3.116089
539.9997, 0.5397340
540.4818, 3.561646
540.9639, 9.659943
541.4460, 12.78943
541.9282, 13.13281
542.4103, 12.83737
542.8924, 13.64816
543.3745, 14.64020
543.8566, 14.26883
544.3387, 12.00854
544.8209, 10.09903
545.3030, 10.42453
545.7851, 11.84479
546.2672, 12.89767
546.7493, 13.51385
547.2314, 13.29269
547.7136, 11.20578
548.1957, 7.839935
548.6778, 6.246979
549.1599, 8.915222
549.6420, 11.07281
550.1241, 10.60477
550.6063, 6.600861
551.0884, 4.793854
551.5705, 6.174011
552.0526, 8.118134
552.5347, 7.205414
553.0168, 3.052063
553.4990, 1.852631
553.9811, 5.911041
554.4632, 11.62469
554.9453, 9.996979
555.4274, 2.341614
555.9095, 2.298126
556.3917, 4.775177
556.8738, 16.01276
557.3559, 19.97061
557.8380, 16.54779
558.3201, 12.05890
558.8022, 9.384613
559.2844, 8.388000
559.7665, 9.363739
560.2486, 14.27158
560.7307, 17.35904
561.2128, 16.04861
561.6949, 11.93219
562.1771, 7.594971
562.6592, 0.4802250
563.1413, 3.348358
563.6234, 1.216248
564.1055, 6.011993
564.5876, 9.713806
565.0698, 8.527283
565.5519, 6.528015
566.0340, 6.115967
566.5161, 7.404175
566.9982, 8.347534
567.4803, 9.025879
567.9625, 8.945587
568.4446, 6.266785
568.9267, 1.944122
569.4088, 0.3747560
569.8909, 4.087982
570.3730, 9.249146
570.8552, 11.70264
571.3373, 11.85626
571.8194, 11.08594
572.3015, 8.263550
572.7836, 6.158539
573.2657, 7.880920
573.7479, 13.91922
574.2300, 17.17209
574.7121, 12.13638
575.1942, 5.718475
575.6763, 2.903900
576.1584, 4.879028
576.6406, 9.475555
577.1227, 19.21957
577.6049, 30.19366
578.0870, 34.99615
578.5691, 31.87692
579.0512, 28.08524
579.5333, 25.72311
580.0154, 24.93887
580.4976, 24.91751
580.9797, 25.51556
581.4618, 25.92572
581.9439, 24.33011
582.4260, 22.75354
582.9081, 25.84296
583.3903, 34.29449
583.8724, 43.56134
584.3545, 51.74210
584.8366, 57.77621
585.3187, 60.01141
585.8008, 53.79388
586.2830, 49.26285
586.7651, 50.78137
587.2472, 56.91464
587.7293, 64.40732
588.2114, 73.82800
588.6935, 82.61609
589.1757, 90.58716
589.6578, 97.99393
590.1399, 103.0870
590.6220, 104.2012
591.1041, 106.6570
591.5862, 114.5475
592.0684, 127.9192
592.5505, 138.9729
593.0326, 147.1003
593.5147, 153.6678
593.9968, 159.5852
594.4789, 165.2191
594.9611, 172.0267
595.4432, 180.6820
595.9253, 190.4360
596.4074, 200.9286
596.8895, 211.8335
597.3716, 222.0597
597.8538, 230.6229
598.3359, 238.5930
598.8180, 246.7656
599.3001, 255.2972
599.7822, 262.2658
600.2643, 269.3963
600.7465, 273.1076
601.2286, 270.9745
601.7107, 260.1193
602.1928, 249.0728
602.6749, 237.3818
603.1570, 225.8145
603.6392, 215.7851
604.1213, 207.3961
604.6034, 199.1832
605.0855, 190.7712
605.5676, 182.1913
606.0497, 172.8168
606.5319, 162.8272
607.0140, 154.4637
607.4961, 149.9363
607.9782, 147.2571
608.4603, 143.4366
608.9424, 138.3908
609.4246, 134.4751
609.9067, 132.7505
610.3888, 132.9557
610.8709, 135.1023
611.3530, 140.3764
611.8351, 145.2806
612.3173, 147.0854
612.7994, 149.0104
613.2815, 155.5782
613.7636, 170.5420
614.2457, 182.8743
614.7278, 189.7259
615.2100, 192.7579
615.6921, 197.2565
616.1742, 203.1085
616.6563, 211.1440
617.1384, 222.4721
617.6205, 236.3886
618.1027, 250.9132
618.5848, 265.8440
619.0669, 281.2218
619.5490, 297.1576
620.0311, 313.3538
620.5132, 329.2859
620.9954, 344.2606
621.4775, 360.0987
621.9596, 376.9521
622.4417, 395.3831
622.9238, 416.2141
623.4059, 444.2698
623.8881, 469.2651
624.3702, 489.4448
624.8523, 505.3549
625.3344, 518.5995
625.8165, 528.2861
626.2986, 537.4463
626.7808, 548.4514
627.2629, 560.3746
627.7450, 562.6159
628.2271, 554.1281
628.7092, 546.9711
629.1913, 555.1490
629.6735, 571.2725
630.1556, 575.8776
630.6377, 565.9880
631.1198, 551.6769
631.6019, 538.1973
632.0840, 526.3972
632.5662, 517.9884
633.0483, 513.0121
633.5304, 511.6648
634.0125, 515.6313
634.4946, 523.1804
634.9767, 530.3674
635.4589, 532.0139
635.9410, 539.6268
636.4231, 556.5778
636.9052, 581.2464
637.3873, 607.3400
637.8694, 635.3801
638.3516, 663.1757
638.8337, 686.3123
639.3158, 706.8068
639.7979, 740.2749
640.2800, 787.5091
640.7621, 835.8167
641.2443, 873.8030
641.7264, 905.0851
642.2085, 935.9213
642.6906, 968.8208
643.1727, 997.1152
643.6548, 1020.024
644.1370, 1034.459
644.6191, 1036.053
645.1012, 1019.332
645.5833, 994.3679
646.0654, 964.2441
646.5475, 927.5966
647.0297, 877.2089
647.5118, 808.9348
647.9939, 735.2076
648.4760, 659.0858
648.9581, 580.9260
649.4402, 513.0600
649.9224, 456.0655
650.4045, 405.5477
650.8866, 358.1008
651.3687, 315.2765
651.8508, 282.5800
652.3329, 261.4479
652.8151, 242.5868
653.2972, 214.2426
653.7793, 183.7216
654.2614, 160.4305
654.7435, 150.1422
655.2256, 141.1932
655.7078, 130.6143
656.1899, 119.0779
656.6720, 107.4610
657.1541, 94.25720
657.6362, 83.13187
658.1183, 74.57208
658.6005, 68.57379
659.0826, 65.89087
659.5647, 67.09903
660.0468, 68.05490
660.5289, 67.09393
661.0110, 64.26999
661.4932, 59.11136
661.9753, 51.74115
662.4574, 44.91583
662.9395, 40.76428
663.4216, 38.28583
663.9037, 36.19174
664.3859, 34.36792
664.8680, 32.64453
665.3501, 30.78934
665.8322, 29.04385
666.3143, 27.62686
666.7964, 25.87509
667.2786, 25.59378
667.7607, 28.38705
668.2428, 31.58542
668.7249, 29.99295
669.2070, 22.36710
669.6891, 16.20129
670.1713, 13.33148
670.6534, 13.10025
671.1355, 15.13867
671.6176, 18.96292
672.0997, 21.27377
672.5818, 19.76410
673.0640, 16.12814
673.5461, 11.46619
674.0282, 6.057800
674.5103, 1.619812
674.9924, 2.033752
675.4745, 3.644501
675.9567, 1.771271
676.4388, 5.195465
676.9209, 10.10681
677.4030, 12.67557
677.8851, 13.16122
678.3672, 11.05899
678.8494, 5.188110
679.3315, 2.369751
679.8136, 3.634613
680.2957, 6.510498
680.7778, 7.742828
681.2599, 7.753113
681.7421, 7.316162
682.2242, 6.156372
682.7063, 5.505615
683.1884, 8.016052
683.6705, 11.95258
684.1526, 13.30719
684.6348, 8.137756
685.1169, 2.304810
685.5990, 1.961853
686.0811, 4.608429
686.5632, 6.724701
687.0454, 8.792053
687.5275, 9.857086
688.0096, 9.703339
688.4918, 8.278503
688.9739, 4.619293
689.4560, 1.718506
689.9381, 8.244385
690.4202, 14.05518
690.9023, 18.40945
691.3845, 18.36887
691.8666, 13.40155
692.3487, 7.158600
692.8308, 0.9087830
693.3129, 3.846191
693.7950, 4.308167
694.2772, 2.032257
694.7593, 7.404541
695.2414, 8.726074
695.7235, 7.343536
696.2056, 5.077972
696.6877, 0.1494750
697.1699, 2.151337
697.6520, 0.1809080
698.1341, 5.086945
698.6162, 6.700958
699.0983, 4.744995
699.5804, 4.564148
700.0626, 10.08231
700.5447, 17.23236
701.0268, 16.05777
701.5089, 8.190063
701.9910, 2.067047
702.4731, 4.244843
702.9553, 9.065369
703.4374, 13.12161
703.9195, 16.14960
704.4016, 16.91760
704.8837, 12.65439
705.3658, 8.092438
705.8480, 5.557953
706.3301, 5.235107
706.8122, 6.464417
707.2943, 9.963959
707.7764, 13.60336
708.2585, 16.50363
708.7407, 18.41525
709.2228, 14.28992
709.7049, 1.847412
710.1870, 8.835754
710.6691, 3.387177
711.1512, 10.83578
711.6334, 20.34943
712.1155, 19.59348
712.5976, 16.43408
713.0797, 13.58514
713.5618, 11.26456
714.0439, 9.892334
714.5261, 10.22012
715.0082, 10.74509
715.4903, 11.87378
715.9724, 12.91428
716.4545, 11.43527
716.9366, 6.906036
717.4188, 2.793457
717.9009, 0.4678650
718.3830, 0.4917600
718.8651, 1.497894
719.3472, 2.311829
719.8293, 1.225372
720.3115, 5.619019
720.7936, 12.91736
721.2757, 15.01211
721.7578, 11.80383
722.2399, 9.713379
722.7220, 13.03088
723.2042, 16.40988
723.6863, 16.23279
724.1684, 10.95682
724.6505, 9.691101
725.1326, 14.32111
725.6147, 19.53470
726.0969, 20.69940
726.5790, 18.06152
727.0611, 15.90283
727.5432, 14.61017
728.0253, 13.60446
728.5074, 11.49796
728.9896, 9.459808
729.4717, 9.973969
729.9538, 15.51837
730.4359, 19.39191
730.9180, 16.22214
731.4001, 9.903778
731.8823, 5.767456
732.3644, 6.412811
732.8465, 6.921631
733.3286, 6.600433
733.8107, 6.176697
734.2928, 7.280396
734.7750, 10.22293
735.2571, 11.58771
735.7392, 9.286163
736.2213, 5.992767
736.7034, 9.209259
737.1855, 16.88309
737.6677, 20.79288
738.1498, 10.78110
738.6319, 0.2739560
739.1140, 1.165710
739.5961, 11.37222
740.0782, 18.32782
740.5604, 16.57980
741.0425, 12.81418
741.5246, 8.092651
742.0067, 2.511780
742.4888, 3.368439
742.9709, 12.68945
743.4531, 22.08423
743.9352, 27.04221
744.4173, 27.63165
744.8994, 22.14954
745.3815, 10.63065
745.8636, 1.821899
746.3458, 6.304260
746.8279, 15.61234
747.3100, 20.07132
747.7921, 17.21869
748.2742, 14.38947
748.7563, 15.80008
749.2385, 17.12100
749.7206, 14.99567
750.2027, 8.663513
750.6848, 0.3486630
751.1669, 15.16043
751.6490, 27.68793
752.1312, 25.04984
752.6133, 9.306580
753.0954, 0.4722600
753.5775, 4.8126001E-02
754.0596, 3.161316
754.5417, 8.9630000E-02
755.0239, 6.334534
755.5060, 11.52829
755.9881, 13.86761
756.4702, 14.61768
756.9523, 12.84659
757.4344, 10.15076
757.9166, 9.541656
758.3987, 12.58386
758.8808, 15.04138
759.3629, 16.38455
759.8450, 16.68683
760.3271, 15.46838
760.8093, 12.77084
761.2914, 13.11978
761.7735, 20.88232
762.2556, 29.56119
762.7377, 27.01990
763.2198, 16.76849
763.7020, 9.791199
764.1841, 14.55496
764.6662, 20.84964
765.1483, 24.08972
765.6304, 24.43915
766.1125, 23.98315
766.5947, 22.42596
767.0768, 20.78198
767.5589, 19.44293
768.0410, 17.67059
768.5231, 14.39609
769.0052, 9.531036
769.4874, 6.277252
769.9695, 8.561707
770.4516, 13.23395
770.9337, 14.55377
771.4158, 12.70319
771.8979, 10.99973
772.3801, 11.23364
772.8622, 12.28564
773.3443, 13.25073
773.8264, 13.86749
774.3085, 16.24838
774.7906, 21.39017
775.2728, 26.92636
775.7549, 32.19437
776.2370, 37.39099
776.7191, 38.38205
777.2012, 34.67136
777.6833, 31.05408
778.1655, 31.42157
778.6476, 34.91138
779.1297, 41.15747
779.6118, 50.47021
780.0939, 58.65732
780.5760, 62.79150
781.0582, 65.14264
781.5403, 67.41559
782.0224, 69.36188
782.5045, 72.34537
782.9866, 76.60684
783.4688, 81.58881
783.9509, 86.98602
784.4330, 92.81488
784.9151, 98.40973
785.3972, 103.5623
785.8793, 108.9984
786.3615, 115.9622
786.8436, 123.5788
787.3257, 130.7762
787.8078, 138.0209
788.2899, 142.6582
788.7720, 139.2730
789.2542, 134.3380
789.7363, 135.7837
790.2184, 147.8200
790.7005, 160.3619
791.1826, 174.5216
791.6647, 187.0872
792.1469, 190.6859
792.6290, 185.9481
793.1111, 188.6024
793.5932, 203.9710
794.0753, 222.2392
794.5574, 232.4727
795.0396, 237.3454
795.5217, 241.9203
796.0038, 250.7839
796.4859, 255.6721
796.9681, 250.2893
797.4502, 240.4393
797.9323, 236.4381
798.4144, 241.9103
798.8965, 245.0416
799.3787, 242.9758
799.8608, 238.9266
800.3429, 241.0504
800.8250, 248.3453
801.3071, 251.2717
801.7892, 244.9559
802.2714, 235.8497
802.7535, 229.6877
803.2356, 225.8322
803.7177, 222.8780
804.1998, 221.5118
804.6819, 219.8632
805.1641, 219.7108
805.6462, 218.4819
806.1283, 208.8352
806.6104, 186.6711
807.0925, 170.1450
807.5746, 165.0087
808.0568, 166.9354
808.5389, 168.1014
809.0210, 167.3456
809.5031, 163.0474
809.9852, 152.8602
810.4673, 143.0813
810.9495, 138.1385
811.4316, 135.9196
811.9137, 132.3878
812.3958, 125.2171
812.8779, 118.9628
813.3600, 115.3085
813.8422, 113.0884
814.3243, 107.6595
814.8064, 98.25961
815.2885, 92.04367
815.7706, 92.53876
816.2527, 96.84555
816.7349, 101.5365
817.2170, 105.5879
817.6991, 105.6119
818.1812, 95.02173
818.6633, 84.68213
819.1454, 81.56140
819.6276, 83.91934
820.1097, 84.30377
820.5918, 81.68066
821.0739, 77.96750
821.5560, 73.22552
822.0381, 67.90671
822.5203, 62.89157
823.0024, 58.22757
823.4845, 55.69324
823.9666, 57.90564
824.4487, 61.08801
824.9308, 60.18533
825.4130, 56.20734
825.8951, 52.31964
826.3772, 49.35535
826.8593, 47.12027
827.3414, 44.96548
827.8235, 43.40237
828.3057, 45.25647
828.7878, 52.45886
829.2699, 56.61703
829.7520, 54.04385
830.2341, 47.40506
830.7162, 43.18909
831.1984, 41.17331
831.6805, 40.22510
832.1626, 42.74725
832.6447, 43.51208
833.1268, 35.26855
833.6089, 21.61572
834.0911, 14.67313
834.5732, 26.43451
835.0553, 33.86026
835.5374, 30.18411
836.0195, 19.37082
836.5016, 16.95789
836.9838, 23.28485
837.4659, 28.34009
837.9480, 27.53333
838.4301, 23.88593
838.9122, 19.75391
839.3943, 16.52612
839.8765, 18.23242
840.3586, 35.60748
840.8407, 48.91205
841.3228, 46.66092
841.8049, 33.54523
842.2870, 25.94229
842.7692, 25.70761
843.2513, 26.32175
843.7334, 26.45578
844.2155, 26.07492
844.6976, 24.75235
845.1797, 22.45505
845.6619, 20.59256
846.1440, 21.55066
846.6261, 21.41647
847.1082, 15.22797
847.5903, 5.818542
848.0724, 0.5704960
848.5546, 3.037262
849.0367, 0.4230350
849.5188, 10.80939
850.0009, 25.34497
850.4830, 29.43042
850.9651, 22.64304
851.4473, 17.28122
851.9294, 17.14667
852.4115, 19.39996
852.8936, 21.81964
853.3757, 23.49915
853.8578, 22.60571
854.3400, 15.46259
854.8221, 9.440247
855.3042, 7.207153
855.7863, 7.085754
856.2684, 7.108765
856.7505, 8.183563
857.2327, 6.927429
857.7148, 1.461670
858.1969, 4.104431
858.6790, 1.289703
859.1611, 7.454224
859.6432, 13.32507
860.1254, 12.65707
860.6075, 11.03745
861.0896, 13.91312
861.5717, 17.74066
862.0538, 17.69122
862.5359, 5.586212
863.0181, 0.4486390
863.5002, 6.346375
863.9823, 15.20297
864.4644, 15.49588
864.9465, 7.802734
865.4286, 2.964966
865.9108, 3.013550
866.3929, 5.149658
866.8750, 7.149933
867.3571, 9.204742
867.8392, 11.76538
868.3214, 15.62085
868.8035, 18.29123
869.2856, 19.84366
869.7677, 19.87393
870.2498, 16.80209
870.7319, 8.396820
871.2141, 4.746155
871.6962, 7.557037
872.1783, 11.59830
872.6604, 9.956512
873.1425, 6.002258
873.6246, 7.032013
874.1068, 14.48456
874.5889, 20.80823
875.0710, 22.29868
875.5531, 21.25742
876.0352, 18.86612
876.5173, 14.66452
876.9995, 11.66187
877.4816, 9.462006
877.9637, 9.533844
878.4458, 14.94131
878.9279, 23.52008
879.4100, 27.34576
879.8922, 26.35056
880.3743, 23.99347
880.8564, 21.37509
881.3385, 18.30112
881.8206, 14.26514
882.3027, 9.135956
882.7849, 5.582794
883.2670, 3.801636
883.7491, 4.013550
884.2312, 7.112579
884.7133, 11.98340
885.1954, 10.38721
885.6776, 2.295349
886.1597, 1.957886
886.6418, 9.384521
887.1239, 22.92300
887.6060, 24.99609
888.0881, 17.21765
888.5703, 10.48987
889.0524, 6.905334
889.5345, 6.738525
890.0166, 12.33521
890.4987, 20.93726
890.9808, 19.79752
891.4630, 7.995483
891.9451, 2.080750
892.4272, 11.60318
892.9093, 25.07080
893.3914, 26.39853
893.8735, 20.16446
894.3557, 16.57822
894.8378, 25.11081
895.3199, 29.39819
895.8020, 19.90433
896.2841, 6.645569
896.7662, 5.598969
897.2484, 18.88327
897.7305, 26.64807
898.2126, 24.58447
898.6947, 18.75867
899.1768, 17.10364
899.6589, 18.12692
900.1411, 18.33429
900.6232, 16.55450
901.1053, 13.74695
901.5874, 6.285034
902.0695, 0.4197390
902.5516, 3.517151
903.0338, 21.85312
903.5159, 27.13751
903.9980, 15.53165
904.4801, 1.761749
904.9622, 0.2042540
905.4443, 6.895599
905.9265, 12.41699
906.4086, 15.80667
906.8907, 17.72559
907.3729, 18.57751
907.8550, 18.03177
908.3371, 14.69336
908.8192, 7.803558
909.3013, 6.701141
909.7834, 13.98856
910.2656, 19.67914
910.7477, 16.28183
911.2298, 6.601135
911.7119, 0.5808720
912.1940, 5.150665
912.6761, 6.297577
913.1583, 1.559082
913.6404, 4.407379
914.1225, 10.04138
914.6046, 15.03091
915.0867, 18.06055
915.5688, 18.33151
916.0510, 18.43802
916.5331, 19.48349
917.0152, 20.65778
917.4973, 19.40378
917.9794, 16.34183
918.4615, 14.21579
918.9437, 14.56363
919.4258, 15.63791
919.9079, 17.28271
920.3900, 18.61475
920.8721, 17.90796
921.3542, 13.07657
921.8364, 9.780609
922.3185, 8.541229
922.8006, 8.831146
923.2827, 10.62430
923.7648, 13.42459
924.2469, 14.67087
924.7291, 13.61005
925.2112, 12.65445
925.6933, 16.61969
926.1754, 19.88876
926.6575, 15.69446
927.1396, 2.337311
927.6218, 10.72028
928.1039, 5.339783
928.5860, 2.550262
929.0681, 5.075836
929.5502, 3.064301
930.0323, 1.285278
930.5145, 0.1235350
930.9966, 0.2906800
931.4787, 2.939026
931.9608, 6.383362
932.4429, 6.997589
932.9250, 4.922607
933.4072, 4.706268
933.8893, 8.037781
934.3714, 10.56699
934.8535, 10.68460
935.3356, 9.171387
935.8177, 8.825806
936.2999, 9.265656
936.7820, 8.207794
937.2641, 1.714386
937.7462, 3.164459
938.2283, 1.011871
938.7104, 9.892761
939.1926, 15.14237
939.6747, 15.48615
940.1568, 12.22516
940.6389, 4.014618
941.1210, 5.530243
941.6031, 13.00653
942.0853, 17.56470
942.5674, 13.69513
943.0495, 1.496735
943.5316, 14.01123
944.0137, 9.873047
944.4958, 0.3096310
944.9780, 4.362213
945.4601, 0.6502080
945.9422, 0.3349610
946.4243, 2.042480
946.9064, 5.724030
947.3885, 11.89838
947.8707, 18.44858
948.3528, 13.55109
948.8349, 1.753601
949.3170, 14.94763
949.7991, 18.58932
950.2813, 17.47729
950.7634, 11.63748
951.2455, 2.559692
951.7276, 5.1392000E-02
952.2097, 7.959747
952.6918, 11.30777
953.1740, 3.295868
953.6561, 8.902740
954.1382, 8.732391
954.6203, 0.2745970
955.1024, 7.026886
955.5845, 6.947479
956.0667, 4.481018
956.5488, 0.8393250
957.0309, 5.846954
957.5130, 6.118805
957.9951, 0.6702270
958.4772, 5.301331
958.9594, 6.920807
959.4415, 7.592773
959.9236, 10.90637
960.4057, 14.78177
960.8878, 12.18060
961.3699, 1.968750
961.8521, 4.306580
962.3342, 4.272705
962.8163, 13.87103
963.2984, 15.95078
963.7805, 10.50827
964.2626, 7.226837
964.7448, 6.181396
965.2269, 6.579193
965.7090, 8.553558
966.1911, 11.32050
966.6732, 14.40164
967.1553, 17.16827
967.6375, 17.74097
968.1196, 13.87637
968.6017, 9.222626
969.0838, 3.619843
969.5659, 1.802704
970.0480, 5.412048
970.5302, 7.220551
971.0123, 2.269623
971.4944, 12.08682
971.9765, 25.75876
972.4586, 26.07269
972.9407, 19.73187
973.4229, 15.33945
973.9050, 14.62732
974.3871, 15.44159
974.8692, 19.05487
975.3513, 21.99438
975.8334, 20.79611
976.3156, 16.02972
976.7977, 19.17822
977.2798, 29.98181
977.7619, 40.01746
978.2440, 42.37939
978.7261, 42.63470
979.2083, 47.85703
979.6904, 55.83682
980.1725, 55.31113
980.6546, 35.46741
981.1367, 24.39410
981.6188, 29.62299
982.1010, 44.08850
982.5831, 55.36194
983.0652, 63.51837
983.5473, 67.85876
984.0294, 66.57294
984.5115, 66.79437
984.9937, 75.49225
985.4758, 86.14429
985.9579, 92.10736
986.4400, 90.01196
986.9221, 94.39990
987.4042, 106.5465
987.8864, 120.2791
988.3685, 131.5395
988.8506, 140.6388
989.3327, 146.9108
989.8148, 150.9257
990.2969, 157.3539
990.7791, 170.9120
991.2612, 184.9161
991.7433, 194.4000
992.2254, 202.1814
992.7075, 219.7505
993.1896, 248.6978
993.6718, 271.0470
994.1539, 278.5540
994.6360, 284.4564
995.1181, 305.6199
995.6002, 336.9797
996.0823, 372.0963
996.5645, 412.8540
997.0466, 447.8685
997.5287, 471.7492
998.0108, 494.1669
998.4929, 522.9175
998.9750, 557.3314
999.4572, 591.3871
999.9393, 624.8577
1000.421, 660.8646
1000.904, 705.3074
1001.386, 749.7275
1001.868, 784.5344
1002.350, 811.0557
1002.832, 846.6918
1003.314, 898.7151
1003.796, 945.9158
1004.278, 981.2336
1004.760, 1009.358
1005.243, 1037.101
1005.725, 1065.136
1006.207, 1096.706
1006.689, 1135.895
1007.171, 1173.025
1007.653, 1205.983
1008.135, 1233.074
1008.617, 1252.708
1009.099, 1263.745
1009.582, 1272.701
1010.064, 1280.471
1010.546, 1281.049
1011.028, 1270.993
1011.510, 1249.455
1011.992, 1214.060
1012.474, 1166.397
1012.956, 1116.564
1013.439, 1068.015
1013.921, 1016.856
1014.403, 960.2679
1014.885, 900.9365
1015.367, 846.1769
1015.849, 795.7289
1016.331, 744.9946
1016.813, 691.6368
1017.296, 640.5916
1017.778, 596.8719
1018.260, 557.9600
1018.742, 521.3286
1019.224, 486.9010
1019.706, 453.2673
1020.188, 419.8776
1020.670, 390.1039
1021.152, 366.7151
1021.635, 348.4241
1022.117, 331.6884
1022.599, 316.8055
1023.081, 305.9396
1023.563, 303.3842
1024.045, 301.5460
1024.527, 297.0370
1025.009, 291.2820
1025.491, 286.3129
1025.974, 282.0073
1026.456, 283.1719
1026.938, 291.7639
1027.420, 301.6868
1027.902, 305.6812
1028.384, 307.6953
1028.866, 312.3403
1029.348, 320.0568
1029.831, 331.4991
1030.313, 346.8562
1030.795, 365.2496
1031.277, 387.3155
1031.759, 411.5762
1032.241, 432.0254
1032.723, 449.3810
1033.205, 468.1636
1033.688, 490.7693
1034.170, 515.3454
1034.652, 539.3714
1035.134, 565.6940
1035.616, 600.5207
1036.098, 646.5879
1036.580, 688.0012
1037.062, 722.9749
1037.544, 754.0497
1038.026, 781.1132
1038.509, 808.0400
1038.991, 841.7885
1039.473, 883.7529
1039.955, 921.5471
1040.437, 947.5114
1040.919, 976.3544
1041.401, 1016.561
1041.883, 1062.739
1042.366, 1091.639
1042.848, 1105.668
1043.330, 1118.036
1043.812, 1140.203
1044.294, 1153.513
1044.776, 1136.325
1045.258, 1108.256
1045.740, 1098.197
1046.223, 1116.965
1046.705, 1115.389
1047.187, 1089.663
1047.669, 1056.333
1048.151, 1028.033
1048.633, 1003.213
1049.115, 980.7716
1049.597, 959.9887
1050.079, 938.1586
1050.562, 905.7131
1051.044, 883.6539
1051.526, 879.9160
1052.008, 887.2764
1052.490, 888.5393
1052.972, 885.1240
1053.454, 885.2490
1053.936, 891.8498
1054.418, 899.5142
1054.901, 906.2546
1055.383, 911.1187
1055.865, 913.6724
1056.347, 914.5762
1056.829, 908.8019
1057.311, 895.6339
1057.793, 879.9200
1058.275, 864.5464
1058.758, 848.4779
1059.240, 833.8812
1059.722, 817.5521
1060.204, 789.8864
1060.686, 739.1612
1061.168, 688.2137
1061.650, 638.7504
1062.132, 591.4440
1062.615, 547.4933
1063.097, 506.7390
1063.579, 466.5320
1064.061, 426.3624
1064.543, 388.3276
1065.025, 354.8522
1065.507, 322.9667
1065.989, 289.2606
1066.471, 254.7337
1066.953, 229.1460
1067.436, 213.0063
1067.918, 199.4752
1068.400, 187.4600
1068.882, 174.6448
1069.364, 156.1436
1069.846, 135.5793
1070.328, 118.0758
1070.811, 105.7043
1071.293, 95.63177
1071.775, 89.16846
1072.257, 82.21533
1072.739, 70.28107
1073.221, 55.45453
1073.703, 44.14368
1074.185, 36.24139
1074.667, 30.16187
1075.150, 25.24078
1075.632, 21.85974
1076.114, 22.43188
1076.596, 23.43024
1077.078, 17.58386
1077.560, 4.833252
1078.042, 5.239563
1078.524, 11.41827
1079.006, 13.81311
1079.489, 9.320251
1079.971, 3.391785
1080.453, 1.702881
1080.935, 5.241821
1081.417, 4.876770
1081.899, 1.396057
1082.381, 5.102478
1082.863, 1.416748
1083.346, 5.457336
1083.828, 5.883179
1084.310, 1.991516
1084.792, 1.288513
1085.274, 1.231873
1085.756, 0.3905640
1086.238, 3.760986
1086.720, 7.391479
1087.203, 10.85156
1087.685, 13.78870
1088.167, 13.05426
1088.649, 8.398315
1089.131, 1.071350
1089.613, 12.92316
1090.095, 23.53333
1090.577, 21.69415
1091.059, 13.66577
1091.542, 12.47925
1092.024, 19.24689
1092.506, 24.10522
1092.988, 25.53351
1093.470, 27.81299
1093.952, 36.13531
1094.434, 45.99414
1094.916, 51.91071
1095.398, 53.38428
1095.881, 62.56677
1096.363, 84.03955
1096.845, 102.2826
1097.327, 111.1281
1097.809, 114.4786
1098.291, 118.1191
1098.773, 122.9100
1099.255, 130.9255
1099.738, 144.1719
1100.220, 157.3705
1100.702, 166.9544
1101.184, 178.8559
1101.666, 198.6291
1102.148, 224.9002
1102.630, 243.0635
1103.112, 254.0840
1103.594, 266.5916
1104.077, 289.6276
1104.559, 310.9247
1105.041, 322.7451
1105.523, 329.0475
1106.005, 337.4177
1106.487, 348.5069
1106.969, 356.3488
1107.451, 360.4175
1107.933, 360.7576
1108.416, 354.9222
1108.898, 347.1829
1109.380, 344.0412
1109.862, 344.5526
1110.344, 334.3418
1110.826, 307.0494
1111.308, 285.2697
1111.790, 275.3851
1112.273, 271.6676
1112.755, 269.6583
1113.237, 266.1253
1113.719, 253.9252
1114.201, 229.1085
1114.683, 207.7119
1115.165, 192.2601
1115.647, 182.6563
1116.130, 181.6647
1116.612, 185.5516
1117.094, 179.4288
1117.576, 165.3429
1118.058, 151.3680
1118.540, 138.7531
1119.022, 130.1637
1119.504, 129.2911
1119.986, 131.4471
1120.469, 133.2858
1120.951, 134.9854
1121.433, 130.5169
1121.915, 119.9321
1122.397, 110.2512
1122.879, 107.6539
1123.361, 106.4214
1123.843, 102.7090
1124.325, 97.10364
1124.808, 91.84650
1125.290, 87.16046
1125.772, 81.28125
1126.254, 73.41895
1126.736, 67.05219
1127.218, 68.81226
1127.700, 72.08643
1128.182, 67.71442
1128.665, 55.19958
1129.147, 48.47272
1129.629, 51.81073
1130.111, 52.18219
1130.593, 44.01428
1131.075, 34.30548
1131.557, 38.62775
1132.039, 49.26306
1132.521, 50.42572
1133.004, 35.37921
1133.486, 24.39172
1133.968, 23.27020
1134.450, 24.66608
1134.932, 24.75574
1135.414, 24.67737
1135.896, 30.82520
1136.378, 40.70532
1136.860, 44.86243
1137.343, 34.85306
1137.825, 26.00873
1138.307, 27.54575
1138.789, 29.35379
1139.271, 20.71857
1139.753, 2.039063
1140.235, 2.849976
1140.717, 5.351563
1141.200, 11.79263
1141.682, 1.111572
1142.164, 7.437714
1142.646, 1.689941
1143.128, 19.10507
1143.610, 26.65717
1144.092, 23.34906
1144.574, 18.20422
1145.057, 12.01019
1145.539, 5.319946
1146.021, 3.442627
1146.503, 10.56683
1146.985, 12.42184
1147.467, 9.356201
1147.949, 6.049042
1148.431, 2.262695
1148.913, 0.8027650
1149.396, 3.156464
1149.878, 3.727356
1150.360, 1.207092
1150.842, 7.442780
1151.324, 8.752075
1151.806, 3.404419
1152.288, 1.073639
1152.770, 3.591919
1153.252, 5.960114
1153.735, 6.497681
1154.217, 5.404449
1154.699, 2.385345
1155.181, 1.819946
1155.663, 5.980927
1156.145, 10.39709
1156.627, 12.85727
1157.109, 12.04303
1157.592, 11.46655
1158.074, 13.85538
1158.556, 17.98825
1159.038, 20.20151
1159.520, 20.78131
1160.002, 20.69141
1160.484, 18.99063
1160.966, 18.61246
1161.448, 21.12930
1161.931, 23.92383
1162.413, 23.88214
1162.895, 21.81537
1163.377, 23.55835
1163.859, 28.52109
1164.341, 30.78040
1164.823, 22.88297
1165.305, 16.71466
1165.787, 19.01144
1166.270, 24.25082
1166.752, 22.98044
1167.234, 16.07333
1167.716, 16.30930
1168.198, 25.00717
1168.680, 32.66153
1169.162, 30.64691
1169.644, 27.65338
1170.127, 29.95355
1170.609, 35.29602
1171.091, 37.13300
1171.573, 35.49155
1172.055, 34.38370
1172.537, 34.69440
1173.019, 34.98196
1173.501, 32.64261
1173.984, 30.88199
1174.466, 33.27649
1174.948, 39.17395
1175.430, 44.29129
1175.912, 48.93436
1176.394, 48.87839
1176.876, 41.02917
1177.358, 32.82919
1177.840, 30.43088
1178.323, 32.23773
1178.805, 36.99371
1179.287, 44.61133
1179.769, 54.35419
1180.251, 67.01984
1180.733, 75.09973
1181.215, 72.52722
1181.697, 67.12744
1182.180, 69.29346
1182.662, 74.03012
1183.144, 72.86484
1183.626, 60.03033
1184.108, 58.55872
1184.590, 70.89642
1185.072, 81.46359
1185.554, 76.17001
1186.036, 65.55280
1186.519, 61.16037
1187.001, 62.92975
1187.483, 71.37756
1187.965, 95.21939
1188.447, 104.3460
1188.929, 94.69577
1189.411, 82.07925
1189.893, 81.37872
1190.375, 85.62485
1190.858, 84.79010
1191.340, 80.09238
1191.822, 77.79642
1192.304, 80.94876
1192.786, 82.16132
1193.268, 80.15698
1193.750, 77.54639
1194.232, 76.83905
1194.715, 77.58783
1195.197, 79.78760
1195.679, 83.11523
1196.161, 85.43976
1196.643, 87.46121
1197.125, 84.38885
1197.607, 73.44647
1198.089, 60.91614
1198.572, 56.77835
1199.054, 57.66928
1199.536, 58.72635
1200.018, 59.14743
1200.500, 59.60730
1200.982, 60.27985
1201.464, 59.20422
1201.946, 55.14392
1202.428, 50.70044
1202.911, 50.48944
1203.393, 52.03482
1203.875, 51.21408
1204.357, 47.04407
1204.839, 43.11548
1205.321, 39.50607
1205.803, 38.31628
1206.285, 41.76541
1206.767, 46.25470
1207.250, 43.05438
1207.732, 35.49664
1208.214, 30.29047
1208.696, 29.81085
1209.178, 29.11209
1209.660, 27.70102
1210.142, 26.50146
1210.624, 26.29758
1211.107, 25.86646
1211.589, 20.81119
1212.071, 13.69217
1212.553, 10.45334
1213.035, 14.76819
1213.517, 18.83743
1213.999, 22.96606
1214.481, 24.01151
1214.964, 17.20819
1215.446, 7.434479
1215.928, 8.668854
1216.410, 16.78705
1216.892, 20.92877
1217.374, 10.78177
1217.856, 8.472839
1218.338, 20.01666
1218.820, 30.58707
1219.302, 25.50894
1219.785, 12.39420
1220.267, 11.69431
1220.749, 19.59857
1221.231, 23.68396
1221.713, 14.66052
1222.195, 9.104370
1222.677, 8.995300
1223.159, 11.45670
1223.642, 14.84528
1224.124, 18.42291
1224.606, 21.81958
1225.088, 24.16245
1225.570, 22.24002
1226.052, 7.671051
1226.534, 0.4523930
1227.016, 4.325500
1227.499, 11.11646
1227.981, 12.04919
1228.463, 9.705475
1228.945, 8.504761
1229.427, 8.599304
1229.909, 9.333679
1230.391, 12.52676
1230.873, 12.18487
1231.355, 6.306396
1231.838, 1.0315000E-02
1232.320, 0.3833920
1232.802, 2.742920
1233.284, 5.693390
1233.766, 8.186279
1234.248, 10.69705
1234.730, 13.95514
1235.212, 15.84729
1235.694, 16.01328
1236.177, 14.57587
1236.659, 8.997101
1237.141, 3.459900
1237.623, 5.524475
1238.105, 15.20432
1238.587, 20.17578
1239.069, 18.40366
1239.551, 14.77307
1240.034, 9.435974
1240.516, 5.665375
1240.998, 11.65466
1241.480, 19.37537
1241.962, 16.57773
1242.444, 2.414612
1242.926, 4.272949
1243.408, 1.476196
1243.891, 3.725128
1244.373, 10.33713
1244.855, 15.82031
1245.337, 16.77670
1245.819, 15.22867
1246.301, 12.61771
1246.783, 9.180298
1247.265, 8.827789
1247.747, 12.14548
1248.229, 15.51904
1248.712, 18.43295
1249.194, 19.27600
1249.676, 13.63702
1250.158, 6.910492
1250.640, 5.161987
1251.122, 8.571198
1251.604, 11.44620
1252.086, 13.94809
1252.569, 12.46216
1253.051, 3.891144
1253.533, 3.332275
1254.015, 0.2277220
1254.497, 6.821930
1254.979, 12.34430
1255.461, 16.17133
1255.943, 18.86365
1256.426, 20.38281
1256.908, 19.90707
1257.390, 16.46469
1257.872, 12.83029
1258.354, 11.99899
1258.836, 10.51065
1259.318, 5.421753
1259.800, 2.549988
1260.282, 3.626587
1260.765, 1.346191
1261.247, 5.872314
1261.729, 8.258881
1262.211, 9.461121
1262.693, 8.551422
1263.175, 6.865417
1263.657, 4.843140
1264.139, 2.799042
1264.621, 3.872620
1265.104, 7.094543
1265.586, 8.356720
1266.068, 3.628540
1266.550, 2.794403
1267.032, 14.13123
1267.514, 23.89999
1267.996, 18.97833
1268.478, 5.103058
1268.961, 3.396454
1269.443, 10.50513
1269.925, 17.05374
1270.407, 19.62708
1270.889, 22.41495
1271.371, 27.96503
1271.853, 30.06641
1272.335, 21.31305
1272.818, 9.362122
1273.300, 6.760620
1273.782, 10.75165
1274.264, 15.82971
1274.746, 22.28906
1275.228, 25.04156
1275.710, 24.25250
1276.192, 21.92438
1276.674, 15.85730
1277.156, 8.699829
1277.639, 4.175720
1278.121, 1.610840
1278.603, 0.2684940
1279.085, 2.156311
1279.567, 1.312134
1280.049, 2.426392
1280.531, 7.942017
1281.013, 17.51324
1281.496, 25.06635
1281.978, 21.41211
1282.460, 13.24237
1282.942, 11.15240
1283.424, 17.03864
1283.906, 18.75262
1284.388, 16.28369
1284.870, 11.42908
1285.353, 5.298218
1285.835, 1.686584
1286.317, 4.530212
1286.799, 9.323608
1287.281, 11.06055
1287.763, 9.830261
1288.245, 9.468018
1288.727, 9.613220
1289.209, 8.577393
1289.692, 2.379028
1290.174, 0.0000000E+00
##END=



