##NAMES=Morinite
##RRUFFID=R070529
##IDEAL CHEMISTRY=NaCa_2_Al_2_(PO_4_)_2_(OH)F_4_&#183;2H_2_O
##LOCALITY=Hugo mine, Keystone, Pennington County, South Dakota, USA
##OWNER=RRUFF
##SOURCE=James Shigley
##DESCRIPTION=Pale purple massive associated with white fluorapatite and colorless augelite
##STATUS=The identification of this mineral is not yet confirmed.
##URL=rruff.info/R070529
166.7187, 0.0000000E+00
167.2008, 4.967529
167.6829, 8.783936
168.1651, 10.67700
168.6472, 5.898193
169.1293, 4.065186
169.6114, 15.52246
170.0935, 47.30371
170.5756, 69.53979
171.0578, 68.77856
171.5399, 48.58594
172.0220, 24.09692
172.5041, 9.079834
172.9862, 4.846191
173.4683, 6.762451
173.9505, 16.64551
174.4326, 29.27930
174.9147, 38.37256
175.3968, 42.43506
175.8789, 46.74805
176.3610, 53.09814
176.8432, 62.18994
177.3253, 68.44263
177.8074, 65.54126
178.2895, 60.64893
178.7716, 52.60864
179.2537, 43.88574
179.7359, 50.50244
180.2180, 82.35693
180.7001, 139.1982
181.1822, 172.0955
181.6643, 150.8965
182.1464, 122.5657
182.6286, 105.1450
183.1107, 99.84473
183.5928, 98.27637
184.0749, 90.45923
184.5570, 72.94727
185.0391, 58.65918
185.5213, 54.87451
186.0034, 52.45630
186.4855, 47.10669
186.9676, 39.19702
187.4497, 32.12305
187.9318, 29.86792
188.4140, 33.27148
188.8961, 35.00073
189.3782, 32.83179
189.8603, 30.75757
190.3424, 32.26660
190.8245, 35.91724
191.3067, 36.45605
191.7888, 27.19873
192.2709, 6.385498
192.7530, 8.399658
193.2351, 13.12817
193.7172, 14.95850
194.1994, 16.94922
194.6815, 18.35718
195.1636, 16.13989
195.6457, 6.700195
196.1278, 10.68921
196.6099, 26.29785
197.0921, 38.13354
197.5742, 49.91504
198.0563, 65.31250
198.5384, 81.97925
199.0205, 94.11084
199.5026, 96.05371
199.9848, 87.61011
200.4669, 81.37598
200.9490, 68.44604
201.4311, 67.01904
201.9132, 88.69946
202.3953, 126.3975
202.8775, 165.4846
203.3596, 195.4897
203.8417, 216.6555
204.3238, 234.1816
204.8059, 241.1160
205.2880, 251.4814
205.7702, 272.3848
206.2523, 299.0378
206.7344, 321.7986
207.2165, 332.9946
207.6986, 335.1421
208.1807, 350.9211
208.6629, 397.0288
209.1450, 438.0723
209.6271, 462.4202
210.1092, 477.3025
210.5913, 493.9719
211.0734, 519.4561
211.5556, 551.8730
212.0377, 581.0618
212.5198, 607.5911
213.0019, 628.0337
213.4840, 638.7075
213.9661, 644.6548
214.4483, 650.2461
214.9304, 657.0601
215.4125, 670.8127
215.8946, 700.2781
216.3767, 772.4844
216.8589, 826.7336
217.3410, 846.0608
217.8231, 846.4099
218.3052, 846.7563
218.7873, 854.9067
219.2694, 870.4358
219.7516, 895.3413
220.2337, 947.0586
220.7158, 976.5098
221.1979, 958.7720
221.6800, 929.2195
222.1621, 923.1687
222.6443, 952.6548
223.1264, 996.1711
223.6085, 1014.171
224.0906, 994.8696
224.5727, 980.2371
225.0548, 978.1821
225.5370, 970.4963
226.0191, 941.1753
226.5012, 887.1011
226.9833, 821.5996
227.4654, 762.4556
227.9475, 710.2964
228.4297, 662.4407
228.9118, 621.4531
229.3939, 582.0430
229.8760, 540.4666
230.3581, 496.7378
230.8402, 454.8376
231.3224, 419.5283
231.8045, 391.9143
232.2866, 366.2905
232.7687, 341.2339
233.2508, 319.3167
233.7329, 302.7085
234.2151, 290.9106
234.6972, 281.0381
235.1793, 270.5942
235.6614, 259.4939
236.1435, 249.8032
236.6256, 247.3235
237.1078, 240.2551
237.5899, 219.5010
238.0720, 190.0974
238.5541, 164.9429
239.0362, 154.3882
239.5183, 156.6465
240.0005, 155.7708
240.4826, 147.5776
240.9647, 142.0994
241.4468, 145.3376
241.9289, 153.2991
242.4110, 159.3245
242.8932, 160.3711
243.3753, 156.6221
243.8574, 146.7649
244.3395, 124.1062
244.8216, 108.0217
245.3037, 107.6533
245.7859, 115.9258
246.2680, 125.2720
246.7501, 133.5618
247.2322, 139.1189
247.7143, 138.4648
248.1964, 130.0918
248.6786, 120.2349
249.1607, 108.5415
249.6428, 97.24829
250.1249, 87.96533
250.6070, 80.74707
251.0891, 76.44824
251.5713, 77.29297
252.0534, 84.36523
252.5355, 88.00317
253.0176, 84.30420
253.4997, 77.63306
253.9818, 71.24023
254.4640, 64.94971
254.9461, 57.23633
255.4282, 45.66162
255.9103, 30.63257
256.3924, 17.26978
256.8745, 3.182861
257.3567, 4.740234
257.8388, 1.555908
258.3209, 20.82373
258.8030, 37.77515
259.2851, 41.86670
259.7672, 36.22485
260.2494, 31.36694
260.7315, 28.73877
261.2136, 26.43677
261.6957, 24.33228
262.1778, 21.69263
262.6599, 15.19067
263.1421, 4.862549
263.6242, 27.00952
264.1063, 27.83423
264.5884, 1.922119
265.0705, 24.48535
265.5526, 33.00098
266.0348, 27.95312
266.5169, 18.52563
266.9990, 1.232178
267.4811, 19.47681
267.9632, 21.72705
268.4453, 8.477295
268.9275, 3.976074
269.4096, 6.372559
269.8917, 1.676758
270.3738, 0.6166990
270.8559, 0.9267580
271.3380, 1.734131
271.8202, 11.21362
272.3023, 24.84229
272.7844, 33.38696
273.2665, 32.46851
273.7486, 25.13062
274.2307, 16.44873
274.7129, 3.214600
275.1950, 3.387939
275.6771, 2.781494
276.1592, 17.23096
276.6413, 35.65405
277.1234, 57.86157
277.6056, 76.18457
278.0877, 77.46753
278.5698, 55.65527
279.0519, 41.23950
279.5340, 40.66187
280.0161, 46.27271
280.4983, 52.58154
280.9804, 58.45264
281.4625, 63.17407
281.9446, 66.21509
282.4267, 67.50244
282.9088, 66.23877
283.3910, 57.38574
283.8731, 50.79053
284.3552, 53.54639
284.8373, 63.52686
285.3194, 73.35693
285.8015, 78.01562
286.2837, 78.06958
286.7658, 79.23926
287.2479, 84.10547
287.7300, 87.05737
288.2121, 85.16431
288.6942, 81.00391
289.1764, 78.16699
289.6585, 78.30444
290.1406, 80.96240
290.6227, 85.42383
291.1048, 99.26758
291.5869, 103.2263
292.0691, 88.62061
292.5512, 69.12866
293.0333, 55.01782
293.5154, 49.34424
293.9975, 50.28174
294.4796, 56.60864
294.9618, 71.38501
295.4439, 82.48340
295.9260, 90.24561
296.4081, 94.33740
296.8902, 92.47559
297.3723, 86.10791
297.8545, 79.89233
298.3366, 78.39771
298.8187, 81.40112
299.3008, 81.81958
299.7829, 80.23730
300.2650, 74.83179
300.7472, 58.48657
301.2293, 39.11499
301.7114, 31.52124
302.1935, 47.63867
302.6756, 75.01050
303.1577, 80.00269
303.6399, 51.19922
304.1220, 31.35718
304.6041, 46.81299
305.0862, 72.69458
305.5683, 84.86035
306.0504, 75.92407
306.5326, 60.21753
307.0147, 51.91333
307.4968, 50.93579
307.9789, 53.26343
308.4610, 60.22998
308.9431, 68.07251
309.4253, 72.53955
309.9074, 73.58984
310.3895, 75.76489
310.8716, 85.00146
311.3537, 96.96460
311.8358, 99.25293
312.3180, 87.52441
312.8001, 74.50439
313.2822, 72.25513
313.7643, 78.75317
314.2464, 86.99390
314.7285, 96.72095
315.2107, 106.7908
315.6928, 118.0481
316.1749, 130.0173
316.6570, 137.4180
317.1391, 136.1531
317.6212, 127.5005
318.1034, 118.5662
318.5855, 101.9253
319.0676, 94.77466
319.5497, 111.6299
320.0318, 140.5403
320.5139, 157.5479
320.9961, 152.7249
321.4782, 136.8142
321.9603, 133.3765
322.4424, 151.7722
322.9245, 167.9243
323.4066, 181.9778
323.8888, 192.7920
324.3709, 198.8589
324.8530, 200.3831
325.3351, 198.6978
325.8172, 195.6792
326.2993, 191.9553
326.7815, 189.0798
327.2636, 188.2449
327.7457, 186.7722
328.2278, 181.6687
328.7099, 174.5676
329.1920, 170.2380
329.6742, 172.0618
330.1563, 178.2954
330.6384, 181.1235
331.1205, 180.4968
331.6026, 175.9653
332.0847, 164.1816
332.5669, 150.5979
333.0490, 140.9141
333.5311, 137.0464
334.0132, 135.4763
334.4953, 131.0745
334.9774, 123.1794
335.4596, 116.3464
335.9417, 115.6919
336.4238, 112.1343
336.9059, 96.04688
337.3880, 70.05054
337.8702, 49.52661
338.3523, 48.37158
338.8344, 61.65552
339.3165, 72.11914
339.7986, 80.65625
340.2808, 82.87744
340.7629, 68.95337
341.2450, 47.62427
341.7271, 34.30957
342.2092, 35.37402
342.6913, 43.66235
343.1735, 54.47510
343.6556, 67.32031
344.1377, 77.54858
344.6198, 83.89502
345.1019, 85.64526
345.5840, 80.94165
346.0662, 67.31421
346.5483, 55.48364
347.0304, 50.51660
347.5125, 49.25830
347.9946, 46.52563
348.4767, 41.14087
348.9589, 36.15186
349.4410, 35.20972
349.9231, 39.40332
350.4052, 42.19458
350.8873, 42.99512
351.3694, 43.02393
351.8516, 43.24194
352.3337, 43.36597
352.8158, 42.21606
353.2979, 38.85571
353.7800, 33.84155
354.2621, 30.25317
354.7443, 25.70898
355.2264, 25.73315
355.7085, 32.60840
356.1906, 43.48657
356.6727, 56.61157
357.1548, 71.04688
357.6370, 84.60864
358.1191, 92.74463
358.6012, 92.04370
359.0833, 97.85962
359.5654, 122.5232
360.0475, 143.3953
360.5297, 147.2156
361.0118, 137.5864
361.4939, 127.9148
361.9760, 126.2476
362.4581, 131.8462
362.9402, 143.8230
363.4224, 167.0913
363.9045, 184.9365
364.3866, 184.6455
364.8687, 176.6450
365.3508, 173.8801
365.8329, 181.6660
366.3151, 188.5281
366.7972, 181.3015
367.2793, 162.2683
367.7614, 147.1260
368.2435, 141.0864
368.7256, 138.7129
369.2078, 133.5286
369.6899, 125.6611
370.1720, 116.7214
370.6541, 108.0234
371.1362, 97.99414
371.6183, 83.90332
372.1005, 65.88892
372.5826, 47.94971
373.0647, 32.23413
373.5468, 19.14404
374.0289, 12.34717
374.5110, 20.81616
374.9932, 24.41260
375.4753, 11.20117
375.9574, 9.372803
376.4395, 21.92529
376.9216, 20.69434
377.4037, 12.25635
377.8859, 8.446289
378.3680, 12.05029
378.8501, 14.51709
379.3322, 15.25269
379.8143, 15.54102
380.2964, 15.53442
380.7786, 15.65918
381.2607, 17.17114
381.7428, 22.13086
382.2249, 29.37097
382.7070, 29.77649
383.1891, 17.68286
383.6713, 8.294922
384.1534, 9.850586
384.6355, 15.05298
385.1176, 15.51233
385.5997, 8.540283
386.0818, 2.494385
386.5640, 15.76562
387.0461, 31.01904
387.5282, 42.28247
388.0103, 47.07373
388.4924, 48.94043
388.9745, 49.24756
389.4567, 48.47192
389.9388, 53.22314
390.4209, 71.01270
390.9030, 92.48633
391.3851, 106.1487
391.8672, 111.7368
392.3494, 116.2659
392.8315, 123.7693
393.3136, 133.8120
393.7957, 144.2922
394.2778, 152.0208
394.7599, 164.0002
395.2421, 183.8464
395.7242, 208.2263
396.2063, 233.1719
396.6884, 257.5071
397.1705, 281.9138
397.6526, 307.9988
398.1348, 337.7437
398.6169, 361.2329
399.0990, 370.5149
399.5811, 382.1646
400.0632, 405.1270
400.5453, 435.9707
401.0275, 466.2126
401.5096, 490.3301
401.9917, 511.2373
402.4738, 536.4829
402.9559, 566.3624
403.4380, 600.3949
403.9202, 643.6958
404.4023, 687.9081
404.8844, 727.5195
405.3665, 761.9421
405.8486, 790.9277
406.3307, 812.2129
406.8129, 827.7423
407.2950, 844.9602
407.7771, 865.5703
408.2592, 884.5271
408.7413, 898.2720
409.2234, 907.1810
409.7056, 912.1746
410.1877, 911.1719
410.6698, 908.3646
411.1519, 905.7126
411.6340, 903.3416
412.1161, 902.3965
412.5983, 903.8433
413.0804, 904.2579
413.5625, 896.6741
414.0446, 871.3966
414.5267, 860.2826
415.0089, 875.4714
415.4910, 894.8523
415.9731, 901.1436
416.4552, 896.9752
416.9373, 898.1360
417.4194, 917.8103
417.9016, 951.0815
418.3837, 968.6882
418.8658, 959.7644
419.3479, 951.3647
419.8300, 948.7585
420.3121, 948.7126
420.7943, 948.9272
421.2764, 948.7341
421.7585, 947.1334
422.2406, 943.0864
422.7227, 936.6854
423.2048, 928.0312
423.6870, 914.6196
424.1691, 903.8662
424.6512, 900.9265
425.1333, 903.9058
425.6154, 910.0588
426.0975, 924.8062
426.5797, 936.8594
427.0618, 932.1638
427.5439, 915.0330
428.0260, 904.1729
428.5081, 908.0739
428.9902, 918.3025
429.4724, 921.0569
429.9545, 918.0868
430.4366, 903.6591
430.9187, 870.3005
431.4008, 831.5735
431.8829, 791.9253
432.3651, 754.1482
432.8472, 725.4961
433.3293, 713.0775
433.8114, 711.3030
434.2935, 694.8719
434.7756, 653.6792
435.2578, 617.0869
435.7399, 587.6143
436.2220, 564.4158
436.7041, 547.3674
437.1862, 536.4744
437.6683, 528.9502
438.1505, 524.5339
438.6326, 522.2949
439.1147, 512.5825
439.5968, 490.7166
440.0789, 469.5077
440.5610, 457.1625
441.0432, 452.1593
441.5253, 451.0280
442.0074, 453.9240
442.4895, 458.5278
442.9716, 467.6913
443.4537, 478.3247
443.9359, 478.4419
444.4180, 462.6770
444.9001, 442.1812
445.3822, 432.4153
445.8643, 437.7372
446.3464, 434.3422
446.8286, 410.6208
447.3107, 389.2051
447.7928, 384.8567
448.2749, 392.6847
448.7570, 400.0986
449.2391, 400.4597
449.7213, 396.2773
450.2034, 394.5526
450.6855, 399.8848
451.1676, 397.1653
451.6497, 377.3921
452.1318, 355.9949
452.6140, 340.6890
453.0961, 332.2493
453.5782, 328.8806
454.0603, 331.2146
454.5424, 337.1771
455.0245, 342.6132
455.5067, 348.2432
455.9888, 349.1554
456.4709, 342.3856
456.9530, 329.5486
457.4351, 313.3147
457.9172, 291.4558
458.3994, 273.1948
458.8815, 260.7773
459.3636, 254.8246
459.8457, 260.0137
460.3278, 275.7885
460.8099, 289.2260
461.2921, 289.1725
461.7742, 276.4187
462.2563, 265.9408
462.7384, 257.3304
463.2205, 251.3793
463.7026, 248.4589
464.1848, 248.1990
464.6669, 252.9175
465.1490, 262.1505
465.6311, 268.0885
466.1132, 257.5765
466.5953, 229.0894
467.0775, 214.3213
467.5596, 223.6100
468.0417, 231.6288
468.5238, 226.7456
469.0059, 212.7643
469.4880, 194.3671
469.9702, 169.5249
470.4523, 148.1698
470.9344, 143.4366
471.4165, 150.6189
471.8986, 150.7711
472.3807, 137.8503
472.8629, 122.5857
473.3450, 118.0443
473.8271, 126.3428
474.3092, 124.9073
474.7913, 102.1743
475.2734, 81.15015
475.7556, 76.70129
476.2377, 81.69958
476.7198, 81.23999
477.2019, 68.94165
477.6840, 50.87256
478.1661, 37.21252
478.6483, 27.49390
479.1304, 23.42542
479.6125, 36.07532
480.0946, 44.16125
480.5767, 33.97253
481.0588, 11.97522
481.5410, 6.030884
482.0231, 12.26550
482.5052, 10.71326
482.9873, 4.941650
483.4694, 4.871094
483.9515, 11.67920
484.4337, 13.32251
484.9158, 11.25732
485.3979, 4.694458
485.8800, 6.745239
486.3621, 11.00940
486.8442, 4.287842
487.3264, 19.14050
487.8085, 14.04871
488.2906, 5.109863
488.7727, 17.48462
489.2548, 11.88135
489.7369, 2.945068
490.2191, 5.110352
490.7012, 18.82715
491.1833, 28.72229
491.6654, 11.16467
492.1475, 7.407227
492.6296, 9.902832
493.1118, 7.9833999E-02
493.5939, 7.126831
494.0760, 2.502197
494.5581, 9.524170
495.0402, 22.41309
495.5223, 36.86646
496.0045, 43.09546
496.4866, 34.77515
496.9687, 20.12976
497.4508, 6.422607
497.9329, 6.993164
498.4150, 9.318726
498.8972, 11.04089
499.3793, 37.15137
499.8614, 56.51038
500.3435, 68.00342
500.8256, 71.79749
501.3077, 67.42749
501.7899, 60.05457
502.2720, 61.81750
502.7541, 77.90088
503.2362, 93.07776
503.7184, 107.4054
504.2005, 120.9922
504.6826, 133.5039
505.1647, 145.6538
505.6468, 158.3474
506.1289, 169.7156
506.6111, 180.8981
507.0932, 198.1809
507.5753, 223.2682
508.0574, 243.8347
508.5395, 252.6946
509.0216, 257.6619
509.5038, 267.3518
509.9859, 282.0890
510.4680, 302.5073
510.9501, 338.7230
511.4322, 372.5319
511.9143, 384.8126
512.3964, 380.9181
512.8785, 379.0479
513.3607, 387.4658
513.8428, 405.3545
514.3249, 432.2084
514.8070, 477.7750
515.2891, 511.1340
515.7712, 526.4158
516.2534, 536.4117
516.7355, 545.3750
517.2176, 554.1648
517.6997, 562.7500
518.1818, 570.3713
518.6639, 579.4565
519.1461, 595.6812
519.6282, 618.8850
520.1103, 638.4255
520.5924, 650.4983
521.0745, 660.1533
521.5566, 675.0461
522.0388, 694.0454
522.5209, 704.1433
523.0030, 698.1769
523.4851, 687.7112
523.9672, 677.5608
524.4493, 668.5037
524.9315, 662.2784
525.4136, 659.4062
525.8957, 657.2402
526.3778, 652.1796
526.8599, 644.6108
527.3420, 632.5314
527.8242, 615.3884
528.3063, 593.8965
528.7884, 560.5649
529.2705, 525.2888
529.7526, 505.8577
530.2347, 510.7726
530.7169, 518.8855
531.1990, 505.2705
531.6811, 475.4689
532.1632, 453.6444
532.6453, 444.9855
533.1274, 438.3459
533.6096, 425.1906
534.0917, 405.9060
534.5738, 385.9216
535.0559, 364.9352
535.5380, 343.6107
536.0201, 319.8655
536.5023, 297.2072
536.9844, 280.7688
537.4665, 270.8894
537.9486, 262.7704
538.4307, 251.6182
538.9128, 237.7367
539.3950, 224.1184
539.8771, 207.8610
540.3592, 197.8702
540.8413, 206.5604
541.3234, 217.3765
541.8055, 212.6125
542.2877, 189.7535
542.7698, 165.3885
543.2519, 146.4426
543.7340, 132.5610
544.2161, 126.5753
544.6982, 128.2106
545.1804, 126.6578
545.6625, 115.4702
546.1446, 98.30505
546.6267, 85.05518
547.1088, 77.48499
547.5909, 74.11865
548.0731, 79.10840
548.5552, 82.52087
549.0373, 74.93323
549.5194, 62.75745
550.0015, 60.57483
550.4836, 78.86340
550.9658, 103.9890
551.4479, 108.5502
551.9300, 92.17249
552.4121, 78.05444
552.8942, 72.17834
553.3763, 67.75122
553.8585, 56.24500
554.3406, 39.48596
554.8227, 28.06543
555.3048, 29.72876
555.7869, 30.28662
556.2690, 19.03516
556.7512, 3.096802
557.2333, 5.560791
557.7154, 3.669312
558.1975, 1.229126
558.6796, 0.1633300
559.1617, 8.345337
559.6439, 11.96472
560.1260, 9.419800
560.6081, 4.350708
561.0902, 8.654785
561.5723, 20.00977
562.0544, 15.64844
562.5366, 7.754150
563.0187, 27.85046
563.5008, 24.64673
563.9829, 10.05432
564.4650, 7.869141
564.9471, 19.01599
565.4293, 26.87183
565.9114, 21.21155
566.3935, 7.200806
566.8756, 1.069336
567.3577, 1.196411
567.8398, 1.587036
568.3220, 0.2363280
568.8041, 3.589233
569.2862, 8.611206
569.7683, 14.77917
570.2504, 21.29468
570.7325, 27.94165
571.2147, 33.86926
571.6968, 36.40442
572.1789, 35.56091
572.6610, 39.14941
573.1431, 50.62048
573.6252, 62.60388
574.1074, 67.28406
574.5895, 66.37927
575.0716, 69.41992
575.5537, 75.97339
576.0358, 87.87915
576.5179, 109.2135
577.0001, 134.8820
577.4822, 159.8577
577.9643, 182.2937
578.4464, 199.4895
578.9285, 207.3566
579.4106, 207.7335
579.8928, 217.0944
580.3749, 241.5525
580.8570, 261.5254
581.3391, 266.3687
581.8212, 267.6312
582.3033, 276.9070
582.7855, 294.3096
583.2676, 304.7107
583.7497, 295.7089
584.2318, 280.9784
584.7140, 271.9218
585.1961, 269.4460
585.6782, 276.0552
586.1603, 293.2537
586.6425, 314.8752
587.1246, 330.9274
587.6067, 339.6986
588.0888, 350.2642
588.5709, 358.9844
589.0530, 373.6869
589.5352, 409.1846
590.0173, 447.2101
590.4994, 462.1021
590.9815, 446.2810
591.4636, 416.8311
591.9457, 382.8325
592.4279, 347.2128
592.9100, 318.1438
593.3921, 296.3513
593.8742, 273.7015
594.3563, 244.8523
594.8384, 212.0046
595.3206, 181.3871
595.8027, 149.4459
596.2848, 125.9703
596.7669, 117.5380
597.2490, 111.6107
597.7311, 94.08447
598.2133, 73.22424
598.6954, 71.26929
599.1775, 102.0038
599.6596, 142.9786
600.1417, 157.5381
600.6238, 148.3805
601.1060, 151.5034
601.5881, 176.0891
602.0702, 201.3438
602.5523, 211.3156
603.0344, 208.1097
603.5165, 205.1232
603.9987, 195.9111
604.4808, 195.4990
604.9629, 216.4750
605.4450, 241.7882
605.9271, 255.4584
606.4092, 256.6631
606.8914, 253.4153
607.3735, 251.2510
607.8556, 248.4369
608.3377, 238.7379
608.8198, 220.5720
609.3019, 207.1558
609.7841, 203.4963
610.2662, 202.1748
610.7483, 194.3502
611.2304, 182.2676
611.7125, 177.1210
612.1946, 183.5012
612.6768, 194.7974
613.1589, 209.0209
613.6410, 223.6333
614.1231, 235.6127
614.6052, 244.9760
615.0873, 254.9366
615.5695, 269.2172
616.0516, 287.3146
616.5337, 305.8127
617.0158, 325.4363
617.4979, 341.5011
617.9800, 349.3479
618.4622, 356.6362
618.9443, 367.4659
619.4264, 382.2097
619.9085, 406.3030
620.3906, 445.0464
620.8727, 488.2117
621.3549, 533.3972
621.8370, 580.1638
622.3191, 621.9636
622.8012, 656.7834
623.2833, 693.1487
623.7654, 741.4259
624.2476, 801.1576
624.7297, 856.0162
625.2118, 904.5981
625.6939, 950.9939
626.1760, 993.6650
626.6581, 1034.930
627.1403, 1075.163
627.6224, 1114.819
628.1045, 1162.071
628.5866, 1226.853
629.0687, 1295.904
629.5508, 1355.135
630.0330, 1407.429
630.5151, 1462.207
630.9972, 1522.433
631.4793, 1583.640
631.9614, 1642.851
632.4435, 1700.837
632.9257, 1742.159
633.4078, 1759.205
633.8899, 1770.714
634.3720, 1785.742
634.8541, 1795.567
635.3362, 1793.271
635.8184, 1778.013
636.3005, 1748.711
636.7826, 1703.947
637.2647, 1645.195
637.7468, 1569.772
638.2289, 1481.682
638.7111, 1389.354
639.1932, 1296.146
639.6753, 1204.076
640.1574, 1115.172
640.6395, 1028.965
641.1216, 952.2330
641.6038, 890.3607
642.0859, 829.8300
642.5680, 762.3602
643.0501, 697.0593
643.5322, 643.9204
644.0143, 603.7450
644.4965, 566.0977
644.9786, 525.9128
645.4607, 486.0061
645.9428, 447.4821
646.4249, 411.5374
646.9070, 382.5062
647.3892, 361.9728
647.8713, 343.5040
648.3534, 318.8678
648.8355, 287.6345
649.3176, 264.8845
649.7997, 256.8958
650.2819, 246.5669
650.7640, 226.1028
651.2461, 203.1432
651.7282, 184.0140
652.2103, 169.3823
652.6924, 157.4000
653.1746, 146.8982
653.6567, 139.0713
654.1388, 136.8027
654.6209, 137.8776
655.1030, 138.0931
655.5851, 135.9232
656.0673, 128.9438
656.5494, 112.6519
657.0315, 87.57983
657.5136, 72.40979
657.9957, 71.59729
658.4778, 71.47729
658.9600, 67.60474
659.4421, 63.10852
659.9242, 61.08655
660.4063, 61.43555
660.8884, 61.08484
661.3705, 60.08118
661.8527, 57.01758
662.3348, 46.72583
662.8169, 34.80249
663.2990, 34.91626
663.7811, 48.97217
664.2632, 60.05908
664.7454, 48.68469
665.2275, 20.14502
665.7096, 12.33813
666.1917, 33.40881
666.6738, 49.53809
667.1559, 51.32898
667.6381, 45.54248
668.1202, 38.04834
668.6023, 28.89087
669.0844, 18.34070
669.5665, 0.3612060
670.0486, 12.17566
670.5308, 10.83704
671.0129, 1.187744
671.4950, 12.98071
671.9771, 28.74268
672.4592, 37.60510
672.9413, 31.06042
673.4235, 15.42212
673.9056, 10.19385
674.3877, 16.66724
674.8698, 22.51013
675.3519, 26.27051
675.8340, 26.86877
676.3162, 21.11609
676.7983, 10.50610
677.2804, 5.311035
677.7625, 13.57739
678.2446, 17.05859
678.7267, 3.565674
679.2089, 11.18018
679.6910, 10.38403
680.1731, 3.471680
680.6552, 16.11292
681.1373, 19.50598
681.6194, 15.99622
682.1016, 5.439697
682.5837, 10.43298
683.0658, 15.76160
683.5479, 6.670288
684.0300, 5.864746
684.5121, 16.29968
684.9943, 23.20996
685.4764, 20.85889
685.9585, 4.478760
686.4406, 17.82178
686.9227, 9.893555
687.4048, 1.923340
687.8870, 11.37793
688.3691, 16.15735
688.8512, 11.47876
689.3333, 6.099976
689.8154, 21.20630
690.2975, 16.04224
690.7797, 1.327026
691.2618, 13.95093
691.7439, 20.36011
692.2260, 20.74036
692.7081, 14.52417
693.1902, 4.901733
693.6724, 2.317627
694.1545, 7.781860
694.6366, 8.914673
695.1187, 2.167847
695.6008, 4.873901
696.0829, 10.76062
696.5651, 15.08752
697.0472, 16.91089
697.5293, 15.96240
698.0114, 15.37219
698.4935, 17.34033
698.9756, 19.91797
699.4578, 22.33472
699.9399, 23.62842
700.4220, 20.31409
700.9041, 11.57532
701.3862, 3.444458
701.8683, 3.530884
702.3505, 10.94360
702.8326, 15.64404
703.3147, 17.71875
703.7968, 16.50720
704.2789, 7.407227
704.7610, 0.6287840
705.2432, 4.985840
705.7253, 22.35486
706.2074, 31.68164
706.6895, 20.06030
707.1716, 12.30518
707.6537, 25.44641
708.1359, 43.09973
708.6180, 44.16919
709.1001, 29.42322
709.5822, 16.67859
710.0643, 17.82092
710.5464, 27.52979
711.0286, 38.33423
711.5107, 49.75256
711.9928, 56.84253
712.4749, 58.73950
712.9570, 56.06384
713.4391, 46.78906
713.9213, 34.80640
714.4034, 34.13806
714.8855, 59.68103
715.3676, 72.23950
715.8497, 61.14832
716.3318, 48.49744
716.8140, 45.69861
717.2961, 50.07861
717.7782, 55.00122
718.2603, 58.81921
718.7424, 62.78149
719.2245, 70.55029
719.7067, 77.02844
720.1888, 70.96277
720.6709, 55.42639
721.1530, 46.84448
721.6351, 52.45337
722.1172, 63.32324
722.5994, 66.18726
723.0815, 60.57751
723.5636, 58.09155
724.0457, 59.31970
724.5278, 62.59985
725.0099, 71.43286
725.4921, 78.85120
725.9742, 74.69214
726.4563, 59.25745
726.9384, 50.04102
727.4205, 53.66455
727.9026, 59.24329
728.3848, 65.78650
728.8669, 71.51807
729.3490, 71.54504
729.8311, 66.65576
730.3132, 64.37134
730.7953, 71.34265
731.2775, 81.30640
731.7596, 79.68872
732.2417, 69.19116
732.7238, 70.71582
733.2059, 89.75171
733.6880, 104.3021
734.1702, 95.64282
734.6523, 72.12756
735.1344, 63.89343
735.6165, 81.32520
736.0986, 95.52185
736.5807, 109.3982
737.0629, 116.0526
737.5450, 106.5813
738.0271, 91.95044
738.5092, 89.82544
738.9913, 105.8291
739.4734, 120.8558
739.9556, 122.3914
740.4377, 118.0817
740.9198, 118.4802
741.4019, 122.1675
741.8840, 120.9113
742.3661, 111.6409
742.8483, 99.92993
743.3304, 92.24268
743.8125, 87.18884
744.2946, 78.46399
744.7767, 66.51599
745.2589, 57.99658
745.7410, 53.83337
746.2231, 53.72363
746.7052, 59.64990
747.1873, 70.47412
747.6694, 72.97559
748.1516, 64.66675
748.6337, 56.11230
749.1158, 47.84375
749.5979, 38.89783
750.0800, 24.89575
750.5621, 9.688721
751.0443, 3.887573
751.5264, 13.10339
752.0085, 27.38391
752.4906, 44.94141
752.9727, 59.66113
753.4548, 54.93555
753.9370, 33.35339
754.4191, 16.37903
754.9012, 14.60022
755.3833, 21.58105
755.8654, 28.42297
756.3475, 35.42627
756.8297, 36.52576
757.3118, 29.56091
757.7939, 22.29065
758.2760, 16.03613
758.7581, 12.08008
759.2402, 12.98193
759.7224, 18.83044
760.2045, 24.62134
760.6866, 31.73206
761.1687, 34.54736
761.6508, 29.70715
762.1329, 22.54858
762.6151, 17.52466
763.0972, 15.46753
763.5793, 14.35046
764.0614, 12.65625
764.5435, 12.22803
765.0256, 17.77185
765.5078, 25.79907
765.9899, 26.28479
766.4720, 18.91638
766.9541, 12.04297
767.4362, 10.33008
767.9183, 12.16504
768.4005, 14.98450
768.8826, 19.39136
769.3647, 20.59705
769.8468, 18.06628
770.3289, 13.31152
770.8110, 4.460205
771.2932, 4.490967
771.7753, 7.275269
772.2574, 3.550049
772.7395, 1.508545
773.2216, 2.426514
773.7037, 4.771362
774.1859, 13.32727
774.6680, 19.46777
775.1501, 9.623901
775.6322, 12.83643
776.1143, 28.11035
776.5964, 23.13855
777.0786, 11.28992
777.5607, 5.679199
778.0428, 5.005981
778.5249, 6.838379
779.0070, 10.66150
779.4891, 16.35669
779.9713, 24.21289
780.4534, 31.47144
780.9355, 31.15125
781.4176, 21.78552
781.8997, 19.41321
782.3818, 27.62512
782.8640, 33.41858
783.3461, 29.51636
783.8282, 22.36584
784.3103, 22.24255
784.7924, 30.17090
785.2745, 31.11963
785.7567, 15.44287
786.2388, 4.160400
786.7209, 8.375977
787.2030, 15.90405
787.6851, 12.34155
788.1672, 0.6204830
788.6494, 2.028687
789.1315, 17.40393
789.6136, 36.03650
790.0957, 28.93970
790.5778, 9.952637
791.0599, 0.5728760
791.5421, 0.6115720
792.0242, 9.040161
792.5063, 28.50476
792.9884, 46.43750
793.4705, 41.52441
793.9526, 15.43250
794.4348, 3.650024
794.9169, 8.842896
795.3990, 11.95361
795.8811, 5.174561
796.3632, 4.169678
796.8453, 8.133423
797.3275, 6.717529
797.8096, 1.445679
798.2917, 12.96399
798.7738, 23.99133
799.2559, 30.57874
799.7380, 33.21814
800.2202, 29.92419
800.7023, 23.17834
801.1844, 19.14099
801.6665, 20.23462
802.1486, 21.81360
802.6307, 23.84192
803.1129, 23.35669
803.5950, 12.64185
804.0771, 2.077637
804.5592, 5.324097
805.0413, 7.478271
805.5234, 23.42700
806.0056, 30.31506
806.4877, 30.14771
806.9698, 26.95630
807.4519, 21.11145
807.9340, 15.99109
808.4161, 12.38574
808.8983, 9.403320
809.3804, 6.101563
809.8625, 3.157471
810.3446, 3.935059
810.8267, 9.940674
811.3088, 15.07727
811.7910, 18.76501
812.2731, 21.78699
812.7552, 26.31165
813.2373, 29.82495
813.7194, 26.13464
814.2015, 12.05420
814.6837, 5.400879
815.1658, 17.15833
815.6479, 27.09656
816.1300, 26.38318
816.6121, 18.86584
817.0942, 4.916870
817.5764, 12.21899
818.0585, 19.60193
818.5406, 5.498291
819.0227, 13.41052
819.5048, 22.25586
819.9869, 24.88135
820.4691, 28.16479
820.9512, 32.23608
821.4333, 32.35559
821.9154, 25.81848
822.3975, 17.66016
822.8796, 15.66333
823.3618, 19.24023
823.8439, 24.57373
824.3260, 31.98755
824.8081, 33.97437
825.2902, 26.08423
825.7723, 17.86060
826.2545, 21.17383
826.7366, 35.25891
827.2187, 43.41821
827.7008, 44.18359
828.1829, 41.63318
828.6650, 31.45728
829.1472, 22.69543
829.6293, 23.32959
830.1114, 29.67261
830.5935, 32.30603
831.0756, 29.27271
831.5577, 24.95471
832.0399, 13.43628
832.5220, 7.627075
833.0041, 23.33777
833.4862, 47.04053
833.9683, 58.18506
834.4504, 53.84570
834.9326, 47.41260
835.4147, 46.24854
835.8968, 48.08459
836.3789, 52.57239
836.8610, 57.63208
837.3431, 58.20898
837.8253, 54.62646
838.3074, 51.96472
838.7895, 53.10315
839.2716, 57.31958
839.7537, 65.87573
840.2358, 77.36121
840.7180, 78.96790
841.2001, 69.64136
841.6822, 62.59631
842.1643, 62.87305
842.6464, 67.21289
843.1285, 72.65576
843.6107, 78.84277
844.0928, 79.37146
844.5749, 70.11609
845.0570, 64.61804
845.5391, 63.18481
846.0212, 67.69653
846.5034, 85.34326
846.9855, 109.1014
847.4676, 121.2340
847.9497, 116.3408
848.4318, 113.9191
848.9139, 119.3065
849.3961, 124.6465
849.8782, 124.8004
850.3603, 123.7191
850.8424, 127.0753
851.3245, 135.0176
851.8066, 142.0386
852.2888, 145.1722
852.7709, 147.1444
853.2530, 149.9084
853.7351, 152.6400
854.2172, 153.5173
854.6993, 153.0908
855.1815, 154.2874
855.6636, 158.5426
856.1457, 163.3112
856.6278, 166.8333
857.1099, 168.3716
857.5920, 165.2301
858.0742, 157.8232
858.5563, 149.3203
859.0384, 141.3217
859.5205, 140.8433
860.0026, 156.7524
860.4847, 181.7772
860.9669, 185.7733
861.4490, 164.2645
861.9311, 156.5537
862.4132, 172.8473
862.8953, 184.5048
863.3774, 172.5846
863.8596, 150.1578
864.3417, 142.2008
864.8238, 152.3027
865.3059, 153.8267
865.7880, 141.1305
866.2701, 128.0234
866.7523, 111.9290
867.2344, 101.0631
867.7165, 106.4663
868.1986, 123.2887
868.6807, 132.1604
869.1628, 127.2336
869.6450, 120.6915
870.1271, 113.0209
870.6092, 105.3950
871.0913, 98.72009
871.5734, 94.20020
872.0555, 95.53857
872.5377, 102.6851
873.0198, 105.8751
873.5019, 95.03906
873.9840, 82.22034
874.4661, 75.30481
874.9482, 74.35144
875.4304, 81.56555
875.9125, 94.79468
876.3946, 107.2445
876.8767, 114.2225
877.3588, 115.6571
877.8409, 109.0729
878.3231, 97.85913
878.8052, 90.32397
879.2873, 86.51917
879.7694, 84.95544
880.2515, 85.14160
880.7336, 86.51428
881.2158, 89.28418
881.6979, 91.65930
882.1800, 85.01648
882.6621, 68.59644
883.1442, 63.00098
883.6263, 72.56128
884.1085, 82.84229
884.5906, 85.80469
885.0727, 85.90271
885.5548, 91.51538
886.0369, 103.7687
886.5190, 109.4838
887.0012, 104.8531
887.4833, 101.5299
887.9654, 102.5558
888.4475, 105.1912
888.9296, 108.3014
889.4117, 111.2590
889.8939, 111.3403
890.3760, 104.7039
890.8581, 103.0319
891.3402, 113.7426
891.8223, 121.9114
892.3044, 116.9810
892.7866, 108.5280
893.2687, 110.8864
893.7508, 123.7875
894.2329, 129.0199
894.7150, 113.7068
895.1971, 98.82080
895.6793, 93.57397
896.1614, 92.65137
896.6435, 93.50171
897.1256, 94.13940
897.6077, 90.62585
898.0898, 81.60254
898.5720, 74.28613
899.0541, 77.32068
899.5362, 81.32629
900.0183, 71.84082
900.5004, 57.99133
900.9825, 61.00562
901.4647, 79.89819
901.9468, 91.32690
902.4289, 80.70764
902.9110, 60.78833
903.3931, 44.27905
903.8752, 32.94800
904.3574, 35.39648
904.8395, 48.63440
905.3216, 55.19519
905.8037, 49.46350
906.2858, 40.44495
906.7679, 37.38477
907.2501, 37.08679
907.7322, 27.07678
908.2143, 8.293457
908.6964, 2.445679
909.1785, 13.13220
909.6606, 22.89746
910.1428, 22.45056
910.6249, 16.65942
911.1070, 12.95081
911.5891, 11.30505
912.0712, 10.19019
912.5533, 9.722900
913.0355, 9.575806
913.5176, 10.52905
913.9998, 9.546387
914.4819, 2.608154
914.9640, 6.886230
915.4461, 8.299683
915.9282, 2.278320
916.4103, 9.033447
916.8925, 11.53174
917.3746, 10.77820
917.8567, 3.478027
918.3388, 3.949219
918.8209, 4.360718
919.3030, 1.203125
919.7852, 5.500000
920.2673, 10.59424
920.7494, 10.86060
921.2315, 0.7108150
921.7136, 10.02820
922.1957, 11.55640
922.6779, 5.635986
923.1600, 11.75476
923.6421, 40.23645
924.1242, 54.69543
924.6063, 36.28650
925.0884, 18.44385
925.5706, 16.77539
926.0527, 18.30237
926.5348, 8.148193
927.0169, 6.973511
927.4990, 8.294189
927.9811, 9.904419
928.4633, 27.88098
928.9454, 37.16663
929.4275, 41.36475
929.9096, 39.98022
930.3917, 36.60986
930.8738, 36.14539
931.3560, 38.70959
931.8381, 40.66211
932.3202, 40.07861
932.8023, 37.37976
933.2844, 30.01624
933.7665, 23.95740
934.2487, 30.83337
934.7308, 43.94604
935.2129, 46.03809
935.6950, 35.33533
936.1771, 26.17090
936.6592, 28.80847
937.1414, 36.45801
937.6235, 40.57886
938.1056, 42.51221
938.5877, 44.08997
939.0698, 46.31116
939.5519, 52.68030
940.0341, 63.63159
940.5162, 74.25745
940.9983, 82.75012
941.4804, 88.48853
941.9625, 87.36853
942.4446, 81.69690
942.9268, 84.08008
943.4089, 95.32007
943.8910, 105.2305
944.3731, 108.7556
944.8552, 111.6973
945.3373, 122.2404
945.8195, 138.7391
946.3016, 152.8823
946.7837, 164.6450
947.2658, 171.9485
947.7479, 173.7103
948.2300, 180.7135
948.7122, 199.8171
949.1943, 227.2964
949.6764, 257.5601
950.1585, 290.3851
950.6406, 316.7576
951.1227, 332.9824
951.6049, 366.9336
952.0870, 425.5342
952.5691, 502.3817
953.0512, 592.6534
953.5333, 697.5288
954.0154, 823.1866
954.4976, 974.7881
954.9797, 1116.602
955.4618, 1244.708
955.9439, 1375.387
956.4260, 1515.578
956.9081, 1655.153
957.3903, 1784.712
957.8724, 1906.417
958.3545, 2027.669
958.8366, 2140.133
959.3187, 2274.732
959.8008, 2436.707
960.2830, 2610.577
960.7651, 2780.075
961.2472, 2970.597
961.7293, 3224.254
962.2114, 3531.628
962.6935, 3796.144
963.1757, 4033.677
963.6578, 4198.711
964.1399, 4321.258
964.6220, 4326.560
965.1041, 4158.036
965.5862, 3871.454
966.0684, 3515.109
966.5505, 3088.522
967.0326, 2682.007
967.5147, 2279.989
967.9968, 1916.329
968.4789, 1594.673
968.9611, 1311.327
969.4432, 1066.709
969.9253, 857.8276
970.4074, 682.7306
970.8895, 541.4471
971.3716, 431.4932
971.8538, 365.9739
972.3359, 312.9086
972.8180, 272.5502
973.3001, 236.0079
973.7822, 195.6863
974.2643, 155.8638
974.7465, 124.4548
975.2286, 101.8408
975.7107, 91.61670
976.1928, 111.8181
976.6749, 120.7139
977.1570, 89.99011
977.6392, 57.95789
978.1213, 61.16125
978.6034, 84.32800
979.0855, 89.42590
979.5676, 67.14539
980.0497, 48.39099
980.5319, 44.55493
981.0140, 42.35962
981.4961, 33.39624
981.9782, 25.38489
982.4603, 28.76013
982.9424, 38.36340
983.4246, 39.76562
983.9067, 28.98560
984.3888, 15.68701
984.8709, 3.827637
985.3530, 17.56006
985.8351, 13.39258
986.3173, 4.979492
986.7994, 7.729614
987.2815, 17.68225
987.7636, 17.97534
988.2457, 0.9130860
988.7278, 10.02478
989.2100, 1.864746
989.6921, 13.46594
990.1742, 9.066284
990.6563, 0.5192870
991.1384, 2.846313
991.6205, 1.087036
992.1027, 2.824097
992.5848, 0.7032470
993.0669, 4.064575
993.5490, 5.218506
994.0311, 5.258789
994.5132, 4.643555
994.9954, 3.471680
995.4775, 1.836060
995.9596, 0.2874760
996.4417, 4.002563
996.9238, 12.07886
997.4059, 13.05872
997.8881, 7.920410
998.3702, 27.14331
998.8523, 25.56384
999.3344, 15.38745
999.8165, 11.51282
1000.299, 14.44812
1000.781, 17.39539
1001.263, 18.14368
1001.745, 18.44678
1002.227, 19.14099
1002.709, 19.63843
1003.191, 18.13574
1003.673, 17.11133
1004.156, 21.92297
1004.638, 30.55017
1005.120, 32.94727
1005.602, 23.94678
1006.084, 14.20569
1006.566, 4.467896
1007.048, 0.1385500
1007.530, 10.08655
1008.013, 24.14001
1008.495, 28.64502
1008.977, 24.48865
1009.459, 22.74548
1009.941, 27.39294
1010.423, 33.79163
1010.905, 44.55493
1011.387, 51.34692
1011.869, 46.84705
1012.352, 36.53186
1012.834, 23.76331
1013.316, 11.57654
1013.798, 8.905884
1014.280, 23.34436
1014.762, 32.47449
1015.244, 21.87695
1015.726, 9.347412
1016.208, 4.486206
1016.691, 4.611938
1017.173, 8.712036
1017.655, 14.41870
1018.137, 14.23047
1018.619, 3.447754
1019.101, 4.928345
1019.583, 2.295776
1020.065, 0.7603760
1020.548, 12.91174
1021.030, 25.25452
1021.512, 19.14868
1021.994, 0.7072750
1022.476, 11.74390
1022.958, 5.851563
1023.440, 1.095947
1023.922, 3.012573
1024.404, 6.870239
1024.887, 13.91833
1025.369, 19.09644
1025.851, 14.51892
1026.333, 3.877686
1026.815, 0.6048580
1027.297, 9.620483
1027.779, 16.96533
1028.261, 16.08301
1028.744, 17.47314
1029.226, 27.49890
1029.708, 39.59741
1030.190, 47.34387
1030.672, 52.29333
1031.154, 59.67249
1031.636, 70.21155
1032.118, 82.71558
1032.600, 102.8127
1033.083, 117.1776
1033.565, 118.2278
1034.047, 115.3408
1034.529, 113.6550
1035.011, 114.0366
1035.493, 118.8434
1035.975, 130.2126
1036.457, 137.3405
1036.939, 122.8834
1037.422, 127.7263
1037.904, 189.5226
1038.386, 243.1067
1038.868, 237.0212
1039.350, 197.2703
1039.832, 175.6821
1040.314, 173.9176
1040.796, 180.6548
1041.279, 208.3856
1041.761, 221.9564
1042.243, 205.1174
1042.725, 187.9238
1043.207, 188.9174
1043.689, 201.0219
1044.171, 212.0692
1044.653, 221.5951
1045.135, 222.5590
1045.618, 211.6974
1046.100, 203.0986
1046.582, 194.2061
1047.064, 194.9183
1047.546, 215.3579
1048.028, 241.5803
1048.510, 250.8173
1048.992, 244.7750
1049.474, 256.4312
1049.957, 290.9364
1050.439, 318.3992
1050.921, 329.9203
1051.403, 363.5570
1051.885, 447.8427
1052.367, 524.0792
1052.849, 519.8120
1053.331, 451.4767
1053.814, 394.1660
1054.296, 347.7704
1054.778, 318.7505
1055.260, 310.1583
1055.742, 295.6150
1056.224, 263.5630
1056.706, 226.6211
1057.188, 196.0444
1057.671, 171.6002
1058.153, 153.1191
1058.635, 140.3434
1059.117, 131.5610
1059.599, 126.2761
1060.081, 118.4906
1060.563, 106.6198
1061.045, 94.40613
1061.527, 84.75916
1062.010, 75.91187
1062.492, 63.79028
1062.974, 50.06824
1063.456, 40.90601
1063.938, 35.21924
1064.420, 27.11243
1064.902, 15.89697
1065.384, 7.312622
1065.866, 4.539429
1066.349, 3.727905
1066.831, 0.7667240
1067.313, 5.808350
1067.795, 4.449463
1068.277, 0.3139650
1068.759, 0.3394780
1069.241, 3.360107
1069.723, 2.021851
1070.206, 7.892578
1070.688, 19.16211
1071.170, 27.07178
1071.652, 31.97681
1072.134, 33.94910
1072.616, 33.25586
1073.098, 26.41711
1073.580, 18.18945
1074.063, 20.85339
1074.545, 36.75928
1075.027, 51.06128
1075.509, 51.49048
1075.991, 53.89026
1076.473, 68.73926
1076.955, 88.43982
1077.437, 112.1304
1077.919, 133.7859
1078.402, 141.4644
1078.884, 136.1976
1079.366, 138.1794
1079.848, 160.6090
1080.330, 176.4933
1080.812, 178.5653
1081.294, 171.6544
1081.776, 150.1846
1082.259, 127.1086
1082.741, 117.6200
1083.223, 118.8992
1083.705, 115.8905
1084.187, 104.8497
1084.669, 95.95093
1085.151, 91.71423
1085.633, 86.83447
1086.115, 75.37292
1086.598, 68.30017
1087.080, 76.52173
1087.562, 92.92212
1088.044, 102.4048
1088.526, 104.7006
1089.008, 100.7484
1089.490, 82.80225
1089.972, 83.43738
1090.454, 115.4520
1090.937, 143.7452
1091.419, 147.3610
1091.901, 142.7771
1092.383, 153.8987
1092.865, 177.5233
1093.347, 190.9064
1093.829, 193.3192
1094.311, 199.9744
1094.794, 212.2378
1095.276, 226.9894
1095.758, 242.8402
1096.240, 267.1663
1096.722, 309.8104
1097.204, 356.6219
1097.686, 368.8788
1098.168, 358.4587
1098.651, 376.0873
1099.133, 418.0492
1099.615, 456.7949
1100.097, 485.9425
1100.579, 510.7212
1101.061, 533.8502
1101.543, 558.6591
1102.025, 594.1062
1102.507, 630.1256
1102.990, 648.5310
1103.472, 657.7024
1103.954, 671.9927
1104.436, 692.5782
1104.918, 715.6702
1105.400, 739.9617
1105.882, 763.1591
1106.364, 784.0094
1106.846, 802.9761
1107.329, 826.0028
1107.811, 842.1508
1108.293, 838.3035
1108.775, 821.4230
1109.257, 801.2119
1109.739, 780.4760
1110.221, 766.2396
1110.703, 769.8558
1111.186, 763.0170
1111.668, 730.9878
1112.150, 696.6814
1112.632, 669.3179
1113.114, 646.0632
1113.596, 629.9489
1114.078, 615.2362
1114.560, 579.3767
1115.042, 510.1072
1115.525, 464.3826
1116.007, 454.7791
1116.489, 441.4413
1116.971, 414.7131
1117.453, 386.2897
1117.935, 362.7759
1118.417, 342.7739
1118.899, 324.9222
1119.381, 308.5402
1119.864, 282.1920
1120.346, 244.6050
1120.828, 226.8429
1121.310, 232.9741
1121.792, 231.9019
1122.274, 211.5111
1122.756, 183.5795
1123.238, 157.3329
1123.721, 136.6461
1124.203, 133.3029
1124.685, 141.4353
1125.167, 145.4628
1125.649, 144.5118
1126.131, 136.3530
1126.613, 122.3815
1127.095, 110.7760
1127.578, 105.6357
1128.060, 106.6409
1128.542, 120.7083
1129.024, 133.5094
1129.506, 125.2563
1129.988, 110.1555
1130.470, 109.4374
1130.952, 117.0659
1131.434, 113.0957
1131.917, 94.50525
1132.399, 80.89221
1132.881, 83.05811
1133.363, 84.83972
1133.845, 77.18311
1134.327, 71.98645
1134.809, 83.16589
1135.291, 95.87488
1135.773, 88.47449
1136.256, 65.81104
1136.738, 58.54688
1137.220, 73.64636
1137.702, 85.25366
1138.184, 95.12048
1138.666, 98.69519
1139.148, 90.14526
1139.630, 82.57227
1140.113, 84.72949
1140.595, 90.42224
1141.077, 91.44214
1141.559, 87.80627
1142.041, 77.44775
1142.523, 60.30823
1143.005, 50.01685
1143.487, 47.84668
1143.969, 53.92957
1144.452, 68.07629
1144.934, 80.02478
1145.416, 80.65491
1145.898, 76.38196
1146.380, 78.26147
1146.862, 82.26855
1147.344, 78.42004
1147.826, 70.68579
1148.308, 68.71375
1148.791, 72.30261
1149.273, 77.92664
1149.755, 84.29395
1150.237, 90.98792
1150.719, 96.72424
1151.201, 102.3209
1151.683, 109.8596
1152.165, 116.7157
1152.648, 121.5394
1153.130, 123.4310
1153.612, 117.7277
1154.094, 106.4785
1154.576, 106.9445
1155.058, 133.3745
1155.540, 148.4073
1156.022, 142.0878
1156.505, 134.1143
1156.987, 125.8903
1157.469, 121.7483
1157.951, 127.3328
1158.433, 136.1261
1158.915, 133.5974
1159.397, 120.1316
1159.879, 116.7704
1160.361, 124.5054
1160.844, 128.6665
1161.326, 127.4520
1161.808, 123.8176
1162.290, 118.8636
1162.772, 118.0648
1163.254, 128.0376
1163.736, 139.7524
1164.218, 135.0372
1164.700, 121.3815
1165.183, 116.4698
1165.665, 116.1024
1166.147, 106.1967
1166.629, 88.36230
1167.111, 77.38013
1167.593, 79.04199
1168.075, 81.52722
1168.557, 78.44629
1169.040, 72.24744
1169.522, 59.96539
1170.004, 49.54169
1170.486, 49.93176
1170.968, 54.92731
1171.450, 54.14789
1171.932, 47.94733
1172.414, 45.95044
1172.896, 54.62726
1173.379, 54.78290
1173.861, 40.95264
1174.343, 28.49725
1174.825, 20.64246
1175.307, 15.43347
1175.789, 11.07336
1176.271, 10.07684
1176.753, 18.11194
1177.235, 32.55365
1177.718, 35.63696
1178.200, 28.05194
1178.682, 18.26764
1179.164, 7.963013
1179.646, 7.505066
1180.128, 18.82544
1180.610, 26.33246
1181.092, 18.73053
1181.575, 7.084290
1182.057, 3.973022
1182.539, 4.888062
1183.021, 5.430908
1183.503, 5.662231
1183.985, 4.942505
1184.467, 3.891968
1184.949, 4.550232
1185.432, 7.211914
1185.914, 8.079834
1186.396, 2.273438
1186.878, 0.2307740
1187.360, 11.63812
1187.842, 18.66510
1188.324, 10.15881
1188.806, 3.725769
1189.288, 17.41052
1189.771, 28.11932
1190.253, 28.52423
1190.735, 18.01074
1191.217, 5.854614
1191.699, 9.378296
1192.181, 13.46210
1192.663, 3.775452
1193.145, 4.617126
1193.627, 5.623779
1194.110, 1.866455
1194.592, 6.020752
1195.074, 11.65143
1195.556, 0.4825440
1196.038, 20.09619
1196.520, 28.71155
1197.002, 26.99219
1197.484, 12.93146
1197.967, 8.029297
1198.449, 19.81232
1198.931, 17.21735
1199.413, 12.71002
1199.895, 11.94867
1200.377, 12.37775
1200.859, 13.55530
1201.341, 14.83459
1201.823, 16.46777
1202.306, 17.57654
1202.788, 16.00653
1203.270, 13.31085
1203.752, 15.15173
1204.234, 23.46051
1204.716, 21.04718
1205.198, 3.695679
1205.680, 3.437195
1206.162, 4.751526
1206.645, 9.909851
1207.127, 3.810425
1207.609, 3.613831
1208.091, 2.651062
1208.573, 3.233887
1209.055, 9.635864
1209.537, 15.75671
1210.019, 17.31903
1210.502, 15.20093
1210.984, 8.704285
1211.466, 0.9328610
1211.948, 3.021484
1212.430, 18.14124
1212.912, 27.56635
1213.394, 13.82349
1213.876, 3.710205
1214.359, 13.23370
1214.841, 23.41089
1215.323, 19.70721
1215.805, 14.15900
1216.287, 22.66467
1216.769, 38.52393
1217.251, 43.25507
1217.733, 35.72748
1218.215, 32.02197
1218.698, 33.08954
1219.180, 30.14954
1219.662, 21.22864
1220.144, 25.73737
1220.626, 51.47028
1221.108, 68.85449
1221.590, 50.90149
1222.072, 19.77563
1222.554, 4.431824
1223.037, 1.857239
1223.519, 13.40979
1224.001, 30.03998
1224.483, 37.10669
1224.965, 35.25934
1225.447, 28.71088
1225.929, 19.51538
1226.411, 18.84491
1226.894, 39.19989
1227.376, 53.19269
1227.858, 45.67822
1228.340, 37.30310
1228.822, 46.02051
1229.304, 58.37885
1229.786, 57.89526
1230.268, 49.10529
1230.750, 45.21399
1231.233, 45.25757
1231.715, 44.41705
1232.197, 48.36780
1232.679, 46.33197
1233.161, 34.41058
1233.643, 33.82184
1234.125, 48.32404
1234.607, 57.56824
1235.089, 49.14716
1235.572, 36.76324
1236.054, 32.51764
1236.536, 30.86597
1237.018, 30.89825
1237.500, 28.58948
1237.982, 26.66748
1238.464, 23.40942
1238.946, 14.00500
1239.429, 4.9377002E-02
1239.911, 1.283569
1240.393, 26.13867
1240.875, 42.01270
1241.357, 47.06110
1241.839, 43.88837
1242.321, 28.68756
1242.803, 19.45746
1243.286, 25.47900
1243.768, 37.06396
1244.250, 44.25916
1244.732, 46.20795
1245.214, 45.62164
1245.696, 46.02942
1246.178, 45.58386
1246.660, 42.69867
1247.142, 35.80688
1247.625, 25.73645
1248.107, 18.89966
1248.589, 17.05634
1249.071, 18.93463
1249.553, 28.87280
1250.035, 33.88147
1250.517, 21.41895
1250.999, 12.99860
1251.481, 25.42975
1251.964, 38.32983
1252.446, 35.11646
1252.928, 23.93744
1253.410, 17.23578
1253.892, 20.72479
1254.374, 22.78430
1254.856, 22.93378
1255.338, 15.04803
1255.821, 0.5339360
1256.303, 1.142395
1256.785, 12.31854
1257.267, 21.16327
1257.749, 14.47223
1258.231, 7.176086
1258.713, 11.09174
1259.195, 19.69794
1259.677, 35.53302
1260.160, 47.24115
1260.642, 42.81488
1261.124, 30.45435
1261.606, 15.30396
1262.088, 7.436646
1262.570, 1.834045
1263.052, 0.5489500
1263.534, 3.754517
1264.016, 17.29285
1264.499, 22.44000
1264.981, 9.888672
1265.463, 2.758728
1265.945, 3.650269
1266.427, 0.0000000E+00
##END=



