##NAMES=Murmanite
##RRUFFID=R110202
##IDEAL CHEMISTRY=Na_2_Ti_2_(Si_2_O_7_)O_2_&#183;2H_2_O
##LOCALITY=Kvanefjeld Mt., Kuannersuit plateau, Ilimaussaq complex, Narsaq, Kitaa Province, Greenland
##OWNER=RRUFF
##SOURCE=Donald Doell
##DESCRIPTION=Pink plates frozen in matrix
##STATUS=The identification of this mineral has been confirmed only by single crystal X-ray diffraction.
##URL=rruff.info/R110202
175.8268, 0.0000000E+00
176.3090, 0.7715300
176.7911, 2.443466
177.2732, 4.450714
177.7553, 5.916168
178.2374, 6.657837
178.7195, 7.110809
179.2017, 7.428741
179.6838, 7.580551
180.1659, 7.503647
180.6480, 7.167648
181.1301, 6.792694
181.6122, 6.485519
182.0944, 6.222031
182.5765, 5.905716
183.0586, 5.420059
183.5407, 4.881287
184.0228, 4.784561
184.5049, 4.653458
184.9871, 4.499054
185.4692, 4.274948
185.9513, 3.909103
186.4334, 3.127411
186.9155, 2.768845
187.3976, 2.695877
187.8798, 2.403503
188.3619, 1.817291
188.8440, 1.214752
189.3261, 1.118927
189.8082, 1.481491
190.2903, 1.663696
190.7725, 1.118698
191.2546, 1.9347999E-02
191.7367, 0.5439910
192.2188, 0.4442440
192.7009, 2.3499001E-02
193.1830, 0.2410740
193.6652, 0.3516690
194.1473, 0.2620240
194.6294, 0.2904820
195.1115, 1.232697
195.5936, 1.519211
196.0757, 0.9712520
196.5579, 3.5385001E-02
197.0400, 0.7381440
197.5221, 1.092453
198.0042, 1.605789
198.4863, 2.827042
198.9684, 4.768616
199.4506, 5.873428
199.9327, 5.826645
200.4148, 5.155960
200.8969, 4.992493
201.3790, 5.398926
201.8611, 5.967117
202.3433, 6.552032
202.8254, 7.183334
203.3075, 7.503967
203.7896, 7.386658
204.2717, 7.023163
204.7538, 6.888626
205.2360, 6.994797
205.7181, 7.264206
206.2002, 7.761566
206.6823, 8.577271
207.1644, 8.980545
207.6465, 8.786545
208.1287, 8.210434
208.6108, 7.910309
209.0929, 7.966476
209.5750, 8.070297
210.0571, 7.999985
210.5392, 7.687393
211.0214, 7.543854
211.5035, 7.687592
211.9856, 8.000427
212.4677, 8.012894
212.9498, 7.561966
213.4319, 7.185196
213.9140, 7.315720
214.3962, 8.218323
214.8783, 8.661682
215.3604, 8.395416
215.8425, 7.616760
216.3246, 7.137360
216.8067, 7.064804
217.2889, 7.071472
217.7710, 6.953537
218.2531, 6.662811
218.7352, 6.374619
219.2173, 6.081665
219.6994, 5.794174
220.1816, 5.548706
220.6637, 5.238953
221.1458, 5.134521
221.6279, 5.449707
222.1100, 6.372528
222.5921, 7.232330
223.0743, 8.036011
223.5564, 8.741821
224.0385, 9.151794
224.5206, 9.122452
225.0027, 9.018967
225.4848, 9.056458
225.9670, 9.265915
226.4491, 9.553635
226.9312, 9.933289
227.4133, 10.38979
227.8954, 10.86353
228.3775, 11.32251
228.8597, 11.83391
229.3418, 12.54636
229.8239, 13.64209
230.3060, 14.42958
230.7881, 14.81897
231.2702, 14.90292
231.7524, 14.68895
232.2345, 13.95039
232.7166, 13.33000
233.1987, 13.24779
233.6808, 14.02702
234.1629, 14.50417
234.6451, 14.55191
235.1272, 14.23111
235.6093, 13.80634
236.0914, 13.21846
236.5735, 12.60696
237.0556, 12.05859
237.5378, 11.63873
238.0199, 11.14195
238.5020, 10.52809
238.9841, 9.830978
239.4662, 9.196838
239.9483, 8.614182
240.4305, 8.119751
240.9126, 7.768280
241.3947, 7.751709
241.8768, 7.443527
242.3589, 6.660980
242.8410, 5.582947
243.3232, 4.849747
243.8053, 4.684311
244.2874, 4.560272
244.7695, 4.162003
245.2516, 3.165283
245.7337, 2.619446
246.2159, 2.707428
246.6980, 3.242249
247.1801, 3.616013
247.6622, 3.702774
248.1443, 3.817032
248.6264, 4.115540
249.1086, 4.686127
249.5907, 5.201370
250.0728, 5.639832
250.5549, 6.067947
251.0370, 6.610565
251.5191, 7.246552
252.0013, 8.033157
252.4834, 9.059067
252.9655, 10.52249
253.4476, 11.57361
253.9297, 11.98918
254.4118, 12.15581
254.8940, 12.93276
255.3761, 14.59531
255.8582, 16.38777
256.3403, 18.01823
256.8224, 19.48383
257.3046, 20.75011
257.7867, 21.68468
258.2688, 22.48657
258.7509, 23.55153
259.2330, 24.95570
259.7151, 26.44176
260.1973, 28.03673
260.6794, 29.88896
261.1615, 31.02238
261.6436, 31.22185
262.1257, 30.88229
262.6078, 30.62288
263.0900, 30.43520
263.5721, 30.37386
264.0542, 30.57651
264.5363, 31.17131
265.0184, 31.15030
265.5005, 30.31258
265.9827, 29.10701
266.4648, 28.13341
266.9469, 27.42725
267.4290, 26.88126
267.9111, 26.51782
268.3932, 26.35915
268.8754, 26.02467
269.3575, 25.52463
269.8396, 24.82762
270.3217, 23.80696
270.8038, 22.32257
271.2859, 21.05937
271.7681, 20.27328
272.2502, 19.94597
272.7323, 19.53676
273.2144, 19.08652
273.6965, 18.48308
274.1786, 17.53732
274.6608, 16.15666
275.1429, 14.90395
275.6250, 13.99121
276.1071, 13.35036
276.5892, 12.36798
277.0714, 10.97456
277.5535, 9.486603
278.0356, 8.263412
278.5177, 7.349777
278.9998, 6.180984
279.4819, 4.467148
279.9641, 2.437958
280.4462, 1.290375
280.9283, 1.185043
281.4104, 1.255966
281.8925, 0.6968080
282.3746, 0.5045470
282.8568, 1.408325
283.3389, 1.834808
283.8210, 1.883530
284.3031, 1.754349
284.7852, 1.418350
285.2673, 1.112305
285.7495, 1.090622
286.2316, 1.314835
286.7137, 1.275162
287.1958, 0.8402710
287.6779, 0.2078860
288.1600, 0.1112820
288.6422, 0.1078340
289.1243, 0.3429410
289.6064, 1.371170
290.0885, 3.012787
290.5706, 4.253418
291.0527, 4.914139
291.5349, 5.350784
292.0170, 6.110870
292.4991, 7.167923
292.9812, 8.326126
293.4633, 9.361694
293.9454, 10.39540
294.4276, 11.88333
294.9097, 13.90132
295.3918, 16.08333
295.8739, 17.97743
296.3560, 19.61694
296.8381, 21.24390
297.3203, 23.07693
297.8024, 24.93826
298.2845, 26.42740
298.7666, 27.51651
299.2487, 28.49133
299.7308, 29.64877
300.2130, 30.94087
300.6951, 32.21785
301.1772, 33.62872
301.6593, 34.88588
302.1414, 35.42834
302.6235, 35.26709
303.1057, 35.07510
303.5878, 35.68031
304.0699, 36.62491
304.5520, 37.03394
305.0341, 36.33696
305.5162, 35.25217
305.9984, 34.55611
306.4805, 34.19061
306.9626, 33.70119
307.4447, 32.62549
307.9268, 31.29314
308.4089, 30.18625
308.8911, 29.63519
309.3732, 29.02077
309.8553, 27.83070
310.3374, 26.16460
310.8195, 24.32214
311.3016, 22.13887
311.7838, 20.05388
312.2659, 18.55347
312.7480, 17.96596
313.2301, 17.42574
313.7122, 16.27507
314.1943, 14.77472
314.6765, 13.50833
315.1586, 13.07761
315.6407, 12.68452
316.1228, 11.66208
316.6049, 9.770767
317.0870, 8.189163
317.5692, 7.644547
318.0513, 7.657883
318.5334, 7.564102
319.0155, 7.146240
319.4976, 6.655655
319.9797, 6.218887
320.4619, 5.818085
320.9440, 5.360504
321.4261, 4.675858
321.9082, 4.033218
322.3903, 3.673065
322.8724, 3.712265
323.3546, 3.968338
323.8367, 4.486557
324.3188, 5.251862
324.8009, 5.938690
325.2830, 6.556503
325.7651, 7.039001
326.2473, 7.342499
326.7294, 6.997360
327.2115, 7.016724
327.6936, 7.629883
328.1757, 8.734543
328.6578, 9.828583
329.1400, 10.96811
329.6221, 12.05011
330.1042, 13.02834
330.5863, 13.74474
331.0684, 14.62451
331.5505, 15.68169
332.0327, 16.89214
332.5148, 18.19521
332.9969, 19.58246
333.4790, 21.06900
333.9611, 22.69604
334.4432, 24.50377
334.9254, 26.25677
335.4075, 27.84569
335.8896, 29.44350
336.3717, 31.34669
336.8538, 33.74127
337.3359, 35.92883
337.8180, 37.57477
338.3001, 38.68842
338.7823, 40.36542
339.2644, 42.74083
339.7465, 45.38559
340.2286, 47.82991
340.7107, 49.95930
341.1928, 52.39156
341.6750, 55.33704
342.1571, 58.64838
342.6392, 61.52072
343.1213, 63.91774
343.6034, 66.18465
344.0855, 68.61832
344.5677, 71.20102
345.0498, 73.73183
345.5319, 76.19679
346.0140, 78.54468
346.4961, 80.80353
346.9782, 82.95436
347.4604, 84.68291
347.9425, 85.73349
348.4246, 86.19827
348.9067, 86.37772
349.3888, 86.29495
349.8709, 85.89392
350.3531, 85.05946
350.8352, 83.83447
351.3173, 82.38643
351.7994, 80.87186
352.2815, 79.13341
352.7636, 76.82550
353.2458, 73.94655
353.7279, 70.83893
354.2100, 67.73427
354.6921, 64.60440
355.1742, 61.41257
355.6563, 58.08017
356.1385, 54.70027
356.6206, 51.26302
357.1027, 47.79335
357.5848, 44.51660
358.0669, 41.54486
358.5490, 38.80222
359.0312, 36.26187
359.5133, 33.97954
359.9954, 31.69418
360.4775, 29.11293
360.9596, 26.40643
361.4417, 23.98012
361.9239, 22.23610
362.4060, 20.60715
362.8881, 18.74347
363.3702, 16.54405
363.8523, 14.46429
364.3344, 12.59410
364.8166, 10.94104
365.2987, 9.500763
365.7808, 8.644821
366.2629, 7.672501
366.7450, 6.241730
367.2271, 4.354996
367.7093, 2.856003
368.1914, 2.208633
368.6735, 1.746094
369.1556, 1.024780
369.6377, 0.5459900
370.1198, 1.630844
370.6020, 1.983246
371.0841, 1.788452
371.5662, 1.725510
372.0483, 2.013763
372.5304, 2.167267
373.0125, 1.905762
373.4947, 0.9078060
373.9768, 0.4747620
374.4589, 0.9189000
374.9410, 1.674530
375.4231, 1.746246
375.9052, 0.8224640
376.3874, 0.1011200
376.8695, 6.0013000E-02
377.3516, 0.6722260
377.8337, 0.7427370
378.3158, 0.1233980
378.7979, 0.6248630
379.2801, 0.8548580
379.7622, 0.5333400
380.2443, 0.4956360
380.7264, 1.002945
381.2085, 1.813263
381.6906, 2.263931
382.1728, 2.347733
382.6549, 2.353897
383.1370, 2.416611
383.6191, 2.548462
384.1012, 2.825348
384.5833, 3.273285
385.0655, 3.797882
385.5476, 4.349976
386.0297, 4.893326
386.5118, 5.276871
386.9939, 5.243362
387.4760, 5.084564
387.9582, 5.295654
388.4403, 5.891312
388.9224, 6.462143
389.4045, 6.639145
389.8866, 6.593872
390.3687, 6.561417
390.8509, 6.584488
391.3330, 6.688995
391.8151, 6.997971
392.2972, 7.439758
392.7793, 7.723343
393.2614, 7.614334
393.7436, 7.351456
394.2257, 7.081985
394.7078, 6.808319
395.1899, 6.591507
395.6720, 6.426559
396.1541, 6.334206
396.6363, 6.348633
397.1184, 6.590019
397.6005, 6.833496
398.0826, 7.065384
398.5647, 7.313072
399.0468, 7.288788
399.5290, 6.599075
400.0111, 5.831520
400.4932, 5.468681
400.9753, 6.130066
401.4574, 6.355659
401.9395, 5.813797
402.4217, 4.696594
402.9038, 3.914932
403.3859, 3.554237
403.8680, 3.405121
404.3501, 3.421684
404.8322, 3.715202
405.3144, 3.768105
405.7965, 3.497459
406.2786, 3.086868
406.7607, 2.835014
407.2428, 2.767166
407.7249, 2.713837
408.2071, 2.594704
408.6892, 2.437172
409.1713, 2.480293
409.6534, 2.763069
410.1355, 3.012886
410.6176, 2.872765
411.0998, 2.430077
411.5819, 2.216637
412.0640, 2.362122
412.5461, 2.735138
413.0282, 3.253777
413.5103, 3.867126
413.9925, 4.288490
414.4746, 4.126358
414.9567, 3.740532
415.4388, 3.756096
415.9209, 4.260948
416.4030, 4.793602
416.8852, 4.906410
417.3673, 4.800606
417.8494, 4.804771
418.3315, 5.194298
418.8136, 5.613091
419.2957, 5.820740
419.7779, 5.844421
420.2600, 5.863358
420.7421, 5.942322
421.2242, 6.060829
421.7063, 6.234863
422.1884, 6.620216
422.6706, 6.774292
423.1527, 6.349770
423.6348, 5.649063
424.1169, 5.238655
424.5990, 5.164253
425.0811, 5.417030
425.5633, 6.184326
426.0454, 7.613876
426.5275, 8.463776
427.0096, 8.325882
427.4917, 7.890793
427.9738, 7.725075
428.4560, 7.921837
428.9381, 8.355850
429.4202, 9.102661
429.9023, 10.02174
430.3844, 10.74245
430.8665, 11.25901
431.3487, 11.71300
431.8308, 12.03986
432.3129, 12.17330
432.7950, 12.62933
433.2771, 13.56580
433.7592, 14.60179
434.2414, 15.02219
434.7235, 14.87090
435.2056, 15.00665
435.6877, 15.85815
436.1698, 17.15518
436.6519, 18.30467
437.1341, 19.29031
437.6162, 20.16393
438.0983, 20.87148
438.5804, 21.54140
439.0625, 22.38814
439.5446, 23.48524
440.0268, 24.57799
440.5089, 25.44896
440.9910, 26.18013
441.4731, 26.93867
441.9552, 27.87158
442.4373, 28.76738
442.9195, 29.43689
443.4016, 29.86945
443.8837, 30.29441
444.3658, 30.91885
444.8479, 31.58015
445.3300, 32.17737
445.8122, 32.63645
446.2943, 33.01872
446.7764, 33.36191
447.2585, 33.62794
447.7406, 33.71840
448.2227, 33.56790
448.7049, 33.28940
449.1870, 32.88922
449.6691, 32.34239
450.1512, 31.70349
450.6333, 30.96473
451.1154, 30.22748
451.5976, 29.60041
452.0797, 29.15114
452.5618, 28.59453
453.0439, 27.89752
453.5260, 27.07847
454.0081, 26.06239
454.4903, 24.80459
454.9724, 23.60428
455.4545, 22.60435
455.9366, 21.80206
456.4187, 21.12640
456.9008, 20.59796
457.3830, 20.08523
457.8651, 19.46860
458.3472, 18.76078
458.8293, 18.02483
459.3114, 17.20671
459.7935, 16.43130
460.2757, 15.86742
460.7578, 15.48716
461.2399, 15.13795
461.7220, 14.64626
462.2041, 14.18948
462.6862, 13.98856
463.1684, 14.13600
463.6505, 14.25243
464.1326, 14.20094
464.6147, 13.99550
465.0968, 13.64706
465.5789, 12.94256
466.0611, 12.32873
466.5432, 11.96735
467.0253, 11.84724
467.5074, 11.73539
467.9895, 11.80720
468.4716, 11.71806
468.9538, 11.25037
469.4359, 10.01912
469.9180, 9.289909
470.4001, 9.299644
470.8822, 9.638115
471.3643, 9.671707
471.8465, 9.280731
472.3286, 8.929962
472.8107, 8.749519
473.2928, 8.710190
473.7749, 8.627266
474.2570, 8.499161
474.7392, 8.335564
475.2213, 8.121948
475.7034, 7.869537
476.1855, 7.658218
476.6676, 7.501984
477.1497, 7.371239
477.6319, 7.251068
478.1140, 7.130783
478.5961, 6.975967
479.0782, 6.737724
479.5603, 6.478859
480.0424, 6.266457
480.5246, 6.097412
481.0067, 5.957924
481.4888, 5.879898
481.9709, 5.803818
482.4530, 5.671486
482.9352, 5.449303
483.4173, 5.224831
483.8994, 5.041908
484.3815, 4.873985
484.8636, 4.684662
485.3457, 4.458527
485.8279, 4.218155
486.3100, 3.981682
486.7921, 3.747292
487.2742, 3.456856
487.7563, 3.074677
488.2384, 2.671509
488.7206, 2.292839
489.2027, 1.962547
489.6848, 1.567787
490.1669, 0.9852750
490.6490, 0.4724200
491.1311, 0.5710830
491.6133, 1.412064
492.0954, 1.937103
492.5775, 1.677490
493.0596, 0.8900600
493.5417, 0.5980220
494.0238, 0.8092270
494.5060, 1.002518
494.9881, 0.6709670
495.4702, 3.0448999E-02
495.9523, 0.3933790
496.4344, 0.5211790
496.9165, 0.4734880
497.3987, 0.1501310
497.8808, 0.2432940
498.3629, 0.3139270
498.8450, 0.5037080
499.3271, 1.356094
499.8092, 1.706039
500.2914, 1.601624
500.7735, 1.300957
501.2556, 0.4658430
501.7377, 0.2141340
502.2198, 0.2526470
502.7019, 0.7522200
503.1841, 1.482353
503.6662, 1.607597
504.1483, 1.442421
504.6304, 1.348244
505.1125, 1.400452
505.5946, 1.409050
506.0768, 1.391068
506.5589, 1.312271
507.0410, 0.9380260
507.5231, 0.1314700
508.0052, 0.5831220
508.4873, 0.8488770
508.9695, 0.6568830
509.4516, 0.7707210
509.9337, 1.268562
510.4158, 1.759842
510.8979, 1.689980
511.3800, 1.188240
511.8622, 0.8472060
512.3443, 0.8638530
512.8264, 1.054321
513.3085, 1.157967
513.7906, 1.218307
514.2728, 1.391098
514.7549, 1.948936
515.2370, 2.538139
515.7191, 2.820732
516.2012, 2.759102
516.6833, 2.678879
517.1655, 2.670280
517.6476, 2.743652
518.1297, 2.910942
518.6118, 3.372742
519.0939, 3.682747
519.5760, 3.605339
520.0582, 3.337875
520.5403, 3.353966
521.0224, 3.852226
521.5045, 4.352707
521.9866, 4.691536
522.4688, 4.870308
522.9509, 5.277077
523.4330, 6.016373
523.9151, 6.742935
524.3972, 7.089371
524.8793, 7.039421
525.3615, 7.379799
525.8436, 8.265839
526.3257, 9.326172
526.8078, 9.998474
527.2899, 10.34531
527.7720, 10.64500
528.2542, 10.92620
528.7363, 11.27646
529.2184, 11.83226
529.7005, 12.57230
530.1826, 13.40749
530.6647, 14.34460
531.1469, 15.31418
531.6290, 16.28431
532.1111, 17.25688
532.5932, 18.17470
533.0753, 18.88399
533.5574, 19.58803
534.0396, 20.48580
534.5217, 21.81306
535.0038, 23.11237
535.4859, 24.37603
535.9680, 25.57695
536.4501, 26.61465
536.9323, 27.30851
537.4144, 28.14713
537.8965, 29.35514
538.3786, 30.93842
538.8607, 32.37176
539.3428, 33.62337
539.8250, 34.78218
540.3071, 35.87426
540.7892, 36.89801
541.2713, 38.02286
541.7534, 39.29802
542.2355, 40.58923
542.7177, 41.73295
543.1998, 42.74599
543.6819, 43.64989
544.1640, 44.35988
544.6461, 45.02068
545.1282, 45.80511
545.6104, 46.68340
546.0925, 47.49010
546.5746, 48.15546
547.0567, 48.70917
547.5388, 49.16438
548.0209, 49.49893
548.5031, 49.79491
548.9852, 49.95207
549.4673, 50.16460
549.9494, 50.63823
550.4315, 51.74721
550.9136, 52.49359
551.3958, 52.69427
551.8779, 52.50210
552.3600, 52.30896
552.8421, 52.07498
553.3242, 51.92873
553.8063, 52.01411
554.2885, 52.28304
554.7706, 52.12697
555.2527, 51.52193
555.7348, 50.94641
556.2169, 50.87677
556.6990, 51.09591
557.1812, 51.12544
557.6633, 50.90173
558.1454, 50.71115
558.6275, 50.96941
559.1096, 51.43309
559.5917, 51.60879
560.0739, 50.57612
560.5560, 49.77734
561.0381, 50.39872
561.5202, 52.07504
562.0023, 53.07211
562.4844, 52.13310
562.9666, 51.06345
563.4487, 50.73135
563.9308, 51.36411
564.4129, 51.75724
564.8950, 51.85105
565.3771, 51.85351
565.8593, 51.79144
566.3414, 51.48506
566.8235, 51.77054
567.3056, 52.93636
567.7877, 54.42670
568.2698, 55.15787
568.7520, 55.17719
569.2341, 55.20176
569.7162, 55.58611
570.1983, 56.08098
570.6804, 56.25373
571.1625, 56.12970
571.6447, 55.85266
572.1268, 55.33292
572.6089, 54.81211
573.0910, 54.62059
573.5731, 54.86806
574.0552, 54.96313
574.5374, 54.47631
575.0195, 53.79126
575.5016, 53.26510
575.9837, 53.17260
576.4658, 52.98717
576.9479, 52.73293
577.4301, 52.32918
577.9122, 51.57045
578.3943, 50.17700
578.8764, 48.98196
579.3585, 48.28046
579.8406, 47.98022
580.3228, 47.47299
580.8049, 46.75983
581.2870, 45.84435
581.7691, 44.56551
582.2512, 43.05492
582.7333, 41.87350
583.2155, 41.07516
583.6975, 40.38350
584.1796, 39.45713
584.6617, 38.46582
585.1439, 37.71233
585.6260, 37.43402
586.1081, 37.13423
586.5902, 36.45485
587.0723, 35.54269
587.5544, 34.69367
588.0366, 33.81180
588.5187, 33.16803
589.0008, 33.00444
589.4829, 33.27959
589.9650, 33.21149
590.4471, 32.52568
590.9293, 31.84474
591.4114, 31.50328
591.8935, 31.57141
592.3756, 31.47324
592.8577, 31.21945
593.3398, 30.76579
593.8220, 29.86554
594.3041, 28.62003
594.7862, 27.90573
595.2683, 28.03387
595.7504, 28.33986
596.2325, 27.91970
596.7147, 26.98039
597.1968, 26.06685
597.6789, 25.36559
598.1610, 24.81770
598.6431, 24.45003
599.1252, 24.22384
599.6074, 23.95517
600.0895, 23.71852
600.5716, 23.30392
601.0537, 22.52197
601.5358, 21.23408
602.0179, 20.23606
602.5001, 19.76993
602.9822, 19.36069
603.4643, 18.63496
603.9464, 17.48299
604.4285, 16.42056
604.9106, 15.46741
605.3928, 14.61778
605.8749, 13.92540
606.3570, 13.36501
606.8391, 12.63152
607.3212, 11.55440
607.8033, 10.35620
608.2855, 9.278961
608.7676, 8.348709
609.2497, 7.627121
609.7318, 7.386154
610.2139, 7.200012
610.6960, 6.733437
611.1782, 5.975624
611.6603, 5.150688
612.1424, 4.180771
612.6245, 3.274879
613.1066, 2.587318
613.5887, 2.278831
614.0709, 1.815285
614.5530, 1.014206
615.0351, 0.2223210
615.5172, 0.1563720
615.9993, 5.9810001E-03
616.4814, 2.6726000E-02
616.9636, 0.1535490
617.4457, 0.4894560
617.9278, 0.9413220
618.4099, 1.490479
618.8920, 1.946785
619.3741, 2.272812
619.8563, 2.439140
620.3384, 2.259468
620.8205, 1.820152
621.3026, 1.550171
621.7847, 1.820770
622.2668, 2.267075
622.7490, 2.668686
623.2311, 3.014709
623.7132, 3.199921
624.1953, 3.088783
624.6774, 2.876343
625.1595, 2.691765
625.6417, 2.508865
626.1238, 2.423355
626.6059, 2.534180
627.0880, 2.632629
627.5701, 2.387497
628.0522, 1.752548
628.5344, 1.225777
629.0165, 0.9538500
629.4986, 0.7817380
629.9807, 0.3764500
630.4628, 0.2203520
630.9449, 0.7702480
631.4271, 1.097954
631.9092, 1.359985
632.3913, 1.755356
632.8734, 2.257683
633.3555, 2.686668
633.8376, 2.834404
634.3198, 2.976387
634.8019, 3.292336
635.2840, 3.832947
635.7661, 4.377945
636.2482, 4.879753
636.7303, 5.404541
637.2125, 6.010124
637.6946, 6.752197
638.1767, 7.431076
638.6588, 8.046272
639.1409, 8.586266
639.6230, 8.932259
640.1052, 9.111755
640.5873, 9.540283
641.0694, 10.40095
641.5515, 11.41775
642.0336, 12.06039
642.5157, 12.48351
642.9979, 13.15648
643.4800, 14.71712
643.9621, 16.26188
644.4442, 16.98641
644.9263, 17.03976
645.4084, 17.32712
645.8906, 18.33259
646.3727, 19.46301
646.8548, 20.40106
647.3369, 21.07456
647.8190, 22.04571
648.3011, 23.41364
648.7833, 24.91882
649.2654, 26.38979
649.7475, 27.85434
650.2296, 29.12340
650.7117, 30.14015
651.1938, 31.15742
651.6760, 32.49753
652.1581, 34.08945
652.6402, 35.67760
653.1223, 37.20739
653.6044, 38.68916
654.0865, 40.07086
654.5687, 41.44783
655.0508, 43.00699
655.5329, 45.13409
656.0150, 47.15419
656.4971, 48.71938
656.9792, 49.92857
657.4614, 51.32784
657.9435, 53.03983
658.4256, 54.79102
658.9077, 56.43044
659.3898, 57.97678
659.8719, 59.97875
660.3541, 62.52594
660.8362, 65.09627
661.3183, 67.37766
661.8004, 69.38528
662.2825, 71.23965
662.7646, 72.93380
663.2468, 74.71078
663.7289, 76.77145
664.2110, 79.05047
664.6931, 81.49798
665.1752, 84.20267
665.6573, 86.83105
666.1395, 89.19939
666.6216, 91.45155
667.1037, 93.76378
667.5858, 96.41782
668.0679, 98.79716
668.5500, 100.6968
669.0322, 102.3539
669.5143, 104.2571
669.9964, 106.4772
670.4785, 108.6327
670.9606, 110.5714
671.4427, 112.3979
671.9249, 114.4302
672.4070, 116.6362
672.8891, 118.6846
673.3712, 120.3332
673.8533, 121.7638
674.3354, 123.1296
674.8176, 124.4217
675.2997, 125.5297
675.7818, 126.3611
676.2639, 126.9931
676.7460, 127.4273
677.2281, 127.5690
677.7103, 127.9284
678.1924, 128.9612
678.6745, 129.8268
679.1566, 129.7827
679.6387, 128.5340
680.1208, 127.6417
680.6030, 127.2768
681.0851, 127.0250
681.5672, 126.3667
682.0493, 125.3826
682.5314, 124.3248
683.0135, 123.2394
683.4957, 122.1405
683.9778, 121.0789
684.4599, 119.9952
684.9420, 118.8356
685.4241, 117.7739
685.9063, 116.4660
686.3884, 114.5076
686.8705, 112.1326
687.3526, 110.1841
687.8347, 109.0071
688.3168, 107.8105
688.7990, 106.3764
689.2811, 104.7294
689.7632, 103.1865
690.2453, 101.7949
690.7274, 100.2293
691.2095, 98.10630
691.6917, 95.69695
692.1738, 93.81303
692.6559, 92.46792
693.1380, 91.25372
693.6201, 89.96918
694.1022, 88.61906
694.5844, 87.11955
695.0665, 85.41247
695.5486, 83.93943
696.0307, 83.14759
696.5128, 82.45786
696.9949, 81.38424
697.4771, 79.66747
697.9592, 78.10300
698.4413, 76.72086
698.9234, 75.47400
699.4055, 74.38558
699.8876, 73.46537
700.3698, 72.27032
700.8519, 70.65504
701.3340, 68.97449
701.8161, 67.72025
702.2982, 66.80475
702.7803, 66.01926
703.2625, 65.47874
703.7446, 64.80520
704.2267, 63.51691
704.7088, 61.92504
705.1909, 60.72285
705.6730, 60.80225
706.1552, 60.48947
706.6373, 59.09441
707.1194, 56.94292
707.6015, 55.63847
708.0836, 55.49307
708.5657, 55.26081
709.0479, 54.37273
709.5300, 52.98845
710.0121, 51.76115
710.4942, 50.68237
710.9763, 49.69768
711.4584, 48.75587
711.9406, 47.87877
712.4227, 47.15023
712.9048, 46.56243
713.3869, 45.86889
713.8690, 44.88501
714.3511, 43.80769
714.8333, 42.74688
715.3154, 41.72571
715.7975, 40.72524
716.2796, 39.74729
716.7617, 38.78554
717.2438, 37.82712
717.7260, 36.88496
718.2081, 35.88690
718.6902, 34.80931
719.1723, 33.79861
719.6544, 33.24748
720.1365, 32.89982
720.6187, 32.04190
721.1008, 30.34595
721.5829, 28.60345
722.0650, 27.31497
722.5471, 26.35885
723.0292, 25.54334
723.5114, 24.99476
723.9935, 24.39040
724.4756, 23.64513
724.9577, 22.82258
725.4398, 22.00372
725.9219, 21.18797
726.4041, 20.36128
726.8862, 19.44328
727.3683, 18.59184
727.8504, 18.39277
728.3325, 18.73465
728.8146, 18.85128
729.2968, 18.19855
729.7789, 17.31706
730.2610, 16.89311
730.7431, 16.77367
731.2252, 16.45125
731.7073, 15.42496
732.1895, 14.42252
732.6716, 13.83284
733.1537, 13.62646
733.6358, 13.19322
734.1179, 12.32622
734.6000, 11.66048
735.0822, 11.44725
735.5643, 11.55077
736.0464, 11.43382
736.5285, 11.10339
737.0106, 10.70783
737.4927, 10.27866
737.9749, 9.856117
738.4570, 9.588593
738.9391, 9.481171
739.4212, 9.339500
739.9033, 9.053925
740.3854, 8.703827
740.8676, 8.316307
741.3497, 7.873817
741.8318, 7.508362
742.3139, 7.128670
742.7960, 6.810944
743.2781, 6.705833
743.7603, 6.868759
744.2424, 6.847313
744.7245, 6.626846
745.2066, 6.335838
745.6887, 6.035599
746.1708, 5.784920
746.6530, 5.694969
747.1351, 5.715088
747.6172, 5.714447
748.0993, 5.775711
748.5814, 5.868721
749.0635, 5.811188
749.5457, 5.298782
750.0278, 4.922089
750.5099, 4.763634
750.9920, 4.780464
751.4741, 5.014473
751.9562, 5.598137
752.4384, 5.834633
752.9205, 5.519798
753.4026, 5.064941
753.8847, 5.181450
754.3668, 5.716667
754.8489, 6.143547
755.3311, 6.325394
755.8132, 6.357384
756.2953, 6.294495
756.7774, 6.118065
757.2595, 5.825577
757.7416, 5.012138
758.2238, 4.559700
758.7059, 5.034508
759.1880, 5.939056
759.6701, 6.134270
760.1522, 5.334053
760.6343, 4.668594
761.1165, 4.450844
761.5986, 4.550507
762.0807, 4.630424
762.5628, 4.702995
763.0449, 4.886833
763.5270, 5.483871
764.0092, 6.017776
764.4913, 5.974266
764.9734, 5.471283
765.4555, 4.908638
765.9376, 4.128685
766.4197, 3.646843
766.9019, 3.783630
767.3840, 4.376503
767.8661, 4.761742
768.3482, 4.916763
768.8303, 4.968010
769.3124, 4.924721
769.7946, 4.821373
770.2767, 4.694824
770.7588, 4.548729
771.2409, 4.416656
771.7230, 4.280052
772.2051, 4.190620
772.6873, 4.199547
773.1694, 4.306152
773.6515, 4.482193
774.1336, 5.022682
774.6157, 5.328293
775.0978, 4.974617
775.5800, 4.003365
776.0621, 3.613197
776.5442, 4.017731
777.0263, 4.394943
777.5084, 4.182938
777.9905, 3.556190
778.4727, 3.423210
778.9548, 3.754784
779.4369, 4.041794
779.9190, 3.814247
780.4011, 3.433723
780.8832, 3.290413
781.3654, 3.407715
781.8475, 3.416138
782.3296, 3.089043
782.8117, 2.720032
783.2938, 2.447807
783.7759, 2.279160
784.2581, 2.140572
784.7402, 2.041542
785.2223, 1.952057
785.7044, 1.838524
786.1865, 1.717522
786.6686, 1.688553
787.1508, 1.751808
787.6329, 1.718475
788.1150, 1.344444
788.5971, 0.8667830
789.0792, 0.5068970
789.5613, 0.2855150
790.0435, 0.1515200
790.5256, 0.2975310
791.0077, 0.3331680
791.4898, 8.3549000E-02
791.9719, 1.125626
792.4540, 1.207245
792.9362, 8.8753000E-02
793.4183, 1.004257
793.9004, 0.8344880
794.3825, 0.1576610
794.8646, 0.7322310
795.3467, 0.8031160
795.8289, 0.7246170
796.3110, 0.6409450
796.7931, 0.5940550
797.2752, 0.6373140
797.7573, 0.8092730
798.2394, 0.9348450
798.7216, 1.249382
799.2037, 1.242226
799.6858, 0.3482740
800.1679, 1.696709
800.6500, 2.467041
801.1321, 1.842522
801.6143, 0.7783890
802.0964, 3.6727998E-02
802.5785, 0.4943160
803.0606, 1.152969
803.5427, 2.007179
804.0248, 2.414490
804.5070, 1.371979
804.9891, 0.1710660
805.4712, 0.1068880
805.9533, 1.108589
806.4354, 1.786652
806.9175, 1.728302
807.3997, 1.409218
807.8818, 1.109329
808.3639, 0.8336110
808.8460, 0.7289510
809.3281, 0.8080600
809.8102, 0.9628140
810.2924, 1.193832
810.7745, 1.395859
811.2566, 1.375626
811.7387, 1.078735
812.2208, 0.8579480
812.7029, 0.9652790
813.1851, 1.117867
813.6672, 1.111511
814.1493, 0.9014430
814.6314, 0.7001340
815.1135, 0.4806440
815.5956, 0.3409500
816.0778, 0.4576570
816.5599, 0.7425310
817.0420, 0.7288670
817.5241, 0.3862990
818.0062, 3.3661000E-02
818.4883, 4.9118001E-02
818.9705, 1.6731000E-02
819.4526, 3.2875001E-02
819.9347, 0.1527100
820.4168, 0.1986620
820.8989, 3.9138999E-02
821.3810, 0.1176070
821.8632, 0.1556320
822.3453, 5.8777001E-02
822.8274, 6.8839997E-02
823.3095, 0.2101900
823.7916, 0.2728650
824.2737, 8.6209998E-03
824.7559, 0.4555660
825.2380, 0.6420060
825.7201, 0.5576550
826.2022, 0.6170350
826.6843, 1.382813
827.1664, 2.133461
827.6486, 2.316315
828.1307, 1.779465
828.6128, 1.413216
829.0949, 1.213715
829.5770, 1.193474
830.0591, 1.395966
830.5413, 1.802055
831.0234, 2.225342
831.5055, 2.664772
831.9876, 3.093033
832.4697, 3.436722
832.9518, 3.796669
833.4340, 4.398224
833.9161, 5.214500
834.3982, 5.758270
834.8803, 5.374855
835.3624, 5.163185
835.8445, 5.562027
836.3267, 6.555290
836.8088, 7.978600
837.2909, 9.929054
837.7730, 11.84246
838.2551, 13.72841
838.7372, 15.25392
839.2194, 15.10429
839.7015, 13.59224
840.1836, 12.52756
840.6657, 13.29285
841.1478, 14.52584
841.6299, 15.41792
842.1121, 15.99091
842.5942, 16.74960
843.0763, 17.85760
843.5584, 18.90894
844.0405, 19.71018
844.5226, 20.37767
845.0048, 21.49569
845.4869, 23.02197
845.9690, 24.32090
846.4511, 24.86700
846.9332, 25.18365
847.4153, 25.81619
847.8975, 26.68131
848.3796, 27.54536
848.8617, 28.40327
849.3438, 29.15743
849.8259, 29.72968
850.3080, 30.18242
850.7902, 30.55889
851.2723, 30.77137
851.7544, 31.03190
852.2365, 31.43693
852.7186, 31.79934
853.2007, 31.90143
853.6829, 31.75040
854.1650, 31.33691
854.6471, 30.39912
855.1292, 29.51611
855.6113, 29.06543
856.0934, 28.82623
856.5756, 28.36934
857.0577, 27.64727
857.5398, 26.86986
858.0219, 26.00880
858.5040, 25.09560
858.9861, 24.29926
859.4683, 23.58006
859.9504, 22.75092
860.4325, 21.73907
860.9146, 20.70108
861.3967, 19.87051
861.8788, 19.08940
862.3610, 18.20581
862.8431, 17.07166
863.3252, 15.97430
863.8073, 14.84016
864.2894, 13.71257
864.7715, 12.63402
865.2537, 11.61555
865.7358, 10.86002
866.2179, 10.41698
866.7000, 9.962860
867.1821, 9.113571
867.6642, 8.057617
868.1464, 7.062386
868.6285, 6.160355
869.1106, 5.356438
869.5927, 4.631073
870.0748, 4.041245
870.5569, 3.647240
871.0391, 3.505951
871.5212, 3.108643
872.0033, 2.408249
872.4854, 1.687584
872.9675, 1.139053
873.4496, 0.7289960
873.9318, 0.4570850
874.4139, 0.2895890
874.8960, 1.4229000E-02
875.3781, 0.8341220
875.8602, 1.510727
876.3423, 1.385590
876.8245, 0.4545060
877.3066, 6.5033004E-02
877.7887, 0.4359360
878.2708, 0.8302540
878.7529, 0.9857640
879.2350, 0.9371110
879.7172, 0.6956330
880.1993, 0.2988590
880.6814, 3.4247998E-02
881.1635, 0.2462690
881.6456, 0.4845200
882.1277, 0.3711550
882.6099, 1.4473000E-02
883.0920, 0.3889310
883.5741, 0.5505680
884.0562, 0.8830870
884.5383, 1.474815
885.0204, 2.270592
885.5026, 3.343849
885.9847, 4.649544
886.4668, 5.490799
886.9489, 5.479973
887.4310, 5.367180
887.9131, 6.009888
888.3953, 7.083618
888.8774, 8.113983
889.3595, 9.053818
889.8416, 9.800217
890.3237, 10.09137
890.8058, 10.40253
891.2880, 11.32727
891.7701, 12.92802
892.2522, 14.25127
892.7343, 15.18246
893.2164, 16.09275
893.6985, 17.48689
894.1807, 19.05448
894.6628, 20.31393
895.1449, 21.12439
895.6270, 22.06688
896.1091, 23.41977
896.5912, 24.92474
897.0734, 26.45255
897.5555, 27.99253
898.0376, 29.54848
898.5197, 31.11295
899.0018, 32.67549
899.4839, 34.12973
899.9661, 35.60167
900.4482, 37.49626
900.9303, 39.72356
901.4124, 41.57628
901.8945, 42.37041
902.3766, 43.06454
902.8588, 44.04626
903.3409, 45.30756
903.8230, 46.95514
904.3051, 49.19774
904.7872, 51.03383
905.2693, 52.07477
905.7515, 52.61201
906.2336, 53.12474
906.7157, 53.63559
907.1978, 54.21677
907.6799, 55.02106
908.1620, 55.74416
908.6442, 56.17351
909.1263, 56.46490
909.6084, 56.90372
910.0905, 57.62601
910.5726, 58.12693
911.0547, 58.30962
911.5369, 58.41235
912.0190, 58.73342
912.5011, 59.23297
912.9832, 59.71766
913.4653, 60.09305
913.9474, 60.87663
914.4296, 62.81194
914.9117, 65.01880
915.3938, 66.71372
915.8759, 67.69884
916.3580, 68.79775
916.8401, 70.01174
917.3223, 71.32794
917.8044, 72.67906
918.2865, 74.11925
918.7686, 75.99973
919.2507, 78.27567
919.7328, 80.51338
920.2150, 82.38642
920.6971, 84.18839
921.1792, 86.04628
921.6613, 88.00848
922.1434, 90.21220
922.6255, 92.67159
923.1077, 95.38279
923.5898, 98.42874
924.0719, 101.6380
924.5540, 104.6934
925.0361, 107.6287
925.5182, 110.5258
926.0004, 113.5251
926.4825, 116.3568
926.9646, 118.7338
927.4467, 120.9093
927.9288, 123.2409
928.4109, 125.8950
928.8931, 128.4793
929.3752, 131.0260
929.8573, 133.3525
930.3394, 135.1311
930.8215, 136.5186
931.3036, 138.1833
931.7858, 140.2323
932.2679, 142.2315
932.7500, 144.5017
933.2321, 146.1527
933.7142, 146.3053
934.1964, 144.6666
934.6785, 143.6409
935.1606, 143.5433
935.6427, 143.2514
936.1248, 142.1226
936.6069, 140.3672
937.0891, 138.8472
937.5712, 137.4415
938.0533, 135.6226
938.5354, 132.7977
939.0175, 129.7595
939.4996, 126.9964
939.9818, 124.3745
940.4639, 121.5584
940.9460, 118.5912
941.4281, 115.3486
941.9102, 111.7671
942.3923, 108.0239
942.8745, 104.4279
943.3566, 100.8938
943.8387, 97.17799
944.3208, 93.10983
944.8029, 89.42021
945.2850, 87.00913
945.7672, 84.83896
946.2493, 81.82977
946.7314, 77.64895
947.2135, 73.96302
947.6956, 70.88457
948.1777, 67.94240
948.6599, 64.75240
949.1420, 61.49576
949.6241, 58.66222
950.1062, 56.23453
950.5883, 53.96931
951.0704, 51.79799
951.5526, 49.68463
952.0347, 47.65068
952.5168, 45.68283
952.9989, 43.70396
953.4810, 41.63655
953.9631, 39.85558
954.4453, 38.56371
954.9274, 37.47052
955.4095, 36.16457
955.8916, 34.66909
956.3737, 32.95903
956.8558, 30.65575
957.3380, 28.85486
957.8201, 28.36712
958.3022, 28.25751
958.7843, 27.60399
959.2664, 26.23033
959.7485, 25.25603
960.2307, 24.75498
960.7128, 24.39946
961.1949, 23.90993
961.6770, 23.40613
962.1591, 23.06825
962.6412, 22.87695
963.1234, 22.60884
963.6055, 22.07033
964.0876, 21.54699
964.5697, 21.17893
965.0518, 20.93365
965.5339, 20.61898
966.0161, 20.22980
966.4982, 19.58897
966.9803, 18.39513
967.4624, 17.26666
967.9445, 17.12361
968.4266, 17.50757
968.9088, 17.65714
969.3909, 17.21611
969.8730, 16.72115
970.3551, 16.18938
970.8372, 15.64423
971.3193, 15.06645
971.8015, 14.48878
972.2836, 14.02023
972.7657, 13.66315
973.2478, 13.43551
973.7299, 13.49162
974.2120, 13.56583
974.6942, 13.50122
975.1763, 13.28458
975.6584, 12.75343
976.1405, 11.65983
976.6226, 10.78597
977.1047, 10.50037
977.5869, 10.55510
978.0690, 10.26306
978.5511, 9.716354
979.0332, 9.255081
979.5153, 9.061172
979.9974, 8.908989
980.4796, 8.662987
980.9617, 8.391975
981.4438, 8.192322
981.9259, 8.074959
982.4080, 8.007866
982.8901, 8.010361
983.3723, 7.984314
983.8544, 7.815002
984.3365, 7.554512
984.8186, 7.264709
985.3007, 6.955299
985.7828, 6.745987
986.2650, 6.856468
986.7471, 6.893539
987.2292, 6.622505
987.7113, 6.130737
988.1934, 5.941139
988.6755, 6.070663
989.1577, 6.038208
989.6398, 5.525757
990.1219, 4.991707
990.6040, 5.073860
991.0861, 5.500076
991.5682, 5.815903
992.0504, 6.031822
992.5325, 5.862953
993.0146, 5.001724
993.4967, 4.153091
993.9788, 4.051682
994.4609, 4.604080
994.9431, 5.036285
995.4252, 5.307861
995.9073, 5.400055
996.3894, 5.106575
996.8715, 4.792999
997.3536, 4.791740
997.8358, 5.081367
998.3179, 5.178062
998.8000, 5.052513
999.2821, 4.761505
999.7642, 4.233322
1000.246, 3.670059
1000.728, 3.612823
1001.211, 3.856102
1001.693, 3.859489
1002.175, 3.316666
1002.657, 2.819527
1003.139, 2.695694
1003.621, 2.688316
1004.103, 2.575211
1004.585, 2.345566
1005.068, 2.029556
1005.550, 1.603409
1006.032, 1.277596
1006.514, 1.337807
1006.996, 1.500145
1007.478, 1.393089
1007.960, 1.042450
1008.442, 0.6873930
1008.924, 0.3905720
1009.407, 8.5335001E-02
1009.889, 0.3205870
1010.371, 0.6949230
1010.853, 0.6973720
1011.335, 0.3903960
1011.817, 0.1919860
1012.299, 0.2150960
1012.781, 0.2755200
1013.263, 0.2217860
1013.746, 0.1444470
1014.228, 0.1289440
1014.710, 0.1812290
1015.192, 0.2866210
1015.674, 0.4793470
1016.156, 0.5961300
1016.638, 0.4976430
1017.120, 0.2893140
1017.603, 0.1431500
1018.085, 7.6622002E-02
1018.567, 0.1547470
1019.049, 0.6302260
1019.531, 0.9847410
1020.013, 1.055405
1020.495, 0.9376600
1020.977, 0.6863330
1021.459, 0.2955090
1021.942, 0.1901170
1022.424, 0.4458920
1022.906, 0.7955860
1023.388, 1.096504
1023.870, 1.270447
1024.352, 1.265457
1024.834, 1.043091
1025.316, 0.8949050
1025.799, 0.8702930
1026.281, 0.8421100
1026.763, 0.7543330
1027.245, 0.6269450
1027.727, 0.4908600
1028.209, 0.3662110
1028.691, 0.3357010
1029.173, 0.5324330
1029.656, 0.6633070
1030.138, 0.6075820
1030.620, 0.4048000
1031.102, 8.7890998E-02
1031.584, 0.3717190
1032.066, 0.8391340
1032.548, 1.331734
1033.030, 1.674438
1033.512, 1.492363
1033.995, 1.219551
1034.477, 1.488640
1034.959, 2.220589
1035.441, 2.683037
1035.923, 2.336510
1036.405, 2.294746
1036.887, 2.866623
1037.369, 3.744865
1037.851, 4.439186
1038.334, 4.942757
1038.816, 5.179916
1039.298, 5.036758
1039.780, 5.076225
1040.262, 5.809761
1040.744, 6.740913
1041.226, 7.490112
1041.708, 8.052910
1042.191, 8.528549
1042.673, 8.914322
1043.155, 9.285912
1043.637, 9.657204
1044.119, 10.06577
1044.601, 10.60719
1045.083, 11.22341
1045.565, 11.77009
1046.047, 12.33250
1046.530, 12.61160
1047.012, 12.47462
1047.494, 12.21801
1047.976, 12.18129
1048.458, 12.31478
1048.940, 12.37654
1049.422, 12.35034
1049.904, 12.36805
1050.386, 12.65118
1050.869, 12.87425
1051.351, 12.86045
1051.833, 12.61679
1052.315, 12.07194
1052.797, 11.14809
1053.279, 10.53632
1053.761, 10.49988
1054.243, 10.60426
1054.726, 10.27530
1055.208, 9.744255
1055.690, 9.356857
1056.172, 9.278137
1056.654, 9.005875
1057.136, 8.370781
1057.618, 7.781952
1058.100, 7.578392
1058.583, 7.601959
1059.065, 7.170967
1059.547, 6.372375
1060.029, 5.602562
1060.511, 4.975952
1060.993, 4.547836
1061.475, 4.430717
1061.957, 4.492538
1062.439, 4.618881
1062.922, 4.852432
1063.404, 4.697273
1063.886, 4.076286
1064.368, 3.446671
1064.850, 3.316727
1065.332, 3.305450
1065.814, 2.921501
1066.296, 2.192932
1066.778, 1.875168
1067.261, 2.227905
1067.743, 2.508156
1068.225, 2.521362
1068.707, 2.383553
1069.189, 2.252563
1069.671, 2.129921
1070.153, 2.035416
1070.635, 1.993736
1071.118, 1.910843
1071.600, 1.746284
1072.082, 1.535851
1072.564, 1.260025
1073.046, 0.9293290
1073.528, 0.7364500
1074.010, 0.6897200
1074.492, 0.8039320
1074.974, 1.238663
1075.457, 1.664795
1075.939, 1.829781
1076.421, 1.812950
1076.903, 1.744659
1077.385, 1.662697
1077.867, 1.453598
1078.349, 1.071396
1078.831, 0.7894820
1079.313, 1.094643
1079.796, 1.521515
1080.278, 1.187241
1080.760, 0.1938020
1081.242, 0.4343260
1081.724, 7.5759999E-03
1082.206, 0.3631740
1082.688, 0.4517140
1083.170, 0.4024960
1083.652, 0.4996190
1084.135, 0.6901700
1084.617, 0.7552410
1085.099, 0.6397090
1085.581, 0.5304410
1086.063, 0.5750730
1086.545, 0.6189730
1087.027, 0.5144200
1087.509, 0.2950970
1087.992, 0.3143230
1088.474, 0.5820310
1088.956, 0.8514940
1089.438, 1.080208
1089.920, 1.169395
1090.402, 0.7787550
1090.884, 0.2878950
1091.366, 0.2738490
1091.849, 1.134277
1092.331, 1.568710
1092.813, 1.503288
1093.295, 1.260460
1093.777, 0.9175950
1094.259, 0.6362990
1094.741, 0.8632890
1095.223, 1.439659
1095.705, 1.782295
1096.188, 1.427956
1096.670, 1.117981
1097.152, 0.9356540
1097.634, 0.8977890
1098.116, 1.093102
1098.598, 1.460503
1099.080, 1.735802
1099.562, 1.895958
1100.044, 1.916229
1100.527, 1.653183
1101.009, 1.371635
1101.491, 1.177528
1101.973, 1.087364
1102.455, 1.188499
1102.937, 1.485466
1103.419, 1.823105
1103.901, 2.194839
1104.384, 2.439308
1104.866, 2.281128
1105.348, 1.999527
1105.830, 1.855019
1106.312, 1.885178
1106.794, 1.922066
1107.276, 1.986351
1107.758, 1.974014
1108.240, 1.780708
1108.723, 1.548187
1109.205, 1.505867
1109.687, 1.589577
1110.169, 1.672249
1110.651, 1.712967
1111.133, 1.763153
1111.615, 1.818321
1112.097, 1.895515
1112.579, 2.007622
1113.062, 2.149048
1113.544, 2.331787
1114.026, 2.533943
1114.508, 2.643105
1114.990, 2.536308
1115.472, 2.408653
1115.954, 2.296692
1116.436, 2.218819
1116.919, 2.206970
1117.401, 2.258530
1117.883, 2.352165
1118.365, 2.486969
1118.847, 2.571411
1119.329, 2.507935
1119.811, 2.403587
1120.293, 2.279549
1120.776, 2.175148
1121.258, 2.249992
1121.740, 2.532501
1122.222, 2.703735
1122.704, 2.690033
1123.186, 2.582253
1123.668, 2.370010
1124.150, 2.174492
1124.632, 2.169502
1125.115, 2.413261
1125.597, 2.458534
1126.079, 2.228615
1126.561, 2.028595
1127.043, 1.973587
1127.525, 2.012405
1128.007, 2.197289
1128.489, 2.375549
1128.971, 2.216545
1129.454, 1.336807
1129.936, 1.004608
1130.418, 1.607994
1130.900, 2.212608
1131.382, 2.203827
1131.864, 1.800896
1132.346, 1.602615
1132.828, 1.592445
1133.311, 1.682823
1133.793, 2.011703
1134.275, 2.171059
1134.757, 1.959572
1135.239, 1.668716
1135.721, 1.550026
1136.203, 1.585487
1136.685, 1.738647
1137.167, 2.006920
1137.650, 2.199371
1138.132, 2.137672
1138.614, 1.977966
1139.096, 1.775299
1139.578, 1.608971
1140.060, 1.485237
1140.542, 1.387169
1141.024, 1.373764
1141.506, 1.463280
1141.989, 1.555038
1142.471, 1.602264
1142.953, 1.581100
1143.435, 1.452927
1143.917, 1.244049
1144.399, 1.025177
1144.881, 0.7679600
1145.363, 0.7065050
1145.846, 0.9477460
1146.328, 1.204498
1146.810, 1.055794
1147.292, 0.8039930
1147.774, 0.8111340
1148.256, 1.143623
1148.738, 1.327347
1149.220, 1.328682
1149.703, 1.346985
1150.185, 1.469215
1150.667, 1.552887
1151.149, 1.370033
1151.631, 1.012161
1152.113, 0.5627750
1152.595, 0.1065440
1153.077, 0.2045440
1153.559, 0.5336300
1154.042, 1.276283
1154.524, 1.601921
1155.006, 1.633522
1155.488, 1.605614
1155.970, 1.512688
1156.452, 1.330818
1156.934, 0.9403690
1157.416, 0.6679990
1157.898, 0.6022720
1158.381, 0.5677340
1158.863, 0.4209590
1159.345, 0.1965940
1159.827, 7.8809997E-03
1160.309, 0.1665340
1160.791, 0.1765750
1161.273, 0.2885210
1161.755, 0.5181200
1162.238, 0.1570740
1162.720, 0.3073810
1163.202, 0.2933650
1163.684, 0.1008760
1164.166, 0.2368550
1164.648, 0.1178510
1165.130, 4.1931000E-02
1165.612, 0.1058960
1166.094, 0.3448870
1166.577, 1.015572
1167.059, 1.703621
1167.541, 1.647453
1168.023, 0.9165340
1168.505, 0.3498150
1168.987, 3.1447999E-02
1169.469, 7.3135003E-02
1169.951, 0.2359620
1170.433, 0.5319520
1170.916, 0.5176540
1171.398, 0.3056110
1171.880, 0.1361240
1172.362, 8.4459996E-03
1172.844, 7.7510001E-03
1173.326, 0.1618800
1173.808, 0.3464810
1174.290, 0.4744110
1174.773, 0.5738680
1175.255, 0.6798550
1175.737, 0.7816620
1176.219, 0.7996980
1176.701, 0.7315220
1177.183, 0.6152730
1177.665, 0.4393310
1178.147, 0.2996900
1178.630, 0.3700710
1179.112, 0.4623110
1179.594, 0.3201750
1180.076, 6.2881000E-02
1180.558, 5.9386998E-02
1181.040, 0.3706970
1181.522, 0.7069320
1182.004, 0.7283710
1182.486, 0.6318970
1182.969, 0.6292950
1183.451, 0.6309360
1183.933, 0.4870000
1184.415, 0.1325300
1184.897, 5.0491001E-02
1185.379, 0.2657010
1185.861, 0.4547580
1186.343, 0.3749690
1186.825, 0.2762370
1187.308, 0.5336150
1187.790, 0.9397350
1188.272, 1.167122
1188.754, 1.115036
1189.236, 1.043045
1189.718, 0.9531940
1190.200, 0.8297880
1190.682, 0.6216200
1191.165, 0.4107820
1191.647, 0.3374250
1192.129, 0.3373410
1192.611, 0.2657090
1193.093, 5.9013002E-02
1193.575, 6.1211001E-02
1194.057, 0.3350300
1194.539, 0.7825700
1195.021, 1.070465
1195.504, 1.206810
1195.986, 1.164764
1196.468, 0.9806520
1196.950, 0.7538830
1197.432, 0.4507980
1197.914, 0.2079160
1198.396, 2.8076001E-02
1198.878, 6.3499004E-02
1199.360, 2.8656000E-02
1199.843, 9.9815004E-02
1200.325, 0.3725050
1200.807, 0.7127610
1201.289, 0.7910230
1201.771, 0.3626330
1202.253, 0.1370850
1202.735, 0.2502060
1203.217, 0.3976670
1203.700, 0.1075440
1204.182, 0.2799990
1204.664, 0.1880190
1205.146, 0.3267670
1205.628, 0.6397090
1206.110, 0.5452800
1206.592, 0.4871670
1207.074, 0.5190580
1207.557, 0.6549300
1208.039, 1.030571
1208.521, 1.446671
1209.003, 1.574966
1209.485, 1.403366
1209.967, 1.250412
1210.449, 1.156029
1210.931, 1.081383
1211.413, 1.040596
1211.896, 0.9948810
1212.378, 0.7737430
1212.860, 0.5820310
1213.342, 0.8471760
1213.824, 1.621727
1214.306, 2.008392
1214.788, 1.780312
1215.270, 1.406464
1215.752, 0.9259870
1216.235, 0.5533910
1216.717, 0.7531590
1217.199, 1.174095
1217.681, 1.267021
1218.163, 0.9262160
1218.645, 0.7519380
1219.127, 0.8974150
1219.609, 0.8689880
1220.092, 0.4068300
1220.574, 8.7761000E-02
1221.056, 0.1135790
1221.538, 0.6447530
1222.020, 0.9675370
1222.502, 0.9572750
1222.984, 0.8398440
1223.466, 0.5710830
1223.948, 0.3935090
1224.431, 0.3960040
1224.913, 0.5276640
1225.395, 0.7770690
1225.877, 1.078506
1226.359, 1.384346
1226.841, 1.730171
1227.323, 1.736069
1227.805, 1.324379
1228.287, 0.9109420
1228.770, 0.6579670
1229.252, 0.5063250
1229.734, 0.4099500
1230.216, 0.3476870
1230.698, 0.2816310
1231.180, 0.1872940
1231.662, 0.2290340
1232.144, 0.4251020
1232.627, 0.6651310
1233.109, 0.9721450
1233.591, 1.177650
1234.073, 1.001160
1234.555, 0.6434940
1235.037, 0.3451920
1235.519, 0.1049500
1236.001, 0.1698680
1236.484, 0.5964510
1236.966, 0.8175810
1237.448, 0.3657230
1237.930, 0.1389920
1238.412, 4.0130999E-02
1238.894, 0.3848950
1239.376, 0.8185200
1239.858, 1.290298
1240.340, 1.294716
1240.823, 0.8164750
1241.305, 0.3104780
1241.787, 0.1227650
1242.269, 0.2868960
1242.751, 0.3459090
1243.233, 1.136688
1243.715, 1.179657
1244.197, 0.3331300
1244.679, 0.2247390
1245.162, 0.8398820
1245.644, 1.416420
1246.126, 1.622780
1246.608, 1.563553
1247.090, 1.084900
1247.572, 0.5326230
1248.054, 0.3036960
1248.536, 0.4016570
1249.019, 0.6216580
1249.501, 0.9404600
1249.983, 1.154518
1250.465, 1.102699
1250.947, 0.9715880
1251.429, 0.7505190
1251.911, 0.5916290
1252.393, 0.7107700
1252.875, 1.066528
1253.358, 0.9627380
1253.840, 0.4577710
1254.322, 4.8156999E-02
1254.804, 9.2635997E-02
1255.286, 1.4954000E-02
1255.768, 0.6317830
1256.250, 1.219360
1256.732, 1.252129
1257.214, 0.8369520
1257.697, 0.5747380
1258.179, 0.4636460
1258.661, 0.4793090
1259.143, 0.7520070
1259.625, 0.9534910
1260.107, 1.048340
1260.589, 1.029091
1261.071, 0.7589650
1261.554, 0.3947750
1262.036, 0.5861210
1262.518, 1.147644
1263.000, 1.407631
1263.482, 0.8018110
1263.964, 0.3156590
1264.446, 3.1562999E-02
1264.928, 9.3108997E-02
1265.411, 0.5195240
1265.893, 1.360687
1266.375, 1.500206
1266.857, 1.149544
1267.339, 0.9053570
1267.821, 1.056747
1268.303, 1.054604
1268.785, 0.8241810
1269.267, 0.6722180
1269.750, 1.102486
1270.232, 1.557655
1270.714, 0.9882810
1271.196, 8.3038002E-02
1271.678, 0.3863600
1272.160, 0.5553890
1272.642, 0.8964310
1273.124, 0.5163730
1273.606, 0.2070390
1274.089, 0.6540830
1274.571, 1.226089
1275.053, 1.399704
1275.535, 1.264084
1276.017, 0.9678340
1276.499, 0.4603120
1276.981, 0.2821810
1277.463, 0.4395070
1277.946, 0.5524830
1278.428, 0.2625200
1278.910, 2.6558001E-02
1279.392, 8.6089998E-02
1279.874, 3.3783000E-02
1280.356, 0.2707060
1280.838, 0.6157460
1281.320, 0.7762370
1281.802, 0.7603910
1282.285, 0.6842580
1282.767, 0.4887080
1283.249, 0.4084630
1283.731, 0.6772770
1284.213, 0.8985520
1284.695, 0.6801830
1285.177, 0.1537780
1285.659, 0.1950000
1286.141, 0.6651690
1286.624, 0.9731140
1287.106, 0.6692280
1287.588, 0.3549120
1288.070, 0.4027790
1288.552, 0.5043490
1289.034, 0.5224910
1289.516, 0.4818420
1289.998, 0.3646770
1290.481, 0.2460170
1290.963, 0.3298570
1291.445, 0.8689500
1291.927, 1.148911
1292.409, 1.036560
1292.891, 0.9701460
1293.373, 1.547928
1293.855, 2.136482
1294.338, 1.717667
1294.820, 0.7728420
1295.302, 0.2281190
1295.784, 0.2475280
1296.266, 0.1718670
1296.748, 1.4641000E-02
1297.230, 4.2229000E-02
1297.712, 0.4615330
1298.194, 0.9826580
1298.677, 1.104263
1299.159, 1.016953
1299.641, 0.9372180
1300.123, 0.7853780
1300.605, 0.7053600
1301.087, 0.8250580
1301.569, 0.7972030
1302.051, 0.3896870
1302.533, 7.1983002E-02
1303.016, 0.0000000E+00
##END=



