##NAMES=Muscovite
##RRUFFID=R061120
##IDEAL CHEMISTRY=KAl_2_(Si_3_Al)O_10_(OH)_2_
##LOCALITY=Aracuai City,  Minas Gerais, Brazil
##OWNER=RRUFF
##SOURCE=Michael Scott
##DESCRIPTION=Lavender prismatic micaceous crystals
##STATUS=The identification of this mineral has been confirmed by X-ray diffraction and chemical analysis
##URL=rruff.info/R061120
##MEASURED CHEMISTRY=gray phase: (K_0.93_Na_0.07_)_Σ=1_(Al_1.95_Fe^3+^_0.05_)_Σ=2_(Si_3.00_Al_1.00_)O_10_(OH)_2_; OH estimated by charge balance
183.9849, 0.0000000E+00
184.4670, 2.175781
184.9491, 1.070313
185.4312, 56.28516
185.9134, 70.60156
186.3955, 28.35156
186.8776, 6.234375
187.3597, 18.34375
187.8418, 93.41406
188.3239, 161.0117
188.8061, 188.2891
189.2882, 215.5898
189.7703, 292.0508
190.2524, 423.4297
190.7345, 561.3906
191.2166, 669.7266
191.6988, 752.5781
192.1809, 838.1055
192.6630, 931.9180
193.1451, 1032.953
193.6272, 1138.969
194.1093, 1250.383
194.5915, 1366.480
195.0736, 1495.297
195.5557, 1633.473
196.0378, 1752.305
196.5199, 1850.074
197.0020, 1920.285
197.4842, 1958.848
197.9663, 1966.922
198.4484, 1961.617
198.9305, 1956.945
199.4126, 1949.832
199.8947, 1919.855
200.3769, 1847.582
200.8590, 1772.406
201.3411, 1732.449
201.8232, 1720.512
202.3053, 1696.395
202.7874, 1624.625
203.2696, 1516.277
203.7517, 1425.957
204.2338, 1365.766
204.7159, 1313.805
205.1980, 1242.117
205.6801, 1161.641
206.1623, 1109.539
206.6444, 1124.941
207.1265, 1186.207
207.6086, 1244.270
208.0907, 1314.254
208.5728, 1372.469
209.0549, 1378.902
209.5371, 1344.988
210.0192, 1329.926
210.5013, 1368.074
210.9834, 1443.504
211.4655, 1505.953
211.9476, 1537.250
212.4298, 1593.879
212.9119, 1748.301
213.3940, 1940.973
213.8761, 2067.535
214.3582, 2059.570
214.8403, 1971.578
215.3225, 1920.672
215.8046, 1923.195
216.2867, 1919.234
216.7688, 1890.219
217.2509, 1835.992
217.7330, 1749.066
218.2152, 1615.492
218.6973, 1463.672
219.1794, 1339.480
219.6615, 1249.395
220.1436, 1164.430
220.6257, 1071.672
221.1079, 978.8438
221.5900, 896.1133
222.0721, 830.5938
222.5542, 764.5547
223.0363, 668.8125
223.5184, 536.2891
224.0006, 418.1211
224.4827, 341.3320
224.9648, 281.2539
225.4469, 213.7109
225.9290, 132.1250
226.4111, 60.89844
226.8933, 37.64062
227.3754, 65.30078
227.8575, 70.53125
228.3396, 8.417969
228.8217, 62.67969
229.3038, 94.72656
229.7860, 82.92188
230.2681, 56.25391
230.7502, 29.16797
231.2323, 3.007813
231.7144, 1.355469
232.1965, 36.94922
232.6787, 80.19141
233.1608, 107.9570
233.6429, 118.1367
234.1250, 99.05859
234.6071, 22.62109
235.0892, 96.07422
235.5714, 181.3164
236.0535, 212.9297
236.5356, 229.1562
237.0177, 258.8750
237.4998, 298.2188
237.9819, 333.9883
238.4641, 342.7148
238.9462, 343.9297
239.4283, 393.1719
239.9104, 507.7578
240.3925, 632.9961
240.8746, 735.7539
241.3568, 821.8711
241.8389, 892.9805
242.3210, 946.5820
242.8031, 1001.711
243.2852, 1090.035
243.7673, 1217.234
244.2495, 1350.520
244.7316, 1470.848
245.2137, 1585.926
245.6958, 1708.695
246.1779, 1848.066
246.6600, 1987.754
247.1422, 2094.770
247.6243, 2167.789
248.1064, 2285.156
248.5885, 2498.785
249.0706, 2772.293
249.5527, 3053.406
250.0349, 3346.977
250.5170, 3625.855
250.9991, 3852.008
251.4812, 4037.898
251.9633, 4256.699
252.4454, 4532.492
252.9276, 4856.703
253.4097, 5208.355
253.8918, 5585.637
254.3739, 6000.125
254.8560, 6491.281
255.3382, 7024.418
255.8203, 7499.438
256.3024, 7872.027
256.7845, 8232.379
257.2666, 8702.785
257.7487, 9272.004
258.2308, 9835.285
258.7130, 10388.30
259.1951, 10907.76
259.6772, 11355.12
260.1593, 11722.79
260.6414, 12045.71
261.1235, 12373.43
261.6057, 12693.09
262.0878, 12905.70
262.5699, 12993.86
263.0520, 12971.31
263.5341, 12838.11
264.0162, 12597.89
264.4984, 12276.83
264.9805, 11881.70
265.4626, 11415.36
265.9447, 10928.16
266.4268, 10411.39
266.9089, 9883.672
267.3911, 9359.078
267.8732, 8833.672
268.3553, 8285.723
268.8374, 7691.617
269.3195, 7085.195
269.8016, 6575.535
270.2838, 6212.887
270.7659, 5851.121
271.2480, 5438.820
271.7301, 5008.527
272.2122, 4602.867
272.6943, 4233.195
273.1765, 3901.371
273.6586, 3611.852
274.1407, 3380.629
274.6228, 3156.262
275.1049, 2921.148
275.5870, 2698.797
276.0692, 2518.086
276.5513, 2380.180
277.0334, 2252.992
277.5155, 2097.727
277.9976, 1901.758
278.4797, 1752.328
278.9619, 1661.953
279.4440, 1593.945
279.9261, 1535.688
280.4082, 1485.020
280.8903, 1447.621
281.3724, 1432.957
281.8546, 1440.055
282.3367, 1410.949
282.8188, 1289.875
283.3009, 1193.809
283.7830, 1169.840
284.2651, 1183.902
284.7473, 1179.242
285.2294, 1124.789
285.7115, 1038.734
286.1936, 981.9336
286.6757, 993.9453
287.1578, 983.1211
287.6400, 918.8711
288.1221, 843.6914
288.6042, 797.3906
289.0863, 788.1328
289.5684, 794.4883
290.0505, 783.9922
290.5327, 753.6797
291.0148, 713.1836
291.4969, 644.2031
291.9790, 580.5391
292.4611, 548.9258
292.9432, 543.6953
293.4254, 536.3008
293.9075, 498.2422
294.3896, 428.7773
294.8717, 371.3125
295.3538, 316.0898
295.8359, 286.7148
296.3181, 307.4922
296.8002, 357.1797
297.2823, 396.2070
297.7644, 398.4570
298.2465, 380.3125
298.7286, 390.6797
299.2108, 445.4570
299.6929, 490.6523
300.1750, 497.7461
300.6571, 490.9180
301.1392, 493.8516
301.6213, 513.8867
302.1035, 540.3867
302.5856, 566.8867
303.0677, 594.3633
303.5498, 598.9141
304.0319, 552.3633
304.5140, 500.3945
304.9962, 488.2852
305.4783, 517.2344
305.9604, 545.2070
306.4425, 539.3672
306.9246, 511.6875
307.4067, 502.8281
307.8889, 527.3047
308.3710, 548.6484
308.8531, 517.3594
309.3352, 452.4141
309.8173, 418.2578
310.2994, 471.6836
310.7816, 541.7695
311.2637, 539.1289
311.7458, 462.7305
312.2279, 382.2891
312.7100, 331.3789
313.1921, 311.6367
313.6743, 317.2305
314.1564, 380.7500
314.6385, 427.5508
315.1206, 402.9492
315.6027, 333.8594
316.0848, 287.9727
316.5670, 293.2617
317.0491, 324.8633
317.5312, 337.0156
318.0133, 326.4258
318.4954, 307.2500
318.9775, 270.2891
319.4597, 231.6016
319.9418, 203.7227
320.4239, 189.9609
320.9060, 194.0625
321.3881, 225.0078
321.8702, 290.6250
322.3524, 322.4414
322.8345, 297.5469
323.3166, 266.8906
323.7987, 254.8320
324.2808, 255.6289
324.7629, 249.1289
325.2451, 221.2227
325.7272, 180.0273
326.2093, 163.9219
326.6914, 209.5469
327.1735, 234.8047
327.6556, 218.4062
328.1378, 185.0234
328.6199, 157.1992
329.1020, 142.5820
329.5841, 137.1797
330.0662, 137.8945
330.5483, 151.2656
331.0305, 149.6602
331.5126, 118.4453
331.9947, 83.59766
332.4768, 52.90234
332.9589, 29.17969
333.4410, 16.15234
333.9232, 23.95312
334.4053, 46.98828
334.8874, 42.37891
335.3695, 16.82812
335.8516, 56.92188
336.3337, 27.44531
336.8159, 32.54297
337.2980, 68.56641
337.7801, 60.04688
338.2622, 22.76562
338.7443, 30.67578
339.2264, 102.2539
339.7086, 162.6367
340.1907, 206.9570
340.6728, 230.1211
341.1549, 228.6094
341.6370, 201.4258
342.1191, 158.5898
342.6013, 84.32422
343.0834, 0.3164060
343.5655, 37.39844
344.0476, 13.50781
344.5297, 27.82422
345.0118, 53.12500
345.4940, 61.98828
345.9761, 50.58984
346.4582, 9.929688
346.9403, 68.31250
347.4224, 77.34375
347.9045, 45.69922
348.3867, 16.99609
348.8688, 14.73828
349.3509, 33.77344
349.8330, 56.76172
350.3151, 88.19531
350.7972, 116.8672
351.2794, 146.0742
351.7615, 169.1992
352.2436, 170.6562
352.7257, 148.5195
353.2078, 128.9531
353.6899, 148.8047
354.1721, 222.9922
354.6542, 284.4688
355.1363, 346.1055
355.6184, 385.9844
356.1005, 378.0312
356.5826, 338.2188
357.0648, 305.6406
357.5469, 307.0430
358.0290, 336.6758
358.5111, 364.3242
358.9932, 381.0898
359.4753, 410.9336
359.9575, 481.4844
360.4396, 553.6367
360.9217, 581.3984
361.4038, 552.4258
361.8859, 510.7500
362.3680, 513.4141
362.8502, 563.6680
363.3322, 606.0781
363.8144, 623.1641
364.2965, 643.1797
364.7786, 695.5820
365.2607, 769.2070
365.7428, 821.7539
366.2249, 806.4023
366.7071, 763.1055
367.1892, 773.8008
367.6713, 846.0391
368.1534, 917.9805
368.6355, 946.7344
369.1176, 957.3555
369.5998, 1003.395
370.0819, 1102.145
370.5640, 1208.773
371.0461, 1304.801
371.5282, 1390.570
372.0103, 1464.867
372.4925, 1526.473
372.9746, 1581.289
373.4567, 1637.254
373.9388, 1695.422
374.4209, 1748.777
374.9030, 1798.820
375.3852, 1842.570
375.8673, 1873.129
376.3494, 1894.188
376.8315, 1920.023
377.3136, 1961.867
377.7957, 2015.086
378.2779, 2052.820
378.7600, 2092.230
379.2421, 2092.613
379.7242, 1989.074
380.2063, 1874.984
380.6884, 1862.082
381.1706, 1973.406
381.6527, 2122.230
382.1348, 2190.273
382.6169, 2158.621
383.0990, 2135.371
383.5811, 2104.504
384.0633, 2099.582
384.5454, 2146.016
385.0275, 2229.340
385.5096, 2317.430
385.9917, 2396.711
386.4738, 2465.480
386.9560, 2515.137
387.4381, 2539.195
387.9202, 2573.285
388.4023, 2634.133
388.8844, 2710.031
389.3665, 2786.809
389.8487, 2862.027
390.3308, 2947.902
390.8129, 3065.941
391.2950, 3198.504
391.7771, 3302.738
392.2592, 3368.215
392.7414, 3423.129
393.2235, 3484.422
393.7056, 3554.195
394.1877, 3649.070
394.6698, 3807.527
395.1519, 3956.273
395.6341, 4043.027
396.1162, 4086.332
396.5983, 4135.363
397.0804, 4211.996
397.5625, 4302.812
398.0446, 4378.613
398.5268, 4433.367
399.0089, 4486.723
399.4910, 4544.547
399.9731, 4601.406
400.4552, 4648.215
400.9373, 4685.219
401.4195, 4722.258
401.9016, 4769.414
402.3837, 4825.031
402.8658, 4881.609
403.3479, 4950.184
403.8300, 5005.660
404.3122, 5051.168
404.7943, 5079.035
405.2764, 5076.527
405.7585, 5040.047
406.2406, 4994.684
406.7227, 4971.980
407.2049, 4970.910
407.6870, 4941.270
408.1691, 4854.570
408.6512, 4764.738
409.1333, 4722.676
409.6154, 4716.797
410.0976, 4699.496
410.5797, 4654.359
411.0618, 4590.039
411.5439, 4513.246
412.0260, 4424.734
412.5081, 4330.348
412.9903, 4230.586
413.4724, 4128.863
413.9545, 4036.723
414.4366, 3961.465
414.9187, 3877.191
415.4008, 3775.453
415.8830, 3663.574
416.3651, 3547.695
416.8472, 3428.656
417.3293, 3304.328
417.8114, 3168.680
418.2935, 3020.738
418.7757, 2913.348
419.2578, 2885.641
419.7399, 2855.234
420.2220, 2815.832
420.7041, 2760.879
421.1862, 2679.277
421.6684, 2567.621
422.1505, 2444.180
422.6326, 2333.496
423.1147, 2236.461
423.5968, 2145.902
424.0789, 2060.742
424.5611, 1983.215
425.0432, 1914.383
425.5253, 1853.809
426.0074, 1801.566
426.4895, 1770.578
426.9716, 1737.668
427.4538, 1658.613
427.9359, 1534.395
428.4180, 1427.762
428.9001, 1362.723
429.3822, 1330.223
429.8643, 1316.676
430.3465, 1326.402
430.8286, 1333.309
431.3107, 1348.164
431.7928, 1346.422
432.2749, 1293.477
432.7570, 1190.586
433.2392, 1073.699
433.7213, 966.9141
434.2034, 870.3086
434.6855, 789.1719
435.1676, 707.2891
435.6497, 661.7969
436.1319, 697.5000
436.6140, 752.1758
437.0961, 755.0078
437.5782, 691.4062
438.0603, 608.0859
438.5424, 563.3164
439.0246, 561.2031
439.5067, 549.9805
439.9888, 523.3828
440.4709, 492.3242
440.9530, 449.2148
441.4352, 408.2188
441.9173, 394.7109
442.3994, 429.3789
442.8815, 470.1992
443.3636, 462.4609
443.8457, 413.0312
444.3279, 381.1367
444.8100, 392.9531
445.2921, 409.6992
445.7742, 371.0312
446.2563, 280.4492
446.7384, 218.3555
447.2206, 214.0820
447.7027, 228.1797
448.1848, 243.9258
448.6669, 255.9961
449.1490, 251.6992
449.6311, 223.3789
450.1133, 176.8711
450.5954, 128.1250
451.0775, 64.30469
451.5596, 23.40625
452.0417, 22.32812
452.5238, 28.94531
453.0060, 19.87109
453.4881, 2.964844
453.9702, 22.72656
454.4523, 26.81641
454.9344, 17.52734
455.4165, 0.2812500
455.8987, 38.71875
456.3808, 56.61328
456.8629, 12.69922
457.3450, 44.47656
457.8271, 68.26562
458.3092, 50.17578
458.7914, 24.21094
459.2735, 12.69531
459.7556, 9.703125
460.2377, 0.1328130
460.7198, 19.94141
461.2019, 40.14844
461.6841, 58.38672
462.1662, 69.32422
462.6483, 55.81641
463.1304, 27.95312
463.6125, 76.66797
464.0946, 41.61328
464.5768, 31.70312
465.0589, 100.2852
465.5410, 151.2969
466.0231, 181.8359
466.5052, 185.6914
466.9873, 159.1758
467.4695, 141.9453
467.9516, 144.6367
468.4337, 146.3984
468.9158, 133.3633
469.3979, 118.7461
469.8800, 123.9766
470.3622, 157.3711
470.8443, 198.6094
471.3264, 228.3555
471.8085, 246.5703
472.2906, 244.0547
472.7727, 206.8750
473.2549, 170.7070
473.7370, 175.2539
474.2191, 205.4727
474.7012, 219.7891
475.1833, 190.5117
475.6654, 162.9727
476.1476, 173.4414
476.6297, 208.3242
477.1118, 240.9141
477.5939, 263.6562
478.0760, 266.1172
478.5581, 227.0312
479.0403, 124.3984
479.5224, 78.14844
480.0045, 142.8984
480.4866, 196.8438
480.9687, 174.1484
481.4508, 110.6484
481.9330, 74.30469
482.4151, 95.53906
482.8972, 143.3125
483.3793, 169.9805
483.8614, 174.4609
484.3435, 162.1484
484.8257, 107.4062
485.3078, 67.67969
485.7899, 92.85938
486.2720, 162.0586
486.7541, 211.0547
487.2362, 197.2266
487.7183, 174.0547
488.2004, 214.6133
488.6826, 297.7969
489.1647, 319.8047
489.6468, 233.5039
490.1289, 119.4648
490.6110, 94.63281
491.0931, 193.2422
491.5753, 252.1055
492.0574, 251.8633
492.5395, 231.5078
493.0216, 199.2812
493.5037, 164.1406
493.9858, 142.9766
494.4680, 144.3203
494.9501, 152.1328
495.4322, 133.9219
495.9143, 81.87891
496.3964, 35.40625
496.8785, 16.70703
497.3607, 46.46875
497.8428, 31.99609
498.3249, 15.62891
498.8070, 70.31641
499.2891, 134.1562
499.7712, 183.5371
500.2534, 185.6465
500.7355, 146.2129
501.2176, 94.08203
501.6997, 30.61914
502.1818, 23.65234
502.6639, 39.22656
503.1461, 8.375000
503.6282, 10.47070
504.1103, 4.148438
504.5924, 11.16211
505.0745, 27.60547
505.5566, 86.76562
506.0388, 109.3691
506.5209, 72.41016
507.0030, 20.04297
507.4851, 37.15234
507.9672, 153.7695
508.4493, 215.8652
508.9315, 170.9688
509.4136, 123.6855
509.8957, 127.0859
510.3778, 160.0723
510.8599, 178.9570
511.3420, 165.8828
511.8242, 138.0527
512.3063, 112.0977
512.7884, 87.99609
513.2705, 58.14062
513.7526, 15.90234
514.2347, 12.00195
514.7169, 11.69336
515.1990, 87.53516
515.6811, 117.2363
516.1632, 60.74414
516.6453, 9.281250
517.1274, 7.662109
517.6096, 28.16797
518.0917, 26.12695
518.5738, 10.25586
519.0559, 52.70703
519.5380, 64.69141
520.0201, 43.74219
520.5023, 26.92969
520.9844, 34.23633
521.4665, 20.41602
521.9486, 75.59766
522.4307, 190.0312
522.9128, 224.1602
523.3950, 142.3770
523.8771, 52.32812
524.3592, 46.50977
524.8413, 90.98242
525.3234, 97.83789
525.8055, 53.07812
526.2877, 16.22461
526.7698, 36.10938
527.2519, 101.9590
527.7340, 138.4863
528.2161, 134.7520
528.6982, 118.7539
529.1804, 74.83203
529.6625, 34.92578
530.1446, 36.68359
530.6267, 78.19336
531.1088, 122.3867
531.5909, 135.1992
532.0731, 126.0723
532.5552, 144.6406
533.0373, 207.8535
533.5194, 253.8027
534.0015, 256.0781
534.4836, 238.4844
534.9658, 217.4043
535.4479, 193.1406
535.9300, 166.6309
536.4121, 118.3848
536.8942, 82.37891
537.3763, 119.0977
537.8585, 214.4648
538.3406, 281.5801
538.8227, 273.5410
539.3048, 224.2715
539.7869, 207.0586
540.2690, 252.9590
540.7512, 281.2793
541.2333, 277.7715
541.7154, 273.3340
542.1975, 290.9688
542.6796, 316.3145
543.1617, 317.5020
543.6439, 276.3730
544.1260, 225.8730
544.6081, 220.4316
545.0902, 259.2109
545.5723, 293.5664
546.0544, 317.4902
546.5366, 332.6328
547.0187, 334.6875
547.5008, 328.1152
547.9829, 329.0137
548.4650, 349.9316
548.9471, 366.6797
549.4293, 354.3906
549.9114, 335.7500
550.3935, 351.5215
550.8756, 407.5449
551.3577, 467.1152
551.8398, 492.6602
552.3220, 485.8086
552.8041, 488.0762
553.2862, 514.1895
553.7683, 525.6816
554.2504, 505.0566
554.7325, 472.1543
555.2147, 445.7598
555.6968, 430.9688
556.1789, 420.2129
556.6610, 398.6309
557.1431, 378.3359
557.6252, 384.8066
558.1074, 417.4102
558.5895, 451.1250
559.0716, 474.2520
559.5537, 490.8066
560.0358, 510.9805
560.5179, 553.5801
561.0001, 557.5586
561.4822, 469.5645
561.9643, 389.5977
562.4464, 387.8281
562.9285, 438.1133
563.4106, 477.3398
563.8928, 475.9941
564.3749, 451.9766
564.8570, 431.1016
565.3391, 415.0293
565.8212, 398.4570
566.3033, 374.0996
566.7855, 357.6777
567.2676, 372.9316
567.7497, 402.8984
568.2318, 408.7188
568.7139, 370.9570
569.1960, 333.3633
569.6782, 317.8789
570.1603, 313.8359
570.6424, 306.9414
571.1245, 295.0645
571.6066, 281.2090
572.0887, 265.9375
572.5709, 255.2246
573.0530, 271.8438
573.5351, 347.5039
574.0172, 385.2246
574.4993, 344.1445
574.9814, 285.0254
575.4636, 244.7480
575.9457, 223.3770
576.4278, 205.5977
576.9099, 176.3691
577.3920, 154.4316
577.8741, 181.6289
578.3563, 242.1758
578.8384, 249.3477
579.3205, 169.1895
579.8026, 81.72656
580.2847, 86.99414
580.7668, 202.6113
581.2490, 248.8281
581.7311, 171.2695
582.2132, 98.39648
582.6953, 71.28711
583.1774, 66.88477
583.6595, 56.75391
584.1417, 34.71484
584.6238, 14.64844
585.1059, 3.794922
585.5880, 4.253906
586.0701, 37.91992
586.5522, 114.3438
587.0344, 159.4238
587.5165, 127.6230
587.9986, 60.00391
588.4807, 25.88672
588.9628, 29.67773
589.4449, 33.29297
589.9271, 40.29492
590.4092, 36.44336
590.8913, 4.039063
591.3734, 61.03125
591.8555, 88.21875
592.3376, 66.63867
592.8198, 23.40820
593.3019, 2.787109
593.7840, 10.99414
594.2661, 13.56055
594.7482, 13.32422
595.2303, 3.671875
595.7125, 45.85742
596.1946, 98.28711
596.6767, 87.68359
597.1588, 16.63281
597.6409, 97.81836
598.1230, 82.51758
598.6052, 28.37891
599.0873, 6.771484
599.5694, 16.05469
600.0515, 0.3593750
600.5336, 43.03711
601.0157, 97.59766
601.4979, 120.2305
601.9800, 95.34375
602.4621, 80.66016
602.9442, 76.36719
603.4263, 83.51562
603.9084, 114.6875
604.3906, 155.6484
604.8727, 178.8848
605.3548, 175.2109
605.8369, 155.8945
606.3190, 117.3477
606.8011, 73.33594
607.2833, 46.65430
607.7654, 39.89062
608.2475, 58.36914
608.7296, 112.4453
609.2117, 186.3281
609.6938, 211.5000
610.1760, 124.9785
610.6581, 95.67773
611.1402, 188.9023
611.6223, 281.9805
612.1044, 286.3398
612.5865, 228.2637
613.0687, 191.8906
613.5508, 219.5254
614.0329, 271.5059
614.5150, 308.9180
614.9971, 332.5625
615.4792, 343.4805
615.9614, 341.0391
616.4435, 333.4102
616.9256, 324.0117
617.4077, 315.1719
617.8898, 323.5820
618.3719, 338.3770
618.8541, 385.5664
619.3362, 509.4180
619.8183, 632.8145
620.3004, 690.7012
620.7825, 692.6367
621.2646, 688.7109
621.7468, 702.1211
622.2289, 734.2266
622.7110, 813.1777
623.1931, 926.2773
623.6752, 948.1270
624.1573, 831.2188
624.6395, 709.1367
625.1216, 699.9727
625.6037, 793.0098
626.0858, 868.2402
626.5679, 938.7676
627.0500, 977.2422
627.5322, 942.2891
628.0143, 900.0410
628.4964, 917.3359
628.9785, 985.6719
629.4606, 1044.150
629.9427, 1049.590
630.4249, 1032.590
630.9070, 1060.402
631.3891, 1129.984
631.8712, 1161.684
632.3533, 1133.461
632.8354, 1079.146
633.3176, 1016.961
633.7997, 951.2539
634.2818, 916.4316
634.7639, 928.0078
635.2460, 949.0645
635.7281, 998.7969
636.2103, 1035.350
636.6924, 1003.797
637.1745, 916.9727
637.6566, 844.2285
638.1387, 833.4395
638.6208, 856.0352
639.1030, 857.8555
639.5851, 838.8457
640.0672, 812.5938
640.5493, 778.6504
641.0314, 745.7480
641.5135, 724.9258
641.9957, 712.7441
642.4778, 685.4004
642.9599, 615.9746
643.4420, 568.0137
643.9241, 570.5859
644.4063, 589.6973
644.8884, 603.0684
645.3705, 604.7539
645.8526, 590.8418
646.3347, 557.3340
646.8168, 511.0488
647.2990, 457.4941
647.7811, 397.3965
648.2632, 360.2715
648.7453, 356.7129
649.2274, 353.1523
649.7095, 324.1191
650.1917, 279.0020
650.6738, 251.4023
651.1559, 244.9766
651.6380, 246.3496
652.1201, 275.5391
652.6022, 293.4707
653.0844, 251.4512
653.5665, 165.7578
654.0486, 97.48633
654.5307, 84.03516
655.0128, 108.0215
655.4949, 143.2090
655.9771, 184.9062
656.4592, 178.7598
656.9413, 107.0195
657.4234, 28.24609
657.9055, 18.78711
658.3876, 40.21094
658.8698, 56.94922
659.3519, 80.11914
659.8340, 79.81836
660.3161, 24.76367
660.7982, 28.62109
661.2803, 40.34570
661.7625, 20.83789
662.2446, 1.289063
662.7267, 13.70117
663.2088, 23.43359
663.6909, 47.57227
664.1730, 77.59961
664.6552, 70.33398
665.1373, 18.38672
665.6194, 32.33789
666.1015, 59.17969
666.5836, 64.61523
667.0657, 51.08984
667.5479, 5.017578
668.0300, 25.26953
668.5121, 26.44922
668.9942, 75.25781
669.4763, 77.19336
669.9584, 56.21875
670.4406, 53.06055
670.9227, 80.00977
671.4048, 115.6016
671.8868, 151.0840
672.3690, 178.6484
672.8511, 162.9238
673.3332, 108.2930
673.8153, 105.7520
674.2974, 205.5352
674.7795, 336.6426
675.2617, 379.8379
675.7438, 305.9629
676.2259, 291.6797
676.7080, 393.9844
677.1901, 488.1738
677.6722, 540.6719
678.1544, 570.7051
678.6365, 593.2344
679.1186, 612.9648
679.6007, 644.4824
680.0828, 702.8652
680.5649, 773.2949
681.0471, 842.1543
681.5292, 907.4199
682.0113, 957.4941
682.4934, 988.8145
682.9755, 1024.693
683.4576, 1089.375
683.9398, 1182.209
684.4219, 1299.061
684.9040, 1473.963
685.3861, 1609.600
685.8682, 1634.338
686.3503, 1656.324
686.8325, 1764.410
687.3146, 1942.969
687.7967, 2102.084
688.2788, 2192.000
688.7609, 2280.748
689.2430, 2412.859
689.7252, 2572.236
690.2073, 2737.979
690.6894, 2905.014
691.1715, 3068.660
691.6536, 3224.721
692.1357, 3379.691
692.6179, 3551.441
693.1000, 3744.561
693.5821, 3927.955
694.0642, 4081.646
694.5463, 4253.074
695.0284, 4505.322
695.5106, 4794.236
695.9927, 5007.148
696.4748, 5089.818
696.9569, 5208.898
697.4390, 5462.482
697.9211, 5724.469
698.4033, 5887.266
698.8854, 5974.414
699.3675, 6063.662
699.8496, 6188.002
700.3317, 6308.043
700.8138, 6371.773
701.2960, 6386.166
701.7781, 6392.477
702.2602, 6393.744
702.7423, 6371.740
703.2244, 6315.691
703.7065, 6236.521
704.1887, 6152.523
704.6708, 6066.832
705.1529, 5960.688
705.6350, 5830.275
706.1171, 5685.863
706.5992, 5525.963
707.0814, 5355.801
707.5635, 5180.803
708.0456, 5002.051
708.5277, 4819.359
709.0098, 4634.023
709.4919, 4442.240
709.9741, 4230.229
710.4562, 4006.857
710.9383, 3817.029
711.4204, 3670.820
711.9025, 3506.523
712.3846, 3257.990
712.8668, 2945.242
713.3489, 2703.098
713.8310, 2562.252
714.3131, 2421.785
714.7952, 2271.582
715.2773, 2115.535
715.7595, 1952.748
716.2416, 1785.773
716.7237, 1623.111
717.2058, 1462.723
717.6879, 1313.578
718.1700, 1172.668
718.6522, 1052.275
719.1343, 978.9883
719.6164, 939.9141
720.0985, 891.3125
720.5806, 811.4023
721.0627, 726.0117
721.5449, 679.1602
722.0270, 667.2969
722.5091, 634.8535
722.9912, 577.0684
723.4733, 520.0938
723.9554, 479.0840
724.4376, 440.0254
724.9197, 374.6426
725.4018, 271.4863
725.8839, 213.9785
726.3660, 246.6895
726.8481, 270.5078
727.3303, 227.4141
727.8124, 171.9883
728.2945, 178.0391
728.7766, 243.0098
729.2587, 287.9922
729.7408, 250.0039
730.2230, 182.4336
730.7051, 146.6133
731.1872, 138.5938
731.6693, 149.2461
732.1514, 176.7324
732.6335, 213.5254
733.1157, 257.3398
733.5978, 303.3164
734.0799, 332.8984
734.5620, 342.3398
735.0441, 345.2070
735.5262, 326.2832
736.0084, 321.4258
736.4905, 355.9141
736.9726, 414.9219
737.4547, 473.2383
737.9368, 527.2500
738.4189, 583.0762
738.9011, 656.9375
739.3832, 720.8809
739.8653, 741.6016
740.3474, 739.1914
740.8295, 757.2969
741.3116, 811.0332
741.7938, 868.9609
742.2759, 885.6035
742.7580, 883.9219
743.2401, 954.5488
743.7222, 1096.227
744.2043, 1198.551
744.6865, 1226.135
745.1686, 1224.297
745.6507, 1242.436
746.1328, 1280.512
746.6149, 1305.549
747.0970, 1294.971
747.5792, 1305.727
748.0613, 1382.719
748.5434, 1447.992
749.0255, 1432.951
749.5076, 1364.279
749.9897, 1324.084
750.4719, 1344.689
750.9540, 1373.164
751.4361, 1376.697
751.9182, 1371.256
752.4003, 1379.662
752.8824, 1397.990
753.3646, 1399.684
753.8467, 1373.234
754.3288, 1340.988
754.8109, 1341.992
755.2930, 1370.805
755.7751, 1361.383
756.2573, 1304.055
756.7394, 1231.783
757.2215, 1152.514
757.7036, 1088.449
758.1857, 1071.203
758.6678, 1102.596
759.1500, 1110.037
759.6321, 1081.348
760.1142, 1047.664
760.5963, 1004.252
761.0784, 965.8301
761.5605, 959.7207
762.0427, 968.9258
762.5248, 934.6973
763.0069, 814.1934
763.4890, 701.0332
763.9711, 683.4531
764.4532, 709.5488
764.9354, 709.6074
765.4175, 678.1523
765.8996, 624.3184
766.3817, 553.6445
766.8638, 477.4707
767.3459, 414.7266
767.8281, 366.5664
768.3102, 342.3047
768.7923, 349.2832
769.2744, 350.4922
769.7565, 328.7344
770.2386, 300.4648
770.7208, 286.7363
771.2029, 288.8535
771.6850, 286.5508
772.1671, 292.0098
772.6492, 274.9258
773.1313, 205.0898
773.6135, 131.9590
774.0956, 92.25000
774.5777, 84.79492
775.0598, 94.87695
775.5419, 117.5801
776.0240, 132.9043
776.5062, 127.4609
776.9883, 108.5859
777.4704, 77.97070
777.9525, 42.75586
778.4346, 30.67578
778.9167, 54.03516
779.3989, 84.13281
779.8810, 78.02734
780.3631, 40.11914
780.8452, 24.17773
781.3273, 36.24023
781.8094, 30.99219
782.2916, 13.27148
782.7737, 64.50195
783.2558, 92.97461
783.7379, 99.22266
784.2200, 86.72656
784.7021, 32.70312
785.1843, 7.167969
785.6664, 18.16797
786.1485, 23.04492
786.6306, 35.70117
787.1127, 52.50781
787.5948, 65.12500
788.0770, 72.74805
788.5591, 68.79297
789.0412, 27.90820
789.5233, 10.36914
790.0054, 11.12695
790.4875, 70.21289
790.9697, 106.1621
791.4518, 99.69141
791.9339, 75.48047
792.4160, 54.33398
792.8981, 37.94922
793.3802, 34.91602
793.8624, 45.57227
794.3445, 54.83594
794.8266, 59.26172
795.3087, 56.71289
795.7908, 44.36719
796.2729, 25.39453
796.7551, 7.550781
797.2372, 25.25195
797.7193, 31.34961
798.2014, 24.23242
798.6835, 71.27148
799.1656, 73.16602
799.6478, 53.33789
800.1299, 50.23828
800.6120, 70.91602
801.0941, 73.63867
801.5762, 13.72656
802.0583, 35.29688
802.5405, 15.52734
803.0226, 35.81055
803.5047, 72.53516
803.9868, 83.57617
804.4689, 70.76758
804.9510, 26.94141
805.4332, 21.42578
805.9153, 37.46680
806.3974, 24.99805
806.8795, 17.45703
807.3616, 86.17773
807.8438, 118.6797
808.3259, 75.10742
808.8080, 3.404297
809.2901, 3.794922
809.7722, 63.02734
810.2543, 99.46289
810.7365, 96.05664
811.2186, 86.78125
811.7007, 88.01562
812.1828, 81.74609
812.6649, 31.02539
813.1470, 58.34180
813.6292, 87.48633
814.1113, 12.19727
814.5934, 81.89648
815.0755, 61.20898
815.5576, 28.74805
816.0397, 49.76172
816.5219, 102.9688
817.0040, 129.2148
817.4861, 107.2617
817.9682, 78.95312
818.4503, 71.45312
818.9324, 71.80859
819.4146, 66.72656
819.8967, 56.72070
820.3788, 39.01367
820.8609, 15.93359
821.3430, 12.77344
821.8251, 64.26953
822.3073, 135.6562
822.7894, 124.2285
823.2715, 38.72070
823.7536, 8.173828
824.2357, 4.763672
824.7178, 31.92188
825.2000, 46.29102
825.6821, 49.71289
826.1642, 44.60742
826.6463, 25.70508
827.1284, 19.98047
827.6105, 38.71094
828.0927, 51.95312
828.5748, 38.60742
829.0569, 22.48242
829.5390, 34.58203
830.0211, 72.65430
830.5032, 93.60938
830.9854, 89.27930
831.4675, 70.85352
831.9496, 12.92188
832.4317, 33.51953
832.9138, 14.65039
833.3959, 48.50586
833.8781, 97.64258
834.3602, 111.9629
834.8423, 116.7109
835.3244, 137.3613
835.8065, 153.4980
836.2886, 131.3730
836.7708, 84.79102
837.2529, 46.79102
837.7350, 27.78516
838.2171, 28.31250
838.6992, 55.61328
839.1813, 92.19922
839.6635, 89.29297
840.1456, 51.14258
840.6277, 23.40039
841.1098, 14.22070
841.5919, 11.00195
842.0740, 7.775391
842.5562, 5.892578
843.0383, 0.4511720
843.5204, 11.87891
844.0025, 15.89453
844.4846, 10.63672
844.9667, 1.367188
845.4489, 26.69141
845.9310, 51.60352
846.4131, 56.76953
846.8952, 46.46094
847.3773, 50.66211
847.8594, 96.11523
848.3416, 121.5352
848.8237, 98.52148
849.3058, 71.86328
849.7879, 76.93945
850.2700, 96.30859
850.7521, 90.39453
851.2343, 48.80469
851.7164, 23.04688
852.1985, 68.69922
852.6806, 113.0039
853.1627, 73.22852
853.6448, 1.134766
854.1270, 9.316406
854.6091, 43.89258
855.0912, 83.13281
855.5733, 60.60938
856.0554, 13.84375
856.5375, 16.42578
857.0197, 32.43945
857.5018, 36.54102
857.9839, 30.82422
858.4660, 32.27344
858.9481, 48.95312
859.4302, 55.22070
859.9124, 14.64844
860.3945, 65.82227
860.8766, 98.87109
861.3587, 74.40625
861.8408, 58.21289
862.3229, 63.72266
862.8051, 76.40039
863.2872, 84.52539
863.7693, 90.69141
864.2514, 100.4961
864.7335, 119.4297
865.2156, 130.9648
865.6978, 128.7285
866.1799, 126.2715
866.6620, 133.8809
867.1441, 137.8867
867.6262, 115.6543
868.1083, 70.77734
868.5905, 56.37109
869.0726, 108.8438
869.5547, 154.9395
870.0368, 173.6836
870.5189, 179.1855
871.0010, 172.1133
871.4832, 160.2910
871.9653, 160.5488
872.4474, 170.4238
872.9295, 172.2109
873.4116, 140.6270
873.8937, 111.0234
874.3759, 124.2891
874.8580, 157.3672
875.3401, 169.7734
875.8222, 157.5137
876.3043, 140.2344
876.7864, 128.6055
877.2686, 121.9590
877.7507, 119.5508
878.2328, 121.1426
878.7149, 130.7266
879.1970, 146.0254
879.6791, 144.7910
880.1613, 117.7051
880.6434, 97.53125
881.1255, 123.4648
881.6076, 179.7891
882.0897, 208.3203
882.5718, 207.3457
883.0540, 217.5977
883.5361, 250.3594
884.0182, 262.3262
884.5003, 217.4082
884.9824, 154.1426
885.4645, 153.4141
885.9467, 228.3477
886.4288, 267.6348
886.9109, 247.5684
887.3930, 239.9219
887.8751, 273.8438
888.3572, 313.8418
888.8394, 325.2871
889.3215, 315.9844
889.8036, 323.8125
890.2857, 374.3848
890.7678, 393.7480
891.2499, 346.6133
891.7321, 302.1094
892.2142, 283.9062
892.6963, 290.7168
893.1784, 332.1133
893.6605, 403.3125
894.1426, 448.3418
894.6248, 425.4785
895.1069, 402.4434
895.5890, 398.4551
896.0711, 416.6758
896.5532, 475.7207
897.0353, 555.9883
897.5175, 617.9492
897.9996, 648.8066
898.4817, 659.6152
898.9638, 643.2871
899.4459, 624.8867
899.9280, 634.3125
900.4102, 658.9883
900.8923, 668.6680
901.3744, 665.2773
901.8565, 688.9531
902.3386, 767.4434
902.8207, 852.7773
903.3029, 870.4043
903.7850, 849.4668
904.2671, 869.0547
904.7492, 922.2461
905.2313, 952.2188
905.7134, 942.9141
906.1956, 929.4355
906.6777, 943.7637
907.1598, 977.6699
907.6419, 1012.533
908.1240, 1047.887
908.6061, 1077.619
909.0883, 1101.449
909.5704, 1105.543
910.0525, 1079.662
910.5346, 1052.035
911.0167, 1064.916
911.4988, 1114.217
911.9810, 1145.777
912.4631, 1161.072
912.9452, 1161.557
913.4273, 1142.182
913.9094, 1118.797
914.3915, 1102.820
914.8737, 1087.674
915.3558, 1055.361
915.8379, 996.7578
916.3200, 964.8027
916.8021, 982.3828
917.2842, 987.9004
917.7664, 964.1328
918.2484, 931.0176
918.7305, 898.0859
919.2126, 866.5586
919.6948, 839.4062
920.1769, 823.0215
920.6590, 798.0117
921.1411, 769.3027
921.6232, 724.6309
922.1053, 637.4316
922.5875, 546.1250
923.0696, 492.9238
923.5517, 477.7891
924.0338, 472.1250
924.5159, 477.4512
924.9980, 476.7246
925.4802, 446.1113
925.9623, 425.9297
926.4444, 472.4082
926.9265, 539.5645
927.4086, 541.5254
927.8907, 465.5215
928.3729, 390.8281
928.8550, 344.1270
929.3371, 328.3535
929.8192, 376.3770
930.3013, 434.5352
930.7834, 433.6191
931.2656, 387.4512
931.7477, 351.1465
932.2298, 343.3496
932.7119, 334.4785
933.1940, 283.6094
933.6761, 235.6289
934.1583, 258.3945
934.6404, 317.4102
935.1225, 350.7930
935.6046, 350.7266
936.0867, 333.8418
936.5688, 308.1172
937.0510, 280.2520
937.5331, 253.2793
938.0152, 232.3438
938.4973, 232.2754
938.9794, 248.4902
939.4615, 260.7852
939.9437, 266.1875
940.4258, 287.5801
940.9079, 345.9141
941.3900, 405.6895
941.8721, 389.0801
942.3542, 319.3711
942.8364, 304.2090
943.3185, 344.9961
943.8006, 408.3496
944.2827, 482.5430
944.7648, 535.1680
945.2469, 532.8770
945.7291, 499.2715
946.2112, 500.8574
946.6933, 535.7012
947.1754, 558.8066
947.6575, 566.2988
948.1396, 571.8574
948.6218, 581.0723
949.1039, 588.2441
949.5860, 585.0742
950.0681, 575.6973
950.5502, 586.8086
951.0323, 623.2656
951.5145, 636.0449
951.9966, 611.5156
952.4787, 602.7598
952.9608, 642.7871
953.4429, 694.0840
953.9250, 701.0840
954.4072, 665.7676
954.8893, 646.1133
955.3714, 644.1094
955.8535, 653.1875
956.3356, 679.5801
956.8177, 701.3809
957.2999, 709.0273
957.7820, 700.8809
958.2641, 670.9785
958.7462, 616.3945
959.2283, 573.3809
959.7104, 542.3418
960.1926, 524.2227
960.6747, 537.7734
961.1568, 536.4062
961.6389, 472.6191
962.1210, 381.6406
962.6031, 344.8086
963.0853, 379.2051
963.5674, 389.2793
964.0495, 351.7734
964.5316, 324.9609
965.0137, 333.4902
965.4958, 343.2227
965.9780, 326.0352
966.4601, 291.9102
966.9422, 264.7480
967.4243, 239.9414
967.9064, 237.1992
968.3885, 294.1445
968.8707, 324.2656
969.3528, 294.2344
969.8349, 238.0156
970.3170, 165.5371
970.7991, 90.26562
971.2813, 54.58203
971.7634, 80.31445
972.2455, 94.25000
972.7276, 71.74805
973.2097, 52.82617
973.6918, 67.47266
974.1740, 81.73828
974.6561, 51.37305
975.1382, 8.630859
975.6203, 34.61328
976.1024, 0.3359380
976.5845, 24.29883
977.0667, 1.828125
977.5488, 12.86328
978.0309, 52.93750
978.5130, 128.4375
978.9951, 130.3555
979.4772, 69.33984
979.9594, 25.91406
980.4415, 26.12305
980.9236, 25.20312
981.4057, 3.250000
981.8878, 20.41797
982.3699, 12.26367
982.8521, 56.22461
983.3342, 59.47461
983.8163, 27.36523
984.2984, 14.81836
984.7805, 51.58203
985.2626, 74.13672
985.7448, 36.29492
986.2269, 3.900391
986.7090, 38.24414
987.1911, 90.88281
987.6732, 91.89258
988.1553, 41.79883
988.6375, 0.4667970
989.1196, 20.27344
989.6017, 20.15625
990.0838, 23.08008
990.5659, 60.11523
991.0480, 45.52734
991.5302, 11.32812
992.0123, 2.197266
992.4944, 20.33203
992.9765, 40.21484
993.4586, 58.77734
993.9407, 65.03906
994.4229, 39.25879
994.9050, 14.72656
995.3871, 23.61035
995.8692, 44.44434
996.3513, 42.43555
996.8334, 18.00684
997.3156, 3.804688
997.7977, 21.11816
998.2798, 30.75000
998.7619, 2.547852
999.2440, 27.99707
999.7261, 32.08789
1000.208, 23.21777
1000.690, 25.12305
1001.172, 37.45312
1001.655, 38.64355
1002.137, 18.92773
1002.619, 9.456055
1003.101, 58.36621
1003.583, 95.49316
1004.065, 88.87793
1004.547, 60.24121
1005.029, 34.88086
1005.512, 19.26855
1005.994, 20.87207
1006.476, 50.41211
1006.958, 78.19824
1007.440, 93.27246
1007.922, 98.36426
1008.404, 91.82422
1008.886, 78.69922
1009.368, 56.84277
1009.851, 33.04199
1010.333, 37.84082
1010.815, 97.32324
1011.297, 147.3438
1011.779, 156.7822
1012.261, 149.8379
1012.743, 130.9297
1013.225, 113.0898
1013.708, 116.4453
1014.190, 136.6582
1014.672, 145.5986
1015.154, 131.9971
1015.636, 113.3193
1016.118, 84.75098
1016.600, 66.32812
1017.082, 75.07227
1017.564, 97.40332
1018.047, 117.0205
1018.529, 134.2637
1019.011, 159.5537
1019.493, 199.8701
1019.975, 235.5332
1020.457, 273.6523
1020.939, 289.0674
1021.421, 247.1680
1021.904, 191.3760
1022.386, 165.2695
1022.868, 167.4199
1023.350, 179.5957
1023.832, 204.8584
1024.314, 214.9854
1024.796, 184.3896
1025.278, 158.9697
1025.760, 169.3057
1026.243, 185.8076
1026.725, 177.3350
1027.207, 151.0977
1027.689, 136.5752
1028.171, 146.7998
1028.653, 133.7197
1029.135, 52.23730
1029.617, 7.619141
1030.099, 9.620117
1030.582, 17.37207
1031.064, 64.51855
1031.546, 118.2285
1032.028, 149.5840
1032.510, 152.6367
1032.992, 150.7783
1033.474, 157.6875
1033.956, 145.0967
1034.439, 87.67676
1034.921, 24.49219
1035.403, 27.27441
1035.885, 62.17480
1036.367, 68.93848
1036.849, 43.87012
1037.331, 15.06543
1037.813, 36.31543
1038.296, 62.14453
1038.778, 37.35254
1039.260, 7.291016
1039.742, 8.361328
1040.224, 11.34082
1040.706, 4.817383
1041.188, 11.52246
1041.670, 26.58984
1042.152, 47.85742
1042.635, 52.84473
1043.117, 32.65430
1043.599, 5.899414
1044.081, 29.14160
1044.563, 54.67090
1045.045, 45.05078
1045.527, 3.044922
1046.009, 38.42383
1046.491, 85.71484
1046.974, 110.3232
1047.456, 102.1045
1047.938, 96.21973
1048.420, 108.1367
1048.902, 120.9277
1049.384, 114.8730
1049.866, 95.49316
1050.348, 87.41406
1050.830, 91.72852
1051.313, 101.8057
1051.795, 118.3965
1052.277, 136.2539
1052.759, 153.9463
1053.241, 170.5508
1053.723, 183.9551
1054.205, 198.0029
1054.687, 230.9121
1055.170, 283.7412
1055.652, 284.4355
1056.134, 229.6250
1056.616, 188.7451
1057.098, 177.6445
1057.580, 177.9482
1058.062, 176.4521
1058.544, 182.4951
1059.026, 224.0430
1059.509, 289.5879
1059.991, 297.7412
1060.473, 257.8945
1060.955, 254.9561
1061.437, 299.0527
1061.919, 318.2227
1062.401, 274.3379
1062.883, 207.0947
1063.365, 153.7275
1063.848, 121.6514
1064.330, 141.4512
1064.812, 195.3848
1065.294, 233.7939
1065.776, 250.7764
1066.258, 247.7432
1066.740, 227.0547
1067.222, 209.8789
1067.705, 217.3330
1068.187, 232.6201
1068.669, 231.9814
1069.151, 223.0781
1069.633, 219.1396
1070.115, 218.5742
1070.597, 210.3252
1071.079, 194.9707
1071.562, 194.5479
1072.044, 229.5107
1072.526, 261.6582
1073.008, 245.2773
1073.490, 221.8516
1073.972, 246.0391
1074.454, 286.2910
1074.936, 283.7188
1075.418, 242.9102
1075.901, 217.0049
1076.383, 226.4443
1076.865, 248.9580
1077.347, 288.1055
1077.829, 319.5742
1078.311, 316.6406
1078.793, 308.5596
1079.275, 331.4600
1079.757, 372.6855
1080.240, 395.4658
1080.722, 391.8789
1081.204, 382.6562
1081.686, 379.6953
1082.168, 362.1484
1082.650, 294.0449
1083.132, 241.1748
1083.614, 252.0088
1084.097, 301.9551
1084.579, 362.3047
1085.061, 432.0771
1085.543, 466.3076
1086.025, 443.0215
1086.507, 423.8525
1086.989, 417.7520
1087.471, 403.8486
1087.953, 371.0830
1088.436, 334.1299
1088.918, 298.8564
1089.400, 272.4424
1089.882, 292.2822
1090.364, 378.6123
1090.846, 421.9307
1091.328, 411.7734
1091.810, 405.0430
1092.292, 420.5322
1092.775, 429.7568
1093.257, 406.3867
1093.739, 374.5791
1094.221, 390.5713
1094.703, 448.1855
1095.185, 450.9863
1095.667, 402.4883
1096.149, 384.8418
1096.632, 409.4727
1097.114, 425.2539
1097.596, 405.9932
1098.078, 379.7285
1098.560, 376.8604
1099.042, 399.5635
1099.524, 474.5957
1100.006, 568.6963
1100.489, 575.5430
1100.971, 511.9629
1101.453, 464.8809
1101.935, 457.7012
1102.417, 472.2529
1102.899, 503.3701
1103.381, 537.6660
1103.863, 556.2207
1104.345, 567.1729
1104.828, 580.2627
1105.310, 593.3486
1105.792, 599.1729
1106.274, 600.6523
1106.756, 612.0615
1107.238, 640.0166
1107.720, 661.8613
1108.202, 639.7070
1108.684, 643.2539
1109.167, 757.8848
1109.649, 867.5459
1110.131, 854.7480
1110.613, 769.8740
1111.095, 714.6006
1111.577, 701.0449
1112.059, 679.6924
1112.541, 625.4219
1113.024, 588.9141
1113.506, 567.6992
1113.988, 578.0576
1114.470, 664.0400
1114.952, 747.1279
1115.434, 734.7852
1115.916, 657.2002
1116.398, 639.0195
1116.880, 703.1855
1117.363, 728.4971
1117.845, 702.5830
1118.327, 679.4668
1118.809, 671.8574
1119.291, 666.7920
1119.773, 657.3213
1120.255, 641.8223
1120.737, 616.0469
1121.219, 582.1641
1121.702, 555.1035
1122.184, 533.7754
1122.666, 498.5381
1123.148, 451.5000
1123.630, 448.2490
1124.112, 507.0176
1124.594, 562.1123
1125.076, 554.8945
1125.559, 518.3682
1126.041, 502.1797
1126.523, 495.4941
1127.005, 479.6885
1127.487, 455.8906
1127.969, 423.3779
1128.451, 387.0830
1128.933, 366.5322
1129.416, 371.3174
1129.898, 381.9268
1130.380, 397.1221
1130.862, 398.5420
1131.344, 357.1289
1131.826, 309.0713
1132.308, 294.3936
1132.790, 298.8037
1133.272, 289.3730
1133.755, 261.9922
1134.237, 236.9160
1134.719, 209.3154
1135.201, 199.7598
1135.683, 228.4844
1136.165, 254.3066
1136.647, 264.6846
1137.129, 259.9941
1137.611, 234.6787
1138.094, 196.2744
1138.576, 167.6436
1139.058, 149.5771
1139.540, 134.9258
1140.022, 119.8525
1140.504, 129.3115
1140.986, 176.4238
1141.468, 207.2822
1141.951, 192.9688
1142.433, 152.9238
1142.915, 105.9150
1143.397, 60.49707
1143.879, 45.33105
1144.361, 57.14160
1144.843, 89.23926
1145.325, 132.8789
1145.807, 139.6113
1146.290, 102.0977
1146.772, 69.57520
1147.254, 73.93457
1147.736, 81.82324
1148.218, 37.39453
1148.700, 5.946289
1149.182, 39.48633
1149.664, 114.7451
1150.146, 130.8643
1150.629, 97.85449
1151.111, 64.28711
1151.593, 42.70996
1152.075, 21.51465
1152.557, 11.23730
1153.039, 33.06836
1153.521, 27.01562
1154.003, 18.22559
1154.486, 31.34766
1154.968, 40.94336
1155.450, 8.401367
1155.932, 52.42090
1156.414, 86.18359
1156.896, 89.10059
1157.378, 80.66504
1157.860, 55.22656
1158.343, 32.98438
1158.825, 15.90723
1159.307, 7.006836
1159.789, 9.451172
1160.271, 16.49023
1160.753, 17.28223
1161.235, 14.90332
1161.717, 19.24609
1162.199, 30.47070
1162.682, 57.08301
1163.164, 93.69141
1163.646, 102.5000
1164.128, 77.00488
1164.610, 42.48926
1165.092, 12.96289
1165.574, 12.02051
1166.056, 39.58008
1166.538, 55.97852
1167.021, 41.46680
1167.503, 8.162109
1167.985, 37.20605
1168.467, 84.24316
1168.949, 117.1699
1169.431, 133.0264
1169.913, 137.7832
1170.395, 130.0205
1170.878, 118.6748
1171.360, 94.70898
1171.842, 82.63281
1172.324, 113.3359
1172.806, 140.4814
1173.288, 115.1855
1173.770, 64.11914
1174.252, 43.36426
1174.734, 54.22852
1175.217, 54.78223
1175.699, 38.23535
1176.181, 44.70117
1176.663, 81.77832
1177.145, 121.4238
1177.627, 155.0732
1178.109, 170.6191
1178.591, 154.9209
1179.073, 124.9717
1179.556, 114.9082
1180.038, 117.4785
1180.520, 118.5996
1181.002, 114.1523
1181.484, 78.69727
1181.966, 21.24414
1182.448, 15.98828
1182.930, 18.30078
1183.413, 0.5048830
1183.895, 43.06152
1184.377, 76.95996
1184.859, 59.99023
1185.341, 42.94922
1185.823, 74.30762
1186.305, 121.1172
1186.787, 144.8574
1187.270, 146.3369
1187.752, 141.2500
1188.234, 131.4844
1188.716, 112.1396
1189.198, 65.83887
1189.680, 46.78027
1190.162, 71.75488
1190.644, 101.8252
1191.126, 123.2764
1191.609, 131.2588
1192.091, 116.0928
1192.573, 90.89062
1193.055, 99.30762
1193.537, 133.3682
1194.019, 145.0469
1194.501, 137.8906
1194.983, 149.7002
1195.465, 178.5488
1195.948, 176.0049
1196.430, 129.9736
1196.912, 82.60352
1197.394, 73.98242
1197.876, 81.06250
1198.358, 98.66699
1198.840, 112.4600
1199.322, 95.05762
1199.805, 75.86621
1200.287, 109.4307
1200.769, 179.5488
1201.251, 209.1592
1201.733, 174.0068
1202.215, 145.0459
1202.697, 149.8799
1203.179, 151.0342
1203.661, 119.9502
1204.144, 105.3145
1204.626, 140.8047
1205.108, 174.3975
1205.590, 146.1992
1206.072, 87.45117
1206.554, 100.5996
1207.036, 175.6416
1207.518, 177.9023
1208.000, 119.1973
1208.483, 89.66309
1208.965, 98.28809
1209.447, 99.41016
1209.929, 76.10840
1210.411, 57.63672
1210.893, 82.05859
1211.375, 112.8145
1211.857, 87.67285
1212.340, 57.95215
1212.822, 79.71387
1213.304, 119.0664
1213.786, 132.3154
1214.268, 121.7256
1214.750, 107.4863
1215.232, 90.71582
1215.714, 76.82227
1216.197, 75.17188
1216.679, 59.70410
1217.161, 13.77441
1217.643, 13.80078
1218.125, 6.807617
1218.607, 29.09668
1219.089, 97.83496
1219.571, 166.6436
1220.053, 157.6689
1220.536, 92.80957
1221.018, 84.84277
1221.500, 119.3096
1221.982, 138.0801
1222.464, 137.3945
1222.946, 135.1621
1223.428, 135.2891
1223.910, 121.1914
1224.392, 75.64844
1224.875, 46.37012
1225.357, 92.26367
1225.839, 134.5762
1226.321, 101.3301
1226.803, 56.95996
1227.285, 70.33789
1227.767, 111.1895
1228.249, 107.5205
1228.732, 73.99023
1229.214, 73.92480
1229.696, 127.5781
1230.178, 152.4189
1230.660, 143.9795
1231.142, 117.3408
1231.624, 72.15527
1232.106, 38.66113
1232.589, 33.50488
1233.071, 52.78125
1233.553, 104.9395
1234.035, 155.6289
1234.517, 122.8525
1234.999, 49.14355
1235.481, 7.600586
1235.963, 1.841797
1236.445, 17.95898
1236.927, 51.29785
1237.410, 37.56641
1237.892, 0.0000000E+00
##END=



