##NAMES=Muscovite
##RRUFFID=R040104
##IDEAL CHEMISTRY=KAl_2_(Si_3_Al)O_10_(OH)_2_
##LOCALITY=unknown
##OWNER=RRUFF
##SOURCE=University of Arizona Mineral Museum
##DESCRIPTION=Dark green hexagonal tablet
##STATUS=The identification of this mineral has been confirmed by X-ray diffraction and chemical analysis
##URL=rruff.info/R040104
##MEASURED CHEMISTRY=(K_0.91_Na_0.09_)_Σ=1_(Al_1.70_Fe^3+^_0.14_Mg_0.08_Fe^2+^_0.06_Ti_0.02_)_Σ=2_(Si_3.12_Al_0.88_)_Σ=4_O_10_(OH)_2_; OH estimated by charge balance
114.2540, 0.0000000E+00
115.6440, 439.3320
117.0340, 276.0089
118.4240, 409.6890
119.8130, 302.3590
121.2030, 321.3034
122.5920, 403.5576
123.9810, 100.0859
125.3690, 28.38360
126.7580, 31.69369
128.1460, 17.82112
129.5340, 31.21976
130.9220, 75.42506
132.3090, 33.66114
133.6960, 57.73866
135.0830, 47.02434
136.4700, 32.50298
137.8570, 44.65797
139.2430, 113.2713
140.6300, 119.9424
142.0160, 257.7649
143.4010, 360.0567
144.7870, 464.3287
146.1720, 558.7051
147.5570, 734.4750
148.9420, 698.0477
150.3270, 766.6172
151.7110, 784.2460
153.0960, 950.1597
154.4800, 1076.420
155.8630, 1184.934
157.2470, 1291.463
158.6300, 1272.975
160.0130, 1466.192
161.3960, 1646.787
162.7790, 1966.913
164.1610, 2067.977
165.5440, 2231.898
166.9260, 2146.571
168.3080, 2205.293
169.6890, 2191.092
171.0700, 1901.365
172.4520, 1807.750
173.8330, 1818.364
175.2130, 1718.626
176.5940, 1674.983
177.9740, 1635.038
179.3540, 1451.202
180.7340, 1627.465
182.1140, 1682.807
183.4930, 1799.209
184.8720, 2053.635
186.2510, 2272.723
187.6300, 2570.490
189.0080, 2907.910
190.3870, 3239.319
191.7650, 3619.667
193.1430, 3727.916
194.5200, 3817.817
195.8980, 3853.710
197.2750, 3747.021
198.6520, 3726.500
200.0290, 3455.362
201.4050, 3314.242
202.7820, 2991.108
204.1580, 2887.927
205.5340, 2748.660
206.9090, 2664.369
208.2850, 2680.059
209.6600, 2438.689
211.0350, 2377.796
212.4100, 2538.007
213.7840, 2353.826
215.1590, 2576.327
216.5330, 2420.046
217.9070, 2560.477
219.2810, 2272.359
220.6540, 1907.086
222.0270, 1532.897
223.4000, 1120.302
224.7730, 684.9418
226.1460, 526.4456
227.5180, 268.9885
228.8910, 72.28017
230.2630, 53.96631
231.6340, 25.45520
233.0060, 12.46538
234.3770, 34.04200
235.7480, 37.31380
237.1190, 76.39080
238.4900, 69.82877
239.8600, 217.9717
241.2310, 413.1164
242.6010, 621.8339
243.9700, 847.6053
245.3400, 1192.291
246.7090, 1648.833
248.0790, 2393.266
249.4480, 3081.653
250.8160, 4212.002
252.1850, 5536.313
253.5530, 7190.585
254.9210, 9382.796
256.2890, 11912.43
257.6570, 14654.14
259.0240, 17283.71
260.3910, 19123.12
261.7580, 20200.31
263.1250, 20242.25
264.4920, 18852.96
265.8580, 17083.38
267.2240, 14914.47
268.5900, 12558.23
269.9560, 10609.74
271.3210, 8888.719
272.6870, 7261.084
274.0520, 6037.799
275.4160, 4829.121
276.7810, 3974.647
278.1460, 3465.736
279.5100, 2668.650
280.8740, 2125.976
282.2370, 1946.708
283.6010, 1475.849
284.9640, 1288.320
286.3270, 999.1915
287.6900, 817.5331
289.0530, 757.7029
290.4160, 531.1546
291.7780, 429.3788
293.1400, 390.3361
294.5020, 320.4423
295.8630, 237.5925
297.2250, 194.7063
298.5860, 174.8702
299.9470, 205.7792
301.3080, 230.7452
302.6680, 201.7647
304.0290, 232.7431
305.3890, 172.7139
306.7490, 253.2673
308.1080, 265.2024
309.4680, 283.1341
310.8270, 402.0613
312.1860, 332.9838
313.5450, 411.9014
314.9030, 418.8141
316.2620, 441.7206
317.6200, 400.6210
318.9780, 412.5115
320.3360, 384.3924
321.6930, 428.2622
323.0510, 365.1207
324.4080, 308.9574
325.7650, 338.7037
327.1210, 266.2701
328.4780, 185.0749
329.8340, 42.03436
331.1900, 54.39478
332.5460, 28.22843
333.9020, 75.56738
335.2570, 44.54797
336.6120, 47.32243
337.9670, 74.48952
339.3220, 94.78447
340.6770, 57.40248
342.0310, 64.95255
343.3850, 50.40076
344.7390, 66.33894
346.0930, 54.52828
347.4460, 1.351845
348.7990, 28.03991
350.1530, 77.14097
351.5050, 163.5151
352.8580, 279.8704
354.2100, 421.7782
355.5630, 561.0771
356.9150, 716.8710
358.2670, 807.7668
359.6180, 968.5903
360.9690, 1101.506
362.3210, 1282.277
363.6720, 1440.022
365.0220, 1631.818
366.3730, 1889.506
367.7230, 1925.167
369.0730, 2243.800
370.4230, 2380.058
371.7730, 2620.759
373.1220, 2919.546
374.4710, 3054.672
375.8210, 3164.304
377.1690, 3430.820
378.5180, 3396.085
379.8660, 3775.297
381.2150, 3702.450
382.5630, 3866.553
383.9100, 4090.625
385.2580, 4202.673
386.6050, 4354.701
387.9520, 4581.694
389.2990, 4906.632
390.6460, 4966.336
391.9920, 5492.871
393.3390, 5575.900
394.6850, 5949.035
396.0310, 6472.225
397.3760, 6869.094
398.7220, 7393.188
400.0670, 7787.450
401.4120, 8484.630
402.7570, 8895.824
404.1010, 9393.304
405.4460, 10029.76
406.7900, 10489.20
408.1340, 10383.62
409.4780, 10830.01
410.8210, 10831.38
412.1650, 10935.73
413.5080, 10609.06
414.8510, 10139.37
416.1930, 9943.663
417.5360, 9301.929
418.8780, 8477.161
420.2200, 8001.344
421.5620, 7322.266
422.9040, 6793.584
424.2450, 6192.648
425.5860, 5755.667
426.9270, 5322.648
428.2680, 4841.592
429.6090, 4582.498
430.9490, 4012.370
432.2890, 3688.207
433.6290, 3551.012
434.9690, 3410.784
436.3090, 2870.524
437.6480, 2748.237
438.9870, 2466.922
440.3260, 2295.584
441.6650, 2211.208
443.0030, 1891.793
444.3420, 1737.345
445.6800, 1709.864
447.0180, 1446.354
448.3550, 1411.817
449.6930, 1323.256
451.0300, 1121.679
452.3670, 1040.093
453.7040, 968.5037
455.0410, 888.9134
456.3770, 816.3369
457.7130, 817.5742
459.0490, 751.0350
460.3850, 774.7318
461.7210, 710.9706
463.0560, 672.3124
464.3910, 720.5654
465.7260, 725.9360
467.0610, 664.0434
468.3950, 816.4695
469.7300, 771.8795
471.0640, 682.2661
472.3980, 840.6289
473.7310, 733.9683
475.0650, 807.2844
476.3980, 604.5768
477.7310, 650.8455
479.0640, 624.0910
480.3970, 693.3126
481.7290, 560.5110
483.0620, 539.6859
484.3940, 590.8377
485.7250, 468.9664
487.0570, 397.0716
488.3890, 477.1555
489.7200, 385.9727
491.0510, 390.0358
492.3820, 236.1865
493.7120, 128.4029
495.0430, 157.6877
496.3730, 137.2380
497.7030, 99.76944
499.0320, 66.40513
500.3620, 16.60865
501.6910, 32.56097
503.0200, 92.05369
504.3490, 108.4223
505.6780, 97.04986
507.0070, 22.30676
508.3350, 12.19411
509.6630, 44.54279
510.9910, 46.54475
512.3190, 10.99161
513.6460, 20.36377
514.9730, 25.27893
516.3000, 49.08133
517.6270, 13.94704
518.9540, 27.84538
520.2800, 6.257706
521.6070, 66.32706
522.9330, 29.94729
524.2590, 18.47629
525.5840, 133.9895
526.9100, 30.51427
528.2350, 94.00537
529.5600, 121.8316
530.8850, 71.03215
532.2090, 94.67809
533.5340, 18.49574
534.8580, 42.72856
536.1820, 59.03496
537.5060, 126.8249
538.8290, 169.6524
540.1520, 116.5079
541.4760, 199.3929
542.7990, 116.3058
544.1210, 192.2484
545.4440, 139.2209
546.7660, 258.2230
548.0880, 255.2575
549.4100, 207.2987
550.7320, 327.3478
552.0530, 344.4080
553.3750, 308.4854
554.6960, 354.5941
556.0170, 365.7323
557.3370, 365.9029
558.6580, 528.0970
559.9780, 543.3348
561.2980, 454.5689
562.6180, 446.7993
563.9380, 613.0202
565.2570, 543.2319
566.5760, 561.4348
567.8950, 600.6283
569.2140, 568.8138
570.5330, 634.9911
571.8510, 642.1588
573.1700, 648.3191
574.4880, 659.4704
575.8050, 669.8705
577.1230, 671.2106
578.4400, 688.8763
579.7580, 691.9966
581.0750, 688.1095
582.3910, 736.2150
583.7080, 706.3139
585.0240, 833.4052
586.3410, 855.4919
587.6570, 816.5705
588.9720, 855.6436
590.2880, 987.7120
591.6030, 1035.774
592.9180, 1152.830
594.2330, 1217.719
595.5480, 1264.927
596.8630, 1355.968
598.1770, 1436.003
599.4910, 1526.035
600.8050, 1600.259
602.1190, 1682.084
603.4320, 1767.103
604.7460, 1878.117
606.0590, 2007.130
607.3720, 2155.136
608.6850, 2195.140
609.9970, 2265.141
611.3090, 2505.138
612.6210, 2482.133
613.9330, 2664.125
615.2450, 2664.113
616.5570, 2809.100
617.8680, 2812.083
619.1790, 2953.068
620.4900, 3119.048
621.8010, 3031.026
623.1110, 3045.003
624.4210, 3207.977
625.7310, 3124.949
627.0410, 3324.921
628.3510, 3181.889
629.6600, 3264.854
630.9700, 3163.817
632.2790, 3300.778
633.5880, 3310.738
634.8960, 3270.696
636.2050, 3217.651
637.5130, 3084.606
638.8210, 3131.561
640.1290, 2975.513
641.4370, 2946.466
642.7440, 2942.416
644.0510, 2762.366
645.3580, 2563.315
646.6650, 2540.265
647.9720, 2419.216
649.2780, 2246.171
650.5840, 2203.106
651.8900, 2082.618
653.1960, 1961.262
654.5020, 1880.888
655.8070, 1754.424
657.1130, 1649.875
658.4180, 1563.039
659.7220, 1529.355
661.0270, 1477.575
662.3310, 1379.474
663.6360, 1290.852
664.9400, 1282.373
666.2440, 1260.142
667.5470, 1192.306
668.8510, 1242.754
670.1540, 1220.414
671.4570, 1375.548
672.7600, 1368.635
674.0620, 1449.665
675.3650, 1576.777
676.6670, 1615.115
677.9690, 1751.530
679.2710, 1878.923
680.5720, 2064.326
681.8740, 2331.518
683.1750, 2588.834
684.4760, 2948.885
685.7770, 3360.206
687.0770, 3825.858
688.3780, 4402.162
689.6780, 5100.070
690.9780, 5847.534
692.2780, 6764.725
693.5770, 7723.964
694.8770, 8763.850
696.1760, 10324.25
697.4750, 11295.63
698.7740, 12748.99
700.0720, 13572.65
701.3710, 14233.96
702.6690, 14134.82
703.9670, 13625.83
705.2650, 12595.65
706.5620, 11672.23
707.8600, 10519.44
709.1570, 9161.204
710.4540, 7710.426
711.7510, 6867.202
713.0470, 5868.861
714.3440, 5145.522
715.6400, 4397.191
716.9360, 3919.867
718.2320, 3399.548
719.5270, 3064.237
720.8230, 2892.931
722.1180, 2610.631
723.4130, 2416.340
724.7080, 2160.055
726.0020, 2029.777
727.2970, 2052.508
728.5910, 2024.246
729.8850, 1883.991
731.1790, 1965.743
732.4720, 2000.505
733.7660, 2090.273
735.0590, 2183.051
736.3520, 2226.836
737.6450, 2523.631
738.9370, 2606.434
740.2300, 2736.246
741.5220, 3039.066
742.8140, 3118.894
744.1060, 3366.734
745.3970, 3588.582
746.6890, 3713.439
747.9800, 3785.305
749.2710, 3788.181
750.5620, 3953.066
751.8530, 3874.963
753.1430, 3935.869
754.4330, 3793.786
755.7230, 3694.711
757.0130, 3582.648
758.3030, 3411.596
759.5920, 3227.552
760.8810, 2976.519
762.1700, 2813.499
763.4590, 2586.488
764.7480, 2379.487
766.0360, 2108.499
767.3250, 1893.520
768.6130, 1758.553
769.9010, 1596.596
771.1880, 1374.652
772.4760, 1246.718
773.7630, 1086.797
775.0500, 1036.885
776.3370, 851.9875
777.6240, 936.1001
778.9100, 786.2241
780.1960, 740.3607
781.4820, 693.5077
782.7680, 642.6672
784.0540, 634.8388
785.3390, 615.1056
786.6250, 592.2172
787.9100, 627.1164
789.1950, 641.6443
790.4790, 679.8760
791.7640, 649.1199
793.0480, 702.3757
794.3320, 686.6441
795.6160, 663.9244
796.9000, 619.2182
798.1830, 715.5234
799.4670, 582.8412
800.7500, 590.1719
802.0330, 562.5146
803.3160, 484.8712
804.5980, 437.2397
805.8800, 396.1787
807.1630, 269.0164
808.4450, 329.4265
809.7260, 274.8504
811.0080, 277.2895
812.2890, 140.7432
813.5700, 98.21384
814.8510, 80.71556
816.1320, 76.26474
817.4130, 65.87007
818.6930, 0.5357820
819.9730, 32.25941
821.2530, 33.04582
822.5330, 17.89481
823.8130, 78.81606
825.0920, 8.800430
826.3710, 98.15413
827.6500, 89.09869
828.9290, 108.0223
830.2080, 89.84082
831.4860, 114.9783
832.7640, 96.20944
834.0420, 4.515121
835.3200, 37.71874
836.5980, 10.97786
837.8750, 31.84204
839.1520, 22.27840
840.4290, 35.64783
841.7060, 21.69476
842.9830, 6.843063
844.2590, 26.09030
845.5360, 22.57190
846.8120, 35.18153
848.0880, 44.23717
849.3630, 18.24927
850.6390, 53.68997
851.9140, 47.12217
853.1890, 111.5400
854.4640, 40.00911
855.7390, 128.4563
857.0130, 136.9720
858.2880, 61.49911
859.5620, 57.59424
860.8360, 51.69865
862.1100, 5.185196
863.3830, 19.91182
864.6560, 5.002487
865.9300, 97.93849
867.2030, 152.9024
868.4750, 184.8944
869.7480, 247.9069
871.0200, 274.9486
872.2920, 275.0184
873.5640, 347.1199
874.8360, 404.2537
876.1080, 429.4160
877.3790, 532.6057
878.6500, 568.8235
879.9220, 628.3597
881.1920, 730.3411
882.4630, 745.6410
883.7330, 792.7717
885.0040, 865.3072
886.2740, 883.6801
887.5440, 991.0648
888.8130, 1077.477
890.0830, 1211.908
891.3520, 1304.365
892.6210, 1404.849
893.8900, 1494.351
895.1590, 1626.871
896.4270, 1743.523
897.6950, 1888.963
898.9640, 2017.551
900.2320, 2205.162
901.4990, 2366.804
902.7670, 2398.470
904.0340, 2686.151
905.3010, 2727.843
906.5680, 2748.570
907.8350, 2859.309
909.1020, 2969.058
910.3680, 2914.833
911.6340, 2997.620
912.9000, 2922.420
914.1660, 3053.234
915.4320, 2916.073
916.6970, 2855.936
917.9620, 2780.661
919.2270, 2580.426
920.4920, 2487.645
921.7570, 2211.583
923.0210, 1974.534
924.2850, 1844.507
925.5500, 1749.495
926.8130, 1575.495
928.0770, 1505.508
929.3410, 1353.532
930.6040, 1262.565
931.8670, 1132.611
933.1300, 1133.668
934.3930, 1072.735
935.6550, 979.8141
936.9180, 994.9032
938.1800, 973.0025
939.4420, 1028.112
940.7030, 1023.232
941.9650, 1066.335
943.2260, 1085.518
944.4880, 1159.679
945.7490, 1211.862
947.0090, 1266.056
948.2700, 1444.257
949.5300, 1462.466
950.7910, 1582.684
952.0510, 1629.911
953.3110, 1724.147
954.5700, 1691.394
955.8300, 1705.654
957.0890, 1840.924
958.3480, 1743.201
959.6070, 1732.487
960.8660, 1747.794
962.1240, 1592.109
963.3830, 1547.433
964.6410, 1537.763
965.8990, 1414.101
967.1560, 1289.445
968.4140, 1277.797
969.6710, 1209.156
970.9280, 1126.287
972.1850, 1111.659
973.4420, 1094.042
974.6990, 1008.433
975.9550, 1028.830
977.2110, 1020.231
978.4680, 950.2858
979.7230, 938.9019
980.9790, 931.3245
982.2340, 955.5922
983.4900, 941.6870
984.7450, 937.9425
986.0000, 865.2166
987.2540, 895.6482
988.5090, 856.0717
989.7630, 794.7865
991.0170, 799.2582
992.2710, 763.7778
993.5250, 747.6385
994.7790, 731.8938
996.0320, 737.7767
997.2850, 725.3732
998.5380, 747.0022
999.7910, 816.2025
1001.044, 720.9047
1002.296, 840.6490
1003.548, 785.1054
1004.800, 849.9452
1006.052, 735.8185
1007.304, 832.1609
1008.555, 826.3804
1009.807, 893.8054
1011.058, 889.0737
1012.309, 806.4354
1013.559, 941.6191
1014.810, 878.2822
1016.060, 932.2755
1017.310, 925.6367
1018.560, 1012.894
1019.810, 977.7394
1021.060, 999.4162
1022.309, 1008.931
1023.558, 995.0594
1024.807, 982.8494
1026.056, 970.1370
1027.305, 915.6666
1028.553, 955.9557
1029.801, 778.2446
1031.049, 840.5425
1032.297, 753.9738
1033.545, 675.0736
1034.793, 625.6001
1036.040, 574.8391
1037.287, 575.2643
1038.534, 535.5517
1039.781, 549.8594
1041.027, 604.1371
1042.274, 586.4089
1043.520, 613.6107
1044.766, 665.2637
1046.012, 712.4388
1047.257, 712.8425
1048.503, 724.0796
1049.748, 762.3088
1050.993, 912.0532
1052.238, 952.2667
1053.483, 1078.754
1054.727, 1089.127
1055.971, 1103.336
1057.216, 1189.638
1058.459, 1260.296
1059.703, 1312.450
1060.947, 1377.481
1062.190, 1434.521
1063.433, 1474.688
1064.676, 1542.021
1065.919, 1582.334
1067.162, 1619.919
1068.404, 1632.146
1069.646, 1686.682
1070.888, 1704.015
1072.130, 1699.403
1073.372, 1751.900
1074.613, 1767.039
1075.855, 1826.494
1077.096, 1833.749
1078.337, 1767.972
1079.578, 1723.376
1080.818, 1908.602
1082.059, 1768.605
1083.299, 1821.653
1084.539, 1776.268
1085.779, 1750.289
1087.018, 1781.462
1088.258, 1766.695
1089.497, 1676.912
1090.736, 1643.725
1091.975, 1678.525
1093.213, 1633.614
1094.452, 1683.473
1095.690, 1671.458
1096.928, 1775.289
1098.166, 1690.035
1099.404, 1783.955
1100.642, 1863.979
1101.879, 1831.016
1103.116, 1895.648
1104.353, 1944.325
1105.590, 2080.426
1106.827, 2119.390
1108.063, 2157.395
1109.299, 2159.266
1110.536, 2214.447
1111.771, 2304.092
1113.007, 2311.797
1114.243, 2313.565
1115.478, 2281.227
1116.713, 2243.127
1117.948, 2194.100
1119.183, 2195.961
1120.418, 2139.973
1121.652, 2154.979
1122.886, 2146.994
1124.120, 1969.024
1125.354, 1842.737
1126.588, 1755.917
1127.821, 1545.839
1129.055, 1373.944
1130.288, 1392.697
1131.521, 1364.716
1132.753, 1293.336
1133.986, 1047.877
1135.218, 1024.152
1136.450, 876.6792
1137.682, 787.9052
1138.914, 627.1449
1140.146, 588.8748
1141.377, 468.9200
1142.609, 433.6975
1143.840, 363.0547
1145.071, 352.1427
1146.301, 181.1058
1147.532, 184.3025
1148.762, 100.5841
1149.992, 94.95428
1151.222, 11.79020
1152.452, 86.65348
1153.682, 51.81437
1154.911, 2.949348
1156.140, 7.380310
1157.369, 20.85665
1158.598, 18.79630
1159.827, 36.23204
1161.055, 41.02205
1162.284, 37.60372
1163.512, 51.81242
1164.740, 52.95686
1165.967, 16.14996
1167.195, 30.89164
1168.422, 7.053856
1169.650, 16.74935
1170.877, 16.18906
1172.103, 24.29805
1173.330, 38.56787
1174.557, 4.742989
1175.783, 4.052032
1177.009, 20.73681
1178.235, 17.27335
1179.461, 4.067863
1180.686, 28.56327
1181.912, 34.02876
1183.137, 7.301407
1184.362, 4.637753
1185.587, 4.203793
1186.811, 14.41251
1188.036, 4.769249
1189.260, 1.977219
1190.484, 11.64080
1191.708, 17.57403
1192.932, 7.512115
1194.155, 6.814816
1195.378, 15.58571
1196.602, 9.862034
1197.825, 13.83148
1199.047, 0.6767940
1200.270, 20.96270
1201.492, 4.455669
1202.715, 38.57216
1203.937, 45.29764
1205.159, 39.01842
1206.380, 15.19315
1207.602, 24.00648
1208.823, 0.7264860
1210.044, 34.68260
1211.265, 10.11469
1212.486, 20.13872
1213.707, 18.69388
1214.927, 23.51284
1216.147, 15.31925
1217.367, 2.936865
1218.587, 13.86827
1219.807, 13.20878
1221.027, 0.6730330
1222.246, 13.55530
1223.465, 27.36010
1224.684, 32.38860
1225.903, 17.87066
1227.121, 33.62873
1228.340, 83.41389
1229.558, 73.09225
1230.776, 13.68158
1231.994, 79.37572
1233.212, 44.02420
1234.429, 37.49757
1235.646, 39.93729
1236.864, 12.34032
1238.081, 0.6964250
1239.297, 62.01134
1240.514, 8.780899
1241.730, 85.75845
1242.947, 121.9515
1244.163, 153.4109
1245.378, 99.61825
1246.594, 73.91518
1247.810, 69.99020
1249.025, 23.00837
1250.240, 22.31089
1251.455, 58.24230
1252.670, 83.13723
1253.885, 72.04276
1255.099, 16.43313
1256.313, 49.75784
1257.527, 224.4990
1258.741, 138.2051
1259.955, 122.7557
1261.168, 146.4857
1262.382, 88.19196
1263.595, 72.76173
1264.808, 93.34286
1266.021, 69.02284
1267.233, 23.58296
1268.446, 68.42814
1269.658, 65.95064
1270.870, 124.0520
1272.082, 56.10694
1273.294, 82.45279
1274.505, 107.8695
1275.716, 46.08701
1276.928, 114.9456
1278.139, 89.09010
1279.349, 66.20121
1280.560, 115.8345
1281.770, 26.98873
1282.981, 79.09171
1284.191, 82.19617
1285.401, 53.20173
1286.610, 131.6444
1287.820, 55.49127
1289.029, 86.39530
1290.239, 144.1793
1291.448, 180.9276
1292.656, 131.6130
1293.865, 120.2438
1295.073, 105.4272
1296.282, 67.38499
1297.490, 67.84373
1298.698, 174.2558
1299.906, 193.6082
1301.113, 121.9213
1302.320, 117.1692
1303.528, 100.3692
1304.735, 143.9120
1305.942, 162.6967
1307.148, 171.0742
1308.355, 185.9674
1309.561, 165.1594
1310.767, 157.4029
1311.973, 154.6745
1313.179, 127.6357
1314.384, 146.0324
1315.590, 81.18251
1316.795, 96.25558
1318.000, 82.80254
1319.205, 119.8200
1320.410, 78.57692
1321.614, 91.58935
1322.819, 19.95918
1324.023, 78.26242
1325.227, 99.85439
1326.431, 59.12266
1327.634, 74.03457
1328.838, 88.94152
1330.041, 20.53495
1331.244, 98.89229
1332.447, 170.7153
1333.650, 106.8146
1334.852, 167.9318
1336.055, 55.01862
1337.257, 40.24862
1338.459, 47.95102
1339.661, 27.40923
1340.862, 39.58799
1342.064, 29.22996
1343.265, 50.69423
1344.466, 27.13194
1345.667, 81.78895
1346.868, 101.1625
1348.068, 100.1397
1349.269, 110.2980
1350.469, 32.63040
1351.669, 17.06153
1352.869, 154.2617
1354.069, 46.06512
1355.268, 65.94246
1356.468, 101.2268
1357.667, 53.42128
1358.866, 82.31982
1360.065, 59.16231
1361.263, 55.60880
1362.462, 54.98865
1363.660, 57.23764
1364.858, 89.48467
1366.056, 75.69028
1367.254, 93.05256
1368.451, 97.09622
1369.649, 87.47289
1370.846, 66.55225
1372.043, 51.36180
1373.240, 67.68779
1374.436, 98.61771
1375.633, 38.82066
1376.829, 39.32102
1378.025, 186.4980
1379.221, 99.21717
1380.417, 114.8246
1381.613, 95.55895
1382.808, 78.12891
1384.003, 11.80864
1385.199, 83.37370
1386.393, 79.73162
1387.588, 2.262861
1388.783, 39.66946
1389.977, 10.85765
1391.171, 51.34775
1392.365, 113.2763
1393.559, 0.9381620
1394.753, 58.11848
1395.946, 92.03976
1397.140, 39.10429
1398.333, 20.17995
1399.526, 101.0778
1400.719, 67.54602
1401.911, 61.23635
1403.104, 3.891189
1404.296, 22.64324
1405.488, 19.74331
1406.680, 75.61180
1407.872, 32.71450
1409.063, 5.730557
1410.255, 19.36151
1411.446, 6.812170
1412.637, 9.735425
1413.828, 6.610339
1415.018, 0.6379820
1416.209, 25.49299
1417.399, 3.883876
1418.589, 39.69928
1419.779, 2.688008
1420.969, 61.78110
1422.159, 52.29425
1423.348, 4.158590
1424.537, 9.552849
1425.726, 12.14199
1426.915, 98.28546
1428.104, 4.527668
1429.293, 60.21611
1430.481, 57.84068
1431.669, 12.79436
1432.857, 33.44423
1434.045, 27.01067
1435.233, 68.60414
1436.420, 121.8831
1437.608, 137.6324
1438.795, 182.7909
1439.982, 189.0284
1441.169, 133.4165
1442.355, 182.4430
1443.542, 170.4990
1444.728, 106.5117
1445.914, 117.0963
1447.100, 76.72668
1448.286, 85.20085
1449.472, 28.73637
1450.657, 38.75269
1451.842, 3.208422
1453.027, 46.66200
1454.212, 46.65030
1455.397, 63.34834
1456.581, 80.15018
1457.766, 16.36187
1458.950, 36.14932
1460.134, 78.24967
1461.318, 14.34939
1462.501, 12.63608
1463.685, 0.0000000E+00
##END=



