##NAMES=Muscovite
##RRUFFID=R040124
##IDEAL CHEMISTRY=KAl_2_(Si_3_Al)O_10_(OH)_2_
##LOCALITY=Garnet Hill, Pennsylvania, USA
##OWNER=RRUFF
##SOURCE=Bob Downs
##DESCRIPTION=Grayish green mica book
##STATUS=The identification of this mineral has been confirmed by X-ray diffraction and chemical analysis
##URL=rruff.info/R040124
##MEASURED CHEMISTRY=(K_0.90_Na_0.07_)(Al_0.86_Fe_0.10_Mg_0.04_)_2_(Si_0.76_Al_0.24_)_4_O_10_((OH)_0.99_F_0.01_)_2_
143.3943, 0.0000000E+00
143.8764, 6.752930
144.3585, 5.898560
144.8407, 0.5378420
145.3228, 4.524048
145.8049, 3.636353
146.2870, 7.539185
146.7691, 39.08167
147.2512, 65.24500
147.7334, 77.73511
148.2155, 71.35242
148.6976, 74.48767
149.1797, 97.13855
149.6618, 126.1759
150.1439, 144.0249
150.6261, 134.5000
151.1082, 127.7029
151.5903, 131.2078
152.0724, 148.0898
152.5545, 168.4845
153.0366, 194.9832
153.5188, 224.2166
154.0009, 249.4681
154.4830, 273.2017
154.9651, 290.5632
155.4472, 299.0593
155.9293, 291.1692
156.4115, 284.9254
156.8936, 281.6965
157.3757, 282.2948
157.8578, 289.5029
158.3399, 306.8330
158.8221, 329.4021
159.3042, 354.2930
159.7863, 389.4825
160.2684, 418.3536
160.7505, 429.5175
161.2326, 425.9174
161.7148, 429.2322
162.1969, 458.0283
162.6790, 494.6399
163.1611, 521.6089
163.6432, 527.5349
164.1253, 527.2260
164.6075, 526.5989
165.0896, 525.9158
165.5717, 527.7205
166.0538, 537.4850
166.5359, 549.5789
167.0180, 556.2578
167.5002, 547.8407
167.9823, 536.9304
168.4644, 534.9506
168.9465, 544.2465
169.4286, 551.9773
169.9107, 549.5659
170.3929, 538.6912
170.8750, 522.8643
171.3571, 496.5706
171.8392, 469.5154
172.3213, 454.5917
172.8034, 456.9946
173.2856, 459.9126
173.7677, 442.8577
174.2498, 411.6301
174.7319, 386.3630
175.2140, 388.1182
175.6961, 401.4570
176.1783, 401.0236
176.6604, 377.1166
177.1425, 347.3386
177.6246, 333.1702
178.1067, 333.1178
178.5888, 336.7284
179.0710, 334.7922
179.5531, 330.9279
180.0352, 333.3964
180.5173, 345.0981
180.9994, 363.0784
181.4815, 382.9940
181.9637, 405.0195
182.4458, 428.4558
182.9279, 453.6682
183.4100, 480.2043
183.8921, 506.5454
184.3742, 530.5027
184.8564, 554.8213
185.3385, 586.2417
185.8206, 626.0920
186.3027, 669.7563
186.7848, 710.7615
187.2669, 750.4236
187.7491, 796.0554
188.2312, 849.4095
188.7133, 904.2368
189.1954, 953.3081
189.6775, 998.3154
190.1596, 1039.158
190.6418, 1084.162
191.1239, 1132.937
191.6060, 1178.233
192.0881, 1220.812
192.5702, 1259.309
193.0524, 1278.973
193.5345, 1276.444
194.0166, 1263.645
194.4987, 1260.530
194.9808, 1268.140
195.4629, 1269.699
195.9451, 1255.258
196.4272, 1224.985
196.9093, 1195.319
197.3914, 1166.324
197.8735, 1138.630
198.3556, 1114.380
198.8378, 1094.346
199.3199, 1073.366
199.8020, 1047.283
200.2841, 1015.675
200.7662, 988.9771
201.2483, 966.9878
201.7305, 949.1604
202.2126, 927.6028
202.6947, 900.2385
203.1768, 877.0283
203.6589, 866.1603
204.1410, 869.8452
204.6232, 870.5219
205.1053, 866.8346
205.5874, 859.0598
206.0695, 845.1838
206.5516, 820.3875
207.0337, 802.1234
207.5159, 805.6628
207.9980, 836.4600
208.4801, 862.2664
208.9622, 877.6899
209.4443, 885.1396
209.9264, 896.1930
210.4086, 911.1412
210.8907, 929.1909
211.3728, 951.1810
211.8549, 980.3422
212.3370, 1002.261
212.8191, 1011.132
213.3013, 1009.585
213.7834, 1023.722
214.2655, 1063.570
214.7476, 1103.065
215.2297, 1118.704
215.7118, 1104.565
216.1940, 1083.256
216.6761, 1058.843
217.1582, 1031.069
217.6403, 994.9209
218.1224, 948.1310
218.6045, 896.5747
219.0867, 846.5195
219.5688, 801.6472
220.0509, 749.7729
220.5330, 685.8208
221.0151, 608.4417
221.4972, 545.5234
221.9794, 503.6143
222.4615, 468.2559
222.9436, 422.1670
223.4257, 357.2117
223.9078, 297.7590
224.3899, 251.3804
224.8721, 218.6340
225.3542, 183.3264
225.8363, 142.8918
226.3184, 102.0461
226.8005, 65.12720
227.2827, 31.03345
227.7648, 3.629639
228.2469, 14.85730
228.7290, 23.14941
229.2111, 32.06384
229.6932, 41.93652
230.1754, 52.06421
230.6575, 62.23450
231.1396, 74.92761
231.6217, 83.14087
232.1038, 84.99976
232.5859, 80.20459
233.0681, 69.70825
233.5502, 48.46497
234.0323, 25.18372
234.5144, 13.81274
234.9965, 24.63416
235.4786, 30.03711
235.9608, 20.20410
236.4429, 8.705078
236.9250, 33.81128
237.4071, 51.40527
237.8892, 67.33057
238.3713, 90.41089
238.8535, 120.3062
239.3356, 158.0396
239.8177, 205.5127
240.2998, 266.3723
240.7819, 323.9419
241.2640, 376.2019
241.7462, 428.0198
242.2283, 487.4932
242.7104, 556.7124
243.1925, 626.0955
243.6746, 691.5701
244.1567, 748.4304
244.6389, 821.0686
245.1210, 912.5364
245.6031, 1017.610
246.0852, 1125.824
246.5673, 1232.461
247.0494, 1350.396
247.5316, 1485.328
248.0137, 1641.306
248.4958, 1800.024
248.9779, 1952.431
249.4600, 2112.006
249.9421, 2300.595
250.4243, 2526.198
250.9064, 2768.491
251.3885, 3019.959
251.8706, 3279.720
252.3527, 3553.838
252.8348, 3833.065
253.3170, 4131.340
253.7991, 4478.768
254.2812, 4890.678
254.7633, 5315.248
255.2454, 5736.423
255.7275, 6150.643
256.2097, 6562.394
256.6918, 6973.996
257.1739, 7376.883
257.6560, 7765.565
258.1381, 8157.012
258.6202, 8500.643
259.1024, 8783.272
259.5845, 9002.940
260.0666, 9161.017
260.5487, 9263.531
261.0308, 9299.161
261.5129, 9247.568
261.9951, 9100.981
262.4772, 8886.213
262.9593, 8608.807
263.4414, 8257.259
263.9235, 7884.118
264.4056, 7478.593
264.8878, 7056.988
265.3699, 6634.791
265.8520, 6202.388
266.3341, 5786.505
266.8162, 5392.003
267.2983, 5022.696
267.7805, 4672.068
268.2626, 4342.662
268.7447, 4032.521
269.2268, 3736.892
269.7089, 3452.301
270.1910, 3192.496
270.6732, 2964.856
271.1553, 2773.720
271.6374, 2582.552
272.1195, 2388.051
272.6016, 2198.569
273.0837, 2034.126
273.5659, 1895.584
274.0480, 1769.875
274.5301, 1651.658
275.0122, 1541.568
275.4943, 1439.257
275.9764, 1344.657
276.4586, 1257.531
276.9407, 1178.455
277.4228, 1109.538
277.9049, 1044.342
278.3870, 979.3556
278.8691, 914.4862
279.3513, 859.5426
279.8334, 819.0671
280.3155, 783.6392
280.7976, 736.2374
281.2798, 674.0579
281.7619, 615.2954
282.2440, 569.3484
282.7261, 535.5002
283.2082, 501.8555
283.6903, 467.5740
284.1725, 432.8386
284.6546, 396.2852
285.1367, 358.3181
285.6188, 324.5133
286.1009, 295.3179
286.5830, 271.9650
287.0652, 262.7698
287.5473, 270.1733
288.0294, 275.7799
288.5115, 252.9226
288.9936, 205.6914
289.4757, 168.4390
289.9579, 159.3555
290.4400, 167.3036
290.9221, 159.4253
291.4042, 135.2638
291.8863, 107.5698
292.3684, 85.57678
292.8506, 68.67310
293.3327, 58.08557
293.8148, 57.46472
294.2969, 62.79565
294.7790, 65.34546
295.2611, 65.10938
295.7433, 62.28748
296.2254, 56.33997
296.7075, 47.79297
297.1896, 38.36938
297.6717, 28.06677
298.1538, 17.34192
298.6360, 3.551392
299.1181, 12.55920
299.6002, 20.63098
300.0823, 6.487061
300.5644, 20.57275
301.0465, 42.99487
301.5287, 54.99133
302.0108, 61.99524
302.4929, 71.45544
302.9750, 82.18433
303.4571, 86.85156
303.9392, 72.97595
304.4214, 52.38135
304.9035, 41.26758
305.3856, 46.73279
305.8677, 57.83984
306.3498, 66.10254
306.8319, 72.22668
307.3141, 78.88660
307.7962, 89.82251
308.2783, 100.9412
308.7604, 108.3829
309.2425, 110.9546
309.7246, 110.2881
310.2068, 101.0276
310.6889, 88.53711
311.1710, 86.54419
311.6531, 119.7576
312.1352, 154.9806
312.6173, 163.8845
313.0995, 132.2465
313.5816, 102.4955
314.0637, 95.22607
314.5458, 103.5250
315.0279, 114.1996
315.5100, 127.0441
315.9922, 137.2844
316.4743, 141.7308
316.9564, 138.8882
317.4385, 134.9463
317.9206, 130.8374
318.4027, 127.0995
318.8849, 124.4861
319.3670, 124.2905
319.8491, 124.2919
320.3312, 124.1838
320.8133, 124.2635
321.2954, 122.1440
321.7776, 114.1624
322.2597, 104.9681
322.7418, 99.52588
323.2239, 104.8922
323.7060, 107.7372
324.1881, 105.8351
324.6703, 99.20166
325.1524, 86.36182
325.6345, 55.95093
326.1166, 25.39087
326.5987, 8.490356
327.0808, 17.31226
327.5630, 25.75305
328.0451, 32.65723
328.5272, 37.80786
329.0093, 36.07483
329.4914, 21.39160
329.9735, 5.386353
330.4557, 4.187012
330.9378, 3.312134
331.4199, 3.008179
331.9020, 4.424927
332.3841, 7.124023
332.8662, 8.568115
333.3484, 6.751221
333.8305, 6.709717
334.3126, 12.75183
334.7947, 29.35181
335.2768, 36.61890
335.7589, 27.43628
336.2411, 11.76196
336.7232, 19.51636
337.2053, 61.63403
337.6874, 95.07837
338.1695, 92.78845
338.6516, 48.41089
339.1338, 26.14746
339.6159, 32.84961
340.0980, 53.00354
340.5801, 61.17554
341.0622, 56.55737
341.5443, 47.81641
342.0265, 35.90991
342.5086, 21.78076
342.9907, 14.30627
343.4728, 14.61780
343.9549, 17.41443
344.4370, 16.71277
344.9192, 12.73462
345.4013, 7.310791
345.8834, 0.6707760
346.3655, 6.787842
346.8476, 13.38818
347.3297, 19.04370
347.8119, 25.40930
348.2940, 32.79102
348.7761, 41.94739
349.2582, 55.10010
349.7403, 74.58118
350.2225, 96.92786
350.7046, 118.1919
351.1867, 138.4617
351.6688, 156.8875
352.1509, 171.2322
352.6331, 183.8102
353.1152, 198.3481
353.5973, 216.6204
354.0794, 235.2545
354.5615, 250.9413
355.0436, 264.4136
355.5258, 277.8462
356.0079, 288.8286
356.4900, 301.8882
356.9721, 322.9165
357.4542, 356.8010
357.9363, 388.6663
358.4185, 408.5244
358.9006, 420.0032
359.3827, 430.4211
359.8648, 436.8542
360.3469, 447.7258
360.8290, 468.2642
361.3112, 499.9055
361.7933, 534.6077
362.2754, 575.9246
362.7575, 616.9519
363.2396, 650.3333
363.7217, 665.1111
364.2039, 680.9031
364.6860, 702.7095
365.1681, 730.8237
365.6502, 760.6804
366.1323, 797.6218
366.6144, 832.8374
367.0966, 860.2795
367.5787, 870.9087
368.0608, 884.2297
368.5429, 900.7480
369.0250, 920.7795
369.5071, 945.9788
369.9893, 982.5205
370.4714, 1016.932
370.9535, 1041.476
371.4356, 1047.664
371.9177, 1063.646
372.3998, 1095.477
372.8820, 1134.490
373.3641, 1159.960
373.8462, 1167.037
374.3283, 1173.029
374.8104, 1184.645
375.2925, 1202.496
375.7747, 1219.736
376.2568, 1235.724
376.7389, 1252.663
377.2210, 1275.843
377.7031, 1306.155
378.1852, 1329.192
378.6674, 1336.235
379.1495, 1332.740
379.6316, 1344.253
380.1137, 1371.869
380.5958, 1403.668
381.0779, 1428.745
381.5601, 1448.471
382.0422, 1467.196
382.5243, 1484.821
383.0064, 1503.946
383.4885, 1532.310
383.9706, 1568.449
384.4528, 1599.698
384.9349, 1611.723
385.4170, 1615.942
385.8991, 1631.319
386.3812, 1661.126
386.8633, 1701.247
387.3455, 1754.114
387.8276, 1814.023
388.3097, 1869.707
388.7918, 1913.386
389.2739, 1952.222
389.7560, 1990.674
390.2382, 2028.794
390.7203, 2069.315
391.2024, 2117.747
391.6845, 2167.948
392.1666, 2213.240
392.6487, 2236.517
393.1309, 2267.591
393.6130, 2322.483
394.0951, 2399.948
394.5772, 2475.913
395.0593, 2547.759
395.5414, 2611.523
396.0236, 2665.877
396.5057, 2686.479
396.9878, 2730.477
397.4699, 2816.374
397.9520, 2928.954
398.4341, 3022.764
398.9163, 3090.583
399.3984, 3148.643
399.8805, 3200.132
400.3626, 3238.257
400.8447, 3291.217
401.3268, 3367.620
401.8090, 3451.504
402.2911, 3522.595
402.7732, 3578.508
403.2553, 3626.472
403.7374, 3665.868
404.2195, 3697.108
404.7017, 3735.095
405.1838, 3783.916
405.6659, 3828.753
406.1480, 3855.527
406.6301, 3864.233
407.1122, 3866.415
407.5944, 3863.907
408.0765, 3856.244
408.5586, 3843.946
409.0407, 3826.916
409.5228, 3800.281
410.0049, 3756.402
410.4871, 3700.669
410.9692, 3649.502
411.4513, 3606.561
411.9334, 3559.393
412.4155, 3488.831
412.8976, 3400.547
413.3798, 3314.038
413.8619, 3241.649
414.3440, 3171.927
414.8261, 3092.814
415.3082, 3003.621
415.7903, 2907.494
416.2725, 2793.354
416.7546, 2677.598
417.2367, 2576.910
417.7188, 2515.681
418.2009, 2452.293
418.6830, 2364.526
419.1652, 2258.088
419.6473, 2157.385
420.1294, 2072.447
420.6115, 1993.122
421.0937, 1911.412
421.5758, 1821.704
422.0579, 1743.186
422.5400, 1688.640
423.0221, 1644.484
423.5042, 1586.997
423.9864, 1497.970
424.4685, 1415.874
424.9506, 1349.301
425.4327, 1300.232
425.9148, 1252.869
426.3969, 1207.389
426.8791, 1163.436
427.3612, 1121.754
427.8433, 1083.783
428.3254, 1043.889
428.8075, 1001.205
429.2896, 956.2092
429.7718, 910.1689
430.2539, 862.0137
430.7360, 817.8733
431.2181, 783.6536
431.7002, 758.5991
432.1823, 730.1216
432.6645, 695.8701
433.1466, 663.8586
433.6287, 650.0437
434.1108, 650.4949
434.5929, 645.3818
435.0750, 623.2100
435.5572, 591.8804
436.0393, 566.0605
436.5214, 545.3899
437.0035, 522.0662
437.4856, 482.5544
437.9677, 439.0085
438.4499, 410.0205
438.9320, 407.4663
439.4141, 408.2927
439.8962, 395.0535
440.3783, 372.3079
440.8604, 351.3948
441.3426, 337.5286
441.8247, 327.3853
442.3068, 320.2583
442.7889, 318.7734
443.2710, 310.1921
443.7531, 286.1831
444.2353, 256.9070
444.7174, 231.5808
445.1995, 214.5447
445.6816, 198.4983
446.1637, 181.9019
446.6458, 165.6831
447.1280, 153.5580
447.6101, 147.1636
448.0922, 142.7997
448.5743, 137.3676
449.0564, 127.1227
449.5385, 125.4681
450.0207, 138.4510
450.5028, 155.4878
450.9849, 152.8485
451.4670, 126.6208
451.9491, 103.3322
452.4312, 93.51697
452.9134, 95.18005
453.3955, 97.00513
453.8776, 99.02502
454.3597, 98.79639
454.8418, 91.95056
455.3239, 80.66663
455.8061, 73.42859
456.2882, 70.18408
456.7703, 73.02783
457.2524, 92.54065
457.7345, 123.6659
458.2166, 145.6470
458.6988, 139.9276
459.1809, 122.7931
459.6630, 110.7219
460.1451, 103.3069
460.6272, 104.2252
461.1093, 124.6859
461.5915, 152.1003
462.0736, 170.3962
462.5557, 167.4797
463.0378, 162.3124
463.5199, 161.8993
464.0020, 165.5651
464.4842, 168.4728
464.9663, 163.5732
465.4484, 161.8899
465.9305, 170.2959
466.4126, 201.9966
466.8947, 221.2062
467.3769, 222.4355
467.8590, 213.7928
468.3411, 208.4490
468.8232, 209.1068
469.3053, 207.4368
469.7874, 199.7012
470.2696, 186.4404
470.7517, 178.9458
471.2338, 178.0961
471.7159, 180.5732
472.1980, 184.0027
472.6801, 188.3867
473.1623, 193.6595
473.6444, 200.3306
474.1265, 206.9192
474.6086, 212.9526
475.0907, 217.6425
475.5728, 215.8920
476.0550, 198.6333
476.5371, 175.3644
477.0192, 161.2688
477.5013, 156.7908
477.9834, 158.1589
478.4655, 168.5032
478.9477, 181.0878
479.4298, 186.6759
479.9119, 177.1809
480.3940, 166.9036
480.8761, 161.8738
481.3582, 161.7572
481.8404, 165.7592
482.3225, 185.6082
482.8046, 199.6282
483.2867, 195.4833
483.7688, 165.2682
484.2509, 140.7787
484.7331, 126.2307
485.2152, 117.9083
485.6973, 112.1713
486.1794, 108.4534
486.6615, 108.8556
487.1436, 117.2347
487.6258, 130.1370
488.1079, 129.1349
488.5900, 109.1527
489.0721, 89.29993
489.5542, 81.65186
490.0363, 86.29333
490.5185, 86.02820
491.0006, 79.42041
491.4827, 71.28699
491.9648, 69.55579
492.4470, 72.66479
492.9291, 71.80090
493.4112, 61.75916
493.8933, 48.09241
494.3754, 40.11292
494.8575, 36.90015
495.3397, 33.22644
495.8218, 21.62329
496.3039, 9.597412
496.7860, 7.392456
497.2681, 19.71912
497.7502, 28.82178
498.2324, 19.26038
498.7145, 2.502319
499.1966, 6.057861
499.6787, 13.95251
500.1608, 26.95911
500.6429, 15.26282
501.1251, 18.99133
501.6072, 38.66321
502.0893, 30.37146
502.5714, 16.82117
503.0535, 7.677368
503.5356, 1.673584
504.0178, 4.112183
504.4999, 20.17090
504.9820, 39.93811
505.4641, 48.52563
505.9462, 44.68738
506.4283, 35.50464
506.9105, 19.56860
507.3926, 0.6107180
507.8747, 5.547241
508.3568, 1.523193
508.8389, 13.73962
509.3210, 30.03137
509.8032, 46.94873
510.2853, 54.19775
510.7674, 49.29004
511.2495, 39.88489
511.7316, 30.12781
512.2137, 21.82996
512.6959, 18.77417
513.1780, 31.28223
513.6601, 42.21350
514.1422, 37.61414
514.6243, 19.70203
515.1064, 4.300781
515.5886, 8.065430
516.0707, 12.05505
516.5528, 1.823120
517.0349, 37.44409
517.5170, 61.59705
517.9991, 57.64478
518.4813, 39.62903
518.9634, 24.18787
519.4455, 9.949707
519.9276, 0.8654790
520.4097, 0.5400390
520.8918, 4.316895
521.3740, 5.989502
521.8561, 4.172974
522.3382, 0.1791990
522.8203, 5.741943
523.3024, 13.42456
523.7845, 21.78076
524.2667, 31.56482
524.7488, 39.05212
525.2309, 37.64160
525.7130, 29.83618
526.1951, 24.24585
526.6772, 23.42712
527.1594, 26.64978
527.6415, 34.39038
528.1236, 45.85205
528.6057, 57.77808
529.0878, 71.78113
529.5699, 83.13318
530.0521, 86.26562
530.5342, 77.90930
531.0163, 73.33142
531.4984, 79.09778
531.9805, 90.36963
532.4626, 102.0043
532.9448, 118.4702
533.4269, 128.9678
533.9090, 130.4258
534.3911, 124.8376
534.8732, 118.8313
535.3553, 108.7186
535.8375, 105.3140
536.3196, 117.8160
536.8017, 147.9972
537.2838, 157.0144
537.7659, 140.0178
538.2480, 118.1512
538.7302, 115.5869
539.2123, 129.6299
539.6944, 142.6133
540.1765, 152.4681
540.6586, 156.3894
541.1407, 145.1084
541.6229, 123.2389
542.1050, 107.1970
542.5871, 108.0461
543.0692, 117.1730
543.5513, 129.5120
544.0334, 144.5560
544.5156, 155.9891
544.9977, 158.5359
545.4798, 157.5796
545.9619, 157.1573
546.4440, 156.9974
546.9261, 158.9479
547.4083, 163.3427
547.8904, 170.0695
548.3725, 179.4147
548.8546, 197.0430
549.3367, 207.9431
549.8188, 206.7172
550.3010, 194.5310
550.7831, 184.5280
551.2652, 176.5587
551.7473, 171.2520
552.2294, 169.3981
552.7115, 170.8120
553.1937, 174.3182
553.6758, 180.2023
554.1579, 186.1786
554.6400, 187.4155
555.1221, 186.5137
555.6042, 190.7142
556.0864, 208.3474
556.5685, 226.0424
557.0506, 228.6301
557.5327, 220.4792
558.0148, 213.8827
558.4969, 218.1340
558.9791, 221.7473
559.4612, 216.8086
559.9433, 201.5247
560.4254, 194.0538
560.9075, 203.8262
561.3896, 218.7328
561.8718, 227.8824
562.3539, 227.8492
562.8360, 225.2314
563.3181, 220.8688
563.8002, 215.8496
564.2823, 211.2689
564.7645, 207.6051
565.2466, 204.6692
565.7287, 200.8127
566.2108, 195.9296
566.6929, 194.4730
567.1750, 196.4875
567.6572, 194.4746
568.1393, 176.8788
568.6214, 153.0603
569.1035, 142.6631
569.5856, 151.3633
570.0677, 162.5066
570.5499, 161.7357
571.0320, 153.1832
571.5141, 145.0841
571.9962, 144.2725
572.4783, 143.4298
572.9604, 137.9347
573.4426, 128.7001
573.9247, 121.3220
574.4068, 116.9131
574.8889, 111.3574
575.3710, 104.8209
575.8531, 98.94849
576.3353, 95.61987
576.8174, 95.91162
577.2995, 96.64331
577.7816, 92.95410
578.2637, 83.38770
578.7458, 79.92310
579.2280, 86.23096
579.7101, 96.73193
580.1922, 102.5354
580.6743, 103.9038
581.1564, 101.7239
581.6385, 92.28174
582.1207, 81.53687
582.6028, 77.06421
583.0849, 78.46411
583.5670, 83.16919
584.0491, 93.50391
584.5313, 104.2322
585.0134, 110.3547
585.4955, 108.6946
585.9776, 110.5549
586.4597, 124.4609
586.9418, 140.8142
587.4240, 148.2056
587.9061, 135.8562
588.3882, 131.5823
588.8703, 143.4448
589.3524, 163.9014
589.8345, 167.8435
590.3167, 149.5061
590.7988, 136.9656
591.2809, 144.5105
591.7630, 168.2446
592.2451, 188.4373
592.7272, 204.9700
593.2094, 220.8511
593.6915, 242.3096
594.1736, 264.1421
594.6557, 274.0388
595.1378, 266.7410
595.6199, 260.5986
596.1021, 273.9131
596.5842, 295.8220
597.0663, 310.9021
597.5485, 307.0205
598.0306, 302.6335
598.5127, 299.2554
598.9948, 299.0476
599.4769, 311.1216
599.9590, 343.8884
600.4412, 379.4451
600.9233, 413.6709
601.4054, 447.2356
601.8875, 470.8984
602.3696, 481.1492
602.8517, 489.0154
603.3339, 506.0173
603.8160, 531.3965
604.2981, 545.9006
604.7802, 543.7529
605.2623, 541.3472
605.7444, 565.9189
606.2266, 609.2939
606.7087, 647.0425
607.1908, 666.5522
607.6729, 679.7117
608.1550, 695.4492
608.6371, 712.9480
609.1193, 729.9771
609.6014, 746.2825
610.0835, 760.8367
610.5656, 772.2222
611.0477, 779.9058
611.5298, 789.2703
612.0120, 802.7097
612.4941, 815.6765
612.9762, 825.0388
613.4583, 830.3423
613.9404, 833.6570
614.4225, 834.1299
614.9047, 834.2039
615.3868, 835.2859
615.8689, 837.9028
616.3510, 850.2295
616.8331, 881.0229
617.3152, 914.3586
617.7974, 922.3972
618.2795, 910.5457
618.7616, 900.4539
619.2437, 909.6230
619.7258, 920.9197
620.2079, 919.8640
620.6901, 905.8135
621.1722, 893.8369
621.6543, 889.1997
622.1364, 888.2979
622.6185, 888.8066
623.1006, 889.5759
623.5828, 894.3892
624.0649, 907.2773
624.5470, 920.5188
625.0291, 923.6760
625.5112, 914.5129
625.9933, 907.8274
626.4755, 907.9041
626.9576, 909.7463
627.4397, 899.0054
627.9218, 878.0117
628.4039, 864.5696
628.8860, 875.1179
629.3682, 894.2817
629.8503, 900.7673
630.3324, 895.8645
630.8145, 889.6748
631.2966, 886.2234
631.7787, 884.9231
632.2609, 886.9258
632.7430, 894.8457
633.2251, 896.2205
633.7072, 883.1445
634.1893, 865.8420
634.6714, 852.7607
635.1536, 846.3093
635.6357, 839.1226
636.1178, 831.9441
636.5999, 822.5708
637.0820, 803.6472
637.5641, 774.5667
638.0463, 753.9792
638.5284, 752.0049
639.0105, 758.4912
639.4926, 755.8857
639.9747, 744.0981
640.4568, 723.0593
640.9390, 675.9841
641.4211, 630.3171
641.9032, 619.5479
642.3853, 645.9243
642.8674, 659.8572
643.3495, 635.0713
643.8317, 595.2322
644.3138, 555.4412
644.7959, 513.4541
645.2780, 479.8784
645.7601, 458.4644
646.2422, 442.2620
646.7244, 421.9084
647.2065, 395.6265
647.6886, 376.0305
648.1707, 367.6030
648.6528, 364.0322
649.1349, 353.0303
649.6171, 335.1870
650.0992, 314.5642
650.5813, 295.2998
651.0634, 272.8950
651.5455, 236.4390
652.0276, 189.2483
652.5098, 150.9236
652.9919, 136.4155
653.4740, 130.4395
653.9561, 124.4253
654.4382, 117.4905
654.9203, 110.7056
655.4025, 107.2310
655.8846, 101.4758
656.3667, 88.98633
656.8488, 66.42700
657.3309, 47.11133
657.8130, 31.88599
658.2952, 19.05688
658.7773, 5.468262
659.2594, 8.603760
659.7415, 17.94141
660.2236, 19.40112
660.7057, 18.54102
661.1879, 24.93701
661.6700, 35.71265
662.1521, 42.74805
662.6342, 34.63208
663.1163, 27.97852
663.5984, 36.81250
664.0806, 58.86450
664.5627, 74.05054
665.0448, 73.10742
665.5269, 67.90259
666.0090, 63.44434
666.4911, 60.16138
666.9733, 54.50293
667.4554, 45.61035
667.9375, 36.03027
668.4196, 27.78882
668.9017, 20.82056
669.3839, 14.37402
669.8660, 8.662109
670.3481, 2.267334
670.8302, 6.956787
671.3123, 18.04932
671.7944, 28.45166
672.2766, 34.22778
672.7587, 44.07837
673.2408, 67.90088
673.7229, 99.40259
674.2050, 126.7168
674.6871, 140.7639
675.1693, 156.4783
675.6514, 177.6340
676.1335, 203.8975
676.6156, 233.7317
677.0977, 268.5063
677.5798, 303.5659
678.0620, 336.3123
678.5441, 367.3022
679.0262, 397.3135
679.5083, 426.1934
679.9904, 460.8027
680.4725, 512.0486
680.9547, 571.0547
681.4368, 619.8030
681.9189, 653.9998
682.4010, 695.3069
682.8831, 763.9001
683.3652, 843.8735
683.8474, 917.8308
684.3295, 970.3772
684.8116, 1035.214
685.2937, 1124.828
685.7758, 1226.200
686.2579, 1320.835
686.7401, 1403.186
687.2222, 1493.053
687.7043, 1592.867
688.1864, 1702.363
688.6685, 1823.854
689.1506, 1956.650
689.6328, 2089.027
690.1149, 2213.680
690.5970, 2337.710
691.0791, 2473.152
691.5612, 2619.218
692.0433, 2767.273
692.5255, 2920.886
693.0076, 3072.051
693.4897, 3211.263
693.9718, 3335.740
694.4539, 3476.830
694.9360, 3665.049
695.4182, 3846.060
695.9003, 3990.726
696.3824, 4087.345
696.8645, 4190.424
697.3466, 4304.507
697.8287, 4413.120
698.3109, 4501.218
698.7930, 4568.968
699.2751, 4618.782
699.7572, 4652.364
700.2393, 4661.621
700.7214, 4630.798
701.2036, 4571.142
701.6857, 4501.626
702.1678, 4442.998
702.6499, 4359.300
703.1320, 4229.308
703.6141, 4064.381
704.0963, 3891.616
704.5784, 3707.673
705.0605, 3522.847
705.5426, 3338.955
706.0247, 3155.113
706.5068, 2971.554
706.9890, 2787.143
707.4711, 2604.571
707.9532, 2421.531
708.4353, 2242.883
708.9174, 2090.715
709.3995, 1962.330
709.8817, 1837.300
710.3638, 1699.503
710.8459, 1561.319
711.3280, 1435.182
711.8101, 1321.601
712.2922, 1217.121
712.7744, 1121.719
713.2565, 1033.748
713.7386, 950.3960
714.2207, 870.2190
714.7028, 798.6599
715.1849, 736.5991
715.6671, 680.4121
716.1492, 622.2812
716.6313, 563.5806
717.1134, 515.0603
717.5955, 480.4985
718.0776, 452.9006
718.5598, 427.0156
719.0419, 401.3704
719.5240, 373.7766
720.0061, 345.5269
720.4882, 313.4858
720.9703, 266.7686
721.4525, 214.4956
721.9346, 178.1824
722.4167, 173.6096
722.8988, 169.7932
723.3809, 162.3320
723.8630, 151.3171
724.3452, 134.6211
724.8273, 110.6172
725.3094, 94.22656
725.7915, 97.04395
726.2736, 110.8757
726.7557, 114.2346
727.2379, 108.2229
727.7200, 101.7583
728.2021, 100.8071
728.6842, 101.7256
729.1663, 99.58813
729.6484, 93.81299
730.1306, 94.72192
730.6127, 112.8833
731.0948, 132.2163
731.5769, 142.4780
732.0590, 139.0271
732.5411, 146.9385
733.0233, 168.5771
733.5054, 196.2729
733.9875, 224.7686
734.4696, 253.7429
734.9517, 279.3320
735.4338, 300.8030
735.9160, 321.5720
736.3981, 344.1096
736.8802, 368.5007
737.3623, 395.1287
737.8444, 425.5637
738.3266, 455.4797
738.8087, 483.0083
739.2908, 509.4204
739.7729, 536.2043
740.2551, 563.2329
740.7372, 591.2363
741.2193, 620.3962
741.7014, 650.4900
742.1835, 683.9058
742.6656, 720.6206
743.1478, 746.7751
743.6299, 753.4629
744.1120, 753.1013
744.5941, 766.8062
745.0762, 790.2122
745.5583, 810.1321
746.0405, 817.7280
746.5226, 822.0181
747.0047, 823.9338
747.4868, 825.3679
747.9689, 837.0747
748.4510, 879.2251
748.9332, 906.6924
749.4153, 898.5828
749.8974, 859.4333
750.3795, 844.9131
750.8616, 857.7507
751.3438, 874.3569
751.8259, 884.4446
752.3080, 886.4189
752.7901, 871.9104
753.2722, 841.9736
753.7543, 815.6953
754.2365, 811.5146
754.7186, 811.4521
755.2007, 802.1709
755.6828, 781.1724
756.1649, 755.7234
756.6470, 719.6077
757.1292, 685.6526
757.6113, 663.2371
758.0934, 657.5054
758.5755, 645.0741
759.0576, 622.9470
759.5397, 596.8076
760.0219, 573.8324
760.5040, 552.9437
760.9861, 529.2664
761.4682, 501.7743
761.9503, 473.6190
762.4324, 447.9209
762.9146, 422.8752
763.3967, 395.1880
763.8788, 359.4370
764.3609, 327.2642
764.8430, 302.8754
765.3251, 283.5338
765.8073, 265.6223
766.2894, 248.8800
766.7715, 232.2129
767.2536, 214.9583
767.7357, 199.7968
768.2178, 194.3191
768.7000, 195.3824
769.1821, 190.0354
769.6642, 172.2302
770.1463, 148.3352
770.6284, 117.4818
771.1105, 86.28088
771.5927, 66.86987
772.0748, 76.00989
772.5569, 82.46082
773.0390, 75.51880
773.5211, 59.79968
774.0032, 48.46667
774.4854, 43.48523
774.9675, 41.89636
775.4496, 41.89502
775.9317, 42.79297
776.4138, 38.78528
776.8959, 31.83240
777.3781, 30.01685
777.8602, 42.88647
778.3423, 57.77588
778.8244, 64.47046
779.3065, 64.14124
779.7886, 62.27856
780.2708, 57.38721
780.7529, 54.68286
781.2350, 55.40356
781.7171, 59.56665
782.1992, 68.78076
782.6813, 85.23291
783.1635, 97.31689
783.6456, 95.15503
784.1277, 84.66235
784.6098, 87.71191
785.0919, 102.7695
785.5740, 114.9270
786.0562, 111.1101
786.5383, 102.8992
787.0204, 99.10571
787.5025, 100.2914
787.9846, 104.3204
788.4667, 113.6671
788.9489, 122.9249
789.4310, 130.2964
789.9131, 135.7910
790.3952, 137.4089
790.8773, 133.9756
791.3594, 132.1631
791.8416, 141.4535
792.3237, 155.6497
792.8058, 154.9011
793.2879, 138.5293
793.7700, 125.4454
794.2521, 134.4729
794.7343, 148.4814
795.2164, 152.1158
795.6985, 140.1190
796.1806, 133.8101
796.6627, 139.7007
797.1448, 146.9747
797.6270, 148.7002
798.1091, 144.2002
798.5912, 140.3320
799.0733, 137.7291
799.5554, 132.2041
800.0375, 114.5620
800.5197, 92.55762
801.0018, 82.98071
801.4839, 89.63843
801.9660, 96.11768
802.4481, 91.59119
802.9302, 83.07812
803.4124, 76.19299
803.8945, 71.17188
804.3766, 69.74170
804.8587, 75.01758
805.3408, 79.77502
805.8229, 76.91614
806.3051, 66.48376
806.7872, 54.50891
807.2693, 40.89343
807.7514, 29.24927
808.2335, 23.91089
808.7156, 22.57068
809.1978, 22.56982
809.6799, 24.78674
810.1620, 23.44763
810.6441, 11.31213
811.1262, 2.807251
811.6083, 10.04175
812.0905, 7.492065
812.5726, 4.480347
813.0547, 1.098999
813.5368, 2.544189
814.0189, 9.265137
814.5010, 17.18445
814.9832, 12.37598
815.4653, 10.28369
815.9474, 31.48645
816.4295, 30.49768
816.9116, 18.93408
817.3937, 11.22742
817.8759, 12.84521
818.3580, 14.65759
818.8401, 14.53955
819.3222, 13.99512
819.8043, 15.32544
820.2864, 20.21497
820.7686, 17.60986
821.2507, 4.167725
821.7328, 9.754272
822.2149, 8.452271
822.6970, 2.904541
823.1791, 11.14258
823.6613, 12.40063
824.1434, 12.94092
824.6255, 17.40271
825.1076, 23.14587
825.5897, 27.14734
826.0718, 30.20715
826.5540, 28.99097
827.0361, 20.53735
827.5182, 11.23425
828.0003, 8.832642
828.4824, 13.27527
828.9645, 20.79578
829.4467, 32.36292
829.9288, 40.37378
830.4109, 30.78894
830.8930, 13.64319
831.3751, 6.093628
831.8572, 20.97241
832.3394, 26.48828
832.8215, 2.689819
833.3036, 39.00513
833.7857, 50.73071
834.2678, 25.92151
834.7499, 11.30212
835.2321, 11.08667
835.7142, 18.37354
836.1963, 26.97571
836.6784, 36.06934
837.1605, 42.39771
837.6426, 45.24146
838.1248, 45.51086
838.6069, 41.19653
839.0890, 35.97253
839.5711, 34.05469
840.0532, 38.31714
840.5353, 42.16406
841.0175, 43.59192
841.4996, 46.05701
841.9817, 55.07837
842.4638, 71.26147
842.9459, 78.20764
843.4280, 72.90393
843.9102, 65.95605
844.3923, 70.37000
844.8744, 80.52161
845.3565, 87.05457
845.8386, 87.17285
846.3207, 87.31970
846.8029, 90.57507
847.2850, 94.68787
847.7671, 97.55725
848.2492, 98.16736
848.7313, 100.8558
849.2134, 106.9772
849.6956, 111.6711
850.1777, 108.3229
850.6598, 99.39929
851.1419, 92.45654
851.6240, 88.04663
852.1061, 89.23682
852.5883, 105.4567
853.0704, 123.9728
853.5525, 132.4336
854.0346, 124.7358
854.5167, 119.8088
854.9988, 119.8490
855.4810, 121.4707
855.9631, 121.5983
856.4452, 120.1622
856.9273, 124.8746
857.4094, 136.5255
857.8915, 145.8037
858.3737, 138.6434
858.8558, 127.1516
859.3379, 129.9816
859.8200, 150.6521
860.3021, 163.8524
860.7842, 151.2515
861.2664, 135.8494
861.7485, 131.2943
862.2306, 139.0070
862.7127, 141.4868
863.1948, 136.8097
863.6769, 135.4766
864.1591, 150.0317
864.6412, 172.3279
865.1233, 181.2227
865.6054, 177.1797
866.0875, 174.5072
866.5696, 184.2958
867.0518, 196.1909
867.5339, 203.0304
868.0160, 204.0942
868.4981, 208.3551
868.9802, 217.2627
869.4623, 225.4536
869.9445, 230.7622
870.4266, 233.8893
870.9087, 237.6177
871.3908, 242.0306
871.8729, 247.3188
872.3550, 255.9639
872.8372, 263.4904
873.3193, 263.3121
873.8014, 256.7061
874.2835, 254.2501
874.7656, 262.7856
875.2477, 271.2838
875.7299, 276.1451
876.2120, 278.4061
876.6941, 282.1326
877.1762, 287.3171
877.6583, 294.7021
878.1404, 307.3771
878.6226, 319.5029
879.1047, 319.9624
879.5869, 313.5406
880.0690, 312.4519
880.5511, 329.5194
881.0332, 342.3046
881.5153, 341.6776
881.9974, 333.9940
882.4796, 330.6108
882.9617, 331.0624
883.4438, 339.3950
883.9259, 359.4092
884.4080, 382.0359
884.8901, 391.7698
885.3723, 392.9950
885.8544, 395.5198
886.3365, 404.0496
886.8186, 411.1816
887.3007, 409.5900
887.7828, 406.3047
888.2650, 412.7668
888.7471, 435.4503
889.2292, 450.2646
889.7113, 450.8020
890.1934, 449.2733
890.6755, 464.7166
891.1577, 491.7754
891.6398, 518.0139
892.1219, 541.3074
892.6040, 559.3605
893.0861, 565.9496
893.5682, 569.5430
894.0504, 577.9517
894.5325, 593.6091
895.0146, 611.2004
895.4967, 632.7866
895.9788, 652.2754
896.4609, 661.7046
896.9431, 663.3864
897.4252, 672.7688
897.9073, 690.8193
898.3894, 708.9513
898.8715, 717.1052
899.3536, 725.3652
899.8358, 745.2184
900.3179, 778.9663
900.8000, 804.5153
901.2821, 818.0978
901.7642, 825.3857
902.2463, 827.4773
902.7285, 825.2129
903.2106, 824.8032
903.6927, 826.2407
904.1748, 829.2158
904.6569, 836.5916
905.1390, 843.1761
905.6212, 839.0933
906.1033, 828.3503
906.5854, 828.3633
907.0675, 857.4917
907.5496, 881.7788
908.0317, 892.0282
908.5139, 892.4012
908.9960, 899.3964
909.4781, 913.0271
909.9602, 908.6335
910.4423, 867.8726
910.9244, 820.8745
911.4066, 807.7362
911.8887, 814.2729
912.3708, 814.2117
912.8529, 793.4535
913.3350, 771.8718
913.8171, 751.6343
914.2993, 733.5172
914.7814, 721.2018
915.2635, 715.8787
915.7456, 698.1497
916.2277, 662.6232
916.7098, 625.6766
917.1920, 612.7151
917.6741, 608.4703
918.1562, 588.7400
918.6383, 543.7249
919.1204, 501.6339
919.6025, 469.7946
920.0847, 444.9596
920.5668, 426.8463
921.0489, 417.2446
921.5310, 399.9019
922.0131, 374.8467
922.4952, 349.7820
922.9774, 331.5876
923.4595, 316.3129
923.9416, 298.0669
924.4237, 276.6852
924.9058, 254.8616
925.3879, 230.0420
925.8701, 209.5005
926.3522, 199.0120
926.8343, 196.2328
927.3164, 182.3807
927.7985, 156.3643
928.2806, 129.7869
928.7628, 106.3383
929.2449, 87.46558
929.7270, 74.09827
930.2091, 66.95813
930.6912, 67.92957
931.1733, 93.04712
931.6555, 109.4805
932.1376, 101.1418
932.6197, 80.69873
933.1018, 69.26355
933.5839, 68.08044
934.0660, 64.70349
934.5482, 55.93689
935.0303, 46.75183
935.5124, 44.04565
935.9945, 44.97034
936.4766, 44.99561
936.9587, 42.43372
937.4409, 40.94116
937.9230, 42.12817
938.4051, 45.13977
938.8872, 48.77307
939.3693, 53.39136
939.8514, 63.40857
940.3336, 80.30981
940.8157, 94.98975
941.2978, 94.03491
941.7799, 88.42310
942.2620, 98.22815
942.7441, 123.5068
943.2263, 143.7513
943.7084, 142.9688
944.1905, 143.7371
944.6726, 157.5103
945.1547, 180.8776
945.6368, 191.7329
946.1190, 189.3500
946.6011, 198.8643
947.0832, 243.2841
947.5653, 292.7280
948.0474, 301.8870
948.5295, 285.3162
949.0117, 276.8809
949.4938, 299.6029
949.9759, 316.9897
950.4580, 319.0663
950.9401, 314.7896
951.4222, 318.2974
951.9044, 329.7808
952.3865, 337.8264
952.8686, 340.1628
953.3507, 340.9373
953.8328, 344.8295
954.3149, 349.6687
954.7971, 352.5524
955.2792, 352.2563
955.7613, 352.4600
956.2434, 355.5518
956.7255, 357.1387
957.2076, 355.1654
957.6898, 349.5522
958.1719, 337.5532
958.6540, 319.1545
959.1361, 299.8842
959.6182, 282.6105
960.1003, 266.7281
960.5825, 250.6633
961.0646, 234.9716
961.5467, 223.1116
962.0288, 217.9998
962.5109, 213.6033
962.9930, 209.7362
963.4752, 204.8529
963.9573, 195.2377
964.4394, 181.1494
964.9215, 162.2125
965.4036, 132.4303
965.8857, 109.6957
966.3679, 118.0177
966.8500, 137.9363
967.3321, 143.6416
967.8142, 122.4257
968.2963, 102.8744
968.7784, 84.63696
969.2606, 69.31030
969.7427, 59.21460
970.2248, 53.57959
970.7069, 50.12854
971.1890, 48.67139
971.6711, 47.79810
972.1533, 47.50293
972.6354, 46.73547
973.1175, 44.99512
973.5996, 42.21472
974.0817, 37.07031
974.5638, 28.15723
975.0460, 22.11584
975.5281, 23.32471
976.0102, 27.58777
976.4923, 25.09082
976.9744, 18.00610
977.4565, 12.71741
977.9387, 18.11023
978.4208, 18.62988
978.9029, 2.888916
979.3850, 17.88892
979.8671, 28.53748
980.3492, 28.10486
980.8314, 25.38562
981.3135, 20.68909
981.7956, 14.60645
982.2777, 5.581177
982.7598, 2.137451
983.2419, 0.9949950
983.7241, 11.55103
984.2062, 18.91113
984.6883, 9.156616
985.1704, 0.1854250
985.6525, 1.517334
986.1346, 11.68665
986.6168, 15.28271
987.0989, 12.41638
987.5810, 6.630127
988.0631, 4.227539
988.5452, 13.59338
989.0273, 14.07336
989.5095, 8.136963
989.9916, 1.984497
990.4737, 4.673340
990.9558, 9.093384
991.4379, 10.70410
991.9200, 10.24451
992.4022, 9.161255
992.8843, 7.057251
993.3664, 0.1961670
993.8485, 13.67041
994.3306, 21.91003
994.8127, 6.427368
995.2949, 12.18286
995.7770, 12.66174
996.2591, 10.10278
996.7412, 17.27454
997.2233, 4.804199
997.7054, 8.718384
998.1876, 13.35876
998.6697, 10.59705
999.1518, 0.3016360
999.6339, 16.52295
1000.116, 26.98792
1000.598, 24.75586
1001.080, 18.11768
1001.562, 4.618164
1002.044, 9.016602
1002.527, 8.655518
1003.009, 6.955200
1003.491, 18.29944
1003.973, 21.37756
1004.455, 20.71399
1004.937, 15.23901
1005.419, 11.85352
1005.901, 22.41541
1006.384, 55.28577
1006.866, 74.01379
1007.348, 67.84741
1007.830, 57.43518
1008.312, 53.53772
1008.794, 55.29395
1009.276, 58.97241
1009.758, 64.13245
1010.240, 67.26624
1010.723, 61.11243
1011.205, 57.43127
1011.687, 67.97046
1012.169, 86.32043
1012.651, 94.72290
1013.133, 89.40784
1013.615, 83.78931
1014.097, 78.85852
1014.580, 76.89917
1015.062, 85.74927
1015.544, 98.56702
1016.026, 100.1304
1016.508, 85.03418
1016.990, 74.27148
1017.472, 79.20447
1017.954, 88.47107
1018.436, 96.33533
1018.919, 102.7222
1019.401, 107.0295
1019.883, 109.2556
1020.365, 110.3463
1020.847, 111.7587
1021.329, 111.5376
1021.811, 103.8152
1022.293, 93.19617
1022.776, 91.32690
1023.258, 113.9203
1023.740, 121.4443
1024.222, 104.3658
1024.704, 80.48523
1025.186, 76.56018
1025.668, 86.57288
1026.150, 88.51526
1026.632, 78.49744
1027.115, 71.92126
1027.597, 84.49377
1028.079, 98.27295
1028.561, 100.6589
1029.043, 92.08679
1029.525, 82.56128
1030.007, 72.02466
1030.489, 62.26489
1030.972, 53.53662
1031.454, 46.74451
1031.936, 45.49805
1032.418, 46.72339
1032.900, 43.88953
1033.382, 26.63257
1033.864, 17.58325
1034.346, 23.09070
1034.828, 31.73499
1035.311, 30.24487
1035.793, 20.03650
1036.275, 9.276978
1036.757, 1.479736
1037.239, 9.263184
1037.721, 6.702271
1038.203, 3.261963
1038.685, 7.890503
1039.167, 19.27002
1039.650, 22.55139
1040.132, 15.94031
1040.614, 8.010864
1041.096, 1.120728
1041.578, 3.155396
1042.060, 0.5649410
1042.542, 6.247925
1043.024, 3.419556
1043.507, 18.26147
1043.989, 31.92346
1044.471, 27.58606
1044.953, 21.11926
1045.435, 26.18201
1045.917, 41.64233
1046.399, 50.45703
1046.881, 52.51746
1047.364, 53.02856
1047.846, 49.92139
1048.328, 51.31934
1048.810, 68.61926
1049.292, 96.43909
1049.774, 109.7566
1050.256, 102.7935
1050.738, 102.0333
1051.220, 114.4052
1051.703, 131.0159
1052.185, 141.5632
1052.667, 146.4835
1053.149, 142.8374
1053.631, 126.8055
1054.113, 123.4049
1054.595, 146.2354
1055.077, 173.7607
1055.559, 196.2848
1056.042, 214.0562
1056.524, 227.5764
1057.006, 237.5708
1057.488, 246.4636
1057.970, 256.5612
1058.452, 265.0510
1058.934, 270.7627
1059.416, 273.4417
1059.899, 270.8003
1060.381, 258.4060
1060.863, 261.1455
1061.345, 282.8602
1061.827, 309.3140
1062.309, 325.5229
1062.791, 337.4409
1063.273, 357.4365
1063.755, 386.0970
1064.238, 400.9529
1064.720, 382.7000
1065.202, 366.3533
1065.684, 360.3225
1066.166, 364.3945
1066.648, 386.0024
1067.130, 419.1821
1067.612, 435.8894
1068.094, 419.0460
1068.577, 403.3500
1069.059, 411.0782
1069.541, 429.2665
1070.023, 446.2135
1070.505, 462.7366
1070.987, 470.8009
1071.469, 469.7683
1071.951, 467.4380
1072.434, 467.2510
1072.916, 470.1611
1073.398, 480.3701
1073.880, 495.0076
1074.362, 504.0013
1074.844, 501.0315
1075.326, 499.4928
1075.808, 501.0729
1076.291, 504.5182
1076.773, 509.0348
1077.255, 513.8959
1077.737, 516.6278
1078.219, 516.7701
1078.701, 516.8831
1079.183, 518.8370
1079.665, 520.4985
1080.147, 520.9175
1080.630, 520.1633
1081.112, 518.5632
1081.594, 516.1296
1082.076, 513.1219
1082.558, 509.1830
1083.040, 505.5833
1083.522, 501.8066
1084.004, 499.7924
1084.486, 503.3762
1084.969, 519.2639
1085.451, 521.4143
1085.933, 506.9624
1086.415, 489.6021
1086.897, 476.8628
1087.379, 469.6688
1087.861, 471.5140
1088.343, 480.8350
1088.826, 491.0210
1089.308, 506.1803
1089.790, 511.9691
1090.272, 501.0514
1090.754, 485.8324
1091.236, 489.6157
1091.718, 507.0144
1092.200, 511.0496
1092.682, 496.7274
1093.165, 483.6499
1093.647, 483.4980
1094.129, 489.3057
1094.611, 498.9376
1095.093, 510.7302
1095.575, 514.9221
1096.057, 510.1024
1096.539, 506.5939
1097.022, 507.7090
1097.504, 511.9944
1097.986, 518.5657
1098.468, 527.8646
1098.950, 540.6912
1099.432, 560.3413
1099.914, 573.0583
1100.396, 577.6711
1100.879, 579.7656
1101.361, 579.0806
1101.843, 579.4089
1102.325, 589.5150
1102.807, 608.0822
1103.289, 629.0764
1103.771, 655.9812
1104.253, 677.0005
1104.735, 689.1327
1105.218, 696.6565
1105.700, 704.6541
1106.182, 712.9788
1106.664, 721.3461
1107.146, 729.7969
1107.628, 734.1140
1108.110, 724.8088
1108.592, 717.6018
1109.074, 722.4320
1109.557, 736.8911
1110.039, 752.6208
1110.521, 769.5457
1111.003, 776.5242
1111.485, 766.3918
1111.967, 757.7778
1112.449, 772.6544
1112.931, 794.8816
1113.414, 808.4563
1113.896, 812.0642
1114.378, 805.2300
1114.860, 782.9514
1115.342, 766.5094
1115.824, 774.9146
1116.306, 791.2432
1116.788, 789.8040
1117.271, 774.8226
1117.753, 755.7007
1118.235, 722.3594
1118.717, 707.0168
1119.199, 720.0540
1119.681, 734.9180
1120.163, 719.3062
1120.645, 685.3596
1121.127, 672.5417
1121.609, 679.9310
1122.092, 680.7065
1122.574, 651.7461
1123.056, 625.3751
1123.538, 615.8315
1124.020, 613.1267
1124.502, 593.2439
1124.984, 559.4321
1125.466, 541.9697
1125.949, 548.7227
1126.431, 552.8829
1126.913, 531.3713
1127.395, 504.2489
1127.877, 487.4810
1128.359, 479.4060
1128.841, 461.4855
1129.323, 432.8030
1129.806, 408.7070
1130.288, 396.8348
1130.770, 387.4424
1131.252, 370.4084
1131.734, 350.0402
1132.216, 331.9441
1132.698, 316.2858
1133.180, 304.9637
1133.662, 299.5558
1134.145, 291.8463
1134.627, 272.6787
1135.109, 250.4323
1135.591, 240.9662
1136.073, 239.1954
1136.555, 232.4667
1137.037, 209.5575
1137.519, 193.4137
1138.001, 188.2128
1138.484, 184.1722
1138.966, 167.6204
1139.448, 146.0239
1139.930, 138.8514
1140.412, 144.7810
1140.894, 147.5107
1141.376, 140.6166
1141.858, 129.3105
1142.341, 113.4800
1142.823, 96.10791
1143.305, 82.94263
1143.787, 73.76953
1144.269, 62.76599
1144.751, 49.16077
1145.233, 42.30750
1145.715, 54.46790
1146.198, 67.39893
1146.680, 72.22729
1147.162, 69.43713
1147.644, 56.86682
1148.126, 35.75488
1148.608, 24.42114
1149.090, 32.31799
1149.572, 41.15454
1150.054, 34.36877
1150.536, 23.94666
1151.019, 23.27771
1151.501, 34.11169
1151.983, 28.62976
1152.465, 5.819824
1152.947, 8.496338
1153.429, 9.317627
1153.911, 30.92285
1154.393, 26.59521
1154.876, 8.088013
1155.358, 4.409424
1155.840, 8.571533
1156.322, 8.196533
1156.804, 2.313843
1157.286, 2.413818
1157.768, 1.401123
1158.250, 7.998779
1158.733, 10.09155
1159.215, 8.571655
1159.697, 7.640747
1160.179, 8.781128
1160.661, 8.749268
1161.143, 7.406494
1161.625, 4.101929
1162.107, 5.137451
1162.589, 15.42383
1163.072, 17.05371
1163.554, 9.915649
1164.036, 4.436646
1164.518, 2.947754
1165.000, 4.205566
1165.482, 9.595703
1165.964, 15.00488
1166.446, 9.318115
1166.928, 1.295288
1167.411, 0.4991460
1167.893, 17.30298
1168.375, 26.96790
1168.857, 11.27112
1169.339, 2.503784
1169.821, 2.094116
1170.303, 6.100830
1170.785, 0.7766110
1171.268, 13.00330
1171.750, 18.04968
1172.232, 4.795776
1172.714, 6.990723
1173.196, 7.105103
1173.678, 5.506958
1174.160, 8.513794
1174.642, 15.04761
1175.125, 18.06226
1175.607, 17.86841
1176.089, 16.11987
1176.571, 12.90747
1177.053, 9.172607
1177.535, 5.393311
1178.017, 1.252075
1178.499, 4.808594
1178.981, 12.79871
1179.464, 12.71057
1179.946, 4.827393
1180.428, 4.454346
1180.910, 14.23267
1181.392, 20.89563
1181.874, 19.50916
1182.356, 15.52454
1182.838, 16.82849
1183.320, 22.18298
1183.803, 35.98108
1184.285, 59.39185
1184.767, 73.88367
1185.249, 53.91028
1185.731, 31.46570
1186.213, 32.50232
1186.695, 48.22192
1187.177, 52.49451
1187.660, 44.60034
1188.142, 35.74988
1188.624, 27.59180
1189.106, 20.56055
1189.588, 12.68396
1190.070, 8.081909
1190.552, 12.48792
1191.034, 24.24719
1191.516, 31.51904
1191.999, 34.16980
1192.481, 32.94702
1192.963, 26.85510
1193.445, 21.31860
1193.927, 21.26355
1194.409, 24.94775
1194.891, 34.09985
1195.373, 48.87646
1195.855, 44.91357
1196.338, 19.48279
1196.820, 1.464966
1197.302, 7.593506
1197.784, 5.252075
1198.266, 2.825684
1198.748, 13.13367
1199.230, 23.20325
1199.712, 35.06311
1200.195, 26.06128
1200.677, 8.573242
1201.159, 29.81042
1201.641, 6.317505
1202.123, 28.05505
1202.605, 32.83472
1203.087, 22.38818
1203.569, 21.13928
1204.052, 36.49280
1204.534, 46.48547
1205.016, 50.82568
1205.498, 52.02112
1205.980, 51.27014
1206.462, 48.72632
1206.944, 42.80212
1207.426, 35.49133
1207.908, 31.67517
1208.391, 32.27222
1208.873, 34.70557
1209.355, 39.23096
1209.837, 44.70569
1210.319, 48.06409
1210.801, 50.97009
1211.283, 52.56714
1211.765, 52.82605
1212.247, 55.47351
1212.730, 60.38684
1213.212, 62.37354
1213.694, 61.73425
1214.176, 58.35657
1214.658, 52.25635
1215.140, 44.70386
1215.622, 34.31287
1216.104, 22.72473
1216.587, 19.49585
1217.069, 26.72412
1217.551, 33.42041
1218.033, 37.84143
1218.515, 40.60669
1218.997, 47.24487
1219.479, 50.96008
1219.961, 51.99902
1220.443, 48.74219
1220.926, 46.82361
1221.408, 46.22485
1221.890, 48.07068
1222.372, 53.21484
1222.854, 57.33813
1223.336, 55.13770
1223.818, 52.57043
1224.300, 50.99963
1224.782, 49.36523
1225.265, 48.81702
1225.747, 49.19763
1226.229, 54.76819
1226.711, 70.02441
1227.193, 81.89282
1227.675, 67.76770
1228.157, 43.91943
1228.639, 29.52930
1229.122, 28.51428
1229.604, 29.95691
1230.086, 33.07361
1230.568, 40.55774
1231.050, 57.81592
1231.532, 72.53101
1232.014, 60.52014
1232.496, 39.45593
1232.979, 39.66760
1233.461, 65.25793
1233.943, 72.63501
1234.425, 58.36328
1234.907, 46.23145
1235.389, 31.73792
1235.871, 21.98730
1236.353, 27.62634
1236.835, 38.16125
1237.318, 38.72791
1237.800, 27.10986
1238.282, 21.31189
1238.764, 21.77710
1239.246, 19.49451
1239.728, 3.435303
1240.210, 9.588379
1240.692, 1.657837
1241.175, 16.05103
1241.657, 28.42053
1242.139, 35.45129
1242.621, 36.56909
1243.103, 31.43958
1243.585, 27.74353
1244.067, 32.16003
1244.549, 36.73755
1245.031, 34.92993
1245.514, 30.86780
1245.996, 30.46741
1246.478, 34.08069
1246.960, 37.70508
1247.442, 41.14783
1247.924, 41.47742
1248.406, 36.14014
1248.888, 28.64294
1249.370, 17.15088
1249.853, 6.614014
1250.335, 3.810547
1250.817, 8.661499
1251.299, 19.66101
1251.781, 35.52258
1252.263, 44.45325
1252.745, 30.50854
1253.227, 17.06702
1253.710, 8.512695
1254.192, 9.989380
1254.674, 22.48157
1255.156, 41.73755
1255.638, 51.02673
1256.120, 49.89087
1256.602, 45.59167
1257.084, 38.60608
1257.567, 33.82031
1258.049, 34.42468
1258.531, 35.47925
1259.013, 27.66199
1259.495, 15.94482
1259.977, 16.50977
1260.459, 29.42749
1260.941, 39.62708
1261.423, 41.45251
1261.906, 35.39429
1262.388, 17.43005
1262.870, 0.9407960
1263.352, 0.1618650
1263.834, 12.30359
1264.316, 20.39893
1264.798, 22.69031
1265.280, 21.38501
1265.762, 18.08472
1266.245, 11.59827
1266.727, 0.0000000E+00
##END=



