##NAMES=Muscovite
##RRUFFID=R061120
##IDEAL CHEMISTRY=KAl_2_(Si_3_Al)O_10_(OH)_2_
##LOCALITY=Aracuai City,  Minas Gerais, Brazil
##OWNER=RRUFF
##SOURCE=Michael Scott
##DESCRIPTION=Lavender prismatic micaceous crystals
##STATUS=The identification of this mineral has been confirmed by X-ray diffraction and chemical analysis
##URL=rruff.info/R061120
##MEASURED CHEMISTRY=gray phase: (K_0.93_Na_0.07_)_Σ=1_(Al_1.95_Fe^3+^_0.05_)_Σ=2_(Si_3.00_Al_1.00_)O_10_(OH)_2_; OH estimated by charge balance
183.9849, 0.0000000E+00
184.4670, 2.175781
184.9491, 1.070313
185.4312, 56.28516
185.9134, 70.60156
186.3955, 28.35156
186.8776, 6.234375
187.3597, 18.34375
187.8418, 93.41406
188.3239, 161.0117
188.8061, 188.2891
189.2882, 215.5898
189.7703, 292.0508
190.2524, 423.4297
190.7345, 561.3906
191.2166, 669.7266
191.6988, 752.5781
192.1809, 838.1055
192.6630, 931.9180
193.1451, 1032.953
193.6272, 1138.969
194.1093, 1250.383
194.5915, 1366.480
195.0736, 1495.297
195.5557, 1633.473
196.0378, 1752.305
196.5199, 1850.074
197.0020, 1920.285
197.4842, 1958.848
197.9663, 1966.922
198.4484, 1961.617
198.9305, 1956.945
199.4126, 1949.832
199.8947, 1919.855
200.3769, 1847.582
200.8590, 1772.406
201.3411, 1732.449
201.8232, 1720.512
202.3053, 1696.395
202.7874, 1624.625
203.2696, 1516.277
203.7517, 1425.957
204.2338, 1365.766
204.7159, 1313.805
205.1980, 1242.117
205.6801, 1161.641
206.1623, 1109.539
206.6444, 1124.941
207.1265, 1186.207
207.6086, 1244.270
208.0907, 1314.254
208.5728, 1372.469
209.0549, 1378.902
209.5371, 1344.988
210.0192, 1329.926
210.5013, 1368.074
210.9834, 1443.504
211.4655, 1505.953
211.9476, 1537.250
212.4298, 1593.879
212.9119, 1748.301
213.3940, 1940.973
213.8761, 2067.535
214.3582, 2059.570
214.8403, 1971.578
215.3225, 1920.672
215.8046, 1923.195
216.2867, 1919.234
216.7688, 1890.219
217.2509, 1835.992
217.7330, 1749.066
218.2152, 1615.492
218.6973, 1463.672
219.1794, 1339.480
219.6615, 1249.395
220.1436, 1164.430
220.6257, 1071.672
221.1079, 978.8438
221.5900, 896.1133
222.0721, 830.5938
222.5542, 764.5547
223.0363, 668.8125
223.5184, 536.2891
224.0006, 418.1211
224.4827, 341.3320
224.9648, 281.2539
225.4469, 213.7109
225.9290, 132.1250
226.4111, 60.89844
226.8933, 37.64062
227.3754, 65.30078
227.8575, 70.53125
228.3396, 8.417969
228.8217, 62.67969
229.3038, 94.72656
229.7860, 82.92188
230.2681, 56.25391
230.7502, 29.16797
231.2323, 3.007813
231.7144, 1.355469
232.1965, 36.94922
232.6787, 80.19141
233.1608, 107.9570
233.6429, 118.1367
234.1250, 99.05859
234.6071, 22.62109
235.0892, 96.07422
235.5714, 181.3164
236.0535, 212.9297
236.5356, 229.1562
237.0177, 258.8750
237.4998, 298.2188
237.9819, 333.9883
238.4641, 342.7148
238.9462, 343.9297
239.4283, 393.1719
239.9104, 507.7578
240.3925, 632.9961
240.8746, 735.7539
241.3568, 821.8711
241.8389, 892.9805
242.3210, 946.5820
242.8031, 1001.711
243.2852, 1090.035
243.7673, 1217.234
244.2495, 1350.520
244.7316, 1470.848
245.2137, 1585.926
245.6958, 1708.695
246.1779, 1848.066
246.6600, 1987.754
247.1422, 2094.770
247.6243, 2167.789
248.1064, 2285.156
248.5885, 2498.785
249.0706, 2772.293
249.5527, 3053.406
250.0349, 3346.977
250.5170, 3625.855
250.9991, 3852.008
251.4812, 4037.898
251.9633, 4256.699
252.4454, 4532.492
252.9276, 4856.703
253.4097, 5208.355
253.8918, 5585.637
254.3739, 6000.125
254.8560, 6491.281
255.3382, 7024.418
255.8203, 7499.438
256.3024, 7872.027
256.7845, 8232.379
257.2666, 8702.785
257.7487, 9272.004
258.2308, 9835.285
258.7130, 10388.30
259.1951, 10907.76
259.6772, 11355.12
260.1593, 11722.79
260.6414, 12045.71
261.1235, 12373.43
261.6057, 12693.09
262.0878, 12905.70
262.5699, 12993.86
263.0520, 12971.31
263.5341, 12838.11
264.0162, 12597.89
264.4984, 12276.83
264.9805, 11881.70
265.4626, 11415.36
265.9447, 10928.16
266.4268, 10411.39
266.9089, 9883.672
267.3911, 9359.078
267.8732, 8833.672
268.3553, 8285.723
268.8374, 7691.617
269.3195, 7085.195
269.8016, 6575.535
270.2838, 6212.887
270.7659, 5851.121
271.2480, 5438.820
271.7301, 5008.527
272.2122, 4602.867
272.6943, 4233.195
273.1765, 3901.371
273.6586, 3611.852
274.1407, 3380.629
274.6228, 3156.262
275.1049, 2921.148
275.5870, 2698.797
276.0692, 2518.086
276.5513, 2380.180
277.0334, 2252.992
277.5155, 2097.727
277.9976, 1901.758
278.4797, 1752.328
278.9619, 1661.953
279.4440, 1593.945
279.9261, 1535.688
280.4082, 1485.020
280.8903, 1447.621
281.3724, 1432.957
281.8546, 1440.055
282.3367, 1410.949
282.8188, 1289.875
283.3009, 1193.809
283.7830, 1169.840
284.2651, 1183.902
284.7473, 1179.242
285.2294, 1124.789
285.7115, 1038.734
286.1936, 981.9336
286.6757, 993.9453
287.1578, 983.1211
287.6400, 918.8711
288.1221, 843.6914
288.6042, 797.3906
289.0863, 788.1328
289.5684, 794.4883
290.0505, 783.9922
290.5327, 753.6797
291.0148, 713.1836
291.4969, 644.2031
291.9790, 580.5391
292.4611, 548.9258
292.9432, 543.6953
293.4254, 536.3008
293.9075, 498.2422
294.3896, 428.7773
294.8717, 371.3125
295.3538, 316.0898
295.8359, 286.7148
296.3181, 307.4922
296.8002, 357.1797
297.2823, 396.2070
297.7644, 398.4570
298.2465, 380.3125
298.7286, 390.6797
299.2108, 445.4570
299.6929, 490.6523
300.1750, 497.7461
300.6571, 490.9180
301.1392, 493.8516
301.6213, 513.8867
302.1035, 540.3867
302.5856, 566.8867
303.0677, 594.3633
303.5498, 598.9141
304.0319, 552.3633
304.5140, 500.3945
304.9962, 488.2852
305.4783, 517.2344
305.9604, 545.2070
306.4425, 539.3672
306.9246, 511.6875
307.4067, 502.8281
307.8889, 527.3047
308.3710, 548.6484
308.8531, 517.3594
309.3352, 452.4141
309.8173, 418.2578
310.2994, 471.6836
310.7816, 541.7695
311.2637, 539.1289
311.7458, 462.7305
312.2279, 382.2891
312.7100, 331.3789
313.1921, 311.6367
313.6743, 317.2305
314.1564, 380.7500
314.6385, 427.5508
315.1206, 402.9492
315.6027, 333.8594
316.0848, 287.9727
316.5670, 293.2617
317.0491, 324.8633
317.5312, 337.0156
318.0133, 326.4258
318.4954, 307.2500
318.9775, 270.2891
319.4597, 231.6016
319.9418, 203.7227
320.4239, 189.9609
320.9060, 194.0625
321.3881, 225.0078
321.8702, 290.6250
322.3524, 322.4414
322.8345, 297.5469
323.3166, 266.8906
323.7987, 254.8320
324.2808, 255.6289
324.7629, 249.1289
325.2451, 221.2227
325.7272, 180.0273
326.2093, 163.9219
326.6914, 209.5469
327.1735, 234.8047
327.6556, 218.4062
328.1378, 185.0234
328.6199, 157.1992
329.1020, 142.5820
329.5841, 137.1797
330.0662, 137.8945
330.5483, 151.2656
331.0305, 149.6602
331.5126, 118.4453
331.9947, 83.59766
332.4768, 52.90234
332.9589, 29.17969
333.4410, 16.15234
333.9232, 23.95312
334.4053, 46.98828
334.8874, 42.37891
335.3695, 16.82812
335.8516, 56.92188
336.3337, 27.44531
336.8159, 32.54297
337.2980, 68.56641
337.7801, 60.04688
338.2622, 22.76562
338.7443, 30.67578
339.2264, 102.2539
339.7086, 162.6367
340.1907, 206.9570
340.6728, 230.1211
341.1549, 228.6094
341.6370, 201.4258
342.1191, 158.5898
342.6013, 84.32422
343.0834, 0.3164060
343.5655, 37.39844
344.0476, 13.50781
344.5297, 27.82422
345.0118, 53.12500
345.4940, 61.98828
345.9761, 50.58984
346.4582, 9.929688
346.9403, 68.31250
347.4224, 77.34375
347.9045, 45.69922
348.3867, 16.99609
348.8688, 14.73828
349.3509, 33.77344
349.8330, 56.76172
350.3151, 88.19531
350.7972, 116.8672
351.2794, 146.0742
351.7615, 169.1992
352.2436, 170.6562
352.7257, 148.5195
353.2078, 128.9531
353.6899, 148.8047
354.1721, 222.9922
354.6542, 284.4688
355.1363, 346.1055
355.6184, 385.9844
356.1005, 378.0312
356.5826, 338.2188
357.0648, 305.6406
357.5469, 307.0430
358.0290, 336.6758
358.5111, 364.3242
358.9932, 381.0898
359.4753, 410.9336
359.9575, 481.4844
360.4396, 553.6367
360.9217, 581.3984
361.4038, 552.4258
361.8859, 510.7500
362.3680, 513.4141
362.8502, 563.6680
363.3322, 606.0781
363.8144, 623.1641
364.2965, 643.1797
364.7786, 695.5820
365.2607, 769.2070
365.7428, 821.7539
366.2249, 806.4023
366.7071, 763.1055
367.1892, 773.8008
367.6713, 846.0391
368.1534, 917.9805
368.6355, 946.7344
369.1176, 957.3555
369.5998, 1003.395
370.0819, 1102.145
370.5640, 1208.773
371.0461, 1304.801
371.5282, 1390.570
372.0103, 1464.867
372.4925, 1526.473
372.9746, 1581.289
373.4567, 1637.254
373.9388, 1695.422
374.4209, 1748.777
374.9030, 1798.820
375.3852, 1842.570
375.8673, 1873.129
376.3494, 1894.188
376.8315, 1920.023
377.3136, 1961.867
377.7957, 2015.086
378.2779, 2052.820
378.7600, 2092.230
379.2421, 2092.613
379.7242, 1989.074
380.2063, 1874.984
380.6884, 1862.082
381.1706, 1973.406
381.6527, 2122.230
382.1348, 2190.273
382.6169, 2158.621
383.0990, 2135.371
383.5811, 2104.504
384.0633, 2099.582
384.5454, 2146.016
385.0275, 2229.340
385.5096, 2317.430
385.9917, 2396.711
386.4738, 2465.480
386.9560, 2515.137
387.4381, 2539.195
387.9202, 2573.285
388.4023, 2634.133
388.8844, 2710.031
389.3665, 2786.809
389.8487, 2862.027
390.3308, 2947.902
390.8129, 3065.941
391.2950, 3198.504
391.7771, 3302.738
392.2592, 3368.215
392.7414, 3423.129
393.2235, 3484.422
393.7056, 3554.195
394.1877, 3649.070
394.6698, 3807.527
395.1519, 3956.273
395.6341, 4043.027
396.1162, 4086.332
396.5983, 4135.363
397.0804, 4211.996
397.5625, 4302.812
398.0446, 4378.613
398.5268, 4433.367
399.0089, 4486.723
399.4910, 4544.547
399.9731, 4601.406
400.4552, 4648.215
400.9373, 4685.219
401.4195, 4722.258
401.9016, 4769.414
402.3837, 4825.031
402.8658, 4881.609
403.3479, 4950.184
403.8300, 5005.660
404.3122, 5051.168
404.7943, 5079.035
405.2764, 5076.527
405.7585, 5040.047
406.2406, 4994.684
406.7227, 4971.980
407.2049, 4970.910
407.6870, 4941.270
408.1691, 4854.570
408.6512, 4764.738
409.1333, 4722.676
409.6154, 4716.797
410.0976, 4699.496
410.5797, 4654.359
411.0618, 4590.039
411.5439, 4513.246
412.0260, 4424.734
412.5081, 4330.348
412.9903, 4230.586
413.4724, 4128.863
413.9545, 4036.723
414.4366, 3961.465
414.9187, 3877.191
415.4008, 3775.453
415.8830, 3663.574
416.3651, 3547.695
416.8472, 3428.656
417.3293, 3304.328
417.8114, 3168.680
418.2935, 3020.738
418.7757, 2913.348
419.2578, 2885.641
419.7399, 2855.234
420.2220, 2815.832
420.7041, 2760.879
421.1862, 2679.277
421.6684, 2567.621
422.1505, 2444.180
422.6326, 2333.496
423.1147, 2236.461
423.5968, 2145.902
424.0789, 2060.742
424.5611, 1983.215
425.0432, 1914.383
425.5253, 1853.809
426.0074, 1801.566
426.4895, 1770.578
426.9716, 1737.668
427.4538, 1658.613
427.9359, 1534.395
428.4180, 1427.762
428.9001, 1362.723
429.3822, 1330.223
429.8643, 1316.676
430.3465, 1326.402
430.8286, 1333.309
431.3107, 1348.164
431.7928, 1346.422
432.2749, 1293.477
432.7570, 1190.586
433.2392, 1073.699
433.7213, 966.9141
434.2034, 870.3086
434.6855, 789.1719
435.1676, 707.2891
435.6497, 661.7969
436.1319, 697.5000
436.6140, 752.1758
437.0961, 755.0078
437.5782, 691.4062
438.0603, 608.0859
438.5424, 563.3164
439.0246, 561.2031
439.5067, 549.9805
439.9888, 523.3828
440.4709, 492.3242
440.9530, 449.2148
441.4352, 408.2188
441.9173, 394.7109
442.3994, 429.3789
442.8815, 470.1992
443.3636, 462.4609
443.8457, 413.0312
444.3279, 381.1367
444.8100, 392.9531
445.2921, 409.6992
445.7742, 371.0312
446.2563, 280.4492
446.7384, 218.3555
447.2206, 214.0820
447.7027, 228.1797
448.1848, 243.9258
448.6669, 255.9961
449.1490, 251.6992
449.6311, 223.3789
450.1133, 176.8711
450.5954, 128.1250
451.0775, 64.30469
451.5596, 23.40625
452.0417, 22.32812
452.5238, 28.94531
453.0060, 19.87109
453.4881, 2.964844
453.9702, 22.72656
454.4523, 26.81641
454.9344, 17.52734
455.4165, 0.2812500
455.8987, 38.71875
456.3808, 56.61328
456.8629, 12.69922
457.3450, 44.47656
457.8271, 68.26562
458.3092, 50.17578
458.7914, 24.21094
459.2735, 12.69531
459.7556, 9.703125
460.2377, 0.1328130
460.7198, 19.94141
461.2019, 40.14844
461.6841, 58.38672
462.1662, 69.32422
462.6483, 55.81641
463.1304, 27.95312
463.6125, 76.66797
464.0946, 41.61328
464.5768, 31.70312
465.0589, 100.2852
465.5410, 151.2969
466.0231, 181.8359
466.5052, 185.6914
466.9873, 159.1758
467.4695, 141.9453
467.9516, 144.6367
468.4337, 146.3984
468.9158, 133.3633
469.3979, 118.7461
469.8800, 123.9766
470.3622, 157.3711
470.8443, 198.6094
471.3264, 228.3555
471.8085, 246.5703
472.2906, 244.0547
472.7727, 206.8750
473.2549, 170.7070
473.7370, 175.2539
474.2191, 205.4727
474.7012, 219.7891
475.1833, 190.5117
475.6654, 162.9727
476.1476, 173.4414
476.6297, 208.3242
477.1118, 240.9141
477.5939, 263.6562
478.0760, 266.1172
478.5581, 227.0312
479.0403, 124.3984
479.5224, 78.14844
480.0045, 142.8984
480.4866, 196.8438
480.9687, 174.1484
481.4508, 110.6484
481.9330, 74.30469
482.4151, 95.53906
482.8972, 143.3125
483.3793, 169.9805
483.8614, 174.4609
484.3435, 162.1484
484.8257, 107.4062
485.3078, 67.67969
485.7899, 92.85938
486.2720, 162.0586
486.7541, 211.0547
487.2362, 197.2266
487.7183, 174.0547
488.2004, 214.6133
488.6826, 297.7969
489.1647, 319.8047
489.6468, 233.5039
490.1289, 119.4648
490.6110, 94.63281
491.0931, 193.2422
491.5753, 252.1055
492.0574, 251.8633
492.5395, 231.5078
493.0216, 199.2812
493.5037, 164.1406
493.9858, 142.9766
494.4680, 144.3203
494.9501, 152.1328
495.4322, 133.9219
495.9143, 81.87891
496.3964, 35.40625
496.8785, 16.70703
497.3607, 46.46875
497.8428, 31.99609
498.3249, 15.62891
498.8070, 70.31641
499.2891, 134.1562
499.7712, 183.5371
500.2534, 185.6465
500.7355, 146.2129
501.2176, 94.08203
501.6997, 30.61914
502.1818, 23.65234
502.6639, 39.22656
503.1461, 8.375000
503.6282, 10.47070
504.1103, 4.148438
504.5924, 11.16211
505.0745, 27.60547
505.5566, 86.76562
506.0388, 109.3691
506.5209, 72.41016
507.0030, 20.04297
507.4851, 37.15234
507.9672, 153.7695
508.4493, 215.8652
508.9315, 170.9688
509.4136, 123.6855
509.8957, 127.0859
510.3778, 160.0723
510.8599, 178.9570
511.3420, 165.8828
511.8242, 138.0527
512.3063, 112.0977
512.7884, 87.99609
513.2705, 58.14062
513.7526, 15.90234
514.2347, 12.00195
514.7169, 11.69336
515.1990, 87.53516
515.6811, 117.2363
516.1632, 60.74414
516.6453, 9.281250
517.1274, 7.662109
517.6096, 28.16797
518.0917, 26.12695
518.5738, 10.25586
519.0559, 52.70703
519.5380, 64.69141
520.0201, 43.74219
520.5023, 26.92969
520.9844, 34.23633
521.4665, 20.41602
521.9486, 75.59766
522.4307, 190.0312
522.9128, 224.1602
523.3950, 142.3770
523.8771, 52.32812
524.3592, 46.50977
524.8413, 90.98242
525.3234, 97.83789
525.8055, 53.07812
526.2877, 16.22461
526.7698, 36.10938
527.2519, 101.9590
527.7340, 138.4863
528.2161, 134.7520
528.6982, 118.7539
529.1804, 74.83203
529.6625, 34.92578
530.1446, 36.68359
530.6267, 78.19336
531.1088, 122.3867
531.5909, 135.1992
532.0731, 126.0723
532.5552, 144.6406
533.0373, 207.8535
533.5194, 253.8027
534.0015, 256.0781
534.4836, 238.4844
534.9658, 217.4043
535.4479, 193.1406
535.9300, 166.6309
536.4121, 118.3848
536.8942, 82.37891
537.3763, 119.0977
537.8585, 214.4648
538.3406, 281.5801
538.8227, 273.5410
539.3048, 224.2715
539.7869, 207.0586
540.2690, 252.9590
540.7512, 281.2793
541.2333, 277.7715
541.7154, 273.3340
542.1975, 290.9688
542.6796, 316.3145
543.1617, 317.5020
543.6439, 276.3730
544.1260, 225.8730
544.6081, 220.4316
545.0902, 259.2109
545.5723, 293.5664
546.0544, 317.4902
546.5366, 332.6328
547.0187, 334.6875
547.5008, 328.1152
547.9829, 329.0137
548.4650, 349.9316
548.9471, 366.6797
549.4293, 354.3906
549.9114, 335.7500
550.3935, 351.5215
550.8756, 407.5449
551.3577, 467.1152
551.8398, 492.6602
552.3220, 485.8086
552.8041, 488.0762
553.2862, 514.1895
553.7683, 525.6816
554.2504, 505.0566
554.7325, 472.1543
555.2147, 445.7598
555.6968, 430.9688
556.1789, 420.2129
556.6610, 398.6309
557.1431, 378.3359
557.6252, 384.8066
558.1074, 417.4102
558.5895, 451.1250
559.0716, 474.2520
559.5537, 490.8066
560.0358, 510.9805
560.5179, 553.5801
561.0001, 557.5586
561.4822, 469.5645
561.9643, 389.5977
562.4464, 387.8281
562.9285, 438.1133
563.4106, 477.3398
563.8928, 475.9941
564.3749, 451.9766
564.8570, 431.1016
565.3391, 415.0293
565.8212, 398.4570
566.3033, 374.0996
566.7855, 357.6777
567.2676, 372.9316
567.7497, 402.8984
568.2318, 408.7188
568.7139, 370.9570
569.1960, 333.3633
569.6782, 317.8789
570.1603, 313.8359
570.6424, 306.9414
571.1245, 295.0645
571.6066, 281.2090
572.0887, 265.9375
572.5709, 255.2246
573.0530, 271.8438
573.5351, 347.5039
574.0172, 385.2246
574.4993, 344.1445
574.9814, 285.0254
575.4636, 244.7480
575.9457, 223.3770
576.4278, 205.5977
576.9099, 176.3691
577.3920, 154.4316
577.8741, 181.6289
578.3563, 242.1758
578.8384, 249.3477
579.3205, 169.1895
579.8026, 81.72656
580.2847, 86.99414
580.7668, 202.6113
581.2490, 248.8281
581.7311, 171.2695
582.2132, 98.39648
582.6953, 71.28711
583.1774, 66.88477
583.6595, 56.75391
584.1417, 34.71484
584.6238, 14.64844
585.1059, 3.794922
585.5880, 4.253906
586.0701, 37.91992
586.5522, 114.3438
587.0344, 159.4238
587.5165, 127.6230
587.9986, 60.00391
588.4807, 25.88672
588.9628, 29.67773
589.4449, 33.29297
589.9271, 40.29492
590.4092, 36.44336
590.8913, 4.039063
591.3734, 61.03125
591.8555, 88.21875
592.3376, 66.63867
592.8198, 23.40820
593.3019, 2.787109
593.7840, 10.99414
594.2661, 13.56055
594.7482, 13.32422
595.2303, 3.671875
595.7125, 45.85742
596.1946, 98.28711
596.6767, 87.68359
597.1588, 16.63281
597.6409, 97.81836
598.1230, 82.51758
598.6052, 28.37891
599.0873, 6.771484
599.5694, 16.05469
600.0515, 0.3593750
600.5336, 43.03711
601.0157, 97.59766
601.4979, 120.2305
601.9800, 95.34375
602.4621, 80.66016
602.9442, 76.36719
603.4263, 83.51562
603.9084, 114.6875
604.3906, 155.6484
604.8727, 178.8848
605.3548, 175.2109
605.8369, 155.8945
606.3190, 117.3477
606.8011, 73.33594
607.2833, 46.65430
607.7654, 39.89062
608.2475, 58.36914
608.7296, 112.4453
609.2117, 186.3281
609.6938, 211.5000
610.1760, 124.9785
610.6581, 95.67773
611.1402, 188.9023
611.6223, 281.9805
612.1044, 286.3398
612.5865, 228.2637
613.0687, 191.8906
613.5508, 219.5254
614.0329, 271.5059
614.5150, 308.9180
614.9971, 332.5625
615.4792, 343.4805
615.9614, 341.0391
616.4435, 333.4102
616.9256, 324.0117
617.4077, 315.1719
617.8898, 323.5820
618.3719, 338.3770
618.8541, 385.5664
619.3362, 509.4180
619.8183, 632.8145
620.3004, 690.7012
620.7825, 692.6367
621.2646, 688.7109
621.7468, 702.1211
622.2289, 734.2266
622.7110, 813.1777
623.1931, 926.2773
623.6752, 948.1270
624.1573, 831.2188
624.6395, 709.1367
625.1216, 699.9727
625.6037, 793.0098
626.0858, 868.2402
626.5679, 938.7676
627.0500, 977.2422
627.5322, 942.2891
628.0143, 900.0410
628.4964, 917.3359
628.9785, 985.6719
629.4606, 1044.150
629.9427, 1049.590
630.4249, 1032.590
630.9070, 1060.402
631.3891, 1129.984
631.8712, 1161.684
632.3533, 1133.461
632.8354, 1079.146
633.3176, 1016.961
633.7997, 951.2539
634.2818, 916.4316
634.7639, 928.0078
635.2460, 949.0645
635.7281, 998.7969
636.2103, 1035.350
636.6924, 1003.797
637.1745, 916.9727
637.6566, 844.2285
638.1387, 833.4395
638.6208, 856.0352
639.1030, 857.8555
639.5851, 838.8457
640.0672, 812.5938
640.5493, 778.6504
641.0314, 745.7480
641.5135, 724.9258
641.9957, 712.7441
642.4778, 685.4004
642.9599, 615.9746
643.4420, 568.0137
643.9241, 570.5859
644.4063, 589.6973
644.8884, 603.0684
645.3705, 604.7539
645.8526, 590.8418
646.3347, 557.3340
646.8168, 511.0488
647.2990, 457.4941
647.7811, 397.3965
648.2632, 360.2715
648.7453, 356.7129
649.2274, 353.1523
649.7095, 324.1191
650.1917, 279.0020
650.6738, 251.4023
651.1559, 244.9766
651.6380, 246.3496
652.1201, 275.5391
652.6022, 293.4707
653.0844, 251.4512
