##NAMES=Muscovite
##RRUFFID=R100147
##IDEAL CHEMISTRY=KAl_2_(Si_3_Al)O_10_(OH)_2_
##LOCALITY=Blue Mountain Quarry, Methuen Township, Petersborough County, Ontario, Canada
##OWNER=RRUFF
##SOURCE=Mineralogical Museum, Harvard University
##DESCRIPTION=Book of brown mica
##STATUS=The identification of this mineral is not yet confirmed.
##URL=rruff.info/R100147
132.4972, 0.0000000E+00
132.9794, 1.080735
133.4615, 0.5470050
133.9436, 1.079925
134.4257, 3.067451
134.9078, 4.234453
135.3899, 3.883242
135.8721, 3.065542
136.3542, 2.802181
136.8363, 2.941942
137.3184, 2.470707
137.8005, 1.791250
138.2826, 0.9929030
138.7648, 0.3289640
139.2469, 0.1628210
139.7290, 0.4821190
140.2111, 0.7181700
140.6932, 0.9396610
141.1753, 0.9400200
141.6575, 0.4201070
142.1396, 0.9589460
142.6217, 1.960304
143.1038, 2.210545
143.5859, 1.671879
144.0681, 1.350197
144.5502, 1.124786
145.0323, 1.225510
145.5144, 2.017754
145.9965, 4.044174
146.4786, 5.907364
146.9608, 7.183846
147.4429, 7.769077
147.9250, 8.352253
148.4071, 8.889275
148.8892, 9.442165
149.3713, 10.06003
149.8535, 10.39637
150.3356, 11.16068
150.8177, 12.59796
151.2998, 15.01646
151.7819, 17.43801
152.2640, 19.63184
152.7462, 21.86292
153.2283, 24.54695
153.7104, 28.19458
154.1925, 31.90618
154.6746, 35.33427
155.1567, 38.18047
155.6389, 41.11768
156.1210, 44.49130
156.6031, 48.04588
157.0852, 51.19974
157.5673, 53.49953
158.0495, 55.59471
158.5316, 57.84097
159.0137, 60.41987
159.4958, 62.94846
159.9779, 65.60821
160.4600, 68.22122
160.9422, 70.20757
161.4243, 70.41656
161.9064, 70.47401
162.3885, 71.48902
162.8706, 74.36417
163.3527, 77.52354
163.8349, 80.20291
164.3170, 82.56890
164.7991, 85.41740
165.2812, 89.42685
165.7633, 93.95648
166.2454, 98.43396
166.7276, 102.7678
167.2097, 106.9245
167.6918, 110.7189
168.1739, 114.1963
168.6560, 118.0625
169.1381, 122.8649
169.6203, 128.1684
170.1024, 132.1112
170.5845, 135.7278
171.0666, 139.1161
171.5487, 141.6486
172.0309, 143.3734
172.5130, 144.8802
172.9951, 146.9627
173.4772, 149.0484
173.9593, 150.2380
174.4414, 149.6409
174.9236, 148.2810
175.4057, 147.2544
175.8878, 146.5645
176.3699, 145.8178
176.8520, 144.6640
177.3341, 143.2027
177.8163, 141.6481
178.2984, 140.1044
178.7805, 138.5207
179.2626, 136.7634
179.7447, 134.8322
180.2268, 132.9300
180.7090, 131.2452
181.1911, 129.7783
181.6732, 128.4958
182.1553, 127.6040
182.6374, 126.8731
183.1195, 125.6744
183.6017, 123.8935
184.0838, 122.2479
184.5659, 121.5888
185.0480, 121.7857
185.5301, 122.1886
186.0123, 122.4804
186.4944, 122.7314
186.9765, 123.0767
187.4586, 123.4782
187.9407, 124.1397
188.4228, 125.2735
188.9050, 126.8708
189.3871, 129.0313
189.8692, 132.0638
190.3513, 135.5977
190.8334, 138.8818
191.3155, 141.8811
191.7977, 144.5683
192.2798, 146.7883
192.7619, 148.5417
193.2440, 150.1890
193.7261, 151.9094
194.2082, 153.6884
194.6904, 155.6721
195.1725, 158.0910
195.6546, 160.3276
196.1367, 160.8855
196.6188, 159.6598
197.1009, 158.2894
197.5831, 157.8108
198.0652, 158.2207
198.5473, 158.1507
199.0294, 157.6252
199.5115, 156.4853
199.9937, 154.0378
200.4758, 150.0825
200.9579, 146.1881
201.4400, 143.4086
201.9221, 141.8490
202.4042, 139.8154
202.8864, 137.0456
203.3685, 133.9154
203.8506, 131.2359
204.3327, 129.0162
204.8148, 127.2719
205.2969, 126.3299
205.7791, 126.4363
206.2612, 125.3772
206.7433, 122.4949
207.2254, 118.7781
207.7075, 116.9370
208.1896, 117.4879
208.6718, 118.3975
209.1539, 118.4521
209.6360, 117.3609
210.1181, 116.9189
210.6002, 117.3847
211.0823, 118.4680
211.5645, 119.3825
212.0466, 120.1262
212.5287, 120.7327
213.0108, 121.2799
213.4929, 121.8821
213.9750, 122.0083
214.4572, 121.5367
214.9393, 120.6135
215.4214, 119.8579
215.9035, 119.8371
216.3856, 118.8134
216.8678, 115.6792
217.3499, 109.7518
217.8320, 103.8442
218.3141, 98.16685
218.7962, 92.59560
219.2783, 86.83901
219.7605, 81.03220
220.2426, 74.86803
220.7247, 68.05237
221.2068, 60.05899
221.6889, 53.01289
222.1710, 47.38206
222.6532, 42.68646
223.1353, 37.53510
223.6174, 31.43454
224.0995, 25.61894
224.5816, 20.69574
225.0637, 16.72093
225.5459, 13.40594
226.0280, 10.88124
226.5101, 8.968063
226.9922, 7.228699
227.4743, 5.729279
227.9564, 4.277420
228.4386, 2.687408
228.9207, 0.6694340
229.4028, 0.6983490
229.8849, 1.166122
230.3670, 1.038742
230.8492, 1.210648
231.3313, 1.962402
231.8134, 2.590881
232.2955, 2.791046
232.7776, 2.521027
233.2597, 1.908142
233.7419, 0.9064640
234.2240, 0.4285130
234.7061, 1.916519
235.1882, 3.521515
235.6703, 5.328781
236.1524, 7.381424
236.6346, 9.624878
237.1167, 12.21288
237.5988, 15.05743
238.0809, 18.27248
238.5630, 22.20935
239.0451, 26.96785
239.5273, 32.25917
240.0094, 38.04781
240.4915, 44.53525
240.9736, 50.87770
241.4557, 56.60089
241.9378, 62.41544
242.4200, 69.89420
242.9021, 80.03331
243.3842, 90.42125
243.8663, 100.0880
244.3484, 108.5538
244.8306, 117.7558
245.3127, 127.6565
245.7948, 138.2225
246.2769, 149.3714
246.7590, 160.9816
247.2411, 173.1687
247.7233, 186.0625
248.2054, 199.9034
248.6875, 213.5486
249.1696, 226.4484
249.6517, 239.3857
250.1338, 253.4534
250.6160, 268.4635
251.0981, 285.0412
251.5802, 303.5542
252.0623, 324.6077
252.5444, 344.8472
253.0265, 363.0248
253.5087, 381.2798
253.9908, 402.3949
254.4729, 427.5227
254.9550, 453.4346
255.4371, 479.3224
255.9192, 504.8470
256.4014, 531.3377
256.8835, 559.5662
257.3656, 588.0043
257.8477, 615.7997
258.3298, 643.4856
258.8120, 669.5303
259.2941, 694.0917
259.7762, 717.3734
260.2583, 737.2476
260.7404, 754.5589
261.2225, 767.6277
261.7047, 775.2402
262.1868, 777.5378
262.6689, 773.8343
263.1510, 763.3215
263.6331, 746.2017
264.1152, 726.0739
264.5974, 703.0329
265.0795, 676.9932
265.5616, 648.2524
266.0437, 615.7319
266.5258, 582.6260
267.0079, 549.3692
267.4901, 515.8383
267.9722, 483.2758
268.4543, 451.3778
268.9364, 420.2335
269.4185, 389.3607
269.9006, 358.1944
270.3828, 329.9610
270.8649, 305.1829
271.3470, 283.5865
271.8291, 263.6422
272.3112, 245.2793
272.7933, 227.9532
273.2755, 211.3041
273.7576, 195.2061
274.2397, 180.4857
274.7218, 167.5969
275.2039, 156.1155
275.6860, 144.7440
276.1682, 133.1631
276.6503, 122.3228
277.1324, 112.8647
277.6145, 104.9363
278.0966, 97.59140
278.5787, 90.73619
279.0609, 84.41518
279.5430, 78.69969
280.0251, 73.69832
280.5072, 68.92424
280.9893, 63.93863
281.4715, 58.79140
281.9536, 54.54077
282.4357, 51.47139
282.9178, 48.85574
283.3999, 45.19376
283.8820, 40.38925
284.3642, 36.11040
284.8463, 33.40367
285.3284, 32.11371
285.8105, 30.43336
286.2926, 28.25945
286.7747, 25.99373
287.2569, 24.32970
287.7390, 23.21575
288.2211, 21.76739
288.7032, 19.32358
289.1853, 16.26033
289.6674, 14.17775
290.1496, 13.17670
290.6317, 12.46962
291.1138, 11.09406
291.5959, 9.159363
292.0780, 7.452621
292.5602, 6.236465
293.0423, 5.400406
293.5244, 4.636009
294.0065, 3.942467
294.4886, 3.477585
294.9707, 3.781021
295.4529, 4.520767
295.9350, 4.412109
296.4171, 2.690826
296.8992, 0.3469390
297.3813, 0.8669050
297.8634, 1.007240
298.3456, 0.7348250
298.8277, 0.3784790
299.3098, 1.5625000E-02
299.7919, 0.3398670
300.2740, 0.5531690
300.7561, 0.7186660
301.2383, 0.9089050
301.7204, 1.120079
302.2025, 1.331894
302.6846, 1.587814
303.1667, 1.821259
303.6488, 1.935791
304.1310, 1.917007
304.6131, 1.778503
305.0952, 1.389954
305.5773, 0.8709410
306.0594, 0.5471570
306.5415, 0.7024920
307.0237, 1.079826
307.5058, 1.444855
307.9879, 1.786041
308.4700, 2.028778
308.9521, 2.043159
309.4343, 1.926865
309.9164, 1.850159
310.3985, 1.995056
310.8806, 2.130424
311.3627, 1.965050
311.8448, 1.478317
312.3270, 1.214119
312.8091, 1.760239
313.2912, 2.627838
313.7733, 3.239922
314.2554, 3.197975
314.7375, 3.017479
315.2197, 2.921722
315.7018, 2.908981
316.1839, 2.957161
316.6660, 3.086617
317.1481, 3.256676
317.6302, 3.448486
318.1124, 3.901154
318.5945, 4.073761
319.0766, 3.544304
319.5587, 2.531151
320.0408, 1.782204
320.5229, 1.749847
321.0051, 1.892578
321.4872, 1.895248
321.9693, 1.571381
322.4514, 1.369545
322.9335, 1.637627
323.4156, 2.069328
323.8978, 2.074219
324.3799, 0.7224960
324.8620, 0.3523790
325.3441, 0.3931350
325.8262, 1.176598
326.3083, 2.130623
326.7905, 2.117676
327.2726, 1.457863
327.7547, 0.5513380
328.2368, 1.181435
328.7189, 2.548668
329.2010, 3.256226
329.6832, 3.242699
330.1653, 3.173325
330.6474, 2.857971
331.1295, 2.622841
331.6116, 2.774345
332.0938, 3.822289
332.5759, 4.430603
333.0580, 4.224808
333.5401, 3.353241
334.0222, 2.969681
334.5043, 3.408791
334.9865, 3.872177
335.4686, 3.845604
335.9507, 3.084969
336.4328, 2.504112
336.9149, 2.200455
337.3970, 2.077881
337.8792, 1.878258
338.3613, 1.563377
338.8434, 1.274117
339.3255, 1.089645
339.8076, 1.029884
340.2898, 0.9172060
340.7719, 0.7563780
341.2540, 0.5311280
341.7361, 0.1492460
342.2182, 0.4183350
342.7003, 0.8276820
343.1825, 0.8985670
343.6646, 0.6897960
344.1467, 0.4726870
344.6288, 0.1696400
345.1109, 0.2328490
345.5930, 1.437515
346.0752, 3.631348
346.5573, 5.397690
347.0394, 6.325439
347.5215, 6.688026
348.0036, 6.987358
348.4857, 7.227646
348.9679, 7.618515
349.4500, 8.274246
349.9321, 9.206596
350.4142, 10.51365
350.8963, 12.32952
351.3784, 14.22409
351.8606, 15.49806
352.3427, 16.30614
352.8248, 17.24881
353.3069, 18.82999
353.7890, 20.67017
354.2711, 22.24585
354.7533, 23.48642
355.2354, 24.67888
355.7175, 25.86778
356.1996, 27.22991
356.6817, 29.05605
357.1638, 32.18686
357.6460, 35.29659
358.1281, 37.26678
358.6102, 38.15686
359.0923, 38.96215
359.5744, 39.89992
360.0565, 41.16714
360.5387, 43.00898
361.0208, 46.25487
361.5029, 49.14235
361.9850, 50.32219
362.4671, 50.40620
362.9492, 51.26439
363.4314, 54.14624
363.9135, 57.54036
364.3956, 60.62375
364.8777, 63.16077
365.3598, 65.70576
365.8419, 68.41813
366.3241, 71.20034
366.8062, 73.88890
367.2883, 76.63902
367.7704, 79.12168
368.2526, 81.07810
368.7347, 82.33437
369.2168, 84.10539
369.6989, 86.59233
370.1810, 89.48842
370.6631, 92.62067
371.1453, 96.64297
371.6274, 99.90219
372.1095, 101.8452
372.5916, 102.7564
373.0737, 104.4861
373.5558, 107.3840
374.0380, 110.5984
374.5201, 113.7768
375.0022, 116.9992
375.4843, 119.7898
375.9664, 122.0160
376.4485, 123.9031
376.9307, 125.9594
377.4128, 128.2148
377.8949, 130.4467
378.3770, 132.6525
378.8591, 134.8021
379.3412, 136.3209
379.8234, 137.0617
380.3055, 137.6459
380.7876, 138.7033
381.2697, 140.2315
381.7518, 142.0838
382.2339, 144.4256
382.7161, 146.8399
383.1982, 148.3717
383.6803, 149.1092
384.1624, 149.8013
384.6445, 150.8159
385.1266, 152.2246
385.6088, 154.3427
386.0909, 157.3422
386.5730, 160.4192
387.0551, 162.4562
387.5372, 163.7952
388.0193, 165.3410
388.5015, 167.6068
388.9836, 170.2924
389.4657, 173.1891
389.9478, 176.2446
390.4299, 179.0961
390.9120, 181.1472
391.3942, 183.0516
391.8763, 185.5161
392.3584, 189.6821
392.8405, 193.5281
393.3226, 195.4742
393.8047, 196.0676
394.2869, 197.6048
394.7690, 201.8310
395.2511, 206.6635
395.7332, 210.8053
396.2154, 213.6972
396.6975, 216.6487
397.1796, 220.1611
397.6617, 223.8910
398.1438, 227.2365
398.6259, 229.2100
399.1081, 231.7136
399.5902, 235.6874
400.0723, 241.5447
400.5544, 246.0759
401.0365, 248.8093
401.5186, 250.5229
402.0008, 251.7921
402.4829, 252.4543
402.9650, 252.9916
403.4471, 253.5233
403.9292, 254.0089
404.4113, 254.2832
404.8935, 254.3844
405.3756, 254.1837
405.8577, 253.5995
406.3398, 252.6235
406.8219, 251.4778
407.3040, 250.3021
407.7862, 248.7022
408.2683, 245.9348
408.7504, 241.9771
409.2325, 237.7979
409.7146, 233.7124
410.1967, 229.6920
410.6789, 225.4044
411.1610, 220.8556
411.6431, 215.9553
412.1252, 210.5362
412.6073, 204.7286
413.0894, 198.9315
413.5716, 193.3676
414.0537, 187.8003
414.5358, 181.8607
415.0179, 175.7169
415.5000, 169.7120
415.9821, 163.8707
416.4643, 158.4225
416.9464, 153.9070
417.4285, 150.4576
417.9106, 146.6900
418.3927, 141.3010
418.8748, 135.2048
419.3570, 129.5892
419.8391, 125.0720
420.3212, 120.8378
420.8033, 116.5894
421.2854, 112.3349
421.7675, 108.0269
422.2497, 103.1693
422.7318, 98.61391
423.2139, 94.99773
423.6960, 93.14059
424.1781, 90.59555
424.6602, 86.15755
425.1424, 81.15034
425.6245, 77.59117
426.1066, 76.96577
426.5887, 75.96129
427.0709, 73.72060
427.5530, 70.24363
428.0351, 67.31233
428.5172, 65.04173
428.9993, 63.10941
429.4814, 61.34268
429.9636, 59.82961
430.4457, 58.13165
430.9278, 56.19244
431.4099, 54.06831
431.8920, 51.83385
432.3741, 49.44134
432.8563, 47.14828
433.3384, 45.11218
433.8205, 43.28294
434.3026, 41.35433
434.7847, 39.29608
435.2668, 37.30608
435.7490, 35.64481
436.2311, 34.22379
436.7132, 32.79027
437.1953, 31.26732
437.6774, 29.72444
438.1595, 28.16009
438.6417, 26.61136
439.1238, 25.23426
439.6059, 24.49825
440.0880, 23.79018
440.5701, 22.25022
441.0522, 19.62531
441.5344, 17.28366
442.0165, 16.21323
442.4986, 15.87402
442.9807, 15.61350
443.4628, 15.36982
443.9449, 14.99403
444.4271, 14.47803
444.9092, 13.81030
445.3913, 12.89696
445.8734, 11.38114
446.3555, 9.888519
446.8376, 8.762573
447.3198, 8.311012
447.8019, 7.704697
448.2840, 6.747574
448.7661, 5.681755
449.2482, 4.882561
449.7303, 4.740410
450.2125, 4.272354
450.6946, 3.000305
451.1767, 0.9866640
451.6588, 1.4320000E-02
452.1409, 0.2915950
452.6230, 0.9861530
453.1052, 1.517403
453.5873, 1.899078
454.0694, 1.936348
454.5515, 1.490501
455.0337, 0.9368520
455.5158, 1.008827
455.9979, 1.644814
456.4800, 2.168938
456.9621, 2.289894
457.4442, 2.102165
457.9264, 1.731377
458.4085, 1.211617
458.8906, 0.8880310
459.3727, 1.127609
459.8548, 1.662018
460.3369, 2.098953
460.8191, 2.356979
461.3012, 2.488998
461.7833, 2.399727
462.2654, 2.248360
462.7475, 2.350792
463.2296, 3.066490
463.7118, 3.802582
464.1939, 4.238625
464.6760, 4.372658
465.1581, 4.605026
465.6402, 5.054153
466.1223, 5.539787
466.6045, 5.986320
467.0866, 6.397354
467.5687, 6.836609
468.0508, 7.444862
468.5329, 8.041229
469.0150, 8.249779
469.4972, 7.775566
469.9793, 7.411659
470.4614, 7.509102
470.9435, 8.110413
471.4256, 8.150558
471.9077, 7.392380
472.3899, 6.546547
472.8720, 6.284714
473.3541, 6.654869
473.8362, 7.045128
474.3183, 7.377838
474.8004, 7.677757
475.2826, 8.107529
475.7647, 8.635399
476.2468, 8.836372
476.7289, 8.343727
477.2110, 7.401497
477.6931, 6.289879
478.1753, 5.011002
478.6574, 4.380783
479.1395, 5.855118
479.6216, 8.189026
480.1037, 9.496971
480.5858, 8.975021
481.0680, 7.926613
481.5501, 6.817383
482.0322, 5.852310
482.5143, 5.475700
482.9964, 6.570366
483.4786, 7.681602
483.9607, 8.048187
484.4428, 7.566742
484.9249, 7.150429
485.4070, 7.081482
485.8892, 7.075287
486.3713, 6.926849
486.8534, 6.478340
487.3355, 6.123352
487.8176, 5.929581
488.2997, 5.815544
488.7819, 5.590500
489.2640, 5.194359
489.7461, 4.811615
490.2282, 4.467461
490.7103, 4.166595
491.1924, 4.087036
491.6746, 4.254730
492.1567, 4.526764
492.6388, 4.954460
493.1209, 5.469193
493.6030, 5.348701
494.0851, 4.340584
494.5673, 3.101555
495.0494, 2.655190
495.5315, 2.813385
496.0136, 2.918304
496.4957, 2.556061
496.9778, 2.042366
497.4600, 1.747910
497.9421, 1.651314
498.4242, 1.504814
498.9063, 1.021629
499.3884, 0.5003890
499.8705, 0.1743550
500.3527, 7.0602000E-02
500.8348, 0.2221760
501.3169, 1.017807
501.7990, 1.976463
502.2811, 2.420815
502.7632, 1.749306
503.2454, 1.065132
503.7275, 0.6430740
504.2096, 0.4521030
504.6917, 8.3015002E-02
505.1738, 0.6492230
505.6559, 1.300476
506.1381, 1.573860
506.6202, 1.311562
507.1023, 1.377510
507.5844, 1.941025
508.0665, 2.527229
508.5486, 2.349098
509.0308, 1.382751
509.5129, 0.6637570
509.9950, 0.4952770
510.4771, 0.6955490
510.9592, 0.9515380
511.4413, 1.252510
511.9235, 1.497093
512.4056, 1.672028
512.8877, 1.732246
513.3698, 1.569153
513.8519, 1.162796
514.3340, 0.7295610
514.8162, 0.2632290
515.2983, 7.9781003E-02
515.7804, 9.3024999E-02
516.2625, 0.6309430
516.7446, 1.252655
517.2267, 1.394447
517.7089, 1.180374
518.1910, 0.9108510
518.6731, 0.4997180
519.1552, 0.1808550
519.6373, 0.1277160
520.1194, 0.3929600
520.6016, 0.3237150
521.0837, 0.4301450
521.5658, 1.126602
522.0479, 1.101173
522.5300, 5.3409999E-03
523.0121, 0.3668980
523.4943, 0.3323140
523.9764, 1.430046
524.4585, 1.630470
524.9406, 0.9196010
525.4227, 0.4240190
525.9048, 0.6519390
526.3870, 1.324615
526.8691, 1.625023
527.3513, 1.578964
527.8334, 1.556198
528.3155, 1.773575
528.7976, 2.139885
529.2797, 2.544739
529.7618, 2.977226
530.2440, 3.340729
530.7261, 3.470833
531.2082, 3.488785
531.6903, 3.546432
532.1724, 3.629730
532.6545, 3.828331
533.1367, 4.242805
533.6188, 4.807472
534.1009, 5.314278
534.5830, 5.721878
535.0651, 6.074509
535.5472, 6.447441
536.0294, 6.905014
536.5115, 6.898483
536.9936, 6.174416
537.4757, 5.341309
537.9578, 4.929359
538.4399, 5.006645
538.9221, 5.015236
539.4042, 4.812492
539.8863, 4.668938
540.3684, 5.280220
540.8505, 6.560509
541.3326, 7.476738
541.8148, 7.484947
542.2969, 6.945137
542.7790, 6.268509
543.2611, 5.516945
543.7432, 5.151375
544.2253, 5.998848
544.7075, 7.117294
545.1896, 7.432007
545.6717, 6.657211
546.1538, 5.882057
546.6359, 5.628426
547.1180, 5.656837
547.6002, 5.716011
548.0823, 5.736504
548.5644, 5.796463
549.0465, 5.779495
549.5286, 5.807472
550.0107, 6.289314
550.4929, 7.859131
550.9750, 8.902184
551.4571, 8.636818
551.9392, 7.050270
552.4213, 6.533546
552.9034, 7.317635
553.3856, 8.457146
553.8677, 9.356003
554.3498, 9.992264
554.8319, 10.01991
555.3140, 9.275795
555.7961, 8.403442
556.2783, 8.369965
556.7604, 8.897858
557.2425, 9.193909
557.7246, 8.705147
558.2067, 8.143471
558.6888, 8.294937
559.1710, 8.994087
559.6531, 9.640800
560.1352, 10.09497
560.6173, 10.25761
561.0994, 9.974686
561.5815, 9.180885
562.0637, 8.480873
562.5458, 7.813942
563.0279, 7.361343
563.5100, 7.271385
563.9921, 7.715523
564.4742, 8.391472
564.9564, 9.621902
565.4385, 10.75226
565.9206, 10.49745
566.4027, 8.572365
566.8848, 7.020958
567.3669, 6.431396
567.8491, 6.555580
568.3312, 6.867615
568.8133, 7.347633
569.2954, 7.607857
569.7775, 7.212387
570.2596, 6.486259
570.7418, 6.049271
571.2239, 5.958763
571.7060, 5.921722
572.1881, 5.804321
572.6702, 5.574173
573.1523, 5.124947
573.6345, 4.066856
574.1166, 3.353302
574.5987, 3.875618
575.0808, 4.919807
575.5629, 5.283241
576.0450, 4.004982
576.5272, 2.881615
577.0093, 2.277519
577.4914, 2.104141
577.9735, 1.889229
578.4556, 1.701942
578.9377, 1.431267
579.4199, 0.8657300
579.9020, 2.3178000E-02
580.3841, 0.4457550
580.8662, 0.3097530
581.3483, 1.4076000E-02
581.8304, 0.2107930
582.3126, 0.6984180
582.7947, 0.5427020
583.2768, 0.6789550
583.7589, 1.857361
584.2410, 1.596581
584.7231, 0.4139020
585.2053, 0.6483310
585.6874, 1.435188
586.1696, 1.716072
586.6517, 1.059586
587.1338, 0.3065570
587.6159, 1.382080
588.0980, 1.933174
588.5801, 2.104118
589.0623, 1.824059
589.5444, 0.9896470
590.0265, 0.4652180
590.5086, 0.3703380
590.9907, 0.4368130
591.4728, 0.4492720
591.9550, 0.3756790
592.4371, 0.4411240
592.9192, 0.6754000
593.4013, 1.018669
593.8834, 1.361794
594.3655, 1.724464
594.8477, 2.235649
595.3298, 2.981026
595.8119, 3.829681
596.2940, 4.724434
596.7761, 5.590347
597.2582, 6.209755
597.7404, 6.150284
598.2225, 6.042801
598.7046, 6.358322
599.1867, 7.117256
599.6688, 7.900948
600.1509, 8.752899
600.6331, 9.475296
601.1152, 9.907486
601.5973, 9.898560
602.0794, 9.957321
602.5615, 10.03310
603.0436, 10.22498
603.5258, 10.68243
604.0079, 11.37859
604.4900, 12.32233
604.9721, 13.62739
605.4542, 15.05658
605.9363, 16.05833
606.4185, 16.63597
606.9006, 17.12076
607.3827, 17.49696
607.8648, 17.97157
608.3469, 18.89998
608.8290, 20.21113
609.3112, 21.56031
609.7933, 22.87234
610.2754, 24.08611
610.7575, 25.13106
611.2396, 25.91904
611.7217, 26.78932
612.2039, 27.86452
612.6860, 29.04712
613.1681, 30.26547
613.6502, 31.51180
614.1323, 32.81026
614.6144, 34.26044
615.0966, 35.65547
615.5787, 36.62022
616.0608, 37.02380
616.5429, 37.85751
617.0250, 39.51359
617.5071, 41.54980
617.9893, 43.00305
618.4714, 43.90007
618.9535, 44.39564
619.4356, 44.06187
619.9177, 43.67361
620.3998, 44.31404
620.8820, 45.91444
621.3641, 47.72694
621.8462, 49.76508
622.3283, 51.58713
622.8104, 52.76001
623.2925, 53.04541
623.7747, 53.47906
624.2568, 54.21010
624.7389, 55.18802
625.2210, 56.46068
625.7031, 58.59823
626.1852, 59.66046
626.6674, 59.08315
627.1495, 57.90407
627.6316, 57.94455
628.1137, 59.25857
628.5958, 60.48222
629.0779, 61.28143
629.5601, 61.69966
630.0422, 61.68158
630.5243, 61.30685
631.0064, 60.95233
631.4885, 60.91504
631.9706, 60.93823
632.4528, 60.69684
632.9349, 60.22264
633.4170, 59.94147
633.8991, 60.52521
634.3812, 60.99419
634.8633, 60.72963
635.3455, 59.46671
635.8276, 58.08192
636.3097, 56.46428
636.7918, 54.86276
637.2739, 53.51762
637.7560, 52.51738
638.2382, 51.30029
638.7203, 49.74496
639.2024, 48.20148
639.6845, 47.28128
640.1666, 46.87785
640.6487, 46.34597
641.1309, 45.64620
641.6130, 44.50580
642.0951, 42.29805
642.5772, 39.35295
643.0594, 36.65918
643.5415, 34.83865
644.0236, 33.32365
644.5057, 31.79623
644.9879, 30.29057
645.4700, 28.99155
645.9521, 28.32784
646.4342, 27.51923
646.9163, 26.19340
647.3984, 24.25599
647.8806, 22.37868
648.3627, 20.53255
648.8448, 18.78098
649.3269, 17.12713
649.8090, 15.57287
650.2911, 14.21259
650.7733, 13.02789
651.2554, 12.06190
651.7375, 11.53643
652.2196, 11.25144
652.7017, 10.72668
653.1838, 9.853935
653.6660, 8.647438
654.1481, 6.647469
654.6302, 4.398842
655.1123, 2.841080
655.5944, 2.789368
656.0765, 2.959114
656.5587, 3.194138
657.0408, 3.378036
657.5229, 2.967728
658.0050, 1.381920
658.4871, 0.2296220
658.9692, 0.3382110
659.4514, 1.517029
659.9335, 1.467178
660.4156, 5.2253999E-02
660.8977, 1.453865
661.3798, 2.035728
661.8619, 2.004715
662.3441, 2.283302
662.8262, 2.935295
663.3083, 3.435501
663.7904, 3.283188
664.2725, 2.791618
664.7546, 2.306671
665.2368, 1.931877
665.7189, 1.464684
666.2010, 0.4803240
666.6831, 0.4820860
667.1652, 0.7597890
667.6473, 0.3306730
668.1295, 0.9748380
668.6116, 0.9172740
669.0937, 0.4462050
669.5758, 0.2170410
670.0579, 0.3024980
670.5400, 8.8638000E-02
671.0222, 1.268143
671.5043, 2.979088
671.9864, 4.969330
672.4685, 7.123970
672.9506, 8.885872
673.4327, 9.488029
673.9149, 9.864235
674.3970, 10.84162
674.8791, 12.39096
675.3612, 14.11147
675.8433, 15.88746
676.3254, 17.77891
676.8076, 19.77074
677.2897, 21.82764
677.7718, 24.25192
678.2539, 27.29559
678.7360, 30.32392
679.2181, 32.76955
679.7003, 34.49602
680.1824, 36.90536
680.6645, 40.06310
681.1466, 43.75529
681.6287, 47.99536
682.1108, 52.59928
682.5930, 56.79125
683.0751, 60.23999
683.5572, 64.01260
684.0393, 69.58714
684.5214, 75.93865
685.0035, 81.63169
685.4857, 85.10717
685.9678, 89.13491
686.4499, 94.51118
686.9320, 100.8603
687.4141, 107.3722
687.8962, 113.8808
688.3784, 120.8273
688.8605, 128.4860
689.3426, 136.5796
689.8247, 144.0400
690.3068, 150.9034
690.7889, 157.8441
691.2711, 165.0285
691.7532, 172.6177
692.2353, 181.1821
692.7174, 190.4609
693.1995, 199.2782
693.6816, 206.2689
694.1638, 212.9890
694.6459, 220.5696
695.1280, 229.1337
695.6101, 237.7608
696.0922, 246.6274
696.5743, 255.1568
697.0565, 263.1801
697.5386, 270.9111
698.0207, 277.5222
698.5028, 282.8962
698.9849, 287.4152
699.4670, 291.5440
699.9492, 295.2176
700.4313, 297.8438
700.9135, 299.3912
701.3956, 299.5533
701.8777, 297.7569
702.3598, 294.3778
702.8419, 289.9960
703.3240, 284.5353
703.8062, 278.5337
704.2883, 272.9253
704.7704, 266.7731
705.2525, 258.8304
705.7346, 247.6720
706.2167, 236.1168
706.6989, 224.1989
707.1810, 212.1666
707.6631, 200.4558
708.1452, 189.2724
708.6273, 178.4228
709.1094, 167.8186
709.5916, 157.5970
710.0737, 148.1892
710.5558, 139.5543
711.0379, 131.0385
711.5200, 122.0654
712.0021, 113.2658
712.4843, 104.8561
712.9664, 96.88338
713.4485, 89.52765
713.9306, 83.15257
714.4127, 77.20844
714.8948, 71.61117
715.3770, 66.29498
715.8591, 60.98277
716.3412, 55.35348
716.8233, 50.38127
717.3054, 46.94908
717.7875, 44.95343
718.2697, 42.41217
718.7518, 39.21927
719.2339, 35.95542
719.7160, 32.93654
720.1981, 30.23935
720.6802, 28.09068
721.1624, 26.60186
721.6445, 25.03237
722.1266, 22.53414
722.6087, 20.02692
723.0908, 18.36240
723.5729, 18.18737
724.0551, 17.87191
724.5372, 17.29714
725.0193, 16.55017
725.5014, 15.64986
725.9835, 14.51598
726.4656, 13.76520
726.9478, 13.46925
727.4299, 13.54166
727.9120, 14.12609
728.3941, 14.99444
728.8762, 15.32915
729.3583, 14.64982
729.8405, 13.97210
730.3226, 14.17730
730.8047, 14.94944
731.2868, 15.75713
731.7689, 16.20992
732.2510, 16.95178
732.7332, 18.39324
733.2153, 20.15892
733.6974, 21.47689
734.1795, 22.10925
734.6616, 22.92421
735.1437, 24.11275
735.6259, 25.62895
736.1080, 27.43118
736.5901, 29.49099
737.0722, 31.56272
737.5543, 33.65137
738.0364, 35.59491
738.5186, 37.01823
739.0007, 38.08537
739.4828, 39.42569
739.9649, 41.58885
740.4470, 43.81551
740.9291, 45.81606
741.4113, 47.56558
741.8934, 49.16209
742.3755, 50.47914
742.8576, 51.88576
743.3397, 53.61729
743.8218, 55.60590
744.3040, 57.31664
744.7861, 58.73870
745.2682, 59.87907
745.7503, 60.46805
746.2324, 60.89392
746.7145, 61.99895
747.1967, 63.73965
747.6788, 64.98217
748.1609, 64.93622
748.6430, 64.30209
749.1251, 63.40198
749.6072, 62.15158
750.0894, 61.27445
750.5715, 60.88910
751.0536, 60.74933
751.5357, 60.92770
752.0178, 61.53252
752.4999, 60.90144
752.9821, 58.86942
753.4642, 56.64732
753.9463, 55.45551
754.4284, 54.89857
754.9105, 54.19579
755.3926, 53.23351
755.8748, 52.23430
756.3569, 51.29929
756.8390, 50.38455
757.3211, 49.51350
757.8032, 49.08528
758.2853, 47.74237
758.7675, 44.71614
759.2496, 41.47385
759.7318, 39.46529
760.2139, 38.96362
760.6960, 37.97864
761.1781, 36.22883
761.6602, 34.23322
762.1423, 32.63089
762.6245, 31.28049
763.1066, 29.88069
763.5887, 28.42747
764.0708, 26.78636
764.5529, 24.63315
765.0350, 22.32676
765.5172, 20.29065
765.9993, 18.58375
766.4814, 17.29621
766.9635, 16.85792
767.4456, 16.52267
767.9277, 15.13799
768.4099, 12.44323
768.8920, 10.31712
769.3741, 9.082306
769.8562, 8.394447
770.3383, 8.049652
770.8204, 7.902557
771.3026, 7.350029
771.7847, 5.908569
772.2668, 4.417755
772.7489, 3.362305
773.2310, 2.645790
773.7131, 2.167397
774.1953, 2.080231
774.6774, 2.011963
775.1595, 1.935211
775.6416, 1.803001
776.1237, 1.406555
776.6058, 0.6953050
777.0880, 0.2354200
777.5701, 0.2239910
778.0522, 0.4311900
778.5343, 0.4995570
779.0164, 0.4676060
779.4985, 0.3899610
779.9807, 4.6499999E-04
780.4628, 0.1532670
780.9449, 0.7815090
781.4270, 2.184944
781.9091, 2.755768
782.3912, 1.403503
782.8734, 0.2348940
783.3555, 0.4617920
783.8376, 0.7970660
784.3197, 1.034264
784.8018, 1.184219
785.2839, 1.149994
785.7661, 0.8375090
786.2482, 0.4126740
786.7303, 0.2178420
787.2124, 0.1443020
787.6945, 0.1173710
788.1766, 1.006439
788.6588, 1.820869
789.1409, 2.298233
789.6230, 2.432884
790.1051, 2.183136
790.5872, 0.9651340
791.0693, 0.3155590
791.5515, 0.7225800
792.0336, 1.779800
792.5157, 2.200569
792.9978, 1.984169
793.4799, 2.026962
793.9620, 2.921898
794.4442, 3.954689
794.9263, 3.885422
795.4084, 3.077827
795.8905, 2.521515
796.3726, 2.987991
796.8547, 3.448441
797.3369, 3.366531
797.8190, 2.924240
798.3011, 2.760582
798.7832, 2.914459
799.2653, 3.324478
799.7474, 4.116364
800.2296, 5.051750
800.7117, 5.390732
801.1938, 5.181335
801.6759, 4.959045
802.1580, 5.069504
802.6401, 5.147530
803.1223, 4.621830
803.6044, 3.722485
804.0865, 3.062569
804.5686, 3.060932
805.0507, 3.117378
805.5328, 3.097271
806.0150, 2.989403
806.4971, 2.721317
806.9792, 2.195744
807.4613, 1.842060
807.9434, 1.847466
808.4255, 2.019783
808.9077, 1.839371
809.3898, 1.399292
809.8719, 1.126785
810.3540, 1.395836
810.8361, 1.706268
811.3182, 1.637199
811.8004, 1.308758
812.2825, 1.001751
812.7646, 0.5399510
813.2467, 0.4412230
813.7288, 1.035679
814.2109, 1.954685
814.6931, 2.165203
815.1752, 1.573765
815.6573, 1.186935
816.1394, 1.439938
816.6215, 1.805248
817.1037, 1.227673
817.5858, 3.9413001E-02
818.0679, 0.9033810
818.5500, 1.139294
819.0322, 1.151676
819.5143, 1.049908
819.9964, 0.9039270
820.4785, 0.8743290
820.9606, 1.128738
821.4427, 1.202972
821.9249, 1.023518
822.4070, 0.6324920
822.8891, 3.3562001E-02
823.3712, 0.9220890
823.8533, 1.417622
824.3354, 1.245308
824.8176, 0.8340680
825.2997, 0.5750350
825.7818, 0.4399800
826.2639, 0.3880650
826.7460, 0.8501280
827.2281, 0.8515630
827.7103, 0.3592610
828.1924, 1.908882
828.6745, 2.640476
829.1566, 2.381798
829.6387, 1.915333
830.1208, 1.265373
830.6030, 0.6562120
831.0851, 0.6515920
831.5672, 0.9784390
832.0493, 0.7850460
832.5314, 0.4181750
833.0135, 1.478477
833.4957, 1.502071
833.9778, 0.9725150
834.4599, 0.4517590
834.9420, 0.1728940
835.4241, 0.3168490
835.9063, 1.296444
836.3884, 2.150433
836.8705, 1.987076
837.3526, 0.8393670
837.8347, 8.7429002E-02
838.3168, 0.6588330
838.7990, 0.9701080
839.2811, 1.037601
839.7632, 0.9423940
840.2453, 0.7637630
840.7274, 0.4575580
841.2095, 0.2575990
841.6917, 0.3552360
842.1738, 0.5181770
842.6559, 0.5481680
843.1380, 0.3734320
843.6201, 0.4051440
844.1022, 0.6992070
844.5844, 1.014221
845.0665, 1.069317
845.5486, 0.9784550
846.0307, 1.136429
846.5128, 1.589233
846.9949, 1.816978
847.4771, 1.032867
847.9592, 0.2006570
848.4413, 0.1349790
848.9234, 1.103451
849.4055, 1.898769
849.8876, 2.444069
850.3698, 2.868057
850.8519, 3.343597
851.3340, 3.824772
851.8161, 3.454803
852.2982, 2.240879
852.7803, 1.236706
853.2625, 1.306683
853.7446, 1.926071
854.2267, 2.634651
854.7088, 3.391121
855.1909, 4.097355
855.6730, 4.939461
856.1552, 5.470631
856.6373, 5.449047
857.1194, 4.947777
857.6015, 4.561420
858.0836, 4.300644
858.5657, 4.048332
859.0479, 3.655739
859.5300, 3.297001
860.0121, 3.371082
860.4942, 3.787640
860.9763, 4.234043
861.4584, 4.434959
861.9406, 4.743622
862.4227, 5.464481
862.9048, 6.434902
863.3869, 7.068565
863.8690, 7.276794
864.3511, 7.367664
864.8333, 7.386860
865.3154, 7.362225
865.7975, 7.307110
866.2796, 7.250153
866.7617, 7.322998
867.2438, 7.630585
867.7260, 7.981388
868.2081, 8.303009
868.6902, 8.554169
869.1723, 8.680267
869.6544, 8.266678
870.1365, 8.328766
870.6187, 9.126358
871.1008, 10.17745
871.5829, 10.84184
872.0650, 11.12988
872.5471, 11.24464
873.0292, 11.16433
873.5114, 11.16775
873.9935, 11.73497
874.4756, 12.48616
874.9577, 12.85856
875.4399, 12.52014
875.9220, 12.40059
876.4041, 13.11246
876.8862, 13.89905
877.3683, 14.24493
877.8505, 14.06348
878.3326, 14.07449
878.8147, 14.28926
879.2968, 14.46864
879.7789, 14.17152
880.2610, 13.82197
880.7432, 14.29468
881.2253, 15.59409
881.7074, 16.63000
882.1895, 16.73881
882.6716, 16.55840
883.1537, 16.30511
883.6359, 16.01163
884.1180, 16.19049
884.6001, 16.96526
885.0822, 17.76919
885.5643, 18.26608
886.0464, 18.52069
886.5286, 18.86292
887.0107, 19.31150
887.4928, 19.70376
887.9749, 19.76807
888.4570, 19.93618
888.9391, 20.50533
889.4213, 21.29871
889.9034, 21.80276
890.3855, 21.79347
890.8676, 22.16674
891.3497, 23.20380
891.8318, 24.50742
892.3140, 25.37507
892.7961, 25.89990
893.2782, 26.39331
893.7603, 26.84166
894.2424, 27.43845
894.7245, 28.66246
895.2067, 30.10698
895.6888, 31.19161
896.1709, 31.31501
896.6530, 31.75967
897.1351, 32.50305
897.6172, 33.57695
898.0994, 35.20811
898.5815, 37.27330
899.0636, 38.78431
899.5457, 39.61430
900.0278, 40.37348
900.5099, 41.73397
900.9921, 43.13299
901.4742, 43.97932
901.9563, 44.09952
902.4384, 44.55615
902.9205, 45.63629
903.4026, 46.78178
903.8848, 47.78974
904.3669, 48.65202
904.8490, 49.27285
905.3311, 49.64288
905.8132, 50.03291
906.2953, 50.71032
906.7775, 51.47683
907.2596, 52.07774
907.7417, 52.56074
908.2238, 53.13418
908.7059, 54.13074
909.1880, 54.85284
909.6702, 55.04224
910.1523, 54.92935
910.6344, 55.13915
911.1165, 55.67651
911.5986, 56.03146
912.0807, 56.07684
912.5629, 55.84851
913.0450, 55.40707
913.5271, 54.71331
914.0092, 53.64630
914.4913, 51.72098
914.9734, 50.30102
915.4556, 49.99245
915.9377, 49.87076
916.4198, 49.12670
916.9019, 47.73609
917.3840, 46.03159
917.8661, 43.97859
918.3483, 42.07241
918.8304, 40.79035
919.3125, 39.86986
919.7946, 39.10116
920.2767, 38.46925
920.7589, 37.57884
921.2410, 36.12592
921.7231, 34.57478
922.2052, 33.11367
922.6873, 31.52576
923.1694, 30.10236
923.6516, 28.27712
924.1337, 26.48392
924.6158, 24.68534
925.0979, 23.13716
925.5800, 22.48284
926.0621, 22.35455
926.5443, 21.84805
927.0264, 20.14548
927.5085, 18.75012
927.9906, 18.11611
928.4727, 17.81246
928.9548, 17.08241
929.4370, 15.92305
929.9191, 15.17570
930.4012, 15.07398
930.8833, 15.07196
931.3654, 14.48783
931.8475, 13.65343
932.3297, 13.02972
932.8118, 12.77667
933.2939, 12.43118
933.7761, 11.46637
934.2582, 10.83924
934.7403, 11.39162
935.2224, 13.18060
935.7045, 13.51821
936.1866, 12.35128
936.6688, 11.13976
937.1509, 10.89725
937.6330, 11.16515
938.1151, 11.61768
938.5972, 12.18507
939.0793, 12.58065
939.5615, 12.66762
940.0436, 12.62397
940.5257, 12.42284
941.0078, 12.16639
941.4899, 12.15199
941.9720, 12.37202
942.4542, 12.59309
942.9363, 12.69011
943.4184, 12.91425
943.9005, 13.53632
944.3826, 14.45396
944.8647, 15.58315
945.3469, 17.26403
945.8290, 18.40793
946.3111, 18.73121
946.7932, 18.78262
947.2753, 18.98969
947.7574, 19.35154
948.2396, 19.72338
948.7217, 20.10031
949.2038, 20.71940
949.6859, 21.97244
950.1680, 23.39788
950.6501, 24.75957
951.1323, 26.00256
951.6144, 26.55631
952.0965, 25.88163
952.5786, 25.36335
953.0607, 25.45762
953.5428, 25.96948
954.0250, 26.43273
954.5071, 26.81551
954.9892, 26.90876
955.4713, 26.47306
955.9534, 25.98914
956.4355, 25.84630
956.9177, 25.87103
957.3998, 25.81165
957.8819, 25.63090
958.3640, 25.42656
958.8461, 25.34081
959.3282, 24.94337
959.8104, 23.41672
960.2925, 21.20672
960.7746, 19.99715
961.2567, 19.91764
961.7388, 19.97092
962.2209, 19.80057
962.7031, 19.29034
963.1852, 18.10175
963.6673, 16.31109
964.1494, 15.30779
964.6315, 15.34470
965.1136, 15.33259
965.5958, 14.88137
966.0779, 14.10220
966.5600, 13.04731
967.0421, 11.84943
967.5242, 10.91357
968.0063, 10.74351
968.4885, 10.37097
968.9706, 9.149940
969.4527, 7.680328
969.9348, 6.654984
970.4169, 6.125397
970.8990, 5.941635
971.3812, 6.190094
971.8633, 6.251266
972.3454, 5.132736
972.8275, 3.617760
973.3096, 3.027122
973.7917, 3.465103
974.2739, 3.549767
974.7560, 2.171600
975.2381, 1.064384
975.7202, 1.002693
976.2023, 1.725014
976.6844, 1.882950
977.1666, 1.529175
977.6487, 1.207428
978.1308, 1.102104
978.6129, 1.021309
979.0950, 0.7840880
979.5771, 0.4508670
980.0593, 0.1428680
980.5414, 0.1734770
981.0235, 0.2962720
981.5056, 9.2285000E-02
981.9877, 9.8724000E-02
982.4698, 0.2071080
982.9520, 0.8682630
983.4341, 0.9066310
983.9162, 0.2982940
984.3983, 0.1220170
984.8804, 0.5952070
985.3625, 1.389229
985.8447, 1.378704
986.3268, 0.5709230
986.8089, 0.1046070
987.2910, 5.8060002E-02
987.7731, 0.1568830
988.2552, 0.3571170
988.7374, 0.5909580
989.2195, 0.7758480
989.7016, 0.8769230
990.1837, 0.7805630
990.6658, 0.3249590
991.1479, 8.7723002E-02
991.6301, 0.4166560
992.1122, 0.5281450
992.5944, 0.2213360
993.0765, 0.6559910
993.5586, 1.075241
994.0407, 1.002850
994.5228, 0.6672900
995.0049, 4.6882998E-02
995.4871, 0.5996090
995.9692, 0.9462660
996.4513, 0.9964290
996.9334, 0.8878170
997.4155, 0.3787690
997.8976, 7.9529002E-02
998.3798, 0.1879500
998.8619, 0.5574490
999.3440, 0.9037700
999.8261, 1.213326
1000.308, 1.306870
1000.790, 1.055138
1001.272, 0.8571010
1001.755, 1.193405
1002.237, 1.678421
1002.719, 1.875832
1003.201, 1.607239
1003.683, 1.438736
1004.165, 1.355789
1004.647, 1.407310
1005.129, 1.798988
1005.612, 2.314934
1006.094, 2.217484
1006.576, 1.631226
1007.058, 1.135780
1007.540, 0.7677460
1008.022, 0.8450200
1008.504, 1.968243
1008.986, 3.446198
1009.468, 4.048454
1009.951, 3.650703
1010.433, 3.290031
1010.915, 3.069378
1011.397, 3.163513
1011.879, 4.123173
1012.361, 5.315395
1012.843, 5.910244
1013.325, 5.711418
1013.807, 5.531139
1014.290, 5.538002
1014.772, 5.555901
1015.254, 5.583084
1015.736, 5.542000
1016.218, 4.860798
1016.700, 3.709572
1017.182, 3.087990
1017.664, 3.827557
1018.147, 4.728634
1018.629, 4.935070
1019.111, 4.856590
1019.593, 5.188072
1020.075, 6.297115
1020.557, 6.714993
1021.039, 6.279881
1021.521, 5.556446
1022.003, 4.899357
1022.486, 4.398373
1022.968, 4.381912
1023.450, 4.796738
1023.932, 4.925617
1024.414, 4.044468
1024.896, 3.358746
1025.378, 3.344090
1025.860, 3.747635
1026.343, 3.894730
1026.825, 3.789383
1027.307, 3.464882
1027.789, 2.860199
1028.271, 2.265686
1028.753, 1.835167
1029.235, 1.614395
1029.717, 1.762249
1030.199, 2.585609
1030.682, 2.624935
1031.164, 1.621590
1031.646, 0.5527500
1032.128, 4.5341000E-02
1032.610, 0.2479060
1033.092, 2.4265001E-02
1033.574, 0.5746800
1034.056, 0.6729660
1034.539, 0.6909330
1035.021, 1.727608
1035.503, 1.753296
1035.985, 1.236401
1036.467, 0.6598890
1036.949, 1.7821999E-02
1037.431, 0.2436980
1037.913, 4.7779001E-02
1038.396, 0.2632870
1038.878, 0.4148370
1039.360, 0.5076330
1039.842, 0.7274130
1040.324, 1.080326
1040.806, 1.060661
1041.288, 0.4586410
1041.770, 0.1581800
1042.252, 0.6118890
1042.734, 0.9101520
1043.217, 0.9452550
1043.699, 0.9104350
1044.181, 1.287331
1044.663, 2.362072
1045.145, 3.434280
1045.627, 4.503426
1046.109, 5.226196
1046.591, 5.165440
1047.074, 4.263733
1047.556, 4.249176
1048.038, 5.132721
1048.520, 6.012486
1049.002, 6.047108
1049.484, 5.986259
1049.966, 6.727791
1050.448, 7.903969
1050.931, 8.384769
1051.413, 7.654797
1051.895, 7.196796
1052.377, 7.179710
1052.859, 7.496754
1053.341, 8.163536
1053.823, 8.992210
1054.305, 9.555195
1054.787, 9.802498
1055.270, 9.999847
1055.752, 10.36971
1056.234, 10.57672
1056.716, 10.34099
1057.198, 9.873890
1057.680, 10.08466
1058.162, 10.93129
1058.644, 11.80621
1059.126, 12.61752
1059.609, 13.12879
1060.091, 12.86440
1060.573, 12.32182
1061.055, 12.07148
1061.537, 12.23933
1062.019, 12.40224
1062.501, 12.55010
1062.983, 12.73426
1063.466, 13.02179
1063.948, 13.35035
1064.430, 13.81882
1064.912, 14.24478
1065.394, 14.07761
1065.876, 11.88090
1066.358, 10.82270
1066.840, 11.97339
1067.323, 13.76705
1067.805, 14.15736
1068.287, 13.37413
1068.769, 13.05877
1069.251, 13.34173
1069.733, 13.69961
1070.215, 13.78804
1070.697, 13.80698
1071.179, 13.95718
1071.661, 14.15847
1072.144, 13.93338
1072.626, 13.15234
1073.108, 12.90932
1073.590, 13.61922
1074.072, 14.56903
1074.554, 14.87877
1075.036, 14.86917
1075.518, 15.01273
1076.001, 15.50775
1076.483, 15.54713
1076.965, 14.83024
1077.447, 14.17529
1077.929, 13.96520
1078.411, 14.14835
1078.893, 14.73203
1079.375, 15.59268
1079.858, 16.33425
1080.340, 16.92380
1080.822, 17.18997
1081.304, 16.73959
1081.786, 16.17944
1082.268, 16.13140
1082.750, 16.61113
1083.232, 16.58205
1083.714, 16.02874
1084.197, 15.80096
1084.679, 17.10254
1085.161, 18.41528
1085.643, 18.20287
1086.125, 17.05659
1086.607, 17.08949
1087.089, 18.84177
1087.571, 19.93658
1088.054, 19.90871
1088.536, 19.60104
1089.018, 20.15890
1089.500, 20.99586
1089.982, 21.11153
1090.464, 20.39125
1090.946, 20.04903
1091.428, 20.33882
1091.911, 21.01873
1092.393, 22.18184
1092.875, 23.42041
1093.357, 23.71151
1093.839, 23.37519
1094.321, 23.25358
1094.803, 23.50867
1095.285, 24.00967
1095.767, 24.59684
1096.250, 25.48577
1096.732, 26.99084
1097.214, 29.04757
1097.696, 30.22704
1098.178, 30.56308
1098.660, 30.99726
1099.142, 32.32982
1099.624, 33.65918
1100.106, 34.04420
1100.589, 33.98496
1101.071, 34.31413
1101.553, 35.23700
1102.035, 36.08461
1102.517, 36.87231
1102.999, 37.59854
1103.481, 38.05970
1103.963, 38.44944
1104.446, 39.02826
1104.928, 39.79521
1105.410, 40.69470
1105.892, 41.80214
1106.374, 42.93440
1106.856, 44.16179
1107.338, 45.20319
1107.820, 45.43793
1108.302, 45.23761
1108.785, 45.67110
1109.267, 46.86302
1109.749, 47.75129
1110.231, 47.37724
1110.713, 47.27833
1111.195, 48.25594
1111.677, 49.69143
1112.159, 49.61734
1112.641, 48.34215
1113.124, 47.46471
1113.606, 47.36514
1114.088, 47.59910
1114.570, 48.51009
1115.052, 49.09881
1115.534, 48.29661
1116.016, 46.21944
1116.498, 45.30813
1116.981, 45.59626
1117.463, 45.79018
1117.945, 45.24605
1118.427, 44.48683
1118.909, 44.00534
1119.391, 43.65345
1119.873, 43.26273
1120.355, 43.00340
1120.838, 41.99836
1121.320, 40.07697
1121.802, 38.15355
1122.284, 36.80212
1122.766, 35.88746
1123.248, 35.44134
1123.730, 35.22485
1124.212, 34.59423
1124.694, 32.69939
1125.177, 31.42329
1125.659, 31.12806
1126.141, 31.02673
1126.623, 30.21666
1127.105, 28.96695
1127.587, 27.97374
1128.069, 27.23557
1128.551, 26.48335
1129.033, 25.61697
1129.516, 24.67278
1129.998, 23.56444
1130.480, 22.48179
1130.962, 21.84020
1131.444, 21.52649
1131.926, 20.87786
1132.408, 19.79163
1132.890, 18.65233
1133.373, 17.69291
1133.855, 16.74998
1134.337, 15.71224
1134.819, 14.62215
1135.301, 13.60962
1135.783, 12.68768
1136.265, 11.98838
1136.747, 11.64536
1137.229, 11.14798
1137.712, 9.744862
1138.194, 8.224094
1138.676, 7.367306
1139.158, 7.170261
1139.640, 6.754208
1140.122, 6.076073
1140.604, 5.587559
1141.086, 5.568108
1141.569, 5.637024
1142.051, 5.454422
1142.533, 5.045555
1143.015, 4.380722
1143.497, 3.288300
1143.979, 2.551304
1144.461, 2.216957
1144.943, 2.095699
1145.426, 2.234085
1145.908, 2.386135
1146.390, 2.088085
1146.872, 1.512955
1147.354, 1.014622
1147.836, 0.5205080
1148.318, 0.4963760
1148.800, 1.195023
1149.282, 1.790588
1149.765, 1.439293
1150.247, 0.5305370
1150.729, 0.2735400
1151.211, 0.8705790
1151.693, 0.9570080
1152.175, 0.1283870
1152.657, 0.9871860
1153.139, 1.442425
1153.621, 1.540573
1154.104, 1.107708
1154.586, 0.3795620
1155.068, 0.3136710
1155.550, 0.8889660
1156.032, 1.192970
1156.514, 0.4109150
1156.996, 0.2691610
1157.478, 0.5102120
1157.961, 0.4068600
1158.443, 8.9080997E-02
1158.925, 0.8081320
1159.407, 0.8034550
1159.889, 6.8741001E-02
1160.371, 0.7709050
1160.853, 0.5152360
1161.335, 7.6504000E-02
1161.818, 0.2143820
1162.300, 0.3514520
1162.782, 0.2757110
1163.264, 8.1209997E-03
1163.746, 0.2377400
1164.228, 0.4334530
1164.710, 0.5073930
1165.192, 0.3550990
1165.674, 9.5950998E-02
1166.156, 0.2830960
1166.639, 0.7110020
1167.121, 0.5955850
1167.603, 5.6800999E-02
1168.085, 0.3423310
1168.567, 0.2053600
1169.049, 0.6655960
1169.531, 5.2795000E-02
1170.013, 1.051994
1170.496, 1.411724
1170.978, 1.108723
1171.460, 0.6822430
1171.942, 0.1188320
1172.424, 0.3575860
1172.906, 0.6361270
1173.388, 0.7968860
1173.870, 0.8947490
1174.353, 0.9419520
1174.835, 0.9588320
1175.317, 0.9604800
1175.799, 0.8439290
1176.281, 0.5834620
1176.763, 0.3836100
1177.245, 0.3101080
1177.727, 0.4069560
1178.209, 0.8889660
1178.692, 1.518730
1179.174, 1.875248
1179.656, 1.778015
1180.138, 1.790993
1180.620, 1.943596
1181.102, 2.081066
1181.584, 1.983212
1182.066, 1.847847
1182.548, 2.112530
1183.031, 1.829468
1183.513, 1.575962
1183.995, 1.536907
1184.477, 0.9501760
1184.959, 0.8270570
1185.441, 0.8727760
1185.923, 0.8023450
1186.405, 0.9911610
1186.888, 1.011471
1187.370, 1.475025
1187.852, 1.859798
1188.334, 2.207466
1188.816, 2.231327
1189.298, 1.820385
1189.780, 1.366928
1190.262, 1.241257
1190.745, 1.356606
1191.227, 1.793957
1191.709, 2.408497
1192.191, 2.427284
1192.673, 1.077385
1193.155, 0.4315260
1193.637, 0.9653850
1194.119, 1.729794
1194.601, 1.520161
1195.084, 0.8194350
1195.566, 0.3173260
1196.048, 7.4588999E-02
1196.530, 7.5511999E-02
1197.012, 0.3777080
1197.494, 0.7971690
1197.976, 1.346493
1198.458, 1.890675
1198.941, 2.338234
1199.423, 2.601299
1199.905, 2.337948
1200.387, 1.542049
1200.869, 1.281788
1201.351, 2.032326
1201.833, 2.797585
1202.315, 3.430134
1202.797, 3.775345
1203.280, 3.282745
1203.762, 2.446625
1204.244, 2.235954
1204.726, 2.836502
1205.208, 3.067577
1205.690, 2.498020
1206.172, 2.021053
1206.654, 1.893093
1207.136, 2.006954
1207.619, 2.357986
1208.101, 2.743446
1208.583, 2.657280
1209.065, 1.888069
1209.547, 1.724331
1210.029, 2.872471
1210.511, 3.566868
1210.993, 2.981724
1211.476, 1.934589
1211.958, 1.856155
1212.440, 2.418236
1212.922, 3.189854
1213.404, 4.261326
1213.886, 4.573708
1214.368, 3.875065
1214.850, 2.769764
1215.333, 1.255886
1215.815, 7.0014998E-02
1216.297, 8.7929003E-02
1216.779, 1.128887
1217.261, 1.992348
1217.743, 2.384903
1218.225, 2.823196
1218.707, 3.621941
1219.189, 3.967857
1219.672, 3.258636
1220.154, 2.106495
1220.636, 1.504414
1221.118, 1.328743
1221.600, 1.409328
1222.082, 1.852772
1222.564, 2.105465
1223.046, 2.102280
1223.528, 2.091618
1224.011, 2.200607
1224.493, 2.363991
1224.975, 2.594238
1225.457, 2.743107
1225.939, 2.531174
1226.421, 1.625721
1226.903, 1.321766
1227.385, 1.716167
1227.868, 2.254501
1228.350, 2.968788
1228.832, 3.434937
1229.314, 2.531982
1229.796, 1.028954
1230.278, 0.2233510
1230.760, 0.5550460
1231.242, 1.085857
1231.724, 1.923595
1232.207, 2.448719
1232.689, 1.974274
1233.171, 1.326962
1233.653, 1.743614
1234.135, 2.672058
1234.617, 3.193230
1235.099, 3.190434
1235.581, 2.795815
1236.063, 1.964115
1236.546, 1.273846
1237.028, 1.279873
1237.510, 1.400604
1237.992, 0.7128830
1238.474, 0.1597600
1238.956, 2.0424001E-02
1239.438, 1.639084
1239.920, 2.117958
1240.403, 1.318657
1240.885, 0.5978660
1241.367, 0.9459040
1241.849, 1.621403
1242.331, 2.230640
1242.813, 2.605881
1243.295, 2.394688
1243.777, 1.358582
1244.260, 1.230221
1244.742, 2.005318
1245.224, 2.751518
1245.706, 2.982479
1246.188, 2.893826
1246.670, 2.490032
1247.152, 1.917530
1247.634, 1.334267
1248.116, 0.6753690
1248.599, 0.3613360
1249.081, 0.3664590
1249.563, 0.4967460
1250.045, 0.8888590
1250.527, 1.208881
1251.009, 0.9511180
1251.491, 0.7266620
1251.973, 1.295658
1252.455, 2.626812
1252.938, 3.479118
1253.420, 3.832344
1253.902, 3.717812
1254.384, 2.523457
1254.866, 1.672829
1255.348, 1.928486
1255.830, 2.517338
1256.313, 2.789410
1256.795, 2.805912
1257.277, 2.896908
1257.759, 3.006035
1258.241, 2.835728
1258.723, 1.635521
1259.205, 1.033215
1259.687, 1.552017
1260.169, 2.356720
1260.651, 2.617233
1261.134, 2.437767
1261.616, 2.029068
1262.098, 1.486702
1262.580, 1.153648
1263.062, 1.182793
1263.544, 1.474537
1264.026, 2.227909
1264.508, 2.738510
1264.991, 2.015118
1265.473, 0.8614620
1265.955, 1.071598
1266.437, 0.6134570
1266.919, 0.3436810
1267.401, 0.9705920
1267.883, 0.5766640
1268.365, 1.584991
1268.848, 2.737522
1269.330, 3.038563
1269.812, 2.936539
1270.294, 2.987293
1270.776, 3.063042
1271.258, 2.961693
1271.740, 2.610485
1272.222, 2.238258
1272.704, 1.855572
1273.187, 1.590134
1273.669, 1.645226
1274.151, 1.751949
1274.633, 1.578152
1275.115, 1.343571
1275.597, 1.432045
1276.079, 1.931221
1276.561, 2.112049
1277.043, 1.974880
1277.526, 1.708054
1278.008, 1.241554
1278.490, 0.9126700
1278.972, 1.013706
1279.454, 1.301601
1279.936, 1.541531
1280.418, 1.731323
1280.900, 1.961243
1281.383, 2.203182
1281.865, 2.278423
1282.347, 1.886616
1282.829, 1.620083
1283.311, 1.911510
1283.793, 2.107025
1284.275, 1.456085
1284.757, 0.3233600
1285.240, 0.5126190
1285.722, 1.593250
1286.204, 2.124043
1286.686, 1.059639
1287.168, 0.2817230
1287.650, 4.4479001E-02
1288.132, 3.9154001E-02
1288.614, 0.7800250
1289.096, 1.716816
1289.578, 1.788906
1290.061, 1.350533
1290.543, 1.154644
1291.025, 1.719574
1291.507, 1.562485
1291.989, 0.4682920
1292.471, 0.3309250
1292.953, 7.4482001E-02
1293.435, 0.8775670
1293.918, 1.180714
1294.400, 1.221786
1294.882, 1.343273
1295.364, 1.555229
1295.846, 1.781414
1296.328, 2.025494
1296.810, 2.172863
1297.292, 2.221550
1297.775, 1.815151
1298.257, 1.069313
1298.739, 0.3069840
1299.221, 1.5799999E-02
1299.703, 6.2217999E-02
1300.185, 0.2751270
1300.667, 0.6275250
1301.149, 0.6873470
1301.631, 0.4536710
1302.114, 0.1772310
1302.596, 0.0000000E+00
##END=



