##NAMES=Muscovite
##RRUFFID=R050080
##IDEAL CHEMISTRY=KAl_2_(Si_3_Al)O_10_(OH)_2_
##LOCALITY=Brazil
##OWNER=RRUFF
##SOURCE=Rock Currier
##DESCRIPTION=Tan colored micaceous crystals of 2M1 polytype
##STATUS=The identification of this mineral has been confirmed by X-ray diffraction and chemical analysis
##URL=rruff.info/R050080
##MEASURED CHEMISTRY=(K_0.93_Na_0.07_)(Al_0.99_Fe^3+^_0.01_)_2_(Si_3.00_Al_1.00_)O_10_((OH)_0.97_F_0.03_)_2_
176.1783, 0.0000000E+00
176.6604, 5.121094
177.1425, 2.000000
177.6246, 1.976563
178.1067, 1.664063
178.5888, 8.457031
179.0710, 10.20703
179.5531, 12.22266
180.0352, 27.73047
180.5173, 62.21484
180.9994, 107.2539
181.4815, 155.8711
181.9637, 208.0195
182.4458, 241.8320
182.9279, 224.7734
183.4100, 170.5703
183.8921, 131.1406
184.3742, 118.8242
184.8564, 131.5234
185.3385, 171.9336
185.8206, 242.8906
186.3027, 315.0586
186.7848, 344.5742
187.2669, 340.0195
187.7491, 370.4570
188.2312, 481.6797
188.7133, 647.0469
189.1954, 766.7266
189.6775, 831.8438
190.1596, 880.4609
190.6418, 958.7344
191.1239, 1065.375
191.6060, 1180.016
192.0881, 1296.676
192.5702, 1415.117
193.0524, 1535.426
193.5345, 1658.531
194.0166, 1780.133
194.4987, 1893.957
194.9808, 2000.531
195.4629, 2091.887
195.9451, 2159.996
196.4272, 2206.684
196.9093, 2247.301
197.3914, 2284.266
197.8735, 2312.152
198.3556, 2316.871
198.8378, 2295.156
199.3199, 2270.062
199.8020, 2266.023
200.2841, 2287.484
200.7662, 2249.719
201.2483, 2137.699
201.7305, 1999.832
202.2126, 1915.270
202.6947, 1915.414
203.1768, 1941.527
203.6589, 1941.223
204.1410, 1904.199
204.6232, 1887.145
205.1053, 1882.910
205.5874, 1879.270
206.0695, 1856.312
206.5516, 1804.961
207.0337, 1774.094
207.5159, 1799.562
207.9980, 1897.930
208.4801, 1972.754
208.9622, 1999.125
209.4443, 1993.027
209.9264, 2037.359
210.4086, 2147.902
210.8907, 2277.914
211.3728, 2396.988
211.8549, 2514.387
212.3370, 2592.668
212.8191, 2621.414
213.3013, 2604.551
213.7834, 2581.855
214.2655, 2559.555
214.7476, 2521.273
215.2297, 2451.867
215.7118, 2345.527
216.1940, 2222.551
216.6761, 2083.645
217.1582, 1929.090
217.6403, 1772.473
218.1224, 1611.637
218.6045, 1453.328
219.0867, 1302.863
219.5688, 1158.660
220.0509, 1028.258
220.5330, 917.7266
221.0151, 826.6172
221.4972, 735.4336
221.9794, 645.7852
222.4615, 553.8711
222.9436, 450.7617
223.4257, 319.0117
223.9078, 212.7070
224.3899, 154.1445
224.8721, 148.9023
225.3542, 110.5000
225.8363, 11.33203
226.3184, 94.70312
226.8005, 139.7773
227.2827, 91.97266
227.7648, 43.67188
228.2469, 16.61719
228.7290, 12.91406
229.2111, 17.32031
229.6932, 39.39453
230.1754, 62.42578
230.6575, 60.29297
231.1396, 10.66016
231.6217, 23.58594
232.1038, 18.49609
232.5859, 37.99219
233.0681, 67.64844
233.5502, 61.14062
234.0323, 37.51562
234.5144, 16.40625
234.9965, 0.3828130
235.4786, 17.04688
235.9608, 41.97266
236.4429, 80.28125
236.9250, 89.26172
237.4071, 33.47266
237.8892, 29.89844
238.3713, 2.175781
238.8535, 175.0039
239.3356, 345.6484
239.8177, 457.5781
240.2998, 494.1602
240.7819, 535.2656
241.2640, 578.2227
241.7462, 628.5508
242.2283, 697.1953
242.7104, 790.5312
243.1925, 891.6914
243.6746, 994.4258
244.1567, 1096.270
244.6389, 1209.836
245.1210, 1331.855
245.6031, 1466.961
246.0852, 1620.781
246.5673, 1787.863
247.0494, 1983.543
247.5316, 2223.293
248.0137, 2533.254
248.4958, 2794.410
248.9779, 2969.781
249.4600, 3115.758
249.9421, 3333.707
250.4243, 3651.754
250.9064, 3994.145
251.3885, 4332.152
251.8706, 4657.930
252.3527, 5009.953
252.8348, 5382.184
253.3170, 5782.984
253.7991, 6232.203
254.2812, 6744.695
254.7633, 7266.590
255.2454, 7771.137
255.7275, 8231.812
256.2097, 8763.680
256.6918, 9399.699
257.1739, 10077.73
257.6560, 10691.72
258.1381, 11231.63
258.6202, 11730.40
259.1024, 12204.56
259.5845, 12648.33
260.0666, 13079.66
260.5487, 13535.04
261.0308, 13948.87
261.5129, 14226.32
261.9951, 14366.17
262.4772, 14365.12
262.9593, 14205.73
263.4414, 13862.95
263.9235, 13472.72
264.4056, 13024.16
264.8878, 12533.80
265.3699, 12023.25
265.8520, 11492.57
266.3341, 10929.63
266.8162, 10309.39
267.2983, 9621.621
267.7805, 8976.086
268.2626, 8386.129
268.7447, 7829.199
269.2268, 7256.207
269.7089, 6648.523
270.1910, 6093.637
270.6732, 5630.055
271.1553, 5268.617
271.6374, 4913.816
272.1195, 4563.410
272.6016, 4222.223
273.0837, 3908.133
273.5659, 3621.227
274.0480, 3353.848
274.5301, 3094.383
275.0122, 2843.945
275.4943, 2649.566
275.9764, 2523.227
276.4586, 2428.367
276.9407, 2306.250
277.4228, 2153.109
277.9049, 2013.973
278.3870, 1909.570
278.8691, 1838.555
279.3513, 1772.898
279.8334, 1715.363
280.3155, 1655.574
280.7976, 1577.715
281.2798, 1481.586
281.7619, 1381.848
282.2440, 1271.414
282.7261, 1156.348
283.2082, 1096.504
283.6903, 1106.156
284.1725, 1120.160
284.6546, 1045.000
285.1367, 889.2500
285.6188, 770.2930
286.1009, 749.3555
286.5830, 798.7227
287.0652, 800.3281
287.5473, 748.5117
288.0294, 674.6875
288.5115, 601.5664
288.9936, 535.7344
289.4757, 504.7695
289.9579, 540.3711
290.4400, 606.2891
290.9221, 601.8633
291.4042, 524.0977
291.8863, 438.5312
292.3684, 407.9922
292.8506, 424.6523
293.3327, 457.8984
293.8148, 519.3945
294.2969, 579.0312
294.7790, 561.8203
295.2611, 467.6250
295.7433, 374.0508
296.2254, 363.6133
296.7075, 412.6211
297.1896, 455.2578
297.6717, 479.8945
298.1538, 484.3008
298.6360, 446.5469
299.1181, 371.4258
299.6002, 315.3516
300.0823, 348.4492
300.5644, 428.3047
301.0465, 471.3906
301.5287, 433.7578
302.0108, 378.2969
302.4929, 384.9531
302.9750, 443.3906
303.4571, 491.6758
303.9392, 469.3828
304.4214, 417.8906
304.9035, 397.8320
305.3856, 442.6875
305.8677, 491.0273
306.3498, 482.0430
306.8319, 428.3750
307.3141, 375.1719
307.7962, 348.5273
308.2783, 335.4844
308.7604, 322.9922
309.2425, 305.3672
309.7246, 293.7070
310.2068, 304.3633
310.6889, 327.8047
311.1710, 339.8828
311.6531, 326.1641
312.1352, 298.4453
312.6173, 256.4648
313.0995, 184.5625
313.5816, 144.6719
314.0637, 194.7344
314.5458, 295.4688
315.0279, 373.5430
315.5100, 394.9531
315.9922, 390.7891
316.4743, 375.8203
316.9564, 351.3555
317.4385, 317.8906
317.9206, 251.8242
318.4027, 182.2070
318.8849, 149.5469
319.3670, 203.0586
319.8491, 261.6641
320.3312, 297.1172
320.8133, 305.6484
321.2954, 301.8086
321.7776, 286.9141
322.2597, 262.0039
322.7418, 228.2031
323.2239, 150.8359
323.7060, 99.36328
324.1881, 107.2773
324.6703, 182.9375
325.1524, 220.3789
325.6345, 172.3008
326.1166, 103.6523
326.5987, 66.73047
327.0808, 95.86328
327.5630, 116.7266
328.0451, 119.4297
328.5272, 104.7266
329.0093, 87.65625
329.4914, 61.61719
329.9735, 38.73828
330.4557, 28.47266
330.9378, 46.70312
331.4199, 49.10938
331.9020, 24.91406
332.3841, 18.84375
332.8662, 49.61719
333.3484, 72.94531
333.8305, 75.05469
334.3126, 37.44531
334.7947, 68.01953
335.2768, 121.1094
335.7589, 99.86719
336.2411, 31.65234
336.7232, 15.37109
337.2053, 36.99609
337.6874, 49.49609
338.1695, 62.43750
338.6516, 78.07422
339.1338, 71.42578
339.6159, 32.89453
340.0980, 12.88672
340.5801, 16.72656
341.0622, 25.84375
341.5443, 64.89844
342.0265, 80.51562
342.5086, 74.35938
342.9907, 55.57422
343.4728, 21.25000
343.9549, 12.38281
344.4370, 25.83594
344.9192, 19.70703
345.4013, 0.9218750
345.8834, 52.00781
346.3655, 111.7695
346.8476, 113.5664
347.3297, 56.11328
347.8119, 15.37109
348.2940, 67.39844
348.7761, 100.2734
349.2582, 111.3750
349.7403, 89.66797
350.2225, 57.83594
350.7046, 41.25391
351.1867, 40.88672
351.6688, 63.05469
352.1509, 148.5742
352.6331, 250.3672
353.1152, 289.8750
353.5973, 222.3281
354.0794, 140.1328
354.5615, 126.1953
355.0436, 165.5820
355.5258, 212.8359
356.0079, 234.7930
356.4900, 258.2305
356.9721, 315.8555
357.4542, 429.1328
357.9363, 520.9531
358.4185, 521.9492
358.9006, 474.9922
359.3827, 454.2305
359.8648, 485.8398
360.3469, 553.2422
360.8290, 671.8320
361.3112, 857.8711
361.7933, 984.4297
362.2754, 957.4219
362.7575, 871.8047
363.2396, 830.7891
363.7217, 891.1719
364.2039, 964.8828
364.6860, 1036.699
365.1681, 1106.289
365.6502, 1160.441
366.1323, 1178.598
366.6144, 1193.098
367.0966, 1226.461
367.5787, 1283.281
368.0608, 1353.797
368.5429, 1449.680
369.0250, 1563.191
369.5071, 1652.797
369.9893, 1720.945
370.4714, 1762.125
370.9535, 1763.340
371.4356, 1673.395
371.9177, 1665.352
372.3998, 1780.398
372.8820, 1959.168
373.3641, 2061.141
373.8462, 2054.715
374.3283, 2052.852
374.8104, 2102.801
375.2925, 2210.375
375.7747, 2304.996
376.2568, 2376.680
376.7389, 2457.316
377.2210, 2626.355
377.7031, 2897.168
378.1852, 3056.578
378.6674, 2991.043
379.1495, 2764.992
379.6316, 2653.566
380.1137, 2663.457
380.5958, 2733.352
381.0779, 2842.031
381.5601, 2974.918
382.0422, 3042.359
382.5243, 2999.402
383.0064, 2917.062
383.4885, 2925.000
383.9706, 3011.965
384.4528, 3092.008
384.9349, 3083.668
385.4170, 3036.699
385.8991, 3037.180
386.3812, 3105.934
386.8633, 3198.066
387.3455, 3270.746
387.8276, 3334.340
388.3097, 3414.625
388.7918, 3536.207
389.2739, 3671.113
389.7560, 3804.301
390.2382, 3935.039
390.7203, 4040.785
391.2024, 4093.047
391.6845, 4121.074
392.1666, 4162.035
392.6487, 4220.434
393.1309, 4288.070
393.6130, 4362.633
394.0951, 4444.539
394.5772, 4534.270
395.0593, 4650.656
395.5414, 4763.973
396.0236, 4853.926
396.5057, 4908.402
396.9878, 4951.707
397.4699, 4973.613
397.9520, 4984.992
398.4341, 5018.566
398.9163, 5089.477
399.3984, 5163.047
399.8805, 5228.148
400.3626, 5281.199
400.8447, 5350.824
401.3268, 5453.320
401.8090, 5554.699
402.2911, 5604.539
402.7732, 5592.691
403.2553, 5552.211
403.7374, 5480.035
404.2195, 5378.117
404.7017, 5301.996
405.1838, 5262.578
405.6659, 5230.207
406.1480, 5170.254
406.6301, 5081.793
407.1122, 5007.684
407.5944, 4964.141
408.0765, 4930.590
408.5586, 4854.633
409.0407, 4736.859
409.5228, 4608.961
410.0049, 4482.180
410.4871, 4362.090
410.9692, 4271.516
411.4513, 4220.637
411.9334, 4166.773
412.4155, 4042.855
412.8976, 3872.199
413.3798, 3725.773
413.8619, 3663.832
414.3440, 3624.117
414.8261, 3536.602
415.3082, 3399.664
415.7903, 3258.207
416.2725, 3121.332
416.7546, 3003.008
417.2367, 2919.070
417.7188, 2928.879
418.2009, 2915.766
418.6830, 2806.242
419.1652, 2624.020
419.6473, 2459.043
420.1294, 2330.430
420.6115, 2233.926
421.0937, 2174.668
421.5758, 2191.242
422.0579, 2164.414
422.5400, 2035.316
423.0221, 1862.660
423.5042, 1741.188
423.9864, 1724.609
424.4685, 1703.176
424.9506, 1647.680
425.4327, 1554.402
425.9148, 1479.430
426.3969, 1426.707
426.8791, 1387.758
427.3612, 1358.004
427.8433, 1342.008
428.3254, 1323.629
428.8075, 1310.566
429.2896, 1289.523
429.7718, 1194.090
430.2539, 1003.574
430.7360, 846.5938
431.2181, 822.8281
431.7002, 921.6289
432.1823, 985.6211
432.6645, 1005.094
433.1466, 996.8711
433.6287, 990.7656
434.1108, 980.4375
434.5929, 931.1367
435.0750, 787.4844
435.5572, 613.7344
436.0393, 525.6758
436.5214, 520.9375
437.0035, 549.3047
437.4856, 602.1719
437.9677, 653.3086
438.4499, 661.5117
438.9320, 601.1406
439.4141, 522.0547
439.8962, 443.8828
440.3783, 374.7930
440.8604, 333.0586
441.3426, 371.2969
441.8247, 407.3867
442.3068, 386.7227
442.7889, 285.9531
443.2710, 211.3711
443.7531, 222.1016
444.2353, 260.4609
444.7174, 264.6641
445.1995, 174.5898
445.6816, 105.7383
446.1637, 87.95703
446.6458, 114.5469
447.1280, 132.2266
447.6101, 154.8203
448.0922, 154.1953
448.5743, 103.2031
449.0564, 44.77344
449.5385, 111.5352
450.0207, 64.16797
450.5028, 44.40625
450.9849, 113.0391
451.4670, 134.6133
451.9491, 137.3867
452.4312, 124.2695
452.9134, 100.0156
453.3955, 99.14844
453.8776, 126.3516
454.3597, 146.8086
454.8418, 113.0039
455.3239, 39.86328
455.8061, 7.816406
456.2882, 9.855469
456.7703, 2.273438
457.2524, 25.12891
457.7345, 75.67188
458.2166, 96.27734
458.6988, 21.81641
459.1809, 83.33984
459.6630, 144.8555
460.1451, 150.5508
460.6272, 140.5156
461.1093, 138.7383
461.5915, 137.6992
462.0736, 126.5078
462.5557, 80.37500
463.0378, 45.81641
463.5199, 48.75781
464.0020, 83.03906
464.4842, 106.7148
464.9663, 87.81250
465.4484, 74.38281
465.9305, 94.64062
466.4126, 186.8633
466.8947, 247.2773
467.3769, 259.6602
467.8590, 246.7656
468.3411, 247.4453
468.8232, 272.8477
469.3053, 290.6445
469.7874, 294.1406
470.2696, 282.4727
470.7517, 245.3008
471.2338, 169.2070
471.7159, 110.7617
472.1980, 138.7773
472.6801, 250.4375
473.1623, 314.4766
473.6444, 299.4883
474.1265, 157.1641
474.6086, 285.5938
475.0907, 360.0547
475.5728, 383.9570
476.0550, 203.8711
476.5371, 287.6289
477.0192, 264.8984
477.5013, 237.5938
477.9834, 357.6250
478.4655, 206.1680
478.9477, 323.8945
479.4298, 334.1992
479.9119, 393.6875
480.3940, 346.6953
480.8761, 332.5820
481.3582, 424.9766
481.8404, 458.8789
482.3225, 399.8398
482.8046, 462.4062
483.2867, 307.2109
483.7688, 343.0742
484.2509, 461.3711
484.7331, 421.6406
485.2152, 545.2070
485.6973, 603.2578
486.1794, 566.7852
486.6615, 511.9023
487.1436, 440.5977
487.6258, 358.3984
488.1079, 285.3281
488.5900, 211.5078
489.0721, 176.0391
489.5542, 228.3555
490.0363, 370.2070
490.5185, 422.3516
491.0006, 364.3438
491.4827, 267.3945
491.9648, 220.1250
492.4470, 215.2539
492.9291, 213.2031
493.4112, 192.0664
493.8933, 173.3516
494.3754, 121.7109
494.8575, 240.6836
495.3397, 305.5547
495.8218, 319.2148
496.3039, 128.3320
496.7860, 201.5195
497.2681, 168.8438
497.7502, 131.8086
498.2324, 242.0938
498.7145, 81.76953
499.1966, 192.2070
499.6787, 194.2266
500.1608, 243.7969
500.6429, 186.8672
501.1251, 162.8125
501.6072, 245.2422
502.0893, 268.6680
502.5714, 199.3867
503.0535, 251.9531
503.5356, 114.9297
504.0178, 139.7109
504.4999, 203.1562
504.9820, 270.7305
505.4641, 290.2383
505.9462, 256.4844
506.4283, 199.1367
506.9105, 113.6602
507.3926, 10.81250
507.8747, 51.65234
508.3568, 74.22656
508.8389, 72.54688
509.3210, 42.15234
509.8032, 4.445313
510.2853, 32.80859
510.7674, 37.36328
511.2495, 29.25000
511.7316, 17.46484
512.2137, 1.593750
512.6959, 19.39453
513.1780, 75.75000
513.6601, 112.7695
514.1422, 70.53516
514.6243, 36.85156
515.1064, 109.1992
515.5886, 79.39062
516.0707, 20.55469
516.5528, 21.24609
517.0349, 48.17969
517.5170, 53.40234
517.9991, 23.70703
518.4813, 23.21875
518.9634, 67.11719
519.4455, 117.4570
519.9276, 146.8555
520.4097, 138.2891
520.8918, 100.8516
521.3740, 109.2969
521.8561, 179.5859
522.3382, 240.7773
522.8203, 239.3086
523.3024, 181.1445
523.7845, 148.5000
524.2667, 141.9648
524.7488, 151.1523
525.2309, 168.5977
525.7130, 189.4414
526.1951, 194.7852
526.6772, 159.8477
527.1594, 122.5703
527.6415, 138.7070
528.1236, 195.5508
528.6057, 238.3750
529.0878, 216.7695
529.5699, 181.0352
530.0521, 171.9570
530.5342, 202.2070
531.0163, 225.4414
531.4984, 228.4922
531.9805, 221.5273
532.4626, 209.5156
532.9448, 159.9453
533.4269, 136.7852
533.9090, 157.2031
534.3911, 211.3711
534.8732, 258.1992
535.3553, 300.2383
535.8375, 329.3086
536.3196, 341.1875
536.8017, 336.3672
537.2838, 332.6367
537.7659, 327.6562
538.2480, 317.8398
538.7302, 253.7659
539.2123, 272.4374
539.6944, 279.1073
540.1765, 274.4217
540.6586, 224.3692
541.1407, 232.8997
541.6229, 217.9499
542.1050, 202.0408
542.5871, 218.8153
543.0692, 175.3614
543.5513, 191.6187
544.0334, 193.7148
544.5156, 202.7383
544.9977, 215.6250
545.4798, 229.5586
545.9619, 240.4258
546.4440, 237.6016
546.9261, 246.3125
547.4083, 281.1367
547.8904, 327.9648
548.3725, 359.7227
548.8546, 364.3164
549.3367, 375.7656
549.8188, 412.9297
550.3010, 469.9297
550.7831, 471.1680
551.2652, 403.0703
551.7473, 324.0078
552.2294, 268.4297
552.7115, 237.4258
553.1937, 240.9219
553.6758, 287.9609
554.1579, 334.5469
554.6400, 324.1836
555.1221, 269.8672
555.6042, 209.0781
556.0864, 132.9805
556.5685, 78.38672
557.0506, 104.8164
557.5327, 191.5781
558.0148, 265.8555
558.4969, 287.9805
558.9791, 289.0664
559.4612, 280.3438
559.9433, 255.5352
560.4254, 256.4570
560.9075, 324.5625
561.3896, 401.8984
561.8718, 439.3203
562.3539, 394.0742
562.8360, 384.9297
563.3181, 440.3789
563.8002, 527.0430
564.2823, 557.2578
564.7645, 514.8672
565.2466, 483.1523
565.7287, 513.7773
566.2108, 585.2188
566.6929, 564.5938
567.1750, 449.6992
567.6572, 329.4297
568.1393, 276.2891
568.6214, 268.9023
569.1035, 270.0000
569.5856, 275.7383
570.0677, 281.2617
570.5499, 286.4453
571.0320, 286.0547
571.5141, 276.6680
571.9962, 245.2461
572.4783, 228.3828
572.9604, 245.6367
573.4426, 286.3125
573.9247, 306.6680
574.4068, 282.3477
574.8889, 251.1602
575.3710, 225.5156
575.8531, 205.3867
576.3353, 209.2773
576.8174, 258.8711
577.2995, 296.3750
577.7816, 249.7344
578.2637, 106.7578
578.7458, 8.097656
579.2280, 16.47266
579.7101, 2.730469
580.1922, 27.89062
580.6743, 80.37500
581.1564, 93.19531
581.6385, 19.90625
582.1207, 161.2656
582.6028, 181.9805
583.0849, 96.70703
583.5670, 23.21094
584.0491, 50.26953
584.5313, 103.7305
585.0134, 123.8789
585.4955, 90.78125
585.9776, 63.88672
586.4597, 57.64062
586.9418, 64.50781
587.4240, 77.88281
587.9061, 133.8828
588.3882, 138.2344
588.8703, 54.01562
589.3524, 81.39844
589.8345, 154.0469
590.3167, 151.2031
590.7988, 135.2812
591.2809, 132.9375
591.7630, 139.1562
592.2451, 127.7812
592.7272, 98.19531
593.2094, 75.69531
593.6915, 105.0078
594.1736, 151.3203
594.6557, 136.3672
595.1378, 33.57031
595.6199, 66.62500
596.1021, 80.07812
596.5842, 52.06250
597.0663, 46.77344
597.5485, 128.1953
598.0306, 192.0078
598.5127, 200.5391
598.9948, 162.3594
599.4769, 116.2891
599.9590, 47.27344
600.4412, 8.625000
600.9233, 44.16406
601.4054, 60.46875
601.8875, 28.35156
602.3696, 70.00000
602.8517, 172.4141
603.3339, 216.8359
603.8160, 208.7656
604.2981, 214.9062
604.7802, 246.0078
605.2623, 279.6484
605.7444, 267.6328
606.2266, 233.3125
606.7087, 239.7969
607.1908, 352.4688
607.6729, 471.4766
608.1550, 512.7031
608.6371, 493.9688
609.1193, 475.9453
609.6014, 488.7266
610.0835, 502.5625
610.5656, 492.9219
611.0477, 450.1875
611.5298, 453.1328
612.0120, 541.3125
612.4941, 637.9453
612.9762, 685.0078
613.4583, 657.5938
613.9404, 674.8516
614.4225, 756.9375
614.9047, 857.6797
615.3868, 899.6172
615.8689, 887.2812
616.3510, 894.9688
616.8331, 951.3906
617.3152, 1029.445
617.7974, 1098.258
618.2795, 1155.078
618.7616, 1194.742
619.2437, 1201.594
619.7258, 1199.297
620.2079, 1196.016
620.6901, 1192.906
621.1722, 1221.414
621.6543, 1332.656
622.1364, 1451.328
622.6185, 1525.180
623.1006, 1529.336
623.5828, 1538.320
624.0649, 1544.000
624.5470, 1561.961
625.0291, 1619.969
625.5112, 1730.469
625.9933, 1812.203
626.4755, 1842.742
626.9576, 1845.750
627.4397, 1871.992
627.9218, 1917.602
628.4039, 1953.289
628.8860, 1968.406
629.3682, 1943.415
629.8503, 1985.605
630.3324, 2012.549
630.8145, 2024.889
631.2966, 1988.614
631.7787, 2007.673
632.2609, 2000.007
632.7430, 1988.131
633.2251, 2005.691
633.7072, 1959.774
634.1893, 1970.322
634.6714, 1953.784
635.1536, 1944.902
635.6357, 1909.157
636.1178, 1877.458
636.5999, 1866.141
637.0820, 1833.023
637.5641, 1773.805
638.0463, 1721.523
638.5284, 1693.141
639.0105, 1683.453
639.4926, 1701.984
639.9747, 1735.727
640.4568, 1735.852
640.9390, 1635.883
641.4211, 1513.023
641.9032, 1447.688
642.3853, 1444.945
642.8674, 1433.375
643.3495, 1383.383
643.8317, 1315.336
644.3138, 1237.945
644.7959, 1112.836
645.2780, 1061.227
645.7601, 1129.266
646.2422, 1230.250
646.7244, 1259.648
647.2065, 1198.688
647.6886, 1133.789
648.1707, 1085.930
648.6528, 1042.875
649.1349, 960.1719
649.6171, 847.5625
650.0992, 775.7422
650.5813, 825.7812
651.0634, 905.3203
651.5455, 895.3125
652.0276, 806.8672
652.5098, 706.3359
652.9919, 602.4375
653.4740, 520.5391
653.9561, 483.2422
654.4382, 501.0156
654.9203, 513.5156
655.4025, 527.0312
655.8846, 521.9062
656.3667, 472.9922
656.8488, 339.3984
657.3309, 299.1719
657.8130, 393.7734
658.2952, 517.8672
658.7773, 496.1016
659.2594, 344.9453
659.7415, 265.9375
660.2236, 346.0156
660.7057, 462.0703
661.1879, 409.3516
661.6700, 245.2969
662.1521, 130.4922
662.6342, 185.4141
663.1163, 277.6328
663.5984, 332.0078
664.0806, 349.9844
664.5627, 363.5859
665.0448, 390.5703
665.5269, 404.6250
666.0090, 392.0703
666.4911, 348.7188
666.9733, 311.3047
667.4554, 286.7031
667.9375, 254.3125
668.4196, 175.3594
668.9017, 53.59375
669.3839, 24.00000
669.8660, 113.2344
670.3481, 225.3047
670.8302, 227.3438
671.3123, 169.5703
671.7944, 166.7734
672.2766, 297.2344
672.7587, 421.5547
673.2408, 431.6328
673.7229, 372.5547
674.2050, 333.4922
674.6871, 325.9688
675.1693, 356.2656
675.6514, 459.3672
676.1335, 611.5078
676.6156, 677.9375
677.0977, 616.1016
677.5798, 565.4219
678.0620, 592.4453
678.5441, 688.8594
679.0262, 768.5703
679.5083, 831.1875
679.9904, 897.4609
680.4725, 984.6094
680.9547, 1086.336
681.4368, 1201.039
681.9189, 1330.641
682.4010, 1441.578
682.8831, 1461.016
683.3652, 1473.594
683.8474, 1567.805
684.3295, 1832.820
684.8116, 2070.180
685.2937, 2248.781
685.7758, 2385.930
686.2579, 2495.539
686.7401, 2566.797
687.2222, 2633.969
687.7043, 2685.492
688.1864, 2752.180
688.6685, 2924.086
689.1506, 3195.500
689.6328, 3474.133
690.1149, 3723.773
690.5970, 3956.383
691.0791, 4196.805
691.5612, 4441.227
692.0433, 4662.648
692.5255, 4827.375
693.0076, 4985.875
693.4897, 5174.320
693.9718, 5398.586
694.4539, 5612.734
694.9360, 5815.750
695.4182, 6001.602
695.9003, 6163.500
696.3824, 6286.547
696.8645, 6453.062
697.3466, 6689.266
697.8287, 6900.055
698.3109, 6953.938
698.7930, 6881.742
699.2751, 6849.852
699.7572, 6893.578
700.2393, 6959.023
700.7214, 7007.125
701.2036, 7034.812
701.6857, 7037.953
702.1678, 7060.156
702.6499, 7004.875
703.1320, 6778.148
703.6141, 6448.305
704.0963, 6189.742
704.5784, 6083.828
705.0605, 5936.164
705.5426, 5695.320
706.0247, 5380.820
706.5068, 5090.758
706.9890, 4829.367
707.4711, 4545.367
707.9532, 4186.039
708.4353, 3791.492
708.9174, 3470.070
709.3995, 3218.312
709.8817, 3016.859
710.3638, 2898.492
710.8459, 2796.406
711.3280, 2652.664
711.8101, 2456.383
712.2922, 2251.148
712.7744, 2018.898
713.2565, 1803.328
713.7386, 1630.930
714.2207, 1513.586
714.7028, 1411.141
715.1849, 1328.641
715.6671, 1250.664
716.1492, 1153.430
716.6313, 1039.992
717.1134, 941.6328
717.5955, 870.4531
718.0776, 796.3906
718.5598, 651.2969
719.0419, 481.5703
719.5240, 380.1094
720.0061, 458.3828
720.4882, 515.5391
720.9703, 409.8516
721.4525, 219.4219
721.9346, 122.4375
722.4167, 257.3047
722.8988, 335.6953
723.3809, 267.0312
723.8630, 100.6172
724.3452, 71.33594
724.8273, 204.0078
725.3094, 308.0391
725.7915, 273.0469
726.2736, 152.2266
726.7557, 78.36719
727.2379, 48.10156
727.7200, 39.28125
728.2021, 37.35156
728.6842, 44.99219
729.1663, 88.79688
729.6484, 172.4062
730.1306, 214.9219
730.6127, 150.2891
731.0948, 73.33594
731.5769, 34.21875
732.0590, 35.46094
732.5411, 69.87500
733.0233, 143.2891
733.5054, 232.1094
733.9875, 330.4609
734.4696, 438.9766
734.9517, 510.8906
735.4338, 525.9297
735.9160, 525.1719
736.3981, 564.6094
736.8802, 631.8906
737.3623, 706.2266
737.8444, 773.9375
738.3266, 834.3672
738.8087, 904.7344
739.2908, 977.0859
739.7729, 1040.016
740.2551, 1055.266
740.7372, 1115.438
741.2193, 1261.547
741.7014, 1442.797
742.1835, 1536.898
742.6656, 1542.273
743.1478, 1576.977
743.6299, 1702.266
744.1120, 1848.609
744.5941, 1897.969
745.0762, 1873.984
745.5583, 1852.336
746.0405, 1867.180
746.5226, 1898.008
747.0047, 1946.953
747.4868, 2005.672
747.9689, 2032.664
748.4510, 1975.266
748.9332, 1949.461
749.4153, 2013.156
749.8974, 2145.531
750.3795, 2196.125
750.8616, 2157.195
751.3438, 2101.578
751.8259, 2065.516
752.3080, 2048.781
752.7901, 2071.672
753.2722, 2128.977
753.7543, 2143.172
754.2365, 2015.438
754.7186, 1855.922
755.2007, 1752.234
755.6828, 1718.758
756.1649, 1712.070
756.6470, 1766.773
757.1292, 1809.156
757.6113, 1788.961
758.0934, 1652.035
758.5755, 1641.870
759.0576, 1619.705
759.5397, 1586.190
760.0219, 1507.292
760.5040, 1486.987
760.9861, 1443.209
761.4682, 1398.463
761.9503, 1386.403
762.4324, 1314.118
762.9146, 1301.530
763.3967, 1223.562
763.8788, 1054.609
764.3609, 927.2578
764.8430, 904.5000
765.3251, 909.7031
765.8073, 847.6016
766.2894, 691.1719
766.7715, 575.1875
767.2536, 522.3906
767.7357, 511.3047
768.2178, 522.5234
768.7000, 552.2344
769.1821, 568.1172
769.6642, 562.6641
770.1463, 518.7891
770.6284, 375.9766
771.1105, 193.5391
771.5927, 84.37500
772.0748, 145.3125
772.5569, 212.9922
773.0390, 268.7188
773.5211, 300.8828
774.0032, 260.1641
774.4854, 110.8750
774.9675, 30.62500
775.4496, 106.2734
775.9317, 254.5703
776.4138, 246.7891
776.8959, 110.3594
777.3781, 6.164063
777.8602, 0.9921880
778.3423, 37.89062
778.8244, 41.51562
779.3065, 15.29688
779.7886, 13.23438
780.2708, 67.50000
780.7529, 87.14062
781.2350, 35.15625
781.7171, 76.47656
782.1992, 133.8359
782.6813, 132.3594
783.1635, 99.14844
783.6456, 24.17188
784.1277, 71.10938
784.6098, 123.9219
785.0919, 133.6641
785.5740, 104.0859
786.0562, 5.328125
786.5383, 121.9141
787.0204, 189.0078
787.5025, 203.2891
787.9846, 180.7969
788.4667, 79.66406
788.9489, 13.48438
789.4310, 62.56250
789.9131, 65.33594
790.3952, 49.96875
790.8773, 7.156250
791.3594, 10.72656
791.8416, 84.42188
792.3237, 229.7656
792.8058, 224.6719
793.2879, 58.53906
793.7700, 82.57031
794.2521, 9.773438
794.7343, 108.2578
795.2164, 117.2734
795.6985, 40.65625
796.1806, 120.5547
796.6627, 34.06250
797.1448, 65.10156
797.6270, 71.88281
798.1091, 29.74219
798.5912, 98.68750
799.0733, 133.1797
799.5554, 145.1250
800.0375, 136.4375
800.5197, 117.4688
801.0018, 101.5938
801.4839, 88.07812
801.9660, 83.82812
802.4481, 116.9297
802.9302, 151.5547
803.4124, 150.3828
803.8945, 63.11719
804.3766, 55.25000
804.8587, 192.2188
805.3408, 326.5938
805.8229, 284.1875
806.3051, 65.80469
806.7872, 14.94531
807.2693, 85.78906
807.7514, 224.0234
808.2335, 267.6953
808.7156, 246.6406
809.1978, 197.4141
809.6799, 113.1406
810.1620, 49.87500
810.6441, 36.07031
811.1262, 52.07812
811.6083, 80.33594
812.0905, 132.1641
812.5726, 165.8984
813.0547, 172.6094
813.5368, 178.1094
814.0189, 223.6094
814.5010, 297.1719
814.9832, 334.3516
815.4653, 324.1641
815.9474, 297.9531
816.4295, 267.4453
816.9116, 244.8047
817.3937, 251.6875
817.8759, 338.1562
818.3580, 364.8438
818.8401, 216.9297
819.3222, 53.89844
819.8043, 41.50000
820.2864, 225.4375
820.7686, 349.1250
821.2507, 384.4688
821.7328, 369.2734
822.2149, 329.4141
822.6970, 278.4922
823.1791, 256.4922
823.6613, 284.5859
824.1434, 302.2500
824.6255, 265.2422
825.1076, 197.6328
825.5897, 126.4219
826.0718, 0.3437500
826.5540, 42.79688
827.0361, 32.10156
827.5182, 152.6016
828.0003, 244.4141
828.4824, 306.8047
828.9645, 329.1094
829.4467, 301.6875
829.9288, 266.3125
830.4109, 280.6641
830.8930, 315.3750
831.3751, 321.3516
831.8572, 265.6719
832.3394, 226.7734
832.8215, 241.9141
833.3036, 282.6172
833.7857, 316.8984
834.2678, 343.0547
834.7499, 366.0469
835.2321, 385.0781
835.7142, 402.4141
836.1963, 432.4062
836.6784, 464.2578
837.1605, 451.2656
837.6426, 376.0938
838.1248, 289.7031
838.6069, 232.2578
839.0890, 191.7656
839.5711, 148.6797
840.0532, 68.56250
840.5353, 41.99219
841.0175, 104.1875
841.4996, 188.5938
841.9817, 218.2266
842.4638, 191.4219
842.9459, 184.5781
843.4280, 208.8438
843.9102, 248.8906
844.3923, 281.0312
844.8744, 308.8203
845.3565, 339.1250
845.8386, 375.9453
846.3207, 406.3750
846.8029, 447.3438
847.2850, 460.7812
847.7671, 410.4062
848.2492, 249.7500
848.7313, 165.6719
849.2134, 180.9297
849.6956, 205.2812
850.1777, 121.7656
850.6598, 19.65625
851.1419, 48.71094
851.6240, 58.07812
852.1061, 170.0703
852.5883, 194.5391
853.0704, 176.3672
853.5525, 154.5703
854.0346, 113.2734
854.5167, 102.7812
854.9988, 147.6953
855.4810, 188.5938
855.9631, 181.8672
856.4452, 121.8984
856.9273, 62.27344
857.4094, 3.273438
857.8915, 39.47656
858.3737, 55.74219
858.8558, 45.34375
859.3379, 9.148438
859.8200, 114.3594
860.3021, 180.7500
860.7842, 152.2266
861.2664, 91.05469
861.7485, 23.32812
862.2306, 56.14844
862.7127, 83.65625
863.1948, 52.25000
863.6769, 4.484375
864.1591, 35.09375
864.6412, 63.44531
865.1233, 89.42969
865.6054, 109.7812
866.0875, 124.8125
866.5696, 125.9219
867.0518, 130.0000
867.5339, 155.2500
868.0160, 202.8828
868.4981, 219.0859
868.9802, 198.7656
869.4623, 161.2344
869.9445, 107.8047
870.4266, 44.18750
870.9087, 7.492188
871.3908, 45.66406
871.8729, 49.96875
872.3550, 25.58594
872.8372, 112.6797
873.3193, 151.3047
873.8014, 148.1016
874.2835, 146.7031
874.7656, 150.7188
875.2477, 166.2734
875.7299, 200.9922
876.2120, 247.0859
876.6941, 270.6953
877.1762, 268.7656
877.6583, 276.6641
878.1404, 329.0859
878.6226, 381.9609
879.1047, 377.2109
879.5869, 329.4375
880.0690, 276.4688
880.5511, 213.9766
881.0332, 169.8516
881.5153, 153.8359
881.9974, 160.7188
882.4796, 184.7266
882.9617, 228.7500
883.4438, 271.9219
883.9259, 306.1484
884.4080, 333.6250
884.8901, 361.7109
885.3723, 388.9766
885.8544, 411.9688
886.3365, 434.4141
886.8186, 443.0312
887.3007, 414.1719
887.7828, 375.1719
888.2650, 365.5469
888.7471, 399.0703
889.2292, 425.5156
889.7113, 439.2812
890.1934, 448.3359
890.6755, 465.8438
891.1577, 488.0781
891.6398, 500.7188
892.1219, 497.2969
892.6040, 503.0547
893.0861, 532.0312
893.5682, 580.2422
894.0504, 649.6172
894.5325, 765.8438
895.0146, 830.9297
895.4967, 821.7734
895.9788, 804.0469
896.4609, 836.3750
896.9431, 910.1328
897.4252, 974.7344
897.9073, 1025.922
898.3894, 1064.695
898.8715, 1076.859
899.3536, 1093.133
899.8358, 1142.055
900.3179, 1227.734
900.8000, 1318.594
901.2821, 1434.648
901.7642, 1519.258
902.2463, 1530.922
902.7285, 1484.312
903.2106, 1501.641
903.6927, 1580.836
904.1748, 1666.664
904.6569, 1740.367
905.1390, 1794.102
905.6212, 1807.984
906.1033, 1791.617
906.5854, 1788.023
907.0675, 1811.547
907.5496, 1851.250
908.0317, 1922.391
908.5139, 1995.258
908.9960, 1964.828
909.4781, 1837.500
909.9602, 1792.680
910.4423, 1940.742
910.9244, 2122.008
911.4066, 2136.203
911.8887, 2044.172
912.3708, 1958.773
912.8529, 1887.797
913.3350, 1870.703
913.8171, 1963.250
914.2993, 2075.305
914.7814, 2071.531
915.2635, 1939.656
915.7456, 1848.906
916.2277, 1831.648
916.7098, 1833.719
917.1920, 1787.422
917.6741, 1724.305
918.1562, 1696.719
918.6383, 1733.703
919.1204, 1737.164
919.6025, 1650.500
920.0847, 1537.383
920.5668, 1438.016
921.0489, 1356.609
921.5310, 1327.672
922.0131, 1362.000
922.4952, 1379.641
922.9774, 1289.133
923.4595, 1153.047
923.9416, 1073.656
924.4237, 1054.812
924.9058, 1043.180
925.3879, 1044.922
925.8701, 1021.906
926.3522, 947.7812
926.8343, 834.1328
927.3164, 783.8906
927.7985, 803.5391
928.2806, 821.4688
928.7628, 800.7578
929.2449, 761.4219
929.7270, 741.6719
930.2091, 736.6484
930.6912, 719.8125
931.1733, 652.7422
931.6555, 603.8281
932.1376, 612.0781
932.6197, 643.3828
933.1018, 641.5156
933.5839, 603.4219
934.0660, 546.5312
934.5482, 460.8516
935.0303, 397.4375
935.5124, 447.6562
935.9945, 559.1641
936.4766, 636.2500
936.9587, 641.1094
937.4409, 657.3828
937.9230, 741.5625
938.4051, 825.1250
938.8872, 854.5000
939.3693, 821.7188
939.8514, 773.9922
940.3336, 707.1016
940.8157, 660.6406
941.2978, 682.8672
941.7799, 738.7188
942.2620, 783.2578
942.7441, 812.7109
943.2263, 826.6953
943.7084, 801.6562
944.1905, 784.9688
944.6726, 797.6406
945.1547, 834.9453
945.6368, 866.0781
946.1190, 890.6250
946.6011, 922.6172
947.0832, 973.5625
947.5653, 1029.711
948.0474, 1082.852
948.5295, 1126.891
949.0117, 1147.195
949.4938, 1103.945
949.9759, 1081.953
950.4580, 1106.102
950.9401, 1152.016
951.4222, 1186.258
951.9044, 1209.141
952.3865, 1211.938
952.8686, 1186.852
953.3507, 1172.617
953.8328, 1241.625
954.3149, 1331.320
954.7971, 1350.844
955.2792, 1251.242
955.7613, 1205.641
956.2434, 1303.852
956.7255, 1385.367
957.2076, 1342.219
957.6898, 1178.203
958.1719, 1028.672
958.6540, 893.1328
959.1361, 808.7969
959.6182, 872.0938
960.1003, 941.5859
960.5825, 844.5703
961.0646, 616.5938
961.5467, 495.1406
962.0288, 613.6797
962.5109, 704.4375
962.9930, 700.4688
963.4752, 633.3125
963.9573, 567.7891
964.4394, 506.0234
964.9215, 462.1797
965.4036, 455.8047
965.8857, 438.3047
966.3679, 328.7266
966.8500, 202.1719
967.3321, 161.0547
967.8142, 309.2734
968.2963, 373.0078
968.7784, 323.9609
969.2606, 244.0156
969.7427, 212.7656
970.2248, 217.9375
970.7069, 250.1953
971.1890, 308.2969
971.6711, 321.6875
972.1533, 194.7188
972.6354, 47.99219
973.1175, 44.13281
973.5996, 77.82031
974.0817, 64.76562
974.5638, 12.32031
975.0460, 78.74219
975.5281, 97.11719
976.0102, 88.06250
976.4923, 100.6719
976.9744, 121.4844
977.4565, 123.6328
977.9387, 75.26562
978.4208, 96.89062
978.9029, 29.38281
979.3850, 101.4766
979.8671, 122.2734
980.3492, 61.89062
980.8314, 18.61719
981.3135, 6.929688
981.7956, 31.65625
982.2777, 91.22656
982.7598, 63.10938
983.2419, 52.30469
983.7241, 60.05469
984.2062, 117.0781
984.6883, 67.38281
985.1704, 50.67969
985.6525, 143.5156
986.1346, 175.2188
986.6168, 113.3125
987.0989, 173.5547
987.5810, 15.60938
988.0631, 49.17188
988.5452, 165.3516
989.0273, 108.8828
989.5095, 171.1406
989.9916, 191.4688
990.4737, 3.031250
990.9558, 171.9844
991.4379, 186.3906
991.9200, 42.09375
992.4022, 198.8203
992.8843, 76.42969
993.3664, 53.66406
993.8485, 105.8828
994.3306, 79.94531
994.8127, 177.2578
995.2949, 155.8438
995.7770, 123.8203
996.2591, 156.0547
996.7412, 131.1328
997.2233, 64.21875
997.7054, 20.62500
998.1876, 69.07812
998.6697, 156.9219
999.1518, 154.1875
999.6339, 82.89062
1000.116, 31.44531
1000.598, 49.02344
1001.080, 83.69531
1001.562, 120.6953
1002.044, 158.5469
1002.527, 196.0391
1003.009, 233.6719
1003.491, 262.6641
1003.973, 285.5234
1004.455, 279.1875
1004.937, 164.5859
1005.419, 31.15625
1005.901, 2.218750
1006.384, 126.3281
1006.866, 242.3125
1007.348, 348.8750
1007.830, 415.2188
1008.312, 410.4922
1008.794, 348.7109
1009.276, 308.2344
1009.758, 288.3516
1010.240, 281.7969
1010.723, 282.0781
1011.205, 296.4609
1011.687, 342.3672
1012.169, 404.8359
1012.651, 445.5938
1013.133, 465.6797
1013.615, 455.7422
1014.097, 405.7969
1014.580, 348.2266
1015.062, 331.9688
1015.544, 339.8125
1016.026, 339.2891
1016.508, 323.3281
1016.990, 305.1719
1017.472, 300.1641
1017.954, 283.6953
1018.436, 230.9531
1018.919, 146.0938
1019.401, 114.3828
1019.883, 135.8984
1020.365, 191.6016
1020.847, 318.8828
1021.329, 435.0000
1021.811, 442.9062
1022.293, 375.6250
1022.776, 314.2969
1023.258, 267.7656
1023.740, 240.3750
1024.222, 236.4609
1024.704, 245.5312
1025.186, 274.4141
1025.668, 304.6875
1026.150, 249.6562
1026.632, 88.46094
1027.115, 34.78906
1027.597, 2.453125
1028.079, 72.58594
1028.561, 113.8672
1029.043, 121.7969
1029.525, 158.3828
1030.007, 230.1172
1030.489, 271.1094
1030.972, 246.9531
1031.454, 177.6484
1031.936, 63.86719
1032.418, 67.24219
1032.900, 159.4688
1033.382, 199.1172
1033.864, 186.6953
1034.346, 100.8047
1034.828, 3.273438
1035.311, 64.25781
1035.793, 86.90625
1036.275, 91.48438
1036.757, 87.71094
1037.239, 79.96875
1037.721, 84.26562
1038.203, 76.03906
1038.685, 17.95312
1039.167, 78.73438
1039.650, 78.19531
1040.132, 47.21875
1040.614, 156.8516
1041.096, 214.3828
1041.578, 221.3047
1042.060, 141.9531
1042.542, 24.11719
1043.024, 41.83594
1043.507, 7.171875
1043.989, 39.17969
1044.471, 80.60156
1044.953, 128.6953
1045.435, 220.8125
1045.917, 345.3438
1046.399, 299.1719
1046.881, 90.17969
1047.364, 48.78125
1047.846, 139.1797
1048.328, 359.2188
1048.810, 395.2109
1049.292, 283.7109
1049.774, 231.1875
1050.256, 264.3047
1050.738, 263.5781
1051.220, 196.1016
1051.703, 110.6406
1052.185, 79.84375
1052.667, 80.20312
1053.149, 68.58594
1053.631, 28.93750
1054.113, 13.93750
1054.595, 38.00781
1055.077, 90.75781
1055.559, 174.9531
1056.042, 284.8906
1056.524, 425.9297
1057.006, 581.4766
1057.488, 615.4766
1057.970, 281.5625
1058.452, 19.21094
1058.934, 15.20312
1059.416, 240.9766
1059.899, 383.9688
1060.381, 433.3203
1060.863, 400.7109
1061.345, 266.8125
1061.827, 136.9531
1062.309, 143.5547
1062.791, 211.3984
1063.273, 216.4219
1063.755, 150.4297
1064.238, 128.1484
1064.720, 247.8984
1065.202, 325.3125
1065.684, 286.4688
1066.166, 182.8359
1066.648, 170.6641
1067.130, 228.2969
1067.612, 251.0078
1068.094, 187.0547
1068.577, 125.3125
1069.059, 104.0625
1069.541, 122.4297
1070.023, 191.0547
1070.505, 333.0703
1070.987, 375.2266
1071.469, 309.4844
1071.951, 229.8594
1072.434, 180.6797
1072.916, 168.1484
1073.398, 229.8438
1073.880, 337.7266
1074.362, 393.7109
1074.844, 331.4297
1075.326, 294.9219
1075.808, 305.9141
1076.291, 341.1797
1076.773, 360.2109
1077.255, 377.6797
1077.737, 456.5703
1078.219, 610.3203
1078.701, 708.1172
1079.183, 633.7656
1079.665, 532.2969
1080.147, 473.9375
1080.630, 453.1172
1081.112, 435.6172
1081.594, 421.6328
1082.076, 419.9688
1082.558, 441.2578
1083.040, 461.7812
1083.522, 436.1406
1084.004, 407.6094
1084.486, 445.2188
1084.969, 613.3594
1085.451, 669.6797
1085.933, 590.1484
1086.415, 481.3438
1086.897, 407.4219
1087.379, 367.8047
1087.861, 368.5469
1088.343, 404.2656
1088.826, 453.0469
1089.308, 518.4375
1089.790, 581.8516
1090.272, 641.6484
1090.754, 684.8281
1091.236, 696.5938
1091.718, 682.3281
1092.200, 637.4297
1092.682, 555.5234
1093.165, 526.5781
1093.647, 674.1484
1094.129, 838.0156
1094.611, 919.9297
1095.093, 922.7344
1095.575, 894.2891
1096.057, 838.2031
1096.539, 806.7031
1097.022, 809.3594
1097.504, 832.0312
1097.986, 894.1875
1098.468, 960.7891
1098.950, 984.7578
1099.432, 938.4453
1099.914, 898.6641
1100.396, 855.2266
1100.879, 850.6484
1101.361, 970.7812
1101.843, 1135.258
1102.325, 1172.477
1102.807, 1109.008
1103.289, 1053.203
1103.771, 986.0703
1104.253, 1028.898
1104.735, 1282.617
1105.218, 1541.633
1105.700, 1456.930
1106.182, 1116.438
1106.664, 980.9141
1107.146, 1102.633
1107.628, 1238.523
1108.110, 1237.227
1108.592, 1210.961
1109.074, 1230.719
1109.557, 1277.797
1110.039, 1254.594
1110.521, 1159.820
1111.003, 1113.148
1111.485, 1161.461
1111.967, 1229.273
1112.449, 1265.516
1112.931, 1269.336
1113.414, 1220.945
1113.896, 1090.555
1114.378, 1082.680
1114.860, 1228.250
1115.342, 1363.945
1115.824, 1411.266
1116.306, 1379.945
1116.788, 1235.109
1117.271, 1033.352
1117.753, 902.3828
1118.235, 930.3281
1118.717, 970.5781
1119.199, 1030.906
1119.681, 1071.000
1120.163, 1023.617
1120.645, 919.8672
1121.127, 868.6719
1121.609, 872.4844
1122.092, 882.5781
1122.574, 870.7031
1123.056, 866.5156
1123.538, 883.8125
1124.020, 910.7891
1124.502, 933.8516
1124.984, 949.2969
1125.466, 915.1328
1125.949, 818.1875
1126.431, 723.0391
1126.913, 667.6328
1127.395, 637.6875
1127.877, 636.8750
1128.359, 656.9375
1128.841, 626.3438
1129.323, 541.0000
1129.806, 478.2891
1130.288, 467.2188
1130.770, 487.7656
1131.252, 562.9922
1131.734, 637.2891
1132.216, 627.1094
1132.698, 490.6562
1133.180, 395.4141
1133.662, 348.0000
1134.145, 316.2500
1134.627, 277.4531
1135.109, 242.8359
1135.591, 233.3594
1136.073, 242.3984
1136.555, 253.0078
1137.037, 282.7891
1137.519, 273.0938
1138.001, 201.4531
1138.484, 130.5078
1138.966, 140.3750
1139.448, 197.7500
1139.930, 220.3281
1140.412, 207.1953
1140.894, 192.5078
1141.376, 186.9141
1141.858, 187.4922
1142.341, 197.5625
1142.823, 208.5781
1143.305, 199.7344
1143.787, 177.3906
1144.269, 170.5234
1144.751, 185.4531
1145.233, 203.9141
1145.715, 245.8828
1146.198, 263.0078
1146.680, 216.4766
1147.162, 126.1719
1147.644, 77.48438
1148.126, 71.82812
1148.608, 132.4141
1149.090, 308.1406
1149.572, 442.6719
1150.054, 390.0234
1150.536, 253.1406
1151.019, 116.2891
1151.501, 16.79688
1151.983, 67.23438
1152.465, 31.57812
1152.947, 5.492188
1153.429, 69.05469
1153.911, 133.3672
1154.393, 95.55469
1154.876, 5.125000
1155.358, 49.42969
1155.840, 43.82031
1156.322, 62.59375
1156.804, 114.1250
1157.286, 153.4453
1157.768, 135.4922
1158.250, 90.95312
1158.733, 35.99219
1159.215, 14.19531
1159.697, 2.515625
1160.179, 134.1562
1160.661, 200.2188
1161.143, 151.2734
1161.625, 90.78906
1162.107, 176.0234
1162.589, 315.3438
1163.072, 343.0547
1163.554, 252.8984
1164.036, 170.7266
1164.518, 127.5938
1165.000, 94.28906
1165.482, 56.21094
1165.964, 37.52344
1166.446, 122.4297
1166.928, 251.8516
1167.411, 271.1172
1167.893, 128.9375
1168.375, 49.37500
1168.857, 191.7812
1169.339, 299.0859
1169.821, 255.5156
1170.303, 121.6719
1170.785, 67.80469
1171.268, 75.41406
1171.750, 77.57031
1172.232, 32.07031
1172.714, 35.57031
1173.196, 188.0391
1173.678, 341.8281
1174.160, 402.8828
1174.642, 386.4141
1175.125, 401.1094
1175.607, 432.3281
1176.089, 396.6016
1176.571, 169.6562
1177.053, 20.49219
1177.535, 64.27344
1178.017, 28.68750
1178.499, 44.82812
1178.981, 155.8047
1179.464, 215.0078
1179.946, 224.1797
1180.428, 220.7969
1180.910, 232.7812
1181.392, 234.0000
1181.874, 194.6484
1182.356, 144.4297
1182.838, 129.5234
1183.320, 150.6953
1183.803, 160.9141
1184.285, 156.3203
1184.767, 151.8750
1185.249, 152.4531
1185.731, 163.5391
1186.213, 203.2188
1186.695, 258.1562
1187.177, 277.4922
1187.660, 251.5859
1188.142, 227.3906
1188.624, 212.8906
1189.106, 217.5703
1189.588, 275.7734
1190.070, 335.2344
1190.552, 345.8750
1191.034, 314.0234
1191.516, 300.8047
1191.999, 307.9062
1192.481, 318.6484
1192.963, 329.5938
1193.445, 340.7344
1193.927, 356.3281
1194.409, 369.1641
1194.891, 362.5000
1195.373, 335.0000
1195.855, 368.4141
1196.338, 476.3672
1196.820, 525.3984
1197.302, 445.3906
1197.784, 322.6562
1198.266, 220.1719
1198.748, 143.5703
1199.230, 150.9766
1199.712, 272.2500
1200.195, 293.3359
1200.677, 201.0000
1201.159, 94.46094
1201.641, 3.585938
1202.123, 45.60938
1202.605, 0.6640630
1203.087, 98.96094
1203.569, 197.5000
1204.052, 321.8828
1204.534, 330.8047
1205.016, 206.3281
1205.498, 74.85156
1205.980, 27.21875
1206.462, 16.43750
1206.944, 25.64844
1207.426, 71.74219
1207.908, 51.61719
1208.391, 63.03906
1208.873, 177.3594
1209.355, 291.2500
1209.837, 376.9688
1210.319, 421.4219
1210.801, 426.7656
1211.283, 352.0703
1211.765, 231.9844
1212.247, 205.6406
1212.730, 340.7266
1213.212, 372.7969
1213.694, 253.9141
1214.176, 124.4062
1214.658, 128.9453
1215.140, 190.2344
1215.622, 225.3281
1216.104, 234.3438
1216.587, 254.0938
1217.069, 305.7891
1217.551, 288.0469
1218.033, 166.9688
1218.515, 49.73438
1218.997, 91.92188
1219.479, 180.7656
1219.961, 166.8750
1220.443, 52.15625
1220.926, 41.57812
1221.408, 178.1328
1221.890, 274.2266
1222.372, 285.2266
1222.854, 244.9609
1223.336, 157.8984
1223.818, 65.13281
1224.300, 16.18750
1224.782, 19.17969
1225.265, 29.12500
1225.747, 46.27344
1226.229, 68.16406
1226.711, 99.46875
1227.193, 123.1250
1227.675, 105.9766
1228.157, 77.25781
1228.639, 77.91406
1229.122, 117.0938
1229.604, 115.8281
1230.086, 62.67969
1230.568, 47.76562
1231.050, 125.2266
1231.532, 215.5703
1232.014, 226.8984
1232.496, 198.4453
1232.979, 178.2344
1233.461, 171.8047
1233.943, 163.5547
1234.425, 154.0078
1234.907, 131.9688
1235.389, 82.57031
1235.871, 42.44531
1236.353, 48.50000
1236.835, 78.17188
1237.318, 110.4688
1237.800, 150.0234
1238.282, 138.5703
1238.764, 73.26562
1239.246, 14.28125
1239.728, 14.06250
1240.210, 10.50781
1240.692, 60.92969
1241.175, 146.9688
1241.657, 172.7578
1242.139, 129.0625
1242.621, 80.60938
1243.103, 29.09375
1243.585, 17.54688
1244.067, 83.69531
1244.549, 112.2578
1245.031, 33.37500
1245.514, 90.94531
1245.996, 180.2500
1246.478, 236.9297
1246.960, 217.3750
1247.442, 125.9062
1247.924, 61.31250
1248.406, 119.3906
1248.888, 187.1328
1249.370, 198.1953
1249.853, 183.2969
1250.335, 188.8594
1250.817, 212.2422
1251.299, 182.5859
1251.781, 116.7969
1252.263, 91.46875
1252.745, 211.8359
1253.227, 305.8438
1253.710, 276.4766
1254.192, 188.6406
1254.674, 147.5781
1255.156, 134.4141
1255.638, 145.8906
1256.120, 7.351563
1256.602, 106.5000
1257.084, 154.3281
1257.567, 3.085938
1258.049, 104.3984
1258.531, 105.8359
1259.013, 102.9141
1259.495, 330.8594
1259.977, 338.2969
1260.459, 305.8906
1260.941, 267.5391
1261.423, 244.0547
1261.906, 203.0547
1262.388, 109.2422
1262.870, 38.76562
1263.352, 156.7812
1263.834, 365.7812
1264.316, 415.0469
1264.798, 297.1016
1265.280, 219.2344
1265.762, 284.4062
1266.245, 328.3750
1266.727, 317.7109
1267.209, 284.3281
1267.691, 262.4453
1268.173, 251.8750
1268.655, 255.8125
1269.137, 274.5781
1269.619, 299.1484
1270.102, 327.8047
1270.584, 356.3594
1271.066, 384.3281
1271.548, 411.0469
1272.030, 454.5469
1272.512, 460.6797
1272.994, 413.4141
1273.476, 300.8359
1273.958, 246.4766
1274.441, 260.9766
1274.923, 302.1328
1275.405, 368.0391
1275.887, 421.1562
1276.369, 420.9688
1276.851, 390.1094
1277.333, 328.2500
1277.815, 250.6484
1278.297, 224.8906
1278.780, 301.2109
1279.262, 355.0391
1279.744, 361.8281
1280.226, 357.8203
1280.708, 375.7266
1281.190, 391.4609
1281.672, 386.3203
1282.154, 365.3516
1282.637, 337.2500
1283.119, 305.1719
1283.601, 306.6016
1284.083, 356.0078
1284.565, 391.0234
1285.047, 370.1875
1285.529, 327.1016
1286.011, 275.0859
1286.494, 218.3672
1286.976, 155.7344
1287.458, 97.92969
1287.940, 96.34375
1288.422, 170.9531
1288.904, 219.9141
1289.386, 179.4766
1289.868, 142.6719
1290.350, 139.4766
1290.833, 155.5703
1291.315, 162.9688
1291.797, 168.1328
1292.279, 189.4766
1292.761, 235.1719
1293.243, 249.0781
1293.725, 210.7031
1294.207, 184.5469
1294.689, 197.7344
1295.172, 219.2188
1295.654, 204.7656
1296.136, 170.2422
1296.618, 132.7031
1297.100, 93.92188
1297.582, 71.38281
1298.064, 68.60156
1298.546, 55.69531
1299.029, 10.92188
1299.511, 1.851563
1299.993, 0.0000000E+00
##END=



