##NAMES=Muscovite
##RRUFFID=R040124
##IDEAL CHEMISTRY=KAl_2_(Si_3_Al)O_10_(OH)_2_
##LOCALITY=Garnet Hill, Pennsylvania, USA
##OWNER=RRUFF
##SOURCE=Bob Downs
##DESCRIPTION=Grayish green mica book
##STATUS=The identification of this mineral has been confirmed by X-ray diffraction and chemical analysis
##URL=rruff.info/R040124
##MEASURED CHEMISTRY=(K_0.90_Na_0.07_)(Al_0.86_Fe_0.10_Mg_0.04_)_2_(Si_0.76_Al_0.24_)_4_O_10_((OH)_0.99_F_0.01_)_2_
138.8577, 0.0000000E+00
139.3398, 52.66406
139.8220, 78.51440
140.3041, 107.6550
140.7862, 28.06323
141.2683, 15.24048
141.7504, 16.79321
142.2325, 20.26416
142.7147, 87.64819
143.1968, 181.9336
143.6789, 303.6016
144.1610, 435.2908
144.6431, 578.2463
145.1252, 727.7620
145.6074, 884.0054
146.0895, 1045.579
146.5716, 1208.508
147.0537, 1375.590
147.5358, 1543.496
148.0179, 1672.766
148.5001, 1742.627
148.9822, 1789.958
149.4643, 1839.928
149.9464, 1894.274
150.4285, 1944.899
150.9106, 1994.017
151.3928, 2035.465
151.8749, 2034.120
152.3570, 1973.094
152.8391, 1877.080
153.3212, 1763.078
153.8033, 1632.046
154.2855, 1490.368
154.7676, 1329.157
155.2497, 1157.732
155.7318, 1018.429
156.2139, 924.4346
156.6960, 862.6047
157.1782, 819.3818
157.6603, 794.2161
158.1424, 787.2861
158.6245, 806.2532
159.1066, 844.5740
159.5887, 889.2090
160.0709, 944.9795
160.5530, 1002.180
161.0351, 1045.530
161.5172, 1072.632
161.9993, 1093.159
162.4814, 1101.090
162.9636, 1107.320
163.4457, 1134.759
163.9278, 1203.195
164.4099, 1294.074
164.8920, 1377.869
165.3741, 1458.706
165.8563, 1519.580
166.3384, 1543.293
166.8205, 1541.623
167.3026, 1531.458
167.7847, 1515.590
168.2668, 1496.709
168.7490, 1482.789
169.2311, 1479.232
169.7132, 1467.686
170.1953, 1436.264
170.6774, 1391.712
171.1595, 1342.795
171.6417, 1288.597
172.1238, 1234.631
172.6059, 1195.973
173.0880, 1178.256
173.5701, 1165.292
174.0522, 1153.186
174.5344, 1139.912
175.0165, 1121.950
175.4986, 1095.420
175.9807, 1064.345
176.4628, 1041.100
176.9449, 1033.378
177.4271, 1018.871
177.9092, 982.7969
178.3913, 937.3496
178.8734, 899.2500
179.3555, 877.2371
179.8376, 866.8486
180.3197, 853.5222
180.8019, 830.3291
181.2840, 817.3794
181.7661, 823.1875
182.2482, 840.2332
182.7303, 859.3193
183.2124, 875.8037
183.6946, 891.8281
184.1767, 916.1917
184.6588, 951.9568
185.1409, 996.0720
185.6230, 1047.737
186.1051, 1106.623
186.5873, 1164.701
187.0694, 1210.215
187.5515, 1242.289
188.0336, 1288.037
188.5157, 1364.703
188.9978, 1438.304
189.4800, 1503.853
189.9621, 1561.594
190.4442, 1612.070
190.9263, 1654.865
191.4084, 1691.265
191.8905, 1725.103
192.3727, 1761.461
192.8548, 1784.995
193.3369, 1783.735
193.8190, 1775.257
194.3011, 1779.447
194.7832, 1804.475
195.2654, 1836.647
195.7475, 1846.709
196.2296, 1829.501
196.7117, 1796.229
197.1938, 1739.484
197.6759, 1675.833
198.1581, 1620.221
198.6402, 1577.653
199.1223, 1541.322
199.6044, 1501.157
200.0865, 1451.415
200.5686, 1408.902
201.0508, 1377.188
201.5329, 1350.448
202.0150, 1324.465
202.4971, 1297.980
202.9792, 1273.126
203.4613, 1254.560
203.9435, 1248.528
204.4256, 1234.412
204.9077, 1199.913
205.3898, 1166.034
205.8719, 1148.364
206.3540, 1149.311
206.8362, 1158.791
207.3183, 1163.532
207.8004, 1161.874
208.2825, 1159.299
208.7646, 1152.607
209.2467, 1147.564
209.7289, 1148.141
210.2110, 1154.424
210.6931, 1163.266
211.1752, 1170.513
211.6573, 1174.231
212.1395, 1183.530
212.6216, 1201.318
213.1037, 1221.657
213.5858, 1243.040
214.0679, 1264.554
214.5500, 1285.280
215.0322, 1305.276
215.5143, 1325.708
215.9964, 1336.783
216.4785, 1343.519
216.9606, 1336.559
217.4427, 1307.475
217.9249, 1260.334
218.4070, 1206.110
218.8891, 1153.335
219.3712, 1102.069
219.8533, 1050.113
220.3354, 1003.407
220.8176, 949.8701
221.2997, 881.9375
221.7818, 804.5073
222.2639, 727.9673
222.7460, 661.2144
223.2281, 601.8806
223.7103, 530.1353
224.1924, 422.0090
224.6745, 327.3589
225.1566, 256.7974
225.6387, 205.7886
226.1208, 168.8911
226.6030, 144.6345
227.0851, 128.8247
227.5672, 103.4204
228.0493, 57.68677
228.5314, 16.33105
229.0135, 16.90039
229.4957, 43.57715
229.9778, 65.55981
230.4599, 83.66870
230.9420, 97.72705
231.4241, 106.3433
231.9062, 102.3203
232.3884, 105.5688
232.8705, 127.2288
233.3526, 151.4700
233.8347, 166.6199
234.3168, 168.4451
234.7989, 157.1748
235.2811, 130.0413
235.7632, 75.04785
236.2453, 32.73413
236.7274, 9.960205
237.2095, 3.593994
237.6916, 8.106445
238.1738, 6.687744
238.6559, 13.00195
239.1380, 47.62524
239.6201, 120.2832
240.1022, 183.1333
240.5843, 225.9580
241.0665, 266.3098
241.5486, 308.9358
242.0307, 356.1531
242.5128, 411.5103
242.9949, 481.1597
243.4770, 566.6992
243.9592, 648.6174
244.4413, 719.1958
244.9234, 794.3999
245.4055, 876.9148
245.8876, 968.8591
246.3697, 1073.686
246.8519, 1197.877
247.3340, 1339.349
247.8161, 1470.230
248.2982, 1571.510
248.7803, 1689.416
249.2624, 1837.798
249.7446, 2012.353
250.2267, 2205.457
250.7088, 2416.141
251.1909, 2641.124
251.6730, 2870.191
252.1551, 3097.619
252.6373, 3343.950
253.1194, 3606.314
253.6015, 3891.227
254.0836, 4209.710
254.5657, 4568.250
255.0478, 4951.384
255.5300, 5340.367
256.0121, 5736.417
256.4942, 6129.946
256.9763, 6519.783
257.4584, 6904.364
257.9406, 7297.072
258.4227, 7701.505
258.9048, 8075.978
259.3869, 8387.204
259.8690, 8635.888
260.3511, 8811.450
260.8333, 8898.510
261.3154, 8916.244
261.7975, 8887.827
262.2796, 8812.393
262.7617, 8671.224
263.2438, 8433.752
263.7260, 8111.214
264.2081, 7772.186
264.6902, 7424.008
265.1723, 7057.380
265.6544, 6654.730
266.1365, 6226.260
266.6187, 5811.768
267.1008, 5428.313
267.5829, 5071.482
268.0650, 4735.889
268.5471, 4426.684
269.0292, 4122.928
269.5114, 3794.848
269.9935, 3465.192
270.4756, 3175.823
270.9577, 2952.480
271.4398, 2761.753
271.9219, 2564.840
272.4041, 2360.722
272.8862, 2174.928
273.3683, 2025.823
273.8504, 1902.334
274.3325, 1780.181
274.8146, 1656.196
275.2968, 1535.385
275.7789, 1416.396
276.2610, 1302.360
276.7431, 1207.334
277.2252, 1142.724
277.7073, 1093.047
278.1895, 1028.201
278.6716, 943.3193
279.1537, 864.6064
279.6358, 803.7993
280.1179, 754.6951
280.6000, 706.5989
281.0822, 656.8271
281.5643, 612.4795
282.0464, 584.6970
282.5285, 574.7209
283.0106, 552.9275
283.4927, 503.3752
283.9749, 449.7852
284.4570, 414.5374
284.9391, 398.5120
285.4212, 386.6702
285.9033, 366.9316
286.3854, 339.7659
286.8676, 318.1501
287.3497, 305.1204
287.8318, 292.3433
288.3139, 277.3015
288.7960, 260.0408
289.2781, 240.7961
289.7603, 220.3210
290.2424, 198.1306
290.7245, 172.7949
291.2066, 136.3418
291.6887, 106.7153
292.1708, 89.52319
292.6530, 80.83057
293.1351, 77.42432
293.6172, 79.02832
294.0993, 80.58447
294.5814, 73.02197
295.0635, 46.64355
295.5457, 27.55811
296.0278, 15.37915
296.5099, 10.04053
296.9920, 15.13379
297.4741, 28.87402
297.9562, 42.30542
298.4384, 45.11230
298.9205, 34.56226
299.4026, 32.63965
299.8847, 48.46094
300.3668, 63.52783
300.8489, 72.16431
301.3311, 75.05957
301.8131, 73.94653
302.2953, 68.79565
302.7774, 61.83252
303.2595, 65.14551
303.7416, 87.59595
304.2237, 107.6255
304.7058, 114.9629
305.1880, 120.3276
305.6701, 137.6655
306.1522, 172.5396
306.6343, 212.6819
307.1164, 237.6121
307.5985, 243.9221
308.0807, 247.2856
308.5628, 247.6377
309.0449, 247.6716
309.5270, 249.5544
310.0091, 253.2490
310.4912, 256.1006
310.9734, 254.9062
311.4555, 250.1611
311.9376, 247.9275
312.4197, 251.7812
312.9018, 253.4426
313.3839, 244.4189
313.8661, 229.0945
314.3482, 219.1440
314.8303, 221.4470
315.3124, 231.6062
315.7945, 246.8440
316.2766, 270.4580
316.7588, 279.1143
317.2409, 246.8357
317.7230, 195.5847
318.2051, 161.7104
318.6872, 153.0911
319.1693, 156.2729
319.6515, 171.6011
320.1336, 193.6284
320.6157, 194.8274
321.0978, 158.6045
321.5799, 108.9976
322.0620, 84.70581
322.5442, 87.50879
323.0263, 94.76294
323.5084, 102.8262
323.9905, 110.6565
324.4726, 118.3489
324.9547, 125.9050
325.4369, 128.5503
325.9190, 120.0322
326.4011, 98.89917
326.8832, 84.71094
327.3653, 79.39282
327.8474, 78.83154
328.3296, 86.71509
328.8117, 98.24072
329.2938, 99.49243
329.7759, 81.16870
330.2580, 48.31982
330.7401, 24.44312
331.2223, 11.32422
331.7044, 4.988281
332.1865, 11.96997
332.6686, 22.37549
333.1507, 26.42139
333.6328, 20.93091
334.1150, 7.952148
334.5971, 11.15210
335.0792, 42.34058
335.5613, 62.90894
336.0434, 68.40430
336.5255, 68.63696
337.0077, 65.49829
337.4898, 61.04443
337.9719, 59.33740
338.4540, 65.16846
338.9361, 76.87256
339.4182, 78.67236
339.9004, 62.28027
340.3825, 47.98218
340.8646, 42.94580
341.3467, 42.68433
341.8288, 41.58032
342.3109, 37.45166
342.7931, 32.08081
343.2752, 28.60571
343.7573, 27.56055
344.2394, 24.37109
344.7215, 15.10059
345.2036, 5.547852
345.6858, 0.1230470
346.1679, 0.9768070
346.6500, 8.4229000E-02
347.1321, 3.073486
347.6142, 7.164795
348.0963, 11.67065
348.5785, 18.63208
349.0606, 19.37354
349.5427, 4.694092
350.0248, 22.07544
350.5069, 52.21069
350.9890, 93.56226
351.4712, 130.4473
351.9533, 145.4104
352.4354, 142.5657
352.9175, 143.6453
353.3996, 158.9800
353.8817, 183.6868
354.3639, 206.6318
354.8460, 229.7954
355.3281, 249.2681
355.8102, 260.3149
356.2923, 268.2656
356.7744, 278.0610
357.2566, 291.2190
357.7387, 309.5637
358.2208, 335.8201
358.7029, 372.5818
359.1850, 402.8879
359.6671, 422.9019
360.1493, 441.2188
360.6314, 460.7905
361.1135, 481.7190
361.5956, 503.1670
362.0777, 524.6497
362.5598, 546.6670
363.0420, 571.8770
363.5241, 607.6187
364.0062, 634.1921
364.4883, 640.4727
364.9704, 643.1948
365.4525, 654.4404
365.9347, 677.4189
366.4168, 711.0161
366.8989, 760.7363
367.3810, 829.1733
367.8631, 874.9065
368.3452, 877.5239
368.8274, 879.3970
369.3095, 901.1169
369.7916, 938.7588
370.2737, 982.7390
370.7558, 1034.247
371.2379, 1084.933
371.7201, 1116.932
372.2022, 1127.997
372.6843, 1141.933
373.1664, 1172.320
373.6485, 1208.932
374.1306, 1236.072
374.6128, 1251.519
375.0949, 1263.788
375.5770, 1273.274
376.0591, 1283.231
376.5412, 1301.831
377.0233, 1331.590
377.5055, 1363.544
377.9876, 1389.566
378.4697, 1408.924
378.9518, 1422.979
379.4339, 1420.412
379.9160, 1422.667
380.3982, 1448.733
380.8803, 1490.844
381.3624, 1524.643
381.8445, 1535.782
382.3266, 1533.768
382.8087, 1547.845
383.2909, 1593.767
383.7730, 1636.061
384.2551, 1669.626
384.7372, 1702.034
385.2193, 1740.884
385.7014, 1786.504
386.1836, 1832.795
386.6657, 1873.932
387.1478, 1909.727
387.6299, 1940.557
388.1120, 1954.472
388.5941, 1977.950
389.0763, 2021.869
389.5584, 2079.753
390.0405, 2143.275
390.5226, 2211.601
391.0047, 2276.644
391.4868, 2320.721
391.9690, 2339.643
392.4511, 2373.039
392.9332, 2440.083
393.4153, 2517.455
393.8974, 2579.835
394.3795, 2627.724
394.8617, 2683.177
395.3438, 2762.314
395.8259, 2853.836
396.3080, 2940.484
396.7901, 3020.292
397.2722, 3094.854
397.7544, 3162.076
398.2365, 3225.381
398.7186, 3302.610
399.2007, 3409.511
399.6828, 3511.017
400.1649, 3584.840
400.6471, 3646.458
401.1292, 3727.461
401.6113, 3838.748
402.0934, 3953.091
402.5755, 4028.854
403.0576, 4044.426
403.5398, 4086.009
404.0219, 4178.192
404.5040, 4269.699
404.9861, 4339.636
405.4682, 4386.824
405.9503, 4412.841
406.4325, 4416.298
406.9146, 4404.928
407.3967, 4408.310
407.8788, 4441.834
408.3609, 4455.769
408.8430, 4433.712
409.3252, 4394.722
409.8073, 4349.369
410.2894, 4300.438
410.7715, 4253.099
411.2536, 4216.561
411.7357, 4186.878
412.2179, 4144.935
412.7000, 4089.122
413.1821, 4022.339
413.6642, 3944.350
414.1463, 3856.801
414.6284, 3762.880
415.1106, 3658.969
415.5927, 3553.241
416.0748, 3452.193
416.5569, 3354.162
417.0390, 3253.493
417.5211, 3147.721
418.0033, 3041.959
418.4854, 2945.007
418.9675, 2861.767
419.4496, 2770.914
419.9317, 2663.611
420.4138, 2555.859
420.8960, 2461.011
421.3781, 2375.537
421.8602, 2284.002
422.3423, 2174.191
422.8244, 2053.995
423.3065, 1958.764
423.7887, 1910.066
424.2708, 1852.914
424.7529, 1771.048
425.2350, 1686.180
425.7171, 1618.359
426.1992, 1568.966
426.6814, 1523.012
427.1635, 1466.780
427.6456, 1400.580
428.1277, 1332.669
428.6098, 1260.006
429.0919, 1191.740
429.5741, 1133.779
430.0562, 1082.337
430.5383, 1031.729
431.0204, 978.0381
431.5025, 930.4602
431.9846, 902.8201
432.4668, 888.6926
432.9489, 864.1045
433.4310, 821.5654
433.9131, 771.3950
434.3952, 721.7214
434.8773, 671.6729
435.3595, 639.4121
435.8416, 641.8496
436.3237, 648.2432
436.8058, 641.7715
437.2879, 623.7112
437.7701, 598.7295
438.2522, 568.5972
438.7343, 537.0254
439.2164, 514.7368
439.6985, 514.4536
440.1806, 500.2812
440.6628, 460.2041
441.1449, 417.6409
441.6270, 389.9985
442.1091, 375.1155
442.5912, 357.2493
443.0733, 323.7461
443.5555, 281.5532
444.0376, 252.2083
444.5197, 239.9685
445.0018, 231.5015
445.4839, 218.5557
445.9660, 208.1340
446.4482, 211.2422
446.9303, 231.8098
447.4124, 246.1199
447.8945, 234.6975
448.3766, 206.5227
448.8587, 179.1836
449.3409, 154.8201
449.8230, 137.6448
450.3051, 132.7180
450.7872, 138.1577
451.2693, 138.1443
451.7514, 131.5483
452.2336, 124.3171
452.7157, 117.3518
453.1978, 112.0095
453.6799, 111.0295
454.1620, 114.8303
454.6441, 119.9419
455.1263, 122.5813
455.6084, 123.4277
456.0905, 117.5349
456.5726, 92.59644
457.0547, 73.60864
457.5368, 69.92798
458.0190, 77.97974
458.5011, 92.50586
458.9832, 110.8826
459.4653, 126.3232
459.9474, 130.2573
460.4295, 124.5171
460.9117, 125.4612
461.3938, 138.5662
461.8759, 154.7471
462.3580, 171.1104
462.8401, 186.6685
463.3222, 193.1572
463.8044, 175.8152
464.2865, 156.5505
464.7686, 161.2800
465.2507, 184.7417
465.7328, 201.4863
466.2149, 199.1672
466.6971, 187.6018
467.1792, 186.7532
467.6613, 204.8467
468.1434, 215.2126
468.6255, 210.0757
469.1076, 204.9192
469.5898, 212.1477
470.0719, 227.3196
470.5540, 237.3696
471.0361, 234.0344
471.5182, 221.6467
472.0003, 211.4312
472.4825, 202.1086
472.9646, 199.0115
473.4467, 211.4858
473.9288, 224.7363
474.4109, 228.3608
474.8930, 222.5356
475.3752, 215.6746
475.8573, 216.1379
476.3394, 217.2473
476.8215, 201.4731
477.3036, 168.2944
477.7857, 150.0466
478.2679, 170.4644
478.7500, 209.8159
479.2321, 217.6743
479.7142, 180.5574
480.1963, 151.2090
480.6784, 142.0630
481.1606, 143.3105
481.6427, 149.8635
482.1248, 158.9407
482.6069, 163.8379
483.0890, 158.2908
483.5711, 145.7578
484.0533, 146.8232
484.5354, 179.3003
485.0175, 195.5933
485.4996, 181.2312
485.9817, 155.6499
486.4638, 129.5891
486.9460, 106.3992
487.4281, 92.13647
487.9102, 98.54248
488.3923, 117.1714
488.8744, 119.4973
489.3565, 101.9399
489.8387, 87.90405
490.3208, 91.48608
490.8029, 104.9961
491.2850, 112.8401
491.7671, 115.9377
492.2492, 111.1086
492.7314, 90.95557
493.2135, 65.86621
493.6956, 47.04980
494.1777, 35.76782
494.6598, 28.46509
495.1419, 22.98755
495.6241, 18.84497
496.1062, 12.44165
496.5883, 1.579346
497.0704, 10.04907
497.5525, 4.316895
498.0346, 2.116699
498.5168, 7.574951
498.9989, 31.63599
499.4810, 47.13110
499.9631, 25.92358
500.4452, 18.65869
500.9273, 32.27490
501.4095, 7.554932
501.8916, 17.14282
502.3737, 24.97656
502.8558, 23.22827
503.3379, 23.48755
503.8200, 26.16016
504.3022, 29.92554
504.7843, 38.74292
505.2664, 45.84375
505.7485, 39.77319
506.2306, 21.91455
506.7127, 7.502686
507.1949, 7.695068
507.6770, 17.98071
508.1591, 18.23071
508.6412, 7.457764
509.1233, 19.62671
509.6054, 6.227539
510.0876, 13.04834
510.5697, 25.31665
511.0518, 29.38306
511.5339, 29.65967
512.0161, 28.62817
512.4982, 26.51562
512.9803, 23.56787
513.4624, 19.50586
513.9445, 16.03662
514.4266, 11.37183
514.9088, 9.868164
515.3909, 21.68042
515.8730, 49.15015
516.3551, 60.71533
516.8372, 29.77124
517.3193, 8.607178
517.8015, 18.34644
518.2836, 4.292725
518.7657, 4.267334
519.2478, 9.200439
519.7299, 32.80762
520.2120, 36.90479
520.6942, 2.807861
521.1763, 15.00903
521.6584, 2.733643
522.1405, 10.91699
522.6226, 9.283203
523.1047, 3.814453
523.5869, 16.00269
524.0690, 21.39062
524.5511, 21.42285
525.0332, 16.66772
525.5153, 7.169189
525.9974, 0.8386230
526.4796, 1.845703
526.9617, 2.820313
527.4438, 5.526855
527.9259, 21.98706
528.4080, 36.60596
528.8901, 49.58423
529.3723, 58.81763
529.8544, 60.71387
530.3365, 58.43628
530.8186, 57.88550
531.3007, 61.08838
531.7828, 66.17407
532.2650, 70.60547
532.7471, 74.22485
533.2292, 78.33203
533.7113, 84.55713
534.1934, 89.36523
534.6755, 90.33545
535.1577, 89.79443
535.6398, 91.79858
536.1219, 97.96118
536.6040, 102.4106
537.0861, 98.15454
537.5682, 87.74170
538.0504, 78.06885
538.5325, 69.33984
539.0146, 66.67017
539.4967, 76.54224
539.9788, 95.39551
540.4609, 105.2766
540.9431, 102.7256
541.4252, 97.21484
541.9073, 89.07812
542.3894, 79.86328
542.8715, 67.23047
543.3536, 53.65356
543.8358, 50.10962
544.3179, 68.00195
544.8000, 100.3530
545.2821, 114.3513
545.7642, 100.9553
546.2463, 94.09351
546.7285, 112.1086
547.2106, 132.4385
547.6927, 132.8601
548.1748, 115.2341
548.6569, 108.0698
549.1390, 132.0259
549.6211, 166.8425
550.1032, 194.6267
550.5853, 214.3762
551.0674, 222.9819
551.5496, 218.6274
552.0317, 205.7915
552.5138, 190.8005
552.9959, 171.0415
553.4780, 158.0283
553.9601, 150.8340
554.4423, 150.0339
554.9244, 162.0266
555.4065, 179.1304
555.8886, 186.7217
556.3707, 178.6189
556.8528, 167.6409
557.3350, 172.2722
557.8171, 192.9307
558.2992, 217.7544
558.7813, 248.7559
559.2634, 265.7698
559.7455, 244.0452
560.2277, 199.1587
560.7098, 180.5986
561.1919, 204.6875
561.6740, 226.5283
562.1561, 229.8274
562.6382, 224.9756
563.1204, 221.4353
563.6025, 222.0935
564.0846, 229.2542
564.5667, 245.5662
565.0488, 265.2517
565.5309, 266.8411
566.0131, 241.5066
566.4952, 224.1355
566.9773, 228.3750
567.4594, 233.1616
567.9415, 222.9731
568.4236, 200.4841
568.9058, 179.6074
569.3879, 166.7820
569.8700, 157.7622
570.3521, 146.2122
570.8342, 134.5593
571.3163, 132.4434
571.7985, 143.3557
572.2806, 158.7939
572.7627, 169.0120
573.2448, 173.3354
573.7269, 169.2041
574.2090, 152.0950
574.6912, 137.1597
575.1733, 124.1719
575.6554, 115.2407
576.1375, 116.5427
576.6196, 128.4949
577.1017, 141.3081
577.5839, 143.7507
578.0660, 138.3618
578.5481, 134.5493
579.0302, 132.6409
579.5123, 129.4302
579.9944, 119.3850
580.4766, 108.6555
580.9587, 113.0471
581.4408, 138.1941
581.9229, 152.4971
582.4050, 144.9832
582.8871, 132.1172
583.3693, 119.9048
583.8514, 111.6206
584.3335, 115.1555
584.8156, 134.5205
585.2977, 155.3186
585.7798, 147.3296
586.2620, 105.6426
586.7441, 91.62573
587.2262, 125.8022
587.7083, 158.5044
588.1904, 154.2620
588.6725, 131.9021
589.1547, 121.7722
589.6368, 130.4060
590.1189, 144.6465
590.6010, 163.3474
591.0831, 181.3105
591.5652, 189.7390
592.0474, 189.5518
592.5295, 190.2229
593.0116, 198.0781
593.4937, 211.0063
593.9758, 222.9790
594.4579, 234.7126
594.9401, 243.6262
595.4222, 249.0410
595.9043, 251.8201
596.3864, 247.0767
596.8685, 240.1025
597.3506, 244.8762
597.8328, 272.1245
598.3149, 301.7100
598.7970, 314.6428
599.2791, 315.8474
599.7612, 317.0991
600.2433, 320.6707
600.7255, 326.3184
601.2076, 332.8691
601.6897, 341.1458
602.1718, 358.1592
602.6539, 403.7231
603.1360, 430.7200
603.6182, 416.5942
604.1003, 397.1172
604.5824, 401.6123
605.0645, 427.5571
605.5466, 452.6348
606.0287, 463.6929
606.5109, 469.3015
606.9930, 479.8052
607.4751, 494.6790
607.9572, 515.2573
608.4393, 543.1689
608.9214, 568.9221
609.4036, 582.1848
609.8857, 583.5029
610.3678, 592.4690
610.8499, 622.4397
611.3320, 640.4907
611.8141, 626.0640
612.2963, 605.7156
612.7784, 608.9626
613.2605, 635.8630
613.7426, 661.8994
614.2247, 667.8391
614.7068, 661.1318
615.1890, 656.4033
615.6711, 653.4548
616.1532, 658.9004
616.6353, 680.3042
617.1174, 700.4937
617.5995, 696.3809
618.0817, 667.3503
618.5638, 649.5293
619.0459, 650.0803
619.5280, 655.3538
620.0101, 663.7549
620.4922, 672.1250
620.9744, 674.8726
621.4565, 672.2036
621.9386, 672.4556
622.4207, 685.1077
622.9028, 705.8396
623.3849, 717.4597
623.8671, 719.1013
624.3492, 715.7429
624.8313, 703.9534
625.3134, 693.3838
625.7955, 701.6550
626.2776, 727.4397
626.7598, 736.3120
627.2419, 710.9585
627.7240, 681.2378
628.2061, 655.7717
628.6882, 638.1118
629.1703, 635.4529
629.6525, 647.8313
630.1346, 664.5647
630.6167, 676.7222
631.0988, 683.9937
631.5809, 683.0156
632.0630, 670.5547
632.5452, 663.1169
633.0273, 671.8394
633.5094, 681.6509
633.9915, 672.0894
634.4736, 644.5132
634.9557, 626.1533
635.4379, 628.1067
635.9200, 634.7075
636.4021, 643.5681
636.8842, 648.9778
637.3663, 638.8171
637.8484, 612.2507
638.3306, 585.7668
638.8127, 577.1980
639.2948, 582.8035
639.7769, 579.8115
640.2590, 566.7024
640.7411, 549.8770
641.2233, 526.2971
641.7054, 504.5325
642.1875, 496.7041
642.6696, 501.2122
643.1517, 497.6484
643.6339, 467.5105
644.1160, 443.5361
644.5981, 453.3982
645.0802, 477.2063
645.5623, 485.5791
646.0444, 471.9626
646.5266, 445.8010
647.0087, 413.4832
647.4908, 377.4980
647.9729, 350.4958
648.4550, 334.9832
648.9371, 319.2612
649.4193, 301.1958
649.9014, 281.0405
650.3835, 257.1467
650.8656, 230.4644
651.3477, 207.4180
651.8298, 195.2847
652.3120, 179.8623
652.7941, 147.8916
653.2762, 111.7456
653.7583, 89.81226
654.2404, 83.52075
654.7225, 78.78882
655.2047, 62.75195
655.6868, 41.62866
656.1689, 41.01001
656.6510, 66.96802
657.1331, 73.56055
657.6152, 38.12012
658.0974, 0.3256840
658.5795, 1.242676
659.0616, 32.24683
659.5437, 45.10278
660.0258, 17.40356
660.5079, 6.423340
660.9901, 7.377441
661.4722, 0.4670410
661.9543, 5.607910
662.4364, 4.833984
662.9185, 5.010254
663.4006, 27.92334
663.8828, 55.80811
664.3649, 72.18677
664.8470, 76.96069
665.3291, 71.65015
665.8112, 51.40747
666.2933, 33.33398
666.7755, 33.30835
667.2576, 46.09937
667.7397, 48.05908
668.2218, 28.18311
668.7039, 15.42773
669.1860, 22.51636
669.6682, 32.87891
670.1503, 35.35083
670.6324, 29.41895
671.1145, 17.03369
671.5966, 1.555664
672.0787, 21.17749
672.5609, 34.81494
673.0430, 42.97803
673.5251, 46.93237
674.0072, 44.92432
674.4893, 50.75244
674.9714, 75.64062
675.4536, 111.5784
675.9357, 137.1772
676.4178, 146.0054
676.8999, 158.7781
677.3820, 178.0737
677.8641, 199.3560
678.3463, 219.3394
678.8284, 239.8259
679.3105, 263.2002
679.7926, 290.1902
680.2747, 322.6824
680.7568, 361.8433
681.2390, 407.6816
681.7211, 462.7317
682.2032, 526.2607
682.6853, 588.1436
683.1674, 644.4658
683.6495, 695.2646
684.1317, 738.7537
684.6138, 769.8533
685.0959, 820.0769
685.5780, 908.4160
686.0601, 994.0000
686.5422, 1056.570
687.0244, 1118.096
687.5065, 1204.543
687.9886, 1317.741
688.4707, 1433.061
688.9528, 1533.294
689.4349, 1631.137
689.9171, 1743.478
690.3992, 1865.493
690.8813, 1980.161
691.3634, 2083.190
691.8455, 2190.860
692.3276, 2320.671
692.8098, 2469.397
693.2919, 2604.861
693.7740, 2716.167
694.2561, 2838.961
694.7382, 2998.389
695.2203, 3154.954
695.7025, 3281.410
696.1846, 3382.574
696.6667, 3476.903
697.1488, 3560.668
697.6309, 3650.998
698.1130, 3777.811
698.5952, 3904.054
699.0773, 3982.740
699.5594, 4012.313
700.0415, 4016.825
700.5236, 4010.815
701.0057, 3990.009
701.4879, 3945.047
701.9700, 3875.426
702.4521, 3791.485
702.9342, 3695.185
703.4163, 3581.266
703.8984, 3440.534
704.3806, 3282.369
704.8627, 3127.500
705.3448, 2976.505
705.8269, 2826.555
706.3090, 2677.762
706.7911, 2528.510
707.2733, 2377.578
707.7554, 2225.246
708.2375, 2072.774
708.7196, 1920.028
709.2017, 1769.579
709.6838, 1619.088
710.1660, 1473.635
710.6481, 1348.502
711.1302, 1243.022
711.6123, 1141.202
712.0944, 1036.082
712.5765, 938.4607
713.0587, 863.6172
713.5408, 812.8777
714.0229, 756.3145
714.5050, 683.1147
714.9871, 619.4697
715.4692, 570.6401
715.9514, 531.5872
716.4335, 504.0823
716.9156, 484.1653
717.3977, 456.9255
717.8798, 413.2273
718.3619, 364.3723
718.8441, 316.1709
719.3262, 271.0825
719.8083, 232.0649
720.2904, 199.7415
720.7725, 173.9861
721.2546, 154.5286
721.7368, 139.9612
722.2189, 130.5229
722.7010, 128.9854
723.1831, 117.4941
723.6652, 90.21631
724.1473, 63.40967
724.6295, 40.21606
725.1116, 24.58521
725.5937, 28.62500
726.0758, 63.30420
726.5579, 83.33130
727.0400, 68.42871
727.5222, 47.17529
728.0043, 32.93359
728.4864, 26.27075
728.9685, 25.05103
729.4506, 29.02173
729.9327, 40.64429
730.4149, 69.21802
730.8970, 104.7856
731.3791, 123.3398
731.8612, 126.3818
732.3433, 125.6655
732.8254, 123.0024
733.3076, 128.8259
733.7897, 156.7083
734.2718, 204.0203
734.7539, 236.3696
735.2360, 239.1794
735.7181, 251.6826
736.2003, 283.8115
736.6824, 321.4700
737.1645, 358.6941
737.6466, 394.4441
738.1287, 426.8567
738.6108, 454.4453
739.0930, 481.4719
739.5751, 511.4524
740.0572, 541.4583
740.5393, 566.4744
741.0214, 588.0156
741.5035, 612.7480
741.9857, 643.6504
742.4678, 675.8542
742.9499, 702.2188
743.4320, 723.1162
743.9141, 742.7490
744.3962, 759.4492
744.8784, 787.3572
745.3605, 842.7959
745.8426, 895.6785
746.3247, 897.4609
746.8068, 838.6594
747.2889, 818.5620
747.7711, 868.8823
748.2532, 914.3269
748.7353, 939.0293
749.2174, 950.3416
749.6995, 952.1370
750.1816, 946.9224
750.6638, 939.7610
751.1459, 932.5884
751.6280, 925.2014
752.1101, 917.3782
752.5922, 909.2063
753.0743, 902.6653
753.5565, 896.9263
754.0386, 885.0618
754.5207, 862.9619
755.0028, 838.3135
755.4849, 826.7451
755.9670, 828.6975
756.4492, 820.3074
756.9313, 799.9380
757.4134, 778.8545
757.8955, 763.3525
758.3776, 739.2520
758.8597, 725.6287
759.3419, 692.3718
759.8240, 661.1206
760.3061, 633.5037
760.7882, 609.0981
761.2703, 593.1404
761.7524, 576.9888
762.2346, 548.7974
762.7167, 510.5747
763.1988, 476.6768
763.6809, 456.5239
764.1630, 440.2080
764.6451, 414.0115
765.1273, 382.3696
765.6094, 360.0295
766.0915, 349.0415
766.5736, 334.9812
767.0557, 307.8083
767.5378, 275.4143
768.0200, 256.5781
768.5021, 254.2656
768.9842, 239.9426
769.4663, 205.3970
769.9484, 178.7671
770.4305, 176.7471
770.9127, 183.3728
771.3948, 177.4844
771.8769, 159.1240
772.3590, 139.9712
772.8411, 115.9175
773.3232, 98.70972
773.8054, 99.69067
774.2875, 103.7075
774.7696, 94.17334
775.2517, 73.00830
775.7338, 57.74902
776.2159, 59.70898
776.6981, 67.18042
777.1802, 65.91406
777.6623, 60.89380
778.1444, 66.83862
778.6265, 82.70459
779.1086, 88.41602
779.5908, 71.71777
780.0729, 47.81982
780.5550, 46.05859
781.0371, 68.92505
781.5192, 89.90381
782.0013, 111.4209
782.4835, 123.5339
782.9656, 118.5881
783.4477, 106.3398
783.9298, 96.95337
784.4119, 90.23633
784.8940, 91.79688
785.3762, 114.5535
785.8583, 129.3174
786.3404, 119.9700
786.8225, 105.9016
787.3046, 107.7068
787.7867, 120.4197
788.2689, 120.8708
788.7510, 94.40967
789.2331, 69.51147
789.7152, 72.32617
790.1973, 91.05103
790.6794, 111.6057
791.1616, 130.3901
791.6437, 139.8413
792.1258, 136.7390
792.6079, 128.7075
793.0900, 125.6379
793.5721, 127.1006
794.0543, 128.9253
794.5364, 131.1091
795.0185, 134.1313
795.5006, 139.4968
795.9827, 142.7673
796.4648, 138.9355
796.9470, 128.6750
797.4291, 119.5022
797.9112, 102.2468
798.3933, 99.65869
798.8754, 133.7339
799.3575, 161.9202
799.8397, 156.3076
800.3218, 128.2346
800.8039, 99.33374
801.2860, 73.75562
801.7681, 53.54639
802.2502, 41.32471
802.7324, 33.55225
803.2145, 24.72827
803.6966, 18.59839
804.1787, 27.46997
804.6608, 51.31738
805.1429, 68.05420
805.6251, 55.56982
806.1072, 28.47461
806.5893, 18.05151
807.0714, 22.47827
807.5535, 29.24854
808.0356, 36.44092
808.5178, 43.27637
808.9999, 49.93335
809.4820, 54.48975
809.9641, 51.92041
810.4462, 41.08545
810.9283, 26.85571
811.4105, 6.271729
811.8926, 13.15210
812.3747, 35.68872
812.8568, 50.69092
813.3389, 39.45459
813.8210, 2.206055
814.3032, 20.01440
814.7853, 11.11157
815.2674, 0.8640140
815.7495, 11.54224
816.2316, 17.12695
816.7137, 9.858154
817.1959, 5.335693
817.6780, 13.57812
818.1601, 7.708496
818.6422, 1.984863
819.1243, 6.357910
819.6064, 9.247559
820.0886, 18.81543
820.5707, 32.62891
821.0528, 41.33765
821.5349, 41.58911
822.0170, 34.13696
822.4991, 16.30225
822.9813, 6.669922
823.4634, 10.17822
823.9455, 6.760986
824.4276, 23.90747
824.9097, 38.72998
825.3918, 46.13452
825.8740, 40.02686
826.3561, 25.25854
826.8382, 18.92310
827.3203, 29.26343
827.8024, 28.88232
828.2845, 8.971436
828.7667, 10.96875
829.2488, 29.11670
829.7309, 40.54688
830.2130, 33.32935
830.6951, 7.311768
831.1772, 3.129150
831.6594, 29.37134
832.1415, 55.60229
832.6236, 46.92358
833.1057, 27.06689
833.5878, 20.76514
834.0699, 26.41870
834.5521, 27.70508
835.0342, 15.99072
835.5163, 5.975342
835.9984, 16.94019
836.4805, 35.40625
836.9626, 37.79761
837.4448, 26.85010
837.9269, 15.56470
838.4090, 8.825928
838.8911, 9.692383
839.3732, 23.59546
839.8553, 45.87109
840.3375, 58.56226
840.8196, 61.45605
841.3017, 66.71704
841.7838, 77.41479
842.2659, 85.37354
842.7480, 83.10425
843.2302, 76.88867
843.7123, 83.63184
844.1944, 109.5620
844.6765, 127.9792
845.1586, 141.1433
845.6407, 143.4116
846.1229, 118.6982
846.6050, 91.99878
847.0871, 91.25635
847.5692, 114.4404
848.0513, 131.4417
848.5334, 139.7629
849.0156, 139.3599
849.4977, 119.7832
849.9798, 100.7917
850.4619, 100.8298
850.9440, 112.8843
851.4261, 119.3635
851.9083, 114.6001
852.3904, 108.9194
852.8725, 107.3530
853.3546, 109.7107
853.8367, 122.2312
854.3188, 136.5496
854.8010, 131.0295
855.2831, 105.2947
855.7652, 85.74365
856.2473, 93.34155
856.7294, 113.3706
857.2115, 119.6484
857.6937, 115.4487
858.1758, 116.0181
858.6579, 122.6267
859.1400, 126.8538
859.6221, 124.1553
860.1042, 122.0225
860.5864, 132.6909
861.0685, 155.3267
861.5506, 168.3618
862.0327, 169.5842
862.5148, 169.7354
862.9969, 169.6389
863.4791, 172.2168
863.9612, 182.7173
864.4433, 196.8572
864.9254, 198.5408
865.4075, 175.9263
865.8896, 165.5964
866.3718, 175.0005
866.8539, 187.1829
867.3360, 199.0557
867.8181, 208.8694
868.3002, 213.9180
868.7823, 214.3784
869.2645, 214.7195
869.7466, 215.0168
870.2287, 214.8770
870.7108, 217.8909
871.1929, 219.9351
871.6750, 211.5518
872.1572, 199.1489
872.6393, 203.2161
873.1214, 231.3711
873.6035, 255.8882
874.0856, 250.9485
874.5677, 238.3459
875.0499, 239.7341
875.5320, 252.4443
876.0141, 277.0752
876.4962, 308.6758
876.9783, 323.8782
877.4604, 303.6633
877.9426, 271.5371
878.4247, 268.8533
878.9068, 287.2922
879.3889, 293.6665
879.8710, 287.2651
880.3531, 285.6658
880.8353, 296.0696
881.3174, 309.8906
881.7995, 317.5083
882.2816, 319.5889
882.7637, 322.2366
883.2458, 326.4749
883.7280, 327.7808
884.2101, 324.7395
884.6922, 322.1907
885.1743, 322.5083
885.6564, 325.1306
886.1385, 328.1221
886.6207, 329.5508
887.1028, 338.3188
887.5849, 359.2114
888.0670, 378.9048
888.5491, 390.7283
889.0313, 402.0281
889.5134, 424.3223
889.9955, 453.0952
890.4776, 470.9392
890.9597, 471.3230
891.4418, 470.0620
891.9240, 465.1812
892.4061, 463.9326
892.8882, 471.2429
893.3703, 483.6123
893.8524, 497.1638
894.3345, 511.1956
894.8167, 525.8716
895.2988, 539.8491
895.7809, 555.8799
896.2630, 582.0254
896.7451, 606.2949
897.2272, 612.0337
897.7094, 605.4128
898.1915, 605.0615
898.6736, 617.6741
899.1557, 632.1597
899.6378, 644.0923
900.1199, 649.4412
900.6021, 632.7363
901.0842, 608.6948
901.5663, 613.6863
902.0484, 648.6003
902.5305, 680.6794
903.0126, 689.4551
903.4948, 685.4629
903.9769, 675.3765
904.4590, 666.2812
904.9411, 689.2493
905.4232, 739.5183
905.9053, 772.8372
906.3875, 774.8296
906.8696, 761.9885
907.3517, 747.6785
907.8338, 734.8315
908.3159, 735.7419
908.7980, 750.5637
909.2802, 756.3708
909.7623, 749.7402
910.2444, 742.3079
910.7265, 739.9758
911.2086, 739.0544
911.6907, 735.0930
912.1729, 727.9836
912.6550, 709.7786
913.1371, 672.7964
913.6192, 650.1401
914.1013, 654.6995
914.5834, 661.1702
915.0656, 654.5715
915.5477, 637.3804
916.0298, 615.3589
916.5119, 589.0002
916.9940, 555.6069
917.4761, 496.3345
917.9583, 457.1042
918.4404, 467.7896
918.9225, 485.6567
919.4046, 474.6958
919.8867, 442.5708
920.3688, 418.2991
920.8510, 411.1223
921.3331, 395.8193
921.8152, 360.4111
922.2973, 325.8049
922.7794, 298.7615
923.2615, 279.4285
923.7437, 271.6372
924.2258, 272.9487
924.7079, 267.9480
925.1900, 246.9167
925.6721, 227.9998
926.1542, 225.3777
926.6364, 220.9783
927.1185, 194.6218
927.6006, 158.6152
928.0827, 136.5166
928.5648, 132.6570
929.0469, 129.8816
929.5291, 113.1353
930.0112, 96.66357
930.4933, 98.88477
930.9754, 106.7244
931.4575, 103.1216
931.9396, 90.06763
932.4218, 77.86182
932.9039, 70.24365
933.3860, 64.49536
933.8681, 57.64209
934.3502, 51.83105
934.8323, 51.24707
935.3145, 53.43921
935.7966, 52.30566
936.2787, 48.21362
936.7608, 47.88062
937.2429, 55.09229
937.7250, 63.46655
938.2072, 65.43164
938.6893, 62.82397
939.1714, 59.10229
939.6535, 54.39526
940.1356, 47.86499
940.6177, 40.60645
941.0999, 40.86377
941.5820, 54.88599
942.0641, 80.21387
942.5462, 124.7856
943.0283, 179.4802
943.5104, 189.0532
943.9926, 155.1492
944.4747, 128.6184
944.9568, 124.9810
945.4389, 136.0217
945.9210, 156.9456
946.4031, 181.5278
946.8853, 191.6409
947.3674, 187.3533
947.8495, 179.8733
948.3316, 169.2273
948.8137, 162.3472
949.2958, 161.7822
949.7780, 166.6025
950.2601, 176.2952
950.7422, 190.1235
951.2243, 205.6184
951.7064, 223.6035
952.1885, 237.5129
952.6707, 245.6079
953.1528, 253.9248
953.6349, 266.4351
954.1170, 277.9988
954.5991, 281.3435
955.0812, 276.8230
955.5634, 272.3210
956.0455, 266.7925
956.5276, 265.7852
957.0097, 276.3088
957.4918, 277.1982
957.9739, 250.2468
958.4561, 214.2344
958.9382, 199.8081
959.4203, 208.1416
959.9024, 222.6838
960.3845, 260.8169
960.8666, 268.8523
961.3488, 216.4617
961.8309, 163.3696
962.3130, 152.2922
962.7951, 161.6982
963.2772, 145.4934
963.7593, 93.91577
964.2415, 69.19580
964.7236, 95.94116
965.2057, 113.7634
965.6878, 105.3257
966.1699, 92.03149
966.6520, 89.25220
967.1342, 91.25684
967.6163, 82.25293
968.0984, 54.67627
968.5805, 45.25024
969.0626, 80.02222
969.5447, 100.5322
970.0269, 77.63916
970.5090, 48.41675
970.9911, 45.30371
971.4732, 57.86255
971.9553, 55.44238
972.4374, 30.19971
972.9196, 8.050049
973.4017, 11.03101
973.8838, 22.15015
974.3659, 16.52612
974.8480, 7.955322
975.3301, 11.73022
975.8123, 22.91699
976.2944, 23.44727
976.7765, 6.895264
977.2586, 9.381104
977.7407, 24.72632
978.2228, 34.55347
978.7050, 33.25220
979.1871, 26.74463
979.6692, 19.93335
980.1513, 14.64478
980.6334, 13.24219
981.1155, 18.66040
981.5977, 18.26733
982.0798, 1.606934
982.5619, 13.43774
983.0440, 16.85229
983.5261, 13.13501
984.0082, 8.109619
984.4904, 3.757324
984.9725, 1.167480
985.4546, 0.1599120
985.9367, 2.273682
986.4188, 20.06079
986.9009, 28.08301
987.3831, 5.045654
987.8652, 45.66064
988.3473, 49.55786
988.8294, 21.55542
989.3115, 0.8950200
989.7936, 1.534668
990.2758, 5.910645
990.7579, 7.318604
991.2400, 9.694092
991.7221, 17.68799
992.2042, 26.32642
992.6863, 29.22070
993.1685, 26.67578
993.6506, 23.26416
994.1327, 19.54492
994.6148, 17.91333
995.0969, 24.62427
995.5790, 28.20337
996.0612, 14.19092
996.5433, 3.295654
997.0254, 2.170410
997.5075, 14.23193
997.9896, 19.74341
998.4717, 0.4440920
998.9539, 15.42798
999.4360, 14.45825
999.9181, 5.999268
1000.400, 9.379150
1000.882, 24.53174
1001.364, 27.65210
1001.847, 21.70654
1002.329, 24.48950
1002.811, 46.53101
1003.293, 63.99292
1003.775, 63.37158
1004.257, 56.94165
1004.739, 45.50977
1005.221, 38.20142
1005.703, 54.26660
1006.186, 85.76953
1006.668, 94.98682
1007.150, 59.88208
1007.632, 33.56152
1008.114, 46.04956
1008.596, 68.82251
1009.078, 91.57080
1009.560, 108.3936
1010.043, 109.5911
1010.525, 99.19556
1011.007, 93.68188
1011.489, 98.42212
1011.971, 107.0959
1012.453, 127.1799
1012.935, 138.8008
1013.417, 119.8091
1013.899, 93.06787
1014.382, 83.17529
1014.864, 89.84790
1015.346, 102.6870
1015.828, 121.0220
1016.310, 135.8345
1016.792, 141.4131
1017.274, 145.2334
1017.756, 152.8198
1018.239, 159.5564
1018.721, 160.1155
1019.203, 155.5037
1019.685, 150.0747
1020.167, 144.9883
1020.649, 138.3076
1021.131, 124.6267
1021.613, 115.1018
1022.095, 120.8083
1022.578, 127.9275
1023.060, 120.9470
1023.542, 105.2512
1024.024, 97.12134
1024.506, 100.8337
1024.988, 103.5684
1025.470, 102.2073
1025.952, 99.06909
1026.435, 92.55566
1026.917, 86.85425
1027.399, 86.65771
1027.881, 89.44727
1028.363, 89.56323
1028.845, 86.04077
1029.327, 81.94702
1029.809, 76.28223
1030.292, 72.27393
1030.774, 75.75830
1031.256, 75.95142
1031.738, 60.09399
1032.220, 38.64331
1032.702, 32.09448
1033.184, 43.24951
1033.666, 42.70557
1034.148, 17.20728
1034.630, 3.364014
1035.113, 16.46265
1035.595, 22.27881
1036.077, 15.32788
1036.559, 3.980225
1037.041, 1.905029
1037.523, 9.668213
1038.005, 11.80591
1038.487, 5.280029
1038.970, 2.292725
1039.452, 18.10376
1039.934, 24.73535
1040.416, 6.689941
1040.898, 18.24194
1041.380, 28.81226
1041.862, 26.11230
1042.344, 22.79321
1042.826, 20.68677
1043.309, 14.18506
1043.791, 2.153564
1044.273, 12.17432
1044.755, 34.30957
1045.237, 52.47974
1045.719, 49.15234
1046.201, 28.88965
1046.683, 11.72656
1047.166, 7.280762
1047.648, 4.406738
1048.130, 29.82568
1048.612, 57.54688
1049.094, 64.39014
1049.576, 70.14429
1050.058, 94.48267
1050.540, 91.96533
1051.022, 129.6929
1051.505, 101.5259
1051.987, 91.81030
1052.469, 103.5278
1052.951, 115.9836
1053.433, 124.7734
1053.915, 130.3223
1054.397, 131.5073
1054.879, 134.2075
1055.361, 152.0706
1055.844, 182.2483
1056.326, 191.1208
1056.808, 178.1028
1057.290, 171.0391
1057.772, 175.0469
1058.254, 178.0579
1058.736, 172.8245
1059.218, 169.1750
1059.701, 183.1790
1060.183, 179.8318
1060.665, 207.6858
1061.147, 191.7295
1061.629, 189.6277
1062.111, 204.0354
1062.593, 228.2737
1063.075, 258.8586
1063.557, 279.3694
1064.040, 270.8506
1064.522, 248.0652
1065.004, 233.7078
1065.486, 227.7896
1065.968, 232.8049
1066.450, 246.6406
1066.932, 265.7869
1067.414, 287.1265
1067.896, 297.5405
1068.379, 285.2068
1068.861, 269.1470
1069.343, 272.2041
1069.825, 283.8032
1070.307, 291.0784
1070.789, 294.5024
1071.271, 294.6997
1071.753, 293.6230
1072.236, 298.3191
1072.718, 313.2310
1073.200, 325.2727
1073.682, 320.5962
1074.164, 313.8408
1074.646, 318.9775
1075.128, 327.9719
1075.610, 332.8364
1076.093, 331.9683
1076.575, 322.7517
1077.057, 304.0820
1077.539, 290.7891
1078.021, 283.2114
1078.503, 290.5364
1078.985, 337.3647
1079.467, 380.5042
1079.949, 377.7358
1080.432, 352.6152
1080.914, 349.9512
1081.396, 373.0435
1081.878, 381.1587
1082.360, 347.9246
1082.842, 328.5859
1083.324, 343.5950
1083.806, 359.6052
1084.288, 363.2798
1084.771, 359.2080
1085.253, 348.7539
1085.735, 334.5476
1086.217, 329.6357
1086.699, 338.8047
1087.181, 345.0239
1087.663, 351.5730
1088.145, 346.6709
1088.628, 316.3188
1089.110, 295.0090
1089.592, 313.0920
1090.074, 351.1821
1090.556, 367.0845
1091.038, 360.0317
1091.520, 353.4890
1092.002, 346.3572
1092.484, 347.6562
1092.967, 361.0605
1093.449, 368.2102
1093.931, 359.7893
1094.413, 344.6216
1094.895, 330.8809
1095.377, 320.6692
1095.859, 327.5447
1096.341, 349.4998
1096.823, 368.5872
1097.306, 382.7090
1097.788, 386.5083
1098.270, 378.9500
1098.752, 373.2080
1099.234, 382.7322
1099.716, 396.4204
1100.198, 394.8318
1100.680, 384.7451
1101.163, 376.3147
1101.645, 373.1333
1102.127, 386.7368
1102.609, 413.6787
1103.091, 429.7371
1103.573, 421.7083
1104.055, 413.5046
1104.537, 435.0601
1105.020, 458.2390
1105.502, 453.6423
1105.984, 442.0674
1106.466, 450.0952
1106.948, 470.5161
1107.430, 483.7449
1107.912, 485.2310
1108.394, 478.7939
1108.876, 454.4592
1109.359, 439.8911
1109.841, 457.1724
1110.323, 473.9207
1110.805, 463.9934
1111.287, 447.2070
1111.769, 449.8184
1112.251, 469.3076
1112.733, 484.8079
1113.215, 494.4031
1113.698, 500.2871
1114.180, 505.4368
1114.662, 501.7629
1115.144, 478.3547
1115.626, 458.7417
1116.108, 461.4304
1116.590, 475.8879
1117.072, 483.9812
1117.555, 485.4714
1118.037, 471.8157
1118.519, 437.0498
1119.001, 418.6982
1119.483, 425.1687
1119.965, 421.8896
1120.447, 392.5786
1120.929, 363.3296
1121.411, 363.3110
1121.894, 379.6240
1122.376, 378.1299
1122.858, 363.5195
1123.340, 359.7979
1123.822, 366.3582
1124.304, 376.7632
1124.786, 387.0330
1125.268, 378.1560
1125.750, 338.1025
1126.233, 296.9165
1126.715, 295.6196
1127.197, 307.2375
1127.679, 291.5752
1128.161, 288.7944
1128.643, 279.3999
1129.125, 261.1379
1129.607, 251.3706
1130.090, 222.6523
1130.572, 202.6104
1131.054, 207.4036
1131.536, 219.9934
1132.018, 247.2598
1132.500, 261.9341
1132.982, 233.9641
1133.464, 191.0251
1133.947, 164.5474
1134.429, 154.3037
1134.911, 146.8860
1135.393, 139.6941
1135.875, 138.2832
1136.357, 156.1926
1136.839, 159.5227
1137.321, 124.4456
1137.803, 100.9026
1138.286, 125.4131
1138.768, 167.9175
1139.250, 184.2822
1139.732, 177.0847
1140.214, 170.5674
1140.696, 164.6096
1141.178, 161.9768
1141.660, 163.9199
1142.142, 154.8308
1142.625, 128.9697
1143.107, 104.7549
1143.589, 96.63818
1144.071, 97.29175
1144.553, 93.78052
1145.035, 88.56836
1145.517, 90.27002
1145.999, 96.64502
1146.482, 98.69360
1146.964, 97.65381
1147.446, 106.7188
1147.928, 129.5764
1148.410, 146.0217
1148.892, 139.5806
1149.374, 123.2305
1149.856, 97.94360
1150.339, 78.41724
1150.821, 87.67358
1151.303, 107.6741
1151.785, 109.8296
1152.267, 94.85132
1152.749, 82.62598
1153.231, 77.65356
1153.713, 76.81177
1154.195, 86.22437
1154.677, 90.14282
1155.160, 80.85596
1155.642, 67.78809
1156.124, 53.35059
1156.606, 41.59692
1157.088, 40.50244
1157.570, 48.62329
1158.052, 47.83789
1158.534, 36.60498
1159.017, 21.90356
1159.499, 3.813965
1159.981, 12.85010
1160.463, 27.22949
1160.945, 27.85107
1161.427, 4.211670
1161.909, 23.48267
1162.391, 15.30835
1162.874, 14.93750
1163.356, 20.44629
1163.838, 7.859131
1164.320, 6.215820
1164.802, 16.88721
1165.284, 14.00415
1165.766, 3.733398
1166.248, 18.12842
1166.730, 16.47461
1167.213, 9.032715
1167.695, 1.974365
1168.177, 4.731934
1168.659, 10.78003
1169.141, 16.66821
1169.623, 24.62671
1170.105, 32.78125
1170.587, 34.71265
1171.069, 29.16406
1171.552, 27.33252
1172.034, 33.12183
1172.516, 40.09253
1172.998, 55.63135
1173.480, 59.39746
1173.962, 33.40552
1174.444, 5.290527
1174.926, 6.875244
1175.409, 8.267334
1175.891, 8.687500
1176.373, 2.093506
1176.855, 1.103760
1177.337, 4.445068
1177.819, 2.891357
1178.301, 18.12720
1178.783, 4.061768
1179.266, 14.19629
1179.748, 27.11304
1180.230, 17.48560
1180.712, 27.37524
1181.194, 11.20068
1181.676, 31.51270
1182.158, 42.78833
1182.640, 45.52979
1183.122, 39.23218
1183.604, 28.94604
1184.087, 32.75854
1184.569, 59.43457
1185.051, 83.36572
1185.533, 92.60425
1186.015, 96.95337
1186.497, 101.3882
1186.979, 101.5254
1187.461, 89.13989
1187.944, 73.90649
1188.426, 71.40942
1188.908, 78.85181
1189.390, 77.80225
1189.872, 62.49756
1190.354, 61.52539
1190.836, 81.00586
1191.318, 84.96484
1191.801, 62.50610
1192.283, 45.35889
1192.765, 51.89136
1193.247, 68.60864
1193.729, 78.09033
1194.211, 82.45923
1194.693, 93.08008
1195.175, 93.62598
1195.657, 111.1260
1196.140, 93.23828
1196.622, 82.22632
1197.104, 78.99146
1197.586, 86.55322
1198.068, 117.1824
1198.550, 135.3264
1199.032, 105.5581
1199.514, 71.49585
1199.996, 46.76465
1200.479, 38.67236
1200.961, 70.28491
1201.443, 110.0439
1201.925, 106.4351
1202.407, 65.84009
1202.889, 51.73096
1203.371, 78.17456
1203.853, 80.57520
1204.336, 50.27490
1204.818, 25.32056
1205.300, 13.30371
1205.782, 12.71460
1206.264, 23.91016
1206.746, 38.95068
1207.228, 47.46021
1207.710, 49.83716
1208.193, 43.23071
1208.675, 32.84326
1209.157, 33.49414
1209.639, 43.98413
1210.121, 62.69458
1210.603, 84.57324
1211.085, 94.61206
1211.567, 85.90161
1212.049, 78.67017
1212.531, 94.14868
1213.014, 102.5027
1213.496, 83.04785
1213.978, 56.40552
1214.460, 31.07837
1214.942, 11.29102
1215.424, 1.796143
1215.906, 5.826416
1216.388, 10.71460
1216.871, 0.9982910
1217.353, 61.27930
1217.835, 12.42212
1218.317, 0.3122560
1218.799, 41.30884
1219.281, 79.58496
1219.763, 90.67725
1220.245, 85.92310
1220.728, 73.49487
1221.210, 60.66089
1221.692, 62.21313
1222.174, 63.08765
1222.656, 62.18359
1223.138, 57.66553
1223.620, 38.84912
1224.102, 17.59277
1224.584, 11.86499
1225.067, 25.01880
1225.549, 32.61475
1226.031, 18.28516
1226.513, 5.195313
1226.995, 0.2155760
1227.477, 9.6680000E-02
1227.959, 0.0000000E+00
##END=



