##NAMES=Mushistonite
##RRUFFID=R060153
##IDEAL CHEMISTRY=Cu^2+^Sn^4+^(OH)_6_
##LOCALITY=Ping Wu, Xuebaoding, Sichuan, China
##OWNER=RRUFF
##SOURCE=Marcus Origlieri
##DESCRIPTION=Yellow fine-grained earthy aggregate with green acicular malachite
##STATUS=The identification of this mineral is not yet confirmed.
##URL=rruff.info/R060153
164.912, 0.000
165.394, 32.884
165.876, 60.252
166.359, 61.366
166.841, 46.615
167.323, 39.779
167.805, 44.810
168.287, 48.871
168.769, 41.450
169.251, 17.462
169.734, 2.393
170.216, 1.096
170.698, 19.163
171.180, 35.164
171.662, 34.111
172.144, 26.688
172.626, 25.879
173.108, 34.581
173.590, 47.084
174.072, 61.900
174.555, 75.681
175.037, 83.927
175.519, 78.646
176.001, 63.815
176.483, 48.667
176.965, 35.978
177.447, 26.670
177.930, 21.724
178.412, 21.986
178.894, 25.017
179.376, 29.866
179.858, 35.610
180.340, 48.497
180.822, 71.886
181.304, 94.803
181.786, 100.301
182.268, 87.456
182.751, 70.739
183.233, 68.310
183.715, 78.008
184.197, 85.565
184.679, 77.460
185.161, 59.668
185.643, 53.896
186.125, 61.677
186.608, 75.562
187.090, 91.310
187.572, 108.730
188.054, 117.881
188.536, 100.708
189.018, 65.792
189.500, 59.676
189.982, 92.795
190.464, 145.222
190.947, 182.097
191.429, 190.568
191.911, 182.080
192.393, 157.267
192.875, 126.708
193.357, 125.006
193.839, 136.213
194.321, 149.090
194.804, 151.375
195.286, 127.191
195.768, 109.927
196.250, 126.141
196.732, 166.463
197.214, 184.241
197.696, 179.995
198.178, 161.382
198.661, 148.440
199.143, 141.521
199.625, 144.131
200.107, 164.150
200.589, 198.012
201.071, 216.271
201.553, 209.073
202.035, 181.597
202.517, 153.524
202.999, 125.776
203.482, 105.698
203.964, 104.802
204.446, 127.137
204.928, 146.219
205.410, 154.133
205.892, 150.732
206.374, 145.492
206.857, 137.765
207.339, 128.864
207.821, 121.141
208.303, 115.490
208.785, 107.541
209.267, 94.420
209.749, 74.920
210.231, 60.971
210.713, 53.356
211.195, 50.929
211.678, 53.729
212.160, 65.755
212.642, 73.196
213.124, 69.303
213.606, 50.707
214.088, 34.242
214.570, 20.638
215.053, 9.152
215.535, 2.854
216.017, 18.700
216.499, 28.363
216.981, 25.107
217.463, 2.915
217.945, 13.763
218.427, 24.603
218.909, 28.942
219.391, 24.525
219.874, 8.828
220.356, 11.731
220.838, 36.542
221.320, 75.231
221.802, 91.733
222.284, 72.219
222.766, 23.641
223.249, 2.364
223.731, 21.504
224.213, 48.842
224.695, 60.950
225.177, 48.327
225.659, 42.130
226.141, 49.590
226.623, 68.627
227.105, 76.777
227.587, 72.405
228.070, 59.437
228.552, 38.997
229.034, 1.772
229.516, 22.266
229.998, 23.762
230.480, 2.540
230.962, 9.126
231.445, 7.622
231.927, 0.762
232.409, 4.965
232.891, 12.536
233.373, 12.758
233.855, 0.629
234.337, 29.772
234.819, 41.613
235.301, 28.623
235.783, 5.400
236.266, 13.063
236.748, 30.886
237.230, 36.119
237.712, 20.376
238.194, 22.177
238.676, 42.766
239.158, 32.981
239.640, 7.744
240.123, 15.615
240.605, 41.520
241.087, 57.615
241.569, 57.606
242.051, 36.500
242.533, 24.103
243.015, 20.884
243.497, 26.261
243.980, 41.466
244.462, 76.155
244.944, 104.221
245.426, 115.788
245.908, 105.264
246.390, 98.429
246.872, 93.777
247.354, 93.310
247.836, 102.275
248.319, 129.211
248.801, 150.284
249.283, 155.754
249.765, 139.313
250.247, 127.577
250.729, 119.499
251.211, 116.604
251.693, 123.319
252.176, 146.659
252.658, 167.958
253.140, 180.430
253.622, 183.124
254.104, 179.011
254.586, 162.365
255.068, 142.123
255.550, 141.010
256.032, 170.876
256.515, 197.753
256.997, 204.271
257.479, 178.014
257.961, 169.380
258.443, 185.125
258.925, 215.445
259.407, 234.833
259.889, 235.521
260.371, 239.938
260.854, 261.234
261.336, 309.064
261.818, 342.101
262.300, 354.552
262.782, 353.701
263.264, 356.881
263.746, 361.398
264.228, 375.348
264.711, 408.009
265.193, 469.236
265.675, 509.341
266.157, 519.839
266.639, 511.569
267.121, 512.329
267.603, 524.090
268.085, 539.543
268.568, 555.654
269.050, 573.372
269.532, 588.759
270.014, 600.067
270.496, 610.089
270.978, 628.508
271.460, 658.967
271.942, 685.251
272.424, 695.334
272.906, 685.944
273.389, 681.459
273.871, 681.116
274.353, 688.344
274.835, 716.895
275.317, 774.486
275.799, 828.850
276.281, 855.638
276.763, 850.894
277.246, 860.549
277.728, 891.307
278.210, 933.292
278.692, 964.134
279.174, 981.858
279.656, 996.407
280.138, 1014.906
280.620, 1039.073
281.103, 1066.062
281.585, 1094.462
282.067, 1120.881
282.549, 1135.739
283.031, 1138.586
283.513, 1149.772
283.995, 1187.188
284.477, 1247.887
284.959, 1296.728
285.442, 1329.841
285.924, 1353.516
286.406, 1379.469
286.888, 1408.688
287.370, 1434.875
287.852, 1455.444
288.334, 1470.545
288.816, 1478.779
289.298, 1478.633
289.781, 1475.997
290.263, 1479.894
290.745, 1490.191
291.227, 1504.808
291.709, 1526.474
292.191, 1551.000
292.673, 1566.180
293.155, 1570.497
293.638, 1570.602
294.120, 1575.514
294.602, 1584.581
295.084, 1593.966
295.566, 1605.425
296.048, 1614.883
296.530, 1611.373
297.012, 1592.759
297.495, 1571.057
297.977, 1562.248
298.459, 1563.612
298.941, 1562.718
299.423, 1550.824
299.905, 1532.620
300.387, 1516.690
300.869, 1504.945
301.351, 1491.683
301.834, 1467.954
302.316, 1436.804
302.798, 1408.705
303.280, 1390.617
303.762, 1377.714
304.244, 1363.602
304.726, 1347.765
305.208, 1329.900
305.690, 1307.991
306.173, 1283.589
306.655, 1261.033
307.137, 1245.745
307.619, 1231.237
308.101, 1210.211
308.583, 1181.259
309.065, 1151.117
309.547, 1124.816
310.030, 1100.675
310.512, 1076.245
310.994, 1055.101
311.476, 1030.229
311.958, 993.271
312.440, 941.997
312.922, 896.561
313.404, 871.589
313.887, 857.979
314.369, 843.042
314.851, 823.364
315.333, 799.908
315.815, 768.614
316.297, 728.282
316.779, 700.464
317.261, 710.679
317.743, 731.927
318.225, 735.335
318.708, 693.940
319.190, 650.379
319.672, 618.830
320.154, 600.321
320.636, 588.981
321.118, 587.966
321.600, 591.297
322.082, 593.809
322.565, 590.738
323.047, 590.449
323.529, 597.887
324.011, 612.564
324.493, 620.356
324.975, 615.739
325.457, 605.577
325.939, 594.605
326.422, 572.157
326.904, 561.119
327.386, 571.346
327.868, 600.092
328.350, 617.242
328.832, 612.023
329.314, 603.490
329.796, 602.729
330.278, 623.137
330.761, 631.595
331.243, 617.168
331.725, 587.644
332.207, 580.781
332.689, 614.379
333.171, 648.511
333.653, 661.799
334.135, 642.722
334.617, 628.481
335.100, 618.760
335.582, 615.003
336.064, 622.749
336.546, 646.713
337.028, 672.180
337.510, 693.200
337.992, 710.626
338.474, 719.483
338.957, 717.480
339.439, 708.950
339.921, 700.422
340.403, 690.448
340.885, 687.631
341.367, 699.938
341.849, 727.586
342.331, 744.916
342.814, 750.711
343.296, 748.973
343.778, 743.656
344.260, 734.816
344.742, 726.333
345.224, 718.015
345.706, 711.185
346.188, 712.036
346.670, 721.218
347.153, 734.596
347.635, 752.565
348.117, 772.872
348.599, 783.093
349.081, 774.663
349.563, 755.323
350.045, 737.298
350.527, 720.558
351.009, 711.479
351.492, 723.281
351.974, 746.551
352.456, 761.487
352.938, 759.413
353.420, 748.864
353.902, 737.729
354.384, 726.293
354.866, 715.643
355.349, 711.726
355.831, 707.483
356.313, 692.607
356.795, 656.906
357.277, 623.144
357.759, 613.332
358.241, 620.180
358.723, 621.126
359.206, 595.932
359.688, 565.619
360.170, 548.548
360.652, 554.393
361.134, 556.749
361.616, 535.897
362.098, 504.605
362.580, 486.844
363.062, 512.600
363.544, 533.793
364.027, 522.665
364.509, 463.919
364.991, 421.802
365.473, 421.623
365.955, 441.456
366.437, 453.042
366.919, 447.311
367.401, 436.635
367.884, 425.357
368.366, 415.471
368.848, 399.815
369.330, 369.218
369.812, 338.117
370.294, 318.371
370.776, 314.182
371.258, 310.102
371.741, 306.357
372.223, 303.709
372.705, 297.027
373.187, 282.205
373.669, 268.648
374.151, 263.726
374.633, 271.099
375.115, 276.934
375.598, 280.033
376.080, 279.083
376.562, 270.456
377.044, 252.989
377.526, 237.499
378.008, 230.562
378.490, 231.859
378.972, 229.916
379.454, 224.258
379.936, 215.607
380.419, 204.262
380.901, 189.533
381.383, 176.076
381.865, 170.224
382.347, 169.993
382.829, 159.459
383.311, 134.971
383.793, 109.812
384.276, 104.885
384.758, 115.246
385.240, 122.302
385.722, 111.553
386.204, 96.819
386.686, 104.331
387.168, 132.791
387.650, 156.755
388.133, 144.670
388.615, 117.632
389.097, 107.589
389.579, 138.169
390.061, 170.856
390.543, 172.414
391.025, 149.368
391.507, 127.884
391.989, 121.483
392.472, 122.415
392.954, 125.257
393.436, 130.732
393.918, 134.671
394.400, 136.126
394.882, 135.075
395.364, 131.371
395.846, 114.956
396.328, 104.637
396.811, 111.957
397.293, 146.688
397.775, 166.809
398.257, 151.954
398.739, 125.302
399.221, 114.319
399.703, 132.888
400.185, 152.172
400.668, 170.820
401.150, 189.044
401.632, 191.942
402.114, 168.413
402.596, 141.303
403.078, 127.788
403.560, 131.010
404.042, 141.221
404.525, 161.746
405.007, 187.396
405.489, 197.835
405.971, 189.768
406.453, 177.326
406.935, 168.222
407.417, 162.654
407.899, 155.972
408.381, 146.495
408.864, 138.918
409.346, 145.272
409.828, 164.571
410.310, 177.807
410.792, 173.668
411.274, 156.620
411.756, 139.267
412.238, 121.285
412.720, 105.597
413.203, 96.183
413.685, 91.236
414.167, 86.672
414.649, 81.476
415.131, 75.699
415.613, 69.447
416.095, 62.716
416.577, 55.402
417.060, 47.378
417.542, 38.750
418.024, 29.820
418.506, 20.784
418.988, 10.884
419.470, 4.281
419.952, 20.792
420.434, 29.865
420.917, 19.516
421.399, 8.167
421.881, 4.678
422.363, 11.280
422.845, 19.776
423.327, 31.840
423.809, 43.814
424.291, 51.199
424.773, 43.586
425.255, 42.617
425.738, 54.081
426.220, 77.756
426.702, 98.409
427.184, 122.085
427.666, 135.973
428.148, 128.271
428.630, 87.289
429.112, 58.066
429.595, 46.155
430.077, 46.792
430.559, 47.621
431.041, 48.660
431.523, 50.091
432.005, 53.615
432.487, 59.013
432.969, 56.384
433.452, 43.373
433.934, 30.026
434.416, 32.819
434.898, 48.883
435.380, 59.480
435.862, 55.635
436.344, 43.117
436.826, 32.545
437.308, 23.724
437.791, 13.789
438.273, 5.406
438.755, 25.736
439.237, 32.421
439.719, 13.211
440.201, 4.588
440.683, 5.853
441.165, 35.206
441.647, 58.006
442.130, 56.723
442.612, 49.510
443.094, 45.959
443.576, 46.430
444.058, 53.733
444.540, 75.848
445.022, 103.011
445.504, 123.501
445.987, 133.947
446.469, 139.316
446.951, 137.383
447.433, 128.699
447.915, 126.849
448.397, 134.518
448.879, 146.469
449.361, 160.776
449.844, 181.902
450.326, 194.282
450.808, 193.613
451.290, 185.968
451.772, 184.377
452.254, 188.820
452.736, 199.284
453.218, 218.329
453.700, 245.497
454.183, 267.074
454.665, 283.031
455.147, 295.029
455.629, 302.908
456.111, 307.530
456.593, 314.720
457.075, 326.138
457.557, 341.277
458.039, 359.604
458.522, 380.927
459.004, 402.625
459.486, 424.834
459.968, 445.859
460.450, 464.070
460.932, 478.457
461.414, 491.977
461.896, 505.881
462.379, 520.185
462.861, 535.145
463.343, 546.664
463.825, 562.227
464.307, 588.490
464.789, 625.773
465.271, 659.132
465.753, 679.452
466.236, 698.072
466.718, 723.345
467.200, 771.655
467.682, 807.436
468.164, 819.286
468.646, 817.086
469.128, 830.574
469.610, 870.750
470.092, 909.578
470.574, 933.275
471.057, 937.183
471.539, 958.912
472.021, 1003.510
472.503, 1055.313
472.985, 1097.340
473.467, 1128.997
473.949, 1154.263
474.431, 1170.048
474.914, 1182.765
475.396, 1210.919
475.878, 1254.444
476.360, 1302.262
476.842, 1351.805
477.324, 1399.445
477.806, 1437.471
478.288, 1464.499
478.771, 1488.069
479.253, 1507.792
479.735, 1528.423
480.217, 1560.382
480.699, 1617.882
481.181, 1679.953
481.663, 1731.747
482.145, 1773.800
482.627, 1820.661
483.110, 1879.242
483.592, 1942.737
484.074, 2003.830
484.556, 2053.084
485.038, 2112.584
485.520, 2192.258
486.002, 2286.212
486.484, 2377.229
486.966, 2463.847
487.449, 2547.160
487.931, 2623.089
488.413, 2691.040
488.895, 2767.708
489.377, 2856.383
489.859, 2949.020
490.341, 3037.618
490.823, 3120.407
491.306, 3216.710
491.788, 3333.985
492.270, 3459.891
492.752, 3566.081
493.234, 3652.888
493.716, 3744.806
494.198, 3858.136
494.680, 3986.274
495.163, 4121.635
495.645, 4262.218
496.127, 4399.683
496.609, 4509.683
497.091, 4611.072
497.573, 4733.697
498.055, 4911.208
498.537, 5092.164
499.019, 5235.176
499.502, 5349.109
499.984, 5472.844
500.466, 5633.278
500.948, 5800.851
501.430, 5958.501
501.912, 6102.041
502.394, 6246.799
502.876, 6397.566
503.358, 6550.775
503.841, 6697.646
504.323, 6836.486
504.805, 6973.069
505.287, 7111.895
505.769, 7250.474
506.251, 7372.864
506.733, 7471.812
507.215, 7572.123
507.698, 7696.299
508.180, 7845.104
508.662, 7966.075
509.144, 8052.340
509.626, 8121.548
510.108, 8199.891
510.590, 8284.923
511.072, 8358.274
511.555, 8411.538
512.037, 8449.638
512.519, 8478.991
513.001, 8499.568
513.483, 8509.956
513.965, 8515.584
514.447, 8507.587
514.929, 8478.112
515.411, 8428.022
515.894, 8350.167
516.376, 8220.638
516.858, 8065.552
517.340, 7924.119
517.822, 7853.312
518.304, 7749.165
518.786, 7570.773
519.268, 7317.358
519.750, 7068.711
520.233, 6828.863
520.715, 6587.674
521.197, 6339.203
521.679, 6079.900
522.161, 5822.408
522.643, 5568.325
523.125, 5311.304
523.607, 5042.017
524.089, 4757.061
524.572, 4476.009
525.054, 4200.769
525.536, 3932.390
526.018, 3679.894
526.500, 3442.070
526.982, 3213.227
527.464, 2995.963
527.946, 2786.976
528.429, 2582.470
528.911, 2382.813
529.393, 2191.445
529.875, 2009.868
530.357, 1839.832
530.839, 1679.742
531.321, 1534.262
531.803, 1397.758
532.286, 1268.911
532.768, 1147.043
533.250, 1037.438
533.732, 949.845
534.214, 867.358
534.696, 778.720
535.178, 678.411
535.660, 587.275
536.143, 504.532
536.625, 432.313
537.107, 377.955
537.589, 347.488
538.071, 312.333
538.553, 262.000
539.035, 202.564
539.517, 164.763
539.999, 149.456
540.482, 135.562
540.964, 106.340
541.446, 67.300
541.928, 33.101
542.410, 4.300
542.892, 18.085
543.374, 34.471
543.856, 44.068
544.338, 45.545
544.821, 31.559
545.303, 15.814
545.785, 4.304
546.267, 2.732
546.749, 4.632
547.231, 5.035
547.713, 14.921
548.195, 18.897
548.677, 13.804
549.160, 11.524
549.642, 16.552
550.124, 21.216
550.606, 17.670
551.088, 3.022
551.570, 11.953
552.052, 25.164
552.534, 38.187
553.016, 57.206
553.499, 83.101
553.981, 105.574
554.463, 116.587
554.945, 119.671
555.427, 129.183
555.909, 145.572
556.391, 160.185
556.873, 161.842
557.356, 157.345
557.838, 159.013
558.320, 174.616
558.802, 187.688
559.284, 183.265
559.766, 168.833
560.248, 159.352
560.730, 170.355
561.213, 177.843
561.695, 167.850
562.177, 138.571
562.659, 123.104
563.141, 129.743
563.623, 143.433
564.105, 157.694
564.587, 177.779
565.070, 181.862
565.552, 162.670
566.034, 135.543
566.516, 125.796
566.998, 134.605
567.480, 141.471
567.962, 139.854
568.444, 132.477
568.926, 124.600
569.409, 116.442
569.891, 108.829
570.373, 102.787
570.855, 97.704
571.337, 91.426
571.819, 82.845
572.301, 80.534
572.783, 93.683
573.265, 114.180
573.748, 133.282
574.230, 149.449
574.712, 162.774
575.194, 172.753
575.676, 179.875
576.158, 185.623
576.640, 185.402
577.122, 190.216
577.604, 205.644
578.087, 232.326
578.569, 251.525
579.051, 261.722
579.533, 269.335
580.015, 279.168
580.497, 291.186
580.979, 303.861
581.461, 316.057
581.944, 331.815
582.426, 364.849
582.908, 406.806
583.390, 433.891
583.872, 416.001
584.354, 393.853
584.836, 412.067
585.318, 461.626
585.800, 499.203
586.283, 486.485
586.765, 469.285
587.247, 476.160
587.729, 519.414
588.211, 554.312
588.693, 561.229
589.175, 566.412
589.657, 594.316
590.140, 659.520
590.622, 713.876
591.104, 751.236
591.586, 775.955
592.068, 797.620
592.550, 816.183
593.032, 831.110
593.514, 839.671
593.997, 845.011
594.479, 855.715
594.961, 871.763
595.443, 892.691
595.925, 922.732
596.407, 955.562
596.889, 983.145
597.371, 1003.669
597.854, 1021.306
598.336, 1035.910
598.818, 1049.965
599.300, 1066.627
599.782, 1093.813
600.264, 1116.169
600.746, 1125.849
601.228, 1126.816
601.710, 1133.591
602.193, 1146.059
602.675, 1166.380
603.157, 1199.421
603.639, 1245.159
604.121, 1276.519
604.603, 1290.847
605.085, 1299.397
605.567, 1311.521
606.049, 1326.698
606.532, 1341.836
607.014, 1356.463
607.496, 1370.711
607.978, 1384.086
608.460, 1397.038
608.942, 1410.496
609.424, 1432.544
609.906, 1449.538
610.388, 1447.935
610.871, 1432.643
611.353, 1424.383
611.835, 1443.849
612.317, 1459.437
612.799, 1452.965
613.281, 1418.434
613.763, 1405.875
614.245, 1426.374
614.727, 1451.500
615.210, 1458.003
615.692, 1443.708
616.174, 1431.573
616.656, 1425.049
617.138, 1421.011
617.620, 1412.986
618.102, 1402.373
618.584, 1394.770
619.067, 1393.121
619.549, 1390.942
620.031, 1381.584
620.513, 1367.186
620.995, 1353.833
621.477, 1349.161
621.959, 1343.547
622.441, 1328.499
622.924, 1300.744
623.406, 1275.930
623.888, 1260.440
624.370, 1248.099
624.852, 1235.872
625.334, 1230.649
625.816, 1206.028
626.298, 1151.113
626.781, 1088.889
627.263, 1059.424
627.745, 1064.535
628.227, 1063.389
628.709, 1042.565
629.191, 1011.657
629.673, 990.644
630.155, 976.438
630.637, 957.017
631.120, 919.018
631.602, 877.794
632.084, 850.576
632.566, 838.084
633.048, 821.013
633.530, 785.865
634.012, 746.807
634.494, 712.939
634.976, 686.166
635.459, 663.285
635.941, 648.975
636.423, 635.573
636.905, 611.910
637.387, 574.283
637.869, 541.573
638.351, 515.889
638.833, 498.432
639.315, 488.751
639.798, 487.219
640.280, 501.194
640.762, 570.995
641.244, 642.125
641.726, 608.177
642.208, 480.697
642.690, 361.620
643.172, 314.424
643.654, 298.615
644.137, 283.006
644.619, 261.248
645.101, 248.518
645.583, 260.513
646.065, 275.377
646.547, 273.115
647.029, 242.362
647.511, 217.340
647.994, 201.748
648.476, 191.125
648.958, 175.985
649.440, 155.862
649.922, 137.403
650.404, 119.394
650.886, 106.759
651.368, 116.616
651.851, 144.628
652.333, 164.265
652.815, 155.841
653.297, 134.352
653.779, 110.198
654.261, 84.312
654.743, 64.149
655.225, 58.942
655.708, 56.845
656.190, 49.315
656.672, 31.734
657.154, 16.695
657.636, 2.490
658.118, 7.351
658.600, 6.542
659.082, 7.410
659.565, 17.100
660.047, 19.867
660.529, 16.156
661.011, 2.609
661.493, 18.449
661.975, 34.137
662.457, 34.392
662.939, 28.725
663.421, 27.032
663.904, 28.702
664.386, 30.386
664.868, 31.671
665.350, 31.540
665.832, 27.917
666.314, 18.866
666.796, 16.375
667.278, 27.275
667.760, 38.887
668.243, 41.619
668.725, 32.327
669.207, 28.821
669.689, 33.222
670.171, 40.824
670.653, 48.110
671.135, 53.930
671.617, 50.988
672.099, 34.374
672.582, 13.525
673.064, 5.472
673.546, 20.126
674.028, 24.688
674.510, 8.866
674.992, 10.224
675.474, 28.949
675.956, 45.520
676.438, 49.082
676.921, 25.019
677.403, 2.050
677.885, 9.720
678.367, 9.864
678.849, 4.325
679.331, 9.684
679.813, 20.741
680.295, 15.291
680.778, 2.907
681.260, 12.673
681.742, 10.775
682.224, 7.314
682.706, 11.246
683.188, 20.603
683.670, 32.740
684.152, 50.271
684.635, 64.793
685.117, 72.762
685.599, 75.057
686.081, 73.152
686.563, 56.099
687.045, 49.117
687.527, 61.339
688.009, 86.563
688.492, 99.528
688.974, 97.735
689.456, 94.834
689.938, 98.108
690.420, 105.083
690.902, 103.007
691.384, 92.558
691.866, 87.794
692.348, 104.979
692.831, 130.226
693.313, 147.140
693.795, 153.123
694.277, 159.222
694.759, 173.036
695.241, 187.394
695.723, 196.250
696.205, 192.520
696.687, 194.735
697.170, 206.579
697.652, 220.962
698.134, 228.271
698.616, 227.774
699.098, 226.671
699.580, 225.771
700.062, 226.092
700.544, 230.974
701.026, 239.133
701.509, 245.244
701.991, 244.035
702.473, 242.178
702.955, 246.983
703.437, 256.297
703.919, 262.389
704.401, 251.797
704.883, 247.458
705.365, 264.023
705.848, 301.177
706.330, 326.472
706.812, 337.565
707.294, 340.840
707.776, 337.155
708.258, 326.614
708.740, 322.372
709.222, 324.993
709.705, 330.655
710.187, 335.876
710.669, 341.603
711.151, 349.681
711.633, 360.677
712.115, 372.801
712.597, 386.957
713.079, 400.831
713.562, 411.657
714.044, 418.102
714.526, 422.357
715.008, 424.262
715.490, 423.990
715.972, 422.117
716.454, 418.454
716.936, 416.575
717.419, 416.962
717.901, 418.706
718.383, 417.661
718.865, 414.734
719.347, 417.548
719.829, 441.563
720.311, 466.902
720.793, 467.449
721.275, 447.975
721.758, 433.196
722.240, 439.728
722.722, 448.348
723.204, 448.607
723.686, 439.280
724.168, 436.598
724.650, 445.440
725.132, 451.356
725.614, 444.851
726.097, 426.035
726.579, 411.129
727.061, 400.184
727.543, 389.909
728.025, 374.245
728.507, 357.720
728.989, 350.624
729.471, 357.219
729.953, 365.773
730.436, 372.078
730.918, 374.787
731.400, 372.204
731.882, 355.289
732.364, 342.548
732.846, 335.772
733.328, 332.626
733.810, 331.859
734.293, 336.823
734.775, 333.507
735.257, 315.318
735.739, 291.155
736.221, 280.429
736.703, 280.271
737.185, 278.534
737.667, 269.743
738.149, 258.769
738.632, 249.596
739.114, 241.254
739.596, 231.851
740.078, 216.140
740.560, 204.355
741.042, 204.654
741.524, 215.224
742.006, 214.126
742.489, 195.268
742.971, 178.591
743.453, 175.944
743.935, 184.951
744.417, 185.919
744.899, 178.969
745.381, 172.742
745.863, 177.152
746.346, 183.965
746.828, 181.342
747.310, 167.290
747.792, 154.344
748.274, 147.941
748.756, 145.205
749.238, 144.677
749.720, 148.806
750.203, 149.660
750.685, 147.413
751.167, 141.839
751.649, 132.957
752.131, 120.952
752.613, 101.512
753.095, 70.438
753.577, 45.188
754.059, 55.613
754.542, 85.285
755.024, 101.014
755.506, 85.526
755.988, 66.761
756.470, 55.374
756.952, 51.300
757.434, 54.707
757.916, 77.865
758.398, 91.286
758.881, 89.566
759.363, 77.541
759.845, 64.018
760.327, 48.150
760.809, 39.864
761.291, 45.358
761.773, 57.045
762.255, 63.651
762.737, 65.045
763.220, 60.617
763.702, 41.754
764.184, 24.297
764.666, 17.812
765.148, 21.518
765.630, 30.375
766.112, 54.372
766.594, 70.549
767.076, 69.234
767.559, 52.459
768.041, 42.067
768.523, 38.484
769.005, 38.688
769.487, 41.973
769.969, 47.314
770.451, 52.375
770.933, 57.114
771.416, 62.047
771.898, 71.778
772.380, 78.727
772.862, 74.155
773.344, 54.731
773.826, 44.684
774.308, 51.881
774.790, 64.538
775.273, 77.771
775.755, 92.637
776.237, 100.254
776.719, 99.140
777.201, 98.169
777.683, 108.839
778.165, 125.830
778.647, 134.627
779.130, 132.467
779.612, 129.793
780.094, 131.969
780.576, 138.475
781.058, 149.438
781.540, 169.206
782.022, 184.580
782.504, 193.802
782.986, 199.197
783.469, 202.357
783.951, 202.723
784.433, 204.328
784.915, 207.484
785.397, 212.284
785.879, 221.850
786.361, 233.131
786.843, 236.117
787.325, 221.294
787.808, 213.944
788.290, 242.698
788.772, 285.261
789.254, 310.230
789.736, 289.652
790.218, 280.515
790.700, 291.772
791.182, 313.418
791.664, 328.361
792.147, 336.032
792.629, 343.783
793.111, 353.061
793.593, 363.496
794.075, 373.698
794.557, 384.481
795.039, 397.856
795.521, 415.748
796.003, 435.067
796.486, 458.561
796.968, 482.171
797.450, 494.653
797.932, 485.117
798.414, 480.731
798.896, 488.998
799.378, 504.381
799.860, 509.796
800.343, 505.280
800.825, 504.256
801.307, 513.669
801.789, 527.597
802.271, 537.317
802.753, 544.323
803.235, 553.311
803.717, 573.955
804.200, 589.460
804.682, 588.328
805.164, 574.234
805.646, 567.693
806.128, 569.894
806.610, 578.171
807.092, 595.128
807.574, 616.310
808.057, 622.377
808.539, 614.468
809.021, 607.731
809.503, 612.623
809.985, 621.652
810.467, 627.107
810.949, 629.405
811.431, 630.915
811.914, 636.568
812.396, 637.830
812.878, 628.322
813.360, 610.169
813.842, 598.940
814.324, 595.035
814.806, 595.781
815.288, 603.978
815.770, 614.992
816.253, 610.366
816.735, 591.973
817.217, 575.559
817.699, 572.509
818.181, 573.466
818.663, 572.399
819.145, 569.439
819.627, 563.778
820.109, 556.026
820.592, 545.008
821.074, 527.075
821.556, 503.483
822.038, 494.139
822.520, 500.519
823.002, 507.469
823.484, 506.996
823.966, 501.344
824.448, 491.404
824.931, 477.958
825.413, 465.725
825.895, 461.333
826.377, 456.318
826.859, 443.147
827.341, 420.558
827.823, 406.140
828.305, 401.902
828.787, 402.552
829.270, 408.929
829.752, 418.753
830.234, 414.357
830.716, 396.222
831.198, 377.427
831.680, 364.778
832.162, 356.432
832.644, 353.247
833.127, 354.717
833.609, 350.278
834.091, 327.628
834.573, 305.779
835.055, 292.793
835.537, 289.137
836.019, 288.925
836.501, 293.839
836.984, 293.412
837.466, 277.944
837.948, 254.467
838.430, 243.657
838.912, 244.024
839.394, 243.453
839.876, 233.246
840.358, 220.722
840.841, 208.663
841.323, 197.578
841.805, 194.507
842.287, 206.673
842.769, 215.602
843.251, 212.452
843.733, 199.479
844.215, 190.572
844.697, 185.484
845.180, 181.124
845.662, 175.938
846.144, 169.968
846.626, 162.823
847.108, 154.584
847.590, 146.559
848.072, 140.788
848.554, 134.348
849.036, 124.877
849.519, 113.172
850.001, 107.538
850.483, 109.152
850.965, 109.565
851.447, 104.921
851.929, 97.621
852.411, 93.567
852.893, 92.453
853.375, 92.947
853.858, 98.732
854.340, 101.863
854.822, 94.791
855.304, 79.461
855.786, 70.505
856.268, 75.074
856.750, 74.426
857.232, 60.897
857.714, 38.741
858.197, 22.021
858.679, 10.817
859.161, 7.570
859.643, 20.967
860.125, 36.771
860.607, 38.936
861.089, 31.431
861.571, 26.367
862.054, 28.772
862.536, 33.204
863.018, 41.432
863.500, 49.892
863.982, 44.159
864.464, 21.471
864.946, 8.605
865.428, 18.590
865.911, 37.109
866.393, 39.442
866.875, 30.544
867.357, 23.207
867.839, 23.921
868.321, 26.288
868.803, 31.639
869.285, 36.129
869.768, 30.530
870.250, 8.680
870.732, 6.588
871.214, 9.835
871.696, 6.555
872.178, 5.604
872.660, 6.700
873.142, 9.077
873.624, 13.723
874.107, 17.152
874.589, 16.937
875.071, 13.863
875.553, 9.010
876.035, 3.326
876.517, 8.298
876.999, 2.374
877.481, 7.813
877.963, 13.263
878.446, 14.272
878.928, 15.989
879.410, 20.013
879.892, 21.345
880.374, 11.584
880.856, 2.651
881.338, 13.077
881.820, 18.307
882.302, 18.457
882.785, 9.737
883.267, 0.911
883.749, 8.977
884.231, 14.686
884.713, 14.784
885.195, 8.216
885.677, 1.490
886.159, 1.845
886.642, 6.086
887.124, 9.109
887.606, 10.073
888.088, 11.307
888.570, 16.268
889.052, 19.713
889.534, 17.049
890.016, 6.786
890.498, 3.662
890.981, 9.755
891.463, 14.910
891.945, 8.901
892.427, 2.744
892.909, 4.127
893.391, 4.056
893.873, 9.164
894.356, 1.425
894.838, 12.866
895.320, 15.107
895.802, 8.038
896.284, 5.412
896.766, 9.073
897.248, 12.460
897.730, 11.548
898.212, 8.932
898.695, 16.288
899.177, 30.983
899.659, 38.608
900.141, 25.542
900.623, 8.587
901.105, 2.949
901.587, 9.544
902.069, 13.568
902.552, 14.779
903.034, 14.618
903.516, 13.376
903.998, 10.902
904.480, 6.224
904.962, 0.307
905.444, 6.555
905.926, 13.364
906.408, 16.837
906.891, 7.805
907.373, 5.019
907.855, 8.678
908.337, 8.411
908.819, 23.845
909.301, 38.694
909.783, 48.715
910.265, 46.251
910.747, 32.206
911.230, 22.058
911.712, 18.037
912.194, 17.359
912.676, 17.890
913.158, 19.967
913.640, 23.750
914.122, 28.784
914.604, 37.647
915.086, 57.505
915.569, 73.599
916.051, 75.104
916.533, 61.507
917.015, 46.774
917.497, 30.872
917.979, 19.155
918.461, 17.028
918.943, 20.548
919.425, 26.087
919.908, 33.309
920.390, 41.401
920.872, 51.985
921.354, 61.378
921.836, 69.248
922.318, 74.890
922.800, 70.887
923.282, 56.922
923.765, 51.565
924.247, 72.962
924.729, 99.148
925.211, 100.289
925.693, 83.557
926.175, 67.832
926.657, 51.586
927.139, 47.961
927.622, 67.049
928.104, 95.332
928.586, 103.986
929.068, 92.157
929.550, 86.136
930.032, 92.427
930.514, 102.556
930.996, 109.491
931.479, 112.261
931.961, 109.017
932.443, 95.788
932.925, 85.321
933.407, 82.151
933.889, 81.954
934.371, 80.810
934.853, 78.439
935.335, 77.319
935.818, 77.962
936.300, 77.399
936.782, 67.557
937.264, 57.383
937.746, 61.735
938.228, 82.687
938.710, 99.745
939.192, 104.779
939.674, 104.434
940.157, 100.375
940.639, 93.078
941.121, 86.425
941.603, 79.961
942.085, 77.696
942.567, 85.113
943.049, 96.193
943.531, 102.968
944.013, 106.195
944.496, 108.876
944.978, 110.074
945.460, 113.913
945.942, 123.215
946.424, 133.820
946.906, 138.203
947.388, 136.764
947.870, 132.777
948.352, 124.635
948.835, 119.105
949.317, 129.600
949.799, 146.317
950.281, 154.812
950.763, 146.001
951.245, 139.720
951.727, 137.047
952.209, 140.301
952.692, 152.737
953.174, 174.017
953.656, 186.102
954.138, 188.357
954.620, 188.633
955.102, 187.664
955.584, 191.536
956.066, 211.394
956.549, 246.328
957.031, 268.742
957.513, 263.345
957.995, 261.705
958.477, 276.499
958.959, 301.264
959.441, 310.568
959.923, 306.804
960.406, 306.518
960.888, 317.161
961.370, 334.028
961.852, 357.531
962.334, 383.884
962.816, 406.328
963.298, 422.370
963.780, 435.347
964.263, 444.111
964.745, 451.819
965.227, 462.776
965.709, 476.186
966.191, 489.107
966.673, 500.631
967.155, 509.425
967.637, 513.517
968.119, 515.266
968.602, 515.339
969.084, 512.596
969.566, 517.992
970.048, 534.648
970.530, 550.495
971.012, 558.439
971.494, 560.206
971.976, 559.328
972.458, 556.287
972.941, 553.276
973.423, 552.815
973.905, 551.336
974.387, 547.011
974.869, 540.424
975.351, 533.223
975.833, 525.822
976.315, 515.952
976.797, 503.060
977.280, 487.415
977.762, 467.301
978.244, 445.404
978.726, 426.284
979.208, 410.751
979.690, 399.427
980.172, 398.894
980.654, 397.403
981.136, 385.353
981.619, 361.071
982.101, 343.667
982.583, 333.731
983.065, 323.079
983.547, 299.923
984.029, 276.274
984.511, 270.862
984.994, 280.828
985.476, 282.307
985.958, 258.705
986.440, 238.132
986.922, 227.440
987.404, 223.765
987.886, 220.952
988.368, 218.628
988.850, 212.748
989.333, 199.359
989.815, 188.138
990.297, 192.244
990.779, 201.350
991.261, 201.642
991.743, 181.437
992.225, 171.883
992.707, 176.980
993.190, 184.042
993.672, 180.534
994.154, 169.791
994.636, 162.230
995.118, 158.540
995.600, 159.148
996.082, 168.866
996.564, 178.814
997.046, 181.723
997.529, 179.578
998.011, 185.839
998.493, 203.779
998.975, 212.360
999.457, 199.061
999.939, 181.966
1000.421, 195.255
1000.903, 225.366
1001.385, 244.606
1001.868, 232.147
1002.350, 227.997
1002.832, 250.036
1003.314, 277.804
1003.796, 290.802
1004.278, 287.383
1004.760, 298.930
1005.242, 327.711
1005.724, 351.708
1006.207, 349.198
1006.689, 335.322
1007.171, 322.821
1007.653, 312.858
1008.135, 304.338
1008.617, 302.439
1009.099, 292.107
1009.581, 267.175
1010.064, 233.126
1010.546, 199.136
1011.028, 167.034
1011.510, 141.290
1011.992, 123.937
1012.474, 111.225
1012.956, 106.547
1013.438, 102.234
1013.920, 87.244
1014.403, 51.217
1014.885, 40.654
1015.367, 60.829
1015.849, 82.131
1016.331, 75.760
1016.813, 54.835
1017.295, 36.265
1017.777, 22.207
1018.260, 18.247
1018.742, 39.972
1019.224, 55.865
1019.706, 52.864
1020.188, 38.508
1020.670, 36.302
1021.152, 45.477
1021.634, 55.095
1022.116, 62.342
1022.599, 67.260
1023.081, 68.145
1023.563, 67.483
1024.045, 68.863
1024.527, 76.898
1025.009, 75.618
1025.491, 60.510
1025.973, 47.208
1026.456, 48.789
1026.938, 60.545
1027.420, 74.701
1027.902, 89.365
1028.384, 93.540
1028.866, 67.477
1029.348, 44.637
1029.830, 41.328
1030.313, 51.754
1030.795, 64.085
1031.277, 78.744
1031.759, 82.715
1032.241, 69.327
1032.723, 56.123
1033.205, 71.570
1033.687, 95.292
1034.169, 97.502
1034.651, 59.773
1035.134, 46.085
1035.616, 72.177
1036.098, 102.098
1036.580, 113.379
1037.062, 109.601
1037.544, 103.366
1038.026, 95.954
1038.508, 95.151
1038.991, 113.945
1039.473, 131.621
1039.955, 136.231
1040.437, 131.838
1040.919, 127.722
1041.401, 124.854
1041.883, 121.594
1042.365, 117.252
1042.848, 114.917
1043.330, 119.161
1043.812, 127.102
1044.294, 137.620
1044.776, 151.867
1045.258, 153.898
1045.740, 132.422
1046.222, 111.764
1046.704, 102.277
1047.187, 101.365
1047.669, 101.567
1048.151, 102.726
1048.633, 102.268
1049.115, 101.553
1049.597, 95.527
1050.079, 73.008
1050.561, 47.539
1051.043, 39.072
1051.526, 53.131
1052.008, 62.050
1052.490, 64.439
1052.972, 63.086
1053.454, 59.378
1053.936, 54.111
1054.418, 46.491
1054.900, 37.172
1055.383, 33.424
1055.865, 43.057
1056.347, 50.333
1056.829, 52.381
1057.311, 49.079
1057.793, 35.965
1058.275, 16.845
1058.757, 8.223
1059.240, 19.720
1059.722, 27.512
1060.204, 10.493
1060.686, 11.424
1061.168, 19.974
1061.650, 13.096
1062.132, 7.403
1062.614, 2.752
1063.096, 0.089
1063.578, 3.155
1064.061, 6.222
1064.543, 0.821
1065.025, 13.805
1065.507, 20.386
1065.989, 13.300
1066.471, 5.497
1066.953, 1.857
1067.435, 9.066
1067.918, 20.005
1068.400, 30.940
1068.882, 26.464
1069.364, 3.704
1069.846, 13.666
1070.328, 7.636
1070.810, 2.961
1071.292, 8.799
1071.775, 10.135
1072.257, 7.824
1072.739, 1.772
1073.221, 2.973
1073.703, 4.859
1074.185, 4.129
1074.667, 4.634
1075.149, 13.478
1075.631, 10.337
1076.114, 17.295
1076.596, 32.457
1077.078, 32.931
1077.560, 27.233
1078.042, 18.961
1078.524, 10.474
1079.006, 8.232
1079.488, 11.307
1079.971, 14.648
1080.453, 16.593
1080.935, 18.017
1081.417, 20.569
1081.899, 21.702
1082.381, 14.774
1082.863, 1.195
1083.345, 5.603
1083.828, 3.057
1084.310, 2.211
1084.792, 6.505
1085.274, 10.262
1085.756, 15.043
1086.238, 20.599
1086.720, 18.299
1087.202, 6.194
1087.684, 2.323
1088.167, 1.501
1088.649, 4.812
1089.131, 15.495
1089.613, 26.516
1090.095, 30.607
1090.577, 19.281
1091.059, 14.907
1091.541, 22.176
1092.023, 29.800
1092.506, 27.405
1092.988, 18.395
1093.470, 14.361
1093.952, 14.868
1094.434, 16.365
1094.916, 19.850
1095.398, 20.580
1095.880, 15.526
1096.363, 7.501
1096.845, 1.019
1097.327, 9.870
1097.809, 7.627
1098.291, 8.368
1098.773, 23.469
1099.255, 23.979
1099.737, 19.489
1100.219, 17.844
1100.702, 19.370
1101.184, 19.755
1101.666, 18.809
1102.148, 17.962
1102.630, 18.213
1103.112, 17.677
1103.594, 10.079
1104.076, 1.026
1104.558, 0.441
1105.041, 16.157
1105.523, 25.413
1106.005, 25.159
1106.487, 21.177
1106.969, 14.720
1107.451, 8.010
1107.933, 11.655
1108.415, 23.042
1108.898, 31.559
1109.380, 31.527
1109.862, 28.802
1110.344, 21.727
1110.826, 15.134
1111.308, 15.596
1111.790, 22.938
1112.272, 32.742
1112.755, 42.307
1113.237, 44.886
1113.719, 23.972
1114.201, 3.773
1114.683, 2.367
1115.165, 17.033
1115.647, 33.695
1116.129, 52.822
1116.611, 63.013
1117.094, 60.036
1117.576, 53.200
1118.058, 52.490
1118.540, 53.908
1119.022, 53.821
1119.504, 52.913
1119.986, 46.997
1120.468, 31.794
1120.950, 23.228
1121.433, 32.142
1121.915, 48.344
1122.397, 52.059
1122.879, 46.683
1123.361, 39.587
1123.843, 26.903
1124.325, 24.838
1124.807, 42.254
1125.290, 60.256
1125.772, 62.348
1126.254, 51.436
1126.736, 40.733
1127.218, 32.522
1127.700, 31.566
1128.182, 51.406
1128.664, 66.664
1129.146, 63.531
1129.629, 51.383
1130.111, 39.836
1130.593, 29.266
1131.075, 38.206
1131.557, 69.531
1132.039, 96.893
1132.521, 93.873
1133.003, 83.203
1133.485, 85.176
1133.968, 96.951
1134.450, 96.410
1134.932, 81.733
1135.414, 68.484
1135.896, 60.554
1136.378, 55.347
1136.860, 51.652
1137.342, 48.179
1137.825, 42.216
1138.307, 31.893
1138.789, 31.027
1139.271, 43.343
1139.753, 53.199
1140.235, 52.193
1140.717, 45.820
1141.199, 41.237
1141.682, 39.154
1142.164, 40.302
1142.646, 46.518
1143.128, 52.433
1143.610, 59.465
1144.092, 62.906
1144.574, 57.725
1145.056, 47.227
1145.538, 40.766
1146.021, 38.089
1146.503, 36.188
1146.985, 33.335
1147.467, 30.873
1147.949, 28.162
1148.431, 27.067
1148.913, 31.823
1149.395, 40.848
1149.878, 44.980
1150.360, 44.286
1150.842, 41.106
1151.324, 31.319
1151.806, 25.479
1152.288, 31.676
1152.770, 43.567
1153.252, 47.280
1153.734, 43.088
1154.217, 35.667
1154.699, 24.605
1155.181, 17.541
1155.663, 25.149
1156.145, 37.992
1156.627, 49.957
1157.109, 59.977
1157.591, 60.058
1158.073, 49.752
1158.556, 37.148
1159.038, 22.787
1159.520, 13.100
1160.002, 17.806
1160.484, 28.861
1160.966, 38.088
1161.448, 45.163
1161.930, 45.458
1162.413, 37.946
1162.895, 31.935
1163.377, 31.443
1163.859, 34.489
1164.341, 42.967
1164.823, 52.285
1165.305, 54.121
1165.787, 44.093
1166.270, 30.857
1166.752, 11.532
1167.234, 0.209
1167.716, 17.559
1168.198, 42.892
1168.680, 33.082
1169.162, 0.119
1169.644, 17.914
1170.126, 3.258
1170.609, 21.011
1171.091, 33.975
1171.573, 38.771
1172.055, 24.575
1172.537, 1.913
1173.019, 8.637
1173.501, 6.952
1173.983, 1.059
1174.465, 12.131
1174.948, 20.779
1175.430, 20.850
1175.912, 18.467
1176.394, 26.714
1176.876, 39.669
1177.358, 39.195
1177.840, 22.824
1178.322, 9.298
1178.805, 5.752
1179.287, 7.473
1179.769, 15.231
1180.251, 24.924
1180.733, 25.983
1181.215, 20.371
1181.697, 13.448
1182.179, 5.128
1182.661, 2.665
1183.144, 17.386
1183.626, 29.909
1184.108, 29.795
1184.590, 20.271
1185.072, 14.245
1185.554, 11.281
1186.036, 9.784
1186.518, 9.770
1187.000, 9.771
1187.483, 9.297
1187.965, 8.333
1188.447, 5.989
1188.929, 2.693
1189.411, 5.719
1189.893, 13.816
1190.375, 17.796
1190.857, 7.230
1191.340, 0.219
1191.822, 10.590
1192.304, 25.266
1192.786, 32.099
1193.268, 30.979
1193.750, 24.909
1194.232, 14.471
1194.714, 6.847
1195.197, 7.141
1195.679, 10.583
1196.161, 18.698
1196.643, 26.036
1197.125, 23.666
1197.607, 11.135
1198.089, 4.889
1198.571, 5.835
1199.053, 8.367
1199.536, 11.331
1200.018, 12.418
1200.500, 5.159
1200.982, 3.105
1201.464, 4.307
1201.946, 28.292
1202.428, 43.195
1202.910, 45.786
1203.392, 42.116
1203.875, 31.400
1204.357, 21.104
1204.839, 18.793
1205.321, 20.740
1205.803, 13.214
1206.285, 4.530
1206.767, 8.587
1207.249, 6.642
1207.732, 24.296
1208.214, 32.520
1208.696, 35.668
1209.178, 35.276
1209.660, 32.680
1210.142, 34.293
1210.624, 40.371
1211.106, 36.998
1211.589, 17.858
1212.071, 1.553
1212.553, 8.827
1213.035, 22.619
1213.517, 27.800
1213.999, 25.145
1214.481, 25.064
1214.963, 27.589
1215.445, 25.234
1215.927, 13.258
1216.410, 2.276
1216.892, 2.725
1217.374, 7.468
1217.856, 10.002
1218.338, 10.205
1218.820, 10.547
1219.302, 11.033
1219.784, 9.619
1220.267, 3.372
1220.749, 0.482
1221.231, 6.393
1221.713, 15.695
1222.195, 17.626
1222.677, 11.456
1223.159, 13.024
1223.641, 22.203
1224.124, 30.580
1224.606, 34.104
1225.088, 34.748
1225.570, 32.267
1226.052, 29.275
1226.534, 29.820
1227.016, 34.461
1227.498, 30.053
1227.980, 19.337
1228.463, 12.854
1228.945, 6.666
1229.427, 18.488
1229.909, 7.073
1230.391, 22.259
1230.873, 30.351
1231.355, 32.412
1231.837, 10.321
1232.320, 20.129
1232.802, 17.288
1233.284, 20.757
1233.766, 34.432
1234.248, 38.549
1234.730, 36.772
1235.212, 33.248
1235.694, 27.999
1236.177, 22.122
1236.659, 15.882
1237.141, 13.197
1237.623, 20.047
1238.105, 27.033
1238.587, 30.627
1239.069, 30.744
1239.551, 24.012
1240.033, 12.002
1240.516, 12.785
1240.998, 27.013
1241.480, 37.381
1241.962, 29.608
1242.444, 21.179
1242.926, 20.115
1243.408, 21.646
1243.890, 17.872
1244.372, 9.969
1244.855, 3.707
1245.337, 0.652
1245.819, 0.962
1246.301, 7.386
1246.783, 15.959
1247.265, 22.719
1247.747, 27.687
1248.229, 31.442
1248.712, 33.303
1249.194, 29.946
1249.676, 21.195
1250.158, 14.791
1250.640, 14.275
1251.122, 17.713
1251.604, 26.241
1252.086, 35.485
1252.568, 34.645
1253.051, 27.800
1253.533, 27.061
1254.015, 33.876
1254.497, 32.309
1254.979, 12.766
1255.461, 1.941
1255.943, 5.684
1256.425, 2.625
1256.907, 2.209
1257.390, 7.959
1257.872, 14.462
1258.354, 21.492
1258.836, 24.807
1259.318, 22.174
1259.800, 19.715
1260.282, 19.327
1260.764, 19.332
1261.247, 16.648
1261.729, 13.073
1262.211, 11.021
1262.693, 10.511
1263.175, 15.882
1263.657, 31.414
1264.139, 35.929
1264.621, 19.771
1265.104, 0.650
1265.586, 0.101
1266.068, 8.558
1266.550, 18.788
1267.032, 29.455
1267.514, 28.880
1267.996, 14.760
1268.478, 6.845
1268.960, 13.071
1269.443, 21.115
1269.925, 17.737
1270.407, 10.670
1270.889, 7.118
1271.371, 6.968
1271.853, 8.857
1272.335, 12.674
1272.817, 16.240
1273.299, 18.566
1273.782, 20.984
1274.264, 26.247
1274.746, 31.685
1275.228, 35.307
1275.710, 36.868
1276.192, 34.888
1276.674, 29.564
1277.156, 20.463
1277.639, 5.196
1278.121, 4.802
1278.603, 1.040
1279.085, 8.775
1279.567, 15.343
1280.049, 19.615
1280.531, 13.278
1281.013, 1.092
1281.495, 1.832
1281.978, 25.934
1282.460, 40.076
1282.942, 25.121
1283.424, 11.566
1283.906, 13.414
1284.388, 23.516
1284.870, 20.379
1285.352, 10.740
1285.834, 11.524
1286.317, 31.189
1286.799, 38.630
1287.281, 26.976
1287.763, 16.380
1288.245, 16.349
1288.727, 20.235
1289.209, 17.582
1289.691, 11.736
1290.174, 4.948
1290.656, 1.387
1291.138, 3.156
1291.620, 10.216
1292.102, 15.038
1292.584, 12.293
1293.066, 11.265
1293.548, 32.475
1294.031, 55.325
1294.513, 52.735
1294.995, 25.512
1295.477, 9.031
1295.959, 3.046
1296.441, 2.893
1296.923, 11.291
1297.405, 17.551
1297.887, 6.059
1298.370, 1.449
1298.852, 7.714
1299.334, 25.130
1299.816, 35.071
1300.298, 26.239
1300.780, 19.555
1301.262, 11.968
1301.744, 0.000
##END=



