##NAMES=Nabokoite
##RRUFFID=R070062
##IDEAL CHEMISTRY=Cu^2+^_7_Te^4+^O_4_(SO_4_)_5_&#183;KCl
##LOCALITY=Tolbachik Volcano, Kamchatka, Russia
##OWNER=RRUFF
##SOURCE=Michael Scott
##DESCRIPTION=Brown thin tabular plates, co-type material
##STATUS=The identification of this mineral is confirmed by single-crystal X-ray diffraction and chemical analysis.
##URL=rruff.info/R070062
##MEASURED CHEMISTRY=K_1.00_(Cu^2+^_6.78_Zn_0.22_)_Σ=7_(Te^4+^_0.72_V^5+^_0.14_Bi^3+^_0.05_Fe^3+^_0.05_V^3+^_0.04_)_Σ=1_O_4_(S_1.00_O_4_)_5_Cl_1.00_; V^5+^ and V^3+^ splitted by charge balance
150.1819, 0.0000000E+00
150.6640, 6.671875
151.1461, 15.52344
151.6282, 34.56836
152.1104, 90.86816
152.5925, 131.2705
153.0746, 112.2803
153.5567, 52.18359
154.0388, 4.908203
154.5209, 36.74805
155.0031, 60.22461
155.4852, 50.46680
155.9673, 50.09082
156.4494, 48.02930
156.9315, 42.50195
157.4136, 33.39551
157.8958, 20.11719
158.3779, 16.57520
158.8600, 50.31055
159.3421, 55.60547
159.8242, 3.026367
160.3063, 60.75000
160.7885, 120.7666
161.2706, 176.5840
161.7527, 223.3896
162.2348, 253.1016
162.7169, 273.5293
163.1990, 296.2334
163.6811, 334.0693
164.1633, 370.3164
164.6454, 390.8926
165.1275, 387.6523
165.6096, 388.3652
166.0917, 410.3740
166.5738, 448.1777
167.0560, 488.8926
167.5381, 529.3857
168.0202, 568.3555
168.5023, 603.5371
168.9844, 632.4033
169.4665, 661.4209
169.9487, 692.4756
170.4308, 726.6162
170.9129, 767.9902
171.3950, 832.4170
171.8771, 902.4072
172.3592, 953.4561
172.8414, 959.8711
173.3235, 959.4209
173.8056, 996.4941
174.2877, 1068.817
174.7698, 1138.577
175.2519, 1172.144
175.7341, 1182.383
176.2162, 1195.055
176.6983, 1209.375
177.1804, 1235.592
177.6625, 1293.841
178.1446, 1385.331
178.6267, 1486.700
179.1089, 1577.100
179.5910, 1658.205
180.0731, 1738.978
180.5552, 1819.825
181.0373, 1902.800
181.5194, 1990.677
182.0016, 2084.963
182.4837, 2180.604
182.9658, 2272.438
183.4479, 2360.650
183.9300, 2441.114
184.4121, 2509.968
184.8943, 2569.522
185.3764, 2626.848
185.8585, 2680.098
186.3406, 2736.460
186.8227, 2808.798
187.3048, 2896.313
187.7870, 2988.305
188.2691, 3082.742
188.7512, 3178.259
189.2333, 3256.628
189.7154, 3312.155
190.1975, 3353.594
190.6796, 3401.829
191.1618, 3457.742
191.6439, 3506.281
192.1260, 3529.144
192.6081, 3527.982
193.0902, 3534.013
193.5723, 3557.280
194.0545, 3590.954
194.5366, 3609.698
195.0187, 3611.512
195.5008, 3608.626
195.9829, 3615.100
196.4650, 3631.683
196.9472, 3640.335
197.4293, 3634.279
197.9114, 3615.550
198.3935, 3597.634
198.8756, 3578.993
199.3577, 3565.630
199.8399, 3569.881
200.3220, 3595.427
200.8041, 3610.139
201.2862, 3596.999
201.7683, 3557.117
202.2504, 3539.313
202.7325, 3549.150
203.2147, 3571.993
203.6968, 3588.592
204.1789, 3599.105
204.6610, 3602.460
205.1431, 3589.911
205.6252, 3556.130
206.1074, 3561.512
206.5895, 3620.155
207.0716, 3701.694
207.5537, 3744.411
208.0358, 3732.469
208.5179, 3726.432
209.0001, 3757.241
209.4822, 3834.887
209.9643, 3898.133
210.4464, 3864.636
210.9285, 3991.411
211.4106, 4081.448
211.8928, 4136.285
212.3749, 4052.264
212.8570, 4147.401
213.3391, 4170.916
213.8212, 4191.704
214.3033, 4239.208
214.7855, 4381.933
215.2676, 4478.107
215.7497, 4529.713
216.2318, 4431.703
216.7139, 4501.126
217.1960, 4488.906
217.6781, 4466.765
218.1603, 4534.820
218.6424, 4408.973
219.1245, 4455.728
219.6066, 4419.713
220.0887, 4407.205
220.5708, 4328.175
221.0530, 4217.003
221.5351, 4129.324
222.0172, 4088.232
222.4993, 4086.291
222.9814, 4060.112
223.4635, 4002.314
223.9457, 3929.495
224.4278, 3850.345
224.9099, 3755.132
225.3920, 3676.824
225.8741, 3629.541
226.3562, 3611.549
226.8384, 3574.823
227.3205, 3524.723
227.8026, 3453.312
228.2847, 3340.136
228.7668, 3158.504
229.2489, 2992.494
229.7310, 2865.854
230.2132, 2774.208
230.6953, 2674.956
231.1774, 2557.669
231.6595, 2441.145
232.1416, 2358.092
232.6237, 2328.471
233.1059, 2281.587
233.5880, 2193.481
234.0701, 2059.248
234.5522, 1946.664
235.0343, 1868.033
235.5164, 1800.884
235.9986, 1717.123
236.4807, 1596.345
236.9628, 1493.866
237.4449, 1429.385
237.9270, 1412.516
238.4091, 1375.604
238.8913, 1305.227
239.3734, 1225.540
239.8555, 1170.196
240.3376, 1154.149
240.8197, 1133.101
241.3018, 1094.112
241.7840, 1033.272
242.2661, 979.4111
242.7482, 928.3545
243.2303, 883.8369
243.7124, 800.8896
244.1945, 849.8691
244.6767, 869.0791
245.1588, 860.1689
245.6409, 739.1250
246.1230, 763.1230
246.6051, 729.8672
247.0872, 696.1074
247.5694, 744.5381
248.0515, 643.6719
248.5336, 689.1484
249.0157, 674.4453
249.4978, 685.9990
249.9799, 638.8652
250.4621, 612.5508
250.9442, 594.3057
251.4263, 587.5352
251.9084, 603.7773
252.3905, 615.3438
252.8726, 607.6426
253.3548, 567.0811
253.8369, 542.8779
254.3190, 543.1875
254.8011, 556.6875
255.2832, 560.1016
255.7653, 549.9443
256.2474, 536.2646
256.7296, 521.5967
257.2117, 504.1230
257.6938, 493.8369
258.1759, 493.8467
258.6580, 499.8311
259.1401, 503.0010
259.6223, 503.6279
260.1044, 502.5850
260.5865, 497.8428
261.0686, 484.9336
261.5507, 480.3154
262.0328, 488.9141
262.5150, 502.0703
262.9971, 500.9609
263.4792, 484.0293
263.9613, 457.9531
264.4434, 420.2510
264.9255, 362.0898
265.4077, 325.5020
265.8898, 317.3760
266.3719, 326.6553
266.8540, 331.5088
267.3361, 332.7852
267.8182, 326.5479
268.3004, 307.9463
268.7825, 272.2334
269.2646, 247.5342
269.7467, 236.1982
270.2288, 233.7441
270.7109, 232.1953
271.1931, 232.0039
271.6752, 231.1338
272.1573, 228.0986
272.6394, 222.5488
273.1215, 220.8730
273.6036, 227.9385
274.0857, 232.8418
274.5678, 207.2842
275.0500, 143.0430
275.5321, 87.34668
276.0142, 66.78027
276.4963, 84.86719
276.9784, 93.32715
277.4605, 88.08008
277.9427, 77.10059
278.4248, 77.08496
278.9069, 90.01172
279.3890, 99.82422
279.8711, 98.29590
280.3532, 85.94141
280.8354, 71.98340
281.3175, 54.41602
281.7996, 35.75391
282.2817, 19.37891
282.7638, 5.498047
283.2459, 3.701172
283.7281, 6.450195
284.2102, 3.067383
284.6923, 0.9980470
285.1744, 63.04492
285.6565, 5.857422
286.1386, 45.05566
286.6208, 56.10254
287.1029, 45.12793
287.5850, 1.556641
288.0671, 16.12402
288.5492, 33.10254
289.0313, 30.77344
289.5135, 54.28320
289.9956, 8.453125
290.4777, 12.47656
290.9598, 43.64746
291.4419, 16.23828
291.9240, 19.49512
292.4062, 18.69922
292.8883, 3.347656
293.3704, 15.35742
293.8525, 23.35059
294.3346, 22.17676
294.8167, 20.22559
295.2989, 20.43555
295.7810, 22.66113
296.2631, 28.86523
296.7452, 40.09082
297.2273, 47.54785
297.7094, 36.00293
298.1916, 11.60059
298.6737, 5.064453
299.1558, 3.635742
299.6379, 22.10840
300.1200, 24.57715
300.6021, 9.991211
301.0842, 8.910156
301.5663, 25.00879
302.0485, 36.78711
302.5306, 40.95312
303.0127, 34.03027
303.4948, 19.99805
303.9769, 1.523438
304.4590, 30.78223
304.9412, 51.73047
305.4233, 45.84473
305.9054, 24.02344
306.3875, 3.916992
306.8696, 8.922852
307.3517, 16.43750
307.8339, 21.32812
308.3160, 23.37793
308.7981, 18.31055
309.2802, 8.671875
309.7623, 40.86328
310.2444, 57.47363
310.7266, 38.38477
311.2087, 12.15625
311.6908, 4.074219
312.1729, 11.32129
312.6550, 17.79492
313.1371, 31.61035
313.6193, 45.19336
314.1014, 51.14648
314.5835, 43.24023
315.0656, 31.57422
315.5477, 19.60742
316.0298, 7.321289
316.5120, 5.941406
316.9941, 28.18066
317.4762, 46.95703
317.9583, 53.43652
318.4404, 42.09668
318.9225, 22.61133
319.4047, 13.88281
319.8868, 59.64258
320.3689, 86.74219
320.8510, 67.34180
321.3331, 39.96777
321.8152, 24.88867
322.2974, 39.69727
322.7795, 51.65137
323.2616, 52.46484
323.7437, 46.88086
324.2258, 45.70898
324.7079, 56.45605
325.1901, 67.24316
325.6721, 72.72168
326.1543, 66.23535
326.6364, 65.78223
327.1185, 75.16895
327.6006, 90.65625
328.0827, 105.3125
328.5648, 126.3838
329.0470, 139.0957
329.5291, 135.8789
330.0112, 105.4795
330.4933, 92.38770
330.9754, 108.7822
331.4576, 136.4785
331.9397, 148.7207
332.4218, 137.6553
332.9039, 124.1924
333.3860, 111.4180
333.8681, 97.76562
334.3503, 91.38086
334.8324, 94.95605
335.3145, 103.0967
335.7966, 111.9551
336.2787, 126.1855
336.7608, 126.5576
337.2430, 100.2588
337.7251, 49.66504
338.2072, 30.70215
338.6893, 52.63770
339.1714, 86.65332
339.6535, 102.7393
340.1357, 97.89844
340.6178, 101.3506
341.0999, 124.4082
341.5820, 159.4404
342.0641, 172.2598
342.5462, 159.4697
343.0284, 138.9258
343.5105, 135.6250
343.9926, 145.7422
344.4747, 156.2451
344.9568, 164.5928
345.4389, 171.3594
345.9211, 164.8994
346.4032, 145.1885
346.8853, 123.5771
347.3674, 96.19043
347.8495, 72.23633
348.3316, 60.74219
348.8138, 65.37012
349.2959, 78.08789
349.7780, 91.87109
350.2601, 106.5381
350.7422, 117.7939
351.2243, 118.6426
351.7064, 114.8809
352.1885, 118.7246
352.6707, 133.2051
353.1528, 146.8984
353.6349, 143.6982
354.1170, 130.9492
354.5991, 125.4395
355.0812, 153.0898
355.5634, 182.8154
356.0455, 178.7354
356.5276, 135.7090
357.0097, 95.80371
357.4918, 86.85742
357.9739, 98.11523
358.4561, 115.0801
358.9382, 146.7061
359.4203, 169.1104
359.9024, 161.5469
360.3845, 125.7676
360.8666, 100.3105
361.3488, 103.9268
361.8309, 122.2900
362.3130, 142.9922
362.7951, 179.7412
363.2772, 203.9961
363.7593, 202.9814
364.2415, 181.3662
364.7236, 163.7646
365.2057, 158.9316
365.6878, 155.8271
366.1699, 148.2891
366.6520, 125.6104
367.1342, 110.5439
367.6163, 106.5420
368.0984, 111.6553
368.5805, 120.6748
369.0626, 150.9746
369.5447, 167.7617
370.0269, 153.9502
370.5090, 87.02539
370.9911, 49.08008
371.4732, 55.12695
371.9553, 80.65527
372.4374, 85.45020
372.9196, 54.08008
373.4017, 32.78125
373.8838, 40.74219
374.3659, 81.37793
374.8480, 93.70703
375.3301, 69.39746
375.8123, 32.85156
376.2944, 11.37207
376.7765, 8.304688
377.2586, 3.114258
377.7407, 15.74219
378.2228, 41.87305
378.7049, 36.02441
379.1870, 6.467773
379.6692, 47.69727
380.1513, 49.71484
380.6334, 17.75586
381.1155, 1.791992
381.5976, 1.689453
382.0797, 17.06543
382.5619, 23.51270
383.0440, 21.87109
383.5261, 22.80469
384.0082, 40.42480
384.4903, 64.40332
384.9724, 69.79785
385.4546, 49.51074
385.9367, 27.11816
386.4188, 30.87109
386.9009, 52.85547
387.3830, 73.41504
387.8651, 89.50586
388.3473, 95.21484
388.8294, 78.56836
389.3115, 37.57715
389.7936, 1.211914
390.2757, 14.97070
390.7578, 14.37207
391.2400, 1.295898
391.7221, 38.13867
392.2042, 75.95117
392.6863, 97.53711
393.1684, 104.1025
393.6505, 108.4707
394.1327, 117.2197
394.6148, 124.1504
395.0969, 124.5635
395.5790, 115.7803
396.0611, 101.7354
396.5432, 78.97168
397.0254, 51.73926
397.5075, 33.56445
397.9896, 31.22168
398.4717, 33.42969
398.9538, 38.24023
399.4359, 54.49121
399.9181, 51.33203
400.4002, 12.94434
400.8823, 37.50977
401.3644, 64.80176
401.8465, 60.38672
402.3286, 47.78320
402.8108, 32.77637
403.2928, 15.73242
403.7750, 11.53027
404.2571, 57.23145
404.7392, 98.58105
405.2213, 111.6670
405.7034, 93.21680
406.1855, 64.77539
406.6677, 24.72461
407.1498, 19.06641
407.6319, 41.23828
408.1140, 40.80176
408.5961, 28.84570
409.0782, 6.046875
409.5604, 24.22266
410.0425, 41.45996
410.5246, 41.77344
411.0067, 33.58203
411.4888, 24.73438
411.9709, 16.48438
412.4531, 14.62109
412.9352, 20.91699
413.4173, 36.08789
413.8994, 69.89355
414.3815, 124.6006
414.8636, 165.5928
415.3458, 151.7842
415.8279, 109.1592
416.3100, 77.18262
416.7921, 76.73242
417.2742, 87.28906
417.7563, 101.4854
418.2385, 117.7568
418.7206, 125.5215
419.2027, 113.7529
419.6848, 95.62207
420.1669, 79.49707
420.6490, 59.67090
421.1312, 53.58203
421.6133, 74.43457
422.0954, 112.3789
422.5775, 144.2197
423.0596, 164.3877
423.5417, 179.0625
424.0239, 189.0146
424.5060, 192.8447
424.9881, 196.9609
425.4702, 193.6494
425.9523, 195.4014
426.4344, 218.8281
426.9166, 281.3418
427.3987, 330.5234
427.8808, 352.6494
428.3629, 350.7939
428.8450, 357.1445
429.3271, 370.6406
429.8092, 395.2139
430.2914, 434.8936
430.7735, 490.7549
431.2556, 553.3633
431.7377, 625.1602
432.2198, 699.2529
432.7019, 755.9004
433.1841, 795.3867
433.6662, 839.3174
434.1483, 903.3262
434.6304, 981.1445
435.1125, 1050.401
435.5946, 1109.183
436.0768, 1164.463
436.5589, 1225.323
437.0410, 1292.688
437.5231, 1361.081
438.0052, 1432.298
438.4873, 1501.747
438.9695, 1568.253
439.4516, 1630.920
439.9337, 1677.879
440.4158, 1698.420
440.8979, 1701.686
441.3800, 1692.323
441.8622, 1658.821
442.3443, 1638.384
442.8264, 1654.259
443.3085, 1693.497
443.7906, 1730.625
444.2727, 1758.646
444.7549, 1784.108
445.2370, 1809.370
445.7191, 1835.056
446.2012, 1858.784
446.6833, 1881.444
447.1654, 1901.467
447.6476, 1917.028
448.1297, 1923.605
448.6118, 1932.565
449.0939, 1950.832
449.5760, 1973.654
450.0581, 1979.233
450.5403, 1970.064
451.0224, 1938.341
451.5045, 1870.708
451.9866, 1760.511
452.4687, 1675.113
452.9508, 1623.224
453.4330, 1585.439
453.9151, 1532.734
454.3972, 1464.857
454.8793, 1396.655
455.3614, 1330.258
455.8435, 1267.334
456.3256, 1214.206
456.8077, 1170.480
457.2899, 1132.218
457.7720, 1092.798
458.2541, 1056.541
458.7362, 962.1631
459.2183, 983.8545
459.7004, 987.2939
460.1826, 973.9150
460.6647, 891.2666
461.1468, 900.0176
461.6289, 872.9805
462.1110, 844.4766
462.5931, 866.5059
463.0753, 795.4424
463.5574, 816.7061
464.0395, 801.1367
464.5216, 802.4453
465.0037, 766.7227
465.4858, 782.6621
465.9680, 778.6406
466.4501, 779.8018
466.9322, 785.0107
467.4143, 783.8848
467.8964, 779.7236
468.3785, 765.2783
468.8607, 731.9883
469.3428, 659.3428
469.8249, 625.9736
470.3070, 648.2588
470.7891, 694.1289
471.2712, 709.0215
471.7534, 686.0693
472.2355, 671.0498
472.7176, 685.1074
473.1997, 719.6602
473.6818, 723.9482
474.1639, 694.4014
474.6461, 668.9502
475.1282, 692.8135
475.6103, 750.4102
476.0924, 786.1953
476.5745, 785.4277
477.0566, 771.4277
477.5388, 771.9414
478.0209, 782.7656
478.5030, 790.9648
478.9851, 788.4912
479.4672, 781.4863
479.9493, 772.8584
480.4315, 762.3887
480.9136, 757.6602
481.3957, 762.4561
481.8778, 775.6445
482.3599, 795.6631
482.8420, 837.5459
483.3241, 868.2568
483.8062, 874.7959
484.2884, 862.2383
484.7705, 851.7285
485.2526, 841.6582
485.7347, 839.9707
486.2168, 851.0605
486.6989, 878.2227
487.1811, 900.2266
487.6632, 922.6826
488.1453, 935.3076
488.6274, 901.4043
489.1095, 941.7168
489.5916, 964.0771
490.0738, 968.6104
490.5559, 900.3125
491.0380, 920.6670
491.5201, 904.7402
492.0022, 888.6611
492.4843, 925.0449
492.9665, 868.5967
493.4486, 903.3350
493.9307, 899.3672
494.4128, 911.7588
494.8949, 864.6650
495.3770, 879.8564
495.8592, 899.2236
496.3413, 927.1045
496.8234, 951.1836
497.3055, 953.7891
497.7876, 939.0996
498.2697, 933.8848
498.7519, 966.0840
499.2340, 1003.509
499.7161, 1021.288
500.1982, 1005.804
500.6803, 992.4043
501.1624, 986.8389
501.6446, 988.8379
502.1267, 998.3447
502.6088, 1035.345
503.0909, 1055.959
503.5730, 1043.780
504.0551, 1000.145
504.5373, 979.5361
505.0194, 989.7129
505.5015, 1010.295
505.9836, 1031.889
506.4657, 1056.709
506.9478, 1064.578
507.4299, 1051.820
507.9120, 1026.000
508.3942, 993.0049
508.8763, 953.8965
509.3584, 929.5225
509.8405, 937.5547
510.3226, 962.6631
510.8047, 973.5264
511.2869, 970.5059
511.7690, 960.2920
512.2511, 951.2139
512.7332, 936.9209
513.2153, 904.8242
513.6974, 841.9551
514.1796, 786.9404
514.6617, 778.6221
515.1438, 792.6602
515.6259, 785.6152
516.1080, 716.4062
516.5901, 647.6719
517.0723, 603.2959
517.5544, 584.7217
518.0365, 570.6143
518.5186, 561.9980
519.0007, 554.5615
519.4828, 546.5127
519.9650, 541.2100
520.4471, 528.2842
520.9292, 505.4053
521.4113, 476.3438
521.8934, 447.9092
522.3755, 420.7803
522.8577, 391.4736
523.3398, 355.0605
523.8219, 315.2812
524.3040, 294.2461
524.7861, 293.1973
525.2682, 293.5654
525.7504, 280.6016
526.2325, 257.3867
526.7146, 229.8672
527.1967, 196.9268
527.6788, 166.3740
528.1609, 144.5479
528.6431, 130.6514
529.1252, 123.1025
529.6073, 131.9717
530.0894, 137.8584
530.5715, 128.6523
531.0536, 104.8770
531.5358, 76.63965
532.0179, 36.00000
532.5000, 0.2421880
532.9821, 21.54883
533.4642, 15.70020
533.9464, 14.12207
534.4285, 19.91504
534.9106, 29.29004
535.3927, 37.03320
535.8748, 42.45508
536.3569, 47.77832
536.8391, 53.88770
537.3212, 60.35352
537.8033, 63.55762
538.2854, 62.80273
538.7675, 63.05566
539.2496, 70.26953
539.7318, 82.26562
540.2139, 87.73828
540.6960, 85.45020
541.1781, 78.15234
541.6602, 62.79590
542.1423, 44.88770
542.6245, 37.94629
543.1066, 57.53906
543.5887, 79.40527
544.0708, 81.40332
544.5529, 68.12500
545.0350, 57.66211
545.5172, 60.76855
545.9993, 67.23828
546.4813, 74.38184
546.9634, 85.94043
547.4456, 81.91113
547.9277, 33.27051
548.4098, 18.46484
548.8919, 32.31348
549.3740, 24.79395
549.8561, 61.83984
550.3383, 67.82324
550.8204, 48.18359
551.3025, 11.82324
551.7846, 49.54590
552.2667, 91.93945
552.7488, 80.50879
553.2310, 26.15332
553.7131, 16.19531
554.1952, 53.43262
554.6773, 101.2363
555.1594, 130.6084
555.6415, 144.3555
556.1237, 145.3408
556.6058, 126.4639
557.0879, 113.1445
557.5700, 139.7314
558.0521, 188.1689
558.5342, 220.7148
559.0164, 212.6191
559.4985, 192.1719
559.9806, 160.2939
560.4627, 118.7559
560.9448, 112.1963
561.4269, 184.7959
561.9091, 268.8848
562.3912, 327.4766
562.8733, 351.7363
563.3554, 367.4473
563.8375, 370.3291
564.3196, 368.7207
564.8018, 363.8535
565.2839, 325.9883
565.7660, 385.7744
566.2481, 427.0225
566.7302, 450.7412
567.2123, 404.3535
567.6945, 448.5459
568.1766, 456.4717
568.6587, 462.9307
569.1408, 519.9316
569.6229, 483.8555
570.1050, 540.1045
570.5872, 559.5459
571.0693, 595.8613
571.5514, 595.6777
572.0335, 606.8105
572.5156, 635.6582
572.9977, 670.7383
573.4799, 672.9941
573.9620, 657.6855
574.4441, 661.6719
574.9262, 726.2939
575.4083, 773.9199
575.8904, 776.1309
576.3726, 731.3301
576.8547, 710.0039
577.3368, 718.2842
577.8189, 739.3105
578.3010, 766.0430
578.7831, 799.6641
579.2653, 816.9404
579.7474, 811.7529
580.2295, 801.9336
580.7116, 816.5215
581.1937, 850.0469
581.6758, 876.8691
582.1580, 886.0977
582.6401, 886.1162
583.1222, 883.1328
583.6043, 878.6982
584.0864, 878.9805
584.5685, 893.5918
585.0507, 909.5830
585.5328, 916.0918
586.0149, 910.2197
586.4970, 909.4180
586.9791, 936.6748
587.4612, 960.2529
587.9434, 951.7480
588.4255, 868.5850
588.9076, 822.3418
589.3897, 831.6279
589.8718, 871.1953
590.3539, 888.2393
590.8361, 876.7754
591.3182, 870.4199
591.8003, 879.9717
592.2824, 902.1113
592.7645, 927.3457
593.2466, 955.8828
593.7288, 979.9355
594.2109, 983.2080
594.6930, 980.8770
595.1751, 1007.416
595.6572, 1070.971
596.1393, 1127.640
596.6215, 1134.562
597.1036, 1117.840
597.5857, 1108.978
598.0678, 1113.575
598.5499, 1132.963
599.0320, 1177.262
599.5141, 1237.593
599.9962, 1289.844
600.4783, 1323.322
600.9604, 1356.177
601.4426, 1394.143
601.9247, 1438.342
602.4068, 1481.866
602.8889, 1527.719
603.3710, 1564.490
603.8531, 1577.268
604.3353, 1568.545
604.8174, 1578.229
605.2995, 1614.000
605.7816, 1652.918
606.2637, 1660.357
606.7458, 1645.536
607.2280, 1634.771
607.7101, 1639.779
608.1922, 1648.367
608.6743, 1655.014
609.1564, 1658.995
609.6385, 1655.312
610.1207, 1635.374
610.6028, 1613.065
611.0849, 1594.545
611.5670, 1580.572
612.0491, 1563.893
612.5313, 1538.006
613.0134, 1515.563
613.4955, 1504.837
613.9776, 1510.508
614.4597, 1511.706
614.9418, 1507.926
615.4240, 1500.131
615.9061, 1482.538
616.3882, 1457.580
616.8703, 1454.800
617.3524, 1490.963
617.8345, 1539.129
618.3167, 1557.512
618.7988, 1552.695
619.2809, 1546.926
619.7630, 1554.331
620.2451, 1563.742
620.7272, 1564.871
621.2094, 1558.029
621.6915, 1555.593
622.1736, 1569.533
622.6557, 1583.555
623.1378, 1585.987
623.6199, 1564.485
624.1021, 1559.806
624.5842, 1584.893
625.0663, 1614.379
625.5484, 1613.017
626.0305, 1569.296
626.5126, 1560.450
626.9948, 1614.321
627.4769, 1689.308
627.9590, 1679.700
628.4411, 1598.767
628.9232, 1545.919
629.4053, 1603.340
629.8875, 1698.222
630.3696, 1728.938
630.8517, 1701.954
631.3338, 1668.244
631.8159, 1653.564
632.2980, 1644.673
632.7802, 1632.471
633.2623, 1614.944
633.7444, 1597.266
634.2265, 1577.551
634.7086, 1559.698
635.1907, 1548.639
635.6729, 1555.930
636.1550, 1544.635
636.6371, 1509.881
637.1192, 1457.622
637.6013, 1391.187
638.0834, 1308.692
638.5656, 1249.051
639.0477, 1235.752
639.5298, 1245.965
640.0119, 1232.182
640.4940, 1197.915
640.9761, 1162.978
641.4583, 1141.815
641.9404, 1124.726
642.4225, 1099.639
642.9046, 1065.322
643.3867, 1040.708
643.8688, 1049.116
644.3510, 1060.025
644.8331, 1050.324
645.3152, 993.0137
645.7973, 957.0254
646.2794, 943.7910
646.7615, 950.5391
647.2437, 981.0869
647.7258, 1045.039
648.2079, 1083.438
648.6900, 1077.925
649.1721, 1050.503
649.6542, 1050.778
650.1363, 1075.422
650.6184, 1096.898
651.1005, 1090.965
651.5826, 1082.730
652.0648, 1107.704
652.5469, 1158.336
653.0290, 1198.730
653.5111, 1193.821
653.9932, 1185.823
654.4753, 1204.004
654.9575, 1257.950
655.4396, 1304.555
655.9217, 1336.009
656.4038, 1360.789
656.8859, 1385.597
657.3680, 1413.490
657.8502, 1430.523
658.3323, 1429.916
658.8144, 1426.233
659.2965, 1439.535
659.7786, 1470.670
660.2607, 1515.873
660.7429, 1575.391
661.2250, 1640.795
661.7071, 1710.379
662.1892, 1780.791
662.6713, 1836.601
663.1534, 1847.258
663.6356, 1857.344
664.1177, 1904.984
664.5998, 1989.009
665.0819, 2055.026
665.5640, 2062.435
666.0461, 2070.585
666.5283, 2110.588
667.0104, 2191.715
667.4925, 2273.041
667.9746, 2359.812
668.4567, 2436.856
668.9388, 2482.639
669.4210, 2497.121
669.9031, 2524.493
670.3852, 2575.001
670.8673, 2630.003
671.3494, 2664.354
671.8315, 2682.448
672.3137, 2698.139
672.7958, 2726.850
673.2779, 2743.416
673.7600, 2716.347
674.2421, 2663.330
674.7242, 2625.834
675.2064, 2651.435
675.6885, 2658.463
676.1706, 2598.161
676.6527, 2481.218
677.1348, 2438.887
677.6169, 2522.816
678.0991, 2579.779
678.5812, 2517.060
679.0633, 2339.821
679.5454, 2171.496
680.0275, 2008.710
680.5096, 1877.585
680.9918, 1825.758
681.4739, 1816.417
681.9560, 1774.224
682.4381, 1684.925
682.9202, 1577.315
683.4023, 1451.497
683.8845, 1325.440
684.3666, 1218.697
684.8487, 1151.061
685.3308, 1087.111
685.8129, 1025.306
686.2950, 963.6748
686.7772, 896.2783
687.2593, 816.6445
687.7414, 754.5410
688.2235, 718.2598
688.7056, 700.8047
689.1877, 683.6172
689.6699, 666.5840
690.1520, 640.1621
690.6341, 586.8232
691.1162, 525.8457
691.5983, 490.5342
692.0804, 479.7246
692.5626, 469.6934
693.0447, 452.8662
693.5268, 426.9600
694.0089, 383.8535
694.4910, 313.5293
694.9731, 266.7793
695.4553, 275.3184
695.9374, 290.7324
696.4195, 275.1914
696.9016, 211.6240
697.3837, 177.6787
697.8658, 185.1172
698.3480, 207.4336
698.8301, 207.6914
699.3122, 189.1641
699.7943, 168.8203
700.2764, 150.5830
700.7585, 132.6777
701.2407, 112.8193
701.7228, 91.86035
702.2048, 72.14453
702.6870, 50.19043
703.1691, 33.99902
703.6512, 28.88379
704.1333, 32.97559
704.6154, 38.09961
705.0975, 48.94336
705.5797, 53.25781
706.0618, 44.95508
706.5439, 25.53223
707.0260, 15.47656
707.5081, 17.60254
707.9902, 13.16895
708.4724, 22.24316
708.9545, 73.62500
709.4366, 91.01758
709.9187, 72.41699
710.4008, 50.12695
710.8829, 53.98242
711.3651, 64.06348
711.8472, 56.97754
712.3293, 20.16699
712.8114, 6.819336
713.2935, 6.797852
713.7756, 5.136719
714.2578, 14.85254
714.7399, 25.85938
715.2220, 24.50293
715.7041, 2.133789
716.1862, 22.86816
716.6683, 13.53906
717.1505, 27.89453
717.6326, 54.73438
718.1147, 47.98242
718.5968, 30.34473
719.0789, 36.81836
719.5610, 59.50000
720.0432, 76.20703
720.5253, 71.19336
721.0074, 61.77832
721.4895, 58.54688
721.9716, 59.28809
722.4537, 52.12891
722.9359, 21.70801
723.4180, 0.3027340
723.9001, 2.244141
724.3822, 14.78711
724.8643, 29.45020
725.3464, 42.81934
725.8286, 49.12793
726.3107, 37.44336
726.7928, 15.74414
727.2749, 14.59082
727.7570, 34.94141
728.2391, 52.22070
728.7213, 43.49023
729.2034, 25.01270
729.6855, 14.04004
730.1676, 16.40625
730.6497, 12.35742
731.1318, 12.65918
731.6140, 40.74316
732.0961, 56.51367
732.5782, 55.77832
733.0603, 52.39453
733.5424, 46.35059
734.0245, 39.14648
734.5067, 32.36914
734.9888, 25.62012
735.4709, 17.29395
735.9530, 5.072266
736.4351, 2.737305
736.9172, 7.497070
737.3994, 29.28027
737.8815, 49.60059
738.3636, 73.82520
738.8457, 84.20605
739.3278, 60.38965
739.8099, 17.03418
740.2921, 3.391602
740.7742, 15.61230
741.2563, 33.88574
741.7384, 41.79297
742.2205, 41.73828
742.7026, 47.60059
743.1848, 60.63379
743.6669, 61.10840
744.1490, 23.63086
744.6311, 27.91113
745.1132, 41.74902
745.5953, 22.52832
746.0775, 0.9013670
746.5596, 14.82715
747.0417, 24.46484
747.5238, 29.88477
748.0059, 30.21777
748.4880, 42.83887
748.9702, 85.04492
749.4523, 123.5410
749.9344, 140.9854
750.4165, 135.2979
750.8986, 123.6484
751.3807, 103.8789
751.8629, 87.31445
752.3450, 87.33594
752.8271, 98.65137
753.3092, 109.2549
753.7913, 119.0518
754.2734, 117.9648
754.7555, 78.87500
755.2376, 33.47363
755.7197, 17.22656
756.2018, 57.68945
756.6840, 89.43262
757.1661, 94.52930
757.6482, 90.33984
758.1303, 95.70410
758.6124, 115.8145
759.0945, 125.2988
759.5767, 119.6582
760.0588, 105.5342
760.5409, 87.94336
761.0230, 69.78418
761.5051, 63.28613
761.9872, 75.27734
762.4694, 95.37207
762.9515, 120.8887
763.4336, 146.2520
763.9157, 160.6396
764.3978, 151.1240
764.8799, 140.9873
765.3621, 136.0518
765.8442, 134.5449
766.3263, 130.9082
766.8084, 121.4443
767.2905, 116.5391
767.7726, 122.3955
768.2548, 135.2354
768.7369, 143.0273
769.2190, 146.3564
769.7011, 150.5234
770.1832, 165.1738
770.6653, 176.9502
771.1475, 168.1445
771.6296, 143.7090
772.1117, 127.9502
772.5938, 133.9473
773.0759, 146.3594
773.5580, 163.9580
774.0402, 185.1240
774.5223, 191.3848
775.0044, 177.6953
775.4865, 158.0195
775.9686, 133.2236
776.4507, 110.1719
776.9329, 131.5479
777.4150, 193.6582
777.8971, 241.6045
778.3792, 227.5439
778.8613, 186.0234
779.3434, 141.8369
779.8256, 96.39355
780.3077, 74.74609
780.7898, 109.1816
781.2719, 150.7383
781.7540, 170.0781
782.2361, 161.5332
782.7183, 153.4316
783.2004, 146.3535
783.6825, 139.2461
784.1646, 134.1475
784.6467, 129.9521
785.1288, 114.0869
785.6110, 83.07129
786.0931, 57.74512
786.5752, 67.63770
787.0573, 88.75000
787.5394, 91.84570
788.0215, 61.50293
788.5037, 42.41211
788.9858, 52.35547
789.4679, 74.04883
789.9500, 98.03516
790.4321, 132.8379
790.9142, 132.2559
791.3964, 82.81055
791.8785, 29.36133
792.3606, 35.12500
792.8427, 83.20215
793.3248, 115.4355
793.8069, 118.7852
794.2891, 111.2930
794.7712, 99.30078
795.2533, 90.28516
795.7354, 92.66211
796.2175, 122.6797
796.6996, 142.1787
797.1818, 140.9707
797.6639, 130.3672
798.1460, 124.5029
798.6281, 126.9072
799.1102, 129.7549
799.5923, 133.8770
800.0745, 131.4082
800.5566, 96.72461
801.0387, 46.18262
801.5208, 24.65527
802.0029, 58.13184
802.4850, 95.76367
802.9672, 115.5322
803.4493, 121.1152
803.9314, 115.2441
804.4135, 81.59863
804.8956, 55.86035
805.3777, 36.46484
805.8599, 29.10352
806.3419, 53.54785
806.8240, 112.2617
807.3062, 154.2754
807.7883, 162.6221
808.2704, 156.2422
808.7525, 163.1826
809.2346, 177.0117
809.7167, 183.2500
810.1989, 181.6416
810.6810, 165.4434
811.1631, 106.4980
811.6452, 34.12402
812.1273, 16.16504
812.6094, 89.25781
813.0916, 147.3613
813.5737, 172.3291
814.0558, 174.8066
814.5379, 168.9463
815.0200, 155.5264
815.5021, 148.8477
815.9843, 159.2725
816.4664, 172.0127
816.9485, 167.3252
817.4306, 152.0850
817.9127, 141.7998
818.3948, 159.3096
818.8770, 163.0264
819.3591, 126.3984
819.8412, 69.59766
820.3233, 39.05371
820.8054, 39.88281
821.2875, 48.41504
821.7697, 60.28516
822.2518, 73.65723
822.7339, 89.57031
823.2160, 105.0957
823.6981, 107.3379
824.1802, 70.41797
824.6624, 38.21289
825.1445, 54.90625
825.6266, 99.97559
826.1087, 120.2891
826.5908, 64.18555
827.0729, 33.21875
827.5551, 55.40625
828.0372, 110.9961
828.5193, 145.4199
829.0014, 158.2529
829.4835, 161.6377
829.9656, 158.6719
830.4478, 150.6172
830.9299, 131.1738
831.4120, 107.4092
831.8941, 99.38281
832.3762, 140.5078
832.8583, 172.4482
833.3405, 158.8330
833.8226, 116.7471
834.3047, 102.0713
834.7868, 127.7148
835.2689, 154.1104
835.7510, 177.1387
836.2332, 189.5391
836.7153, 158.5479
837.1974, 94.26367
837.6795, 56.25781
838.1616, 89.55469
838.6437, 137.3652
839.1259, 153.3389
839.6080, 144.1104
840.0901, 124.4219
840.5722, 78.28223
841.0543, 47.28906
841.5364, 45.20312
842.0186, 60.77148
842.5007, 63.78223
842.9828, 51.34082
843.4649, 51.99609
843.9470, 81.17480
844.4291, 117.1592
844.9113, 114.3281
845.3934, 89.03418
845.8755, 84.31445
846.3576, 142.4062
846.8397, 192.8750
847.3218, 205.6904
847.8040, 190.4639
848.2861, 166.5488
848.7682, 127.6807
849.2503, 96.46289
849.7324, 74.04102
850.2145, 64.75098
850.6967, 87.32324
851.1788, 132.9805
851.6609, 148.9189
852.1430, 98.23926
852.6251, 49.26367
853.1072, 73.64355
853.5894, 137.4170
854.0715, 180.5938
854.5536, 175.7598
855.0357, 162.7451
855.5178, 134.6006
855.9999, 108.5781
856.4821, 120.6826
856.9642, 175.3350
857.4463, 209.0859
857.9283, 206.7012
858.4105, 188.0801
858.8926, 171.0977
859.3747, 158.8398
859.8568, 159.3691
860.3389, 188.9365
860.8210, 203.6631
861.3032, 167.1201
861.7853, 117.6055
862.2674, 103.0908
862.7495, 133.3643
863.2316, 172.7148
863.7137, 226.2559
864.1959, 267.6006
864.6780, 240.7822
865.1601, 171.0654
865.6422, 149.7314
866.1243, 205.5977
866.6064, 261.5039
867.0886, 255.5625
867.5707, 223.9688
868.0528, 204.6182
868.5349, 220.8145
869.0170, 214.2188
869.4991, 168.4053
869.9813, 123.4482
870.4634, 120.0127
870.9455, 155.4668
871.4276, 192.5029
871.9097, 224.6260
872.3918, 240.1152
872.8740, 214.5664
873.3561, 179.3135
873.8382, 172.8232
874.3203, 206.7656
874.8024, 230.6494
875.2845, 227.1523
875.7667, 214.8369
876.2488, 202.2920
876.7309, 189.3018
877.2130, 181.4111
877.6951, 177.8965
878.1772, 178.8955
878.6594, 189.7490
879.1415, 207.4922
879.6236, 220.0586
880.1057, 220.3721
880.5878, 218.4824
881.0699, 231.6553
881.5521, 238.9482
882.0342, 218.4697
882.5163, 170.9346
882.9984, 163.7275
883.4805, 206.6348
883.9626, 248.4268
884.4448, 258.2998
884.9269, 246.8252
885.4090, 243.8330
885.8911, 247.3369
886.3732, 248.7334
886.8553, 246.0840
887.3375, 239.2529
887.8196, 221.2725
888.3017, 194.4629
888.7838, 180.3311
889.2659, 180.7871
889.7480, 194.6016
890.2302, 225.7783
890.7123, 261.5088
891.1944, 267.5332
891.6765, 247.7217
892.1586, 223.0371
892.6407, 196.0234
893.1229, 176.9717
893.6050, 179.5156
894.0871, 193.1631
894.5692, 197.3506
895.0513, 167.6006
895.5334, 160.2324
896.0156, 193.5615
896.4977, 241.5176
896.9798, 254.0312
897.4619, 233.5410
897.9440, 205.9531
898.4261, 173.9951
898.9083, 145.9961
899.3904, 126.9463
899.8725, 118.5332
900.3546, 123.5381
900.8367, 157.7822
901.3188, 179.0820
901.8010, 179.2803
902.2831, 169.6533
902.7652, 157.0967
903.2473, 35.23340
903.7294, 88.77148
904.2115, 124.3916
904.6937, 142.6445
905.1758, 101.9492
905.6579, 129.4131
906.1400, 124.6885
906.6221, 115.2305
907.1042, 142.1396
907.5864, 91.82910
908.0685, 111.0029
908.5506, 97.66211
909.0327, 94.35449
909.5148, 58.75098
909.9969, 28.37109
910.4790, 91.47070
910.9611, 95.01855
911.4432, 105.6738
911.9254, 99.15723
912.4075, 78.50293
912.8896, 71.46680
913.3717, 105.1699
913.8538, 138.9834
914.3359, 157.1895
914.8181, 161.7402
915.3002, 162.3965
915.7823, 159.8887
916.2644, 147.5020
916.7465, 115.2939
917.2286, 79.71582
917.7108, 76.28613
918.1929, 93.24316
918.6750, 98.40137
919.1571, 62.68262
919.6392, 30.64746
920.1213, 16.46582
920.6035, 16.61816
921.0856, 25.99219
921.5677, 45.68750
922.0498, 70.61914
922.5319, 104.2305
923.0140, 131.5479
923.4962, 123.3018
923.9783, 95.28125
924.4604, 80.86523
924.9425, 93.29297
925.4246, 104.1152
925.9067, 106.3750
926.3889, 96.75098
926.8710, 71.11328
927.3531, 22.29199
927.8352, 20.68066
928.3173, 62.55078
928.7994, 78.83594
929.2816, 19.61426
929.7637, 72.99609
930.2458, 99.69434
930.7279, 56.96094
931.2100, 15.40332
931.6921, 9.803711
932.1743, 17.20801
932.6564, 28.42773
933.1385, 42.50586
933.6206, 47.73633
934.1027, 41.35156
934.5848, 39.71191
935.0670, 61.40137
935.5491, 84.92578
936.0312, 46.79004
936.5133, 31.56348
936.9954, 77.42285
937.4775, 14.89258
937.9597, 40.32324
938.4418, 34.48535
938.9239, 9.314453
939.4060, 45.84473
939.8881, 76.57520
940.3702, 93.19531
940.8524, 92.30664
941.3345, 80.05957
941.8166, 62.98047
942.2987, 42.28906
942.7808, 19.21094
943.2629, 10.86621
943.7451, 29.80859
944.2272, 15.62012
944.7093, 2.574219
945.1914, 4.909180
945.6735, 51.76855
946.1556, 60.21777
946.6378, 23.59180
947.1199, 15.71582
947.6020, 18.93945
948.0841, 1.314453
948.5662, 15.03223
949.0483, 27.64941
949.5305, 30.63477
950.0126, 7.837891
950.4947, 11.42676
950.9768, 11.52832
951.4589, 4.426758
951.9410, 10.80273
952.4232, 5.685547
952.9053, 8.473633
953.3874, 30.64941
953.8695, 62.73926
954.3516, 97.34863
954.8337, 129.4707
955.3159, 148.3945
955.7980, 131.3447
956.2801, 124.0205
956.7622, 137.8975
957.2443, 165.6494
957.7264, 197.2227
958.2086, 232.0234
958.6907, 282.2422
959.1728, 353.4258
959.6549, 420.5391
960.1370, 454.9990
960.6191, 467.9209
961.1013, 463.7529
961.5834, 436.7354
962.0654, 440.7598
962.5475, 501.5898
963.0297, 577.4229
963.5118, 644.1152
963.9939, 703.4707
964.4760, 786.9834
964.9581, 895.0801
965.4402, 1004.900
965.9224, 1088.768
966.4045, 1177.767
966.8866, 1305.463
967.3687, 1466.075
967.8508, 1621.359
968.3329, 1762.562
968.8151, 1910.412
969.2972, 2073.498
969.7793, 2241.628
970.2614, 2404.438
970.7435, 2559.518
971.2256, 2689.240
971.7078, 2773.618
972.1899, 2870.938
972.6720, 3040.786
973.1541, 3237.107
973.6362, 3411.321
974.1183, 3567.619
974.6005, 3672.117
975.0826, 3713.920
975.5647, 3730.522
976.0468, 3767.014
976.5289, 3805.318
977.0110, 3780.799
977.4932, 3691.677
977.9753, 3570.853
978.4574, 3410.234
978.9395, 3250.520
979.4216, 3121.547
979.9037, 3018.216
980.3859, 2899.694
980.8680, 2760.865
981.3501, 2628.685
981.8322, 2515.688
982.3143, 2411.899
982.7964, 2296.732
983.2786, 2177.622
983.7607, 2072.103
984.2428, 1972.538
984.7249, 1906.841
985.2070, 1896.729
985.6891, 1914.979
986.1713, 1938.322
986.6534, 1968.230
987.1355, 2008.076
987.6176, 2058.079
988.0997, 2111.666
988.5818, 2169.029
989.0640, 2223.979
989.5461, 2259.406
990.0282, 2273.667
990.5103, 2330.709
990.9924, 2461.946
991.4745, 2617.712
991.9567, 2789.600
992.4388, 2970.526
992.9209, 3117.985
993.4030, 3238.278
993.8851, 3380.652
994.3672, 3578.795
994.8494, 3790.970
995.3315, 4009.302
995.8136, 4218.764
996.2957, 4390.896
996.7778, 4474.836
997.2599, 4622.461
997.7421, 4866.170
998.2242, 5125.641
998.7063, 5297.032
999.1884, 5405.928
999.6705, 5517.519
1000.153, 5638.492
1000.635, 5764.822
1001.117, 5902.439
1001.599, 6035.086
1002.081, 6160.522
1002.563, 6277.342
1003.045, 6333.865
1003.527, 6323.041
1004.010, 6308.347
1004.492, 6321.529
1004.974, 6343.571
1005.456, 6376.516
1005.938, 6398.464
1006.420, 6357.353
1006.902, 6200.622
1007.384, 6020.558
1007.867, 5836.560
1008.349, 5635.092
1008.831, 5394.050
1009.313, 5118.123
1009.795, 4830.492
1010.277, 4529.900
1010.759, 4229.078
1011.241, 3942.741
1011.723, 3658.141
1012.206, 3352.045
1012.688, 3024.153
1013.170, 2735.648
1013.652, 2506.279
1014.134, 2273.647
1014.616, 2005.117
1015.098, 1724.248
1015.580, 1486.295
1016.062, 1288.095
1016.545, 1123.666
1017.027, 1018.477
1017.509, 907.1279
1017.991, 732.0312
1018.473, 554.0547
1018.955, 458.8486
1019.437, 467.5400
1019.919, 433.1162
1020.401, 341.0254
1020.884, 240.2314
1021.366, 173.9932
1021.848, 128.4600
1022.330, 85.80566
1022.812, 44.64453
1023.294, 16.15234
1023.776, 13.17676
1024.258, 9.851563
1024.741, 2.254883
1025.223, 20.26855
1025.705, 39.75000
1026.187, 58.49805
1026.669, 62.24805
1027.151, 36.43066
1027.633, 10.50781
1028.115, 2.635742
1028.598, 1.682617
1029.080, 18.65039
1029.562, 76.43652
1030.044, 100.2490
1030.526, 86.10352
1031.008, 50.99414
1031.490, 7.205078
1031.972, 44.91504
1032.454, 115.9971
1032.937, 200.5127
1033.419, 255.8467
1033.901, 233.1934
1034.383, 214.7744
1034.865, 221.9727
1035.347, 253.6328
1035.829, 318.9355
1036.311, 414.3623
1036.793, 478.1621
1037.276, 481.6318
1037.758, 486.8398
1038.240, 560.1533
1038.722, 659.1826
1039.204, 736.6143
1039.686, 774.5068
1040.168, 831.6631
1040.650, 915.8408
1041.132, 995.7041
1041.615, 1049.455
1042.097, 1083.664
1042.579, 1111.442
1043.061, 1134.076
1043.543, 1156.295
1044.025, 1181.254
1044.507, 1205.202
1044.989, 1224.326
1045.472, 1243.451
1045.954, 1275.724
1046.436, 1320.438
1046.918, 1344.084
1047.400, 1338.267
1047.882, 1330.218
1048.364, 1338.974
1048.846, 1362.344
1049.328, 1409.637
1049.811, 1490.936
1050.293, 1509.719
1050.775, 1437.654
1051.257, 1377.329
1051.739, 1388.539
1052.221, 1434.359
1052.703, 1426.352
1053.185, 1379.951
1053.667, 1339.415
1054.150, 1333.055
1054.632, 1322.568
1055.114, 1289.626
1055.596, 1253.629
1056.078, 1237.626
1056.560, 1242.430
1057.042, 1234.956
1057.524, 1213.454
1058.007, 1181.375
1058.489, 1125.463
1058.971, 1072.930
1059.453, 1048.771
1059.935, 1052.604
1060.417, 1061.146
1060.899, 1082.033
1061.381, 1082.512
1061.864, 1050.023
1062.346, 1000.344
1062.828, 952.7598
1063.310, 909.7793
1063.792, 877.5156
1064.274, 858.6738
1064.756, 846.4277
1065.238, 849.1211
1065.720, 847.2480
1066.203, 827.0215
1066.685, 789.8203
1067.167, 757.9590
1067.649, 731.0352
1068.131, 709.2559
1068.613, 690.6191
1069.095, 678.9941
1069.577, 681.2656
1070.059, 692.0000
1070.542, 700.0625
1071.024, 709.5059
1071.506, 694.1504
1071.988, 641.8730
1072.470, 601.1074
1072.952, 646.1484
1073.434, 726.0645
1073.916, 768.9102
1074.399, 766.7930
1074.881, 753.5430
1075.363, 735.0430
1075.845, 708.1934
1076.327, 661.9316
1076.809, 613.4980
1077.291, 627.9277
1077.773, 689.6230
1078.255, 731.8027
1078.738, 733.8184
1079.220, 707.9668
1079.702, 618.1328
1080.184, 534.5801
1080.666, 528.8730
1081.148, 616.3594
1081.630, 675.4824
1082.112, 706.1152
1082.594, 710.0898
1083.077, 660.0000
1083.559, 606.2461
1084.041, 622.6484
1084.523, 680.4609
1085.005, 680.8418
1085.487, 547.0586
1085.969, 494.8027
1086.451, 572.3164
1086.934, 685.1816
1087.416, 710.2344
1087.898, 676.2051
1088.380, 637.0820
1088.862, 599.6875
1089.344, 574.2109
1089.826, 576.4688
1090.308, 577.0410
1090.791, 563.6660
1091.273, 539.9414
1091.755, 520.6035
1092.237, 504.3184
1092.719, 477.0645
1093.201, 421.0020
1093.683, 383.8047
1094.165, 427.7480
1094.647, 489.9941
1095.130, 503.1230
1095.612, 457.7871
1096.094, 404.7695
1096.576, 340.7949
1097.058, 293.1797
1097.540, 295.2402
1098.022, 311.7891
1098.504, 292.5098
1098.986, 252.2637
1099.469, 233.5371
1099.951, 261.6094
1100.433, 285.0664
1100.915, 301.4395
1101.397, 307.9844
1101.879, 300.5684
1102.361, 280.8730
1102.843, 244.9766
1103.325, 193.9102
1103.808, 160.5195
1104.290, 179.3418
1104.772, 196.3613
1105.254, 194.2676
1105.736, 174.9727
1106.218, 131.4141
1106.700, 70.33398
1107.182, 41.94336
1107.665, 69.14844
1108.147, 100.8125
1108.629, 94.99023
1109.111, 81.17578
1109.593, 88.97656
1110.075, 120.5820
1110.557, 133.2168
1111.039, 125.3848
1111.521, 116.7500
1112.004, 128.5488
1112.486, 133.8164
1112.968, 77.80273
1113.450, 0.9218750
1113.932, 25.33984
1114.414, 63.01562
1114.896, 110.3008
1115.378, 103.2246
1115.860, 81.05469
1116.343, 79.03711
1116.825, 87.85938
1117.307, 92.02344
1117.789, 90.48242
1118.271, 82.17969
1118.753, 54.71680
1119.235, 37.14648
1119.717, 40.98242
1120.200, 53.57812
1120.682, 45.24805
1121.164, 22.09375
1121.646, 13.77539
1122.128, 26.48242
1122.610, 33.29688
1123.092, 9.388672
1123.574, 14.03711
1124.057, 22.81055
1124.539, 18.16406
1125.021, 1.632813
1125.503, 35.37891
1125.985, 59.17188
1126.467, 64.76172
1126.949, 59.37305
1127.431, 36.85547
1127.913, 13.29492
1128.396, 9.785156
1128.878, 31.91797
1129.360, 24.63086
1129.842, 18.88086
1130.324, 37.60547
1130.806, 46.86133
1131.288, 143.9238
1131.770, 122.7285
1132.252, 36.72656
1132.735, 7.986328
1133.217, 114.5762
1133.699, 153.4062
1134.181, 95.37695
1134.663, 25.02344
1135.145, 32.54492
1135.627, 81.33789
1136.109, 111.6641
1136.592, 121.5078
1137.074, 121.9922
1137.556, 106.5547
1138.038, 94.69922
1138.520, 86.13867
1139.002, 88.23242
1139.484, 124.4297
1139.966, 180.5898
1140.448, 208.1250
1140.931, 197.3730
1141.413, 194.4395
1141.895, 234.4727
1142.377, 273.2363
1142.859, 292.8633
1143.341, 295.7734
1143.823, 280.1328
1144.305, 251.9512
1144.787, 252.8320
1145.270, 303.1504
1145.752, 363.5410
1146.234, 423.9727
1146.716, 432.8652
1147.198, 483.9102
1147.680, 516.4336
1148.162, 531.4219
1148.644, 476.3184
1149.126, 511.7930
1149.609, 511.0234
1150.091, 508.7715
1150.573, 557.0781
1151.055, 551.8594
1151.537, 567.8477
1152.019, 585.3164
1152.501, 610.9082
1152.983, 646.8613
1153.466, 675.0020
1153.948, 674.0781
1154.430, 664.3184
1154.912, 668.8809
1155.394, 683.1973
1155.876, 689.6465
1156.358, 685.3184
1156.840, 675.3340
1157.323, 657.6191
1157.805, 644.2656
1158.287, 651.5156
1158.769, 670.1543
1159.251, 696.5254
1159.733, 727.1943
1160.215, 720.1260
1160.697, 629.5547
1161.179, 585.5957
1161.661, 635.5312
1162.144, 710.5391
1162.626, 691.4141
1163.108, 615.6260
1163.590, 558.3066
1164.072, 534.7471
1164.554, 507.7646
1165.036, 454.1973
1165.518, 415.3369
1166.001, 413.4492
1166.483, 430.9268
1166.965, 422.9961
1167.447, 394.5527
1167.929, 359.5820
1168.411, 320.2637
1168.893, 280.6104
1169.375, 235.7373
1169.858, 198.7529
1170.340, 180.8408
1170.822, 176.2559
1171.304, 151.2158
1171.786, 111.2764
1172.268, 83.54688
1172.750, 74.02930
1173.232, 82.84668
1173.714, 139.9404
1174.197, 195.5908
1174.679, 201.0098
1175.161, 157.9668
1175.643, 128.7188
1176.125, 112.2256
1176.607, 89.73535
1177.089, 34.99023
1177.571, 13.33594
1178.053, 32.56250
1178.536, 33.44238
1179.018, 26.10742
1179.500, 10.41992
1179.982, 11.70605
1180.464, 31.74414
1180.946, 48.24512
1181.428, 40.29883
1181.910, 27.37012
1182.393, 16.86230
1182.875, 11.16992
1183.357, 17.63965
1183.839, 36.99316
1184.321, 56.07715
1184.803, 73.68164
1185.285, 82.75488
1185.767, 76.80078
1186.250, 59.87012
1186.732, 28.71484
1187.214, 12.29102
1187.696, 35.41797
1188.178, 39.00195
1188.660, 41.93945
1189.142, 48.41602
1189.624, 52.33789
1190.106, 39.21191
1190.589, 27.66895
1191.071, 39.63281
1191.553, 76.56641
1192.035, 106.7900
1192.517, 129.9434
1192.999, 146.3818
1193.481, 151.0283
1193.963, 159.8740
1194.445, 193.8457
1194.928, 241.1475
1195.410, 290.9912
1195.892, 346.2969
1196.374, 372.8418
1196.856, 365.0967
1197.338, 362.8096
1197.820, 388.3701
1198.302, 424.3242
1198.784, 444.3496
1199.267, 463.6572
1199.749, 510.1816
1200.231, 603.5020
1200.713, 668.5488
1201.195, 699.8945
1201.677, 729.8057
1202.159, 782.3057
1202.641, 844.0117
1203.124, 900.8232
1203.606, 952.5244
1204.088, 999.2520
1204.570, 1038.602
1205.052, 1079.114
1205.534, 1121.545
1206.016, 1162.433
1206.498, 1207.271
1206.980, 1243.492
1207.463, 1244.169
1207.945, 1222.987
1208.427, 1229.121
1208.909, 1286.685
1209.391, 1322.385
1209.873, 1322.690
1210.355, 1309.300
1210.837, 1300.805
1211.319, 1293.097
1211.802, 1278.881
1212.284, 1259.682
1212.766, 1249.758
1213.248, 1268.774
1213.730, 1236.731
1214.212, 1129.035
1214.694, 1016.076
1215.176, 987.9766
1215.659, 994.2822
1216.141, 974.0811
1216.623, 924.6621
1217.105, 875.9961
1217.587, 832.1680
1218.069, 784.8311
1218.551, 732.2861
1219.033, 675.6943
1219.516, 610.4941
1219.998, 547.6250
1220.480, 503.8037
1220.962, 481.4102
1221.444, 454.0244
1221.926, 419.3047
1222.408, 382.0371
1222.890, 342.3975
1223.372, 306.9922
1223.854, 290.4600
1224.337, 281.4746
1224.819, 261.8594
1225.301, 228.7891
1225.783, 196.8984
1226.265, 165.7383
1226.747, 137.4160
1227.229, 110.3281
1227.711, 90.99023
1228.194, 97.77930
1228.676, 112.0713
1229.158, 106.6963
1229.640, 72.76367
1230.122, 55.82812
1230.604, 124.7480
1231.086, 168.4053
1231.568, 193.4697
1232.051, 200.9072
1232.533, 138.1650
1233.015, 165.9326
1233.497, 157.3643
1233.979, 147.2812
1234.461, 143.5498
1234.943, 225.8457
1235.425, 268.4912
1235.907, 275.3838
1236.390, 145.3662
1236.872, 190.9404
1237.354, 165.1484
1237.836, 138.4473
1238.318, 209.8799
1238.800, 92.48145
1239.282, 155.3730
1239.764, 149.3730
1240.246, 184.0215
1240.729, 147.6240
1241.211, 133.9824
1241.693, 191.3262
1242.175, 209.8652
1242.657, 166.7334
1243.139, 206.2275
1243.621, 98.02539
1244.103, 119.3965
1244.586, 196.6523
1245.068, 157.0576
1245.550, 197.7666
1246.032, 207.8672
1246.514, 78.89551
1246.996, 191.7227
1247.478, 199.9502
1247.960, 100.7734
1248.442, 205.2393
1248.925, 120.8135
1249.407, 85.87109
1249.889, 75.60059
1250.371, 77.41309
1250.853, 89.14453
1251.335, 110.6211
1251.817, 135.1348
1252.299, 162.2266
1252.781, 189.1270
1253.264, 241.4971
1253.746, 259.8750
1254.228, 178.0723
1254.710, 78.41406
1255.192, 78.35547
1255.674, 159.5625
1256.156, 173.6152
1256.638, 119.3848
1257.120, 80.45215
1257.603, 118.5225
1258.085, 160.8535
1258.567, 194.5176
1259.049, 208.7842
1259.531, 173.4414
1260.013, 105.3623
1260.495, 76.66602
1260.977, 91.13281
1261.460, 100.7295
1261.942, 91.28516
1262.424, 86.48242
1262.906, 92.25488
1263.388, 102.0791
1263.870, 113.2510
1264.352, 119.3906
1264.834, 98.77148
1265.317, 52.90527
1265.799, 8.262695
1266.281, 48.76172
1266.763, 56.71191
1267.245, 9.562500
1267.727, 91.63477
1268.209, 110.4170
1268.691, 96.20020
1269.173, 93.68945
1269.656, 104.8428
1270.138, 118.3857
1270.620, 135.4072
1271.102, 141.7793
1271.584, 132.2197
1272.066, 120.4639
1272.548, 110.7441
1273.030, 110.5166
1273.512, 140.4404
1273.995, 191.7959
1274.477, 212.9043
1274.959, 190.6025
1275.441, 179.8125
1275.923, 190.4512
1276.405, 201.9150
1276.887, 196.8350
1277.369, 182.5898
1277.852, 150.1025
1278.334, 110.1982
1278.816, 100.0957
1279.298, 110.2441
1279.780, 84.60254
1280.262, 99.87012
1280.744, 105.4209
1281.226, 41.02246
1281.708, 7.904297
1282.191, 29.04492
1282.673, 112.6611
1283.155, 145.5537
1283.637, 135.6025
1284.119, 150.8057
1284.601, 204.7695
1285.083, 237.0166
1285.565, 186.5254
1286.047, 129.8594
1286.530, 104.2285
1287.012, 98.26758
1287.494, 107.5176
1287.976, 155.9336
1288.458, 158.6240
1288.940, 104.2510
1289.422, 63.05859
1289.904, 82.40332
1290.387, 88.30859
1290.869, 51.00781
1291.351, 2.951172
1291.833, 0.6591800
1292.315, 0.0000000E+00
##END=



