##NAMES=Nadorite
##RRUFFID=R050525
##IDEAL CHEMISTRY=PbSb^3+^O_2_Cl
##LOCALITY=Langban, Filipstad, Varmland, Sweden
##OWNER=RRUFF
##SOURCE=University of Arizona Mineral Museum
##DESCRIPTION=Pale yellow platy group
##STATUS=The identification of this mineral has been confirmed by single-crystal X-ray diffraction.
##URL=rruff.info/R050525
130.4642, 0.1547780
130.9463, 0.3421330
131.4284, 1.095612
131.9105, 2.137825
132.3926, 3.320419
132.8748, 4.522446
133.3569, 5.778671
133.8390, 7.195663
134.3211, 8.877182
134.8032, 10.76482
135.2853, 12.64316
135.7674, 14.41858
136.2496, 16.31123
136.7317, 18.49168
137.2138, 20.84190
137.6959, 23.11302
138.1780, 25.06006
138.6601, 26.64149
139.1423, 28.24572
139.6244, 30.54189
140.1065, 32.31514
140.5886, 32.92371
141.0707, 32.37552
141.5528, 31.29562
142.0350, 30.29616
142.5171, 29.41333
142.9992, 28.34699
143.4813, 26.95309
143.9634, 25.52023
144.4455, 24.18483
144.9277, 23.09155
145.4098, 22.12778
145.8919, 21.26283
146.3740, 20.72769
146.8561, 20.41412
147.3382, 20.18191
147.8204, 19.98560
148.3025, 19.85918
148.7846, 19.61420
149.2667, 19.25652
149.7488, 18.98254
150.2309, 18.79840
150.7131, 18.37860
151.1952, 17.64209
151.6773, 16.70105
152.1594, 15.78885
152.6415, 15.01933
153.1236, 14.35460
153.6058, 13.64399
154.0879, 12.85818
154.5700, 12.18701
155.0521, 11.89475
155.5342, 12.00429
156.0163, 11.98164
156.4985, 11.55133
156.9806, 10.95559
157.4627, 10.35972
157.9448, 9.794727
158.4269, 9.267200
158.9090, 8.739128
159.3912, 8.106247
159.8733, 7.767960
160.3554, 8.183407
160.8375, 8.730915
161.3196, 8.803219
161.8017, 8.111809
162.2839, 6.940392
162.7660, 6.153282
163.2481, 6.123577
163.7302, 6.000584
164.2123, 5.622726
164.6944, 5.095074
165.1766, 4.530670
165.6587, 3.980705
166.1408, 3.467937
166.6229, 3.130337
167.1050, 3.248756
167.5871, 3.237030
168.0693, 2.845173
168.5514, 2.232651
169.0335, 1.743027
169.5156, 1.634972
169.9977, 1.861782
170.4798, 1.728535
170.9620, 0.9530370
171.4441, 0.1670380
171.9262, 0.3835600
172.4083, 0.7010120
172.8904, 0.8546680
173.3725, 0.8317490
173.8547, 0.6656880
174.3368, 0.6676250
174.8189, 0.9974020
175.3010, 1.385784
175.7831, 1.625713
176.2652, 1.708851
176.7474, 1.704723
177.2295, 1.609741
177.7116, 1.464081
178.1937, 1.363235
178.6758, 1.094250
179.1579, 0.8552820
179.6401, 0.5266910
180.1222, 8.6533003E-02
180.6043, 0.3742260
181.0864, 0.7700160
181.5685, 1.146301
182.0506, 1.585041
182.5328, 2.141544
183.0149, 2.780415
183.4970, 3.407665
183.9791, 4.000084
184.4612, 4.625751
184.9433, 5.324928
185.4255, 6.069553
185.9076, 6.800766
186.3897, 7.422974
186.8718, 7.937176
187.3539, 8.728447
187.8360, 9.964966
188.3182, 11.36313
188.8003, 12.83701
189.2824, 14.39235
189.7645, 16.04641
190.2466, 17.76752
190.7287, 19.54398
191.2109, 21.80386
191.6930, 24.34882
192.1751, 27.56635
192.6572, 31.62946
193.1393, 36.48598
193.6214, 42.03313
194.1036, 48.18186
194.5857, 55.01009
195.0678, 62.06441
195.5499, 70.03513
196.0320, 77.58259
196.5141, 84.17500
196.9963, 89.75847
197.4784, 94.49941
197.9605, 98.48330
198.4426, 101.6114
198.9247, 104.2494
199.4068, 105.7287
199.8890, 107.2665
200.3711, 109.6199
200.8532, 112.8619
201.3353, 116.6452
201.8174, 120.6281
202.2995, 124.8658
202.7817, 129.9037
203.2638, 136.2377
203.7459, 143.1166
204.2280, 149.8206
204.7101, 156.2867
205.1922, 162.8601
205.6744, 169.8135
206.1565, 177.1728
206.6386, 185.0588
207.1207, 193.5300
207.6028, 202.5372
208.0849, 211.9392
208.5671, 221.7032
209.0492, 232.1205
209.5313, 243.3392
210.0134, 255.3510
210.4955, 268.4481
210.9776, 283.7702
211.4598, 300.1720
211.9419, 315.0815
212.4240, 327.8832
212.9061, 340.2263
213.3882, 356.4549
213.8703, 372.9976
214.3525, 382.8864
214.8346, 383.0740
215.3167, 373.8355
215.7988, 355.3372
216.2809, 323.1489
216.7630, 287.6755
217.2451, 250.9250
217.7273, 214.7515
218.2094, 182.0586
218.6915, 154.5442
219.1736, 131.9457
219.6557, 113.2072
220.1378, 99.90378
220.6200, 89.20055
221.1021, 80.60085
221.5842, 73.75898
222.0663, 68.25553
222.5484, 63.95625
223.0305, 60.77710
223.5127, 57.92882
223.9948, 55.48211
224.4769, 53.37621
224.9590, 51.75264
225.4411, 50.44652
225.9232, 49.19622
226.4054, 47.81201
226.8875, 46.32495
227.3696, 45.00278
227.8517, 43.83599
228.3338, 42.87196
228.8159, 42.08157
229.2981, 41.47993
229.7802, 41.14786
230.2623, 41.17114
230.7444, 41.52165
231.2265, 41.77573
231.7086, 41.80814
232.1908, 41.89827
232.6729, 42.07130
233.1550, 42.33424
233.6371, 42.73394
234.1192, 43.32642
234.6013, 44.06564
235.0835, 44.57310
235.5656, 44.62746
236.0477, 44.75099
236.5298, 45.14911
237.0119, 45.73876
237.4940, 46.35107
237.9762, 46.90079
238.4583, 47.40213
238.9404, 47.90829
239.4225, 48.49424
239.9046, 48.98618
240.3867, 49.29219
240.8689, 49.45972
241.3510, 49.60603
241.8331, 49.80490
242.3152, 49.98932
242.7973, 49.99260
243.2794, 49.88404
243.7616, 49.54932
244.2437, 48.83597
244.7258, 47.83495
245.2079, 46.82528
245.6900, 45.92442
246.1721, 45.08154
246.6543, 44.20034
247.1364, 43.32380
247.6185, 42.33360
248.1006, 41.05591
248.5827, 39.58218
249.0648, 38.26472
249.5470, 37.29920
250.0291, 36.44421
250.5112, 35.27533
250.9933, 33.71384
251.4754, 32.30878
251.9576, 31.52250
252.4397, 31.19853
252.9218, 30.59956
253.4039, 29.43603
253.8860, 28.05322
254.3681, 26.82505
254.8503, 25.74639
255.3324, 24.75089
255.8145, 23.79943
256.2966, 22.89921
256.7787, 22.10341
257.2608, 21.49703
257.7430, 20.90008
258.2251, 20.17392
258.7072, 19.33101
259.1893, 18.44260
259.6714, 17.49051
260.1535, 16.50829
260.6357, 15.68981
261.1178, 15.17184
261.5999, 14.67045
262.0820, 13.95425
262.5641, 13.09256
263.0462, 12.30041
263.5284, 11.74975
264.0105, 11.40214
264.4926, 11.00951
264.9747, 10.52853
265.4568, 10.06819
265.9389, 9.711679
266.4211, 9.411140
266.9032, 9.065182
267.3853, 8.572239
267.8674, 7.989031
268.3495, 7.574583
268.8316, 7.451319
269.3138, 7.317104
269.7959, 7.016836
270.2780, 6.642607
270.7601, 6.344877
271.2422, 6.229828
271.7243, 6.218500
272.2065, 6.039423
272.6886, 5.585747
273.1707, 5.140127
273.6528, 4.735891
274.1349, 4.395233
274.6170, 4.160513
275.0992, 4.055637
275.5813, 4.035126
276.0634, 3.998068
276.5455, 3.977976
277.0276, 3.869015
277.5097, 3.600344
277.9919, 3.278141
278.4740, 2.997490
278.9561, 2.791206
279.4382, 2.633274
279.9203, 2.470692
280.4024, 2.287716
280.8846, 2.139736
281.3667, 2.072496
281.8488, 2.010756
282.3309, 1.897220
282.8130, 1.718607
283.2951, 1.504681
283.7773, 1.291280
284.2594, 1.059204
284.7415, 0.8784110
285.2236, 0.7674040
285.7057, 0.6865480
286.1878, 0.6130500
286.6700, 0.5449290
287.1521, 0.4958270
287.6342, 0.4957500
288.1163, 0.5827390
288.5984, 0.5660970
289.0805, 0.3647830
289.5627, 0.1446820
290.0448, 4.7865000E-02
290.5269, 0.1972870
291.0090, 0.2885390
291.4911, 0.3010830
291.9732, 0.2299390
292.4554, 0.1823410
292.9375, 0.1819190
293.4196, 0.1721130
293.9017, 0.1037080
294.3838, 1.0732000E-02
294.8659, 2.4979001E-02
295.3481, 6.5007001E-02
295.8302, 0.2652760
296.3123, 0.3622730
296.7944, 0.2116710
297.2765, 0.1075960
297.7586, 0.1499810
298.2408, 0.2641630
298.7229, 0.3275830
299.2050, 0.2647920
299.6871, 0.1174830
300.1692, 5.6352999E-02
300.6513, 0.1862150
301.1335, 0.2825490
301.6156, 0.3388670
302.0977, 0.3466510
302.5798, 0.2689700
303.0619, 9.3952000E-02
303.5440, 0.1073610
304.0262, 0.1730750
304.5083, 5.5858001E-02
304.9904, 0.2145020
305.4725, 0.2834990
305.9546, 0.2787510
306.4367, 0.1723830
306.9189, 2.3993000E-02
307.4010, 0.2226570
307.8831, 0.3025610
308.3652, 0.2070580
308.8473, 0.1468520
309.3294, 0.1377780
309.8116, 0.1650610
310.2937, 0.1628910
310.7758, 0.1430080
311.2579, 0.1486090
311.7400, 0.2503450
312.2221, 0.4399700
312.7043, 0.5302560
313.1864, 0.3794270
313.6685, 0.2652110
314.1506, 0.4101840
314.6327, 0.6960090
315.1148, 0.9077430
315.5970, 0.8607880
316.0791, 0.5908450
316.5612, 0.4514650
317.0433, 0.5927550
317.5254, 0.7089120
318.0075, 0.7387230
318.4897, 0.7045350
318.9718, 0.6390300
319.4539, 0.5552790
319.9360, 0.4572410
320.4181, 0.3673830
320.9002, 0.2478080
321.3824, 0.1955160
321.8645, 0.2485200
322.3466, 0.3480990
322.8287, 0.4584050
323.3108, 0.5623310
323.7929, 0.6433310
324.2751, 0.6680110
324.7572, 0.5885250
325.2393, 0.5436200
325.7214, 0.5615690
326.2035, 0.5877030
326.6856, 0.5865900
327.1678, 0.5532200
327.6499, 0.4996590
328.1320, 0.4301630
328.6141, 0.3255850
329.0962, 0.3048630
329.5783, 0.4492500
330.0605, 0.5883020
330.5426, 0.6521300
331.0247, 0.6471270
331.5068, 0.6099450
331.9889, 0.5649010
332.4710, 0.5137070
332.9532, 0.4781930
333.4353, 0.4637230
333.9174, 0.4605880
334.3995, 0.4763260
334.8816, 0.5000390
335.3637, 0.5151110
335.8459, 0.5130530
336.3280, 0.5019050
336.8101, 0.5098660
337.2922, 0.5910660
337.7743, 0.6067450
338.2564, 0.4694080
338.7386, 0.3107150
339.2206, 0.2664180
339.7028, 0.3660610
340.1849, 0.5134110
340.6670, 0.5554830
341.1491, 0.4292310
341.6312, 0.3541780
342.1133, 0.3567030
342.5955, 0.3813300
343.0776, 0.4117110
343.5597, 0.4387490
344.0418, 0.4500950
344.5239, 0.4349560
345.0060, 0.3932200
345.4882, 0.3282860
345.9703, 0.1950690
346.4524, 8.2452998E-02
346.9345, 1.5703000E-02
347.4166, 1.3925000E-02
347.8987, 2.8782999E-02
348.3809, 4.6174999E-02
348.8630, 5.4753002E-02
349.3451, 1.4240000E-03
349.8272, 0.2161320
350.3093, 0.3519000
350.7914, 0.2949520
351.2736, 0.1790130
351.7557, 0.1499410
352.2378, 0.2570470
352.7199, 0.4168830
353.2020, 0.4960020
353.6841, 0.4819850
354.1663, 0.4103960
354.6484, 0.1959970
355.1305, 4.1820002E-03
355.6126, 4.7660001E-02
356.0947, 3.4768999E-02
356.5768, 0.1426680
357.0590, 0.1699220
357.5411, 0.1142480
358.0232, 8.1634998E-02
358.5053, 8.8982001E-02
358.9874, 9.4154000E-02
359.4695, 8.9259997E-02
359.9517, 7.1093999E-02
360.4338, 2.7139001E-02
360.9159, 7.4249998E-02
361.3980, 0.1910590
361.8801, 0.1615910
362.3622, 0.1202400
362.8444, 0.3031080
363.3265, 0.1763110
363.8086, 6.1145999E-02
364.2907, 0.2018360
364.7728, 0.1772380
365.2549, 8.5198000E-02
365.7371, 3.9632000E-02
366.2192, 4.3871000E-02
366.7013, 7.6109000E-02
367.1834, 0.4792340
367.6655, 0.1469530
368.1476, 4.6514999E-02
368.6298, 0.1086050
369.1119, 0.3536140
369.5940, 0.1385810
370.0761, 0.1941890
370.5582, 0.2606950
371.0403, 4.9741998E-02
371.5225, 0.3364130
372.0046, 3.2083001E-02
372.4867, 2.1040000E-03
372.9688, 0.1547690
373.4509, 3.8408998E-02
373.9330, 0.2651830
374.4152, 0.3996420
374.8973, 0.3660300
375.3794, 0.2914040
375.8615, 0.1954710
376.3436, 0.1158500
376.8257, 0.1204700
377.3079, 0.2530780
377.7900, 0.3751170
378.2721, 0.3427340
378.7542, 0.2010510
379.2363, 0.1601430
379.7184, 0.3120810
380.2006, 0.5308480
380.6827, 0.6583130
381.1648, 0.6984540
381.6469, 0.7185040
382.1290, 0.7032150
382.6111, 0.6944100
383.0933, 0.7803020
383.5754, 0.9774070
384.0575, 1.144504
384.5396, 1.136331
385.0217, 0.9821050
385.5038, 0.9383480
385.9860, 1.087452
386.4681, 1.285249
386.9502, 1.472975
387.4323, 1.642383
387.9144, 1.761605
388.3965, 1.803715
388.8787, 1.804115
389.3608, 1.859129
389.8429, 1.991424
390.3250, 2.118948
390.8071, 2.239749
391.2892, 2.340827
391.7714, 2.409523
392.2535, 2.442634
392.7356, 2.432602
393.2177, 2.366537
393.6998, 2.191433
394.1819, 2.124249
394.6641, 2.208807
395.1462, 2.360332
395.6283, 2.529818
396.1104, 2.716572
396.5925, 2.920228
397.0746, 3.137024
397.5568, 3.374158
398.0389, 3.562166
398.5210, 3.721178
399.0031, 3.820222
399.4852, 3.786209
399.9673, 3.724936
400.4495, 3.762959
400.9316, 3.936392
401.4137, 4.168100
401.8958, 4.348575
402.3779, 4.488733
402.8600, 4.538720
403.3422, 4.404482
403.8243, 4.271797
404.3064, 4.240857
404.7885, 4.299418
405.2706, 4.383070
405.7527, 4.444327
406.2349, 4.487459
406.7170, 4.543370
407.1991, 4.659735
407.6812, 4.721164
408.1633, 4.664812
408.6454, 4.556510
409.1276, 4.474688
409.6097, 4.448885
410.0918, 4.434633
410.5739, 4.364143
411.0560, 4.230675
411.5381, 4.078049
412.0203, 3.872254
412.5024, 3.678377
412.9845, 3.550984
413.4666, 3.481725
413.9487, 3.408549
414.4308, 3.263419
414.9130, 3.068434
415.3951, 2.933314
415.8772, 2.876017
416.3593, 2.842903
416.8414, 2.840484
417.3235, 2.835015
417.8057, 2.771217
418.2878, 2.618037
418.7699, 2.427877
419.2520, 2.241234
419.7341, 2.071084
420.2162, 1.964617
420.6984, 1.929812
421.1805, 1.905771
421.6626, 1.827950
422.1447, 1.708554
422.6268, 1.583586
423.1089, 1.451281
423.5911, 1.325500
424.0732, 1.220280
424.5553, 1.138412
425.0374, 1.097259
425.5195, 1.134063
426.0016, 1.230272
426.4838, 1.243107
426.9659, 1.077981
427.4480, 0.9305740
427.9301, 0.9214240
428.4122, 0.9965010
428.8943, 1.038376
429.3765, 1.009552
429.8586, 0.9342280
430.3407, 0.8663070
430.8228, 0.8028540
431.3049, 0.7559110
431.7870, 0.7551980
432.2692, 0.7465130
432.7513, 0.6914500
433.2334, 0.6044220
433.7155, 0.5430750
434.1976, 0.5838380
434.6797, 0.6988410
435.1619, 0.7327100
435.6440, 0.5414460
436.1261, 0.4496360
436.6082, 0.6069630
437.0903, 0.8459950
437.5724, 0.9729260
438.0546, 0.9165390
438.5367, 0.7671090
439.0188, 0.6650930
439.5009, 0.6299330
439.9830, 0.5795410
440.4651, 0.4972490
440.9473, 0.4117550
441.4294, 0.3057260
441.9115, 0.2046590
442.3936, 0.1780700
442.8757, 0.3030800
443.3578, 0.5173550
443.8400, 0.5903150
444.3221, 0.4555580
444.8042, 0.3460070
445.2863, 0.3710510
445.7684, 0.4458400
446.2505, 0.5032820
446.7327, 0.5309880
447.2148, 0.5310100
447.6969, 0.4751030
448.1790, 0.3818660
448.6611, 0.3745010
449.1432, 0.5247120
449.6254, 0.6588810
450.1075, 0.5355320
450.5896, 6.8680001E-03
451.0717, 0.3091640
451.5538, 0.4864430
452.0359, 0.5324250
452.5181, 5.4046001E-02
453.0002, 0.2525670
453.4823, 0.1796930
453.9644, 9.5605999E-02
454.4465, 0.3891480
454.9286, 1.3420000E-02
455.4108, 0.2739240
455.8929, 0.2857370
456.3750, 0.4235560
456.8571, 0.2883210
457.3392, 0.2665270
457.8214, 0.2871990
458.3035, 0.2909210
458.7856, 0.2632550
459.2677, 0.2034920
459.7498, 0.1730170
460.2319, 0.1456670
460.7141, 0.1716070
461.1962, 0.3374830
461.6783, 0.5425520
462.1604, 0.6345820
462.6425, 0.5580020
463.1246, 0.3965370
463.6068, 0.2848320
464.0889, 0.2210120
464.5710, 0.2167690
465.0531, 0.3480680
465.5352, 0.4647210
466.0173, 0.4838490
466.4995, 0.4269430
466.9816, 0.3658950
467.4637, 0.3502140
467.9458, 0.3602700
468.4279, 0.3208730
468.9100, 0.1908640
469.3922, 0.1186180
469.8743, 0.2288320
470.3564, 0.3647110
470.8385, 0.3752940
471.3206, 0.2408760
471.8027, 0.1208790
472.2849, 0.1819430
472.7670, 0.3655170
473.2491, 0.4370820
473.7312, 0.3484420
474.2133, 0.2261990
474.6954, 0.1418590
475.1776, 9.2621997E-02
475.6597, 8.3180003E-02
476.1418, 0.1775940
476.6239, 0.2343090
477.1060, 8.0782004E-02
477.5881, 0.1969370
478.0703, 0.3217200
478.5524, 0.1775830
479.0345, 6.4003997E-02
479.5166, 0.1533310
479.9987, 5.1764000E-02
480.4808, 2.7067000E-02
480.9630, 5.8138002E-02
481.4451, 7.5084999E-02
481.9272, 0.1262400
482.4093, 0.4516960
482.8914, 0.1279070
483.3735, 5.7096999E-02
483.8557, 0.1108150
484.3378, 0.3598190
484.8199, 0.1535910
485.3020, 0.2187850
485.7841, 0.2952240
486.2662, 5.9280000E-03
486.7484, 0.3890340
487.2305, 9.4103001E-02
487.7126, 7.4718997E-02
488.1947, 7.0656002E-02
488.6768, 5.7016999E-02
489.1589, 0.1004490
489.6411, 0.1290830
490.1232, 0.2073540
490.6053, 4.7958001E-02
491.0874, 0.2009400
491.5695, 0.2043370
492.0516, 0.1199110
492.5338, 0.1538820
493.0159, 0.2017810
493.4980, 0.1035120
493.9801, 8.6419001E-02
494.4622, 0.2193730
494.9443, 0.3690700
495.4265, 0.4233310
495.9086, 0.4071680
496.3907, 0.3811930
496.8728, 0.3386740
497.3549, 0.3104840
497.8370, 0.3438010
498.3192, 0.4183520
498.8013, 0.4451990
499.2834, 0.3743630
499.7655, 0.2828340
500.2476, 0.3145270
500.7297, 0.5308790
501.2119, 0.6614600
501.6940, 0.6298540
502.1761, 0.5546690
502.6582, 0.4992670
503.1403, 0.4739260
503.6224, 0.4829210
504.1045, 0.5331380
504.5866, 0.6071150
505.0688, 0.6391510
505.5509, 0.5708590
506.0330, 0.5539300
506.5151, 0.6181290
506.9972, 0.7161250
507.4793, 0.8357460
507.9615, 0.9608890
508.4436, 1.041051
508.9257, 1.059191
509.4078, 1.015335
509.8899, 0.9547300
510.3720, 0.8390410
510.8542, 0.7801900
511.3363, 0.8382330
511.8184, 0.9460300
512.3005, 1.057999
512.7827, 1.149970
513.2648, 1.229083
513.7469, 1.239661
514.2290, 1.221311
514.7111, 1.315110
515.1932, 1.569307
515.6754, 1.790265
516.1575, 1.779287
516.6396, 1.603558
517.1217, 1.586076
517.6038, 1.924467
518.0859, 2.206120
518.5681, 2.136143
519.0502, 1.917153
519.5323, 1.913516
520.0144, 2.225783
520.4965, 2.646400
520.9786, 2.931854
521.4608, 3.068818
521.9429, 3.139338
522.4250, 3.035531
522.9071, 2.997088
523.3892, 3.146796
523.8713, 3.403872
524.3535, 3.639274
524.8356, 3.798916
525.3177, 3.934422
525.7998, 4.133980
526.2819, 4.414128
526.7640, 4.668767
527.2462, 4.822665
527.7283, 5.028298
528.2104, 5.399846
528.6925, 5.871557
529.1746, 6.290499
529.6567, 6.569069
530.1389, 6.802226
530.6210, 7.108549
531.1031, 7.482851
531.5852, 7.864841
532.0673, 8.234908
532.5494, 8.606435
533.0316, 8.983700
533.5137, 9.364626
533.9958, 9.822300
534.4779, 10.44319
534.9600, 11.07926
535.4421, 11.58207
535.9243, 11.99501
536.4064, 12.49495
536.8885, 13.16848
537.3706, 13.91956
537.8527, 14.55317
538.3348, 14.99537
538.8170, 15.47280
539.2991, 16.01561
539.7812, 16.56099
540.2633, 17.02564
540.7454, 17.48718
541.2275, 18.05879
541.7097, 18.82503
542.1918, 19.65953
542.6739, 20.32281
543.1560, 20.74994
543.6381, 21.15353
544.1202, 21.51591
544.6024, 21.91319
545.0845, 22.53858
545.5666, 23.32535
546.0487, 23.99358
546.5308, 24.33360
547.0129, 24.48676
547.4951, 24.64728
547.9772, 24.80970
548.4593, 25.03728
548.9414, 25.41356
549.4235, 25.79538
549.9056, 25.96879
550.3878, 25.94116
550.8699, 25.79045
551.3520, 25.47610
551.8341, 25.08498
552.3162, 24.68892
552.7983, 24.28239
553.2805, 23.82142
553.7626, 23.27394
554.2447, 22.67028
554.7268, 22.09705
555.2089, 21.58698
555.6910, 21.04989
556.1732, 20.49539
556.6553, 19.90458
557.1374, 19.22403
557.6195, 18.48838
558.1016, 17.80009
558.5837, 17.21785
559.0659, 16.72547
559.5480, 16.32139
560.0301, 16.03995
560.5122, 15.64044
560.9943, 14.94594
561.4764, 14.21430
561.9586, 13.74140
562.4407, 13.50746
562.9228, 13.18293
563.4049, 12.47893
563.8870, 11.74074
564.3691, 11.40667
564.8513, 11.41046
565.3334, 11.35248
565.8155, 11.04997
566.2976, 10.59743
566.7797, 10.16192
567.2618, 9.728314
567.7440, 9.360765
568.2261, 9.077078
568.7082, 8.843510
569.1903, 8.664781
569.6724, 8.518243
570.1545, 8.365484
570.6367, 8.188941
571.1188, 7.976696
571.6009, 7.671751
572.0830, 7.202157
572.5651, 6.912174
573.0472, 7.041890
573.5294, 7.175260
574.0115, 7.010296
574.4936, 6.637836
574.9757, 6.359827
575.4578, 6.374324
575.9399, 6.430708
576.4221, 6.176579
576.9042, 5.678881
577.3863, 5.338737
577.8684, 5.304986
578.3505, 5.360487
578.8326, 5.254479
579.3148, 4.972316
579.7969, 4.717114
580.2790, 4.452024
580.7611, 4.271818
581.2432, 4.252813
581.7253, 4.320370
582.2075, 4.371273
582.6896, 4.368431
583.1717, 4.311571
583.6538, 4.187582
584.1359, 3.980451
584.6180, 3.822441
585.1002, 3.763553
585.5823, 3.698299
586.0643, 3.584014
586.5464, 3.447469
587.0286, 3.319245
587.5107, 3.206105
587.9928, 3.119872
588.4749, 3.098326
588.9570, 3.116690
589.4391, 3.075726
589.9213, 2.959217
590.4034, 2.820460
590.8855, 2.673616
591.3676, 2.532697
591.8497, 2.448354
592.3318, 2.464859
592.8140, 2.460907
593.2961, 2.370502
593.7782, 2.256824
594.2603, 2.197246
594.7424, 2.195070
595.2245, 2.195986
595.7067, 2.158534
596.1888, 2.085587
596.6709, 1.985184
597.1530, 1.791126
597.6351, 1.687107
598.1172, 1.758612
598.5994, 1.866277
599.0815, 1.921029
599.5636, 1.917631
600.0457, 1.875602
600.5278, 1.787394
601.0099, 1.680914
601.4921, 1.614571
601.9742, 1.589265
602.4563, 1.559033
602.9384, 1.509960
603.4205, 1.447132
603.9026, 1.366139
604.3848, 1.265380
604.8669, 1.201297
605.3490, 1.180993
605.8311, 1.191713
606.3132, 1.263398
606.7953, 1.360191
607.2775, 1.388106
607.7596, 1.311437
608.2417, 1.163401
608.7238, 0.9780300
609.2059, 0.7242220
609.6880, 0.5924530
610.1702, 0.7039810
610.6523, 0.8025930
611.1344, 0.7943760
611.6165, 0.7287030
612.0986, 0.6785550
612.5807, 0.6660090
613.0629, 0.6536040
613.5450, 0.5941240
614.0271, 0.5078620
614.5092, 0.4609270
614.9913, 0.4663510
615.4734, 0.5026260
615.9556, 0.5772860
616.4377, 0.6651610
616.9198, 0.6802260
617.4019, 0.6067700
617.8840, 0.5010630
618.3661, 0.2988070
618.8483, 0.1222620
619.3304, 0.1238010
619.8125, 0.2692940
620.2946, 0.3845560
620.7767, 0.3510180
621.2589, 0.2243610
621.7410, 0.1752660
622.2231, 0.2428780
622.7052, 0.2718560
623.1873, 0.2156310
623.6694, 0.1381920
624.1516, 4.7552001E-02
624.6337, 3.6037002E-02
625.1158, 5.3741999E-02
625.5979, 6.2633999E-02
626.0800, 0.1881440
626.5621, 0.1522560
627.0443, 1.3833000E-02
627.5264, 2.4309999E-03
628.0085, 0.1874350
628.4906, 0.3949110
628.9727, 0.4632750
629.4548, 0.3915400
629.9370, 0.2563500
630.4191, 8.6099997E-02
630.9012, 0.3012660
631.3833, 0.2336230
631.8654, 5.2559000E-02
632.3475, 8.4565997E-02
632.8297, 0.1436610
633.3118, 0.1546430
633.7939, 0.1316570
634.2760, 8.6429998E-02
634.7581, 6.9470003E-02
635.2402, 8.6016998E-02
635.7224, 0.1139310
636.2045, 0.1863280
636.6866, 0.2300130
637.1687, 0.1379520
637.6508, 7.9535998E-02
638.1329, 0.2263370
638.6151, 0.1989380
639.0972, 0.1141290
639.5793, 4.5561999E-02
640.0614, 5.7700003E-04
640.5435, 3.1389999E-03
641.0256, 4.5756999E-02
641.5078, 8.8304996E-02
641.9899, 3.5741001E-02
642.4720, 0.1337380
642.9541, 0.2189350
643.4362, 0.1368380
643.9183, 6.3951001E-02
644.4005, 4.5814000E-02
644.8826, 5.3041998E-02
645.3647, 6.0727000E-02
645.8468, 6.1050002E-02
646.3289, 3.7880000E-02
646.8110, 5.0166000E-02
647.2932, 0.1658750
647.7753, 0.2073460
648.2574, 0.1695920
648.7395, 0.1234000
649.2216, 9.9395998E-02
649.7037, 8.4703997E-02
650.1859, 5.2673001E-02
650.6680, 6.1460002E-03
651.1501, 3.9402001E-02
651.6322, 2.5403000E-02
652.1143, 2.1950000E-03
652.5964, 9.7169997E-03
653.0786, 1.4370000E-02
653.5607, 2.3190999E-02
654.0428, 4.0208999E-02
654.5249, 5.8051001E-02
655.0070, 7.1520001E-02
655.4891, 8.1501998E-02
655.9713, 5.7434000E-02
656.4534, 2.6155001E-02
656.9355, 9.4439998E-02
657.4176, 8.9533001E-02
657.8997, 5.9625000E-02
658.3818, 6.8687998E-02
658.8640, 0.1313900
659.3461, 0.1716810
659.8282, 0.1297260
660.3103, 6.1489999E-02
660.7924, 3.6114998E-02
661.2745, 4.6087001E-02
661.7567, 2.8689999E-02
662.2388, 5.2480999E-02
662.7209, 0.1375230
663.2030, 0.1000250
663.6851, 0.1308020
664.1672, 0.2524550
664.6494, 0.1582050
665.1315, 6.9499001E-02
665.6136, 6.7427002E-02
666.0957, 0.1120050
666.5778, 0.1446930
667.0599, 0.1491530
667.5421, 0.1523460
668.0242, 0.1845510
668.5063, 0.2314420
668.9884, 0.2645370
669.4705, 0.2820700
669.9526, 0.2574340
670.4348, 0.1558230
670.9169, 3.1769998E-02
671.3990, 7.9790000E-03
671.8811, 0.1286120
672.3632, 0.2450130
672.8453, 0.4060990
673.3275, 0.5116060
673.8096, 0.4616990
674.2917, 0.3291970
674.7738, 0.2396680
675.2559, 0.2422140
675.7380, 0.2910310
676.2202, 0.3418230
676.7023, 0.3923910
677.1844, 0.4146070
677.6665, 0.3967570
678.1486, 0.3870500
678.6307, 0.4091690
679.1129, 0.4557070
679.5950, 0.5126710
680.0771, 0.5832920
680.5592, 0.6509600
681.0413, 0.7169180
681.5234, 0.7736390
682.0056, 0.8264990
682.4877, 0.8640320
682.9698, 0.8414820
683.4519, 0.7425750
683.9340, 0.6511620
684.4161, 0.7243070
684.8983, 0.9869400
685.3804, 1.106962
685.8625, 1.020057
686.3446, 0.9034300
686.8267, 0.7832370
687.3088, 0.6999080
687.7910, 0.7352660
688.2731, 0.9110130
688.7552, 1.003305
689.2373, 0.8351690
689.7194, 0.6332390
690.2015, 0.6667870
690.6837, 0.8714970
691.1658, 0.9775250
691.6479, 0.8690920
692.1300, 0.7145250
692.6121, 0.7948080
693.0942, 1.177098
693.5764, 1.304108
694.0585, 0.9527350
694.5406, 0.6401760
695.0227, 0.4950330
695.5048, 0.4640330
695.9869, 0.5205500
696.4691, 0.6642060
696.9512, 0.7810650
697.4333, 0.7636440
697.9154, 0.6999720
698.3975, 0.7319200
698.8796, 0.8337550
699.3618, 0.8594130
699.8439, 0.7547290
700.3260, 0.6210040
700.8081, 0.5988100
701.2902, 0.7053230
701.7723, 0.7601870
702.2545, 0.7496180
702.7366, 0.7016530
703.2187, 0.5614200
703.7008, 0.4242320
704.1829, 0.3945920
704.6650, 0.4703920
705.1472, 0.5524980
705.6293, 0.5894930
706.1114, 0.5990060
706.5935, 0.6046860
707.0756, 0.6025500
707.5577, 0.5664910
708.0399, 0.4840810
708.5220, 0.3975070
709.0041, 0.3440380
709.4862, 0.3235350
709.9683, 0.3300210
710.4504, 0.3976780
710.9326, 0.4503850
711.4147, 0.4855280
711.8968, 0.4934500
712.3789, 0.4395370
712.8610, 0.3443880
713.3431, 0.2909020
713.8253, 0.3541130
714.3074, 0.4556370
714.7895, 0.4725700
715.2716, 0.4117550
715.7537, 0.3066570
716.2358, 0.1461210
716.7180, 4.0362999E-02
717.2001, 0.1105050
717.6822, 0.3178760
718.1643, 0.4049590
718.6464, 0.2455600
719.1285, 0.1533360
719.6107, 0.1952710
720.0928, 0.2761040
720.5749, 0.3745850
721.0570, 0.4664980
721.5391, 0.4666000
722.0212, 0.3054380
722.5034, 0.1066100
722.9855, 2.8950000E-02
723.4676, 5.8522001E-02
723.9497, 0.1261120
724.4318, 0.2364730
724.9139, 0.3137750
725.3961, 0.3207990
725.8782, 0.2836020
726.3603, 0.2745830
726.8424, 0.3204560
727.3245, 0.3319160
727.8066, 0.2697240
728.2888, 0.2060700
728.7709, 0.1579740
729.2530, 0.1429120
729.7351, 0.2099630
730.2172, 0.3642890
730.6993, 0.5046990
731.1815, 0.5020360
731.6636, 0.3943530
732.1457, 0.3135100
732.6278, 0.2615760
733.1099, 0.2713400
733.5920, 0.3855520
734.0742, 0.5218530
734.5563, 0.5482420
735.0384, 0.4375670
735.5205, 0.3472120
736.0026, 0.2703890
736.4847, 0.2215020
736.9669, 0.2256590
737.4490, 0.2497110
737.9311, 0.2612400
738.4132, 0.2519980
738.8953, 0.2226720
739.3774, 0.1622090
739.8596, 9.1444999E-02
740.3417, 5.7363000E-02
740.8238, 5.7723999E-02
741.3059, 5.4014001E-02
741.7880, 3.0708000E-02
742.2701, 2.2572000E-02
742.7523, 7.0251003E-02
743.2344, 0.1688270
743.7165, 0.2400260
744.1986, 0.3012540
744.6807, 0.3133620
745.1628, 0.2045930
745.6450, 0.1000670
746.1271, 0.1216710
746.6092, 0.2330840
747.0913, 0.3044710
747.5734, 0.2658810
748.0555, 0.1916540
748.5377, 0.1804490
749.0198, 0.2117480
749.5019, 0.1963020
749.9840, 0.1206260
750.4661, 6.6316001E-02
750.9482, 7.8345999E-02
751.4304, 0.1501190
751.9125, 0.2786080
752.3946, 0.5557240
752.8767, 0.6656450
753.3588, 0.4827250
753.8409, 0.2856260
754.3231, 0.1787500
754.8052, 0.1333530
755.2873, 9.6499003E-02
755.7694, 5.6290001E-02
756.2515, 5.0128002E-02
756.7336, 0.1276610
757.2158, 0.2465840
757.6979, 0.3567820
758.1800, 0.4484840
758.6621, 0.4617340
759.1442, 0.3695230
759.6263, 0.2486300
760.1085, 0.1909030
760.5906, 0.1968050
761.0727, 0.1779010
761.5548, 0.1025520
762.0369, 4.9699999E-02
762.5190, 1.5851000E-02
763.0012, 1.9756000E-02
763.4833, 9.2055000E-02
763.9654, 0.2172370
764.4475, 0.3459640
764.9296, 0.5044480
765.4117, 0.5796840
765.8939, 0.3658740
766.3760, 4.1719001E-02
766.8581, 5.5069998E-03
767.3402, 0.2380170
767.8223, 0.4316030
768.3044, 0.3507540
768.7866, 0.1100800
769.2687, 6.2179998E-03
769.7508, 9.3924001E-02
770.2329, 0.1115500
770.7150, 1.3658000E-02
771.1971, 0.1171480
771.6793, 0.1103220
772.1614, 4.5643002E-02
772.6435, 1.5794000E-02
773.1256, 6.9201000E-02
773.6077, 9.9890001E-02
774.0898, 6.8506002E-02
774.5720, 4.0984999E-02
775.0541, 8.3492003E-02
775.5362, 0.1712410
776.0183, 0.2741930
776.5004, 0.3737310
776.9825, 0.4033590
777.4647, 0.2698370
777.9468, 2.0903001E-02
778.4289, 9.8926999E-02
778.9110, 7.4124001E-02
779.3931, 4.8059998E-03
779.8752, 0.1745060
780.3574, 0.3030140
780.8395, 0.2151980
781.3216, 3.0898999E-02
781.8037, 0.1388760
782.2858, 4.2409999E-03
782.7679, 0.1384390
783.2501, 0.2029230
783.7322, 0.2327150
784.2143, 0.2568440
784.6964, 0.2715440
785.1785, 0.2542710
785.6606, 0.1933590
786.1428, 0.1189380
786.6249, 4.4367999E-02
787.1070, 1.4039000E-02
787.5891, 3.6249999E-02
788.0712, 0.2049450
788.5533, 0.3437550
789.0355, 0.3793110
789.5176, 0.3653610
789.9997, 0.3837460
790.4818, 0.4411270
790.9639, 0.4891740
791.4460, 0.5465630
791.9282, 0.5714220
792.4103, 0.5646500
792.8924, 0.5142530
793.3745, 0.3710320
793.8566, 0.1620420
794.3387, 1.5001000E-02
794.8209, 1.0660000E-03
795.3030, 6.0608000E-02
795.7851, 0.1740440
796.2672, 0.3080930
796.7493, 0.3882460
797.2314, 0.4052780
797.7136, 0.3885150
798.1957, 0.3544270
798.6778, 0.3118740
799.1599, 0.2786060
799.6420, 0.2486390
800.1241, 0.2547890
800.6063, 0.3289230
801.0884, 0.3925400
801.5705, 0.4053750
802.0526, 0.3885620
802.5347, 0.3563240
803.0168, 0.3062610
803.4990, 0.2860110
803.9811, 0.3698660
804.4632, 0.4249960
804.9453, 0.3292980
805.4274, 0.1680990
805.9095, 7.0326999E-02
806.3917, 5.7505999E-02
806.8738, 6.4691998E-02
807.3559, 3.8279999E-02
807.8380, 3.9610001E-03
808.3201, 2.2884000E-02
808.8022, 9.3616001E-02
809.2844, 0.1889680
809.7665, 0.3207010
810.2486, 0.3971860
810.7307, 0.3347510
811.2128, 0.1834050
811.6949, 0.1024650
812.1771, 0.1199440
812.6592, 0.1588870
813.1413, 0.2354560
813.6234, 0.3147120
814.1055, 0.4187610
814.5876, 0.4984670
815.0698, 0.4562880
815.5519, 0.2840800
816.0340, 0.1559510
816.5161, 0.2004850
816.9982, 0.3303900
817.4803, 0.5084950
817.9625, 0.6819790
818.4446, 0.6789660
818.9267, 0.4746890
819.4088, 0.2639810
819.8909, 0.2181230
820.3730, 0.2953250
820.8552, 0.3543010
821.3373, 0.3956430
821.8194, 0.4209530
822.3015, 0.4428700
822.7836, 0.4265220
823.2657, 0.2984840
823.7479, 0.1353540
824.2300, 0.1068740
824.7121, 0.2680860
825.1942, 0.3636200
825.6763, 0.2795090
826.1584, 0.1797490
826.6406, 0.1593210
827.1227, 0.1823430
827.6048, 0.1840320
828.0869, 0.1558070
828.5690, 0.1521140
829.0511, 0.2329700
829.5333, 0.3427960
830.0154, 0.3725270
830.4975, 0.3352910
830.9796, 0.2855340
831.4617, 0.2318100
831.9438, 0.2006260
832.4260, 0.2159760
832.9081, 0.2601390
833.3902, 0.2775550
833.8723, 0.2542050
834.3544, 0.2404720
834.8365, 0.2529290
835.3187, 0.2538830
835.8008, 0.1974330
836.2829, 0.1319610
836.7650, 0.1520500
837.2471, 0.2707290
837.7292, 0.3462650
838.2114, 0.3177530
838.6935, 0.2491460
839.1756, 0.1263790
839.6577, 8.4199999E-03
840.1398, 2.3305001E-02
840.6219, 0.1527500
841.1041, 0.2639890
841.5862, 0.2609460
842.0683, 0.2140850
842.5504, 0.2891910
843.0325, 0.4573910
843.5146, 0.5001190
843.9968, 0.3825860
844.4789, 0.2825440
844.9610, 0.3000580
845.4431, 0.3793210
845.9252, 0.4166240
846.4073, 0.4065520
846.8895, 0.3777510
847.3716, 0.3061280
847.8537, 0.2480620
848.3358, 0.1751430
848.8179, 0.1507250
849.3000, 0.2881970
849.7822, 0.5425910
850.2643, 0.6745610
850.7464, 0.5176770
851.2285, 0.3692110
851.7106, 0.4573500
852.1927, 0.6067410
852.6749, 0.5802280
853.1570, 0.4189750
853.6391, 0.3400870
854.1212, 0.4424820
854.6033, 0.6121780
855.0854, 0.7167600
855.5676, 0.7549640
856.0497, 0.6693640
856.5318, 0.4549690
857.0139, 0.2572450
857.4960, 0.1080770
857.9781, 5.3504001E-02
858.4603, 0.1721460
858.9424, 0.4409350
859.4245, 0.5894010
859.9066, 0.5618130
860.3887, 0.5081310
860.8708, 0.3937000
861.3530, 0.3033120
861.8351, 0.2904090
862.3172, 0.3298660
862.7993, 0.3864360
863.2814, 0.4655570
863.7635, 0.4896270
864.2457, 0.3441160
864.7278, 0.2093180
865.2099, 0.2872670
865.6920, 0.4558650
866.1741, 0.4867510
866.6563, 0.3440050
867.1384, 0.1625270
867.6205, 3.0709000E-02
868.1026, 4.6038002E-02
868.5847, 4.0020999E-02
869.0668, 3.7328001E-02
869.5490, 0.1114370
870.0311, 0.1717820
870.5132, 0.2413630
870.9953, 0.3409460
871.4774, 0.4405230
871.9595, 0.4796010
872.4417, 0.4532640
872.9238, 0.4103440
873.4059, 0.3417770
873.8880, 0.2829950
874.3701, 0.2472110
874.8522, 0.2077700
875.3344, 0.1207920
875.8165, 5.0120000E-03
876.2986, 2.8694000E-02
876.7807, 0.1038880
877.2628, 0.2286170
877.7449, 0.3101650
878.2271, 0.3364420
878.7092, 0.2424800
879.1913, 9.4296999E-02
879.6734, 4.8117001E-02
880.1555, 0.1560720
880.6376, 0.2751320
881.1198, 0.2413810
881.6019, 0.1440060
882.0840, 0.1784790
882.5661, 0.3057630
883.0482, 0.3316650
883.5303, 0.2094130
884.0125, 7.7252999E-02
884.4946, 5.1718000E-02
884.9767, 0.1064360
885.4588, 0.1668080
885.9409, 0.2449160
886.4230, 0.2519840
886.9052, 0.1489970
887.3873, 4.8321001E-02
887.8694, 7.7149998E-03
888.3515, 2.0306000E-02
888.8336, 1.6938001E-02
889.3157, 0.1116770
889.7979, 0.1976400
890.2800, 0.2906440
890.7621, 0.3527460
891.2442, 0.3547150
891.7263, 0.3398320
892.2084, 0.3452040
892.6906, 0.3626780
893.1727, 0.3441090
893.6548, 0.2574350
894.1369, 0.1882570
894.6190, 0.2343880
895.1011, 0.2996900
895.5833, 0.2336130
896.0654, 9.3935996E-02
896.5475, 6.9750004E-02
897.0296, 0.2049080
897.5117, 0.3166600
897.9938, 0.2047010
898.4760, 2.3099000E-02
898.9581, 5.6659002E-02
899.4402, 8.4931001E-02
899.9223, 0.1595980
900.4044, 0.1213590
900.8865, 8.0531001E-02
901.3687, 0.1123980
901.8508, 0.1734420
902.3329, 0.1605900
902.8150, 4.2218000E-02
903.2971, 1.2846000E-02
903.7792, 0.1401560
904.2614, 0.2399620
904.7435, 0.2450490
905.2256, 0.2105230
905.7077, 0.1633060
906.1898, 0.1143660
906.6719, 0.1237020
907.1541, 0.2598800
907.6362, 0.3568910
908.1183, 0.3851080
908.6004, 0.3488840
909.0825, 0.2021860
909.5646, 2.6822999E-02
910.0468, 2.1911999E-02
910.5289, 8.8459000E-02
911.0110, 0.1814370
911.4931, 6.3300997E-02
911.9752, 6.7139998E-02
912.4573, 6.8912998E-02
912.9395, 0.3377680
913.4216, 0.4508120
913.9037, 0.3816620
914.3858, 0.2902360
914.8679, 0.2715840
915.3500, 0.2962220
915.8321, 0.3237220
916.3142, 0.3522050
916.7963, 0.3741960
917.2784, 0.3909850
917.7606, 0.3618580
918.2427, 0.2637140
918.7248, 0.1463890
919.2069, 5.7716999E-02
919.6890, 4.4249999E-03
920.1711, 4.7649000E-02
920.6533, 0.2717750
921.1354, 0.3859660
921.6175, 0.2800870
922.0996, 0.1759110
922.5817, 0.2318910
923.0638, 0.3415330
923.5460, 0.3324350
924.0281, 0.1821860
924.5102, 7.9749003E-02
924.9923, 8.8044003E-02
925.4744, 0.1017670
925.9565, 7.9768002E-02
926.4387, 4.4808000E-02
926.9208, 1.9672001E-02
927.4029, 3.8970001E-03
927.8850, 1.1769000E-02
928.3671, 3.5985000E-02
928.8492, 3.3392999E-02
929.3314, 7.7188998E-02
929.8135, 0.1820580
930.2956, 0.1047230
930.7777, 6.8875998E-02
931.2598, 0.1385960
931.7419, 6.1546002E-02
932.2241, 7.7069998E-02
932.7062, 0.2305480
933.1883, 0.3573190
933.6704, 0.3513260
934.1525, 0.2464030
934.6346, 0.2119050
935.1168, 0.2602540
935.5989, 0.2893760
936.0810, 0.2497640
936.5631, 0.1853830
937.0452, 0.1567660
937.5273, 0.1613150
938.0095, 0.1514630
938.4916, 0.1172340
938.9737, 0.1093340
939.4558, 0.1384090
939.9379, 0.1973270
940.4200, 0.3165140
940.9022, 0.4433090
941.3843, 0.4332100
941.8664, 0.2182400
942.3485, 7.5111002E-02
942.8306, 2.7252000E-02
943.3127, 1.8485000E-02
943.7949, 6.1066002E-02
944.2770, 0.1151870
944.7591, 0.1552980
945.2412, 0.1764480
945.7233, 0.1675660
946.2054, 8.4714003E-02
946.6876, 4.2955998E-02
947.1697, 0.1488730
947.6518, 0.2441210
948.1339, 0.1664690
948.6160, 1.7397000E-02
949.0981, 2.6783001E-02
949.5803, 6.0268000E-02
950.0624, 0.1553190
950.5445, 0.1736860
951.0266, 0.1832800
951.5087, 0.2861020
951.9908, 0.4103220
952.4730, 0.4218190
952.9551, 0.3332830
953.4372, 0.2341300
953.9193, 0.1646230
954.4014, 0.1422250
954.8835, 0.2039680
955.3657, 0.3050420
955.8478, 0.2758630
956.3299, 0.1386310
956.8120, 7.5043000E-02
957.2941, 0.1269320
957.7762, 0.1893780
958.2584, 0.1964020
958.7405, 0.1741690
959.2226, 0.1763640
959.7047, 0.2053130
960.1868, 0.2178600
960.6689, 0.2090100
961.1511, 0.2125130
961.6332, 0.2539190
962.1153, 0.2804400
962.5974, 0.2263950
963.0795, 0.1223560
963.5616, 0.1089740
964.0438, 0.2846790
964.5259, 0.3365830
965.0080, 7.2414003E-02
965.4901, 6.6583999E-02
965.9722, 0.2505170
966.4543, 0.6345270
966.9365, 0.6280990
967.4186, 0.2713240
967.9007, 4.5430999E-02
968.3828, 9.9982999E-02
968.8649, 0.1716420
969.3470, 0.2332050
969.8292, 0.2612080
970.3113, 0.2264740
970.7934, 0.1662950
971.2755, 0.1422570
971.7576, 0.1651410
972.2397, 0.2091900
972.7219, 0.3095620
973.2040, 0.3725090
973.6861, 0.3135540
974.1682, 0.2024350
974.6503, 9.0333000E-02
975.1324, 2.6610000E-03
975.6146, 2.3957999E-02
976.0967, 2.2800000E-02
976.5788, 0.1135350
977.0609, 0.2791050
977.5430, 0.4201610
978.0251, 0.3327460
978.5073, 0.1239560
978.9894, 5.4191999E-02
979.4715, 0.1443970
979.9536, 0.2541530
980.4357, 0.3083820
980.9178, 0.3159350
981.4000, 0.2789710
981.8821, 0.2063740
982.3642, 0.1092230
982.8463, 1.6730000E-03
983.3284, 1.4642000E-02
983.8105, 9.8959997E-02
984.2927, 0.2180850
984.7748, 0.2535240
985.2569, 0.2319790
985.7390, 0.2088960
986.2211, 0.1835870
986.7032, 0.1612970
987.1854, 0.1441590
987.6675, 0.1319790
988.1496, 0.1234950
988.6317, 0.1220250
989.1138, 0.1400390
989.5959, 0.1790780
990.0781, 0.2081130
990.5602, 0.2287160
991.0423, 0.2334100
991.5244, 0.2079100
992.0065, 0.1918420
992.4886, 0.2097810
992.9708, 0.2358500
993.4529, 0.2390520
993.9350, 0.2218950
994.4171, 0.2146150
994.8992, 0.2234130
995.3813, 0.2324900
995.8635, 0.2537760
996.3456, 0.2611350
996.8277, 0.2202200
997.3098, 0.1765840
997.7919, 0.1932890
998.2740, 0.2697790
998.7562, 0.3383900
999.2383, 0.4155860
999.7204, 0.4424420
1000.203, 0.3643240
1000.685, 0.2848510
1001.167, 0.3126830
1001.649, 0.3714080
1002.131, 0.3040370
1002.613, 9.6018001E-02
1003.095, 4.0514998E-02
1003.577, 2.8774001E-02
1004.059, 0.1421430
1004.542, 0.2382280
1005.024, 0.3124540
1005.506, 0.3650590
1005.988, 0.3897950
1006.470, 0.3667840
1006.952, 0.2914640
1007.434, 0.2152740
1007.916, 0.1551070
1008.398, 0.1188750
1008.881, 0.1314680
1009.363, 0.1631360
1009.845, 0.1796890
1010.327, 0.1725710
1010.809, 0.1166850
1011.291, 6.8040001E-03
1011.773, 6.3102998E-02
1012.255, 3.5978999E-02
1012.738, 0.1964910
1013.220, 0.2413110
1013.702, 0.2145670
1014.184, 0.2331690
1014.666, 0.2988880
1015.148, 0.3225760
1015.630, 0.2606400
1016.112, 0.1834530
1016.594, 0.1951960
1017.077, 0.2475710
1017.559, 0.1627310
1018.041, 1.0687000E-02
1018.523, 1.5013000E-02
1019.005, 0.2670800
1019.487, 0.4412850
1019.969, 0.3608020
1020.451, 0.1809900
1020.934, 0.1402680
1021.416, 0.2087230
1021.898, 0.1966360
1022.380, 0.1075480
1022.862, 8.1736997E-02
1023.344, 0.1457820
1023.826, 0.1978480
1024.308, 0.1558740
1024.791, 8.3608001E-02
1025.273, 9.6081004E-02
1025.755, 0.1912310
1026.237, 0.3312590
1026.719, 0.5250060
1027.201, 0.5620110
1027.683, 0.3625350
1028.165, 0.1447570
1028.647, 4.6285000E-02
1029.130, 4.3512002E-02
1029.612, 0.1062030
1030.094, 0.2477000
1030.576, 0.2580900
1031.058, 6.4317003E-02
1031.540, 1.1622000E-02
1032.022, 0.2584850
1032.504, 0.4638840
1032.986, 0.3522040
1033.469, 7.1464002E-02
1033.951, 3.6386002E-02
1034.433, 5.4623000E-02
1034.915, 0.1546320
1035.397, 0.3070350
1035.879, 0.3688060
1036.361, 0.2395880
1036.843, 0.1167900
1037.326, 0.1648370
1037.808, 0.3053170
1038.290, 0.3516720
1038.772, 0.2769220
1039.254, 0.2301920
1039.736, 0.2370840
1040.218, 0.2312100
1040.700, 0.1745770
1041.182, 0.1263560
1041.665, 0.1404280
1042.147, 0.1909130
1042.629, 0.2256360
1043.111, 0.2472850
1043.593, 0.2420530
1044.075, 0.1537930
1044.557, 0.1160160
1045.039, 0.2022400
1045.521, 0.3012870
1046.004, 0.3750270
1046.486, 0.3958140
1046.968, 0.2778070
1047.450, 3.1137001E-02
1047.932, 0.2051330
1048.414, 0.1356790
1048.896, 2.9726001E-02
1049.378, 9.4159998E-02
1049.861, 0.2022710
1050.343, 0.2847720
1050.825, 0.3311530
1051.307, 0.3150630
1051.789, 0.2266820
1052.271, 0.1394900
1052.753, 3.5245001E-02
1053.235, 2.1903999E-02
1053.718, 1.5100000E-02
1054.200, 8.1730999E-02
1054.682, 0.1675400
1055.164, 0.2338140
1055.646, 0.1854600
1056.128, 8.1800000E-04
1056.610, 8.7459996E-02
1057.092, 7.8128003E-02
1057.574, 0.2322830
1058.057, 0.2669060
1058.539, 0.2709040
1059.021, 0.3274090
1059.503, 0.3984850
1059.985, 0.3965130
1060.467, 0.3083580
1060.949, 0.2381650
1061.431, 0.2434720
1061.913, 0.2562210
1062.396, 0.2673300
1062.878, 0.2601140
1063.360, 0.2070480
1063.842, 0.1450840
1064.324, 0.1396520
1064.806, 0.1984090
1065.288, 0.2644000
1065.770, 0.3438590
1066.253, 0.3890240
1066.735, 0.3650050
1067.217, 0.3143520
1067.699, 0.2258210
1068.181, 0.1546460
1068.663, 0.2181630
1069.145, 0.4079940
1069.627, 0.5093670
1070.109, 0.4068500
1070.592, 0.2839470
1071.074, 0.1817690
1071.556, 0.1345320
1072.038, 0.2307200
1072.520, 0.3634180
1073.002, 0.3419440
1073.484, 0.1781970
1073.966, 0.1132370
1074.448, 0.2881990
1074.931, 0.4548530
1075.413, 0.4873020
1075.895, 0.4757730
1076.377, 0.4874690
1076.859, 0.4994740
1077.341, 0.4682560
1077.823, 0.3999640
1078.305, 0.3432780
1078.788, 0.3133410
1079.270, 0.3036100
1079.752, 0.3488190
1080.234, 0.3765940
1080.716, 0.2897000
1081.198, 0.1912540
1081.680, 0.2613440
1082.162, 0.4380800
1082.644, 0.4333590
1083.127, 9.8081999E-02
1083.609, 0.1102360
1084.091, 0.1449160
1084.573, 0.4341890
1085.055, 0.5038830
1085.537, 0.4653490
1086.019, 0.4181860
1086.501, 0.3815880
1086.984, 0.3629810
1087.466, 0.3652940
1087.948, 0.3749020
1088.430, 0.4012590
1088.912, 0.4145720
1089.394, 0.3849440
1089.876, 0.3479120
1090.358, 0.3335950
1090.840, 0.3381940
1091.323, 0.3477350
1091.805, 0.3564550
1092.287, 0.3767370
1092.769, 0.3851980
1093.251, 0.4338290
1093.733, 0.6443310
1094.215, 0.8065300
1094.697, 0.7073080
1095.179, 0.4682630
1095.662, 0.2749180
1096.144, 0.1600860
1096.626, 0.1324190
1097.108, 0.2568160
1097.590, 0.3712430
1098.072, 0.4190330
1098.554, 0.4448870
1099.036, 0.4727930
1099.519, 0.4982010
1100.001, 0.5379580
1100.483, 0.5745480
1100.965, 0.5006900
1101.447, 0.1727640
1101.929, 1.8800001E-04
1102.411, 0.2292050
1102.893, 0.4667580
1103.375, 0.5153860
1103.858, 0.4900340
1104.340, 0.5233160
1104.822, 0.5948620
1105.304, 0.5953510
1105.786, 0.4766920
1106.268, 0.3799250
1106.750, 0.3156260
1107.232, 0.2926760
1107.714, 0.3455390
1108.197, 0.4088390
1108.679, 0.4444380
1109.161, 0.4482130
1109.643, 0.4059120
1110.125, 0.3048520
1110.607, 0.2401800
1111.089, 0.2404310
1111.571, 0.2490960
1112.054, 0.2580330
1112.536, 0.2670290
1113.018, 0.2691040
1113.500, 0.2718320
1113.982, 0.3244330
1114.464, 0.4237410
1114.946, 0.4646880
1115.428, 0.3867000
1115.911, 0.3369570
1116.393, 0.3600610
1116.875, 0.3601890
1117.357, 0.2817480
1117.839, 0.1781710
1118.321, 0.1009830
1118.803, 4.8852000E-02
1119.285, 7.2880001E-03
1119.767, 8.1095003E-02
1120.250, 1.1204000E-02
1120.732, 0.4376620
1121.214, 0.7066020
1121.696, 0.6108560
1122.178, 0.4234680
1122.660, 0.3636000
1123.142, 0.3751980
1123.624, 0.3019710
1124.106, 0.1187660
1124.589, 5.5808999E-02
1125.071, 0.1563900
1125.553, 0.2234060
1126.035, 0.2037530
1126.517, 0.1985920
1126.999, 0.2813920
1127.481, 0.3797840
1127.963, 0.3723290
1128.446, 0.2702190
1128.928, 0.1979930
1129.410, 0.1561710
1129.892, 0.1746980
1130.374, 0.2425360
1130.856, 0.3248840
1131.338, 0.4091230
1131.820, 0.4547620
1132.302, 0.4125400
1132.785, 0.3173740
1133.267, 0.2947460
1133.749, 0.3415530
1134.231, 0.3267560
1134.713, 0.2458650
1135.195, 0.1426740
1135.677, 3.0041000E-02
1136.159, 3.1307001E-02
1136.641, 6.2930002E-03
1137.124, 9.4083004E-02
1137.606, 0.1666660
1138.088, 0.2172630
1138.570, 0.2022460
1139.052, 0.1384260
1139.534, 0.1039670
1140.016, 0.1087830
1140.498, 0.1183970
1140.981, 0.1173570
1141.463, 0.1292180
1141.945, 0.2136070
1142.427, 0.3127470
1142.909, 0.3338680
1143.391, 0.3013570
1143.873, 0.2482350
1144.355, 0.1923710
1144.838, 0.1814080
1145.320, 0.2197220
1145.802, 0.2352040
1146.284, 0.1647620
1146.766, 0.1013020
1147.248, 0.1740080
1147.730, 0.2772060
1148.212, 0.2557710
1148.694, 0.1831180
1149.177, 0.2126740
1149.659, 0.3342710
1150.141, 0.4160570
1150.623, 0.4050530
1151.105, 0.3785120
1151.587, 0.3873160
1152.069, 0.3937500
1152.551, 0.3777690
1153.033, 0.3414530
1153.516, 0.2622660
1153.998, 0.1776900
1154.480, 0.1596150
1154.962, 0.2201760
1155.444, 0.2533260
1155.926, 0.1796250
1156.408, 0.1390620
1156.890, 0.2342650
1157.373, 0.3051640
1157.855, 0.2272180
1158.337, 9.9551000E-02
1158.819, 2.4707999E-02
1159.301, 7.8720003E-03
1159.783, 4.0477000E-02
1160.265, 0.1522890
1160.747, 0.2321120
1161.229, 0.2513220
1161.712, 0.2691900
1162.194, 0.3108590
1162.676, 0.3407890
1163.158, 0.3271570
1163.640, 0.2931040
1164.122, 0.2809590
1164.604, 0.2916780
1165.086, 0.2934050
1165.568, 0.2778480
1166.051, 0.2829330
1166.533, 0.3270580
1167.015, 0.3379940
1167.497, 0.2620060
1167.979, 0.2192880
1168.461, 0.3686810
1168.943, 0.6000020
1169.425, 0.5009140
1169.908, 5.3093001E-02
1170.390, 8.0912001E-02
1170.872, 0.1200290
1171.354, 0.2523390
1171.836, 0.2217100
1172.318, 0.1680470
1172.800, 0.1749050
1173.282, 0.2151990
1173.765, 0.2554200
1174.247, 0.2956890
1174.729, 0.3592600
1175.211, 0.4212200
1175.693, 0.3720710
1176.175, 0.2231480
1176.657, 7.3239997E-02
1177.139, 3.4210999E-02
1177.621, 7.2866999E-02
1178.104, 1.6520000E-03
1178.586, 0.1079500
1179.068, 0.1907490
1179.550, 0.2492860
1180.032, 0.2925700
1180.514, 0.3079860
1180.996, 0.2875540
1181.478, 0.2415960
1181.960, 0.2078530
1182.443, 0.2009820
1182.925, 0.1865020
1183.407, 9.3970999E-02
1183.889, 5.1282000E-02
1184.371, 0.1915250
1184.853, 0.3605730
1185.335, 0.4724980
1185.817, 0.4940580
1186.300, 0.3176390
1186.782, 1.9694000E-02
1187.264, 0.1563100
1187.746, 0.1328820
1188.228, 0.3027620
1188.710, 0.1665280
1189.192, 1.9200001E-02
1189.674, 7.4879996E-02
1190.156, 9.8797999E-02
1190.639, 3.7680001E-03
1191.121, 0.1515730
1191.603, 0.2436200
1192.085, 0.2695340
1192.567, 0.2667940
1193.049, 0.2193230
1193.531, 0.1936920
1194.013, 0.2102270
1194.495, 0.1962780
1194.978, 9.9437997E-02
1195.460, 2.6079999E-02
1195.942, 0.1003940
1196.424, 0.2570360
1196.906, 0.2988730
1197.388, 0.2310830
1197.870, 0.1393660
1198.352, 3.0603999E-02
1198.835, 1.0096000E-02
1199.317, 3.1892002E-02
1199.799, 0.1120690
1200.281, 0.2079210
1200.763, 0.2768020
1201.245, 0.2504370
1201.727, 0.1912430
1202.209, 0.2328310
1202.692, 0.3174260
1203.174, 0.3230820
1203.656, 0.2638960
1204.138, 0.1938780
1204.620, 0.1329570
1205.102, 0.1017330
1205.584, 0.1150030
1206.066, 0.1361040
1206.548, 0.1383420
1207.031, 0.1382150
1207.513, 0.1591960
1207.995, 0.1753470
1208.477, 0.1410680
1208.959, 8.6345002E-02
1209.441, 9.1852002E-02
1209.923, 0.1657680
1210.405, 0.1847040
1210.887, 3.1943001E-02
1211.370, 3.9917000E-02
1211.852, 7.1974002E-02
1212.334, 0.1937360
1212.816, 0.2629710
1213.298, 0.3021110
1213.780, 0.3204310
1214.262, 0.3262740
1214.744, 0.3418830
1215.227, 0.3693360
1215.709, 0.3821420
1216.191, 0.3717230
1216.673, 0.3918000
1217.155, 0.4632990
1217.637, 0.4859460
1218.119, 0.4069190
1218.601, 0.3270580
1219.083, 0.3587590
1219.566, 0.4309620
1220.048, 0.3304760
1220.530, 0.1165940
1221.012, 9.5177002E-02
1221.494, 0.2260840
1221.976, 0.2842850
1222.458, 0.2389950
1222.940, 0.1735450
1223.422, 0.1266330
1223.905, 9.8137997E-02
1224.387, 8.5925996E-02
1224.869, 9.7243004E-02
1225.351, 0.1844160
1225.833, 0.2600970
1226.315, 0.1559050
1226.797, 4.9410001E-03
1227.279, 2.0180000E-02
1227.762, 0.2089610
1228.244, 0.3237170
1228.726, 0.2970070
1229.208, 0.2526640
1229.690, 0.1968670
1230.172, 0.1744950
1230.654, 0.2578600
1231.136, 0.3188350
1231.619, 0.2489120
1232.101, 0.1152020
1232.583, 2.0841001E-02
1233.065, 3.7071001E-02
1233.547, 2.8774001E-02
1234.029, 7.8140996E-02
1234.511, 0.1371080
1234.993, 0.1293600
1235.475, 0.1574320
1235.958, 0.2657790
1236.440, 0.2906420
1236.922, 9.7493000E-02
1237.404, 7.2917998E-02
1237.886, 8.4377997E-02
1238.368, 0.4047540
1238.850, 0.4235510
1239.332, 0.2112740
1239.814, 9.2233002E-02
1240.297, 7.1332000E-02
1240.779, 4.7770001E-02
1241.261, 8.7670004E-03
1241.743, 4.3462999E-02
1242.225, 0.2011220
1242.707, 0.3596700
1243.189, 0.4604830
1243.671, 0.4711330
1244.154, 0.2515280
1244.636, 2.5455000E-02
1245.118, 8.3595999E-02
1245.600, 0.2862410
1246.082, 0.3827990
1246.564, 0.3502260
1247.046, 0.2762580
1247.528, 0.1456380
1248.010, 7.6600000E-02
1248.493, 0.1277210
1248.975, 0.1835040
1249.457, 0.2668230
1249.939, 0.3030820
1250.421, 0.2175990
1250.903, 0.1085610
1251.385, 0.1152740
1251.867, 0.2128760
1252.349, 0.2589940
1252.832, 0.2493920
1253.314, 0.2401160
1253.796, 0.2319390
1254.278, 0.2358280
1254.760, 0.2535510
1255.242, 0.2982780
1255.724, 0.3786340
1256.206, 0.4490880
1256.689, 0.4477240
1257.171, 0.4124190
1257.653, 0.3829820
1258.135, 0.3634480
1258.617, 0.3774210
1259.099, 0.4034790
1259.581, 0.3784770
1260.063, 0.3047700
1260.546, 0.3155000
1261.028, 0.4465640
1261.510, 0.5069170
1261.992, 0.3127000
1262.474, 0.1630670
1262.956, 0.1564440
1263.438, 0.2100970
1263.920, 0.3378380
1264.402, 0.4502490
1264.885, 0.4077070
1265.367, 0.2639800
1265.849, 0.2199630
1266.331, 0.3043050
1266.813, 0.3298150
1267.295, 0.2833180
1267.777, 0.2392280
1268.259, 0.2097560
1268.741, 0.1523260
1269.224, 4.3435998E-02
1269.706, 9.1680000E-03
1270.188, 0.1089260
1270.670, 0.2943500
1271.152, 0.3737960
1271.634, 0.3646280
1272.116, 0.2371220
1272.598, 8.2021996E-02
1273.081, 0.1546160
1273.563, 0.3954560
1274.045, 0.5440970
1274.527, 0.5246050
1275.009, 0.4125470
1275.491, 0.1624280
1275.973, 1.8484000E-02
1276.455, 0.1848930
1276.938, 0.3817950
1277.420, 0.5108300
1277.902, 0.5467980
1278.384, 0.4134400
1278.866, 0.2107950
1279.348, 0.1061210
1279.830, 9.4774999E-02
1280.312, 9.0549000E-02
1280.794, 9.9467002E-02
1281.276, 6.9894999E-02
1281.759, 3.3590000E-03
1282.241, 1.0282000E-02
1282.723, 8.6663000E-02
1283.205, 0.1722130
1283.687, 0.1784730
1284.169, 0.1378480
1284.651, 0.1640140
1285.133, 0.2506570
1285.616, 0.1897700
1286.098, 0.0000000E+00
##END=



