##NAMES=Nahcolite
##RRUFFID=R070237
##IDEAL CHEMISTRY=NaHCO_3_
##LOCALITY=Bureau of Mines Oil Shale Mine, East Rifle Creek area, Garfield County, Colorado, USA
##OWNER=RRUFF
##SOURCE=Michael Scott
##DESCRIPTION=Clear, colorless to brownish, massive
##STATUS=The identification of this mineral has been confirmed by X-ray diffraction and chemical analysis
##URL=rruff.info/R070237
##MEASURED CHEMISTRY=Na_1.00_HCO_3_ ; H and C not analyzed but assumed by stoichiometry
153.5188, 0.0000000E+00
154.0009, 104.1018
154.4830, 193.6207
154.9651, 247.2150
155.4472, 299.7926
155.9293, 177.4476
156.4115, 25.11911
156.8936, 10.68913
157.3757, 3.323233
157.8578, 131.6966
158.3399, 355.3253
158.8221, 656.5040
159.3042, 1025.007
159.7863, 1468.192
160.2684, 1960.185
160.7505, 2507.560
161.2326, 3105.411
161.7148, 3721.598
162.1969, 4417.195
162.6790, 5082.438
163.1611, 5611.492
163.6432, 6033.843
164.1253, 6252.891
164.6075, 6194.595
165.0896, 5848.738
165.5717, 5368.612
166.0538, 4767.614
166.5359, 4107.918
167.0180, 3486.159
167.5002, 2902.739
167.9823, 2386.998
168.4644, 1964.861
168.9465, 1655.096
169.4286, 1400.005
169.9107, 1170.217
170.3929, 968.1397
170.8750, 787.4595
171.3571, 625.2109
171.8392, 482.5654
172.3213, 363.0810
172.8034, 274.0023
173.2856, 205.1969
173.7677, 150.0674
174.2498, 106.2010
174.7319, 66.41291
175.2140, 21.75250
175.6961, 7.346454
176.1783, 17.36242
176.6604, 22.12794
177.1425, 17.41690
177.6246, 15.10938
178.1067, 14.54390
178.5888, 11.65763
179.0710, 0.3075050
179.5531, 15.59340
180.0352, 26.87265
180.5173, 28.02303
180.9994, 28.33195
181.4815, 29.71984
181.9637, 31.07540
182.4458, 24.40323
182.9279, 11.39613
183.4100, 8.196304
183.8921, 36.25342
184.3742, 73.37183
184.8564, 119.1860
185.3385, 174.3735
185.8206, 239.9796
186.3027, 307.1742
186.7848, 363.1471
187.2669, 410.3399
187.7491, 469.1285
188.2312, 549.6168
188.7133, 646.9138
189.1954, 744.1027
189.6775, 839.5580
190.1596, 939.6516
190.6418, 1052.475
191.1239, 1177.571
191.6060, 1313.791
192.0881, 1455.965
192.5702, 1606.232
193.0524, 1784.963
193.5345, 1993.331
194.0166, 2225.420
194.4987, 2465.463
194.9808, 2712.257
195.4629, 2986.870
195.9451, 3293.487
196.4272, 3635.823
196.9093, 4010.199
197.3914, 4415.385
197.8735, 4854.672
198.3556, 5340.324
198.8378, 5874.369
199.3199, 6429.999
199.8020, 7012.657
200.2841, 7624.051
200.7662, 8172.511
201.2483, 8674.201
201.7305, 9090.411
202.2126, 9316.896
202.6947, 9336.142
203.1768, 9230.838
203.6589, 9011.440
204.1410, 8655.747
204.6232, 8359.396
205.1053, 8140.768
205.5874, 7992.281
206.0695, 7898.559
206.5516, 7877.153
207.0337, 7865.948
207.5159, 7836.140
207.9980, 7800.462
208.4801, 7685.100
208.9622, 7465.157
209.4443, 7159.234
209.9264, 6847.074
210.4086, 6511.953
210.8907, 6202.204
211.3728, 5988.866
211.8549, 5834.996
212.3370, 5731.252
212.8191, 5672.129
213.3013, 5661.057
213.7834, 5722.946
214.2655, 5869.452
214.7476, 6069.575
215.2297, 6299.272
215.7118, 6553.038
216.1940, 6857.001
216.6761, 7220.504
217.1582, 7643.033
217.6403, 8079.638
218.1224, 8516.562
218.6045, 8979.279
219.0867, 9492.488
219.5688, 10055.05
220.0509, 10665.11
220.5330, 11322.81
221.0151, 12037.97
221.4972, 12732.57
221.9794, 13428.24
222.4615, 14085.87
222.9436, 14678.47
223.4257, 15222.71
223.9078, 15675.56
224.3899, 16046.93
224.8721, 16353.01
225.3542, 16428.78
225.8363, 16235.33
226.3184, 15850.11
226.8005, 15350.18
227.2827, 14716.59
227.7648, 14005.11
228.2469, 13212.25
228.7290, 12328.17
229.2111, 11459.77
229.6932, 10596.14
230.1754, 9766.852
230.6575, 9000.941
231.1396, 8314.368
231.6217, 7672.773
232.1038, 7065.492
232.5859, 6488.954
233.0681, 5966.300
233.5502, 5502.715
234.0323, 5090.062
234.5144, 4708.926
234.9965, 4359.178
235.4786, 4046.204
235.9608, 3777.477
236.4429, 3567.698
236.9250, 3352.073
237.4071, 3120.207
237.8892, 2888.581
238.3713, 2683.030
238.8535, 2510.969
239.3356, 2351.716
239.8177, 2199.809
240.2998, 2055.653
240.7819, 1921.675
241.2640, 1794.286
241.7462, 1675.471
242.2283, 1566.949
242.7104, 1471.402
243.1925, 1382.233
243.6746, 1297.292
244.1567, 1215.475
244.6389, 1140.611
245.1210, 1074.051
245.6031, 1014.059
246.0852, 958.9416
246.5673, 912.2415
247.0494, 865.5842
247.5316, 814.7006
248.0137, 754.9144
248.4958, 706.3488
248.9779, 674.5868
249.4600, 651.5768
249.9421, 622.3848
250.4243, 582.1259
250.9064, 544.1142
251.3885, 513.1439
251.8706, 490.2219
252.3527, 470.6871
252.8348, 457.0683
253.3170, 445.3348
253.7991, 426.8897
254.2812, 397.4342
254.7633, 370.7268
255.2454, 354.8450
255.7275, 355.4622
256.2097, 344.6060
256.6918, 314.0222
257.1739, 278.0326
257.6560, 263.9883
258.1381, 285.1878
258.6202, 302.0687
259.1024, 297.6584
259.5845, 266.0690
260.0666, 239.8257
260.5487, 219.2079
261.0308, 203.8833
261.5129, 192.4649
261.9951, 185.5671
262.4772, 181.9420
262.9593, 182.9902
263.4414, 190.8522
263.9235, 190.7401
264.4056, 180.2147
264.8878, 163.9808
265.3699, 148.6894
265.8520, 132.5081
266.3341, 121.9505
266.8162, 121.3928
267.2983, 133.2077
267.7805, 140.0698
268.2626, 141.1121
268.7447, 138.1472
269.2268, 134.4032
269.7089, 130.5851
270.1910, 123.4643
270.6732, 108.9806
271.1553, 85.45672
271.6374, 73.38454
272.1195, 76.05306
272.6016, 85.41682
273.0837, 88.58021
273.5659, 84.65234
274.0480, 79.39328
274.5301, 75.05421
275.0122, 71.65067
275.4943, 65.20884
275.9764, 54.26714
276.4586, 43.02851
276.9407, 38.82230
277.4228, 42.92076
277.9049, 46.51714
278.3870, 45.62127
278.8691, 40.63299
279.3513, 35.93962
279.8334, 31.38582
280.3155, 27.80395
280.7976, 27.26411
281.2798, 29.79914
281.7619, 30.84624
282.2440, 27.62881
282.7261, 21.04932
283.2082, 17.91594
283.6903, 18.97855
284.1725, 21.22074
284.6546, 20.88894
285.1367, 18.06116
285.6188, 14.26864
286.1009, 8.866005
286.5830, 3.275814
287.0652, 2.160069
287.5473, 5.624115
288.0294, 10.12670
288.5115, 11.72092
288.9936, 10.99173
289.4757, 10.87989
289.9579, 14.34025
290.4400, 18.66769
290.9221, 14.52325
291.4042, 1.298065
291.8863, 12.21128
292.3684, 15.10488
292.8506, 9.799170
293.3327, 7.331381
293.8148, 13.98028
294.2969, 24.39829
294.7790, 21.21931
295.2611, 23.74127
295.7433, 17.85772
296.2254, 6.389757
296.7075, 6.636787
297.1896, 9.968691
297.6717, 6.361789
298.1538, 14.06014
298.6360, 7.856051
299.1181, 17.37772
299.6002, 9.869846
300.0823, 2.388626
300.5644, 0.7156810
301.0465, 1.968582
301.5287, 2.725439
302.0108, 1.042910
302.4929, 8.297445
302.9750, 9.451174
303.4571, 3.337582
303.9392, 4.217672
304.4214, 2.149752
304.9035, 9.053524
305.3856, 13.22907
305.8677, 7.548711
306.3498, 5.144714
306.8319, 5.088795
307.3141, 5.751156
307.7962, 7.005903
308.2783, 8.067186
308.7604, 7.674325
309.2425, 5.415586
309.7246, 2.817244
310.2068, 6.8163998E-02
310.6889, 2.566234
311.1710, 1.712246
311.6531, 8.104435
312.1352, 1.913429
312.6173, 10.19656
313.0995, 13.84153
313.5816, 13.27407
314.0637, 5.896384
314.5458, 5.507556
315.0279, 2.189656
315.5100, 11.51671
315.9922, 16.61080
316.4743, 13.00151
316.9564, 3.732423
317.4385, 2.946499
317.9206, 4.624066
318.4027, 31.57322
318.8849, 46.30643
319.3670, 28.38955
319.8491, 9.767182
320.3312, 3.401546
320.8133, 12.74804
321.2954, 20.67885
321.7776, 21.19176
322.2597, 19.62522
322.7418, 21.69237
323.2239, 34.08980
323.7060, 44.48692
324.1881, 49.97123
324.6703, 50.26407
325.1524, 48.06036
325.6345, 40.53362
326.1166, 32.16544
326.5987, 26.48458
327.0808, 24.57573
327.5630, 24.20278
328.0451, 26.30199
328.5272, 30.42301
329.0093, 31.79909
329.4914, 30.20594
329.9735, 26.70851
330.4557, 21.69468
330.9378, 13.06447
331.4199, 6.482194
331.9020, 5.823935
332.3841, 7.761050
332.8662, 8.862556
333.3484, 8.131724
333.8305, 8.107027
334.3126, 11.68294
334.7947, 23.12744
335.2768, 23.17692
335.7589, 7.538613
336.2411, 34.45176
336.7232, 44.00679
337.2053, 31.26830
337.6874, 16.41679
338.1695, 9.257773
338.6516, 10.88244
339.1338, 11.59578
339.6159, 10.54351
340.0980, 9.336615
340.5801, 13.67333
341.0622, 19.72397
341.5443, 21.49101
342.0265, 12.36689
342.5086, 24.84507
342.9907, 28.82695
343.4728, 16.04737
343.9549, 21.58331
344.4370, 28.34104
344.9192, 25.11839
345.4013, 17.93536
345.8834, 15.40479
346.3655, 28.99060
346.8476, 39.74541
347.3297, 46.87398
347.8119, 48.71527
348.2940, 42.61462
348.7761, 30.97472
349.2582, 20.14184
349.7403, 15.65698
350.2225, 23.26777
350.7046, 23.47573
351.1867, 16.44754
351.6688, 14.49929
352.1509, 24.02237
352.6331, 32.12753
353.1152, 32.05479
353.5973, 19.51698
354.0794, 6.588998
354.5615, 12.68272
355.0436, 12.78495
355.5258, 11.22678
356.0079, 8.780340
356.4900, 7.924768
356.9721, 10.00155
357.4542, 18.60973
357.9363, 23.89384
358.4185, 16.26590
358.9006, 6.301351
359.3827, 18.21107
359.8648, 24.05186
360.3469, 24.55778
360.8290, 18.51230
361.3112, 4.767840
361.7933, 11.81779
362.2754, 14.15389
362.7575, 10.10712
363.2396, 2.236748
363.7217, 22.36029
364.2039, 35.99717
364.6860, 37.11578
365.1681, 25.61192
365.6502, 14.50460
366.1323, 0.4376530
366.6144, 8.057680
367.0966, 9.275558
367.5787, 5.125235
368.0608, 17.78185
368.5429, 21.66938
369.0250, 18.53569
369.5071, 18.66167
369.9893, 28.94071
370.4714, 36.51570
370.9535, 34.32742
371.4356, 15.39579
371.9177, 3.128005
372.3998, 1.910122
372.8820, 0.4901560
373.3641, 4.947403
373.8462, 16.99909
374.3283, 26.15455
374.8104, 27.24013
375.2925, 20.42565
375.7747, 14.29254
376.2568, 7.838829
376.7389, 3.334323
377.2210, 6.748367
377.7031, 18.94190
378.1852, 29.79278
378.6674, 37.57816
379.1495, 41.68529
379.6316, 38.35385
380.1137, 27.03703
380.5958, 16.30187
381.0779, 12.93062
381.5601, 15.05131
382.0422, 20.09949
382.5243, 29.75974
383.0064, 39.58481
383.4885, 41.32982
383.9706, 35.65848
384.4528, 28.05835
384.9349, 18.32364
385.4170, 10.14855
385.8991, 10.81878
386.3812, 23.72453
386.8633, 37.85417
387.3455, 40.53577
387.8276, 36.38486
388.3097, 36.03217
388.7918, 53.88726
389.2739, 71.92324
389.7560, 73.40028
390.2382, 55.65712
390.7203, 36.97565
391.2024, 26.42338
391.6845, 20.80885
392.1666, 16.21786
392.6487, 8.586636
393.1309, 4.114363
393.6130, 8.875075
394.0951, 21.52029
394.5772, 28.35449
395.0593, 20.33702
395.5414, 8.853640
396.0236, 1.031686
396.5057, 2.804757
396.9878, 1.845100
397.4699, 7.104538
397.9520, 21.28212
398.4341, 32.20024
398.9163, 39.49056
399.3984, 43.69295
399.8805, 44.85583
400.3626, 41.61947
400.8447, 39.23346
401.3268, 38.30759
401.8090, 37.17494
402.2911, 34.64158
402.7732, 31.82380
403.2553, 25.98663
403.7374, 13.56391
404.2195, 4.695688
404.7017, 2.743110
405.1838, 6.074449
405.6659, 22.79111
406.1480, 22.09795
406.6301, 3.444079
407.1122, 4.000885
407.5944, 8.466788
408.0765, 31.07674
408.5586, 39.25107
409.0407, 33.58273
409.5228, 26.60287
410.0049, 26.99393
410.4871, 32.26801
410.9692, 36.20440
411.4513, 38.51374
411.9334, 37.30157
412.4155, 27.02127
412.8976, 11.39449
413.3798, 0.9960170
413.8619, 3.726436
414.3440, 12.04685
414.8261, 19.25159
415.3082, 24.84255
415.7903, 27.88255
416.2725, 27.81194
416.7546, 25.87564
417.2367, 22.66615
417.7188, 14.31999
418.2009, 8.882660
418.6830, 14.61089
419.1652, 27.25052
419.6473, 32.05738
420.1294, 12.71894
420.6115, 6.515001
421.0937, 5.286201
421.5758, 10.98637
422.0579, 26.16030
422.5400, 24.66845
423.0221, 14.85163
423.5042, 10.36281
423.9864, 17.65349
424.4685, 22.73360
424.9506, 21.62959
425.4327, 14.42997
425.9148, 11.53208
426.3969, 15.56775
426.8791, 20.47835
427.3612, 20.57697
427.8433, 13.88918
428.3254, 8.416686
428.8075, 4.718090
429.2896, 3.206488
429.7718, 5.896166
430.2539, 13.45280
430.7360, 21.62995
431.2181, 30.03122
431.7002, 38.04901
432.1823, 35.14415
432.6645, 18.32683
433.1466, 1.156212
433.6287, 8.512215
434.1108, 5.180443
434.5929, 3.089314
435.0750, 20.08185
435.5572, 38.32187
436.0393, 43.05348
436.5214, 34.71813
437.0035, 22.15759
437.4856, 6.453076
437.9677, 7.394547
438.4499, 7.362271
438.9320, 2.545370
439.4141, 17.55043
439.8962, 21.22589
440.3783, 16.88096
440.8604, 13.27638
441.3426, 15.25043
441.8247, 18.35829
442.3068, 19.40234
442.7889, 16.91016
443.2710, 17.24397
443.7531, 27.61273
444.2353, 40.07679
444.7174, 45.53095
445.1995, 36.61206
445.6816, 27.17876
446.1637, 17.89820
446.6458, 9.185040
447.1280, 5.779592
447.6101, 11.65939
448.0922, 18.54314
448.5743, 21.57684
449.0564, 18.75978
449.5385, 17.38186
450.0207, 17.91248
450.5028, 20.25525
450.9849, 24.30780
451.4670, 30.94698
451.9491, 35.11472
452.4312, 33.16028
452.9134, 26.02017
453.3955, 22.25506
453.8776, 22.22738
454.3597, 22.86506
454.8418, 21.58676
455.3239, 19.37620
455.8061, 18.40112
456.2882, 19.30209
456.7703, 20.58807
457.2524, 20.21531
457.7345, 18.56336
458.2166, 17.14754
458.6988, 17.13289
459.1809, 17.68930
459.6630, 17.55034
460.1451, 16.34211
460.6272, 16.41519
461.1093, 22.58164
461.5915, 29.76733
462.0736, 30.96563
462.5557, 18.37401
463.0378, 7.383816
463.5199, 1.608827
464.0020, 0.9214750
464.4842, 5.476428
464.9663, 26.09584
465.4484, 45.17941
465.9305, 52.20472
466.4126, 37.36365
466.8947, 26.01576
467.3769, 18.11658
467.8590, 13.74051
468.3411, 13.28357
468.8232, 18.02291
469.3053, 24.52388
469.7874, 33.72272
470.2696, 45.07632
470.7517, 47.15280
471.2338, 37.84101
471.7159, 26.22190
472.1980, 19.28524
472.6801, 16.74083
473.1623, 16.71229
473.6444, 19.08421
474.1265, 23.90753
474.6086, 34.97055
475.0907, 50.54001
475.5728, 59.26192
476.0550, 49.13286
476.5371, 30.74133
477.0192, 21.16848
477.5013, 20.79286
477.9834, 22.70288
478.4655, 21.66802
478.9477, 19.77649
479.4298, 20.13539
479.9119, 23.51277
480.3940, 26.70597
480.8761, 28.60453
481.3582, 29.32095
481.8404, 29.57277
482.3225, 25.89073
482.8046, 23.50548
483.2867, 25.87172
483.7688, 36.91793
484.2509, 42.76435
484.7331, 38.13253
485.2152, 29.80040
485.6973, 23.68667
486.1794, 19.38213
486.6615, 18.33627
487.1436, 22.86216
487.6258, 31.04459
488.1079, 32.86486
488.5900, 26.53604
489.0721, 18.43485
489.5542, 11.16748
490.0363, 4.673397
490.5185, 1.770700
491.0006, 2.693778
491.4827, 4.864452
491.9648, 6.315090
492.4470, 7.789258
492.9291, 10.53868
493.4112, 14.56966
493.8933, 19.72396
494.3754, 28.17361
494.8575, 38.95960
495.3397, 45.16310
495.8218, 36.77114
496.3039, 24.12950
496.7860, 19.88542
497.2681, 27.09450
497.7502, 33.45953
498.2324, 30.23100
498.7145, 22.83502
499.1966, 18.68397
499.6787, 21.62158
500.1608, 26.44167
500.6429, 34.35128
501.1251, 44.68898
501.6072, 47.53640
502.0893, 35.89592
502.5714, 22.13893
503.0535, 11.47831
503.5356, 2.933306
504.0178, 8.4959999E-02
504.4999, 4.829742
504.9820, 13.51775
505.4641, 22.73981
505.9462, 34.11005
506.4283, 36.55680
506.9105, 22.51536
507.3926, 1.982062
507.8747, 5.177132
508.3568, 5.714563
508.8389, 3.803155
509.3210, 9.062273
509.8032, 11.28635
510.2853, 14.43731
510.7674, 19.42133
511.2495, 22.52506
511.7316, 18.14282
512.2137, 9.630951
512.6959, 3.240279
513.1780, 5.6333002E-02
513.6601, 1.462905
514.1422, 5.5741999E-02
514.6243, 3.961812
515.1064, 7.913713
515.5886, 9.925010
516.0707, 11.89503
516.5528, 15.32742
517.0349, 23.74457
517.5170, 27.82974
517.9991, 22.12911
518.4813, 12.08579
518.9634, 5.485399
519.4455, 2.475900
519.9276, 3.051159
520.4097, 8.213210
520.8918, 16.39631
521.3740, 21.96934
521.8561, 25.35730
522.3382, 25.30435
522.8203, 18.40484
523.3024, 5.228489
523.7845, 1.397829
524.2667, 0.1657670
524.7488, 5.335467
525.2309, 13.20899
525.7130, 22.31588
526.1951, 28.17971
526.6772, 28.01695
527.1594, 24.24916
527.6415, 19.09659
528.1236, 13.20140
528.6057, 8.009654
529.0878, 2.447209
529.5699, 1.399574
530.0521, 1.686162
530.5342, 2.534378
531.0163, 7.547156
531.4984, 15.19133
531.9805, 22.13053
532.4626, 24.84131
532.9448, 18.94829
533.4269, 13.35848
533.9090, 8.125851
534.3911, 4.265327
534.8732, 5.450903
535.3553, 15.38037
535.8375, 22.25737
536.3196, 19.11829
536.8017, 5.082422
537.2838, 0.8036890
537.7659, 8.837170
538.2480, 18.08457
538.7302, 13.40404
539.2123, 2.537404
539.6944, 4.242253
540.1765, 2.720954
540.6586, 9.988932
541.1407, 18.05553
541.6229, 21.73019
542.1050, 24.21688
542.5871, 26.91125
543.0692, 29.21794
543.5513, 30.60912
544.0334, 31.03769
544.5156, 30.73901
544.9977, 29.04159
545.4798, 26.85881
545.9619, 25.15964
546.4440, 23.96742
546.9261, 23.51274
547.4083, 26.32872
547.8904, 29.26958
548.3725, 26.34400
548.8546, 12.50389
549.3367, 1.273814
549.8188, 1.885549
550.3010, 2.322795
550.7831, 0.8584480
551.2652, 5.752474
551.7473, 11.49241
552.2294, 12.01983
552.7115, 7.516429
553.1937, 3.927357
553.6758, 1.370375
554.1579, 1.021222
554.6400, 6.827567
555.1221, 16.30742
555.6042, 21.95774
556.0864, 16.92365
556.5685, 11.24692
557.0506, 17.73507
557.5327, 32.69911
558.0148, 42.28175
558.4969, 35.58088
558.9791, 25.21536
559.4612, 17.26575
559.9433, 12.04196
560.4254, 8.813703
560.9075, 9.785518
561.3896, 12.12035
561.8718, 13.34544
562.3539, 11.90850
562.8360, 12.70018
563.3181, 18.14543
563.8002, 24.90966
564.2823, 23.77935
564.7645, 12.73512
565.2466, 2.715230
565.7287, 0.8103500
566.2108, 0.5230110
566.6929, 0.7974180
567.1750, 0.1423440
567.6572, 0.5742770
568.1393, 1.491755
568.6214, 7.862356
569.1035, 5.732415
569.5856, 5.634293
570.0677, 18.75292
570.5499, 16.92243
571.0320, 6.671317
571.5141, 1.680535
571.9962, 1.948938
572.4783, 2.031735
572.9604, 2.875773
573.4426, 11.27352
573.9247, 13.49770
574.4068, 1.607940
574.8889, 10.99566
575.3710, 8.161425
575.8531, 9.828451
576.3353, 19.74944
576.8174, 9.446242
577.2995, 1.779130
577.7816, 2.993612
578.2637, 15.24298
578.7458, 26.31413
579.2280, 25.39149
579.7101, 18.06137
580.1922, 12.45515
580.6743, 8.730905
581.1564, 7.675885
581.6385, 14.56635
582.1207, 21.95166
582.6028, 16.13789
583.0849, 0.8903890
583.5670, 4.993786
584.0491, 0.9829000
584.5313, 1.812859
585.0134, 3.375961
585.4955, 0.7552630
585.9776, 7.546069
586.4597, 4.744661
586.9418, 2.966366
587.4240, 2.241905
587.9061, 2.742511
588.3882, 0.5067840
588.8703, 11.85020
589.3524, 26.45411
589.8345, 28.96125
590.3167, 16.72953
590.7988, 2.143857
591.2809, 0.9383410
591.7630, 11.37868
592.2451, 11.16159
592.7272, 2.116798
593.2094, 3.086871
593.6915, 11.02660
594.1736, 13.73172
594.6557, 13.85688
595.1378, 11.52150
595.6199, 8.289896
596.1021, 5.017808
596.5842, 1.262748
597.0663, 3.998508
597.5485, 0.7276760
598.0306, 7.089808
598.5127, 2.160806
598.9948, 4.709208
599.4769, 18.78640
599.9590, 24.72852
600.4412, 25.23405
600.9233, 19.31169
601.4054, 6.190793
601.8875, 1.393022
602.3696, 2.573110
602.8517, 0.1953970
603.3339, 4.899634
603.8160, 12.35199
604.2981, 15.94305
604.7802, 14.11959
605.2623, 11.23930
605.7444, 13.31331
606.2266, 18.89007
606.7087, 24.19289
607.1908, 32.51542
607.6729, 34.81266
608.1550, 15.52545
608.6371, 8.222666
609.1193, 8.920896
609.6014, 9.820505
610.0835, 17.59745
610.5656, 29.20472
611.0477, 21.56190
611.5298, 15.46294
612.0120, 11.31829
612.4941, 9.550467
612.9762, 10.85907
613.4583, 16.62704
613.9404, 20.70681
614.4225, 23.55800
614.9047, 23.33197
615.3868, 14.59232
615.8689, 1.760411
616.3510, 12.94134
616.8331, 14.56157
617.3152, 10.15604
617.7974, 0.9303950
618.2795, 11.51805
618.7616, 22.33785
619.2437, 30.14245
619.7258, 34.28153
620.2079, 33.50595
620.6901, 27.78745
621.1722, 20.89191
621.6543, 11.97961
622.1364, 3.792519
622.6185, 2.147267
623.1006, 7.692381
623.5828, 6.870386
624.0649, 4.299950
624.5470, 18.78048
625.0291, 28.99585
625.5112, 35.11003
625.9933, 35.63759
626.4755, 27.78104
626.9576, 17.11237
627.4397, 16.68580
627.9218, 24.72976
628.4039, 31.20993
628.8860, 29.05226
629.3682, 23.45427
629.8503, 22.78180
630.3324, 26.23215
630.8145, 27.78646
631.2966, 17.66568
631.7787, 8.051426
632.2609, 8.811760
632.7430, 24.62713
633.2251, 37.34616
633.7072, 40.50930
634.1893, 40.84930
634.6714, 44.67933
635.1536, 54.47852
635.6357, 61.16513
636.1178, 62.53021
636.5999, 62.40305
637.0820, 71.00201
637.5641, 88.90683
638.0463, 99.22601
638.5284, 92.64264
639.0105, 78.56577
639.4926, 74.99391
639.9747, 80.99506
640.4568, 91.04953
640.9390, 101.7771
641.4211, 114.7994
641.9032, 132.2315
642.3853, 154.2419
642.8674, 179.2441
643.3495, 203.2857
643.8317, 231.9009
644.3138, 271.2844
644.7959, 336.3693
645.2780, 384.1443
645.7601, 414.4720
646.2422, 427.5702
646.7244, 420.3036
647.2065, 388.9560
647.6886, 354.7541
648.1707, 317.5840
648.6528, 285.1973
649.1349, 273.9061
649.6171, 281.9871
650.0992, 298.4379
650.5813, 320.6619
651.0634, 347.1799
651.5455, 373.2692
652.0276, 400.7743
652.5098, 438.3857
652.9919, 495.7779
653.4740, 560.8635
653.9561, 623.1409
654.4382, 678.0705
654.9203, 751.4934
655.4025, 820.7368
655.8846, 930.6688
656.3667, 1111.835
656.8488, 1372.516
657.3309, 1706.711
657.8130, 2170.425
658.2952, 2609.404
658.7773, 2826.082
659.2594, 2825.231
659.7415, 2619.555
660.2236, 2141.297
660.7057, 1577.838
661.1879, 1169.438
661.6700, 895.4572
662.1521, 704.6899
662.6342, 613.3568
663.1163, 561.8405
663.5984, 517.2052
664.0806, 479.7111
664.5627, 460.5296
665.0448, 475.3700
665.5269, 498.5578
666.0090, 517.9737
666.4911, 531.0172
666.9733, 552.3659
667.4554, 583.6918
667.9375, 622.6727
668.4196, 665.8799
668.9017, 713.6716
669.3839, 770.0025
669.8660, 835.5970
670.3481, 910.1845
670.8302, 989.1940
671.3123, 1077.188
671.7944, 1186.337
672.2766, 1323.529
672.7587, 1475.327
673.2408, 1629.642
673.7229, 1792.622
674.2050, 1978.781
674.6871, 2215.824
675.1693, 2452.303
675.6514, 2661.502
676.1335, 2856.125
676.6156, 3100.930
677.0977, 3399.451
677.5798, 3738.904
678.0620, 4112.349
678.5441, 4522.184
679.0262, 4947.813
679.5083, 5390.410
679.9904, 5889.221
680.4725, 6480.115
680.9547, 7146.148
681.4368, 7872.420
681.9189, 8652.696
682.4010, 9472.947
682.8831, 10389.50
683.3652, 11302.13
683.8474, 12110.37
684.3295, 12925.66
684.8116, 13425.48
685.2937, 13585.25
685.7758, 13392.93
686.2579, 12776.19
686.7401, 11606.93
687.2222, 10354.57
687.7043, 9062.221
688.1864, 7784.569
688.6685, 6637.521
689.1506, 5621.524
689.6328, 4747.552
690.1149, 4028.364
690.5970, 3439.244
691.0791, 2956.595
691.5612, 2571.264
692.0433, 2249.481
692.5255, 1978.444
693.0076, 1751.452
693.4897, 1566.684
693.9718, 1424.928
694.4539, 1312.955
694.9360, 1237.647
695.4182, 1182.675
695.9003, 1142.080
696.3824, 1121.821
696.8645, 1100.014
697.3466, 1083.361
697.8287, 1047.551
698.3109, 952.2499
698.7930, 810.6069
699.2751, 687.7047
699.7572, 595.8696
700.2393, 523.8957
700.7214, 464.1672
701.2036, 415.9579
701.6857, 378.9139
702.1678, 363.2411
702.6499, 345.7722
703.1320, 314.9093
703.6141, 275.9020
704.0963, 241.8018
704.5784, 210.3906
705.0605, 187.6436
705.5426, 177.2248
706.0247, 176.7163
706.5068, 175.6936
706.9890, 174.4659
707.4711, 170.0785
707.9532, 159.5135
708.4353, 145.0184
708.9174, 133.5615
709.3995, 125.0584
709.8817, 114.5747
710.3638, 92.30698
710.8459, 70.32239
711.3280, 62.03745
711.8101, 71.65401
712.2922, 76.34367
712.7744, 60.25025
713.2565, 42.56907
713.7386, 37.39848
714.2207, 54.93452
714.7028, 59.94265
715.1849, 46.87541
715.6671, 30.99742
716.1492, 32.55316
716.6313, 49.53167
717.1134, 56.83427
717.5955, 48.49692
718.0776, 34.97810
718.5598, 28.22189
719.0419, 26.16121
719.5240, 24.83095
720.0061, 24.17031
720.4882, 22.24594
720.9703, 17.82601
721.4525, 11.55028
721.9346, 4.804118
722.4167, 5.466192
722.8988, 12.11569
723.3809, 12.99860
723.8630, 11.13277
724.3452, 2.592472
724.8273, 13.02863
725.3094, 24.73414
725.7915, 27.58840
726.2736, 22.64059
726.7557, 8.469180
727.2379, 11.85137
727.7200, 5.111023
728.2021, 8.239690
728.6842, 3.280830
729.1663, 8.524465
729.6484, 3.192014
730.1306, 15.29910
730.6127, 10.16176
731.0948, 2.223603
731.5769, 0.2418730
732.0590, 4.662664
732.5411, 6.934669
733.0233, 6.049156
733.5054, 3.764449
733.9875, 0.6497080
734.4696, 2.781203
734.9517, 2.146205
735.4338, 2.566955
735.9160, 8.086713
736.3981, 15.99024
736.8802, 22.54519
737.3623, 21.05575
737.8444, 3.366978
738.3266, 8.612657
738.8087, 8.565573
739.2908, 1.772027
739.7729, 7.063666
740.2551, 22.62981
740.7372, 26.17845
741.2193, 10.66393
741.7014, 3.486505
742.1835, 9.256841
742.6656, 9.835178
743.1478, 7.221553
743.6299, 5.261152
744.1120, 0.4868090
744.5941, 1.984561
745.0762, 29.06775
745.5583, 47.35674
746.0405, 40.80254
746.5226, 30.01298
747.0047, 26.77917
747.4868, 29.67005
747.9689, 28.78951
748.4510, 19.59350
748.9332, 10.86728
749.4153, 5.355395
749.8974, 2.838586
750.3795, 0.4174410
750.8616, 1.941295
751.3438, 3.897700
751.8259, 6.668649
752.3080, 4.603939
752.7901, 4.430594
753.2722, 5.565203
753.7543, 15.59330
754.2365, 27.44130
754.7186, 33.81867
755.2007, 25.28375
755.6828, 3.151250
756.1649, 10.50846
756.6470, 11.72272
757.1292, 6.419128
757.6113, 0.1967110
758.0934, 3.102704
758.5755, 0.1432850
759.0576, 3.918931
759.5397, 1.362548
760.0219, 1.970586
760.5040, 3.053666
760.9861, 2.153903
761.4682, 0.8945280
761.9503, 4.693409
762.4324, 1.334956
762.9146, 2.778775
763.3967, 6.079312
763.8788, 6.739878
764.3609, 9.345785
764.8430, 19.61187
765.3251, 29.31756
765.8073, 27.82952
766.2894, 11.41682
766.7715, 1.819494
767.2536, 0.7180720
767.7357, 3.681202
768.2178, 2.458200
768.7000, 5.833979
769.1821, 10.34867
769.6642, 3.787626
770.1463, 8.228388
770.6284, 1.415888
771.1105, 15.41199
771.5927, 31.43296
772.0748, 28.28729
772.5569, 25.94457
773.0390, 32.58018
773.5211, 42.63865
774.0032, 39.31330
774.4854, 16.77930
774.9675, 3.645208
775.4496, 12.59107
775.9317, 32.79080
776.4138, 34.72855
776.8959, 21.81055
777.3781, 12.62066
777.8602, 21.53046
778.3423, 34.56936
778.8244, 39.41022
779.3065, 37.96831
779.7886, 38.94530
780.2708, 51.69029
780.7529, 59.26226
781.2350, 54.90657
781.7171, 40.37181
782.1992, 30.62974
782.6813, 25.92636
783.1635, 23.13424
783.6456, 20.04647
784.1277, 17.80990
784.6098, 22.14937
785.0919, 31.51765
785.5740, 38.36266
786.0562, 35.46490
786.5383, 29.75581
787.0204, 25.73521
787.5025, 24.18891
787.9846, 24.43435
788.4667, 31.18722
788.9489, 35.01356
789.4310, 30.60387
789.9131, 17.33669
790.3952, 9.646742
790.8773, 8.648424
791.3594, 8.310393
791.8416, 1.706328
792.3237, 6.405604
792.8058, 6.157716
793.2879, 0.7940550
793.7700, 11.05092
794.2521, 20.48045
794.7343, 27.07957
795.2164, 27.06025
795.6985, 17.39376
796.1806, 15.59471
796.6627, 31.70353
797.1448, 48.59524
797.6270, 53.19309
798.1091, 43.26665
798.5912, 38.22132
799.0733, 38.77254
799.5554, 40.21292
800.0375, 38.75755
800.5197, 35.92805
801.0018, 34.07195
801.4839, 33.60868
801.9660, 32.74760
802.4481, 30.26173
802.9302, 26.83806
803.4124, 23.27377
803.8945, 17.87172
804.3766, 16.60056
804.8587, 19.71172
805.3408, 26.62586
805.8229, 40.97382
806.3051, 62.68157
806.7872, 65.47442
807.2693, 44.06966
807.7514, 22.48207
808.2335, 32.06736
808.7156, 55.79232
809.1978, 65.37882
809.6799, 49.23899
810.1620, 37.94472
810.6441, 52.80773
811.1262, 74.16463
811.6083, 80.78944
812.0905, 60.02650
812.5726, 54.91783
813.0547, 73.33314
813.5368, 94.19037
814.0189, 87.32732
814.5010, 59.26623
814.9832, 45.66203
815.4653, 53.73716
815.9474, 69.63812
816.4295, 87.52457
816.9116, 102.9012
817.3937, 111.0003
817.8759, 108.0339
818.3580, 102.4856
818.8401, 89.99658
819.3222, 80.47906
819.8043, 84.50555
820.2864, 106.1702
820.7686, 124.9979
821.2507, 138.7866
821.7328, 149.2750
822.2149, 157.8534
822.6970, 164.7914
823.1791, 168.9125
823.6613, 166.4373
824.1434, 172.8470
824.6255, 205.4176
825.1076, 248.8322
825.5897, 285.5050
826.0718, 302.2458
826.5540, 328.9096
827.0361, 368.4684
827.5182, 412.8387
828.0003, 452.4048
828.4824, 487.8915
828.9645, 532.7911
829.4467, 587.0176
829.9288, 654.3688
830.4109, 760.6558
830.8930, 875.9143
831.3751, 956.8597
831.8572, 996.3430
832.3394, 989.5439
832.8215, 910.9153
833.3036, 796.4561
833.7857, 684.6420
834.2678, 572.7064
834.7499, 475.0870
835.2321, 393.2137
835.7142, 326.0959
836.1963, 276.4771
836.6784, 240.7475
837.1605, 207.2933
837.6426, 174.0241
838.1248, 143.6300
838.6069, 116.2896
839.0890, 93.98377
839.5711, 79.53497
840.0532, 76.98762
840.5353, 75.93111
841.0175, 77.50554
841.4996, 78.33079
841.9817, 74.81456
842.4638, 66.84346
842.9459, 56.38390
843.4280, 42.88533
843.9102, 31.74643
844.3923, 34.39089
844.8744, 43.84851
845.3565, 49.02375
845.8386, 47.35384
846.3207, 42.81433
846.8029, 35.27800
847.2850, 26.63313
847.7671, 18.00889
848.2492, 7.002321
848.7313, 3.524278
849.2134, 9.949821
849.6956, 17.85349
850.1777, 17.01835
850.6598, 10.70692
851.1419, 10.00581
851.6240, 16.29333
852.1061, 19.71132
852.5883, 5.984241
853.0704, 8.888406
853.5525, 5.855502
854.0346, 5.963844
854.5167, 17.55467
854.9988, 15.88544
855.4810, 12.43632
855.9631, 17.10542
856.4452, 30.13829
856.9273, 33.89481
857.4094, 27.36271
857.8915, 19.88631
858.3737, 21.75517
858.8558, 26.53613
859.3379, 24.67038
859.8200, 14.42233
860.3021, 7.353531
860.7842, 11.46591
861.2664, 17.05071
861.7485, 18.85835
862.2306, 16.54360
862.7127, 12.32965
863.1948, 5.850636
863.6769, 0.9599060
864.1591, 3.724033
864.6412, 5.206936
865.1233, 6.927218
865.6054, 23.56911
866.0875, 45.22040
866.5696, 25.09027
867.0518, 1.597418
867.5339, 3.433495
868.0160, 33.91682
868.4981, 46.99165
868.9802, 37.04383
869.4623, 21.05444
869.9445, 3.439241
870.4266, 0.1751130
870.9087, 2.053785
871.3908, 4.344115
871.8729, 5.247130
872.3550, 0.5756320
872.8372, 5.009088
873.3193, 1.793144
873.8014, 14.96529
874.2835, 21.29082
874.7656, 3.958602
875.2477, 7.327225
875.7299, 9.3186997E-02
876.2120, 10.64034
876.6941, 20.70345
877.1762, 17.51537
877.6583, 14.80069
878.1404, 20.56104
878.6226, 28.94722
879.1047, 29.01806
879.5869, 21.97686
880.0690, 16.25398
880.5511, 17.05091
881.0332, 16.95358
881.5153, 12.00813
881.9974, 5.342605
882.4796, 3.492841
882.9617, 7.234996
883.4438, 12.60385
883.9259, 18.38837
884.4080, 24.44192
884.8901, 31.87932
885.3723, 39.44839
885.8544, 44.29208
886.3365, 46.85609
886.8186, 44.19911
887.3007, 28.32615
887.7828, 9.786344
888.2650, 2.471957
888.7471, 9.407759
889.2292, 20.94563
889.7113, 39.01955
890.1934, 54.09378
890.6755, 48.77464
891.1577, 30.23198
891.6398, 21.50912
892.1219, 28.40633
892.6040, 37.84560
893.0861, 40.74015
893.5682, 41.82947
894.0504, 46.72000
894.5325, 63.19920
895.0146, 65.74869
895.4967, 47.61469
895.9788, 25.19973
896.4609, 11.61965
896.9431, 6.992194
897.4252, 15.76618
897.9073, 38.11427
898.3894, 57.31619
898.8715, 64.38297
899.3536, 61.65106
899.8358, 44.25859
900.3179, 9.339006
900.8000, 9.035027
901.2821, 33.95693
901.7642, 65.54975
902.2463, 70.42184
902.7285, 52.73432
903.2106, 45.72388
903.6927, 48.54675
904.1748, 51.20522
904.6569, 47.65893
905.1390, 42.68647
905.6212, 39.22570
906.1033, 37.68748
906.5854, 40.33610
907.0675, 53.74064
907.5496, 62.78442
908.0317, 61.81713
908.5139, 53.74263
908.9960, 49.71364
909.4781, 50.28011
909.9602, 51.67143
910.4423, 52.87771
910.9244, 52.20726
911.4066, 44.29453
911.8887, 34.07355
912.3708, 32.79948
912.8529, 60.31388
913.3350, 76.56108
913.8171, 68.33999
914.2993, 50.21273
914.7814, 41.28537
915.2635, 42.38745
915.7456, 43.17993
916.2277, 41.77761
916.7098, 39.87253
917.1920, 40.73952
917.6741, 42.11217
918.1562, 39.44533
918.6383, 29.56430
919.1204, 23.97449
919.6025, 29.19621
920.0847, 37.54203
920.5668, 45.04566
921.0489, 52.46968
921.5310, 51.20944
922.0131, 39.76814
922.4952, 30.44540
922.9774, 39.52636
923.4595, 55.13750
923.9416, 56.48859
924.4237, 43.51666
924.9058, 34.04247
925.3879, 38.65050
925.8701, 44.82411
926.3522, 45.85792
926.8343, 43.15064
927.3164, 51.16124
927.7985, 72.08096
928.2806, 82.93018
928.7628, 67.10063
929.2449, 41.71161
929.7270, 32.26682
930.2091, 34.79992
930.6912, 39.13082
931.1733, 46.75332
931.6555, 50.06304
932.1376, 42.64810
932.6197, 30.75922
933.1018, 25.46352
933.5839, 28.56962
934.0660, 32.49916
934.5482, 36.93818
935.0303, 37.08246
935.5124, 17.65504
935.9945, 15.21409
936.4766, 20.56516
936.9587, 15.03843
937.4409, 38.64250
937.9230, 41.36835
938.4051, 36.27565
938.8872, 33.52556
939.3693, 34.36604
939.8514, 28.58664
940.3336, 15.19718
940.8157, 2.891314
941.2978, 2.480529
941.7799, 0.7736440
942.2620, 4.295736
942.7441, 9.212164
943.2263, 12.36170
943.7084, 12.84693
944.1905, 10.56676
944.6726, 4.043825
945.1547, 2.533354
945.6368, 6.082266
946.1190, 4.141413
946.6011, 0.7447340
947.0832, 3.293770
947.5653, 11.74937
948.0474, 17.60833
948.5295, 21.88726
949.0117, 26.94965
949.4938, 36.28941
949.9759, 43.26451
950.4580, 50.16314
950.9401, 51.71267
951.4222, 34.57437
951.9044, 1.897121
952.3865, 7.264164
952.8686, 2.224529
953.3507, 2.597892
953.8328, 3.788570
954.3149, 2.122313
954.7971, 6.157373
955.2792, 5.577599
955.7613, 4.283334
956.2434, 2.926372
956.7255, 5.914234
957.2076, 5.231115
957.6898, 9.226166
958.1719, 6.360112
958.6540, 10.34741
959.1361, 2.780832
959.6182, 7.234235
960.1003, 15.98168
960.5825, 10.17503
961.0646, 7.821937
961.5467, 10.03919
962.0288, 3.276134
962.5109, 4.268327
962.9930, 6.366261
963.4752, 6.420774
963.9573, 16.03515
964.4394, 0.5922370
964.9215, 5.954082
965.4036, 11.88540
965.8857, 5.168232
966.3679, 2.250937
966.8500, 8.706567
967.3321, 17.12561
967.8142, 5.819729
968.2963, 3.724518
968.7784, 20.91994
969.2606, 1.103590
969.7427, 5.458651
970.2248, 2.479038
970.7069, 5.350422
971.1890, 15.06724
971.6711, 21.20981
972.1533, 12.44300
972.6354, 1.434469
973.1175, 3.521870
973.5996, 2.121883
974.0817, 0.9221080
974.5638, 5.777813
975.0460, 11.83442
975.5281, 19.88837
976.0102, 28.08830
976.4923, 31.30619
976.9744, 31.28493
977.4565, 33.34896
977.9387, 42.66633
978.4208, 50.97494
978.9029, 53.45122
979.3850, 54.15686
979.8671, 58.37383
980.3492, 66.19916
980.8314, 77.67506
981.3135, 93.69143
981.7956, 109.2882
982.2777, 120.5796
982.7598, 127.4902
983.2419, 126.8339
983.7241, 116.0836
984.2062, 115.6533
984.6883, 138.8238
985.1704, 166.7619
985.6525, 190.9852
986.1346, 212.4036
986.6168, 246.2545
987.0989, 291.7134
987.5810, 322.9703
988.0631, 312.7689
988.5452, 292.0602
989.0273, 288.8705
989.5095, 298.4378
989.9916, 308.5923
990.4737, 319.1893
990.9558, 327.3737
991.4379, 335.0224
991.9200, 336.9021
992.4022, 318.9898
992.8843, 287.0521
993.3664, 266.6096
993.8485, 263.0305
994.3306, 261.5793
994.8127, 257.0179
995.2949, 247.6512
995.7770, 229.4917
996.2591, 199.3720
996.7412, 188.3382
997.2233, 203.1625
997.7054, 212.6355
998.1876, 190.5568
998.6697, 152.2326
999.1518, 132.2226
999.6339, 127.6480
1000.116, 125.8050
1000.598, 125.0950
1001.080, 120.6716
1001.562, 106.1028
1002.044, 88.86410
1002.527, 83.42484
1003.009, 90.45057
1003.491, 96.29065
1003.973, 98.86578
1004.455, 98.00574
1004.937, 90.00297
1005.419, 80.48413
1005.901, 76.55616
1006.384, 79.72457
1006.866, 87.78516
1007.348, 104.4864
1007.830, 119.4718
1008.312, 128.0607
1008.794, 130.0596
1009.276, 120.8890
1009.758, 101.4992
1010.240, 84.51428
1010.723, 76.15262
1011.205, 75.85401
1011.687, 86.74580
1012.169, 103.6204
1012.651, 112.6671
1013.133, 110.6929
1013.615, 111.9848
1014.097, 119.9711
1014.580, 127.5221
1015.062, 117.0763
1015.544, 99.53609
1016.026, 98.01525
1016.508, 119.5801
1016.990, 142.0018
1017.472, 153.1668
1017.954, 162.2256
1018.436, 176.8186
1018.919, 196.7303
1019.401, 204.5104
1019.883, 199.3662
1020.365, 203.3504
1020.847, 243.3073
1021.329, 287.5486
1021.811, 303.7056
1022.293, 299.0399
1022.776, 289.9839
1023.258, 271.9674
1023.740, 263.9798
1024.222, 268.7009
1024.704, 281.3786
1025.186, 295.1143
1025.668, 311.9815
1026.150, 337.0965
1026.632, 371.4182
1027.115, 410.9785
1027.597, 455.8994
1028.079, 499.9030
1028.561, 535.3674
1029.043, 563.6312
1029.525, 611.4478
1030.007, 678.9883
1030.489, 758.1104
1030.972, 840.7228
1031.454, 935.9846
1031.936, 1052.042
1032.418, 1192.309
1032.900, 1361.159
1033.382, 1539.973
1033.864, 1782.481
1034.346, 2086.543
1034.828, 2458.228
1035.311, 2891.344
1035.793, 3393.360
1036.275, 3987.084
1036.757, 4679.394
1037.239, 5449.946
1037.721, 6266.039
1038.203, 7172.989
1038.685, 8169.649
1039.167, 9267.085
1039.650, 10576.64
1040.132, 12089.20
1040.614, 13801.75
1041.096, 15633.84
1041.578, 17735.24
1042.060, 20142.33
1042.542, 22988.76
1043.024, 26595.22
1043.507, 31264.91
1043.989, 36321.59
1044.471, 43023.42
1044.953, 48571.17
1045.435, 51085.09
1045.917, 50587.78
1046.399, 46505.33
1046.881, 38987.69
1047.364, 31094.13
1047.846, 24046.17
1048.328, 18111.83
1048.810, 13632.30
1049.292, 10521.01
1049.774, 8083.180
1050.256, 6398.332
1050.738, 5098.328
1051.220, 4155.099
1051.703, 3449.332
1052.185, 2884.305
1052.667, 2437.175
1053.149, 2084.690
1053.631, 1835.389
1054.113, 1618.853
1054.595, 1418.809
1055.077, 1245.216
1055.559, 1107.573
1056.042, 1002.737
1056.524, 900.1984
1057.006, 801.4561
1057.488, 718.6982
1057.970, 674.7306
1058.452, 632.1321
1058.934, 560.5887
1059.416, 475.6103
1059.899, 407.1814
1060.381, 357.5644
1060.863, 317.7526
1061.345, 287.7927
1061.827, 263.9578
1062.309, 240.8156
1062.791, 221.5732
1063.273, 217.4665
1063.755, 228.3905
1064.238, 222.0916
1064.720, 168.2528
1065.202, 124.0970
1065.684, 110.3300
1066.166, 114.9510
1066.648, 103.0850
1067.130, 78.92400
1067.612, 61.17256
1068.094, 57.26960
1068.577, 57.58692
1069.059, 61.16787
1069.541, 62.77711
1070.023, 57.62502
1070.505, 45.16943
1070.987, 25.27922
1071.469, 4.073685
1071.951, 23.73754
1072.434, 11.52351
1072.916, 10.89429
1073.398, 17.22269
1073.880, 11.55152
1074.362, 9.788670
1074.844, 22.21453
1075.326, 26.72080
1075.808, 18.80551
1076.291, 5.230873
1076.773, 8.200329
1077.255, 19.28030
1077.737, 17.36077
1078.219, 5.6770001E-02
1078.701, 9.082277
1079.183, 15.88071
1079.665, 9.525504
1080.147, 6.904953
1080.630, 21.39408
1081.112, 12.79690
1081.594, 12.94995
1082.076, 16.82247
1082.558, 8.707901
1083.040, 0.1436320
1083.522, 0.8020110
1084.004, 3.858770
1084.486, 10.98497
1084.969, 4.357825
1085.451, 6.767385
1085.933, 5.828856
1086.415, 11.05663
1086.897, 4.666725
1087.379, 4.864104
1087.861, 5.392268
1088.343, 20.27382
1088.826, 37.79739
1089.308, 43.58488
1089.790, 4.812628
1090.272, 22.04723
1090.754, 17.46404
1091.236, 12.03558
1091.718, 40.47084
1092.200, 15.93499
1092.682, 34.64510
1093.165, 37.95843
1093.647, 52.44100
1094.129, 42.31032
1094.611, 39.89181
1095.093, 62.74921
1095.575, 73.07298
1096.057, 62.71602
1096.539, 80.39703
1097.022, 47.23090
1097.504, 56.58493
1097.986, 84.46803
1098.468, 73.18451
1098.950, 89.34814
1099.432, 95.25901
1099.914, 54.14366
1100.396, 94.69048
1100.879, 99.80426
1101.361, 68.97691
1101.843, 107.5674
1102.325, 82.03941
1102.807, 77.85637
1103.289, 90.78037
1103.771, 86.09093
1104.253, 111.4500
1104.735, 110.2478
1105.218, 106.3313
1105.700, 112.4551
1106.182, 87.86307
1106.664, 118.6276
1107.146, 111.8658
1107.628, 124.4164
1108.110, 141.3018
1108.592, 125.3307
1109.074, 119.4818
1109.557, 113.3974
1110.039, 118.2859
1110.521, 133.8325
1111.003, 145.7794
1111.485, 148.6682
1111.967, 148.9711
1112.449, 151.7473
1112.931, 156.6415
1113.414, 163.0626
1113.896, 170.8799
1114.378, 182.2214
1114.860, 198.8969
1115.342, 213.1445
1115.824, 219.0959
1116.306, 218.8004
1116.788, 212.2263
1117.271, 204.3321
1117.753, 203.2379
1118.235, 221.5222
1118.717, 231.4126
1119.199, 228.3970
1119.681, 222.2869
1120.163, 220.9325
1120.645, 224.9608
1121.127, 239.2205
1121.609, 261.5785
1122.092, 275.0346
1122.574, 263.9140
1123.056, 250.6979
1123.538, 241.9250
1124.020, 238.6538
1124.502, 239.9947
1124.984, 244.6432
1125.466, 250.7469
1125.949, 258.7394
1126.431, 263.9101
1126.913, 258.6086
1127.395, 252.9758
1127.877, 254.7747
1128.359, 263.1000
1128.841, 273.3226
1129.323, 285.8376
1129.806, 290.4133
1130.288, 281.3777
1130.770, 270.6994
1131.252, 271.3716
1131.734, 277.0516
1132.216, 278.5659
1132.698, 270.9933
1133.180, 275.3591
1133.662, 294.7676
1134.145, 312.5907
1134.627, 317.9518
1135.109, 315.1093
1135.591, 310.0755
1136.073, 303.5626
1136.555, 295.7632
1137.037, 279.3262
1137.519, 274.2239
1138.001, 287.2582
1138.484, 302.2875
1138.966, 297.5411
1139.448, 281.7494
1139.930, 279.1388
1140.412, 289.2639
1140.894, 295.4575
1141.376, 283.5455
1141.858, 277.7114
1142.341, 287.6099
1142.823, 303.1480
1143.305, 301.7523
1143.787, 287.5219
1144.269, 280.5251
1144.751, 285.8016
1145.233, 293.5421
1145.715, 299.7370
1146.198, 304.2419
1146.680, 306.1761
1147.162, 305.9382
1147.644, 303.5363
1148.126, 299.4586
1148.608, 296.5902
1149.090, 296.0217
1149.572, 296.6096
1150.054, 297.1201
1150.536, 298.6949
1151.019, 303.1837
1151.501, 311.3991
1151.983, 307.5810
1152.465, 290.9892
1152.947, 300.6231
1153.429, 311.9891
1153.911, 315.4200
1154.393, 303.1247
1154.876, 311.7163
1155.358, 323.2322
1155.840, 315.1266
1156.322, 310.3885
1156.804, 309.7799
1157.286, 310.7350
1157.768, 312.9776
1158.250, 314.7697
1158.733, 309.2842
1159.215, 318.5725
1159.697, 315.2136
1160.179, 341.7526
1160.661, 353.7427
1161.143, 328.0983
1161.625, 329.5385
1162.107, 340.4814
1162.589, 336.2540
1163.072, 327.7941
1163.554, 316.6702
1164.036, 313.7488
1164.518, 321.0976
1165.000, 328.3252
1165.482, 329.2582
1165.964, 328.5350
1166.446, 336.5547
1166.928, 348.7104
1167.411, 354.7318
1167.893, 352.2554
1168.375, 345.6393
1168.857, 331.1457
1169.339, 319.1801
1169.821, 313.9646
1170.303, 314.1943
1170.785, 316.3882
1171.268, 320.6468
1171.750, 328.1956
1172.232, 343.3852
1172.714, 348.6715
1173.196, 326.1310
1173.678, 303.6384
1174.160, 301.4187
1174.642, 314.6126
1175.125, 307.3564
1175.607, 293.7918
1176.089, 306.0058
1176.571, 300.7524
1177.053, 289.6490
1177.535, 275.8976
1178.017, 284.2093
1178.499, 280.4077
1178.981, 264.5660
1179.464, 257.3221
1179.946, 261.7761
1180.428, 254.2794
1180.910, 254.8604
1181.392, 278.2463
1181.874, 263.5620
1182.356, 229.2101
1182.838, 201.2891
1183.320, 197.7807
1183.803, 190.2255
1184.285, 171.9474
1184.767, 159.2192
1185.249, 151.1870
1185.731, 134.4629
1186.213, 141.7686
1186.695, 163.8335
1187.177, 156.9298
1187.660, 118.5913
1188.142, 89.97784
1188.624, 78.48139
1189.106, 70.25270
1189.588, 51.51766
1190.070, 32.44203
1190.552, 23.22720
1191.034, 22.31610
1191.516, 16.92474
1191.999, 7.167213
1192.481, 10.84868
1192.963, 8.225426
1193.445, 5.992813
1193.927, 15.69405
1194.409, 25.86639
1194.891, 22.99083
1195.373, 6.003212
1195.855, 7.179214
1196.338, 16.60477
1196.820, 22.05805
1197.302, 22.69238
1197.784, 20.96052
1198.266, 19.04327
1198.748, 16.57569
1199.230, 12.07331
1199.712, 4.177414
1200.195, 5.750839
1200.677, 18.92029
1201.159, 26.28234
1201.641, 13.85364
1202.123, 3.244843
1202.605, 7.715225
1203.087, 5.263824
1203.569, 6.066223
1204.052, 13.79700
1204.534, 16.16165
1205.016, 12.23677
1205.498, 9.870224
1205.980, 15.30737
1206.462, 24.34142
1206.944, 36.38425
1207.426, 47.83493
1207.908, 47.52795
1208.391, 27.70415
1208.873, 17.63974
1209.355, 18.64607
1209.837, 27.13396
1210.319, 53.96846
1210.801, 75.36691
1211.283, 49.58731
1211.765, 5.948212
1212.247, 22.94235
1212.730, 18.84860
1213.212, 46.03015
1213.694, 47.87659
1214.176, 44.71423
1214.658, 59.84930
1215.140, 78.77374
1215.622, 80.24008
1216.104, 67.90076
1216.587, 71.26514
1217.069, 100.4292
1217.551, 115.4545
1218.033, 108.3161
1218.515, 97.67453
1218.997, 108.5282
1219.479, 121.8825
1219.961, 113.3554
1220.443, 85.12796
1220.926, 77.01486
1221.408, 94.31305
1221.890, 115.3094
1222.372, 137.9984
1222.854, 148.6146
1223.336, 126.6289
1223.818, 92.59222
1224.300, 65.05542
1224.782, 48.06549
1225.265, 34.12708
1225.747, 23.38861
1226.229, 21.59558
1226.711, 21.64917
1227.193, 21.91467
1227.675, 14.03320
1228.157, 4.222961
1228.639, 3.195068
1229.122, 10.32672
1229.604, 9.336060
1230.086, 5.564941
1230.568, 19.79663
1231.050, 13.53613
1231.532, 14.82654
1232.014, 9.693115
1232.496, 3.421997
1232.979, 6.214600
1233.461, 21.08032
1233.943, 27.85901
1234.425, 22.44592
1234.907, 21.91870
1235.389, 29.99109
1235.871, 46.33032
1236.353, 75.66406
1236.835, 107.1942
1237.318, 127.1720
1237.800, 134.8577
1238.282, 146.1317
1238.764, 159.2209
1239.246, 160.4927
1239.728, 139.4260
1240.210, 130.3750
1240.692, 131.6990
1241.175, 139.5513
1241.657, 161.9458
1242.139, 206.4895
1242.621, 212.0264
1243.103, 184.9780
1243.585, 161.9128
1244.067, 177.1143
1244.549, 183.4692
1245.031, 135.2949
1245.514, 67.10962
1245.996, 34.11377
1246.478, 39.49121
1246.960, 52.16187
1247.442, 74.36426
1247.924, 73.22949
1248.406, 42.85205
1248.888, 12.54297
1249.370, 0.0000000E+00
##END=



