##NAMES=Nakauriite
##RRUFFID=R060976
##IDEAL CHEMISTRY=Cu_8_(SO_4_)_4_(CO_3_)(OH)_6_&#183;48H_2_O
##LOCALITY=Nakauri mine, Aichi Prefecture, Japan
##OWNER=RRUFF
##SOURCE=Michael Scott
##DESCRIPTION=Deep sky blue to white acicular crystals in serpentinite.
##STATUS=The identification of this mineral is not yet confirmed.
##URL=rruff.info/R060976
118.1476, 0.0000000E+00
118.6297, 1.426880
119.1119, 3.868286
119.5940, 9.542114
120.0761, 14.55066
120.5582, 21.67645
121.0403, 28.86340
121.5224, 39.22913
122.0046, 56.36212
122.4867, 86.08856
122.9688, 115.3860
123.4509, 131.6573
123.9330, 136.2901
124.4151, 138.9661
124.8973, 147.3753
125.3794, 158.5115
125.8615, 166.9870
126.3436, 168.6428
126.8257, 167.4374
127.3078, 169.4608
127.7900, 174.9380
128.2721, 180.7970
128.7542, 184.1982
129.2363, 185.4089
129.7184, 185.6675
130.2005, 188.0884
130.6826, 190.2953
131.1648, 183.5762
131.6469, 165.8391
132.1290, 143.0328
132.6111, 123.6085
133.0932, 107.5586
133.5753, 93.14758
134.0575, 76.13757
134.5396, 57.15955
135.0217, 50.90424
135.5038, 62.76062
135.9859, 86.45526
136.4680, 99.94293
136.9502, 100.6633
137.4323, 100.9709
137.9144, 114.5875
138.3965, 145.5909
138.8786, 167.3746
139.3607, 173.2724
139.8429, 163.9626
140.3250, 151.0168
140.8071, 130.2972
141.2892, 111.7006
141.7713, 110.2117
142.2534, 135.2679
142.7356, 156.2385
143.2177, 162.9192
143.6998, 150.1012
144.1819, 143.9434
144.6640, 147.3098
145.1461, 156.0685
145.6283, 162.1245
146.1104, 164.7512
146.5925, 165.3424
147.0746, 164.4363
147.5567, 162.4397
148.0388, 157.9706
148.5210, 147.6736
149.0031, 133.8639
149.4852, 127.7965
149.9673, 136.7913
150.4494, 148.5105
150.9315, 156.1152
151.4137, 155.2292
151.8958, 155.3696
152.3779, 156.0537
152.8600, 157.4437
153.3421, 163.7939
153.8242, 180.0771
154.3064, 199.1658
154.7885, 215.6597
155.2706, 229.8665
155.7527, 240.1355
156.2348, 244.3738
156.7169, 241.3302
157.1991, 240.4838
157.6812, 241.6588
158.1633, 246.5754
158.6454, 257.4614
159.1275, 279.2303
159.6096, 303.3757
160.0918, 326.6637
160.5739, 348.1972
161.0560, 369.5343
161.5381, 391.0037
162.0202, 412.5533
162.5023, 434.1381
162.9845, 458.0652
163.4666, 480.5181
163.9487, 498.7058
164.4308, 509.0811
164.9129, 519.9539
165.3950, 537.4177
165.8772, 559.5104
166.3593, 578.9130
166.8414, 587.4212
167.3235, 593.3217
167.8056, 604.8893
168.2877, 630.1128
168.7699, 656.4920
169.2520, 674.4127
169.7341, 684.7147
170.2162, 695.0786
170.6983, 713.7695
171.1804, 735.0822
171.6626, 751.3161
172.1447, 757.7394
172.6268, 758.7518
173.1089, 758.0820
173.5910, 755.7791
174.0731, 751.8273
174.5553, 746.3810
175.0374, 739.2428
175.5195, 730.1442
176.0016, 713.4815
176.4837, 695.8152
176.9658, 684.1342
177.4480, 679.4467
177.9301, 677.6425
178.4122, 679.0379
178.8943, 680.9472
179.3764, 673.6541
179.8585, 641.5570
180.3407, 597.7302
180.8228, 568.8062
181.3049, 560.5347
181.7870, 562.9974
182.2691, 564.8699
182.7512, 566.1663
183.2334, 567.5216
183.7155, 573.0668
184.1976, 578.9305
184.6797, 572.8029
185.1618, 549.4931
185.6439, 517.0295
186.1261, 486.1138
186.6082, 456.6567
187.0903, 437.7860
187.5724, 444.9515
188.0545, 472.3995
188.5366, 488.9520
189.0188, 484.2110
189.5009, 465.3964
189.9830, 450.2432
190.4651, 439.1870
190.9472, 429.1382
191.4293, 416.4423
191.9114, 401.6630
192.3936, 388.0819
192.8757, 376.0291
193.3578, 365.8514
193.8399, 360.6359
194.3220, 361.7631
194.8041, 363.3429
195.2863, 356.9803
195.7684, 342.3514
196.2505, 328.5081
196.7326, 318.0539
197.2147, 311.0025
197.6968, 309.2964
198.1790, 315.3574
198.6611, 321.5883
199.1432, 313.5015
199.6253, 288.3599
200.1074, 266.9222
200.5895, 259.2192
201.0717, 266.0486
201.5538, 272.8131
202.0359, 280.4976
202.5180, 286.5516
203.0001, 284.1001
203.4822, 270.7329
203.9644, 258.5876
204.4465, 255.4263
204.9286, 262.8536
205.4107, 266.2778
205.8928, 264.6906
206.3749, 258.9161
206.8571, 250.1670
207.3392, 237.0712
207.8213, 224.9114
208.3034, 216.5612
208.7855, 211.9500
209.2676, 212.3694
209.7498, 221.6267
210.2319, 235.3652
210.7140, 234.0583
211.1961, 212.0669
211.6782, 187.4026
212.1603, 173.8206
212.6425, 175.3267
213.1246, 173.1738
213.6067, 163.7827
214.0888, 148.5395
214.5709, 137.0519
215.0530, 131.0229
215.5352, 125.8988
216.0173, 117.1208
216.4994, 102.1896
216.9815, 90.82166
217.4636, 85.88092
217.9457, 86.86438
218.4279, 83.68097
218.9100, 74.24255
219.3921, 63.30353
219.8742, 55.19684
220.3563, 49.89844
220.8384, 47.86975
221.3206, 51.35162
221.8027, 60.71161
222.2848, 61.11914
222.7669, 46.64496
223.2490, 29.66345
223.7311, 24.61548
224.2132, 38.82458
224.6954, 50.13635
225.1775, 52.90186
225.6596, 46.18164
226.1417, 39.28973
226.6238, 30.81152
227.1059, 23.29077
227.5881, 20.48431
228.0702, 26.07953
228.5523, 29.58984
229.0344, 27.08807
229.5165, 16.66309
229.9986, 11.18231
230.4808, 13.75494
230.9629, 19.16235
231.4450, 19.22278
231.9271, 9.714294
232.4092, 1.980652
232.8913, 0.3857420
233.3735, 7.479614
233.8556, 10.46130
234.3377, 7.505066
234.8198, -3.316225
235.3019, 1.642575
235.7840, 4.135120
236.2662, 4.301383
236.7483, -5.248555
237.2304, -1.928046
237.7125, -3.567518
238.1946, -5.274871
238.6767, 0.2610827
239.1589, -7.148554
239.6410, -1.442602
240.1231, -0.7744750
240.6052, 2.405308
241.0873, 0.5936211
241.5694, 0.5085793
242.0516, 5.699479
242.5337, 8.188509
243.0158, 6.351134
243.4979, 10.52940
243.9800, 11.65216
244.4621, 15.65186
244.9443, 17.68304
245.4264, 15.60114
245.9085, 6.985535
246.3906, 5.100586
246.8727, 12.21490
247.3548, 11.17725
247.8370, 9.809265
248.3191, 12.21637
248.8012, 22.01593
249.2833, 26.88904
249.7654, 23.90076
250.2475, 16.55072
250.7297, 15.58777
251.2118, 24.84937
251.6939, 34.75928
252.1760, 40.48584
252.6581, 39.99237
253.1402, 40.29388
253.6223, 40.75488
254.1045, 42.31128
254.5866, 48.65411
255.0687, 63.39832
255.5508, 77.23352
256.0329, 84.37708
256.5150, 80.77832
256.9972, 81.08423
257.4793, 86.38190
257.9614, 95.83307
258.4435, 106.9271
258.9256, 119.9493
259.4077, 133.8260
259.8899, 147.7502
260.3720, 160.8414
260.8541, 176.4327
261.3362, 195.5842
261.8183, 217.1136
262.3004, 236.9548
262.7826, 254.9266
263.2647, 271.1743
263.7468, 285.1434
264.2289, 295.9982
264.7110, 307.8273
265.1931, 321.4950
265.6753, 336.1639
266.1574, 348.5612
266.6395, 357.5367
267.1216, 367.0764
267.6037, 379.9733
268.0858, 397.0123
268.5680, 414.2131
269.0501, 431.9160
269.5322, 449.0529
270.0143, 462.2316
270.4964, 470.9822
270.9785, 476.8406
271.4607, 480.9767
271.9428, 483.7026
272.4249, 482.5670
272.9070, 476.0620
273.3891, 466.3079
273.8712, 459.6812
274.3534, 457.1669
274.8355, 454.3730
275.3176, 449.3306
275.7997, 442.2514
276.2818, 430.3226
276.7639, 411.6943
277.2461, 389.3151
277.7282, 371.5241
278.2103, 359.2673
278.6924, 347.1157
279.1745, 330.4923
279.6566, 309.0117
280.1388, 291.8314
280.6209, 280.5210
281.1030, 273.1027
281.5851, 264.4633
282.0672, 254.1456
282.5493, 245.4590
283.0315, 242.4193
283.5136, 244.7523
283.9957, 241.3313
284.4778, 229.4759
284.9599, 213.7834
285.4420, 204.2395
285.9242, 201.0823
286.4063, 199.1329
286.8884, 192.3091
287.3705, 182.2538
287.8526, 183.6432
288.3347, 199.9941
288.8169, 224.0548
289.2990, 245.3178
289.7811, 263.8555
290.2632, 276.0678
290.7453, 275.9236
291.2274, 266.8647
291.7096, 262.8913
292.1917, 265.4783
292.6738, 272.6239
293.1559, 283.1979
293.6380, 296.8275
294.1201, 309.7163
294.6023, 320.6860
295.0844, 329.2078
295.5665, 332.2938
296.0486, 329.3782
296.5307, 327.1678
297.0128, 333.2990
297.4950, 344.8041
297.9771, 353.8222
298.4592, 358.6313
298.9413, 359.0156
299.4234, 351.0396
299.9055, 332.8463
300.3876, 317.1191
300.8698, 321.1393
301.3519, 339.0114
301.8340, 352.2733
302.3161, 346.2795
302.7982, 330.8595
303.2803, 320.6782
303.7625, 317.7095
304.2446, 315.5129
304.7267, 308.1482
305.2088, 296.8955
305.6909, 284.4735
306.1730, 267.5881
306.6552, 252.8223
307.1373, 247.9861
307.6194, 253.8270
308.1015, 261.2624
308.5836, 267.9052
309.0657, 271.8068
309.5479, 269.5653
310.0300, 249.1454
310.5121, 229.1273
310.9942, 225.5073
311.4763, 239.2365
311.9584, 250.9842
312.4406, 247.8820
312.9227, 237.1434
313.4048, 227.5322
313.8869, 218.5403
314.3690, 214.3836
314.8511, 219.9957
315.3333, 234.9403
315.8154, 249.3923
316.2975, 257.2789
316.7796, 263.4738
317.2617, 271.9554
317.7438, 288.9987
318.2260, 303.8782
318.7081, 308.6559
319.1902, 305.4773
319.6723, 310.4335
320.1544, 331.9395
320.6365, 361.6284
321.1187, 393.5410
321.6008, 435.2957
322.0829, 469.1863
322.5650, 486.6959
323.0471, 491.0713
323.5292, 499.9561
324.0114, 519.4139
324.4935, 542.1957
324.9756, 564.4297
325.4577, 586.0040
325.9398, 606.2655
326.4219, 622.6283
326.9041, 636.9944
327.3862, 656.4071
327.8683, 693.8055
328.3504, 726.3050
328.8325, 744.0262
329.3146, 739.5840
329.7968, 732.3303
330.2789, 721.6314
330.7610, 708.2124
331.2431, 693.7762
331.7252, 679.1358
332.2073, 662.7154
332.6895, 643.8650
333.1716, 621.8816
333.6537, 599.1161
334.1358, 575.4051
334.6179, 550.6555
335.1000, 525.4417
335.5822, 500.9685
336.0643, 472.9668
336.5464, 438.4223
337.0285, 395.1737
337.5106, 359.9086
337.9927, 334.4861
338.4749, 314.4304
338.9570, 293.2816
339.4391, 269.2256
339.9212, 251.7377
340.4033, 246.7438
340.8854, 252.8739
341.3676, 249.7102
341.8497, 235.4888
342.3318, 217.4636
342.8139, 203.2219
343.2960, 193.0067
343.7781, 181.6200
344.2603, 167.8309
344.7424, 151.9456
345.2245, 134.1890
345.7066, 114.4515
346.1887, 96.51617
346.6708, 82.82861
347.1530, 73.56061
347.6351, 71.66699
348.1172, 81.59851
348.5993, 94.58783
349.0814, 92.25330
349.5635, 75.71149
350.0457, 57.45325
350.5278, 44.74304
351.0099, 37.09253
351.4920, 35.45502
351.9741, 43.43500
352.4562, 49.26337
352.9384, 32.90546
353.4205, 0.9475710
353.9026, 24.43549
354.3847, 23.36090
354.8668, 11.19397
355.3489, 7.648010
355.8311, 17.30652
356.3132, 25.32483
356.7953, 13.11523
357.2774, 8.625061
357.7595, 19.40948
358.2416, 3.501587
358.7238, 31.42017
359.2059, 43.71143
359.6880, 37.84668
360.1701, 27.42865
360.6522, 13.61719
361.1343, 0.7713620
361.6164, 5.664856
362.0985, 0.1436160
362.5807, 8.812988
363.0628, 18.90100
363.5449, 30.16473
364.0270, 36.47272
364.5091, 31.23486
364.9912, 22.94690
365.4734, 18.29028
365.9555, 20.80713
366.4376, 24.25769
366.9197, 30.46094
367.4018, 38.04169
367.8839, 38.46838
368.3661, 20.29742
368.8482, 2.911194
369.3303, 4.159668
369.8124, 10.89227
370.2945, 19.15839
370.7766, 16.52258
371.2588, 7.437500
371.7409, 4.348511
372.2230, 12.85052
372.7051, 19.31281
373.1872, 16.87927
373.6693, 1.067627
374.1515, 5.043518
374.6336, 4.683777
375.1157, 18.37177
375.5978, 15.25684
376.0799, 11.11676
376.5620, 33.16815
377.0442, 41.20740
377.5263, 35.70801
378.0084, 31.33807
378.4905, 27.95789
378.9726, 26.18640
379.4547, 26.62903
379.9369, 29.28644
380.4190, 34.33649
380.9011, 42.88287
381.3832, 53.38989
381.8653, 60.30981
382.3474, 63.68872
382.8296, 66.55670
383.3117, 71.22406
383.7938, 77.38470
384.2759, 84.05206
384.7580, 91.17609
385.2401, 98.58917
385.7223, 105.6562
386.2044, 112.7297
386.6865, 121.6796
387.1686, 136.6871
387.6507, 153.2023
388.1328, 164.3324
388.6150, 168.4945
389.0971, 171.3910
389.5792, 176.7938
390.0613, 184.3179
390.5434, 193.3798
391.0255, 206.2144
391.5077, 218.6310
391.9898, 228.3835
392.4719, 235.5083
392.9540, 239.0154
393.4361, 234.1060
393.9182, 227.1798
394.4004, 224.5887
394.8825, 226.6355
395.3646, 234.7141
395.8467, 254.6159
396.3288, 283.9828
396.8109, 304.4503
397.2931, 297.5634
397.7752, 290.5410
398.2573, 298.9275
398.7394, 346.2358
399.2215, 379.5153
399.7036, 390.3710
400.1858, 386.3228
400.6679, 385.9680
401.1500, 390.3118
401.6321, 397.1582
402.1142, 405.5575
402.5963, 414.8596
403.0785, 428.9308
403.5606, 450.8120
404.0427, 474.6207
404.5248, 491.9977
405.0069, 501.3783
405.4890, 509.1494
405.9712, 515.6144
406.4533, 521.4353
406.9354, 533.2379
407.4175, 551.7670
407.8996, 573.6848
408.3817, 597.4535
408.8639, 622.9478
409.3460, 644.8215
409.8281, 662.0876
410.3102, 674.8994
410.7923, 679.7069
411.2744, 676.3165
411.7566, 675.5585
412.2387, 691.7366
412.7208, 718.1387
413.2029, 734.7311
413.6850, 736.1718
414.1671, 736.7924
414.6493, 754.7460
415.1314, 785.3394
415.6135, 815.5989
416.0956, 838.7135
416.5777, 856.4762
417.0598, 870.1328
417.5420, 880.7982
418.0241, 894.7861
418.5062, 918.7494
418.9883, 946.7917
419.4704, 971.9429
419.9525, 985.6218
420.4347, 1001.447
420.9168, 1028.847
421.3989, 1063.956
421.8810, 1092.208
422.3631, 1097.345
422.8452, 1097.300
423.3273, 1124.715
423.8094, 1146.046
424.2916, 1161.623
424.7737, 1154.195
425.2558, 1176.469
425.7379, 1186.841
426.2200, 1196.723
426.7021, 1223.178
427.1843, 1230.508
427.6664, 1269.024
428.1485, 1290.584
428.6306, 1287.772
429.1127, 1279.170
429.5948, 1283.607
430.0770, 1304.259
430.5591, 1322.195
431.0412, 1336.537
431.5233, 1346.103
432.0054, 1341.969
432.4875, 1322.229
432.9697, 1299.973
433.4518, 1287.423
433.9339, 1282.677
434.4160, 1270.055
434.8981, 1246.578
435.3802, 1219.610
435.8624, 1201.219
436.3445, 1189.167
436.8266, 1173.332
437.3087, 1144.708
437.7908, 1111.251
438.2729, 1083.784
438.7551, 1062.520
439.2372, 1046.145
439.7193, 1038.605
440.2014, 1033.865
440.6835, 1023.752
441.1656, 1003.320
441.6478, 979.7435
442.1299, 953.1799
442.6120, 925.8796
443.0941, 905.8585
443.5762, 902.4314
444.0583, 903.0598
444.5405, 901.5342
445.0226, 898.4475
445.5047, 889.6130
445.9868, 868.6892
446.4689, 843.1313
446.9510, 823.3933
447.4332, 818.0547
447.9153, 809.9482
448.3974, 793.3385
448.8795, 767.8479
449.3616, 751.3125
449.8438, 749.9159
450.3259, 749.7146
450.8080, 738.9076
451.2901, 712.4347
451.7722, 691.8774
452.2543, 679.1873
452.7365, 673.5470
453.2186, 675.8793
453.7007, 687.7975
454.1828, 695.6058
454.6649, 691.8303
455.1470, 677.3516
455.6292, 657.0902
456.1113, 629.8441
456.5934, 603.0227
457.0755, 585.8544
457.5576, 576.3080
458.0397, 566.1212
458.5219, 551.3412
459.0040, 535.6545
459.4861, 524.1501
459.9682, 516.3638
460.4503, 510.0854
460.9324, 505.8860
461.4146, 501.4579
461.8967, 494.2096
462.3788, 482.7648
462.8609, 470.7456
463.3430, 459.2118
463.8251, 448.3602
464.3073, 438.4316
464.7894, 427.0629
465.2715, 418.8734
465.7536, 417.5807
466.2357, 424.0686
466.7178, 426.4869
467.2000, 418.9375
467.6821, 409.6400
468.1642, 404.3636
468.6463, 404.6559
469.1284, 406.5189
469.6105, 410.2391
470.0927, 415.2252
470.5748, 418.9950
471.0569, 419.2865
471.5390, 423.7109
472.0211, 437.6898
472.5032, 462.1688
472.9854, 480.1720
473.4675, 490.5879
473.9496, 498.2734
474.4317, 507.7318
474.9138, 519.1842
475.3959, 535.1565
475.8781, 557.8447
476.3602, 583.1193
476.8423, 602.9783
477.3244, 618.3312
477.8065, 635.4583
478.2886, 659.0620
478.7708, 687.0834
479.2529, 716.1169
479.7350, 744.6267
480.2171, 776.8821
480.6992, 819.1941
481.1813, 867.2439
481.6635, 914.1327
482.1456, 956.1606
482.6277, 995.7477
483.1098, 1033.862
483.5919, 1070.903
484.0740, 1107.586
484.5562, 1134.744
485.0382, 1166.534
485.5204, 1212.292
486.0025, 1293.373
486.4846, 1359.512
486.9667, 1405.450
487.4488, 1438.609
487.9309, 1471.289
488.4131, 1498.462
488.8952, 1534.132
489.3773, 1586.111
489.8594, 1654.015
490.3415, 1712.940
490.8236, 1763.614
491.3058, 1806.275
491.7879, 1836.574
492.2700, 1855.025
492.7521, 1877.282
493.2342, 1909.451
493.7163, 1942.256
494.1985, 1960.943
494.6806, 1966.099
495.1627, 1963.710
495.6448, 1955.789
496.1269, 1943.339
496.6090, 1927.567
497.0912, 1908.644
497.5733, 1886.836
498.0554, 1866.246
498.5375, 1841.609
499.0196, 1805.756
499.5017, 1748.547
499.9839, 1689.016
500.4660, 1639.611
500.9481, 1595.381
501.4302, 1541.774
501.9123, 1467.338
502.3944, 1390.282
502.8766, 1316.208
503.3587, 1245.702
503.8408, 1179.666
504.3229, 1117.057
504.8050, 1058.682
505.2871, 1005.755
505.7693, 962.2692
506.2514, 914.5112
506.7335, 858.9415
507.2156, 798.3326
507.6977, 742.1107
508.1798, 690.2234
508.6620, 642.1086
509.1441, 597.7633
509.6262, 556.9290
510.1083, 514.9189
510.5904, 470.8625
511.0725, 429.1385
511.5547, 394.6730
512.0368, 366.5938
512.5189, 341.7319
513.0010, 319.0635
513.4832, 299.3303
513.9653, 285.0059
514.4474, 274.6755
514.9295, 263.3636
515.4116, 249.9204
515.8937, 233.5356
516.3758, 212.6146
516.8579, 185.4791
517.3400, 160.9898
517.8221, 139.3764
518.3043, 122.5224
518.7864, 112.1077
519.2685, 115.2678
519.7506, 116.4553
520.2327, 113.8260
520.7148, 108.1662
521.1970, 102.7704
521.6791, 99.40344
522.1612, 92.46954
522.6433, 76.95660
523.1254, 51.55743
523.6075, 37.06317
524.0897, 35.47736
524.5718, 38.70203
525.0539, 38.12000
525.5360, 34.10516
526.0181, 29.30408
526.5002, 24.14349
526.9824, 18.65430
527.4645, 10.41766
527.9466, 0.9475100
528.4287, 3.036804
528.9108, 8.788635
529.3929, 24.21143
529.8751, 30.69666
530.3572, 26.73663
530.8393, 19.78345
531.3214, 13.27899
531.8035, 5.940308
532.2856, 3.749878
532.7678, 24.64825
533.2499, 38.22418
533.7320, 36.54248
534.2141, 23.93890
534.6962, 14.79639
535.1783, 9.445068
535.6605, 7.619019
536.1426, 10.76276
536.6247, 19.98615
537.1068, 22.53479
537.5889, 14.98553
538.0710, 7.009888
538.5532, 9.819641
539.0353, 24.20221
539.5174, 32.08319
539.9995, 29.20404
540.4816, 21.39398
540.9637, 20.00623
541.4459, 23.77087
541.9280, 25.11542
542.4101, 17.32037
542.8922, 6.332153
543.3743, 0.4504390
543.8564, 2.831726
544.3386, 1.073853
544.8207, 9.647949
545.3028, 22.10352
545.7849, 28.93518
546.2670, 26.75275
546.7491, 22.14349
547.2313, 14.61633
547.7134, 6.551819
548.1955, 2.053833
548.6776, 7.583252
549.1597, 10.26819
549.6418, 4.716248
550.1240, 8.535461
550.6061, 12.50562
551.0882, 1.854797
551.5703, 9.307190
552.0524, 11.51147
552.5345, 3.516296
553.0167, 3.192444
553.4988, 8.478699
553.9809, 11.44427
554.4630, 10.22333
554.9451, 5.191101
555.4272, 1.263000
555.9094, 9.707825
556.3915, 17.59680
556.8736, 20.49384
557.3557, 19.06097
557.8378, 16.60187
558.3199, 15.34656
558.8021, 13.83630
559.2842, 10.31158
559.7663, 4.136780
560.2484, 1.262878
560.7305, 3.410217
561.2126, 4.601135
561.6948, 7.125732
562.1769, 15.64636
562.6590, 20.28912
563.1411, 17.31042
563.6232, 9.900635
564.1053, 6.586609
564.5875, 8.648682
565.0696, 12.50604
565.5517, 18.14099
566.0338, 25.46570
566.5159, 26.49335
566.9980, 19.79639
567.4802, 12.76514
567.9623, 12.34875
568.4444, 17.39746
568.9265, 22.08575
569.4086, 25.41528
569.8907, 28.62079
570.3729, 33.58105
570.8550, 39.62799
571.3371, 45.16486
571.8192, 51.30267
572.3013, 55.19434
572.7834, 53.97968
573.2656, 48.22345
573.7477, 41.90198
574.2298, 34.49060
574.7119, 28.35504
575.1940, 24.34698
575.6761, 20.77826
576.1583, 24.39636
576.6404, 43.61420
577.1225, 64.04120
577.6046, 68.72180
578.0867, 50.15485
578.5688, 37.72174
579.0510, 37.82056
579.5331, 45.67883
580.0152, 48.18878
580.4973, 45.00330
580.9794, 43.58667
581.4615, 51.05786
581.9437, 62.73322
582.4258, 64.62628
582.9079, 56.66809
583.3900, 48.44971
583.8721, 48.95343
584.3542, 53.15088
584.8364, 54.07953
585.3185, 48.20734
585.8006, 44.24188
586.2827, 50.57135
586.7648, 60.78796
587.2469, 65.09216
587.7291, 54.00964
588.2112, 44.50549
588.6933, 40.25781
589.1754, 40.87524
589.6575, 44.80261
590.1396, 54.19513
590.6218, 62.71973
591.1039, 68.18817
591.5860, 71.57391
592.0681, 70.98145
592.5502, 65.14679
593.0323, 58.37207
593.5145, 56.15228
593.9966, 57.21881
594.4787, 55.06390
594.9608, 47.79510
595.4429, 39.83594
595.9250, 34.94885
596.4072, 32.59729
596.8893, 31.86652
597.3714, 36.70636
597.8535, 40.92365
598.3356, 37.91687
598.8177, 28.43781
599.2999, 23.76111
599.7820, 34.93933
600.2641, 46.92566
600.7462, 50.34186
601.2283, 38.53937
601.7104, 34.45880
602.1926, 41.98328
602.6747, 52.76624
603.1568, 59.40399
603.6389, 62.38373
604.1210, 60.69800
604.6031, 52.39740
605.0853, 42.03497
605.5674, 40.61890
606.0495, 47.09857
606.5316, 51.32404
607.0137, 44.46667
607.4958, 35.28314
607.9780, 38.38489
608.4601, 52.05652
608.9422, 65.27771
609.4243, 73.11987
609.9064, 76.23895
610.3885, 73.23682
610.8707, 59.79425
611.3528, 53.20807
611.8349, 66.38617
612.3170, 84.88910
612.7991, 92.16882
613.2813, 77.98877
613.7634, 67.74164
614.2455, 65.95300
614.7276, 69.19403
615.2097, 67.11292
615.6918, 58.38257
616.1740, 51.41595
616.6561, 50.58014
617.1382, 54.32336
617.6203, 55.88959
618.1024, 55.26233
618.5845, 54.76752
619.0667, 56.85974
619.5488, 60.10596
620.0309, 62.06012
620.5130, 61.80969
620.9951, 62.29065
621.4772, 66.05249
621.9594, 71.26263
622.4415, 76.03967
622.9236, 81.77344
623.4057, 84.90161
623.8878, 85.19220
624.3699, 82.16406
624.8521, 74.32263
625.3342, 56.00757
625.8163, 42.82971
626.2984, 40.26306
626.7805, 46.98145
627.2626, 53.75104
627.7448, 61.24670
628.2269, 64.52094
628.7090, 56.45471
629.1911, 41.08386
629.6732, 31.99451
630.1553, 30.20233
630.6375, 34.40338
631.1196, 50.51740
631.6017, 69.68372
632.0838, 78.67932
632.5659, 68.29352
633.0480, 57.02692
633.5302, 53.68982
634.0123, 55.45618
634.4944, 57.16113
634.9765, 57.03198
635.4586, 57.12842
635.9407, 58.43591
636.4229, 60.39337
636.9050, 60.01538
637.3871, 57.03333
637.8692, 52.45825
638.3513, 44.50287
638.8334, 33.90491
639.3155, 33.97607
639.7976, 45.68994
640.2797, 57.68347
640.7618, 57.47650
641.2440, 50.20709
641.7261, 46.40472
642.2082, 48.74561
642.6903, 52.10211
643.1724, 52.00201
643.6545, 50.67365
644.1367, 51.30481
644.6188, 56.26935
645.1009, 61.70184
645.5830, 69.08057
646.0651, 76.29028
646.5472, 76.47064
647.0294, 64.25671
647.5115, 53.78308
647.9936, 49.80908
648.4757, 51.83228
648.9578, 53.93799
649.4399, 55.91425
649.9221, 58.90613
650.4042, 64.32678
650.8863, 71.45300
651.3684, 78.56482
651.8505, 85.75195
652.3326, 90.51697
652.8148, 87.98566
653.2969, 82.44391
653.7790, 79.65588
654.2611, 82.75958
654.7432, 86.16547
655.2253, 87.89752
655.7075, 88.51678
656.1896, 88.89844
656.6717, 89.35034
657.1538, 89.26965
657.6359, 89.50903
658.1180, 89.28088
658.6002, 84.33289
659.0823, 72.65234
659.5644, 63.69598
660.0465, 62.80157
660.5286, 68.53088
661.0107, 74.74670
661.4929, 81.48370
661.9750, 86.79517
662.4571, 87.38123
662.9392, 86.33972
663.4213, 89.18994
663.9034, 97.96204
664.3856, 103.2587
664.8677, 95.39575
665.3498, 83.77863
665.8319, 77.79285
666.3140, 82.10339
666.7961, 88.80426
667.2783, 101.6126
667.7604, 115.1952
668.2425, 116.8880
668.7246, 100.5027
669.2067, 89.76984
669.6888, 92.18549
670.1710, 103.6313
670.6531, 113.9498
671.1352, 122.9749
671.6173, 127.8567
672.0994, 122.3171
672.5815, 113.6880
673.0637, 113.8351
673.5458, 122.2693
674.0279, 128.9960
674.5100, 126.4728
674.9921, 121.4678
675.4742, 118.9265
675.9564, 120.3391
676.4385, 121.5953
676.9206, 122.4443
677.4027, 123.2219
677.8848, 123.5769
678.3669, 124.1994
678.8491, 122.6844
679.3312, 116.9965
679.8133, 111.9261
680.2954, 116.8084
680.7775, 131.0222
681.2596, 144.9320
681.7418, 156.2794
682.2239, 163.1660
682.7060, 159.8475
683.1881, 149.5689
683.6702, 142.1100
684.1523, 146.6220
684.6345, 151.4526
685.1166, 147.0753
685.5987, 134.5107
686.0808, 130.4307
686.5629, 150.2336
687.0450, 166.9478
687.5272, 168.4482
688.0093, 152.2712
688.4914, 142.8040
688.9735, 141.0374
689.4556, 143.0104
689.9377, 145.7546
690.4199, 149.2996
690.9020, 155.3108
691.3841, 164.7620
691.8662, 171.3009
692.3483, 165.0664
692.8304, 152.8099
693.3126, 144.2283
693.7947, 145.7686
694.2768, 146.8587
694.7589, 143.0577
695.2410, 135.2733
695.7231, 127.1849
696.2053, 117.0468
696.6874, 108.7831
697.1695, 103.7249
697.6516, 100.9640
698.1337, 104.9719
698.6158, 117.7838
699.0980, 125.5922
699.5801, 117.7186
700.0622, 101.0482
700.5443, 99.88690
701.0264, 112.6652
701.5085, 122.0537
701.9907, 112.0094
702.4728, 95.72156
702.9549, 86.79663
703.4370, 87.61072
703.9191, 84.12128
704.4012, 60.21686
704.8834, 37.35284
705.3655, 32.88501
705.8476, 60.17731
706.3297, 74.24933
706.8118, 70.09790
707.2939, 59.32422
707.7761, 54.92444
708.2582, 57.27203
708.7403, 55.76721
709.2224, 48.11102
709.7045, 38.13562
710.1866, 29.20813
710.6688, 22.24677
711.1509, 19.84576
711.6330, 27.18597
712.1151, 34.15009
712.5972, 30.90112
713.0793, 22.14362
713.5615, 19.16504
714.0436, 32.30914
714.5257, 43.72272
715.0078, 48.16669
715.4899, 46.69568
715.9720, 45.49426
716.4542, 45.18225
716.9363, 43.19025
717.4184, 37.23560
717.9005, 28.29663
718.3826, 26.48401
718.8647, 32.43152
719.3469, 38.57501
719.8290, 39.19611
720.3111, 36.90631
720.7932, 34.54840
721.2753, 32.39264
721.7574, 30.90637
722.2396, 32.88116
722.7217, 33.98193
723.2038, 30.64972
723.6859, 20.34619
724.1680, 9.722656
724.6501, 3.859680
725.1323, 14.69775
725.6144, 15.70245
726.0965, 6.076721
726.5786, 5.021423
727.0607, 18.10901
727.5428, 27.81158
728.0250, 22.05389
728.5071, 6.805420
728.9892, 2.226440
729.4713, 5.002136
729.9534, 14.11322
730.4355, 15.35876
730.9177, 11.37585
731.3998, 7.777954
731.8819, 5.458191
732.3640, 4.312439
732.8461, 5.519348
733.3282, 7.890991
733.8104, 5.195007
734.2925, 5.249573
734.7746, 10.65015
735.2567, 3.050110
735.7388, 12.86145
736.2209, 22.10046
736.7031, 24.73877
737.1852, 21.54785
737.6673, 6.508118
738.1494, 9.896301
738.6315, 15.74072
739.1136, 10.50696
739.5958, 5.401978
740.0779, 6.553467
740.5600, 7.693420
741.0421, 4.253418
741.5242, 5.656372
742.0063, 12.07483
742.4885, 14.74786
742.9706, 14.41638
743.4527, 9.943420
743.9348, 1.733704
744.4169, 1.326233
744.8990, 2.135620
745.3812, 6.781860
745.8633, 4.714600
746.3454, 0.7741700
746.8275, 4.343262
747.3096, 22.89429
747.7917, 36.30255
748.2739, 30.29230
748.7560, 15.28180
749.2381, 5.418396
749.7202, 9.318237
750.2023, 6.706360
750.6844, 5.821655
751.1666, 12.49030
751.6487, 13.61487
752.1308, 7.413757
752.6129, 0.1621090
753.0950, 3.725769
753.5771, 8.085144
754.0593, 3.513306
754.5414, 14.29840
755.0235, 2.958191
755.5056, 3.257996
755.9877, 1.768494
756.4698, 4.739441
756.9520, 4.969299
757.4341, 1.630432
757.9162, 16.25543
758.3983, 26.27545
758.8804, 18.87811
759.3625, 2.147217
759.8447, 9.168945
760.3268, 6.8480998E-02
760.8089, 9.545227
761.2910, 7.855530
761.7731, 1.191162
762.2552, 8.998779
762.7373, 29.36981
763.2194, 44.32123
763.7015, 37.85193
764.1837, 24.67480
764.6658, 14.98590
765.1479, 9.814209
765.6300, 6.818054
766.1121, 5.691284
766.5942, 6.561890
767.0764, 10.84082
767.5585, 19.93622
768.0406, 20.34344
768.5227, 9.716370
769.0048, 0.5599370
769.4869, 1.511292
769.9691, 11.86035
770.4512, 19.23547
770.9333, 22.40387
771.4154, 22.75299
771.8975, 18.10437
772.3796, 12.93524
772.8618, 12.75739
773.3439, 24.73718
773.8260, 27.74255
774.3081, 7.172363
774.7902, 14.79236
775.2723, 15.06342
775.7545, 13.55933
776.2366, 31.04694
776.7187, 32.62714
777.2008, 26.23865
777.6829, 20.47662
778.1650, 15.59534
778.6472, 12.21680
779.1293, 9.867859
779.6114, 10.58270
780.0935, 20.83850
780.5756, 33.67780
781.0577, 39.13678
781.5399, 25.75891
782.0220, 16.05981
782.5041, 14.03851
782.9862, 15.97565
783.4683, 17.17859
783.9504, 18.27039
784.4326, 18.72992
784.9147, 18.14380
785.3968, 16.85779
785.8789, 14.62897
786.3610, 12.11639
786.8431, 11.51752
787.3253, 16.51465
787.8074, 21.18256
788.2895, 20.30145
788.7716, 16.09271
789.2537, 14.21588
789.7358, 18.38470
790.2180, 22.24066
790.7001, 25.09894
791.1822, 26.60974
791.6643, 23.62402
792.1464, 14.60474
792.6285, 11.57971
793.1107, 24.56580
793.5928, 43.34460
794.0749, 44.92377
794.5570, 33.32471
795.0391, 25.65863
795.5212, 37.33972
796.0034, 49.57678
796.4855, 50.45905
796.9676, 41.95514
797.4497, 36.90558
797.9318, 37.05670
798.4139, 39.65436
798.8961, 45.76672
799.3782, 54.22211
799.8603, 54.52759
800.3424, 46.14270
800.8245, 39.61621
801.3066, 43.33386
801.7888, 51.82794
802.2709, 55.92322
802.7530, 56.06805
803.2351, 55.24268
803.7172, 52.36493
804.1993, 51.25812
804.6815, 56.14636
805.1636, 67.56799
805.6457, 71.22540
806.1278, 50.91089
806.6099, 65.52100
807.0920, 74.27258
807.5742, 77.48120
808.0563, 58.18219
808.5384, 67.84741
809.0205, 66.04999
809.5026, 63.78442
809.9847, 77.08661
810.4669, 61.35773
810.9490, 74.60663
811.4311, 75.98541
811.9132, 83.12469
812.3953, 77.94885
812.8774, 76.95941
813.3596, 74.23456
813.8417, 79.79669
814.3238, 95.43207
814.8059, 107.5560
815.2880, 101.3139
815.7701, 82.85120
816.2523, 83.91229
816.7344, 104.7941
817.2165, 121.4883
817.6986, 107.4714
818.1807, 86.87103
818.6628, 80.35645
819.1450, 91.32336
819.6271, 105.4521
820.1092, 130.0776
820.5913, 147.0634
821.0734, 143.6552
821.5555, 116.2763
822.0377, 104.9666
822.5198, 112.0748
823.0019, 121.5974
823.4840, 119.2631
823.9661, 110.1784
824.4482, 103.5467
824.9304, 100.0612
825.4125, 102.1401
825.8946, 115.6841
826.3767, 132.0563
826.8588, 145.7176
827.3409, 156.0910
827.8231, 162.5447
828.3052, 164.4455
828.7873, 163.3303
829.2694, 158.1122
829.7515, 149.2551
830.2336, 149.0645
830.7158, 158.2195
831.1979, 167.2805
831.6800, 167.1266
832.1621, 162.9121
832.6442, 161.1725
833.1263, 164.0563
833.6085, 163.5067
834.0906, 149.2231
834.5727, 135.1018
835.0548, 129.0558
835.5369, 131.8480
836.0190, 140.4933
836.5012, 157.6530
836.9833, 171.2657
837.4654, 168.2296
837.9475, 154.0419
838.4296, 142.8795
838.9117, 135.5161
839.3939, 135.2675
839.8760, 153.9175
840.3581, 173.9979
840.8402, 179.8054
841.3223, 166.6395
841.8044, 158.0038
842.2866, 158.6038
842.7687, 159.4285
843.2508, 153.8265
843.7329, 141.7476
844.2150, 137.5249
844.6971, 141.6512
845.1793, 145.8672
845.6614, 141.8428
846.1435, 134.9305
846.6256, 134.0169
847.1077, 139.6873
847.5898, 140.8128
848.0720, 128.2690
848.5541, 113.4891
849.0362, 101.3527
849.5183, 91.58942
850.0004, 91.12878
850.4825, 102.9135
850.9647, 113.6010
851.4468, 113.0669
851.9289, 104.7043
852.4110, 97.82300
852.8931, 92.67688
853.3752, 90.40289
853.8574, 94.91632
854.3395, 100.0403
854.8216, 100.8599
855.3037, 96.99896
855.7858, 95.58905
856.2679, 99.55334
856.7501, 100.4539
857.2322, 93.49548
857.7143, 80.32990
858.1964, 73.84448
858.6785, 73.97223
859.1606, 75.30627
859.6428, 75.47009
860.1249, 74.33337
860.6070, 70.67731
861.0891, 65.04419
861.5712, 61.20837
862.0533, 65.48578
862.5355, 66.18103
863.0176, 55.27448
863.4997, 36.10999
863.9818, 33.70636
864.4639, 50.99188
864.9460, 65.81824
865.4282, 65.86682
865.9103, 58.05286
866.3924, 56.28241
866.8745, 58.89685
867.3566, 59.35657
867.8387, 52.48877
868.3209, 44.63666
868.8030, 36.63190
869.2851, 29.93011
869.7672, 30.46362
870.2493, 43.87219
870.7314, 51.43848
871.2136, 45.30402
871.6957, 31.62433
872.1778, 29.73370
872.6599, 36.99866
873.1420, 39.45959
873.6241, 23.62823
874.1063, 9.728088
874.5884, 19.32629
875.0705, 41.79620
875.5526, 54.14404
876.0347, 42.72888
876.5168, 32.37292
876.9990, 25.99823
877.4811, 22.27814
877.9632, 17.96918
878.4453, 13.22565
878.9274, 13.46765
879.4095, 20.38043
879.8917, 28.50012
880.3738, 33.13965
880.8559, 35.15472
881.3380, 35.86615
881.8201, 35.11359
882.3022, 33.89697
882.7844, 32.94025
883.2665, 31.27917
883.7486, 26.81238
884.2307, 18.42627
884.7128, 15.88763
885.1949, 21.91327
885.6770, 27.94275
886.1591, 19.25732
886.6412, 4.450195
887.1234, 0.6378170
887.6055, 14.73474
888.0876, 26.52515
888.5697, 22.50616
889.0518, 15.27911
889.5339, 16.79346
890.0161, 32.04211
890.4982, 37.21417
890.9803, 30.30176
891.4624, 20.28412
891.9445, 12.64929
892.4266, 8.326721
892.9088, 12.19525
893.3909, 24.80334
893.8730, 33.83362
894.3551, 28.08356
894.8372, 18.66565
895.3193, 12.90601
895.8015, 11.56946
896.2836, 14.30920
896.7657, 24.07111
897.2478, 31.60229
897.7299, 30.68762
898.2120, 23.51025
898.6942, 17.76044
899.1763, 13.65417
899.6584, 11.55817
900.1405, 13.39484
900.6226, 15.93439
901.1047, 17.26422
901.5869, 17.26038
902.0690, 15.62280
902.5511, 11.79022
903.0332, 7.175781
903.5153, 1.407837
903.9974, 4.527588
904.4796, 7.772888
904.9617, 8.193481
905.4438, 4.036682
905.9259, 10.39691
906.4080, 23.94824
906.8901, 24.40863
907.3723, 16.59570
907.8544, 10.94836
908.3365, 13.58691
908.8186, 13.67859
909.3007, 7.278809
909.7828, 6.7016996E-02
910.2650, 4.044617
910.7471, 18.93329
911.2292, 25.58301
911.7113, 18.55157
912.1934, 7.199524
912.6755, 2.247192
913.1577, 8.049622
913.6398, 6.961060
914.1219, 8.489685
914.6040, 17.33661
915.0861, 12.29517
915.5682, 3.643616
916.0504, 0.1961670
916.5325, 0.9829100
917.0146, 5.294617
917.4967, 13.44159
917.9788, 19.39813
918.4609, 14.97449
918.9431, 6.775818
919.4252, 1.916077
919.9073, 1.343994
920.3894, 1.815491
920.8715, 0.8432620
921.3536, 2.354614
921.8358, 9.583130
922.3179, 22.12048
922.8000, 27.82446
923.2821, 26.26355
923.7642, 23.70551
924.2463, 24.75977
924.7285, 26.69409
925.2106, 25.08307
925.6927, 20.84668
926.1748, 18.13770
926.6569, 24.24854
927.1390, 25.18793
927.6212, 12.94153
928.1033, 6.168396
928.5854, 14.46326
929.0675, 11.17609
929.5496, 6.178162
930.0317, 2.160767
930.5139, 1.769958
930.9960, 8.148438
931.4781, 15.27539
931.9602, 19.35547
932.4423, 14.55402
932.9244, 13.72687
933.4066, 25.52728
933.8887, 39.07123
934.3708, 41.85223
934.8529, 33.08923
935.3350, 21.04492
935.8171, 5.428223
936.2993, 6.602722
936.7814, 3.750061
937.2635, 6.303772
937.7456, 12.31549
938.2277, 11.78174
938.7098, 10.53516
939.1920, 10.99786
939.6741, 12.00226
940.1562, 13.20197
940.6383, 14.61530
941.1204, 14.63367
941.6025, 13.15399
942.0847, 11.65692
942.5668, 10.59393
943.0489, 10.42975
943.5310, 12.04108
944.0131, 15.20062
944.4952, 18.78015
944.9774, 27.55054
945.4595, 30.15674
945.9416, 20.36084
946.4237, 3.455505
946.9058, 6.126038
947.3879, 8.461914
947.8701, 2.072876
948.3522, 16.98230
948.8343, 37.28845
949.3164, 45.85614
949.7985, 45.95325
950.2806, 42.86652
950.7628, 36.24500
951.2449, 29.64362
951.7270, 20.59088
952.2091, 14.50232
952.6912, 20.22412
953.1733, 37.98639
953.6555, 43.29108
954.1376, 33.63184
954.6197, 20.17944
955.1018, 8.392090
955.5839, 1.665161
956.0660, 6.807373
956.5482, 25.97375
957.0303, 37.41296
957.5124, 30.78467
957.9945, 24.88123
958.4766, 29.05945
958.9587, 40.85773
959.4409, 44.21289
959.9230, 39.60620
960.4051, 33.84991
960.8872, 29.03424
961.3693, 26.09589
961.8514, 27.88116
962.3336, 32.00647
962.8157, 32.08301
963.2978, 22.53711
963.7799, 16.88806
964.2620, 17.79376
964.7441, 21.98865
965.2263, 23.41516
965.7084, 22.87421
966.1905, 25.24994
966.6726, 32.97040
967.1547, 38.25195
967.6368, 33.32800
968.1190, 23.94513
968.6011, 15.54858
969.0832, 8.527039
969.5653, 3.168396
970.0474, 1.102051
970.5295, 2.560669
971.0117, 1.104919
971.4938, 8.781860
971.9759, 17.54169
972.4580, 26.37585
972.9401, 29.83173
973.4222, 21.29071
973.9044, 9.918762
974.3865, 2.741821
974.8686, 14.41809
975.3507, 13.45758
975.8328, 3.890686
976.3149, 19.24365
976.7971, 27.08765
977.2792, 29.72772
977.7613, 28.95819
978.2434, 26.29413
978.7255, 25.22388
979.2076, 28.48798
979.6898, 30.88068
980.1719, 30.01825
980.6540, 27.78320
981.1361, 25.94452
981.6182, 24.60083
982.1003, 22.50323
982.5825, 19.30579
983.0646, 17.83618
983.5467, 23.49994
984.0288, 30.91150
984.5109, 30.83801
984.9930, 22.95007
985.4752, 21.42792
985.9573, 40.59680
986.4394, 54.07166
986.9215, 52.98444
987.4036, 40.20905
987.8857, 24.57483
988.3679, 6.860840
988.8500, 0.6045530
989.3321, 15.49841
989.8142, 32.61591
990.2963, 24.66290
990.7784, 4.971497
991.2606, 3.464661
991.7427, 16.59473
992.2248, 25.84430
992.7069, 19.47681
993.1890, 7.638062
993.6711, 1.540527
994.1533, 0.6520390
994.6354, 3.742920
995.1175, 8.202209
995.5996, 8.007324
996.0817, 8.906433
996.5638, 25.57117
997.0460, 28.38104
997.5281, 17.36029
998.0102, 9.449341
998.4923, 4.886841
998.9744, 2.348694
999.4565, 0.7283330
999.9387, 1.247070
1000.421, 8.041382
1000.903, 18.87885
1001.385, 28.01440
1001.867, 33.37531
1002.349, 36.24054
1002.831, 37.66144
1003.313, 36.18884
1003.796, 28.56445
1004.278, 14.09900
1004.760, 2.051331
1005.242, 6.306824
1005.724, 10.93079
1006.206, 11.25513
1006.688, 9.141541
1007.170, 5.594727
1007.653, 0.5616460
1008.135, 3.500671
1008.617, 4.583496
1009.099, 8.054016
1009.581, 19.18176
1010.063, 33.33765
1010.545, 27.47290
1011.027, 6.257568
1011.509, 7.413940
1011.992, 3.526794
1012.474, 18.24591
1012.956, 27.09552
1013.438, 30.76508
1013.920, 30.48663
1014.402, 23.39911
1014.884, 22.19147
1015.366, 29.06433
1015.848, 37.57440
1016.331, 41.83624
1016.813, 42.30450
1017.295, 38.58868
1017.777, 30.62848
1018.259, 23.99402
1018.741, 20.71344
1019.223, 19.57666
1019.705, 20.76605
1020.188, 23.65710
1020.670, 24.25159
1021.152, 22.59454
1021.634, 20.89966
1022.116, 20.30402
1022.598, 19.74847
1023.080, 15.63666
1023.562, 11.55286
1024.044, 13.88770
1024.527, 32.17438
1025.009, 41.78741
1025.491, 39.28729
1025.973, 33.71661
1026.455, 36.56036
1026.937, 43.76147
1027.419, 39.90314
1027.901, 24.30194
1028.384, 12.97382
1028.866, 18.30133
1029.348, 28.09137
1029.830, 37.13098
1030.312, 44.91803
1030.794, 49.41376
1031.276, 50.33862
1031.758, 51.06909
1032.240, 52.85657
1032.723, 53.16809
1033.205, 49.09052
1033.687, 43.61169
1034.169, 38.91376
1034.651, 36.18988
1035.133, 32.81982
1035.615, 24.60297
1036.097, 21.45190
1036.579, 37.83038
1037.062, 68.00372
1037.544, 76.03955
1038.026, 62.48724
1038.508, 50.39337
1038.990, 57.20874
1039.472, 67.24695
1039.954, 71.02319
1040.436, 69.95923
1040.919, 70.04102
1041.401, 71.40332
1041.883, 73.44073
1042.365, 76.09894
1042.847, 79.27271
1043.329, 84.03241
1043.811, 88.78680
1044.293, 90.76855
1044.776, 88.57526
1045.258, 86.23920
1045.740, 80.02924
1046.222, 79.84247
1046.704, 95.69244
1047.186, 124.1459
1047.668, 135.7445
1048.150, 132.0816
1048.632, 124.6342
1049.115, 115.9555
1049.597, 109.7111
1050.079, 107.8939
1050.561, 109.7350
1051.043, 112.4995
1051.525, 114.9211
1052.007, 124.5652
1052.489, 144.4725
1052.971, 162.7158
1053.454, 161.2244
1053.936, 152.0298
1054.418, 151.8699
1054.900, 163.2941
1055.382, 178.7079
1055.864, 202.1618
1056.346, 221.5752
1056.828, 232.3256
1057.311, 235.6902
1057.793, 232.6144
1058.275, 225.2376
1058.757, 226.1838
1059.239, 242.8239
1059.721, 265.2603
1060.203, 292.5930
1060.685, 319.5971
1061.167, 338.6808
1061.650, 345.1001
1062.132, 360.2300
1062.614, 384.2866
1063.096, 416.4890
1063.578, 460.0194
1064.060, 509.3295
1064.542, 556.3055
1065.024, 601.9156
1065.506, 654.4312
1065.989, 714.3951
1066.471, 781.7632
1066.953, 858.3804
1067.435, 942.2326
1067.917, 1031.337
1068.399, 1124.125
1068.881, 1208.664
1069.363, 1278.320
1069.846, 1357.492
1070.328, 1465.550
1070.810, 1583.111
1071.292, 1692.809
1071.774, 1794.480
1072.256, 1910.478
1072.738, 2040.518
1073.220, 2177.297
1073.702, 2317.348
1074.185, 2457.504
1074.667, 2594.887
1075.149, 2727.607
1075.631, 2848.554
1076.113, 2945.679
1076.595, 3054.799
1077.077, 3189.732
1077.559, 3306.128
1078.042, 3361.996
1078.524, 3359.818
1079.006, 3303.840
1079.488, 3194.661
1079.970, 3037.095
1080.452, 2802.178
1080.934, 2549.001
1081.416, 2292.592
1081.898, 2038.757
1082.380, 1795.504
1082.863, 1564.992
1083.345, 1361.256
1083.827, 1189.024
1084.309, 1038.918
1084.791, 897.8086
1085.273, 773.9705
1085.755, 679.4206
1086.237, 618.3262
1086.720, 557.7731
1087.202, 496.6498
1087.684, 441.6128
1088.166, 397.2463
1088.648, 360.8471
1089.130, 329.9924
1089.612, 302.5061
1090.094, 274.9114
1090.577, 239.7507
1091.059, 214.3017
1091.541, 204.6539
1092.023, 198.3039
1092.505, 178.0368
1092.987, 148.8632
1093.469, 131.7453
1093.951, 127.6857
1094.433, 123.7211
1094.916, 105.6221
1095.398, 92.89319
1095.880, 100.0995
1096.362, 118.9975
1096.844, 121.9889
1097.326, 108.9536
1097.808, 106.5586
1098.290, 126.0638
1098.772, 142.1313
1099.255, 118.2224
1099.737, 81.78998
1100.219, 64.16815
1100.701, 72.86902
1101.183, 78.76764
1101.665, 82.81879
1102.147, 80.24341
1102.629, 63.50812
1103.112, 43.09143
1103.594, 37.22760
1104.076, 42.11377
1104.558, 48.79370
1105.040, 58.47626
1105.522, 63.20282
1106.004, 60.62598
1106.486, 55.78247
1106.969, 53.95862
1107.451, 54.12292
1107.933, 51.08337
1108.415, 45.05182
1108.897, 40.80426
1109.379, 44.43250
1109.861, 46.79901
1110.343, 42.51825
1110.825, 34.84473
1111.307, 30.81567
1111.790, 30.36151
1112.272, 26.87634
1112.754, 18.53094
1113.236, 10.84760
1113.718, 6.013489
1114.200, 5.906555
1114.682, 15.98901
1115.164, 36.32855
1115.647, 44.30371
1116.129, 37.96967
1116.611, 27.45300
1117.093, 14.25024
1117.575, 2.930298
1118.057, 0.3447270
1118.539, 2.744507
1119.021, 10.16174
1119.504, 27.17786
1119.986, 35.43530
1120.468, 32.07159
1120.950, 25.11005
1121.432, 20.62628
1121.914, 17.04645
1122.396, 6.600830
1122.878, 7.541260
1123.360, 12.83582
1123.843, 8.947144
1124.325, 22.91040
1124.807, 16.10181
1125.289, 3.688843
1125.771, 8.167297
1126.253, 25.69769
1126.735, 27.55121
1127.217, 11.45862
1127.699, 0.6887210
1128.182, 20.44513
1128.664, 38.64117
1129.146, 31.52679
1129.628, 8.811890
1130.110, 2.989319
1130.592, 3.732117
1131.074, 0.7825930
1131.556, 10.81726
1132.039, 19.01050
1132.521, 16.04333
1133.003, 9.590820
1133.485, 6.396667
1133.967, 7.072937
1134.449, 13.03192
1134.931, 26.12732
1135.413, 34.44434
1135.896, 30.80048
1136.378, 22.20880
1136.860, 15.45178
1137.342, 11.32697
1137.824, 11.48486
1138.306, 22.90680
1138.788, 24.50385
1139.270, 12.70770
1139.752, 0.8491820
1140.234, 9.076050
1140.717, 12.51050
1141.199, 11.92010
1141.681, 7.817505
1142.163, 1.979309
1142.645, 6.004028
1143.127, 14.90784
1143.609, 28.00562
1144.091, 36.70929
1144.574, 25.35083
1145.056, 0.4886470
1145.538, 13.96332
1146.020, 16.29529
1146.502, 10.97754
1146.984, 10.83887
1147.466, 26.61731
1147.948, 25.81836
1148.431, 15.11517
1148.913, 8.217529
1149.395, 5.090759
1149.877, 6.523926
1150.359, 13.14093
1150.841, 21.06586
1151.323, 31.38019
1151.805, 38.69263
1152.287, 36.97656
1152.770, 28.18524
1153.252, 28.60425
1153.734, 38.31970
1154.216, 42.67163
1154.698, 35.36987
1155.180, 23.26227
1155.662, 4.710388
1156.144, 10.86157
1156.626, 10.10059
1157.109, 9.356812
1157.591, 27.80811
1158.073, 45.95959
1158.555, 55.80865
1159.037, 47.74103
1159.519, 33.87262
1160.001, 26.93976
1160.483, 24.45953
1160.966, 21.66229
1161.448, 16.19360
1161.930, 14.83997
1162.412, 18.87604
1162.894, 22.35614
1163.376, 19.11700
1163.858, 12.90234
1164.340, 8.154541
1164.823, 5.325256
1165.305, 5.829529
1165.787, 14.26825
1166.269, 17.31421
1166.751, 10.98529
1167.233, 4.907349
1167.715, 13.76965
1168.197, 30.23956
1168.679, 41.56915
1169.161, 46.38812
1169.644, 43.54346
1170.126, 23.75751
1170.608, 8.948792
1171.090, 5.289673
1171.572, 7.514954
1172.054, 5.754150
1172.536, 2.007874
1173.018, 1.547241
1173.501, 5.459778
1173.983, 11.43878
1174.465, 23.31354
1174.947, 31.40900
1175.429, 31.08942
1175.911, 25.05719
1176.393, 20.56140
1176.875, 17.66339
1177.358, 16.71655
1177.840, 18.42377
1178.322, 20.40875
1178.804, 22.65369
1179.286, 23.77966
1179.768, 22.68030
1180.250, 19.69379
1180.732, 15.88354
1181.214, 11.67767
1181.697, 10.65649
1182.179, 13.31073
1182.661, 18.98145
1183.143, 35.87720
1183.625, 48.80688
1184.107, 40.95911
1184.589, 12.17291
1185.071, 6.637329
1185.553, 15.53192
1186.036, 16.22620
1186.518, 3.017944
1187.000, 10.87390
1187.482, 17.21332
1187.964, 20.21661
1188.446, 25.95715
1188.928, 34.86829
1189.410, 44.06293
1189.893, 53.30353
1190.375, 56.17212
1190.857, 40.60034
1191.339, 24.60590
1191.821, 20.41150
1192.303, 24.48865
1192.785, 28.30829
1193.267, 31.66577
1193.750, 40.74597
1194.232, 57.34326
1194.714, 66.17169
1195.196, 43.08557
1195.678, 17.04462
1196.160, 14.98346
1196.642, 30.43964
1197.124, 30.62958
1197.606, 13.71063
1198.089, 4.915161
1198.571, 11.20807
1199.053, 20.88434
1199.535, 22.06061
1200.017, 22.47858
1200.499, 31.28253
1200.981, 47.28699
1201.463, 53.39276
1201.945, 48.85516
1202.427, 42.06744
1202.910, 35.17078
1203.392, 26.92163
1203.874, 14.29407
1204.356, 3.371521
1204.838, 2.305542
1205.320, 10.91974
1205.802, 16.69995
1206.284, 19.52222
1206.767, 20.47614
1207.249, 18.90332
1207.731, 18.06860
1208.213, 20.99304
1208.695, 25.81189
1209.177, 32.85474
1209.659, 44.08972
1210.141, 44.72736
1210.624, 33.44757
1211.106, 24.16156
1211.588, 25.60736
1212.070, 31.16620
1212.552, 37.65363
1213.034, 42.27905
1213.516, 39.35651
1213.998, 23.68884
1214.480, 18.02704
1214.963, 24.03387
1215.445, 31.35706
1215.927, 33.06409
1216.409, 33.24603
1216.891, 36.38599
1217.373, 40.79175
1217.855, 43.19269
1218.337, 44.02399
1218.819, 39.20831
1219.302, 27.58618
1219.784, 19.85345
1220.266, 29.97150
1220.748, 43.17383
1221.230, 44.92804
1221.712, 38.61902
1222.194, 35.10547
1222.676, 35.62158
1223.159, 34.40448
1223.641, 30.63245
1224.123, 28.28943
1224.605, 31.36432
1225.087, 36.88342
1225.569, 46.97668
1226.051, 57.01935
1226.533, 49.93762
1227.016, 20.58948
1227.498, 4.448181
1227.980, 7.314819
1228.462, 15.44867
1228.944, 15.58856
1229.426, 14.51947
1229.908, 18.79260
1230.390, 27.03375
1230.872, 31.86316
1231.354, 33.28156
1231.837, 31.39996
1232.319, 25.61719
1232.801, 21.38831
1233.283, 25.77594
1233.765, 31.88318
1234.247, 31.99805
1234.729, 28.38171
1235.211, 34.84540
1235.694, 52.30194
1236.176, 55.93927
1236.658, 36.96283
1237.140, 18.02734
1237.622, 20.81934
1238.104, 30.40845
1238.586, 34.79437
1239.068, 32.89166
1239.551, 30.68005
1240.033, 26.55182
1240.515, 21.89398
1240.997, 16.36639
1241.479, 13.68781
1241.961, 17.73700
1242.443, 25.14410
1242.925, 35.72772
1243.407, 47.63007
1243.890, 44.84021
1244.372, 29.22260
1244.854, 23.57214
1245.336, 40.87531
1245.818, 53.20203
1246.300, 30.50323
1246.782, 6.519104
1247.264, 8.032593
1247.746, 30.34229
1248.229, 40.60675
1248.711, 40.16174
1249.193, 37.17639
1249.675, 31.46326
1250.157, 30.61829
1250.639, 49.72552
1251.121, 63.51123
1251.603, 50.82745
1252.086, 18.90533
1252.568, 13.06122
1253.050, 27.98859
1253.532, 41.24976
1254.014, 43.05341
1254.496, 44.01526
1254.978, 49.47626
1255.460, 53.07660
1255.943, 49.34821
1256.425, 40.71033
1256.907, 36.46094
1257.389, 35.89923
1257.871, 37.03424
1258.353, 42.49597
1258.835, 42.97937
1259.317, 33.59027
1259.799, 24.68079
1260.281, 25.93579
1260.764, 32.91296
1261.246, 30.72034
1261.728, 23.23029
1262.210, 21.54553
1262.692, 36.59906
1263.174, 46.84308
1263.656, 52.60181
1264.138, 49.72327
1264.621, 26.70544
1265.103, 2.645386
1265.585, 11.50165
1266.067, 4.523254
1266.549, 6.174927
1267.031, 18.22821
1267.513, 35.24713
1267.995, 60.89142
1268.478, 78.02039
1268.960, 64.30933
1269.442, 40.90216
1269.924, 38.04620
1270.406, 48.36920
1270.888, 52.49628
1271.370, 44.76013
1271.852, 43.45209
1272.334, 49.73645
1272.817, 57.66577
1273.299, 67.66351
1273.781, 72.33398
1274.263, 59.33984
1274.745, 37.53674
1275.227, 26.08014
1275.709, 26.93768
1276.191, 26.66956
1276.673, 24.61035
1277.156, 26.75763
1277.638, 45.09778
1278.120, 61.02521
1278.602, 56.89722
1279.084, 39.85986
1279.566, 36.07544
1280.048, 40.47772
1280.530, 45.13458
1281.013, 49.58496
1281.495, 51.87079
1281.977, 49.79919
1282.459, 46.42395
1282.941, 41.26208
1283.423, 37.06488
1283.905, 40.64459
1284.387, 48.82874
1284.870, 38.63110
1285.352, 12.36005
1285.834, 3.563354
1286.316, 11.07562
1286.798, 26.31671
1287.280, 36.39734
1287.762, 42.46313
1288.244, 46.20618
1288.726, 46.23090
1289.208, 27.00684
1289.691, 10.77911
1290.173, 0.4888310
1290.655, 7.306641
1291.137, 5.148804
1291.619, 0.0000000E+00
##END=



