##NAMES=Namansilite
##RRUFFID=R070006
##IDEAL CHEMISTRY=NaMn^3+^Si_2_O_6_
##LOCALITY=Hoskins mine, near Grenfell, New South Wales, Australia
##OWNER=RRUFF
##SOURCE=Marcus Origlieri
##DESCRIPTION=Dark red granular, associated with ungarettiite, R050244
##STATUS=The identification of this mineral is confirmed by single-crystal X-ray diffraction and chemical analysis.
##URL=rruff.info/R070006
##MEASURED CHEMISTRY=Na_1.00_(Mn^3+^_0.91_Fe^3+^_0.09_)_Î£=1_Si_2.00_O_6_; trace amounts of Cr and Al
155.5403, 0.0000000E+00
156.0225, 42.16382
156.5046, 63.86157
156.9867, 16.97705
157.4688, 6.788574
157.9509, 3.119385
158.4330, 8.476807
158.9152, 29.87134
159.3973, 53.09277
159.8794, 71.42700
160.3615, 84.02832
160.8436, 98.74219
161.3257, 123.4829
161.8079, 158.4666
162.2900, 201.8691
162.7721, 264.8904
163.2542, 329.4065
163.7363, 383.4275
164.2184, 425.8601
164.7006, 465.7693
165.1827, 514.7725
165.6648, 576.5085
166.1469, 635.0518
166.6290, 687.1890
167.1111, 736.9285
167.5933, 785.8491
168.0754, 834.5142
168.5575, 881.9434
169.0396, 926.0723
169.5217, 964.4971
170.0038, 1007.312
170.4860, 1061.867
170.9681, 1115.796
171.4502, 1159.135
171.9323, 1191.535
172.4144, 1222.614
172.8965, 1265.815
173.3787, 1328.372
173.8608, 1384.651
174.3429, 1427.568
174.8250, 1469.564
175.3071, 1521.217
175.7892, 1582.269
176.2714, 1641.467
176.7535, 1681.112
177.2356, 1687.546
177.7177, 1710.716
178.1998, 1773.596
178.6819, 1832.834
179.1641, 1860.513
179.6462, 1854.554
180.1283, 1834.425
180.6104, 1825.250
181.0925, 1836.874
181.5746, 1830.398
182.0567, 1796.642
182.5389, 1755.913
183.0210, 1722.292
183.5031, 1695.659
183.9852, 1664.200
184.4673, 1612.583
184.9494, 1532.208
185.4316, 1458.655
185.9137, 1389.167
186.3958, 1326.812
186.8779, 1274.260
187.3600, 1231.112
187.8421, 1194.617
188.3243, 1162.646
188.8064, 1136.912
189.2885, 1108.414
189.7706, 1076.673
190.2527, 1043.167
190.7348, 1004.842
191.2170, 964.0991
191.6991, 930.1138
192.1812, 914.6489
192.6633, 925.1235
193.1454, 910.1992
193.6275, 851.2017
194.1097, 788.8638
194.5918, 743.6079
195.0739, 714.6396
195.5560, 689.3535
196.0381, 656.0933
196.5202, 612.9351
197.0024, 580.5210
197.4845, 566.8716
197.9666, 555.7085
198.4487, 537.9990
198.9308, 512.1626
199.4129, 483.1299
199.8951, 456.5117
200.3772, 432.3296
200.8593, 418.1426
201.3414, 419.4224
201.8235, 422.7871
202.3056, 427.5234
202.7878, 430.5093
203.2699, 424.1089
203.7520, 401.3745
204.2341, 363.7051
204.7162, 339.2520
205.1983, 329.2358
205.6805, 328.3955
206.1626, 341.7769
206.6447, 366.0605
207.1268, 384.0024
207.6089, 383.3877
208.0910, 371.9336
208.5732, 371.7358
209.0553, 393.0776
209.5374, 407.6748
210.0195, 402.1099
210.5016, 385.0293
210.9837, 379.5669
211.4659, 398.3271
211.9480, 432.3960
212.4301, 449.6816
212.9122, 431.0801
213.3943, 411.0337
213.8764, 398.1465
214.3586, 389.5498
214.8407, 381.2158
215.3228, 371.1602
215.8049, 361.0181
216.2870, 351.6191
216.7691, 341.9404
217.2513, 334.2153
217.7334, 334.0679
218.2155, 334.0327
218.6976, 322.3896
219.1797, 295.0303
219.6618, 262.2837
220.1440, 244.3213
220.6261, 258.1807
221.1082, 258.0322
221.5903, 229.9751
222.0724, 193.4434
222.5546, 167.8213
223.0367, 157.9819
223.5188, 155.0361
224.0009, 145.8013
224.4830, 122.9980
224.9651, 112.4800
225.4473, 126.6851
225.9294, 144.9302
226.4115, 151.2100
226.8936, 143.0435
227.3757, 126.9189
227.8578, 109.3408
228.3400, 89.57959
228.8221, 71.56934
229.3042, 53.77832
229.7863, 38.74219
230.2684, 25.96875
230.7505, 16.60596
231.2327, 15.83691
231.7148, 30.71094
232.1969, 64.28711
232.6790, 78.08740
233.1611, 57.83252
233.6432, 35.46533
234.1254, 25.85547
234.6075, 27.01123
235.0896, 29.03516
235.5717, 24.31934
236.0538, 13.52002
236.5359, 11.50049
237.0181, 24.39697
237.5002, 38.06104
237.9823, 55.80908
238.4644, 70.77832
238.9465, 68.37256
239.4286, 38.54785
239.9108, 10.79492
240.3929, 42.67529
240.8750, 47.65967
241.3571, 46.11768
241.8392, 39.14209
242.3213, 27.47900
242.8035, 9.902832
243.2856, 14.19775
243.7677, 40.27295
244.2498, 57.57227
244.7319, 61.46094
245.2140, 61.16504
245.6962, 50.80615
246.1783, 39.63037
246.6604, 36.76611
247.1425, 44.58691
247.6246, 58.21289
248.1067, 70.99316
248.5889, 88.02539
249.0710, 91.94580
249.5531, 67.83887
250.0352, 43.38574
250.5173, 43.12158
250.9994, 66.31836
251.4816, 88.42236
251.9637, 79.49707
252.4458, 27.79883
252.9279, 3.062012
253.4100, 1.847656
253.8921, 11.08984
254.3743, 9.596191
254.8564, 0.3315430
255.3385, 6.206543
255.8206, 4.937988
256.3027, 33.12744
256.7849, 38.19287
257.2670, 19.03564
257.7491, 60.46436
258.2312, 54.90332
258.7133, 21.60596
259.1954, 5.451172
259.6776, 5.180664
260.1597, 16.03809
260.6418, 30.65479
261.1239, 37.91992
261.6060, 38.37207
262.0881, 25.68115
262.5703, 9.558105
263.0524, 1.835449
263.5345, 7.791016
264.0166, 19.10596
264.4987, 16.96631
264.9808, 9.556641
265.4630, 24.84814
265.9451, 14.30322
266.4272, 1.383301
266.9093, 4.830566
267.3914, 6.887695
267.8735, 20.26758
268.3557, 13.82812
268.8378, 20.13818
269.3199, 34.69482
269.8020, 0.5678710
270.2841, 34.79932
270.7662, 45.73486
271.2484, 35.04785
271.7305, 25.29102
272.2126, 41.71875
272.6947, 82.37305
273.1768, 100.1304
273.6589, 75.32617
274.1411, 52.31348
274.6232, 46.74902
275.1053, 58.08496
275.5874, 86.26855
276.0695, 144.2373
276.5516, 213.4546
277.0338, 237.2588
277.5159, 196.8521
277.9980, 157.0371
278.4801, 146.3452
278.9622, 152.7964
279.4443, 164.0405
279.9265, 176.7007
280.4086, 192.0532
280.8907, 213.6665
281.3728, 242.3906
281.8549, 267.9038
282.3370, 287.6499
282.8192, 301.3525
283.3013, 306.4824
283.7834, 301.1045
284.2655, 298.0913
284.7476, 311.5430
285.2297, 337.3960
285.7119, 353.4258
286.1940, 351.9448
286.6761, 343.3105
287.1582, 334.6548
287.6403, 310.0732
288.1224, 329.0962
288.6046, 338.4487
289.0867, 338.6519
289.5688, 302.2134
290.0509, 313.1553
290.5330, 305.1489
291.0151, 296.3916
291.4973, 279.4761
291.9794, 265.3369
292.4615, 274.7549
292.9436, 286.4897
293.4257, 279.7124
293.9078, 256.1313
294.3900, 234.6387
294.8721, 227.8184
295.3542, 230.8481
295.8363, 224.4253
296.3184, 202.6372
296.8005, 179.8091
297.2827, 159.4917
297.7648, 142.0137
298.2469, 128.3003
298.7290, 119.9209
299.2111, 115.7900
299.6932, 114.0806
300.1754, 117.0654
300.6575, 117.9785
301.1396, 114.5020
301.6217, 108.8618
302.1038, 101.4214
302.5859, 92.93994
303.0681, 88.47852
303.5501, 95.43066
304.0323, 118.9375
304.5144, 127.1885
304.9965, 107.7905
305.4786, 86.78174
305.9607, 73.87842
306.4428, 70.33496
306.9250, 76.55518
307.4071, 94.21875
307.8892, 121.2583
308.3713, 138.2866
308.8534, 135.1519
309.3355, 133.0562
309.8177, 137.4453
310.2998, 143.8008
310.7819, 143.7319
311.2640, 133.9834
311.7461, 123.2915
312.2282, 131.3960
312.7104, 170.0576
313.1925, 202.8047
313.6746, 235.9629
314.1567, 258.6216
314.6388, 254.1211
315.1209, 224.7056
315.6031, 192.7910
316.0852, 187.0459
316.5673, 212.0103
317.0494, 226.2471
317.5315, 210.3901
318.0136, 201.7041
318.4958, 221.0176
318.9779, 260.3276
319.4600, 299.4561
319.9421, 328.9131
320.4242, 350.1064
320.9063, 362.2822
321.3885, 360.0210
321.8706, 363.6372
322.3527, 382.8320
322.8348, 412.8818
323.3169, 450.5386
323.7990, 497.0562
324.2812, 542.7778
324.7633, 572.9429
325.2454, 589.6304
325.7275, 619.4546
326.2096, 676.1177
326.6917, 741.1035
327.1739, 795.7588
327.6560, 841.8120
328.1381, 882.8940
328.6202, 915.7065
329.1023, 945.6885
329.5844, 982.2949
330.0666, 1027.224
330.5487, 1079.708
331.0308, 1145.254
331.5129, 1220.402
331.9950, 1278.751
332.4771, 1312.742
332.9593, 1335.776
333.4414, 1349.292
333.9235, 1358.353
334.4056, 1378.244
334.8877, 1419.161
335.3698, 1474.696
335.8520, 1521.730
336.3341, 1562.270
336.8162, 1592.810
337.2983, 1609.280
337.7804, 1616.958
338.2625, 1620.821
338.7447, 1622.430
339.2268, 1622.281
339.7089, 1621.181
340.1910, 1619.806
340.6731, 1614.691
341.1552, 1615.360
341.6374, 1604.513
342.1195, 1565.061
342.6016, 1505.392
343.0837, 1449.194
343.5658, 1414.211
344.0479, 1396.634
344.5301, 1367.820
345.0122, 1320.523
345.4943, 1271.149
345.9764, 1222.873
346.4585, 1173.795
346.9406, 1117.979
347.4228, 1053.288
347.9049, 992.6616
348.3870, 960.4229
348.8691, 964.7754
349.3512, 955.1021
349.8333, 915.7812
350.3155, 867.6973
350.7976, 821.5806
351.2797, 777.2939
351.7618, 730.6636
352.2439, 674.1357
352.7260, 612.8525
353.2082, 563.4570
353.6903, 527.7749
354.1724, 499.4351
354.6545, 486.8882
355.1366, 477.1597
355.6187, 446.8652
356.1009, 375.7529
356.5830, 305.1030
357.0651, 273.5273
357.5472, 275.7363
358.0293, 282.3730
358.5114, 286.7358
358.9936, 285.7798
359.4757, 271.2002
359.9578, 240.1631
360.4399, 215.1826
360.9220, 206.2358
361.4041, 203.9722
361.8863, 201.1431
362.3684, 195.9541
362.8505, 181.4766
363.3326, 148.1377
363.8147, 95.62646
364.2968, 64.48193
364.7790, 66.17236
365.2611, 73.55518
365.7432, 79.30127
366.2253, 83.28027
366.7074, 87.59131
367.1895, 93.41064
367.6717, 97.12939
368.1538, 89.54883
368.6359, 58.32568
369.1180, 37.43164
369.6001, 36.06543
370.0822, 37.45166
370.5644, 24.76221
371.0465, 0.5761720
371.5286, 14.08154
372.0107, 6.942383
372.4928, 61.54004
372.9749, 82.77246
373.4571, 44.51758
373.9392, 8.245605
374.4213, 1.851563
374.9034, 2.351563
375.3855, 3.112793
375.8676, 8.006836
376.3498, 20.05078
376.8319, 13.80908
377.3140, 12.12012
377.7961, 28.19531
378.2782, 22.94043
378.7603, 7.472168
379.2425, 8.117676
379.7246, 23.75977
380.2067, 35.00000
380.6888, 39.49951
381.1709, 38.40430
381.6530, 31.99072
382.1352, 20.03662
382.6173, 7.642578
383.0994, 2.259766
383.5815, 9.383301
384.0636, 13.56543
384.5457, 14.40283
385.0279, 12.70557
385.5100, 3.312988
385.9921, 7.620117
386.4742, 5.301758
386.9563, 16.30762
387.4384, 42.84375
387.9206, 49.12061
388.4027, 18.51270
388.8848, 7.297363
389.3669, 38.54492
389.8490, 68.26709
390.3311, 60.70996
390.8133, 25.05664
391.2954, 1.440918
391.7775, 10.24854
392.2596, 53.92383
392.7417, 89.50293
393.2238, 111.1719
393.7060, 133.1255
394.1881, 165.7666
394.6702, 195.7788
395.1523, 206.1958
395.6344, 193.3853
396.1165, 178.1982
396.5987, 187.7085
397.0808, 220.1758
397.5629, 232.9980
398.0450, 208.7090
398.5271, 183.7939
399.0092, 181.8447
399.4914, 198.7051
399.9735, 223.2759
400.4556, 261.4976
400.9377, 299.0601
401.4198, 312.6294
401.9019, 304.5127
402.3841, 304.1284
402.8662, 328.3804
403.3483, 363.5356
403.8304, 378.8750
404.3125, 365.1582
404.7946, 361.7637
405.2768, 390.3989
405.7589, 428.0635
406.2410, 445.0938
406.7231, 439.3472
407.2052, 437.0811
407.6873, 465.6743
408.1695, 525.9170
408.6516, 549.7285
409.1337, 493.8213
409.6158, 454.9380
410.0979, 470.6133
410.5800, 513.4912
411.0622, 547.7388
411.5443, 558.9585
412.0264, 554.5259
412.5085, 541.1006
412.9906, 511.5488
413.4727, 503.3398
413.9549, 539.6948
414.4370, 577.3306
414.9191, 599.3374
415.4012, 606.4204
415.8833, 604.1328
416.3654, 589.6191
416.8476, 571.4775
417.3297, 570.2158
417.8118, 589.5874
418.2939, 604.9668
418.7760, 608.6343
419.2581, 600.8818
419.7403, 579.4443
420.2224, 540.0024
420.7045, 507.1177
421.1866, 496.3906
421.6687, 497.9663
422.1508, 499.1577
422.6330, 498.0469
423.1151, 489.2925
423.5972, 466.5269
424.0793, 430.3018
424.5614, 397.1494
425.0435, 359.3623
425.5257, 333.4453
426.0078, 332.8379
426.4899, 343.9253
426.9720, 347.1445
427.4541, 335.7373
427.9362, 316.9434
428.4184, 302.5142
428.9005, 293.7891
429.3826, 280.4395
429.8647, 267.6187
430.3468, 250.5811
430.8289, 222.1382
431.3111, 187.8516
431.7932, 157.6689
432.2753, 135.9805
432.7574, 124.4717
433.2395, 129.1201
433.7216, 153.7222
434.2038, 168.1416
434.6859, 160.6445
435.1680, 144.0337
435.6501, 128.3921
436.1322, 113.5796
436.6143, 99.66016
437.0965, 84.17139
437.5786, 70.30127
438.0607, 65.44092
438.5428, 70.31689
439.0249, 75.71045
439.5070, 75.81689
439.9892, 70.85986
440.4713, 65.22852
440.9534, 53.60059
441.4355, 51.25146
441.9176, 74.01611
442.3997, 101.0615
442.8819, 105.0757
443.3640, 82.18311
443.8461, 53.00391
444.3282, 41.38184
444.8103, 49.58936
445.2924, 55.43164
445.7746, 56.67090
446.2567, 56.16699
446.7388, 54.72998
447.2209, 53.37744
447.7030, 51.51562
448.1852, 49.03760
448.6673, 45.19238
449.1494, 37.91943
449.6315, 28.64697
450.1136, 23.34424
450.5957, 22.41260
451.0779, 24.51025
451.5600, 33.51123
452.0421, 45.75000
452.5242, 46.83154
453.0063, 19.63281
453.4884, 10.09424
453.9706, 17.92529
454.4527, 7.788086
454.9348, 4.350586
455.4169, 12.40430
455.8990, 18.55127
456.3811, 27.38281
456.8633, 43.70801
457.3454, 50.12598
457.8275, 26.81494
458.3096, 10.18701
458.7917, 35.94336
459.2738, 90.56348
459.7560, 130.6245
460.2381, 127.0781
460.7202, 92.89258
461.2023, 70.36279
461.6844, 62.63477
462.1665, 59.88672
462.6487, 69.27148
463.1308, 76.36230
463.6129, 68.00244
464.0950, 45.41553
464.5771, 24.29932
465.0592, 12.37646
465.5414, 10.26807
466.0235, 26.42285
466.5056, 65.10352
466.9877, 87.86475
467.4698, 63.66211
467.9519, 16.88525
468.4341, 3.884766
468.9162, 41.67529
469.3983, 66.12256
469.8804, 36.68213
470.3625, 8.204102
470.8446, 17.47119
471.3268, 12.10742
471.8089, 43.13379
472.2910, 43.88721
472.7731, 17.52295
473.2552, 2.778320
473.7373, 15.39648
474.2195, 21.15820
474.7016, 4.100098
475.1837, 14.68945
475.6658, 11.53369
476.1479, 16.70215
476.6300, 50.61133
477.1122, 71.53369
477.5943, 80.29492
478.0764, 87.37061
478.5585, 96.19580
479.0406, 96.05176
479.5227, 69.90479
480.0049, 34.84033
480.4870, 16.28955
480.9691, 23.92676
481.4512, 32.35107
481.9333, 21.21045
482.4154, 0.3559570
482.8976, 9.724609
483.3797, 4.910645
483.8618, 4.907715
484.3439, 12.17529
484.8260, 16.81787
485.3081, 15.59424
485.7903, 8.606445
486.2724, 17.52393
486.7545, 19.27832
487.2366, 67.80273
487.7187, 81.41162
488.2008, 50.03809
488.6830, 8.908691
489.1651, 3.018066
489.6472, 34.55371
490.1293, 54.78516
490.6114, 56.80078
491.0935, 57.19189
491.5757, 63.43018
492.0578, 72.26123
492.5399, 80.55469
493.0220, 89.11377
493.5041, 90.92334
493.9862, 76.05859
494.4684, 49.82373
494.9505, 28.25684
495.4326, 14.78857
495.9147, 1.286621
496.3968, 23.87402
496.8789, 58.60254
497.3611, 66.59912
497.8432, 24.86719
498.3253, 14.87744
498.8074, 36.75439
499.2895, 46.28174
499.7716, 50.51758
500.2538, 51.50098
500.7359, 48.33887
501.2180, 38.18115
501.7001, 20.12158
502.1822, 10.36719
502.6643, 7.491211
503.1465, 16.27197
503.6286, 51.89941
504.1107, 93.20020
504.5928, 110.9370
505.0749, 95.82715
505.5570, 71.37549
506.0392, 54.65186
506.5213, 44.48047
507.0034, 34.79150
507.4855, 23.24854
507.9676, 23.42822
508.4497, 51.39160
508.9319, 101.7378
509.4140, 135.1016
509.8961, 139.2124
510.3782, 142.7119
510.8603, 157.4409
511.3424, 172.2358
511.8246, 173.6084
512.3067, 161.3647
512.7888, 146.7271
513.2709, 139.3828
513.7531, 139.1816
514.2352, 145.5029
514.7173, 162.7012
515.1994, 179.1733
515.6815, 182.7427
516.1636, 188.7251
516.6458, 217.6836
517.1279, 272.8057
517.6100, 326.2783
518.0921, 359.2705
518.5742, 376.2603
519.0563, 384.5757
519.5385, 384.4175
520.0206, 382.4048
520.5027, 380.0742
520.9848, 380.0591
521.4669, 392.1465
521.9490, 419.3828
522.4312, 450.9175
522.9133, 497.8921
523.3954, 539.5991
523.8775, 549.2100
524.3596, 533.4771
524.8417, 527.3301
525.3239, 557.0684
525.8060, 613.4453
526.2881, 665.4526
526.7702, 715.8682
527.2523, 756.2305
527.7344, 772.0312
528.2166, 785.4824
528.6987, 815.3857
529.1808, 862.3633
529.6629, 907.6880
530.1450, 935.8931
530.6271, 962.2227
531.1093, 1006.804
531.5914, 1067.886
532.0735, 1135.606
532.5556, 1208.045
533.0377, 1275.378
533.5198, 1323.621
534.0020, 1348.992
534.4841, 1366.420
534.9662, 1374.848
535.4483, 1376.404
535.9304, 1360.029
536.4125, 1339.920
536.8947, 1344.534
537.3768, 1387.492
537.8589, 1444.233
538.3410, 1478.911
538.8231, 1491.121
539.3052, 1490.974
539.7874, 1473.164
540.2695, 1452.430
540.7516, 1445.028
541.2337, 1442.587
541.7158, 1421.313
542.1979, 1359.513
542.6801, 1304.204
543.1622, 1296.901
543.6443, 1310.472
544.1264, 1291.356
544.6085, 1232.303
545.0906, 1177.664
545.5728, 1174.869
546.0549, 1220.540
546.5370, 1229.313
547.0191, 1166.310
547.5012, 1110.463
547.9833, 1070.229
548.4655, 1043.630
548.9476, 1032.655
549.4297, 1035.435
549.9117, 1040.250
550.3939, 1035.156
550.8760, 1025.726
551.3581, 1031.251
551.8402, 1053.641
552.3223, 1063.846
552.8044, 1044.997
553.2866, 1011.240
553.7687, 988.2202
554.2508, 976.5996
554.7329, 962.4897
555.2150, 940.2773
555.6971, 924.6396
556.1793, 925.9746
556.6614, 937.8496
557.1435, 947.8325
557.6256, 950.0498
558.1077, 945.6680
558.5898, 937.2363
559.0720, 925.3892
559.5541, 905.7744
560.0362, 872.7520
560.5183, 838.4102
561.0004, 807.6318
561.4825, 780.4775
561.9647, 757.8794
562.4468, 744.0718
562.9289, 726.1582
563.4110, 688.2549
563.8931, 641.0464
564.3752, 607.7197
564.8574, 592.1831
565.3395, 580.5898
565.8216, 561.5381
566.3037, 533.9585
566.7858, 506.4517
567.2679, 471.3569
567.7501, 452.1494
568.2322, 475.6841
568.7143, 497.6196
569.1964, 475.0903
569.6785, 412.5596
570.1606, 352.8145
570.6428, 327.7778
571.1249, 323.2065
571.6070, 307.8765
572.0891, 281.5903
572.5712, 262.2842
573.0533, 257.2583
573.5355, 258.9258
574.0176, 261.5991
574.4997, 267.2705
574.9818, 256.2705
575.4639, 207.0439
575.9460, 159.8828
576.4282, 135.8101
576.9103, 128.2451
577.3924, 126.1392
577.8745, 125.6533
578.3566, 127.9688
578.8387, 138.1235
579.3209, 153.3042
579.8030, 162.4448
580.2851, 165.0508
580.7672, 168.2310
581.2493, 189.2451
581.7314, 205.5347
582.2136, 182.2578
582.6957, 108.0757
583.1778, 49.27490
583.6599, 49.05908
584.1420, 70.06445
584.6241, 68.88672
585.1063, 47.89111
585.5884, 32.90039
586.0705, 38.10791
586.5526, 55.49023
587.0347, 67.56299
587.5168, 71.81592
587.9990, 66.23193
588.4811, 38.04834
588.9632, 13.25684
589.4453, 1.015625
589.9274, 3.840332
590.4095, 8.253906
590.8917, 40.59326
591.3738, 71.21582
591.8559, 78.31201
592.3380, 68.62158
592.8201, 59.12842
593.3022, 52.10010
593.7844, 43.83154
594.2665, 29.99707
594.7486, 13.76660
595.2307, 9.318359
595.7128, 34.59961
596.1949, 47.02783
596.6771, 38.02100
597.1592, 25.66846
597.6413, 11.62598
598.1234, 2.614258
598.6055, 3.827637
599.0876, 18.01270
599.5698, 47.78857
600.0519, 60.68896
600.5340, 57.90576
601.0161, 54.96094
601.4982, 54.18555
601.9803, 56.28271
602.4625, 64.56592
602.9446, 78.02344
603.4267, 85.77148
603.9088, 83.61523
604.3909, 81.24463
604.8730, 79.81689
605.3552, 80.19092
605.8373, 87.38916
606.3194, 98.70215
606.8015, 100.5371
607.2836, 78.96240
607.7657, 45.46826
608.2479, 36.27930
608.7300, 56.20850
609.2121, 67.18262
609.6942, 54.95361
610.1763, 37.81543
610.6584, 34.89111
611.1406, 43.57812
611.6227, 49.46777
612.1048, 45.58398
612.5869, 43.79248
613.0690, 57.50586
613.5511, 73.66455
614.0333, 68.97656
614.5154, 41.55908
614.9975, 13.65625
615.4796, 5.961914
615.9617, 15.47705
616.4438, 26.44727
616.9260, 41.68018
617.4081, 49.39502
617.8902, 36.73730
618.3723, 23.88770
618.8544, 33.79492
619.3365, 63.36035
619.8187, 81.82031
620.3008, 73.62988
620.7829, 57.77637
621.2650, 48.24707
621.7471, 40.44580
622.2292, 19.84521
622.7114, 15.52637
623.1935, 42.74023
623.6756, 34.29639
624.1577, 6.387695
624.6398, 25.04834
625.1219, 5.058594
625.6041, 3.547363
626.0862, 27.46387
626.5683, 64.38477
627.0504, 79.18359
627.5325, 72.28174
628.0146, 66.65967
628.4968, 74.60352
628.9789, 84.51953
629.4610, 90.21338
629.9431, 89.51807
630.4252, 73.80859
630.9073, 41.41357
631.3895, 7.427246
631.8716, 12.16797
632.3537, 17.38623
632.8358, 7.620605
633.3179, 27.10547
633.8000, 59.69531
634.2822, 100.6460
634.7643, 124.8745
635.2464, 96.01318
635.7285, 19.99219
636.2106, 35.22119
636.6927, 28.13184
637.1749, 4.647949
637.6570, 42.11328
638.1391, 76.33447
638.6212, 83.39160
639.1033, 56.78223
639.5854, 21.40723
640.0676, 3.959473
640.5497, 4.126953
641.0318, 10.12695
641.5139, 27.99805
641.9960, 41.63477
642.4781, 52.72705
642.9603, 54.74951
643.4424, 32.15234
643.9245, 9.930176
644.4066, 32.99609
644.8887, 0.5214840
645.3708, 43.11230
645.8530, 46.95801
646.3351, 24.90137
646.8172, 7.348145
647.2993, 2.673340
647.7814, 5.665039
648.2635, 11.06836
648.7457, 19.16504
649.2278, 36.53271
649.7099, 76.53906
650.1920, 101.5464
650.6741, 98.28613
651.1563, 82.78174
651.6384, 60.49463
652.1205, 34.74365
652.6026, 17.65918
653.0847, 25.83545
653.5668, 32.15820
654.0490, 1.666016
654.5311, 50.59326
655.0132, 54.83789
655.4953, 4.367188
655.9774, 55.22852
656.4595, 85.27734
656.9417, 88.35596
657.4238, 76.29150
657.9059, 36.72656
658.3880, 9.798340
658.8701, 0.4853520
659.3522, 7.341797
659.8344, 53.21680
660.3165, 119.7002
660.7986, 149.7261
661.2807, 103.1748
661.7628, 48.61182
662.2449, 30.56641
662.7271, 34.02588
663.2092, 35.50195
663.6913, 32.12549
664.1734, 35.79004
664.6555, 56.67578
665.1376, 87.42822
665.6198, 103.5439
666.1019, 102.1753
666.5840, 94.95996
667.0661, 66.04150
667.5482, 52.85156
668.0303, 97.05225
668.5125, 171.8862
668.9946, 214.4111
669.4767, 205.2520
669.9588, 180.9956
670.4409, 147.0781
670.9230, 113.8369
671.4052, 88.78418
671.8873, 75.01172
672.3694, 82.29102
672.8515, 118.3237
673.3336, 159.8638
673.8157, 155.0483
674.2979, 97.71973
674.7800, 67.49658
675.2621, 75.28125
675.7442, 98.81201
676.2263, 139.8940
676.7084, 183.2432
677.1906, 194.9375
677.6727, 162.1338
678.1548, 136.7822
678.6369, 134.3838
679.1190, 140.7070
679.6011, 148.7031
680.0833, 156.5674
680.5654, 164.5215
681.0475, 171.8105
681.5296, 171.2207
682.0117, 140.5635
682.4938, 86.88477
682.9760, 80.34863
683.4581, 131.2314
683.9402, 168.1816
684.4223, 156.1621
684.9044, 119.5996
685.3865, 93.39941
685.8687, 77.86230
686.3508, 73.43945
686.8329, 94.87793
687.3150, 110.4814
687.7971, 101.9072
688.2792, 83.96973
688.7614, 75.95020
689.2435, 80.50586
689.7256, 84.51270
690.2077, 76.66602
690.6898, 65.09473
691.1719, 62.39355
691.6541, 67.72949
692.1362, 83.05078
692.6183, 111.5859
693.1004, 132.5312
693.5825, 118.7314
694.0646, 71.05371
694.5468, 63.09375
695.0289, 147.6963
695.5110, 198.6260
695.9931, 175.1221
696.4752, 139.1943
696.9573, 134.8115
697.4395, 156.5098
697.9216, 169.5820
698.4037, 157.2607
698.8858, 138.1084
699.3679, 125.6094
699.8500, 120.3047
700.3322, 130.3213
700.8143, 155.6357
701.2964, 158.2354
701.7785, 115.8721
702.2606, 49.37695
702.7427, 17.89551
703.2249, 25.75879
703.7070, 44.97461
704.1891, 90.12891
704.6712, 124.6562
705.1533, 120.9033
705.6354, 100.7656
706.1176, 91.18750
706.5997, 99.05664
707.0818, 103.3643
707.5639, 96.80762
708.0460, 83.23145
708.5281, 55.44922
709.0103, 25.40723
709.4924, 21.63184
709.9745, 52.75293
710.4566, 90.91406
710.9387, 103.1074
711.4208, 93.63281
711.9030, 87.17285
712.3851, 81.47754
712.8672, 75.91211
713.3493, 71.75000
713.8314, 70.29395
714.3135, 79.64746
714.7957, 101.7041
715.2778, 101.5615
715.7599, 57.58887
716.2420, 21.06152
716.7241, 3.804688
717.2062, 9.678711
717.6884, 22.28320
718.1705, 81.28027
718.6526, 123.6719
719.1347, 122.8760
719.6168, 101.9893
720.0989, 74.02148
720.5811, 47.61426
721.0632, 54.99707
721.5453, 99.29297
722.0274, 138.1143
722.5095, 142.1611
722.9916, 120.0459
723.4738, 93.54004
723.9559, 52.77734
724.4380, 37.17773
724.9201, 69.23828
725.4022, 100.7158
725.8843, 111.3418
726.3665, 107.3281
726.8486, 94.37598
727.3307, 69.77441
727.8128, 56.96191
728.2949, 76.03125
728.7770, 99.92773
729.2592, 109.5146
729.7413, 106.7559
730.2234, 95.85156
730.7055, 81.92871
731.1876, 65.48047
731.6697, 55.09863
732.1519, 50.58301
732.6340, 51.11133
733.1161, 52.96387
733.5982, 72.43750
734.0803, 124.4336
734.5624, 168.5068
735.0446, 162.5977
735.5267, 104.4111
736.0088, 65.09082
736.4909, 51.19922
736.9730, 45.97656
737.4551, 56.39648
737.9373, 67.29102
738.4194, 65.63086
738.9015, 55.52637
739.3836, 50.41309
739.8657, 57.08691
740.3478, 64.50391
740.8300, 62.31641
741.3121, 55.88477
741.7942, 52.45215
742.2763, 53.20898
742.7584, 64.34473
743.2405, 85.61328
743.7227, 103.9980
744.2048, 90.67285
744.6869, 42.09180
745.1690, 23.13281
745.6511, 44.98633
746.1332, 67.36328
746.6154, 69.26367
747.0975, 70.32715
747.5796, 103.6953
748.0617, 169.0654
748.5438, 207.3838
749.0259, 197.9102
749.5081, 177.9883
749.9902, 153.7305
750.4723, 130.8184
750.9544, 113.5566
751.4365, 102.7363
751.9186, 101.3906
752.4008, 116.0664
752.8829, 129.1641
753.3650, 108.9355
753.8471, 10.09375
754.3292, 86.18945
754.8113, 138.8281
755.2935, 150.1670
755.7756, 3.482422
756.2577, 55.90527
756.7398, 29.91113
757.2219, 0.4121090
757.7040, 89.77344
758.1862, 39.90332
758.6683, 47.54199
759.1504, 48.30273
759.6325, 88.73535
760.1146, 43.26855
760.5967, 24.29883
761.0789, 91.29004
761.5610, 110.7021
762.0431, 55.33691
762.5252, 98.28516
763.0073, 34.42969
763.4894, 13.02246
763.9716, 74.87598
764.4537, 23.78516
764.9358, 3.356445
765.4179, 25.84863
765.9000, 38.71777
766.3821, 45.13379
766.8643, 63.00977
767.3464, 95.18750
767.8285, 118.2891
768.3106, 116.8965
768.7927, 99.07812
769.2748, 83.31543
769.7570, 71.09082
770.2391, 55.74512
770.7212, 32.11523
771.2033, 12.83203
771.6854, 0.8916020
772.1675, 5.943359
772.6497, 7.631836
773.1318, 40.75098
773.6139, 58.62793
774.0960, 37.66113
774.5781, 15.38965
775.0602, 16.40039
775.5424, 26.35254
776.0245, 21.54102
776.5066, 2.653320
776.9887, 9.748047
777.4708, 0.5585940
777.9529, 16.01074
778.4351, 18.12695
778.9172, 9.520508
779.3993, 4.241211
779.8814, 3.990234
780.3635, 4.941406
780.8456, 4.680664
781.3278, 5.035156
781.8099, 8.956055
782.2920, 15.31934
782.7741, 33.41602
783.2562, 82.20410
783.7383, 109.8193
784.2205, 80.63379
784.7026, 33.70312
785.1847, 6.400391
785.6668, 0.8300780
786.1489, 3.365234
786.6310, 32.39551
787.1132, 54.25781
787.5953, 44.04785
788.0774, 41.24805
788.5595, 58.59863
789.0416, 114.8047
789.5237, 129.7119
790.0059, 20.36719
790.4880, 42.57910
790.9701, 20.14551
791.4522, 5.791992
791.9343, 87.12695
792.4164, 38.99219
792.8986, 52.01367
793.3807, 56.33496
793.8628, 100.3252
794.3449, 58.40723
794.8270, 43.02051
795.3091, 113.5635
795.7913, 136.5234
796.2734, 84.70508
796.7555, 131.1992
797.2376, 2.031250
797.7197, 27.00391
798.2018, 118.4814
798.6840, 70.96777
799.1661, 119.0176
799.6482, 130.6689
800.1303, 23.09473
800.6124, 14.22070
801.0945, 31.83301
801.5767, 66.47461
802.0588, 82.21094
802.5409, 67.21191
803.0230, 49.26270
803.5051, 46.96582
803.9872, 51.47754
804.4694, 51.69434
804.9515, 50.26758
805.4336, 58.02148
805.9157, 76.27539
806.3978, 90.01758
806.8799, 84.86328
807.3621, 65.70020
807.8442, 37.21582
808.3263, 0.1513670
808.8084, 8.369141
809.2905, 81.70508
809.7726, 149.9277
810.2548, 164.4053
810.7369, 143.0850
811.2190, 131.9365
811.7011, 133.7422
812.1832, 136.1602
812.6653, 139.2959
813.1475, 140.6816
813.6296, 129.4482
814.1117, 122.7148
814.5938, 145.9111
815.0759, 197.6055
815.5580, 228.2764
816.0402, 201.5312
816.5223, 177.7695
817.0044, 185.2549
817.4865, 201.7930
817.9686, 202.4209
818.4507, 189.1221
818.9329, 177.2861
819.4150, 173.2188
819.8971, 178.8115
820.3792, 203.9033
820.8613, 234.5303
821.3434, 250.4912
821.8256, 252.4639
822.3077, 250.0254
822.7898, 247.1318
823.2719, 252.9209
823.7540, 280.7715
824.2361, 325.8027
824.7183, 357.1104
825.2004, 375.3535
825.6825, 372.4248
826.1646, 337.6094
826.6467, 302.9980
827.1288, 290.7178
827.6110, 297.2627
828.0931, 312.9287
828.5752, 348.9111
829.0573, 371.9365
829.5394, 368.0293
830.0215, 367.2119
830.5037, 384.5068
830.9858, 410.0615
831.4679, 431.7539
831.9500, 448.3809
832.4321, 467.6768
832.9142, 496.2256
833.3964, 523.9658
833.8785, 551.3350
834.3606, 570.7842
834.8427, 567.1523
835.3248, 547.4531
835.8069, 533.0352
836.2891, 534.5527
836.7712, 547.2412
837.2533, 557.9873
837.7354, 568.6592
838.2175, 573.4834
838.6996, 576.5547
839.1818, 584.4531
839.6639, 604.1768
840.1460, 620.5439
840.6281, 607.5713
841.1102, 580.3193
841.5923, 582.8740
842.0745, 626.1084
842.5566, 646.5859
843.0387, 627.7578
843.5208, 601.4629
844.0029, 589.5615
844.4850, 586.1357
844.9672, 574.8828
845.4493, 551.1934
845.9314, 531.9600
846.4135, 508.4883
846.8956, 501.8203
847.3777, 548.7002
847.8599, 595.3994
848.3420, 583.0557
848.8241, 513.9131
849.3062, 455.3506
849.7883, 430.5938
850.2704, 408.8076
850.7526, 379.9541
851.2347, 357.1973
851.7168, 370.0439
852.1989, 397.9824
852.6810, 383.6650
853.1631, 304.4268
853.6453, 237.6943
854.1274, 267.5342
854.6095, 327.4697
855.0916, 322.7666
855.5737, 277.7119
856.0558, 264.2520
856.5380, 294.8496
857.0201, 322.3896
857.5022, 310.3975
857.9843, 270.6963
858.4664, 229.8457
858.9485, 187.5332
859.4307, 151.5312
859.9128, 122.2217
860.3949, 110.3604
860.8770, 122.1494
861.3591, 151.3896
861.8412, 194.1963
862.3234, 251.4023
862.8055, 262.7705
863.2876, 204.1807
863.7697, 168.0684
864.2518, 192.6426
864.7339, 217.7637
865.2161, 185.0684
865.6982, 114.4287
866.1803, 86.49023
866.6624, 137.6406
867.1445, 156.0664
867.6266, 102.2109
868.1088, 56.45605
868.5909, 64.40332
869.0730, 91.10547
869.5551, 86.39258
870.0372, 49.87207
870.5193, 37.83203
871.0015, 106.1133
871.4836, 157.3311
871.9657, 122.6953
872.4478, 65.53809
872.9299, 49.32129
873.4120, 66.69141
873.8942, 83.01367
874.3763, 85.66797
874.8584, 78.36230
875.3405, 55.62695
875.8226, 30.89941
876.3047, 23.32715
876.7869, 28.85059
877.2690, 37.49316
877.7511, 46.50098
878.2332, 56.48828
878.7153, 68.44531
879.1974, 79.09961
879.6796, 84.57129
880.1617, 83.75684
880.6438, 64.94824
881.1259, 27.83887
881.6080, 3.916992
882.0901, 7.555664
882.5723, 20.31445
883.0544, 18.36719
883.5365, 3.684570
884.0186, 4.399414
884.5007, 5.647461
884.9828, 0.4619140
885.4650, 14.32812
885.9471, 27.73438
886.4292, 31.81934
886.9113, 29.87988
887.3934, 28.53125
887.8755, 24.32031
888.3577, 33.57324
888.8398, 78.10059
889.3219, 105.7930
889.8040, 87.77930
890.2861, 60.39453
890.7682, 58.89160
891.2504, 76.91406
891.7325, 79.38867
892.2146, 50.60449
892.6967, 26.36816
893.1788, 11.79688
893.6609, 6.439453
894.1431, 53.81836
894.6252, 44.54492
895.1073, 99.26465
895.5894, 112.6875
896.0715, 38.87695
896.5536, 22.58105
897.0358, 1.337891
897.5179, 28.76270
898.0000, 62.66016
898.4821, 64.95020
898.9642, 24.54688
899.4464, 27.36426
899.9285, 69.85156
900.4106, 26.43164
900.8927, 9.546875
901.3748, 78.59766
901.8569, 100.0557
902.3391, 46.75098
902.8212, 91.75684
903.3033, 38.89941
903.7854, 15.41992
904.2675, 6.178711
904.7496, 5.803711
905.2318, 10.80762
905.7139, 21.38281
906.1960, 44.64062
906.6781, 78.23438
907.1602, 89.10059
907.6423, 64.73535
908.1245, 32.55176
908.6066, 20.42676
909.0887, 24.47266
909.5708, 29.32715
910.0529, 34.73047
910.5350, 46.71387
911.0172, 68.36719
911.4993, 84.82715
911.9814, 87.55371
912.4635, 80.15527
912.9456, 66.60352
913.4277, 46.80859
913.9099, 39.50098
914.3920, 43.87891
914.8741, 60.71582
915.3562, 101.3984
915.8383, 137.4707
916.3204, 146.2324
916.8026, 135.9404
917.2847, 127.9492
917.7668, 123.3857
918.2489, 117.6230
918.7310, 108.2764
919.2131, 100.8115
919.6953, 91.94336
920.1774, 89.25488
920.6595, 102.2148
921.1416, 127.5938
921.6237, 151.7441
922.1058, 177.2900
922.5880, 192.8369
923.0701, 178.4033
923.5522, 173.1416
924.0343, 203.5215
924.5164, 251.9102
924.9985, 308.6299
925.4807, 365.4863
925.9628, 377.4219
926.4449, 283.9678
926.9270, 208.5127
927.4091, 226.9541
927.8912, 272.0635
928.3734, 292.1973
928.8555, 292.2773
929.3376, 288.3672
929.8197, 285.6680
930.3018, 291.9863
930.7839, 322.7207
931.2661, 353.4160
931.7482, 363.8926
932.2303, 361.1875
932.7124, 342.7002
933.1945, 320.7314
933.6766, 334.9639
934.1588, 402.2158
934.6409, 464.1143
935.1230, 452.7725
935.6051, 412.9912
936.0872, 407.4072
936.5693, 426.9336
937.0515, 456.3887
937.5336, 487.5918
938.0157, 496.0752
938.4978, 464.9873
938.9799, 430.0293
939.4620, 452.2676
939.9442, 504.4512
940.4263, 503.9385
940.9084, 462.1270
941.3905, 451.0439
941.8726, 486.3203
942.3547, 514.7236
942.8369, 491.7598
943.3190, 450.2764
943.8011, 470.0703
944.2832, 536.8545
944.7653, 547.2969
945.2474, 498.7334
945.7296, 471.3525
946.2117, 494.4961
946.6938, 521.6582
947.1759, 504.1924
947.6580, 457.8887
948.1401, 440.9697
948.6223, 454.4795
949.1044, 452.1797
949.5865, 428.0684
950.0686, 404.8662
950.5507, 391.8926
951.0328, 387.9395
951.5150, 396.3213
951.9971, 408.2822
952.4792, 379.0449
952.9613, 287.7979
953.4434, 245.4297
953.9255, 276.3623
954.4077, 313.7178
954.8898, 318.1016
955.3719, 303.1279
955.8540, 296.8555
956.3361, 293.4316
956.8182, 272.3545
957.3004, 209.7236
957.7825, 182.3711
958.2646, 223.6602
958.7467, 260.8398
959.2288, 247.7373
959.7109, 204.7842
960.1931, 169.7598
960.6752, 142.3271
961.1573, 122.6367
961.6394, 118.1445
962.1215, 119.0986
962.6036, 129.8438
963.0858, 135.8594
963.5679, 125.1992
964.0500, 103.2139
964.5321, 81.30859
965.0142, 54.88379
965.4963, 44.94922
965.9785, 64.63379
966.4606, 82.78027
966.9427, 104.5820
967.4248, 112.1064
967.9069, 78.54102
968.3890, 21.57227
968.8712, 6.474609
969.3533, 10.47461
969.8354, 14.00293
970.3175, 15.02930
970.7996, 38.38867
971.2817, 47.16113
971.7639, 43.10840
972.2460, 25.61816
972.7281, 3.238281
973.2102, 39.20117
973.6923, 92.72656
974.1744, 124.3809
974.6566, 117.4844
975.1387, 100.3086
975.6208, 74.64062
976.1029, 51.38477
976.5850, 43.76562
977.0671, 48.52734
977.5493, 49.32129
978.0314, 40.61230
978.5135, 34.32715
978.9956, 31.02832
979.4777, 33.10156
979.9598, 47.53125
980.4420, 63.91699
980.9241, 71.69336
981.4062, 69.22070
981.8883, 62.71680
982.3704, 44.69336
982.8525, 42.34863
983.3347, 96.55664
983.8168, 132.7070
984.2989, 70.69141
984.7810, 10.82812
985.2631, 2.279297
985.7452, 99.78125
986.2274, 159.0869
986.7095, 126.3623
987.1916, 89.08691
987.6737, 71.95215
988.1558, 69.53418
988.6379, 87.43555
989.1201, 107.8633
989.6022, 107.1143
990.0843, 85.11426
990.5664, 59.84668
991.0485, 30.56543
991.5306, 12.84277
992.0128, 10.91895
992.4949, 25.25293
992.9770, 79.98535
993.4591, 137.5225
993.9412, 133.2002
994.4233, 72.31836
994.9055, 39.75391
995.3876, 83.46777
995.8697, 126.9053
996.3518, 124.2412
996.8339, 119.9736
997.3160, 159.9395
997.7982, 214.1768
998.2803, 229.1406
998.7624, 204.6133
999.2445, 179.1533
999.7266, 155.6562
1000.209, 156.6992
1000.691, 230.3633
1001.173, 294.6650
1001.655, 261.4326
1002.137, 195.2080
1002.619, 192.5195
1003.101, 257.6045
1003.584, 316.0713
1004.066, 340.1973
1004.548, 351.0947
1005.030, 354.9365
1005.512, 353.5547
1005.994, 334.5166
1006.476, 318.7148
1006.958, 344.3008
1007.440, 405.9082
1007.923, 444.1445
1008.405, 422.0947
1008.887, 405.2168
1009.369, 310.1289
1009.851, 415.4336
1010.333, 477.0967
1010.815, 497.4561
1011.297, 352.8262
1011.780, 421.3203
1012.262, 404.4014
1012.744, 383.9482
1013.226, 482.4404
1013.708, 361.9756
1014.190, 458.6201
1014.672, 468.4766
1015.154, 518.0098
1015.636, 481.6416
1016.119, 516.2520
1016.601, 514.3408
1017.083, 498.7559
1017.565, 487.0996
1018.047, 499.9727
1018.529, 502.8330
1019.011, 456.9512
1019.493, 401.9648
1019.976, 393.2178
1020.458, 422.4814
1020.940, 431.5361
1021.422, 400.6113
1021.904, 363.0156
1022.386, 321.6377
1022.868, 285.3154
1023.350, 258.5635
1023.832, 239.1768
1024.315, 225.2480
1024.797, 216.6162
1025.279, 216.1426
1025.761, 232.8467
1026.243, 231.3779
1026.725, 179.0186
1027.207, 136.7295
1027.689, 142.2061
1028.172, 158.2158
1028.654, 142.9814
1029.136, 109.5430
1029.618, 106.9297
1030.100, 158.6260
1030.582, 182.8750
1031.064, 143.8535
1031.546, 102.2900
1032.028, 67.34180
1032.511, 47.38184
1032.993, 59.33301
1033.475, 89.27051
1033.957, 103.8252
1034.439, 96.72656
1034.921, 81.07324
1035.403, 33.02148
1035.885, 15.61230
1036.368, 89.78516
1036.850, 152.3359
1037.332, 104.9043
1037.814, 6.291992
1038.296, 11.00293
1038.778, 66.90430
1039.260, 106.4561
1039.742, 91.00195
1040.224, 70.49414
1040.707, 41.91602
1041.189, 22.24316
1041.671, 26.27734
1042.153, 41.42969
1042.635, 44.89941
1043.117, 36.77246
1043.599, 47.11914
1044.081, 100.8311
1044.563, 111.2285
1045.046, 38.57227
1045.528, 18.44531
1046.010, 3.700195
1046.492, 39.98535
1046.974, 57.97852
1047.456, 52.21777
1047.938, 43.57324
1048.420, 25.16797
1048.902, 34.82812
1049.385, 90.62207
1049.867, 121.4746
1050.349, 91.00488
1050.831, 44.28223
1051.313, 29.31641
1051.795, 39.08594
1052.277, 44.31348
1052.759, 44.54883
1053.242, 45.76562
1053.724, 49.83301
1054.206, 37.71875
1054.688, 1.417969
1055.170, 26.94336
1055.652, 0.7294920
1056.134, 56.23633
1056.616, 74.46875
1057.099, 57.89746
1057.581, 59.02441
1058.063, 77.58008
1058.545, 65.29395
1059.027, 10.61035
1059.509, 28.55859
1059.991, 10.96777
1060.473, 31.66797
1060.955, 51.81934
1061.438, 51.48828
1061.920, 27.64453
1062.402, 10.81445
1062.884, 13.17578
1063.366, 24.12598
1063.848, 59.18164
1064.330, 70.77148
1064.812, 67.19727
1065.294, 51.27734
1065.777, 36.18164
1066.259, 53.85156
1066.741, 89.04883
1067.223, 108.9229
1067.705, 110.1025
1068.187, 94.61816
1068.669, 65.01074
1069.151, 41.17871
1069.634, 43.85352
1070.116, 52.33398
1070.598, 35.76074
1071.080, 15.60156
1071.562, 29.14941
1072.044, 62.45117
1072.526, 75.92090
1073.008, 65.01758
1073.490, 64.44043
1073.973, 98.80078
1074.455, 132.9141
1074.937, 151.2480
1075.419, 149.9141
1075.901, 108.2275
1076.383, 55.07617
1076.865, 28.94141
1077.347, 30.84180
1077.829, 42.58691
1078.312, 63.92871
1078.794, 74.01562
1079.276, 53.09863
1079.758, 33.70801
1080.240, 29.70117
1080.722, 36.35059
1081.204, 56.81445
1081.686, 82.10449
1082.169, 88.24121
1082.651, 67.14258
1083.133, 62.90039
1083.615, 113.0342
1084.097, 134.8340
1084.579, 74.74219
1085.061, 22.14453
1085.543, 38.55371
1086.026, 87.15039
1086.508, 119.9043
1086.990, 136.8633
1087.472, 127.5264
1087.954, 69.19824
1088.436, 37.58496
1088.918, 49.50000
1089.400, 62.67188
1089.882, 64.25781
1090.365, 52.34863
1090.847, 19.19141
1091.329, 23.85059
1091.811, 31.30078
1092.293, 1.953125
1092.775, 29.25000
1093.257, 49.99219
1093.739, 66.41406
1094.221, 80.93848
1094.704, 70.59277
1095.186, 13.17578
1095.668, 49.83789
1096.150, 32.22656
1096.632, 45.44922
1097.114, 58.68066
1097.596, 20.20703
1098.078, 9.819336
1098.561, 36.38086
1099.043, 66.36621
1099.525, 84.50293
1100.007, 86.19922
1100.489, 54.09082
1100.971, 20.76270
1101.453, 54.31445
1101.935, 118.1943
1102.417, 145.2275
1102.900, 137.9160
1103.382, 113.6514
1103.864, 83.98535
1104.346, 66.97852
1104.828, 76.28125
1105.310, 90.12988
1105.792, 89.99316
1106.274, 87.66699
1106.756, 98.88379
1107.239, 111.9580
1107.721, 103.2393
1108.203, 80.52441
1108.685, 78.38672
1109.167, 110.1650
1109.649, 139.0068
1110.131, 160.8760
1110.613, 166.2607
1111.096, 133.3438
1111.578, 97.54395
1112.060, 89.92480
1112.542, 99.01758
1113.024, 106.0127
1113.506, 113.7666
1113.988, 102.6289
1114.470, 48.01660
1114.953, 18.51074
1115.435, 28.00000
1115.917, 46.54492
1116.399, 70.23145
1116.881, 86.09570
1117.363, 74.64551
1117.845, 49.66406
1118.327, 51.52344
1118.809, 84.60938
1119.292, 107.9502
1119.774, 123.3740
1120.256, 105.4111
1120.738, 45.45508
1121.220, 6.674805
1121.702, 22.73340
1122.184, 10.49023
1122.666, 27.94336
1123.148, 79.59082
1123.631, 98.79395
1124.113, 91.47852
1124.595, 75.26953
1125.077, 56.12793
1125.559, 51.83203
1126.041, 66.93262
1126.523, 81.72168
1127.005, 81.37109
1127.488, 73.02832
1127.970, 58.98633
1128.452, 46.66211
1128.934, 47.87305
1129.416, 57.21582
1129.898, 67.65625
1130.380, 75.38477
1130.862, 74.38867
1131.344, 61.29395
1131.827, 50.04590
1132.309, 39.00586
1132.791, 42.22168
1133.273, 89.52539
1133.755, 131.8457
1134.237, 117.3643
1134.719, 75.15820
1135.201, 62.11816
1135.683, 82.64355
1136.166, 96.45996
1136.648, 103.3066
1137.130, 97.96680
1137.612, 62.06348
1138.094, 46.80664
1138.576, 84.27051
1139.058, 124.1865
1139.540, 118.9072
1140.023, 84.90625
1140.505, 65.65332
1140.987, 61.21680
1141.469, 72.95703
1141.951, 102.6533
1142.433, 119.6084
1142.915, 118.3164
1143.397, 95.73145
1143.880, 48.86133
1144.362, 4.088867
1144.844, 7.874023
1145.326, 1.283203
1145.808, 7.268555
1146.290, 13.76465
1146.772, 39.94531
1147.254, 73.91309
1147.736, 66.04980
1148.219, 17.46875
1148.701, 2.597656
1149.183, 67.57617
1149.665, 127.6973
1150.147, 110.6475
1150.629, 70.13184
1151.111, 38.68848
1151.593, 18.10059
1152.075, 3.169922
1152.558, 0.6748050
1153.040, 37.19824
1153.522, 113.2480
1154.004, 149.5898
1154.486, 73.88184
1154.968, 41.48242
1155.450, 138.4785
1155.932, 203.4258
1156.415, 145.2666
1156.897, 61.28320
1157.379, 43.23926
1157.861, 67.68457
1158.343, 59.43555
1158.825, 10.82617
1159.307, 0.7275390
1159.789, 35.27148
1160.271, 63.80566
1160.754, 76.73730
1161.236, 100.1338
1161.718, 149.4727
1162.200, 181.7910
1162.682, 139.3184
1163.164, 60.72461
1163.646, 33.24023
1164.128, 40.67676
1164.610, 43.18066
1165.093, 38.97559
1165.575, 32.04004
1166.057, 23.82227
1166.539, 15.95410
1167.021, 9.439453
1167.503, 2.188477
1167.985, 17.29297
1168.467, 25.88965
1168.950, 5.546875
1169.432, 45.46289
1169.914, 60.93359
1170.396, 62.04199
1170.878, 71.43164
1171.360, 91.12207
1171.842, 107.3945
1172.324, 131.4883
1172.807, 127.0508
1173.289, 63.73145
1173.771, 18.59180
1174.253, 17.36816
1174.735, 34.49414
1175.217, 57.43359
1175.699, 77.39844
1176.181, 74.15527
1176.663, 50.60742
1177.146, 51.16113
1177.628, 76.46875
1178.110, 93.72168
1178.592, 101.2881
1179.074, 92.82812
1179.556, 67.19434
1180.038, 49.99414
1180.520, 60.82129
1181.002, 84.11426
1181.485, 106.0596
1181.967, 122.3799
1182.449, 125.1260
1182.931, 118.0586
1183.413, 103.4561
1183.895, 86.38281
1184.377, 77.89551
1184.859, 80.71777
1185.342, 85.64062
1185.824, 103.0449
1186.306, 101.1562
1186.788, 42.42773
1187.270, 6.360352
1187.752, 5.246094
1188.234, 20.24316
1188.716, 49.91992
1189.198, 77.56250
1189.681, 84.48242
1190.163, 67.16113
1190.645, 61.59961
1191.127, 71.07422
1191.609, 74.23828
1192.091, 66.52246
1192.573, 68.74414
1193.055, 91.02441
1193.537, 108.6504
1194.020, 95.50781
1194.502, 71.31250
1194.984, 80.73340
1195.466, 104.4316
1195.948, 94.64941
1196.430, 63.99414
1196.912, 43.48730
1197.394, 38.42969
1197.877, 49.97266
1198.359, 77.19043
1198.841, 94.06641
1199.323, 74.45020
1199.805, 58.49805
1200.287, 78.73730
1200.769, 93.63281
1201.251, 62.69043
1201.734, 22.27051
1202.216, 19.79102
1202.698, 44.49219
1203.180, 49.32520
1203.662, 28.92969
1204.144, 22.64648
1204.626, 33.47070
1205.108, 49.44141
1205.590, 71.20117
1206.073, 84.92969
1206.555, 83.75000
1207.037, 78.41211
1207.519, 90.12598
1208.001, 104.6709
1208.483, 90.01758
1208.965, 65.18555
1209.447, 93.93652
1209.929, 150.5059
1210.412, 165.0977
1210.894, 140.3389
1211.376, 124.8955
1211.858, 133.1074
1212.340, 131.5322
1212.822, 82.09473
1213.304, 53.71484
1213.786, 110.8242
1214.269, 162.7646
1214.751, 143.2783
1215.233, 102.1855
1215.715, 85.49707
1216.197, 90.67871
1216.679, 109.4277
1217.161, 146.0840
1217.643, 158.2920
1218.125, 142.1621
1218.608, 112.3945
1219.090, 65.47656
1219.572, 49.32129
1220.054, 81.65723
1220.536, 124.7012
1221.018, 151.1045
1221.500, 163.9502
1221.982, 169.8408
1222.464, 164.3730
1222.947, 130.3311
1223.429, 83.32031
1223.911, 40.14844
1224.393, 13.23926
1224.875, 35.85254
1225.357, 103.7402
1225.839, 135.5654
1226.321, 82.53125
1226.804, 40.38477
1227.286, 44.44824
1227.768, 58.85449
1228.250, 80.61230
1228.732, 95.88184
1229.214, 89.71582
1229.696, 79.53223
1230.178, 93.64160
1230.661, 125.3262
1231.143, 130.7891
1231.625, 108.8916
1232.107, 108.4482
1232.589, 129.2090
1233.071, 127.3506
1233.553, 94.92871
1234.035, 49.59766
1234.517, 0.4189450
1235.000, 22.09473
1235.482, 29.48730
1235.964, 97.54102
1236.446, 130.4863
1236.928, 138.4395
1237.410, 113.2900
1237.892, 81.27051
1238.374, 82.62891
1238.856, 109.6934
1239.339, 122.6787
1239.821, 113.2031
1240.303, 74.46484
1240.785, 55.84277
1241.267, 54.68750
1241.749, 83.77930
1242.231, 90.54883
1242.713, 48.70898
1243.196, 7.944336
1243.678, 0.3027340
1244.160, 17.45801
1244.642, 11.10156
1245.124, 0.0000000E+00
##END=



