##NAMES=Nambulite
##RRUFFID=R060616
##IDEAL CHEMISTRY=LiMn^2+^_4_Si_5_O_14_(OH)
##LOCALITY=Kombat mine, Kombat, Grootfontein District, Otjozondjupa Region, Namibia
##OWNER=RRUFF
##SOURCE=Michael Scott
##DESCRIPTION=Pink colored fragment of a single crystal associated with gypsum
##STATUS=The identification of this mineral has been confirmed by single-crystal X-ray diffraction.
##URL=rruff.info/R060616
167.6918, 0.0000000E+00
168.1739, 2.7327999E-02
168.6560, 0.1241300
169.1381, 1.238327
169.6203, 3.566162
170.1024, 5.017487
170.5845, 6.635544
171.0666, 8.321777
171.5487, 9.343674
172.0309, 9.725998
172.5130, 10.01649
172.9951, 10.01643
173.4772, 10.24786
173.9593, 11.55510
174.4414, 15.22591
174.9236, 19.56764
175.4057, 22.45702
175.8878, 23.90309
176.3699, 25.40086
176.8520, 28.81067
177.3341, 33.32082
177.8163, 37.00935
178.2984, 38.34770
178.7805, 38.41180
179.2626, 38.49847
179.7447, 38.55138
180.2268, 39.36569
180.7090, 42.47162
181.1911, 47.15520
181.6732, 51.17351
182.1553, 52.83151
182.6374, 53.22058
183.1195, 54.92661
183.6017, 58.34734
184.0838, 61.58833
184.5659, 61.74414
185.0480, 59.39607
185.5301, 57.55116
186.0123, 58.59158
186.4944, 62.37787
186.9765, 66.08398
187.4586, 71.08238
187.9407, 74.93689
188.4228, 73.90228
188.9050, 69.52769
189.3871, 64.14627
189.8692, 58.67728
190.3513, 53.13956
190.8334, 47.32533
191.3155, 41.07326
191.7977, 35.02005
192.2798, 30.19408
192.7619, 26.58833
193.2440, 23.63814
193.7261, 21.47250
194.2082, 19.96779
194.6904, 17.32233
195.1725, 13.08984
195.6546, 8.382568
196.1367, 5.246552
196.6188, 3.686203
197.1009, 3.241440
197.5831, 4.345642
198.0652, 7.002502
198.5473, 7.963577
199.0294, 6.668167
199.5115, 4.145966
199.9937, 2.422012
200.4758, 1.571350
200.9579, 1.066086
201.4400, 0.6602480
201.9221, 0.3497620
202.4042, 0.2735440
202.8864, 0.6246800
203.3685, 0.9078220
203.8506, 0.1940000
204.3327, 1.466980
204.8148, 2.933456
205.2969, 3.342148
205.7791, 2.120743
206.2612, 1.848969
206.7433, 2.900024
207.2254, 4.469116
207.7075, 4.328506
208.1896, 1.742920
208.6718, 1.449814
209.1539, 4.475052
209.6360, 7.471649
210.1181, 9.433304
210.6002, 10.18088
211.0823, 9.945160
211.5645, 9.154846
212.0466, 7.424271
212.5287, 6.066254
213.0108, 5.864777
213.4929, 7.083801
213.9750, 8.465363
214.4572, 10.09148
214.9393, 11.77591
215.4214, 13.03157
215.9035, 13.82822
216.3856, 14.26735
216.8678, 14.15234
217.3499, 12.96654
217.8320, 12.95508
218.3141, 14.40167
218.7962, 17.01418
219.2783, 20.16225
219.7605, 24.57089
220.2426, 28.12349
220.7247, 29.47971
221.2068, 27.84639
221.6889, 26.20131
222.1710, 24.39575
222.6532, 22.72491
223.1353, 22.28899
223.6174, 23.76810
224.0995, 25.35707
224.5816, 26.03891
225.0637, 25.19649
225.5459, 25.11467
226.0280, 26.33313
226.5101, 28.29353
226.9922, 29.22650
227.4743, 29.09488
227.9564, 28.02036
228.4386, 25.75385
228.9207, 21.17700
229.4028, 18.27563
229.8849, 17.80566
230.3670, 18.86252
230.8492, 18.83273
231.3313, 16.97702
231.8134, 15.14594
232.2955, 14.33356
232.7776, 15.52609
233.2597, 15.39514
233.7419, 13.34698
234.2240, 10.12924
234.7061, 7.779572
235.1882, 6.852386
235.6703, 5.959717
236.1524, 4.383179
236.6346, 1.367554
237.1167, 0.5358280
237.5988, 0.9489440
238.0809, 0.4016420
238.5630, 6.3477002E-02
239.0451, 0.1724550
239.5273, 1.7548000E-02
240.0094, 0.8154910
240.4915, 2.995789
240.9736, 4.099609
241.4557, 3.846497
241.9378, 2.660431
242.4200, 1.304260
242.9021, 0.7305910
243.3842, 2.163452
243.8663, 2.430359
244.3484, 1.141510
244.8306, 0.2360530
245.3127, 2.047791
245.7948, 3.764679
246.2769, 4.384430
246.7590, 3.711945
247.2411, 2.264038
247.7233, 1.9135000E-02
248.2054, 3.619263
248.6875, 6.280090
249.1696, 7.853271
249.6517, 8.570709
250.1338, 8.630249
250.6160, 7.398102
251.0981, 6.661896
251.5802, 7.109619
252.0623, 9.033203
252.5444, 10.66577
253.0265, 11.95148
253.5087, 12.98138
253.9908, 13.61786
254.4729, 12.98865
254.9550, 13.75479
255.4371, 17.01736
255.9192, 23.09979
256.4014, 28.68460
256.8835, 33.60068
257.3656, 38.18933
257.8477, 42.97305
258.3298, 47.92978
258.8120, 53.16364
259.2941, 58.84930
259.7762, 65.05905
260.2583, 70.83276
260.7404, 75.97021
261.2225, 81.01147
261.7047, 86.52408
262.1868, 92.22604
262.6689, 99.00659
263.1510, 107.8908
263.6331, 118.7696
264.1152, 126.9503
264.5974, 131.1177
265.0795, 134.2787
265.5616, 139.5572
266.0437, 148.1343
266.5258, 155.8621
267.0079, 161.8864
267.4901, 166.3040
267.9722, 169.6573
268.4543, 171.8443
268.9364, 173.2764
269.4185, 174.4229
269.9006, 175.5034
270.3828, 175.3402
270.8649, 173.5600
271.3470, 170.4150
271.8291, 167.0675
272.3112, 163.4985
272.7933, 159.6472
273.2755, 155.5364
273.7576, 151.1898
274.2397, 146.3766
274.7218, 141.1345
275.2039, 135.3936
275.6860, 128.5544
276.1682, 120.0633
276.6503, 112.3280
277.1324, 107.0696
277.6145, 104.5071
278.0966, 102.1852
278.5787, 100.0374
279.0609, 97.92520
279.5430, 95.56842
280.0251, 93.01385
280.5072, 90.05383
280.9893, 86.16324
281.4715, 81.38504
281.9536, 77.77695
282.4357, 75.53989
282.9178, 74.26636
283.3999, 73.59036
283.8820, 73.56113
284.3642, 73.11630
284.8463, 71.37653
285.3284, 68.49756
285.8105, 66.31140
286.2926, 64.70172
286.7747, 64.10794
287.2569, 65.44843
287.7390, 68.66208
288.2211, 72.28574
288.7032, 76.29984
289.1853, 80.32529
289.6674, 82.74832
290.1496, 83.53757
290.6317, 83.09967
291.1138, 81.09531
291.5959, 77.85559
292.0780, 75.74454
292.5602, 75.95615
293.0423, 77.65384
293.5244, 78.84863
294.0065, 79.53122
294.4886, 79.83868
294.9707, 79.93771
295.4529, 79.76596
295.9350, 79.04022
296.4171, 77.28864
296.8992, 75.23315
297.3813, 74.27893
297.8634, 74.34094
298.3456, 74.58237
298.8277, 74.77930
299.3098, 74.80975
299.7919, 74.18686
300.2740, 72.64261
300.7561, 70.73291
301.2383, 68.83237
301.7204, 67.00732
302.2025, 65.75735
302.6846, 65.83673
303.1667, 66.49283
303.6488, 66.83871
304.1310, 66.88882
304.6131, 66.35428
305.0952, 64.37439
305.5773, 61.49170
306.0594, 59.05603
306.5415, 58.00333
307.0237, 57.66913
307.5058, 57.50076
307.9879, 57.51562
308.4700, 57.20508
308.9521, 55.46451
309.4343, 53.20023
309.9164, 51.96274
310.3985, 53.54874
310.8806, 55.63861
311.3627, 56.08627
311.8448, 54.77872
312.3270, 54.08389
312.8091, 56.60544
313.2912, 60.16156
313.7733, 62.17575
314.2554, 59.65405
314.7375, 57.15930
315.2197, 57.43921
315.7018, 60.19156
316.1839, 62.71365
316.6660, 62.49274
317.1481, 62.20468
317.6302, 64.11475
318.1124, 70.84592
318.5945, 77.24954
319.0766, 81.61728
319.5587, 84.28989
320.0408, 86.53662
320.5229, 87.47955
321.0051, 88.99835
321.4872, 92.35187
321.9693, 99.02383
322.4514, 105.0258
322.9335, 109.1207
323.4156, 112.0413
323.8978, 115.1994
324.3799, 118.6311
324.8620, 122.5183
325.3441, 127.1745
325.8262, 133.1033
326.3083, 138.1292
326.7905, 142.2959
327.2726, 145.4185
327.7547, 147.2239
328.2368, 147.6819
328.7189, 146.8661
329.2010, 144.2752
329.6832, 139.6943
330.1653, 136.0335
330.6474, 134.2212
331.1295, 132.6649
331.6116, 130.0678
332.0938, 126.2104
332.5759, 121.6163
333.0580, 116.1782
333.5401, 109.9654
334.0222, 103.8903
334.5043, 97.90994
334.9865, 92.05194
335.4686, 86.18130
335.9507, 79.96533
336.4328, 74.63223
336.9149, 70.38547
337.3970, 66.92142
337.8792, 63.51093
338.3613, 59.90756
338.8434, 56.91052
339.3255, 55.22894
339.8076, 55.19736
340.2898, 53.75021
340.7719, 50.58466
341.2540, 46.51889
341.7361, 42.41110
342.2182, 38.26346
342.7003, 34.79282
343.1825, 32.59299
343.6646, 31.38977
344.1467, 29.43555
344.6288, 26.60797
345.1109, 23.54385
345.5930, 20.49844
346.0752, 17.59412
346.5573, 15.79031
347.0394, 15.84326
347.5215, 16.66046
348.0036, 15.49207
348.4857, 12.38547
348.9679, 9.242950
349.4500, 7.767365
349.9321, 7.361298
350.4142, 6.203003
350.8963, 3.808228
351.3784, 1.095581
351.8606, 0.8063660
352.3427, 1.989319
352.8248, 2.831329
353.3069, 3.626587
353.7890, 4.153839
354.2711, 3.851410
354.7533, 2.551178
355.2354, 1.551117
355.7175, 2.478210
356.1996, 4.417267
356.6817, 5.774323
357.1638, 5.210205
357.6460, 4.298035
358.1281, 4.610870
358.6102, 6.012268
359.0923, 6.639587
359.5744, 5.273468
360.0565, 2.681732
360.5387, 0.4416200
361.0208, 4.467377
361.5029, 8.300903
361.9850, 11.04367
362.4671, 13.11804
362.9492, 15.79456
363.4314, 20.04791
363.9135, 24.63446
364.3956, 28.79672
364.8777, 32.07477
365.3598, 35.82980
365.8419, 40.87036
366.3241, 46.44614
366.8062, 51.40146
367.2883, 53.74496
367.7704, 57.21674
368.2526, 63.31363
368.7347, 72.71875
369.2168, 81.02628
369.6989, 87.55618
370.1810, 93.37750
370.6631, 99.43262
371.1453, 106.0201
371.6274, 112.4187
372.1095, 118.6515
372.5916, 124.7056
373.0737, 130.3324
373.5558, 135.6986
374.0380, 140.4568
374.5201, 144.1612
375.0022, 146.0007
375.4843, 149.6464
375.9664, 156.2761
376.4485, 163.8343
376.9307, 168.1588
377.4128, 168.6505
377.8949, 168.2921
378.3770, 168.0950
378.8591, 168.0536
379.3412, 168.1618
379.8234, 168.5385
380.3055, 168.6511
380.7876, 167.7826
381.2697, 165.9718
381.7518, 164.1616
382.2339, 162.9290
382.7161, 161.6178
383.1982, 158.4482
383.6803, 153.4940
384.1624, 147.9180
384.6445, 142.8356
385.1266, 137.8301
385.6088, 131.6382
386.0909, 123.7902
386.5730, 115.6770
387.0551, 109.0902
387.5372, 103.7136
388.0193, 98.45764
388.5015, 92.78583
388.9836, 86.94519
389.4657, 81.12836
389.9478, 75.39944
390.4299, 69.99069
390.9120, 64.70297
391.3942, 59.75357
391.8763, 55.57285
392.3584, 52.80615
392.8405, 50.60938
393.3226, 48.50739
393.8047, 46.40854
394.2869, 44.45786
394.7690, 42.96317
395.2511, 41.61026
395.7332, 40.09595
396.2154, 37.92453
396.6975, 36.44653
397.1796, 36.23853
397.6617, 36.62170
398.1438, 36.69150
398.6259, 35.97290
399.1081, 35.53763
399.5902, 35.88171
400.0723, 37.18762
400.5544, 37.65118
401.0365, 36.24799
401.5186, 34.54681
402.0008, 33.89728
402.4829, 35.07416
402.9650, 36.16876
403.4471, 37.26804
403.9292, 38.18451
404.4113, 37.95578
404.8935, 36.25070
405.3756, 34.07495
405.8577, 31.89246
406.3398, 29.75449
406.8219, 27.42450
407.3040, 24.73871
407.7862, 22.23697
408.2683, 20.79449
408.7504, 20.42374
409.2325, 20.01363
409.7146, 19.00755
410.1967, 17.71091
410.6789, 17.17416
411.1610, 17.44310
411.6431, 17.62543
412.1252, 16.43867
412.6073, 14.56302
413.0894, 14.05194
413.5716, 15.69102
414.0537, 17.81323
414.5358, 18.36101
415.0179, 17.77332
415.5000, 17.27510
415.9821, 17.63713
416.4643, 18.24936
416.9464, 18.61082
417.4285, 18.75215
417.9106, 18.72086
418.3927, 17.93521
418.8748, 17.06984
419.3570, 17.02934
419.8391, 19.65704
420.3212, 21.67305
420.8033, 21.16850
421.2854, 18.68008
421.7675, 16.73184
422.2497, 16.82210
422.7318, 17.11705
423.2139, 16.51331
423.6960, 14.04681
424.1781, 12.54539
424.6602, 13.08641
425.1424, 14.57248
425.6245, 15.39223
426.1066, 14.90166
426.5887, 14.55164
427.0709, 14.80676
427.5530, 15.66475
428.0351, 15.80904
428.5172, 14.76132
428.9993, 13.64378
429.4814, 13.22751
429.9636, 13.57816
430.4457, 14.46144
430.9278, 16.11075
431.4099, 18.03015
431.8920, 19.00031
432.3741, 18.89671
432.8563, 18.85187
433.3384, 19.54562
433.8205, 20.81253
434.3026, 21.63620
434.7847, 22.05132
435.2668, 21.79735
435.7490, 20.04707
436.2311, 17.28026
436.7132, 15.34167
437.1953, 14.99876
437.6774, 15.29636
438.1595, 14.89160
438.6417, 13.95721
439.1238, 13.20665
439.6059, 13.19150
440.0880, 13.51884
440.5701, 13.94931
441.0522, 14.54770
441.5344, 14.58266
442.0165, 13.20859
442.4986, 11.13751
442.9807, 9.247742
443.4628, 7.967087
443.9449, 6.785995
444.4271, 5.306259
444.9092, 3.662033
445.3913, 2.616241
445.8734, 3.251907
446.3555, 3.876068
446.8376, 3.531799
447.3198, 1.158478
447.8019, 0.1862490
448.2840, 0.5761410
448.7661, 1.978806
449.2482, 1.863098
449.7303, 1.115845
450.2125, 3.282806
450.6946, 3.530502
451.1767, 2.046555
451.6588, 1.666336
452.1409, 2.702499
452.6230, 4.108704
453.1052, 5.488937
453.5873, 6.969147
454.0694, 6.573044
454.5515, 3.558624
455.0337, 0.1589510
455.5158, 1.180893
455.9979, 0.3384250
456.4800, 2.229065
456.9621, 4.122040
457.4442, 5.598511
457.9264, 5.525711
458.4085, 3.941055
458.8906, 1.731033
459.3727, 1.256409
459.8548, 4.180649
460.3369, 5.444397
460.8191, 4.178940
461.3012, 2.485153
461.7833, 1.914886
462.2654, 2.169724
462.7475, 2.628403
463.2296, 3.501251
463.7118, 4.111374
464.1939, 3.806458
464.6760, 2.528671
465.1581, 1.767975
465.6402, 1.872910
466.1223, 2.732315
466.6045, 4.280228
467.0866, 8.139450
467.5687, 10.64687
468.0508, 10.79036
468.5329, 9.542618
469.0150, 9.035019
469.4972, 9.462097
469.9793, 10.35687
470.4614, 11.74287
470.9435, 13.66953
471.4256, 15.10046
471.9077, 15.94168
472.3899, 16.48549
472.8720, 16.78957
473.3541, 16.78270
473.8362, 17.58800
474.3183, 19.62485
474.8004, 22.13612
475.2826, 23.54721
475.7647, 23.92531
476.2468, 24.24413
476.7289, 24.86665
477.2110, 25.80713
477.6931, 27.22531
478.1753, 29.12131
478.6574, 30.98088
479.1395, 32.20483
479.6216, 33.16904
480.1037, 34.41847
480.5858, 36.10051
481.0680, 38.09695
481.5501, 40.36316
482.0322, 42.88562
482.5143, 45.62006
482.9964, 49.27441
483.4786, 52.51648
483.9607, 54.36201
484.4428, 54.60617
484.9249, 55.59842
485.4070, 58.81091
485.8892, 62.28050
486.3713, 64.58615
486.8534, 64.49815
487.3355, 65.02808
487.8176, 66.61719
488.2997, 68.73660
488.7819, 70.24203
489.2640, 70.83205
489.7461, 71.51321
490.2282, 72.77509
490.7103, 74.54626
491.1924, 75.37323
491.6746, 75.10878
492.1567, 74.51598
492.6388, 74.10112
493.1209, 73.88045
493.6030, 74.07416
494.0851, 74.73874
494.5673, 75.73108
495.0494, 77.30289
495.5315, 79.14603
496.0136, 80.10014
496.4957, 78.67148
496.9778, 76.65002
497.4600, 76.13646
497.9421, 77.01584
498.4242, 77.98065
498.9063, 78.39450
499.3884, 78.47229
499.8705, 78.40994
500.3527, 78.28545
500.8348, 77.92282
501.3169, 76.80328
501.7990, 75.53952
502.2811, 74.99237
502.7632, 75.81003
503.2454, 76.80045
503.7275, 77.82291
504.2096, 78.86307
504.6917, 79.85425
505.1738, 80.87865
505.6559, 81.58502
506.1381, 81.83707
506.6202, 81.48593
507.1023, 81.27963
507.5844, 81.07455
508.0665, 80.87436
508.5486, 80.67346
509.0308, 80.57144
509.5129, 81.18044
509.9950, 83.19937
510.4771, 85.31259
510.9592, 84.15472
511.4413, 80.02560
511.9235, 76.02954
512.4056, 74.64058
512.8877, 74.62329
513.3698, 73.91812
513.8519, 72.23286
514.3340, 69.97281
514.8162, 66.86520
515.2983, 63.61359
515.7804, 61.15131
516.2625, 60.34802
516.7446, 59.84373
517.2267, 59.22346
517.7089, 58.44456
518.1910, 57.55666
518.6731, 56.48419
519.1552, 55.29202
519.6373, 53.90839
520.1194, 52.29347
520.6016, 51.24927
521.0837, 50.57320
521.5658, 50.63821
522.0479, 51.97507
522.5300, 55.15842
523.0121, 57.32434
523.4943, 58.04337
523.9764, 58.04892
524.4585, 58.73560
524.9406, 60.13663
525.4227, 61.12512
525.9048, 60.87720
526.3870, 60.14099
526.8691, 60.80406
527.3513, 62.83795
527.8334, 65.53705
528.3155, 69.30434
528.7976, 73.33521
529.2797, 75.79738
529.7618, 76.09222
530.2440, 76.60442
530.7261, 79.38449
531.2082, 83.29231
531.6903, 86.81273
532.1724, 89.58052
532.6545, 91.75208
533.1367, 93.49416
533.6188, 94.71887
534.1009, 95.17587
534.5830, 94.62405
535.0651, 93.58942
535.5472, 92.04144
536.0294, 89.77036
536.5115, 88.24585
536.9936, 88.03728
537.4757, 87.69205
537.9578, 85.78938
538.4399, 82.00185
538.9221, 78.75317
539.4042, 76.25854
539.8863, 74.46478
540.3684, 73.40582
540.8505, 73.04462
541.3326, 72.72665
541.8148, 72.20271
542.2969, 71.54799
542.7790, 71.10243
543.2611, 70.82097
543.7432, 69.95349
544.2253, 66.73206
544.7075, 63.27499
545.1896, 62.14886
545.6717, 64.20270
546.1538, 65.71213
546.6359, 64.41269
547.1180, 61.80276
547.6002, 59.48750
548.0823, 58.15498
548.5644, 56.80048
549.0465, 55.24747
549.5286, 53.54337
550.0107, 51.86775
550.4929, 50.29709
550.9750, 48.47087
551.4571, 46.02061
551.9392, 43.03336
552.4213, 41.29773
552.9034, 41.12825
553.3856, 41.18736
553.8677, 40.24753
554.3498, 38.42099
554.8319, 37.08192
555.3140, 36.39838
555.7961, 36.10330
556.2783, 36.23930
556.7604, 36.52531
557.2425, 36.10513
557.7246, 34.02684
558.2067, 31.77267
558.6888, 30.80457
559.1710, 30.89424
559.6531, 31.29109
560.1352, 32.33734
560.6173, 33.02350
561.0994, 32.37138
561.5815, 30.05154
562.0637, 28.70049
562.5458, 30.25217
563.0279, 32.02708
563.5100, 32.01717
563.9921, 28.51407
564.4742, 26.28691
564.9564, 26.04428
565.4385, 26.64674
565.9206, 26.00819
566.4027, 23.79591
566.8848, 22.10385
567.3669, 21.91054
567.8491, 22.46873
568.3312, 20.98134
568.8133, 17.54297
569.2954, 14.46248
569.7775, 13.59402
570.2596, 14.01019
570.7418, 14.17046
571.2239, 13.98816
571.7060, 13.48732
572.1881, 12.11774
572.6702, 10.69530
573.1523, 10.22824
573.6345, 11.73105
574.1166, 12.83493
574.5987, 12.28740
575.0808, 10.84071
575.5629, 9.733337
576.0450, 10.25729
576.5272, 9.879959
577.0093, 7.484848
577.4914, 3.567856
577.9735, 1.503433
578.4556, 2.079697
578.9377, 2.917236
579.4199, 2.792053
579.9020, 1.683350
580.3841, 0.9389800
580.8662, 0.5897980
581.3483, 0.4566800
581.8304, 0.2680820
582.3126, 0.1374510
582.7947, 0.5721130
583.2768, 1.845917
583.7589, 3.155670
584.2410, 4.077164
584.7231, 4.369446
585.2053, 3.556427
585.6874, 5.9723001E-02
586.1696, 3.454361
586.6517, 4.851837
587.1338, 4.589432
587.6159, 4.220612
588.0980, 4.188965
588.5801, 4.105042
589.0623, 3.799469
589.5444, 3.255341
590.0265, 2.567673
590.5086, 1.382278
590.9907, 0.5011600
591.4728, 0.7081450
591.9550, 2.223740
592.4371, 3.410767
592.9192, 4.171967
593.4013, 4.492676
593.8834, 4.244629
594.3655, 3.481354
594.8477, 2.497742
595.3298, 1.155884
595.8119, 5.4595999E-02
596.2940, 0.2019200
596.7761, 0.4145200
597.2582, 0.7828670
597.7404, 0.1741330
598.2225, 0.7191930
598.7046, 1.667847
599.1867, 2.627762
599.6688, 2.831329
600.1509, 0.8901520
600.6331, 1.041641
601.1152, 1.479797
601.5973, 0.5892030
602.0794, 1.806351
602.5615, 1.834579
603.0436, 1.321655
603.5258, 0.9820400
604.0079, 0.8700710
604.4900, 0.6504060
604.9721, 0.2624210
605.4542, 0.2385250
605.9363, 0.7346650
606.4185, 1.229904
606.9006, 1.829697
607.3827, 3.102570
607.8648, 4.171570
608.3469, 3.291000
608.8290, 0.7912450
609.3112, 1.407394
609.7933, 2.059967
610.2754, 2.067612
610.7575, 1.943008
611.2396, 1.670898
611.7217, 1.867828
612.2039, 3.618240
612.6860, 5.318481
613.1681, 5.709000
613.6502, 3.780136
614.1323, 2.201950
614.6144, 0.8101960
615.0966, 4.7745001E-02
615.5787, 0.4048920
616.0608, 2.462448
616.5429, 3.842911
617.0250, 3.708908
617.5071, 2.944778
617.9893, 3.770172
618.4714, 5.992538
618.9535, 8.040237
619.4356, 9.140762
619.9177, 9.617798
620.3998, 9.617310
620.8820, 9.234665
621.3641, 9.216599
621.8462, 10.16110
622.3283, 11.51187
622.8104, 12.84782
623.2925, 14.06949
623.7747, 15.48546
624.2568, 18.16173
624.7389, 20.39479
625.2210, 20.56378
625.7031, 16.65178
626.1852, 15.30052
626.6674, 17.75069
627.1495, 21.88646
627.6316, 23.92786
628.1137, 23.75165
628.5958, 24.62160
629.0779, 27.96217
629.5601, 32.33469
630.0422, 34.83826
630.5243, 35.76427
631.0064, 36.59296
631.4885, 38.16693
631.9706, 40.00900
632.4528, 41.59142
632.9349, 42.93486
633.4170, 44.59079
633.8991, 47.29875
634.3812, 50.01595
634.8633, 51.95280
635.3455, 52.39156
635.8276, 54.03654
636.3097, 57.61002
636.7918, 61.85025
637.2739, 65.63553
637.7560, 68.63565
638.2382, 72.45044
638.7203, 77.49329
639.2024, 82.77286
639.6845, 86.30753
640.1666, 88.43597
640.6487, 91.80231
641.1309, 97.37202
641.6130, 104.3836
642.0951, 112.1401
642.5772, 120.4579
643.0594, 128.4978
643.5415, 135.2817
644.0236, 141.9859
644.5057, 149.3329
644.9879, 157.5372
645.4700, 166.9026
645.9521, 177.7128
646.4342, 189.6563
646.9163, 202.7466
647.3984, 217.2834
647.8806, 231.7296
648.3627, 245.7302
648.8448, 260.6282
649.3269, 277.9398
649.8090, 297.6014
650.2911, 316.8792
650.7733, 335.4902
651.2554, 355.4700
651.7375, 380.4268
652.2196, 408.9153
652.7017, 437.3635
653.1838, 463.9890
653.6660, 491.9076
654.1481, 523.2806
654.6302, 557.4087
655.1123, 593.6382
655.5944, 632.1453
656.0765, 671.9974
656.5587, 712.8829
657.0408, 754.7205
657.5229, 798.2133
658.0050, 842.8663
658.4871, 888.7333
658.9692, 936.4787
659.4514, 985.8286
659.9335, 1032.916
660.4156, 1077.550
660.8977, 1120.074
661.3798, 1161.529
661.8619, 1200.417
662.3441, 1234.498
662.8262, 1263.695
663.3083, 1285.993
663.7904, 1300.541
664.2725, 1306.989
664.7546, 1304.940
665.2368, 1294.187
665.7189, 1275.129
666.2010, 1245.299
666.6831, 1208.617
667.1652, 1169.179
667.6473, 1127.408
668.1295, 1082.571
668.6116, 1033.652
669.0937, 981.8200
669.5758, 929.7484
670.0579, 877.0961
670.5400, 824.9510
671.0222, 772.8980
671.5043, 722.2806
671.9864, 674.2855
672.4685, 629.0629
672.9506, 587.2510
673.4327, 550.2325
673.9149, 516.5965
674.3970, 485.0034
674.8791, 455.3040
675.3612, 427.7995
675.8433, 402.0006
676.3254, 378.5166
676.8076, 358.3066
677.2897, 341.9478
677.7718, 325.5996
678.2539, 308.5145
678.7360, 292.7517
679.2181, 279.6964
679.7003, 269.5586
680.1824, 261.4028
680.6645, 255.5471
681.1466, 250.4673
681.6287, 244.2885
682.1108, 237.5195
682.5930, 231.6676
683.0751, 226.8873
683.5572, 223.3568
684.0393, 222.2292
684.5214, 222.0882
685.0035, 220.9025
685.4857, 217.2807
685.9678, 213.3917
686.4499, 209.5048
686.9320, 205.7754
687.4141, 202.6125
687.8962, 201.0948
688.3784, 198.0815
688.8605, 192.5518
689.3426, 185.1852
689.8247, 178.2956
690.3068, 171.8563
690.7889, 165.2983
691.2711, 158.5919
691.7532, 151.4578
692.2353, 142.9375
692.7174, 133.4613
693.1995, 124.7270
693.6816, 118.3327
694.1638, 112.5501
694.6459, 106.0289
695.1280, 98.67194
695.6101, 91.84467
696.0922, 85.74173
696.5743, 80.48520
697.0565, 76.20215
697.5386, 73.10654
698.0207, 69.64893
698.5028, 65.68958
698.9849, 61.47652
699.4670, 56.96022
699.9492, 52.37924
700.4313, 49.49237
700.9135, 48.80063
701.3956, 48.28568
701.8777, 45.03300
702.3598, 40.60321
702.8419, 37.79684
703.3240, 38.08673
703.8062, 38.60196
704.2883, 37.95509
704.7704, 36.58556
705.2525, 35.14871
705.7346, 33.13171
706.2167, 31.87419
706.6989, 31.75735
707.1810, 32.36223
707.6631, 32.75763
708.1452, 32.88159
708.6273, 33.20662
709.1094, 33.97717
709.5916, 35.06671
710.0737, 35.98248
710.5558, 36.65448
711.0379, 37.05695
711.5200, 37.17264
712.0021, 37.11230
712.4843, 36.86469
712.9664, 36.44739
713.4485, 36.07788
713.9306, 35.96928
714.4127, 35.88588
714.8948, 35.87547
715.3770, 35.94637
715.8591, 35.22253
716.3412, 33.38806
716.8233, 31.44864
717.3054, 29.86430
717.7875, 28.49490
718.2697, 28.05424
718.7518, 28.63806
719.2339, 29.57808
719.7160, 31.33607
720.1981, 32.67593
720.6802, 31.03362
721.1624, 25.84601
721.6445, 20.81473
722.1266, 17.78532
722.6087, 16.11969
723.0908, 15.42839
723.5729, 16.39224
724.0551, 16.78691
724.5372, 16.04477
725.0193, 15.13576
725.5014, 15.15364
725.9835, 16.31091
726.4656, 17.13689
726.9478, 17.54321
727.4299, 17.43666
727.9120, 16.17899
728.3941, 14.24933
728.8762, 13.32611
729.3583, 14.24153
729.8405, 15.48895
730.3226, 15.52979
730.8047, 15.11145
731.2868, 15.46796
731.7689, 18.14395
732.2510, 20.26212
732.7332, 21.05241
733.2153, 20.91962
733.6974, 20.54294
734.1795, 19.77660
734.6616, 18.88632
735.1437, 17.92107
735.6259, 16.93637
736.1080, 16.06857
736.5901, 15.31813
737.0722, 14.68678
737.5543, 14.18919
738.0364, 13.76932
738.5186, 13.32439
739.0007, 12.90393
739.4828, 12.65131
739.9649, 13.01958
740.4470, 13.22305
740.9291, 12.90888
741.4113, 12.02045
741.8934, 10.80321
742.3755, 9.204575
742.8576, 7.356659
743.3397, 4.974350
743.8218, 2.280594
744.3040, 1.417038
744.7861, 2.437317
745.2682, 3.491119
745.7503, 3.210770
746.2324, 2.187714
746.7145, 1.107315
747.1967, 4.6829000E-02
747.6788, 0.2967990
748.1609, 1.801971
748.6430, 3.713821
749.1251, 3.437668
749.6072, 0.1981510
750.0894, 2.188110
750.5715, 3.513901
751.0536, 4.069748
751.5357, 3.769867
752.0178, 2.484329
752.4999, 1.925812
752.9821, 2.141357
753.4642, 2.767273
753.9463, 3.833237
754.4284, 4.968384
754.9105, 5.448807
755.3926, 5.182144
755.8748, 4.331589
756.3569, 2.230530
756.8390, 3.9673001E-02
757.3211, 1.137497
757.8032, 0.6087190
758.2853, 0.1334080
758.7675, 0.2230680
759.2496, 0.4058380
759.7318, 0.4644010
760.2139, 0.4472960
760.6960, 0.1524200
761.1781, 1.543915
761.6602, 2.975159
762.1423, 3.572586
762.6245, 3.474869
763.1066, 2.893188
763.5887, 1.662125
764.0708, 0.7501070
764.5529, 1.325272
765.0350, 2.377289
765.5172, 2.719086
765.9993, 1.698044
766.4814, 0.4231720
766.9635, 1.489502
767.4456, 3.272385
767.9277, 3.794327
768.4099, 2.852661
768.8920, 2.061127
769.3741, 1.701004
769.8562, 1.425507
770.3383, 0.7128140
770.8204, 0.2558900
771.3026, 1.048141
771.7847, 1.429489
772.2668, 1.820587
772.7489, 3.122971
773.2310, 4.467773
773.7131, 4.473267
774.1953, 0.6736300
774.6774, 1.621124
775.1595, 1.416641
775.6416, 0.3164520
776.1237, 2.054886
776.6058, 3.906937
777.0880, 4.813553
777.5701, 4.244186
778.0522, 3.130768
778.5343, 3.081100
779.0164, 3.791397
779.4985, 4.357986
779.9807, 4.248077
780.4628, 4.095947
780.9449, 4.330750
781.4270, 4.799500
781.9091, 5.183472
782.3912, 5.199768
782.8734, 5.408691
783.3555, 6.025482
783.8376, 6.802948
784.3197, 7.093475
784.8018, 6.881393
785.2839, 6.417435
785.7661, 5.648575
786.2482, 4.871674
786.7303, 4.599579
787.2124, 4.810608
787.6945, 5.212891
788.1766, 5.728439
788.6588, 6.224884
789.1409, 7.103912
789.6230, 7.977661
790.1051, 7.598587
790.5872, 3.932159
791.0693, 2.180634
791.5515, 4.152496
792.0336, 8.308731
792.5157, 10.10707
792.9978, 9.499832
793.4799, 8.335083
793.9620, 6.779907
794.4442, 5.611298
794.9263, 6.379883
795.4084, 8.419907
795.8905, 9.860397
796.3726, 9.835754
796.8547, 9.075714
797.3369, 7.034668
797.8190, 4.439392
798.3011, 3.717209
798.7832, 5.832733
799.2653, 7.869202
799.7474, 9.114243
800.2296, 9.832596
800.7117, 10.91481
801.1938, 12.27885
801.6759, 12.91216
802.1580, 11.83432
802.6401, 10.44891
803.1223, 10.62125
803.6044, 11.75620
804.0865, 12.30937
804.5686, 11.43353
805.0507, 10.36560
805.5328, 9.293549
806.0150, 8.356674
806.4971, 7.886505
806.9792, 7.912033
807.4613, 8.197876
807.9434, 8.741867
808.4255, 9.349686
808.9077, 9.536148
809.3898, 9.444870
809.8719, 9.470963
810.3540, 9.937134
810.8361, 10.27176
811.3182, 9.965225
811.8004, 9.142181
812.2825, 8.162949
812.7646, 7.128601
813.2467, 6.065414
813.7288, 4.627106
814.2109, 3.418488
814.6931, 4.244919
815.1752, 7.365265
815.6573, 9.015030
816.1394, 7.422424
816.6215, 4.818283
817.1037, 5.700165
817.5858, 8.805374
818.0679, 10.80624
818.5500, 8.916931
819.0322, 7.126648
819.5143, 8.171158
819.9964, 10.57277
820.4785, 11.08739
820.9606, 7.736160
821.4427, 6.013718
821.9249, 7.336639
822.4070, 10.10149
822.8891, 10.98985
823.3712, 10.13843
823.8533, 8.974716
824.3354, 7.627579
824.8176, 6.584763
825.2997, 7.334274
825.7818, 8.784698
826.2639, 8.997437
826.7460, 5.349304
827.2281, 2.722137
827.7103, 2.545837
828.1924, 3.855713
828.6745, 5.723953
829.1566, 8.550659
829.6387, 9.990906
830.1208, 9.446442
830.6030, 7.966568
831.0851, 6.979904
831.5672, 6.362701
832.0493, 5.723236
832.5314, 4.796768
833.0135, 4.099380
833.4957, 4.277481
833.9778, 4.745529
834.4599, 4.832993
834.9420, 4.063049
835.4241, 3.328766
835.9063, 2.361923
836.3884, 1.764587
836.8705, 2.647324
837.3526, 4.945358
837.8347, 6.108963
838.3168, 5.740005
838.7990, 4.766586
839.2811, 3.606400
839.7632, 2.685547
840.2453, 2.762177
840.7274, 4.376907
841.2095, 5.620255
841.6917, 5.669968
842.1738, 5.196732
842.6559, 4.792053
843.1380, 4.658691
843.6201, 3.650467
844.1022, 1.457230
844.5844, 0.5413670
845.0665, 0.9440310
845.5486, 0.1366730
846.0307, 1.094040
846.5128, 2.701645
846.9949, 3.735138
847.4771, 3.147552
847.9592, 2.023331
848.4413, 1.192627
848.9234, 0.8367000
849.4055, 0.1624450
849.8876, 1.481720
850.3698, 2.509460
850.8519, 1.634079
851.3340, 0.9339600
851.8161, 2.555710
852.2982, 3.231369
852.7803, 3.424454
853.2625, 3.359177
853.7446, 3.153717
854.2267, 2.718842
854.7088, 2.038498
855.1909, 1.501221
855.6730, 0.9801330
856.1552, 0.8023830
856.6373, 1.351059
857.1194, 2.575867
857.6015, 3.574341
858.0836, 4.322556
858.5657, 4.601501
859.0479, 4.060623
859.5300, 3.074890
860.0121, 2.112305
860.4942, 1.370438
860.9763, 1.517380
861.4584, 4.092728
861.9406, 6.319565
862.4227, 6.678909
862.9048, 5.594833
863.3869, 4.682343
863.8690, 3.718414
864.3511, 3.797119
864.8333, 5.658203
865.3154, 8.058090
865.7975, 8.064926
866.2796, 6.205399
866.7617, 4.910049
867.2438, 5.338043
867.7260, 6.160950
868.2081, 6.147568
868.6902, 5.698471
869.1723, 5.559235
869.6544, 6.389603
870.1365, 6.895813
870.6187, 6.998917
871.1008, 6.783432
871.5829, 6.257706
872.0650, 5.440659
872.5471, 4.572952
873.0292, 3.538223
873.5114, 3.328812
873.9935, 5.976105
874.4756, 9.588181
874.9577, 11.75327
875.4399, 11.68857
875.9220, 11.25494
876.4041, 10.06345
876.8862, 9.348053
877.3683, 9.990631
877.8505, 12.15036
878.3326, 14.86289
878.8147, 18.24274
879.2968, 21.15695
879.7789, 22.68610
880.2610, 23.05621
880.7432, 21.95798
881.2253, 19.50867
881.7074, 18.47095
882.1895, 22.03497
882.6716, 25.65286
883.1537, 26.56158
883.6359, 24.92139
884.1180, 24.05392
884.6001, 24.02582
885.0822, 24.38818
885.5643, 25.31992
886.0464, 26.36319
886.5286, 26.12079
887.0107, 24.86234
887.4928, 23.70715
887.9749, 23.11505
888.4570, 22.92218
888.9391, 23.57205
889.4213, 24.57248
889.9034, 24.37753
890.3855, 22.57275
890.8676, 20.44278
891.3497, 18.07709
891.8318, 15.76825
892.3140, 13.75525
892.7961, 12.16122
893.2782, 11.65295
893.7603, 12.88644
894.2424, 14.15430
894.7245, 14.01663
895.2067, 13.30035
895.6888, 12.98810
896.1709, 13.66455
896.6530, 14.11005
897.1351, 14.55908
897.6172, 14.37830
898.0994, 12.19647
898.5815, 8.513550
899.0636, 7.186768
899.5457, 8.679932
900.0278, 10.61142
900.5099, 11.78793
900.9921, 12.01303
901.4742, 10.79312
901.9563, 7.813782
902.4384, 5.269348
902.9205, 3.345123
903.4026, 2.278107
903.8848, 2.456543
904.3669, 3.645020
904.8490, 4.004700
905.3311, 3.525818
905.8132, 2.793610
906.2953, 1.841522
906.7775, 1.074524
907.2596, 1.041107
907.7417, 1.458435
908.2238, 1.626831
908.7059, 1.346863
909.1880, 1.154083
909.6702, 1.170898
910.1523, 1.114441
910.6344, 0.1127320
911.1165, 1.805115
911.5986, 3.116241
912.0807, 3.408722
912.5629, 2.950287
913.0450, 1.013672
913.5271, 1.132050
914.0092, 1.533081
914.4913, 1.594879
914.9734, 4.212708
915.4556, 5.799255
915.9377, 6.621094
916.4198, 6.744965
916.9019, 6.136169
917.3840, 5.774200
917.8661, 5.748077
918.3483, 5.652771
918.8304, 5.008057
919.3125, 3.993744
919.7946, 2.799255
920.2767, 1.486145
920.7589, 0.7260440
921.2410, 1.216705
921.7231, 1.815033
922.2052, 2.134064
922.6873, 2.117584
923.1694, 1.299530
923.6516, 0.3330990
924.1337, 1.079163
924.6158, 0.7799680
925.0979, 3.228516
925.5800, 3.556305
926.0621, 2.379791
926.5443, 1.199524
927.0264, 0.3852540
927.5085, 0.2254640
927.9906, 0.6792600
928.4727, 0.9544980
928.9548, 0.7549130
929.4370, 2.5299000E-02
929.9191, 0.4680790
930.4012, 2.557617
930.8833, 5.030457
931.3654, 6.643127
931.8475, 7.778870
932.3297, 8.911591
932.8118, 10.28729
933.2939, 11.04153
933.7761, 10.08029
934.2582, 9.333405
934.7403, 10.18170
935.2224, 12.69376
935.7045, 13.74515
936.1866, 13.28391
936.6688, 13.11395
937.1509, 14.73740
937.6330, 17.18185
938.1151, 19.92227
938.5972, 22.67065
939.0793, 24.04703
939.5615, 21.80716
940.0436, 20.44806
940.5257, 21.42172
941.0078, 23.81775
941.4899, 24.89417
941.9720, 24.73557
942.4542, 25.67770
942.9363, 28.71454
943.4184, 32.32251
943.9005, 35.21933
944.3826, 37.47974
944.8647, 39.24323
945.3469, 39.97702
945.8290, 41.23242
946.3111, 43.11163
946.7932, 45.52136
947.2753, 48.60526
947.7574, 52.34531
948.2396, 55.40643
948.7217, 57.75821
949.2038, 59.90491
949.6859, 61.67691
950.1680, 63.85107
950.6501, 67.46658
951.1323, 72.46121
951.6144, 76.82690
952.0965, 80.00684
952.5786, 83.04520
953.0607, 86.29175
953.5428, 89.58154
954.0250, 92.18469
954.5071, 94.27444
954.9892, 96.92648
955.4713, 100.7490
955.9534, 104.8614
956.4355, 108.5266
956.9177, 112.0728
957.3998, 116.0465
957.8819, 120.6170
958.3640, 125.4434
958.8461, 130.6037
959.3282, 135.9000
959.8104, 140.9238
960.2925, 145.8324
960.7746, 151.1177
961.2567, 156.8394
961.7388, 162.3649
962.2209, 167.1249
962.7031, 171.7815
963.1852, 176.6361
963.6673, 181.7079
964.1494, 187.2057
964.6315, 192.9868
965.1136, 199.5309
965.5958, 207.3853
966.0779, 215.7156
966.5600, 222.6819
967.0421, 228.7751
967.5242, 235.1226
968.0063, 242.3838
968.4885, 249.7641
968.9706, 256.0772
969.4527, 262.8677
969.9348, 272.6259
970.4169, 286.4902
970.8990, 297.1211
971.3812, 303.3709
971.8633, 309.9985
972.3454, 322.5215
972.8275, 337.7851
973.3096, 351.4627
973.7917, 363.1249
974.2739, 374.8795
974.7560, 387.0674
975.2381, 399.9599
975.7202, 413.8132
976.2023, 428.4809
976.6844, 443.8517
977.1666, 460.0495
977.6487, 475.2296
978.1308, 487.8944
978.6129, 500.0997
979.0950, 514.8672
979.5771, 530.4781
980.0593, 544.2249
980.5414, 554.4666
981.0235, 564.1572
981.5056, 573.7466
981.9877, 582.5199
982.4698, 589.9048
982.9520, 595.8901
983.4341, 600.8076
983.9162, 604.7452
984.3983, 608.4023
984.8804, 612.6168
985.3625, 616.4124
985.8447, 619.2384
986.3268, 620.9659
986.8089, 621.2059
987.2910, 619.6531
987.7731, 617.4368
988.2552, 614.7068
988.7374, 611.8185
989.2195, 609.2407
989.7016, 607.1349
990.1837, 606.0859
990.6658, 607.1613
991.1479, 607.5921
991.6301, 605.6461
992.1122, 602.8640
992.5944, 600.5040
993.0765, 598.3452
993.5586, 597.8723
994.0407, 599.0740
994.5228, 602.1219
995.0049, 608.6203
995.4871, 616.1592
995.9692, 621.2751
996.4513, 624.2545
996.9334, 627.9617
997.4155, 633.7642
997.8976, 639.8106
998.3798, 645.5217
998.8619, 651.2736
999.3440, 658.4772
999.8261, 666.9506
1000.308, 674.5903
1000.790, 680.6729
1001.272, 686.3791
1001.755, 693.3718
1002.237, 700.4274
1002.719, 705.7629
1003.201, 708.7480
1003.683, 711.4320
1004.165, 714.4009
1004.647, 715.8903
1005.129, 714.6212
1005.612, 712.2375
1006.094, 706.6795
1006.576, 701.3137
1007.058, 693.7897
1007.540, 683.7006
1008.022, 671.3611
1008.504, 655.0844
1008.986, 637.0223
1009.468, 620.2560
1009.951, 604.8661
1010.433, 591.1496
1010.915, 579.4688
1011.397, 567.5031
1011.879, 552.3325
1012.361, 535.7908
1012.843, 519.4141
1013.325, 503.3820
1013.807, 488.9300
1014.290, 476.8633
1014.772, 465.4803
1015.254, 453.7029
1015.736, 442.1782
1016.218, 433.7247
1016.700, 427.9376
1017.182, 422.5990
1017.664, 416.5808
1018.147, 410.7167
1018.629, 405.0521
1019.111, 400.2654
1019.593, 397.3605
1020.075, 397.8207
1020.557, 395.5004
1021.039, 389.8817
1021.521, 382.5857
1022.003, 374.5417
1022.486, 366.1141
1022.968, 358.1125
1023.450, 350.5312
1023.932, 342.9734
1024.414, 335.8632
1024.896, 327.9968
1025.378, 319.0213
1025.860, 308.9941
1026.343, 297.6933
1026.825, 285.4493
1027.307, 274.0657
1027.789, 264.4335
1028.271, 254.6656
1028.753, 242.8264
1029.235, 230.1888
1029.717, 218.3163
1030.199, 207.4862
1030.682, 196.6705
1031.164, 185.4637
1031.646, 175.1752
1032.128, 167.1719
1032.610, 160.3566
1033.092, 151.8254
1033.574, 142.1023
1034.056, 133.2034
1034.539, 126.1552
1035.021, 119.9787
1035.503, 115.0494
1035.985, 110.3934
1036.467, 104.6176
1036.949, 97.74921
1037.431, 90.14465
1037.913, 81.74152
1038.396, 74.08011
1038.878, 68.76178
1039.360, 64.60233
1039.842, 60.38452
1040.324, 56.04697
1040.806, 52.55615
1041.288, 50.23071
1041.770, 47.99799
1042.252, 45.50229
1042.734, 42.84082
1043.217, 39.97742
1043.699, 37.07904
1044.181, 34.61502
1044.663, 32.94266
1045.145, 31.12601
1045.627, 28.97299
1046.109, 26.33081
1046.591, 22.79510
1047.074, 18.27127
1047.556, 15.35162
1048.038, 14.01608
1048.520, 13.75604
1049.002, 15.10089
1049.484, 16.60425
1049.966, 17.30222
1050.448, 17.13394
1050.931, 15.87375
1051.413, 12.78534
1051.895, 10.37155
1052.377, 9.039856
1052.859, 8.113678
1053.341, 6.750061
1053.823, 5.127655
1054.305, 3.347870
1054.787, 1.421692
1055.270, 0.5860600
1055.752, 2.696472
1056.234, 4.613617
1056.716, 4.954163
1057.198, 4.078461
1057.680, 3.531952
1058.162, 3.237091
1058.644, 1.724792
1059.126, 2.268097
1059.609, 5.607452
1060.091, 4.569183
1060.573, 1.809448
1061.055, 0.3432010
1061.537, 0.8282780
1062.019, 1.113403
1062.501, 1.205475
1062.983, 1.086243
1063.466, 0.3009640
1063.948, 0.5074460
1064.430, 0.3253170
1064.912, 2.203644
1065.394, 3.332367
1065.876, 2.221222
1066.358, 1.372284
1066.840, 1.508331
1067.323, 1.748657
1067.805, 0.5021670
1068.287, 1.800568
1068.769, 1.674896
1069.251, 1.129395
1069.733, 3.550720
1070.215, 2.679077
1070.697, 1.398651
1071.179, 1.945923
1071.661, 3.839325
1072.144, 4.710236
1072.626, 4.487610
1073.108, 3.486969
1073.590, 1.593353
1074.072, 0.4620670
1074.554, 2.446503
1075.036, 3.681274
1075.518, 2.876160
1076.001, 0.9256590
1076.483, 3.193481
1076.965, 3.022491
1077.447, 2.460297
1077.929, 2.612396
1078.411, 3.105957
1078.893, 2.744690
1079.375, 1.748291
1079.858, 0.8464970
1080.340, 0.1759030
1080.822, 0.1727910
1081.304, 0.4492800
1081.786, 1.209991
1082.268, 1.229309
1082.750, 0.4825740
1083.232, 0.8208920
1083.714, 2.667542
1084.197, 3.807770
1084.679, 2.065582
1085.161, 0.6521300
1085.643, 2.686493
1086.125, 6.615997
1086.607, 7.987396
1087.089, 5.786163
1087.571, 4.587067
1088.054, 5.331360
1088.536, 6.206573
1089.018, 4.044769
1089.500, 1.126404
1089.982, 1.236237
1090.464, 4.833496
1090.946, 7.675476
1091.428, 9.024719
1091.911, 9.199768
1092.393, 7.705872
1092.875, 5.797089
1093.357, 7.039520
1093.839, 10.25327
1094.321, 11.86292
1094.803, 10.48663
1095.285, 8.756195
1095.767, 7.368713
1096.250, 6.606018
1096.732, 6.786743
1097.214, 7.857574
1097.696, 8.758911
1098.178, 9.478271
1098.660, 9.648712
1099.142, 8.740936
1099.624, 7.608276
1100.106, 6.214417
1100.589, 5.313934
1101.071, 6.374146
1101.553, 10.77332
1102.035, 12.33063
1102.517, 10.50842
1102.999, 8.073975
1103.481, 6.948212
1103.963, 6.863586
1104.446, 8.015320
1104.928, 9.999756
1105.410, 11.24362
1105.892, 10.81885
1106.374, 10.59912
1106.856, 10.91003
1107.338, 11.33139
1107.820, 11.11289
1108.302, 10.60999
1108.785, 10.68063
1109.267, 11.40396
1109.749, 12.21759
1110.231, 13.11514
1110.713, 13.80563
1111.195, 14.31662
1111.677, 14.48920
1112.159, 13.43585
1112.641, 11.48254
1113.124, 10.77930
1113.606, 12.15903
1114.088, 13.51004
1114.570, 13.61212
1115.052, 12.92398
1115.534, 11.45743
1116.016, 9.331055
1116.498, 8.808502
1116.981, 9.873260
1117.463, 10.55679
1117.945, 10.21777
1118.427, 9.509491
1118.909, 8.445679
1119.391, 7.438995
1119.873, 7.323822
1120.355, 8.889435
1120.838, 9.020050
1121.320, 7.412048
1121.802, 5.697479
1122.284, 5.029205
1122.766, 4.859680
1123.248, 4.489471
1123.730, 4.137207
1124.212, 4.052063
1124.694, 3.981720
1125.177, 4.795807
1125.659, 7.225555
1126.141, 9.396484
1126.623, 8.918976
1127.105, 6.662201
1127.587, 4.726654
1128.069, 3.448181
1128.551, 3.037323
1129.033, 4.128174
1129.516, 5.136993
1129.998, 5.764679
1130.480, 6.114532
1130.962, 6.287567
1131.444, 6.337891
1131.926, 6.313873
1132.408, 6.114319
1132.890, 5.937653
1133.373, 6.193481
1133.855, 6.145050
1134.337, 5.242188
1134.819, 3.877716
1135.301, 2.988831
1135.783, 2.529114
1136.265, 1.909912
1136.747, 1.001373
1137.229, 0.1227110
1137.712, 1.191620
1138.194, 1.875671
1138.676, 0.4371950
1139.158, 3.031860
1139.640, 4.958374
1140.122, 5.296722
1140.604, 5.336426
1141.086, 5.871399
1141.569, 5.851868
1142.051, 2.546692
1142.533, 1.321503
1143.015, 1.706024
1143.497, 3.801849
1143.979, 6.639374
1144.461, 6.321686
1144.943, 5.131866
1145.426, 3.985992
1145.908, 3.215790
1146.390, 3.894592
1146.872, 5.298370
1147.354, 5.856476
1147.836, 4.270630
1148.318, 3.401489
1148.800, 3.601471
1149.282, 3.674255
1149.765, 2.156891
1150.247, 5.5939000E-02
1150.729, 0.9501340
1151.211, 0.6764220
1151.693, 8.7462999E-02
1152.175, 0.3003230
1152.657, 1.398682
1153.139, 3.790741
1153.621, 6.218323
1154.104, 7.139709
1154.586, 6.862305
1155.068, 6.167572
1155.550, 5.177948
1156.032, 4.554352
1156.514, 5.015259
1156.996, 5.416138
1157.478, 5.525513
1157.961, 5.251190
1158.443, 3.996521
1158.925, 2.084351
1159.407, 1.596222
1159.889, 2.850952
1160.371, 4.345062
1160.853, 5.533752
1161.335, 6.307281
1161.818, 6.455902
1162.300, 6.237335
1162.782, 6.262024
1163.264, 6.544434
1163.746, 7.722382
1164.228, 10.28128
1164.710, 11.63538
1165.192, 8.238525
1165.674, 4.396881
1166.156, 3.625763
1166.639, 5.365692
1167.121, 5.822235
1167.603, 5.007843
1168.085, 5.285645
1168.567, 8.032440
1169.049, 10.25046
1169.531, 8.297089
1170.013, 5.266541
1170.496, 4.445648
1170.978, 5.933167
1171.460, 6.929565
1171.942, 7.435944
1172.424, 7.330597
1172.906, 6.177307
1173.388, 5.052185
1173.870, 5.213684
1174.353, 5.973724
1174.835, 6.353668
1175.317, 6.100372
1175.799, 6.857849
1176.281, 8.899384
1176.763, 9.850220
1177.245, 7.517120
1177.727, 4.320587
1178.209, 2.610504
1178.692, 2.202148
1179.174, 2.812134
1179.656, 4.496399
1180.138, 6.440460
1180.620, 8.939636
1181.102, 10.55884
1181.584, 9.218475
1182.066, 6.871765
1182.548, 6.322266
1183.031, 7.029205
1183.513, 7.502502
1183.995, 7.418793
1184.477, 7.193268
1184.959, 6.738892
1185.441, 6.404724
1185.923, 6.545258
1186.405, 7.001343
1186.888, 8.031647
1187.370, 9.235291
1187.852, 9.100037
1188.334, 6.034698
1188.816, 4.506165
1189.298, 5.135254
1189.780, 6.592865
1190.262, 8.082703
1190.745, 9.206116
1191.227, 8.879425
1191.709, 7.414246
1192.191, 6.845856
1192.673, 8.527832
1193.155, 9.091339
1193.637, 7.704956
1194.119, 6.105103
1194.601, 6.834686
1195.084, 8.455750
1195.566, 8.215698
1196.048, 6.229370
1196.530, 5.726410
1197.012, 8.440918
1197.494, 10.33502
1197.976, 10.56821
1198.458, 9.874023
1198.941, 8.903046
1199.423, 7.883820
1199.905, 7.039307
1200.387, 6.286407
1200.869, 6.516785
1201.351, 9.396454
1201.833, 10.46707
1202.315, 8.099609
1202.797, 4.595337
1203.280, 3.742493
1203.762, 4.326477
1204.244, 3.941803
1204.726, 4.507965
1205.208, 6.130096
1205.690, 5.995056
1206.172, 9.078125
1206.654, 10.26660
1207.136, 9.937531
1207.619, 7.816040
1208.101, 4.952515
1208.583, 3.395203
1209.065, 3.750702
1209.547, 4.031128
1210.029, 3.709778
1210.511, 3.691467
1210.993, 4.278076
1211.476, 5.367920
1211.958, 7.349915
1212.440, 9.541412
1212.922, 10.57037
1213.404, 9.939148
1213.886, 9.459747
1214.368, 9.687073
1214.850, 9.226837
1215.333, 6.909973
1215.815, 4.458588
1216.297, 6.001160
1216.779, 9.374237
1217.261, 10.46417
1217.743, 7.557495
1218.225, 6.056458
1218.707, 7.191040
1219.189, 7.543915
1219.672, 4.918854
1220.154, 1.344269
1220.636, 0.3556820
1221.118, 1.203003
1221.600, 2.773773
1222.082, 5.416077
1222.564, 6.584656
1223.046, 5.740417
1223.528, 4.697510
1224.011, 4.316528
1224.493, 4.439941
1224.975, 5.033386
1225.457, 5.788818
1225.939, 6.224731
1226.421, 6.271271
1226.903, 5.758209
1227.385, 4.526733
1227.868, 3.230255
1228.350, 2.068115
1228.832, 1.267487
1229.314, 1.353668
1229.796, 1.960754
1230.278, 2.513916
1230.760, 3.011383
1231.242, 3.051697
1231.724, 2.449768
1232.207, 2.351654
1232.689, 4.286896
1233.171, 6.180054
1233.653, 4.616547
1234.135, 1.428131
1234.617, 0.1838380
1235.099, 0.9222720
1235.581, 0.7210390
1236.063, 1.083862
1236.546, 2.061249
1237.028, 0.6899410
1237.510, 3.591187
1237.992, 1.845917
1238.474, 1.948883
1238.956, 3.368744
1239.438, 1.658356
1239.920, 0.2752080
1240.403, 2.488068
1240.885, 3.748444
1241.367, 2.127441
1241.849, 0.3418580
1242.331, 1.089447
1242.813, 3.038513
1243.295, 4.191772
1243.777, 4.415863
1244.260, 4.310028
1244.742, 3.881317
1245.224, 3.627136
1245.706, 4.249512
1246.188, 4.782410
1246.670, 4.872742
1247.152, 4.387756
1247.634, 2.858978
1248.116, 7.4248999E-02
1248.599, 0.2329410
1249.081, 3.141144
1249.563, 5.296692
1250.045, 3.024384
1250.527, 1.270233
1251.009, 4.016113
1251.491, 7.571075
1251.973, 7.906891
1252.455, 5.203278
1252.938, 3.473511
1253.420, 2.664307
1253.902, 2.050598
1254.384, 1.123810
1254.866, 0.4781190
1255.348, 0.1027220
1255.830, 0.2937620
1256.313, 1.826721
1256.795, 4.334625
1257.277, 5.192963
1257.759, 4.747314
1258.241, 4.782898
1258.723, 7.962494
1259.205, 8.895325
1259.687, 5.266815
1260.169, 1.290283
1260.651, 0.8053280
1261.134, 2.873932
1261.616, 5.134247
1262.098, 7.263672
1262.580, 8.481689
1263.062, 8.007599
1263.544, 6.925262
1264.026, 4.877106
1264.508, 3.403778
1264.991, 4.468689
1265.473, 6.598816
1265.955, 6.772644
1266.437, 5.698517
1266.919, 5.246216
1267.401, 6.458466
1267.883, 7.292572
1268.365, 7.749847
1268.848, 7.717194
1269.330, 6.860992
1269.812, 5.604340
1270.294, 5.687897
1270.776, 6.142761
1271.258, 5.767395
1271.740, 5.029388
1272.222, 4.877289
1272.704, 5.300537
1273.187, 5.859924
1273.669, 6.367126
1274.151, 6.557983
1274.633, 5.862762
1275.115, 4.873932
1275.597, 4.482483
1276.079, 4.824066
1276.561, 5.702179
1277.043, 7.019806
1277.526, 7.571930
1278.008, 5.636475
1278.490, 3.745148
1278.972, 4.014069
1279.454, 4.636078
1279.936, 3.395416
1280.418, 0.3937990
1280.900, 6.0364000E-02
1281.383, 1.743256
1281.865, 3.885834
1282.347, 6.749695
1282.829, 8.121094
1283.311, 6.228485
1283.793, 3.816376
1284.275, 3.016876
1284.757, 3.385284
1285.240, 3.204254
1285.722, 2.561279
1286.204, 1.685547
1286.686, 0.4803470
1287.168, 0.4582520
1287.650, 3.018494
1288.132, 6.367584
1288.614, 6.940521
1289.096, 5.826904
1289.578, 4.666931
1290.061, 3.686157
1290.543, 3.371124
1291.025, 4.104645
1291.507, 5.062775
1291.989, 6.342957
1292.471, 7.055389
1292.953, 6.108459
1293.435, 4.795410
1293.918, 4.979706
1294.400, 5.648834
1294.882, 4.803467
1295.364, 2.073639
1295.846, 2.701202
1296.328, 6.668274
1296.810, 8.927856
1297.292, 5.865814
1297.775, 2.476624
1298.257, 2.969086
1298.739, 4.767090
1299.221, 5.599518
1299.703, 5.469635
1300.185, 3.885834
1300.667, 1.253418
1301.149, 7.1716003E-02
1301.631, 0.8779300
1302.114, 0.7359010
1302.596, 0.0000000E+00
##END=



