##NAMES=Natrolite
##RRUFFID=R040022
##IDEAL CHEMISTRY=Na_2_(Si_3_Al_2_)O_10_&#183;2H_2_O
##LOCALITY=Patterson, Passaic County, New Jersey, USA
##OWNER=RRUFF
##SOURCE=University of Arizona Mineral Museum
##DESCRIPTION=White fine fibrous mass
##STATUS=The identification of this mineral has been confirmed by X-ray diffraction and chemical analysis
##URL=rruff.info/R040022
##MEASURED CHEMISTRY=(Na_1.87_Ca_0.08_[box]_0.05_)_Σ=2_(Si_2.97_Al_2.03_)O_10_·1.95H_2_O; H_2_O estimated by difference
121.2030, 0.0000000E+00
122.5920, 446.5186
123.9810, 754.0576
125.3690, 662.0723
126.7580, 409.9580
128.1460, 42.71094
129.5340, 37.12402
130.9220, 36.53711
132.3090, 211.0635
133.6960, 310.6895
135.0830, 697.3086
136.4700, 1148.741
137.8570, 1663.359
139.2430, 1933.875
140.6300, 2156.801
142.0160, 2315.378
143.4010, 2291.766
144.7870, 2293.083
146.1720, 2091.133
147.5570, 1824.284
148.9420, 1692.701
150.3270, 1673.130
151.7110, 2015.689
153.0960, 2683.120
154.4800, 3515.172
155.8630, 4647.216
157.2470, 5505.667
158.6300, 6454.818
160.0130, 7300.530
161.3960, 7720.829
162.7790, 7952.764
164.1610, 7473.505
165.5440, 6614.268
166.9260, 5653.721
168.3080, 4734.969
169.6890, 3957.292
171.0700, 3457.005
172.4520, 3015.753
173.8330, 2798.130
175.2130, 2506.743
176.5940, 2236.645
177.9740, 2126.391
179.3540, 1830.618
180.7340, 1841.575
182.1140, 1811.863
183.4930, 1828.889
184.8720, 1899.073
186.2510, 2094.194
187.6300, 1965.847
189.0080, 1996.170
190.3870, 1783.324
191.7650, 1578.796
193.1430, 1514.552
194.5200, 1484.422
195.8980, 1551.333
197.2750, 1665.714
198.6520, 2076.801
200.0290, 2305.162
201.4050, 2689.405
202.7820, 3120.394
204.1580, 3384.903
205.5340, 3691.729
206.9090, 3925.895
208.2850, 3817.943
209.6600, 3208.371
211.0350, 2522.631
212.4100, 1901.507
213.7840, 1425.534
215.1590, 1106.696
216.5330, 793.9751
217.9070, 701.1445
219.2810, 572.6206
220.6540, 420.5718
222.0270, 266.9932
223.4000, 140.2822
224.7730, 106.3438
226.1460, 110.9458
227.5180, 95.78711
228.8910, 154.6338
230.2630, 9.198242
231.6340, 195.4551
233.0060, 215.9712
234.3770, 482.0859
235.7480, 662.7495
237.1190, 768.9985
238.4900, 877.4692
239.8600, 884.8540
241.2310, 954.1504
242.6010, 848.3560
243.9700, 703.4673
245.3400, 475.1504
246.7090, 198.6353
248.0790, 75.51270
249.4480, 69.82227
250.8160, 109.9292
252.1850, 184.9551
253.5530, 227.9863
254.9210, 233.3184
256.2890, 188.6050
257.6570, 132.3540
259.0240, 82.68848
260.3910, 21.12793
261.7580, 97.90137
263.1250, 59.16650
264.4920, 129.9902
265.8580, 315.4941
267.2240, 340.8472
268.5900, 346.9019
269.9560, 378.5205
271.3210, 356.6670
272.6870, 452.4541
274.0520, 401.0068
275.4160, 273.3818
276.7810, 115.6621
278.1460, 115.8618
279.5100, 11.98633
280.8740, 139.9644
282.2370, 11.01514
283.6010, 26.23340
284.9640, 80.64209
286.3270, 72.26855
287.6900, 14.86475
289.0530, 52.69287
290.4160, 27.73975
291.7780, 127.2988
293.1400, 263.4438
294.5020, 195.3975
295.8630, 379.5752
297.2250, 689.9277
298.5860, 642.5635
299.9470, 936.3408
301.3080, 1120.964
302.6680, 1404.418
304.0290, 1521.694
305.3890, 1621.782
306.7490, 1587.767
308.1080, 1665.387
309.4680, 1276.898
310.8270, 1020.215
312.1860, 679.3257
313.5450, 455.2188
314.9030, 343.8892
316.2620, 310.3433
317.6200, 218.5840
318.9780, 157.5967
320.3360, 229.3599
321.6930, 164.8682
323.0510, 221.1411
324.4080, 240.1787
325.7650, 375.9873
327.1210, 375.5708
328.4780, 422.9453
329.8340, 525.1089
331.1900, 474.0737
332.5460, 413.8462
333.9020, 557.3965
335.2570, 460.7153
336.6120, 408.7373
337.9670, 470.4287
339.3220, 348.8164
340.6770, 387.8765
342.0310, 424.7402
343.3850, 396.4438
344.7390, 394.0088
346.0930, 821.4443
347.4460, 531.7319
348.7990, 532.7974
350.1530, 1067.446
351.5050, 659.5518
352.8580, 984.1294
354.2100, 914.3325
355.5630, 922.2617
356.9150, 1073.034
358.2670, 1173.701
359.6180, 1182.269
360.9690, 1247.746
362.3210, 1046.127
363.6720, 1065.387
365.0220, 839.4150
366.3730, 698.2695
367.7230, 644.8989
369.0730, 495.4062
370.4230, 479.8008
371.7730, 430.1089
373.1220, 426.3525
374.4710, 278.5454
375.8210, 382.6909
377.1690, 419.7900
378.5180, 335.8433
379.8660, 419.6924
381.2150, 268.1089
382.5630, 345.9282
383.9100, 284.8213
385.2580, 187.3687
386.6050, 236.1294
387.9520, 255.2056
389.2990, 268.3872
390.6460, 239.2388
391.9920, 292.2222
393.3390, 250.8647
394.6850, 306.3755
396.0310, 300.1270
397.3760, 363.9678
398.7220, 413.5244
400.0670, 374.4966
401.4120, 438.8970
402.7570, 493.3037
404.1010, 555.9775
405.4460, 621.8452
406.7900, 719.7690
408.1340, 750.3740
409.4780, 915.9336
410.8210, 977.6670
412.1650, 1049.177
413.5080, 1022.222
414.8510, 935.6118
416.1930, 1039.354
417.5360, 1050.811
418.8780, 942.1270
420.2200, 984.0298
421.5620, 1078.108
422.9040, 1126.578
424.2450, 1072.830
425.5860, 1338.471
426.9270, 1525.215
428.2680, 1813.674
429.6090, 2136.344
430.9490, 2415.040
432.2890, 3484.870
433.6290, 4581.614
434.9690, 5075.765
436.3090, 6282.711
437.6480, 7755.970
438.9870, 9024.854
440.3260, 10397.78
441.6650, 10987.02
443.0030, 10804.93
444.3420, 9647.035
445.6800, 8772.289
447.0180, 6385.231
448.3550, 4972.720
449.6930, 4026.353
451.0300, 3268.695
452.3670, 2672.007
453.7040, 1947.075
455.0410, 1690.079
456.3770, 1289.871
457.7130, 1109.373
459.0490, 1017.757
460.3850, 966.0547
461.7210, 795.8340
463.0560, 704.4121
464.3910, 769.1831
465.7260, 615.5845
467.0610, 651.8462
468.3950, 772.0273
469.7300, 765.1709
471.0640, 816.2388
472.3980, 875.1011
473.7310, 838.4751
475.0650, 1060.792
476.3980, 1106.573
477.7310, 1345.278
479.0640, 1369.976
480.3970, 1651.861
481.7290, 1689.851
483.0620, 1902.211
484.3940, 1953.054
485.7250, 1988.326
487.0570, 1994.095
488.3890, 2035.435
489.7200, 1983.387
491.0510, 1902.009
492.3820, 1791.791
493.7120, 1807.536
495.0430, 1701.384
496.3730, 1590.860
497.7030, 1529.312
499.0320, 1366.151
500.3620, 1314.314
501.6910, 1385.492
503.0200, 1273.938
504.3490, 1316.261
505.6780, 1215.936
507.0070, 1375.986
508.3350, 1389.969
509.6630, 1531.849
510.9910, 1659.876
512.3190, 1749.208
513.6460, 1950.128
514.9730, 2017.959
516.3000, 2230.715
517.6270, 2491.451
518.9540, 2847.283
520.2800, 3036.979
521.6070, 3294.656
522.9330, 4039.314
524.2590, 4918.030
525.5840, 5978.652
526.9100, 7604.117
528.2350, 9265.362
529.5600, 11422.98
530.8850, 12853.54
532.2090, 14338.89
533.5340, 14284.23
534.8580, 13316.95
536.1820, 11877.12
537.5060, 9617.440
538.8290, 7710.420
540.1520, 5955.764
541.4760, 4583.482
542.7990, 3652.541
544.1210, 3030.359
545.4440, 2380.801
546.7660, 2015.491
548.0880, 1628.303
549.4100, 1408.212
550.7320, 1217.043
552.0530, 1079.132
553.3750, 914.1191
554.6960, 755.3672
556.0170, 648.6299
557.3370, 514.1748
558.6580, 553.9395
559.9780, 512.5503
561.2980, 426.4390
562.6180, 341.5635
563.9380, 431.9565
565.2570, 317.5356
566.5760, 249.1089
567.8950, 247.6826
569.2140, 153.2656
570.5330, 319.8652
571.8510, 316.5107
573.1700, 211.2134
574.4880, 230.9922
575.8050, 203.8579
577.1230, 198.8120
578.4400, 131.8442
579.7580, 206.9561
581.0750, 275.1201
582.3910, 223.3042
583.7080, 119.5420
585.0240, 273.7949
586.3410, 310.2295
587.6570, 185.5947
588.9720, 298.8574
590.2880, 209.4883
591.6030, 301.3730
592.9180, 279.6787
594.2330, 208.8486
595.5480, 202.3369
596.8630, 196.9814
598.1770, 180.9883
599.4910, 234.5078
600.8050, 167.0273
602.1190, 214.5410
603.4320, 160.3350
604.7460, 129.8184
606.0590, 50.68066
607.3720, 45.85938
608.6850, 20.42871
609.9970, 18.92383
611.3090, 28.25391
612.6210, 33.17188
613.9330, 1.587891
615.2450, 34.63574
616.5570, 82.81543
617.8680, 59.95020
619.1790, 78.78223
620.4900, 5.936523
621.8010, 19.05273
623.1110, 1.511719
624.4210, 9.932617
625.7310, 16.13574
627.0410, 12.28418
628.3510, 18.14844
629.6600, 57.00879
630.9700, 8.529297
632.2790, 27.88281
633.5880, 37.66406
634.8960, 13.76953
636.2050, 21.49316
637.5130, 45.12012
638.8210, 65.84961
640.1290, 82.53027
641.4370, 86.51758
642.7440, 2.787109
644.0510, 12.09473
645.3580, 77.16504
646.6650, 8.807617
647.9720, 10.64453
649.2780, 92.10352
650.5840, 40.83594
651.8900, 67.87598
653.1960, 41.84863
654.5020, 184.6299
655.8070, 61.04980
657.1130, 110.5889
658.4180, 105.6348
659.7220, 113.9404
661.0270, 186.6289
662.3310, 15.24805
663.6360, 75.88086
664.9400, 75.37012
666.2440, 96.99707
667.5470, 66.45801
668.8510, 112.9609
670.1540, 80.42480
671.4570, 96.57422
672.7600, 143.8721
674.0620, 141.4062
675.3650, 81.54102
676.6670, 165.1631
677.9690, 208.5762
679.2710, 174.8320
680.5720, 92.32812
681.8740, 141.8311
683.1750, 181.1152
684.4760, 209.6729
685.7770, 319.0811
687.0770, 345.3457
688.3780, 394.1787
689.6780, 527.6309
690.9780, 506.7988
692.2780, 539.7217
693.5770, 676.7637
694.8770, 486.2695
696.1760, 763.7471
697.4750, 834.7803
698.7740, 1027.951
700.0720, 968.3447
701.3710, 1130.714
702.6690, 985.2246
703.9670, 1037.445
705.2650, 1007.725
706.5620, 1025.065
707.8600, 1106.476
709.1570, 1149.744
710.4540, 1223.883
711.7510, 1098.016
713.0470, 866.7070
714.3440, 901.8643
715.6400, 740.9893
716.9360, 870.9707
718.2320, 808.9443
719.5270, 833.1729
720.8230, 918.3281
722.1180, 850.2891
723.4130, 893.5859
724.7080, 973.9297
726.0020, 959.9727
727.2970, 1006.872
728.5910, 946.7607
729.8850, 652.6367
731.1790, 771.4990
732.4720, 669.3828
733.7660, 306.3086
735.0590, 362.2686
736.3520, 323.1641
737.6450, 272.9590
738.9370, 238.1582
740.2300, 183.0049
741.5220, 99.08105
742.8140, 116.6650
744.1060, 5.666992
745.3970, 55.76855
746.6890, 17.46289
747.9800, 136.1768
749.2710, 9.811523
750.5620, 93.91406
751.8530, 135.7656
753.1430, 105.4160
754.4330, 123.5527
755.7230, 97.80664
757.0130, 113.3291
758.3030, 51.83496
759.5920, 132.3984
760.8810, 52.14453
762.1700, 20.52051
763.4590, 134.8525
764.7480, 119.0635
766.0360, 22.84570
767.3250, 60.77637
768.6130, 136.5508
769.9010, 49.50098
771.1880, 78.74121
772.4760, 59.32129
773.7630, 19.71289
775.0500, 49.37891
776.3370, 38.36035
777.6240, 20.67773
778.9100, 27.47949
780.1960, 16.36230
781.4820, 18.20312
782.7680, 9.024414
784.0540, 5.159180
785.3390, 10.21973
786.6250, 0.4726560
787.9100, 21.78809
789.1950, 1.821289
790.4790, 60.52832
791.7640, 13.58105
793.0480, 25.87598
794.3320, 7.607422
795.6160, 37.63184
796.9000, 23.95117
798.1830, 6.637695
799.4670, 53.67871
800.7500, 70.63379
802.0330, 55.55957
803.3160, 77.45410
804.5980, 114.0791
805.8800, 154.0850
807.1630, 104.3057
808.4450, 92.18848
809.7260, 106.4404
811.0080, 31.48438
812.2890, 18.30273
813.5700, 54.97363
814.8510, 53.90625
816.1320, 44.15625
817.4130, 39.81445
818.6930, 33.29395
819.9730, 38.53613
821.2530, 77.43262
822.5330, 65.18262
823.8130, 73.08789
825.0920, 170.8525
826.3710, 108.6650
827.6500, 68.51270
828.9290, 126.3369
830.2080, 29.02441
831.4860, 73.81250
832.7640, 109.5791
834.0420, 50.32715
835.3200, 46.97754
836.5980, 13.30957
837.8750, 31.36621
839.1520, 64.01953
840.4290, 97.65918
841.7060, 103.2793
842.9830, 172.8877
844.2590, 118.4795
845.5360, 14.05566
846.8120, 164.6074
848.0880, 0.1416020
849.3630, 0.6445310
850.6390, 148.1191
851.9140, 114.5771
853.1890, 61.01660
854.4640, 2.437500
855.7390, 0.1718750
857.0130, 101.1885
858.2880, 86.53320
859.5620, 71.85742
860.8360, 54.16504
862.1100, 87.45508
863.3830, 117.7246
864.6560, 23.02441
865.9300, 187.1836
867.2030, 109.3818
868.4750, 115.5586
869.7480, 226.7148
871.0200, 191.8555
872.2920, 84.97754
873.5640, 100.0820
874.8360, 144.1670
876.1080, 61.25977
877.3790, 47.33203
878.6500, 116.3848
879.9220, 196.4170
881.1920, 168.4326
882.4630, 166.4316
883.7330, 197.4131
885.0040, 140.3799
886.2740, 127.3291
887.5440, 45.74219
888.8130, 7.130859
890.0830, 209.9766
891.3520, 47.80469
892.6210, 115.6113
893.8900, 140.4004
895.1590, 126.0000
896.4270, 79.65430
897.6950, 49.39355
898.9640, 41.74805
900.2320, 22.32910
901.4990, 154.4688
902.7670, 31.22559
904.0340, 84.65234
905.3010, 131.2324
906.5680, 77.66504
907.8350, 143.1514
909.1020, 260.5107
910.3680, 146.9170
911.6340, 127.0449
912.9000, 79.48828
914.1660, 150.5908
915.4320, 148.4053
916.6970, 282.8398
917.9620, 178.1914
919.2270, 104.0068
920.4920, 206.4131
921.7570, 175.7900
923.0210, 248.7822
924.2850, 180.8848
925.5500, 199.9072
926.8130, 199.5957
928.0770, 180.5703
929.3410, 263.4824
930.6040, 185.1855
931.8670, 195.0029
933.1300, 246.5156
934.3930, 236.0586
935.6550, 420.2314
936.9180, 531.6377
938.1800, 431.7354
939.4420, 388.3828
940.7030, 194.7754
941.9650, 243.2363
943.2260, 240.0488
944.4880, 345.2129
945.7490, 211.7666
947.0090, 238.6562
948.2700, 379.0918
949.5300, 305.2969
950.7910, 278.4463
952.0510, 294.1533
953.3110, 343.5986
954.5700, 388.8809
955.8300, 386.0840
957.0890, 543.7178
958.3480, 667.7832
959.6070, 764.0791
960.8660, 817.8994
962.1240, 1053.768
963.3830, 1152.509
964.6410, 1375.018
965.8990, 1505.694
967.1560, 1391.241
968.4140, 1263.852
969.6710, 1180.432
970.9280, 1042.136
972.1850, 1001.687
973.4420, 938.3857
974.6990, 947.0225
975.9550, 956.6816
977.2110, 845.1045
978.4680, 901.4434
979.7230, 673.0693
980.9790, 715.9258
982.2340, 714.6582
983.4900, 573.2725
984.7450, 760.0225
986.0000, 494.6377
987.2540, 928.1396
988.5090, 641.1465
989.7630, 434.5176
991.0170, 698.7822
992.2710, 642.8516
993.5250, 810.9014
994.7790, 754.5977
996.0320, 692.0508
997.2850, 903.6670
998.5380, 920.8457
999.7910, 974.4990
1001.044, 755.5469
1002.296, 953.7559
1003.548, 620.0176
1004.800, 810.9785
1006.052, 774.8682
1007.304, 704.4609
1008.555, 777.9844
1009.807, 723.6543
1011.058, 800.5293
1012.309, 715.5586
1013.559, 754.4238
1014.810, 644.3105
1016.060, 728.7607
1017.310, 714.8721
1018.560, 804.5566
1019.810, 880.1182
1021.060, 858.4072
1022.309, 1036.310
1023.558, 1194.295
1024.807, 1175.010
1026.056, 1334.048
1027.305, 1275.030
1028.553, 1428.595
1029.801, 1450.082
1031.049, 1619.139
1032.297, 1752.477
1033.545, 1934.483
1034.793, 2200.807
1036.040, 2888.548
1037.287, 3362.118
1038.534, 4052.451
1039.781, 4372.818
1041.027, 4290.019
1042.274, 4018.073
1043.520, 3317.963
1044.766, 2959.978
1046.012, 2400.554
1047.257, 1981.986
1048.503, 1757.584
1049.748, 1591.479
1050.993, 1466.425
1052.238, 1207.130
1053.483, 1264.197
1054.727, 998.2178
1055.971, 946.0791
1057.216, 891.0381
1058.459, 968.1523
1059.703, 768.8574
1060.947, 877.0527
1062.190, 723.4512
1063.433, 768.6260
1064.676, 813.7129
1065.919, 813.2568
1067.162, 815.0518
1068.404, 823.8047
1069.646, 870.2676
1070.888, 819.0986
1072.130, 990.1777
1073.372, 1024.561
1074.613, 1096.592
1075.855, 1093.924
1077.096, 1189.062
1078.337, 1082.555
1079.578, 1060.696
1080.818, 1352.643
1082.059, 1293.953
1083.299, 1306.340
1084.539, 1365.237
1085.779, 1411.537
1087.018, 1437.927
1088.258, 1470.285
1089.497, 1558.404
1090.736, 1588.059
1091.975, 1617.157
1093.213, 1453.614
1094.452, 1319.199
1095.690, 1177.979
1096.928, 1134.741
1098.166, 859.6260
1099.404, 786.8145
1100.642, 653.1211
1101.879, 691.1748
1103.116, 411.9053
1104.353, 656.3018
1105.590, 342.3994
1106.827, 486.9678
1108.063, 329.2178
1109.299, 399.0361
1110.536, 209.4609
1111.771, 280.9561
1113.007, 311.1611
1114.243, 214.1514
1115.478, 233.9131
1116.713, 193.9736
1117.948, 218.8926
1119.183, 277.9453
1120.418, 360.0508
1121.652, 532.1455
1122.886, 540.3242
1124.120, 506.6025
1125.354, 545.4639
1126.588, 359.4531
1127.821, 182.0439
1129.055, 160.3164
1130.288, 17.56348
1131.521, 206.5684
1132.753, 174.7266
1133.986, 131.8564
1135.218, 29.02637
1136.450, 80.94727
1137.682, 240.7881
1138.914, 24.16797
1140.146, 59.36426
1141.377, 17.53906
1142.609, 7.554688
1143.840, 2.860352
1145.071, 2.908203
1146.301, 79.20410
1147.532, 90.76465
1148.762, 1.667969
1149.992, 64.92969
1151.222, 16.41992
1152.452, 33.82520
1153.682, 58.85645
1154.911, 97.80957
1156.140, 6.345703
1157.369, 130.6807
1158.598, 14.05664
1159.827, 7.287109
1161.055, 86.23730
1162.284, 109.4551
1163.512, 45.32910
1164.740, 10.73926
1165.967, 141.9297
1167.195, 174.5684
1168.422, 30.77441
1169.650, 120.7012
1170.877, 38.86719
1172.103, 117.4189
1173.330, 88.84180
1174.557, 9.451172
1175.783, 95.96387
1177.009, 180.4238
1178.235, 73.16992
1179.461, 7.012695
1180.686, 81.58008
1181.912, 6.536133
1183.137, 131.4912
1184.362, 155.8672
1185.587, 232.3350
1186.811, 231.9736
1188.036, 28.95020
1189.260, 198.7637
1190.484, 64.03516
1191.708, 56.19141
1192.932, 143.5947
1194.155, 128.4922
1195.378, 57.16211
1196.602, 228.6758
1197.825, 152.6045
1199.047, 121.3574
1200.270, 15.10254
1201.492, 257.8076
1202.715, 59.23633
1203.937, 223.6631
1205.159, 14.02344
1206.380, 101.3457
1207.602, 311.1709
1208.823, 148.8252
1210.044, 46.35645
1211.265, 8.750000
1212.486, 48.03906
1213.707, 59.60742
1214.927, 65.60156
1216.147, 154.5586
1217.367, 219.4844
1218.587, 220.7002
1219.807, 144.4512
1221.027, 255.6182
1222.246, 149.2334
1223.465, 192.2910
1224.684, 104.0244
1225.903, 183.7227
1227.121, 237.3955
1228.340, 136.0352
1229.558, 114.6406
1230.776, 249.2090
1231.994, 128.8252
1233.212, 105.3242
1234.429, 110.9453
1235.646, 165.4531
1236.864, 35.94531
1238.081, 166.5547
1239.297, 76.86621
1240.514, 43.15039
1241.730, 234.6221
1242.947, 245.8428
1244.163, 203.5078
1245.378, 130.1514
1246.594, 99.57129
1247.810, 156.1680
1249.025, 235.2041
1250.240, 71.25586
1251.455, 138.2598
1252.670, 35.17676
1253.885, 101.0547
1255.099, 206.8672
1256.313, 57.64551
1257.527, 19.61816
1258.741, 46.92969
1259.955, 152.7002
1261.168, 202.2920
1262.382, 13.16016
1263.595, 159.6045
1264.808, 123.0488
1266.021, 108.4521
1267.233, 105.8174
1268.446, 114.1221
1269.658, 28.37012
1270.870, 153.5713
1272.082, 78.16406
1273.294, 199.9062
1274.505, 38.93164
1275.716, 61.91797
1276.928, 50.65039
1278.139, 42.53418
1279.349, 43.36133
1280.560, 41.87207
1281.770, 59.94043
1282.981, 87.07031
1284.191, 39.68262
1285.401, 144.4893
1286.610, 7.420898
1287.820, 32.65723
1289.029, 2.776367
1290.239, 54.85449
1291.448, 13.48633
1292.656, 90.43848
1293.865, 24.37109
1295.073, 149.8838
1296.282, 87.62598
1297.490, 1.877930
1298.698, 28.35449
1299.906, 27.59668
1301.113, 13.90332
1302.320, 1.861328
1303.528, 98.58105
1304.735, 68.98438
1305.942, 62.89160
1307.148, 83.48633
1308.355, 157.9180
1309.561, 139.0430
1310.767, 5.273438
1311.973, 190.7168
1313.179, 48.25195
1314.384, 106.1406
1315.590, 23.64160
1316.795, 2.177734
1318.000, 127.2793
1319.205, 7.190430
1320.410, 19.24219
1321.614, 151.6367
1322.819, 75.82715
1324.023, 10.47168
1325.227, 100.9004
1326.431, 20.55273
1327.634, 256.8359
1328.838, 120.6230
1330.041, 87.52539
1331.244, 56.46680
1332.447, 188.4258
1333.650, 275.5957
1334.852, 111.4395
1336.055, 129.6914
1337.257, 61.87500
1338.459, 174.3926
1339.661, 220.8145
1340.862, 25.90820
1342.064, 142.6289
1343.265, 177.0566
1344.466, 219.3242
1345.667, 117.6973
1346.868, 344.4297
1348.068, 216.5254
1349.269, 335.0859
1350.469, 242.8516
1351.669, 94.87305
1352.869, 228.3652
1354.069, 272.5352
1355.268, 111.6914
1356.468, 258.1816
1357.667, 162.6309
1358.866, 251.3457
1360.065, 354.4727
1361.263, 240.8867
1362.462, 332.7539
1363.660, 166.8027
1364.858, 136.2754
1366.056, 190.6484
1367.254, 219.7734
1368.451, 292.9668
1369.649, 279.7148
1370.846, 312.7266
1372.043, 288.5039
1373.240, 313.8223
1374.436, 238.7852
1375.633, 198.7441
1376.829, 231.9121
1378.025, 181.4629
1379.221, 199.0020
1380.417, 190.7363
1381.613, 154.3398
1382.808, 295.5176
1384.003, 294.0957
1385.199, 165.0488
1386.393, 276.5898
1387.588, 105.2812
1388.783, 102.2910
1389.977, 148.2734
1391.171, 93.23828
1392.365, 211.0215
1393.559, 196.2285
1394.753, 199.3203
1395.946, 419.0234
1397.140, 217.2305
1398.333, 242.1562
1399.526, 350.6523
1400.719, 215.5059
1401.911, 210.1211
1403.104, 463.7559
1404.296, 325.4473
1405.488, 267.0117
1406.680, 138.2695
1407.872, 204.7930
1409.063, 267.0645
1410.255, 256.0312
1411.446, 336.0645
1412.637, 199.6250
1413.828, 227.1465
1415.018, 157.1133
1416.209, 308.6484
1417.399, 229.2832
1418.589, 408.6875
1419.779, 157.7383
1420.969, 391.9844
1422.159, 271.7363
1423.348, 387.8750
1424.537, 318.0059
1425.726, 284.0137
1426.915, 286.9434
1428.104, 238.8047
1429.293, 284.2051
1430.481, 275.9336
1431.669, 277.2559
1432.857, 304.2656
1434.045, 351.8203
1435.233, 380.0078
1436.420, 377.7988
1437.608, 350.7500
1438.795, 372.5293
1439.982, 264.5547
1441.169, 283.9961
1442.355, 419.7832
1443.542, 271.1387
1444.728, 310.0000
1445.914, 536.5938
1447.100, 229.1289
1448.286, 309.5938
1449.472, 293.8574
1450.657, 224.9180
1451.842, 323.8750
1453.027, 368.6328
1454.212, 387.3633
1455.397, 475.4570
1456.581, 404.7695
1457.766, 174.5898
1458.950, 453.2793
1460.134, 362.1582
1461.318, 353.1035
1462.501, 509.0098
1463.685, 212.8828
1464.868, 289.0957
1466.051, 401.0000
1467.234, 215.9160
1468.417, 437.9590
1469.600, 270.7930
1470.782, 420.9766
1471.965, 403.9238
1473.147, 533.2871
1474.329, 266.7109
1475.510, 386.3926
1476.692, 295.1035
1477.873, 336.8535
1479.055, 255.6406
1480.236, 332.4414
1481.416, 266.2617
1482.597, 312.1035
1483.778, 329.9688
1484.958, 233.8633
1486.138, 214.7812
1487.318, 182.7480
1488.498, 135.7949
1489.678, 124.8027
1490.857, 228.3379
1492.037, 137.8027
1493.216, 225.3887
1494.395, 346.1387
1495.574, 355.0391
1496.752, 215.1094
1497.931, 317.3535
1499.109, 71.76172
1500.287, 288.3340
1501.465, 87.08594
1502.643, 106.0488
1503.820, 62.24805
1504.998, 36.72461
1506.175, 79.73438
1507.352, 183.5820
1508.529, 168.7363
1509.706, 199.2422
1510.882, 248.4648
1512.059, 13.61133
1513.235, 195.6465
1514.411, 237.5508
1515.587, 138.4102
1516.762, 493.0742
1517.938, 219.7988
1519.113, 0.6328130
1520.288, 286.7363
1521.463, 0.0000000E+00
##END=



