##NAMES=Natrolite
##RRUFFID=R050589
##IDEAL CHEMISTRY=Na_2_(Si_3_Al_2_)O_10_&#183;2H_2_O
##LOCALITY=Mont Saint-Hilaire, Rouville County, Quebec, Canada
##OWNER=RRUFF
##SOURCE=Bob Downs
##DESCRIPTION=White to colorless prismatic crystals associated with aegirine
##STATUS=The identification of this mineral has been confirmed by X-ray diffraction and chemical analysis
##URL=rruff.info/R050589
##MEASURED CHEMISTRY=Na_2.00_(Si_3.00_Al_2.00_)O_10_Â·2H_2_O
130.1667, 0.0000000E+00
130.6488, 2.615631
131.1310, 1.477081
131.6131, 1.025726
132.0952, 1.107010
132.5773, 1.462067
133.0594, 6.435577
133.5415, 13.08765
134.0237, 21.34705
134.5058, 31.09149
134.9879, 41.04965
135.4700, 51.02475
135.9521, 61.02887
136.4343, 71.84286
136.9164, 83.68881
137.3985, 95.39297
137.8806, 105.9370
138.3627, 115.1852
138.8448, 124.5354
139.3270, 134.0321
139.8091, 143.8822
140.2912, 155.6764
140.7733, 169.8619
141.2554, 185.3708
141.7375, 201.3773
142.2197, 218.9641
142.7018, 234.6163
143.1839, 247.8727
143.6660, 258.7716
144.1481, 266.0123
144.6302, 268.8488
145.1124, 268.5637
145.5945, 266.6083
146.0766, 262.5714
146.5587, 257.4125
147.0408, 251.0424
147.5230, 242.8979
148.0051, 235.5414
148.4872, 225.9042
148.9693, 214.3239
149.4514, 205.8262
149.9335, 200.8873
150.4157, 198.2914
150.8978, 197.6601
151.3799, 198.5983
151.8620, 202.1296
152.3441, 208.5374
152.8262, 217.4175
153.3084, 227.9488
153.7905, 240.4304
154.2726, 254.1396
154.7547, 268.8277
155.2368, 282.9206
155.7189, 300.1777
156.2011, 321.9912
156.6832, 347.3216
157.1653, 373.1661
157.6474, 399.1589
158.1295, 425.3707
158.6116, 452.0375
159.0938, 481.5382
159.5759, 508.2625
160.0580, 532.4180
160.5401, 553.1992
161.0222, 567.6511
161.5044, 576.1319
161.9865, 577.3773
162.4686, 570.4733
162.9507, 553.2403
163.4328, 530.2169
163.9149, 501.5958
164.3971, 467.8650
164.8792, 432.6844
165.3613, 395.3961
165.8434, 358.4013
166.3255, 323.7211
166.8076, 291.3780
167.2898, 262.4680
167.7719, 237.6828
168.2540, 216.8428
168.7361, 198.6403
169.2182, 182.6500
169.7003, 168.7220
170.1825, 156.6820
170.6646, 146.9892
171.1467, 138.7884
171.6288, 131.6194
172.1109, 125.5061
172.5931, 119.5078
173.0752, 113.0302
173.5573, 106.2193
174.0394, 99.28177
174.5215, 92.43994
175.0036, 85.48132
175.4858, 78.01733
175.9679, 69.94531
176.4500, 62.41492
176.9321, 56.07825
177.4142, 50.89441
177.8963, 46.88510
178.3785, 44.17871
178.8606, 42.52676
179.3427, 41.81732
179.8248, 42.25497
180.3069, 43.69247
180.7890, 46.30331
181.2712, 49.96924
181.7533, 53.89316
182.2354, 58.23520
182.7175, 62.81381
183.1996, 67.26169
183.6818, 71.96307
184.1639, 76.09561
184.6460, 78.89517
185.1281, 80.36749
185.6102, 80.61551
186.0923, 80.01157
186.5745, 78.25754
187.0566, 74.16263
187.5387, 67.42554
188.0208, 58.97275
188.5029, 50.62759
188.9850, 42.48218
189.4672, 35.29785
189.9493, 29.43237
190.4314, 24.83481
190.9135, 20.91376
191.3956, 17.51811
191.8777, 15.14529
192.3599, 14.74086
192.8420, 16.30238
193.3241, 18.37820
193.8062, 20.18050
194.2883, 21.77383
194.7704, 23.85101
195.2526, 26.42699
195.7347, 29.41634
196.2168, 32.76669
196.6989, 36.50110
197.1810, 40.47400
197.6632, 44.62704
198.1453, 48.97876
198.6274, 53.32498
199.1095, 57.60030
199.5916, 61.96109
200.0737, 66.57826
200.5559, 71.42583
201.0380, 76.74728
201.5201, 82.80653
202.0022, 89.72379
202.4843, 96.67892
202.9664, 103.7028
203.4486, 110.6740
203.9307, 117.6934
204.4128, 125.0927
204.8949, 131.0328
205.3770, 134.4269
205.8591, 135.1232
206.3413, 134.4406
206.8234, 132.5184
207.3055, 129.2019
207.7876, 123.7426
208.2697, 115.6212
208.7519, 107.0195
209.2340, 99.05972
209.7161, 91.91968
210.1982, 84.35855
210.6803, 75.84923
211.1624, 67.13814
211.6446, 60.30597
212.1267, 55.69659
212.6088, 52.27136
213.0909, 49.63264
213.5730, 47.99792
214.0551, 46.27162
214.5373, 44.17648
215.0194, 42.06314
215.5015, 40.98222
215.9836, 41.36697
216.4657, 41.89458
216.9478, 41.77319
217.4300, 40.62212
217.9121, 40.11258
218.3942, 40.67732
218.8763, 41.80086
219.3584, 41.91095
219.8405, 40.60492
220.3227, 39.01315
220.8048, 37.73787
221.2869, 36.98613
221.7690, 35.93698
222.2511, 34.69530
222.7333, 33.10497
223.2154, 30.73579
223.6975, 27.31873
224.1796, 23.52892
224.6617, 19.56488
225.1438, 15.11662
225.6260, 11.40260
226.1081, 8.772934
226.5902, 6.828827
227.0723, 4.483337
227.5544, 1.326355
228.0365, 1.631744
228.5187, 3.942413
229.0008, 5.530106
229.4829, 6.629822
229.9650, 7.095261
230.4471, 7.135391
230.9292, 7.368439
231.4114, 8.170837
231.8935, 8.618668
232.3756, 8.225235
232.8577, 6.527374
233.3398, 5.124405
233.8220, 4.178802
234.3041, 3.476822
234.7862, 2.541809
235.2683, 1.507568
235.7504, 3.6835000E-02
236.2325, 2.110687
236.7147, 5.258774
237.1968, 8.196869
237.6789, 10.86766
238.1610, 13.35838
238.6431, 15.90950
239.1252, 18.89310
239.6074, 21.41528
240.0895, 23.21715
240.5716, 24.43666
241.0537, 24.49518
241.5358, 23.12506
242.0179, 20.72343
242.5001, 17.99806
242.9822, 14.72513
243.4643, 11.47650
243.9464, 8.424362
244.4285, 5.533218
244.9106, 2.892715
245.3928, 0.4284360
245.8749, 1.772369
246.3570, 3.548965
246.8391, 4.826492
247.3212, 5.815506
247.8034, 6.559067
248.2855, 7.027145
248.7676, 7.394943
249.2497, 7.704880
249.7318, 7.888443
250.2139, 7.824280
250.6961, 7.411957
251.1782, 6.931702
251.6603, 6.502838
252.1424, 6.182861
252.6245, 5.518646
253.1066, 4.323685
253.5888, 2.946350
254.0709, 1.842850
254.5530, 1.138000
255.0351, 0.4519350
255.5172, 0.2915950
255.9993, 1.089890
256.4815, 1.966385
256.9636, 2.849289
257.4457, 3.878876
257.9278, 5.296906
258.4099, 7.381653
258.8921, 9.212219
259.3742, 10.49895
259.8563, 11.22247
260.3384, 12.18747
260.8205, 13.41913
261.3026, 14.85039
261.7848, 16.46266
262.2669, 18.31721
262.7490, 20.16011
263.2311, 21.95174
263.7132, 23.69362
264.1953, 25.26715
264.6775, 26.56555
265.1596, 27.85324
265.6417, 29.42603
266.1238, 31.43553
266.6059, 33.15996
267.0880, 34.31163
267.5702, 35.03731
268.0523, 36.38583
268.5344, 38.66771
269.0165, 40.96181
269.4986, 42.40672
269.9807, 42.67572
270.4629, 43.67303
270.9450, 45.91579
271.4271, 49.00711
271.9092, 51.21533
272.3913, 52.31671
272.8734, 53.16772
273.3556, 54.52489
273.8377, 56.59483
274.3198, 57.66693
274.8019, 57.35486
275.2840, 56.11484
275.7661, 55.19205
276.2483, 54.65762
276.7304, 54.15041
277.2125, 53.53931
277.6946, 52.83414
278.1768, 51.80893
278.6589, 50.36188
279.1410, 48.70926
279.6231, 47.29057
280.1052, 46.11255
280.5873, 45.02393
281.0695, 43.88870
281.5516, 42.70590
282.0337, 41.87495
282.5158, 41.41313
282.9979, 41.28966
283.4800, 41.43234
283.9622, 41.83434
284.4443, 42.61838
284.9264, 44.04916
285.4085, 46.01317
285.8906, 47.49681
286.3727, 48.34372
286.8549, 48.96478
287.3370, 49.92885
287.8191, 51.25934
288.3012, 52.68138
288.7833, 54.14473
289.2654, 55.54922
289.7476, 56.71544
290.2297, 57.69427
290.7118, 58.59805
291.1939, 59.47031
291.6760, 60.25987
292.1581, 60.84973
292.6403, 61.16905
293.1224, 61.32295
293.6045, 61.49596
294.0866, 61.64021
294.5687, 61.92245
295.0508, 62.45123
295.5330, 63.23782
296.0151, 64.33450
296.4972, 65.85774
296.9793, 67.59241
297.4614, 68.90990
297.9435, 69.91377
298.4257, 71.41905
298.9078, 74.26035
299.3899, 78.01482
299.8720, 81.64996
300.3541, 84.89099
300.8362, 88.25323
301.3184, 92.50163
301.8005, 97.49951
302.2826, 102.5336
302.7647, 107.3152
303.2469, 111.7603
303.7290, 116.0703
304.2111, 120.4175
304.6932, 124.0234
305.1753, 126.5790
305.6574, 127.8112
306.1396, 126.9179
306.6217, 122.8847
307.1038, 116.8486
307.5859, 109.8383
308.0680, 101.8553
308.5501, 93.27864
309.0323, 83.73199
309.5144, 73.85321
309.9965, 64.69034
310.4786, 56.26646
310.9607, 48.98364
311.4428, 43.05588
311.9250, 38.48885
312.4071, 32.56476
312.8892, 31.33539
313.3713, 29.80075
313.8534, 27.97942
314.3355, 24.89392
314.8177, 22.79823
315.2998, 23.54501
315.7819, 23.98624
316.2640, 24.14742
316.7461, 23.03682
317.2282, 23.62556
317.7104, 23.55272
318.1925, 23.46913
318.6746, 24.34152
319.1567, 23.50856
319.6388, 24.39702
320.1209, 25.16521
320.6031, 26.53065
321.0852, 28.63689
321.5673, 31.90303
322.0494, 37.62413
322.5315, 41.62555
323.0136, 41.54144
323.4958, 39.51013
323.9779, 38.97334
324.4600, 41.42253
324.9421, 44.38506
325.4242, 47.02759
325.9064, 49.29852
326.3885, 52.02238
326.8706, 55.76025
327.3527, 59.77959
327.8348, 63.35553
328.3170, 65.60583
328.7991, 68.30617
329.2812, 72.22136
329.7633, 77.41745
330.2454, 80.84671
330.7275, 81.70633
331.2097, 81.47629
331.6918, 81.15179
332.1739, 80.92569
332.6560, 80.16263
333.1381, 78.82596
333.6202, 76.93004
334.1024, 74.42188
334.5845, 70.88823
335.0666, 67.35335
335.5487, 64.36243
336.0308, 62.08900
336.5129, 60.01364
336.9951, 58.11185
337.4772, 56.43048
337.9593, 54.95201
338.4414, 53.65286
338.9235, 52.68999
339.4056, 52.13014
339.8878, 51.98569
340.3699, 52.20119
340.8520, 52.86012
341.3341, 53.73193
341.8162, 54.58910
342.2983, 55.43048
342.7805, 56.14845
343.2626, 56.54715
343.7447, 56.77632
344.2268, 57.77478
344.7089, 59.67845
345.1910, 61.57982
345.6732, 62.39331
346.1553, 62.28967
346.6374, 62.62804
347.1195, 63.85147
347.6016, 65.47534
348.0837, 66.48784
348.5659, 66.92952
349.0480, 67.29524
349.5301, 67.70363
350.0122, 68.30077
350.4944, 69.58386
350.9765, 71.77271
351.4586, 74.11172
351.9407, 75.45047
352.4228, 76.08627
352.9049, 76.99834
353.3871, 78.87869
353.8692, 81.24146
354.3513, 83.46790
354.8334, 85.52075
355.3155, 87.55087
355.7976, 89.98106
356.2798, 92.43066
356.7619, 94.31776
357.2440, 95.23859
357.7261, 95.62297
358.2082, 95.79311
358.6903, 95.71407
359.1725, 95.16545
359.6546, 94.29567
360.1367, 92.76466
360.6188, 90.21800
361.1009, 86.21638
361.5830, 81.79660
362.0652, 77.27968
362.5473, 72.67601
363.0294, 68.00807
363.5115, 63.24284
363.9936, 58.43378
364.4757, 53.57114
364.9579, 48.44580
365.4400, 43.81999
365.9221, 39.76732
366.4042, 36.29015
366.8863, 33.39104
367.3684, 31.64966
367.8506, 29.90456
368.3327, 27.88077
368.8148, 25.56076
369.2969, 23.20767
369.7790, 20.30605
370.2611, 17.72165
370.7433, 16.10443
371.2254, 16.37852
371.7075, 16.17377
372.1896, 15.11925
372.6717, 13.42406
373.1538, 12.00505
373.6360, 11.05461
374.1181, 10.06398
374.6002, 8.749268
375.0823, 6.932678
375.5645, 5.405838
376.0466, 4.236115
376.5287, 3.297852
377.0108, 2.363693
377.4929, 1.405685
377.9750, 0.6633610
378.4572, 0.3010100
378.9393, 0.2681430
379.4214, 0.1210480
379.9035, 0.1233220
380.3856, 0.5475460
380.8677, 1.592636
381.3499, 3.149246
381.8320, 3.616501
382.3141, 2.202271
382.7962, 1.7960001E-02
383.2783, 0.5378270
383.7604, 0.4679260
384.2426, 1.789413
384.7247, 2.789749
385.2068, 3.482666
385.6889, 3.923874
386.1710, 4.107269
386.6531, 4.082550
387.1353, 3.710114
387.6174, 3.149277
388.0995, 2.808685
388.5816, 3.156693
389.0637, 3.647568
389.5458, 3.678543
390.0280, 3.245056
390.5101, 2.752274
390.9922, 2.516479
391.4743, 2.348557
391.9564, 2.023758
392.4385, 1.340897
392.9207, 0.6539000
393.4028, 0.1869660
393.8849, 0.1240080
394.3670, 0.4766540
394.8491, 0.7719570
395.3312, 1.248642
395.8134, 2.066330
396.2955, 3.333191
396.7776, 4.695343
397.2597, 6.132736
397.7418, 7.587601
398.2239, 8.998123
398.7061, 10.51914
399.1882, 11.81429
399.6703, 12.63365
400.1524, 12.94186
400.6346, 13.71483
401.1167, 15.22821
401.5988, 16.95526
402.0809, 18.51736
402.5630, 19.65079
403.0451, 21.14204
403.5273, 23.05997
404.0094, 25.34685
404.4915, 27.90471
404.9736, 30.93985
405.4557, 33.74620
405.9378, 35.85825
406.4200, 37.15994
406.9021, 39.26558
407.3842, 42.32976
407.8663, 45.75319
408.3484, 48.75262
408.8305, 51.33426
409.3127, 54.02377
409.7948, 57.05112
410.2769, 60.23392
410.7590, 63.14171
411.2411, 65.79604
411.7232, 67.90599
412.2054, 69.17197
412.6875, 69.74869
413.1696, 70.02238
413.6517, 70.06973
414.1338, 69.81143
414.6159, 68.99869
415.0981, 67.77837
415.5802, 66.55559
416.0623, 65.71307
416.5444, 64.85748
417.0265, 63.43626
417.5086, 61.43167
417.9908, 59.68364
418.4729, 58.84413
418.9550, 58.49817
419.4371, 58.18774
419.9192, 57.24590
420.4013, 56.96896
420.8835, 58.11856
421.3656, 60.38898
421.8477, 62.90080
422.3298, 65.03636
422.8119, 67.61253
423.2940, 70.97571
423.7762, 75.06195
424.2583, 80.15390
424.7404, 86.62564
425.2225, 93.92274
425.7047, 101.5932
426.1868, 109.7155
426.6689, 117.9888
427.1510, 126.3999
427.6331, 134.9365
428.1152, 143.7958
428.5974, 153.0484
429.0795, 162.6974
429.5616, 172.9177
430.0437, 183.7822
430.5258, 194.6393
431.0079, 205.1137
431.4901, 215.8915
431.9722, 228.1346
432.4543, 241.7956
432.9364, 256.8193
433.4185, 272.9745
433.9006, 290.2872
434.3828, 308.5603
434.8649, 327.7683
435.3470, 348.1367
435.8291, 370.2296
436.3112, 393.8181
436.7933, 417.8668
437.2755, 442.6596
437.7576, 467.0786
438.2397, 489.8716
438.7218, 510.8634
439.2039, 529.5352
439.6860, 546.9359
440.1682, 561.4939
440.6503, 571.8274
441.1324, 577.9645
441.6145, 577.8237
442.0966, 570.0104
442.5787, 555.3326
443.0609, 534.6206
443.5430, 504.7467
444.0251, 472.4813
444.5072, 438.8228
444.9893, 404.4149
445.4714, 371.1546
445.9536, 338.4047
446.4357, 307.4323
446.9178, 278.7917
447.3999, 252.5867
447.8820, 228.6404
448.3641, 207.3476
448.8463, 187.9358
449.3284, 169.2081
449.8105, 150.8187
450.2926, 134.1336
450.7747, 119.3646
451.2569, 106.4242
451.7390, 95.44502
452.2211, 86.72791
452.7032, 78.92751
453.1853, 70.84204
453.6674, 62.22643
454.1496, 56.80145
454.6317, 55.52881
455.1138, 55.21413
455.5959, 50.65382
456.0780, 42.23074
456.5602, 34.67288
457.0423, 29.82816
457.5244, 26.78287
458.0065, 23.85237
458.4886, 21.06406
458.9707, 18.41803
459.4529, 15.99608
459.9350, 13.71179
460.4171, 11.49161
460.8992, 9.266846
461.3813, 7.196442
461.8634, 5.435608
462.3456, 3.896896
462.8277, 2.465775
463.3098, 0.8311310
463.7919, 0.4980470
464.2740, 1.138168
464.7561, 1.130737
465.2383, 1.125000
465.7204, 1.466660
466.2025, 1.774429
466.6846, 1.786148
467.1667, 1.092133
467.6488, 0.7297670
468.1310, 1.092606
468.6131, 1.726486
469.0952, 1.899277
469.5773, 1.397202
470.0594, 0.7833860
470.5415, 0.2270050
471.0237, 0.2835390
471.5058, 1.138351
471.9879, 2.388733
472.4700, 3.879166
472.9521, 5.623749
473.4342, 7.667313
473.9164, 9.170990
474.3985, 9.923950
474.8806, 10.42740
475.3627, 11.56114
475.8448, 13.27348
476.3270, 15.03354
476.8091, 16.50824
477.2912, 17.90457
477.7733, 19.75493
478.2554, 22.02031
478.7375, 24.11145
479.2197, 25.26427
479.7018, 26.08441
480.1839, 27.43932
480.6660, 29.64301
481.1481, 31.97566
481.6302, 34.26440
482.1124, 36.31720
482.5945, 37.80873
483.0766, 38.23703
483.5587, 38.43314
484.0408, 38.69275
484.5229, 39.02837
485.0051, 39.40721
485.4872, 39.67340
485.9693, 40.08958
486.4514, 40.88464
486.9335, 43.08426
487.4156, 43.82259
487.8978, 41.99136
488.3799, 39.29315
488.8620, 38.53661
489.3441, 40.61691
489.8262, 42.40359
490.3083, 42.96609
490.7905, 42.51962
491.2726, 42.67502
491.7547, 43.52736
492.2368, 44.52585
492.7189, 45.24028
493.2010, 45.72171
493.6832, 46.20026
494.1653, 46.66092
494.6474, 47.27597
495.1295, 48.37138
495.6116, 49.82248
496.0938, 51.25839
496.5759, 52.47144
497.0580, 53.64958
497.5401, 54.99634
498.0222, 56.49063
498.5044, 57.95784
498.9865, 58.98993
499.4686, 60.17169
499.9507, 62.11238
500.4328, 65.15512
500.9149, 67.95139
501.3971, 69.53836
501.8792, 70.85422
502.3613, 72.98132
502.8434, 76.83287
503.3255, 80.70480
503.8076, 84.36163
504.2898, 87.82425
504.7719, 91.16574
505.2540, 94.13416
505.7361, 97.32478
506.2182, 100.9969
506.7003, 105.1417
507.1825, 109.7881
507.6646, 115.0894
508.1467, 120.5642
508.6288, 125.5571
509.1109, 130.0739
509.5930, 135.0128
510.0752, 140.5700
510.5573, 146.6287
511.0394, 152.8476
511.5215, 159.3129
512.0037, 166.5114
512.4858, 175.1426
512.9679, 184.4476
513.4500, 193.2379
513.9321, 201.4971
514.4142, 210.1384
514.8964, 219.5442
515.3785, 229.8502
515.8606, 241.0180
516.3427, 252.9131
516.8248, 265.9146
517.3069, 280.4442
517.7891, 296.2065
518.2712, 312.6667
518.7533, 329.3546
519.2354, 346.8071
519.7175, 365.2252
520.1996, 384.6830
520.6818, 404.2778
521.1639, 423.3813
521.6460, 443.3359
522.1281, 464.7037
522.6102, 487.6894
523.0923, 511.6093
523.5745, 536.0859
524.0566, 562.3026
524.5387, 592.2702
525.0208, 626.0920
525.5029, 661.4026
525.9850, 697.5306
526.4672, 734.7350
526.9493, 774.9515
527.4314, 818.2674
527.9135, 861.6648
528.3956, 904.5860
528.8777, 946.9979
529.3599, 988.9047
529.8420, 1030.846
530.3241, 1069.751
530.8062, 1107.145
531.2883, 1139.660
531.7704, 1162.898
532.2526, 1178.340
532.7347, 1181.821
533.2168, 1172.735
533.6989, 1150.924
534.1810, 1115.776
534.6631, 1062.012
535.1453, 999.7440
535.6274, 930.9742
536.1095, 854.6080
536.5916, 780.2142
537.0737, 705.8045
537.5558, 635.1683
538.0380, 570.8124
538.5201, 512.3453
539.0022, 458.7256
539.4843, 410.5131
539.9664, 367.0963
540.4485, 329.2367
540.9307, 296.8304
541.4128, 267.7190
541.8949, 241.6462
542.3770, 218.5246
542.8591, 198.2313
543.3412, 180.8100
543.8234, 165.0171
544.3055, 150.3086
544.7876, 136.7617
545.2697, 124.7408
545.7518, 114.3136
546.2339, 104.8667
546.7161, 96.26656
547.1982, 88.48199
547.6803, 81.29007
548.1624, 74.99232
548.6445, 68.96344
549.1266, 62.95909
549.6088, 57.21037
550.0909, 52.21568
550.5730, 48.27513
551.0551, 44.62343
551.5372, 41.15150
552.0193, 37.83099
552.5015, 34.47047
552.9836, 30.96803
553.4657, 27.81700
553.9478, 25.44679
554.4299, 23.77773
554.9120, 22.16136
555.3942, 20.57835
555.8763, 19.02005
556.3584, 17.49712
556.8405, 15.99832
557.3226, 14.49039
557.8047, 12.80110
558.2869, 11.30643
558.7690, 10.47015
559.2511, 10.10632
559.7332, 9.759689
560.2154, 9.248749
560.6975, 8.686447
561.1796, 8.159851
561.6617, 7.682922
562.1439, 7.079071
562.6260, 6.288177
563.1081, 5.373398
563.5902, 4.305649
564.0723, 2.729462
564.5544, 1.824524
565.0366, 1.897156
565.5187, 2.330109
566.0008, 2.263153
566.4829, 1.594833
566.9650, 0.9634250
567.4471, 0.5074770
567.9293, 0.1608890
568.4114, 0.2808530
568.8935, 0.8043210
569.3756, 1.127869
569.8577, 0.8933260
570.3398, 0.4225310
570.8220, 0.2370150
571.3041, 0.3413090
571.7862, 0.6639560
572.2683, 1.503830
572.7504, 2.361984
573.2325, 2.670624
573.7147, 2.038391
574.1968, 1.610474
574.6789, 2.154495
575.1610, 2.998703
575.6431, 3.288956
576.1252, 2.000168
576.6074, 1.249527
577.0895, 1.666672
577.5716, 2.840195
578.0537, 3.167725
578.5358, 2.317627
579.0179, 1.386063
579.5001, 0.7683720
579.9822, 0.4534910
580.4643, 0.3856660
580.9464, 0.6105500
581.4285, 0.8011780
581.9106, 0.7676540
582.3928, 0.4769440
582.8749, 0.3399050
583.3570, 1.870178
583.8391, 3.187195
584.3212, 3.190948
584.8033, 2.392120
585.2855, 1.662888
585.7676, 1.084869
586.2497, 0.9187160
586.7318, 1.641342
587.2139, 2.908005
587.6960, 3.731567
588.1782, 3.233246
588.6603, 2.865692
589.1424, 3.287811
589.6245, 4.553802
590.1066, 5.227570
590.5887, 3.047653
591.0709, 4.364899
591.5530, 5.213486
592.0351, 5.616928
592.5172, 4.240051
592.9993, 5.156662
593.4814, 5.151215
593.9636, 5.107346
594.4457, 6.344437
594.9278, 5.219788
595.4099, 6.435379
595.8920, 6.715912
596.3741, 7.541962
596.8563, 7.831406
597.3384, 7.995193
597.8205, 7.839859
598.3026, 7.606232
598.7847, 7.440079
599.2668, 7.338593
599.7490, 7.240540
600.2311, 7.380554
600.7132, 7.311798
601.1953, 6.658600
601.6774, 5.038315
602.1595, 4.160751
602.6417, 4.421295
603.1238, 4.935822
603.6059, 4.787872
604.0880, 3.774490
604.5701, 3.345078
605.0522, 3.862137
605.5344, 4.645554
606.0165, 4.460709
606.4986, 3.437820
606.9807, 2.378174
607.4628, 1.527069
607.9449, 0.8659820
608.4271, 0.4251710
608.9092, 0.1771240
609.3913, 2.9724000E-02
609.8735, 0.1076660
610.3556, 0.1351780
610.8377, 0.1927800
611.3198, 0.9098820
611.8019, 1.341705
612.2841, 1.000580
612.7662, 0.5438840
613.2483, 0.4196010
613.7304, 0.8866420
614.2125, 1.111786
614.6946, 1.044464
615.1768, 0.7994840
615.6589, 0.4859920
616.1410, 8.9752004E-02
616.6231, 0.2697300
617.1052, 0.5632170
617.5873, 0.8219300
618.0695, 1.146484
618.5516, 1.509384
619.0337, 1.742676
619.5158, 1.628250
619.9979, 1.439041
620.4800, 1.575638
620.9622, 1.972610
621.4443, 2.284592
621.9264, 2.274628
622.4085, 2.165695
622.8906, 2.088699
623.3727, 2.062698
623.8549, 2.021942
624.3370, 1.897537
624.8191, 1.790039
625.3012, 1.764160
625.7833, 1.829056
626.2654, 1.924438
626.7476, 2.043137
627.2297, 2.188339
627.7118, 2.438354
628.1939, 2.809097
628.6760, 2.967346
629.1581, 2.758133
629.6403, 2.406433
630.1224, 2.210831
630.6045, 2.172897
631.0866, 2.331772
631.5687, 3.164825
632.0508, 3.931305
632.5330, 3.669952
633.0151, 2.575226
633.4972, 1.796448
633.9793, 2.198151
634.4614, 2.829636
634.9435, 3.161087
635.4257, 3.057800
635.9078, 2.915344
636.3899, 2.774506
636.8720, 2.692734
637.3541, 2.658707
637.8362, 2.601196
638.3184, 2.858521
638.8005, 3.530777
639.2826, 4.256500
639.7647, 4.628677
640.2468, 4.668732
640.7289, 4.378601
641.2111, 3.528168
641.6932, 2.730011
642.1753, 2.905182
642.6574, 3.733566
643.1395, 4.435623
643.6216, 4.629745
644.1038, 4.631790
644.5859, 4.476624
645.0680, 4.238815
645.5501, 4.244492
646.0322, 5.099594
646.5143, 5.681854
646.9965, 5.496506
647.4786, 4.483994
647.9607, 3.726105
648.4428, 3.227783
648.9249, 2.960022
649.4070, 2.912994
649.8892, 3.086533
650.3713, 3.462234
650.8534, 4.083862
651.3355, 4.657990
651.8176, 4.805344
652.2997, 4.680176
652.7819, 4.611435
653.2640, 4.673279
653.7461, 4.806625
654.2282, 5.024567
654.7103, 5.270432
655.1924, 5.459915
655.6746, 5.378906
656.1567, 5.452957
656.6388, 5.949692
657.1209, 6.686722
657.6030, 7.143646
658.0851, 7.196152
658.5673, 7.194778
659.0494, 7.204437
659.5316, 7.241821
660.0137, 7.541122
660.4958, 8.155792
660.9779, 8.430359
661.4600, 7.572205
661.9421, 6.125916
662.4243, 5.610794
662.9064, 6.043701
663.3885, 6.544785
663.8706, 6.233154
664.3527, 5.774384
664.8348, 5.923401
665.3170, 6.965271
665.7991, 7.799713
666.2812, 7.778915
666.7633, 7.541885
667.2454, 7.714645
667.7275, 8.724274
668.2097, 9.446045
668.6918, 9.718613
669.1739, 9.752808
669.6560, 9.897186
670.1381, 10.19925
670.6202, 10.72769
671.1024, 11.57123
671.5845, 12.43698
672.0666, 12.74785
672.5487, 12.65468
673.0308, 12.67584
673.5129, 12.91438
673.9951, 13.49737
674.4772, 14.73409
674.9593, 16.46808
675.4414, 18.01852
675.9235, 19.00861
676.4056, 19.86635
676.8878, 20.63586
677.3699, 21.28847
677.8520, 22.43312
678.3341, 24.24590
678.8162, 26.30975
679.2983, 28.45929
679.7805, 30.70528
680.2626, 32.59148
680.7447, 34.06862
681.2268, 35.36890
681.7089, 36.53987
682.1910, 37.70284
682.6732, 39.26259
683.1553, 41.38838
683.6374, 43.34196
684.1195, 44.66331
684.6016, 45.43132
685.0837, 45.75397
685.5659, 45.43904
686.0480, 44.99405
686.5301, 44.53407
687.0122, 44.00050
687.4943, 43.25890
687.9764, 41.94887
688.4586, 41.16653
688.9407, 41.04686
689.4228, 41.61705
689.9049, 43.40858
690.3870, 46.46523
690.8691, 48.35635
691.3513, 47.50049
691.8334, 45.30968
692.3155, 43.86433
692.7976, 43.16960
693.2797, 43.22832
693.7618, 44.50702
694.2440, 46.16718
694.7261, 47.69774
695.2082, 49.05746
695.6903, 50.41042
696.1724, 51.78468
696.6545, 53.18713
697.1367, 54.67961
697.6188, 56.32747
698.1009, 57.62219
698.5830, 58.57629
699.0651, 59.13509
699.5472, 58.99036
700.0294, 58.28481
700.5115, 58.35280
700.9936, 59.37447
701.4757, 60.44501
701.9578, 60.70952
702.4399, 60.39841
702.9221, 59.81311
703.4042, 58.91293
703.8863, 58.06151
704.3684, 57.60052
704.8505, 57.23459
705.3326, 56.61847
705.8148, 55.16275
706.2969, 54.20152
706.7790, 54.22234
707.2611, 54.53531
707.7432, 53.77419
708.2253, 51.72690
708.7075, 49.98439
709.1896, 49.05356
709.6718, 48.53096
710.1539, 47.50380
710.6360, 46.13383
711.1181, 45.07516
711.6002, 44.93288
712.0823, 44.94429
712.5645, 44.34918
713.0466, 43.36847
713.5287, 42.80626
714.0108, 43.45625
714.4929, 44.08041
714.9750, 44.03864
715.4572, 43.40590
715.9393, 43.15698
716.4214, 43.39598
716.9035, 43.76231
717.3856, 44.12047
717.8677, 44.47382
718.3499, 44.75664
718.8320, 44.96548
719.3141, 45.30026
719.7962, 46.12154
720.2783, 47.09792
720.7604, 47.72437
721.2426, 47.95581
721.7247, 48.02141
722.2068, 47.85640
722.6889, 47.62514
723.1710, 47.57027
723.6531, 47.88457
724.1353, 48.02460
724.6174, 47.86182
725.0995, 47.46455
725.5816, 47.10754
726.0637, 46.91138
726.5458, 46.02463
727.0280, 44.22588
727.5101, 42.22160
727.9922, 41.06815
728.4743, 40.43187
728.9564, 39.28856
729.4385, 37.30577
729.9207, 35.06847
730.4028, 32.85909
730.8849, 30.74469
731.3670, 28.85471
731.8491, 27.57176
732.3312, 26.09868
732.8134, 24.03067
733.2955, 21.76027
733.7776, 19.97894
734.2597, 18.85446
734.7418, 17.68306
735.2239, 16.29678
735.7061, 14.82333
736.1882, 13.53920
736.6703, 12.42778
737.1524, 11.41519
737.6345, 10.46796
738.1166, 9.593994
738.5988, 8.763275
739.0809, 8.006912
739.5630, 7.418152
740.0451, 7.267242
740.5272, 7.056564
741.0093, 6.474457
741.4915, 5.604691
741.9736, 5.050842
742.4557, 5.015488
742.9378, 4.892532
743.4199, 4.404648
743.9020, 3.640564
744.3842, 3.148560
744.8663, 2.921143
745.3484, 2.778610
745.8305, 2.717514
746.3126, 2.618622
746.7947, 2.157257
747.2769, 1.399384
747.7590, 0.9285280
748.2411, 1.447571
748.7232, 2.035950
749.2053, 2.130051
749.6874, 1.628525
750.1696, 1.085861
750.6517, 0.3456270
751.1338, 0.1943210
751.6159, 0.2341920
752.0980, 0.2515110
752.5801, 0.5243070
753.0623, 0.5626370
753.5444, 0.5465550
754.0265, 0.6773990
754.5086, 0.8458100
754.9907, 0.7576140
755.4728, 0.3621830
755.9550, 0.1341250
756.4371, 0.6641390
756.9192, 1.299438
757.4013, 1.500229
757.8835, 1.050415
758.3656, 0.5188140
758.8477, 0.2515260
759.3298, 0.8882290
759.8120, 1.066452
760.2941, 0.7354740
760.7762, 0.2774350
761.2583, 0.3497920
761.7404, 0.8629150
762.2225, 0.8485260
762.7047, 0.4966130
763.1868, 0.2561950
763.6689, 0.2472690
764.1510, 0.2039340
764.6331, 0.1964110
765.1152, 0.6569060
765.5974, 0.8554230
766.0795, 0.5561370
766.5616, 0.2572940
767.0437, 0.1226960
767.5258, 0.3893280
768.0079, 0.1917420
768.4901, 0.5855710
768.9722, 0.8264160
769.4543, 0.2487790
769.9364, 0.4892430
770.4185, 0.3838810
770.9006, 0.2807310
771.3828, 0.7716520
771.8649, 0.8469850
772.3470, 0.7723690
772.8291, 0.7389830
773.3112, 0.6543270
773.7933, 0.3903200
774.2755, 0.4812160
774.7576, 1.002731
775.2397, 1.000641
775.7218, 0.6931460
776.2039, 0.3970490
776.6860, 0.1125490
777.1682, 0.1437840
777.6503, 0.3662870
778.1324, 0.5638120
778.6145, 0.8689270
779.0966, 1.164139
779.5787, 1.097839
780.0609, 0.1248630
780.5430, 0.6250610
781.0251, 6.1050002E-02
781.5072, 1.117172
781.9893, 1.627121
782.4714, 0.4330900
782.9536, 0.4011230
783.4357, 0.5369870
783.9178, 0.2623440
784.3999, 0.1592560
784.8820, 0.2418980
785.3641, 0.3088990
785.8463, 0.2963410
786.3284, 0.2558440
786.8105, 0.2472530
787.2926, 0.2762760
787.7747, 0.3613590
788.2568, 0.5828700
788.7390, 0.7792510
789.2211, 0.8328090
789.7032, 0.8011780
790.1853, 0.8352810
790.6674, 1.088745
791.1495, 1.163864
791.6317, 0.9071810
792.1138, 0.4920350
792.5959, 0.3360750
793.0780, 0.4392240
793.5601, 0.7448880
794.0422, 1.418060
794.5244, 2.032745
795.0065, 1.840332
795.4886, 1.125412
795.9707, 0.5735170
796.4528, 0.5413060
796.9349, 0.6531520
797.4171, 0.7754820
797.8992, 0.9331820
798.3813, 1.197449
798.8634, 1.648087
799.3455, 2.044525
799.8276, 2.383896
800.3098, 2.584991
800.7919, 2.273422
801.2740, 1.525543
801.7561, 1.113632
802.2382, 1.448807
802.7203, 2.107468
803.2025, 2.920486
803.6846, 3.694946
804.1667, 4.003510
804.6488, 3.119812
805.1309, 2.388062
805.6130, 2.271484
806.0952, 2.572586
806.5773, 2.934189
807.0594, 3.409027
807.5416, 3.754486
808.0237, 3.878143
808.5058, 3.879898
808.9879, 4.047516
809.4700, 4.305725
809.9521, 4.312454
810.4343, 3.768814
810.9164, 3.109055
811.3985, 2.542923
811.8806, 2.118942
812.3627, 1.939758
812.8448, 2.246414
813.3270, 2.531250
813.8091, 2.633545
814.2912, 2.699905
814.7733, 3.118759
815.2554, 3.943481
815.7375, 4.543365
816.2197, 4.695877
816.7018, 4.631210
817.1839, 4.738998
817.6660, 4.931976
818.1481, 4.991165
818.6302, 4.654846
819.1124, 4.360840
819.5945, 4.007126
820.0766, 3.890625
820.5587, 5.067245
821.0408, 5.772354
821.5229, 6.032181
822.0051, 4.513016
822.4872, 5.285049
822.9693, 5.119598
823.4514, 4.905319
823.9335, 5.986481
824.4156, 3.646454
824.8978, 4.774719
825.3799, 5.433517
825.8620, 5.646179
826.3441, 4.059235
826.8262, 4.757263
827.3083, 4.561417
827.7905, 4.335846
828.2726, 5.391068
828.7547, 4.075562
829.2368, 5.077866
829.7189, 5.141800
830.2010, 4.817612
830.6832, 4.460861
831.1653, 4.646149
831.6474, 5.169586
832.1295, 5.444199
832.6116, 5.259232
833.0938, 4.919479
833.5759, 4.427887
834.0580, 3.985474
834.5401, 3.824768
835.0222, 4.450729
835.5043, 4.582138
835.9865, 3.934525
836.4686, 3.137070
836.9507, 2.977158
837.4328, 3.446960
837.9149, 3.724670
838.3970, 3.641190
838.8792, 3.497803
839.3613, 3.477051
839.8434, 3.579102
840.3255, 3.967300
840.8076, 4.741043
841.2897, 5.154816
841.7719, 4.486252
842.2540, 3.716690
842.7361, 3.651321
843.2182, 4.605682
843.7003, 4.930786
844.1824, 4.489929
844.6646, 3.352158
845.1467, 4.419220
845.6288, 5.014679
846.1109, 5.164703
846.5930, 3.542191
847.0751, 4.228409
847.5573, 3.995209
848.0394, 3.714142
848.5215, 4.708405
849.0036, 3.351593
849.4857, 4.346893
849.9678, 4.142685
850.4500, 4.367523
850.9321, 4.278931
851.4142, 3.919540
851.8963, 3.628983
852.3784, 3.414124
852.8605, 3.506912
853.3427, 4.462067
853.8248, 5.513367
854.3069, 5.853439
854.7890, 5.510269
855.2711, 5.020844
855.7532, 4.155258
856.2354, 3.570633
856.7175, 3.634781
857.1996, 4.242676
857.6818, 4.503662
858.1639, 3.188995
858.6460, 4.299698
859.1281, 4.937866
859.6102, 5.138870
860.0923, 3.578598
860.5745, 4.286484
861.0566, 4.068985
861.5387, 3.813187
862.0208, 4.860367
862.5029, 3.528656
862.9850, 4.541138
863.4672, 4.625000
863.9493, 5.120926
864.4314, 5.418869
864.9135, 5.577988
865.3956, 3.957611
865.8777, 4.632736
866.3599, 4.387009
866.8420, 4.103409
867.3241, 5.100159
867.8062, 3.735306
868.2883, 4.731339
868.7704, 4.799805
869.2526, 5.301865
869.7347, 4.872116
870.2168, 4.727554
870.6989, 5.520935
871.1810, 5.820984
871.6631, 5.324249
872.1453, 5.885864
872.6274, 5.684692
873.1095, 5.596390
873.5916, 5.585541
874.0737, 5.945419
874.5558, 6.378021
875.0380, 6.535797
875.5201, 6.306076
876.0022, 6.043823
876.4843, 5.706787
876.9664, 5.492981
877.4485, 5.621124
877.9307, 6.203583
878.4128, 6.278137
878.8949, 5.756714
879.3770, 5.064743
879.8591, 4.348419
880.3412, 3.814667
880.8234, 3.914337
881.3055, 4.637024
881.7876, 5.260056
882.2697, 5.589661
882.7518, 5.605667
883.2339, 5.138458
883.7161, 4.246338
884.1982, 3.860489
884.6803, 4.082199
885.1624, 4.374115
885.6445, 4.491333
886.1266, 4.448669
886.6088, 4.190887
887.0909, 3.808640
887.5730, 3.608963
888.0551, 4.026733
888.5372, 4.470718
889.0193, 4.455582
889.5015, 4.205429
889.9836, 4.228073
890.4657, 4.798462
890.9478, 5.000534
891.4299, 4.473969
891.9120, 3.637787
892.3942, 3.230118
892.8763, 3.226547
893.3584, 3.495697
893.8405, 4.176117
894.3226, 4.731674
894.8047, 4.696472
895.2869, 4.285019
895.7690, 3.777206
896.2511, 2.894119
896.7332, 2.479446
897.2153, 2.700684
897.6974, 3.136902
898.1796, 3.380966
898.6617, 3.451370
899.1438, 3.463211
899.6259, 3.431488
900.1080, 3.300232
900.5901, 2.967133
901.0723, 2.553177
901.5544, 2.133896
902.0365, 1.705139
902.5186, 1.435135
903.0007, 1.455322
903.4828, 1.462524
903.9650, 1.262329
904.4471, 0.8991700
904.9292, 0.8462980
905.4113, 1.087753
905.8935, 1.265320
906.3756, 0.9565890
906.8577, 0.6285250
907.3398, 0.8245540
907.8220, 1.427170
908.3041, 1.936127
908.7862, 2.316681
909.2683, 2.449753
909.7504, 2.172058
910.2325, 1.713593
910.7147, 1.762680
911.1968, 2.305298
911.6789, 2.477524
912.1610, 1.865799
912.6431, 1.171722
913.1252, 1.366501
913.6074, 1.954330
914.0895, 2.152603
914.5716, 1.290543
915.0537, 0.8128050
915.5358, 1.235275
916.0179, 1.822067
916.5001, 1.863632
916.9822, 1.327774
917.4643, 0.7913060
917.9464, 1.862808
918.4285, 2.463196
918.9106, 2.617645
919.3928, 0.9930270
919.8749, 1.664185
920.3570, 1.414169
920.8391, 1.125793
921.3212, 2.117935
921.8033, 0.7482760
922.2855, 1.718658
922.7676, 1.753922
923.2497, 2.216324
923.7318, 1.751923
924.2139, 1.573013
924.6960, 2.319778
925.1782, 2.553162
925.6603, 0.6394500
926.1424, 0.4360350
926.6245, 0.2773900
927.1066, 0.3537290
927.5887, 0.3335110
928.0709, 8.4533997E-02
928.5530, 0.2599030
929.0351, 0.4388280
929.5172, 0.4461670
929.9993, 0.5278020
930.4814, 0.7749480
930.9636, 0.9350890
931.4457, 0.5649570
931.9278, 8.2240002E-03
932.4099, 0.3350070
932.8920, 0.2753140
933.3741, 0.1030270
933.8563, 0.1853030
934.3384, 0.5040280
934.8205, 0.8869020
935.3026, 1.362381
935.7847, 1.143555
936.2668, 0.1911010
936.7490, 0.6362300
937.2311, 0.5612950
937.7132, 0.1124730
938.1953, 0.1400600
938.6774, 0.2019040
939.1595, 0.2512510
939.6417, 0.2593840
940.1238, 0.3714450
940.6059, 0.6623540
941.0880, 1.065018
941.5701, 1.447113
942.0522, 1.803085
942.5344, 1.894714
943.0165, 1.598801
943.4986, 1.116989
943.9807, 0.3459930
944.4628, 0.3593440
944.9449, 0.4231720
945.4271, 1.352142
945.9092, 1.878830
946.3913, 9.5504999E-02
946.8734, 1.912872
947.3555, 1.949860
947.8376, 0.1670840
948.3198, 1.024338
948.8019, 1.487579
949.2840, 1.439697
949.7661, 0.5244750
950.2482, 0.4274600
950.7303, 0.4893490
951.2125, 0.3787080
951.6946, 0.8148800
952.1767, 0.6300660
952.6588, 6.1386000E-02
953.1409, 0.9900360
953.6230, 2.271103
954.1052, 2.839615
954.5873, 2.819595
955.0695, 2.963150
955.5516, 3.402908
956.0337, 4.376389
956.5158, 6.966400
956.9979, 9.922714
957.4800, 11.12602
957.9622, 8.948914
958.4443, 7.710434
958.9264, 7.753540
959.4085, 8.469238
959.8906, 9.350403
960.3727, 10.34459
960.8549, 11.21207
961.3370, 11.93376
961.8191, 12.67458
962.3012, 13.91975
962.7833, 14.93683
963.2654, 15.03824
963.7476, 14.19708
964.2297, 13.68867
964.7118, 13.60289
965.1939, 13.58760
965.6760, 13.54692
966.1581, 13.43340
966.6403, 13.11714
967.1224, 12.64511
967.6045, 12.15675
968.0866, 11.55144
968.5687, 11.14204
969.0508, 11.30743
969.5330, 11.60860
970.0151, 11.36388
970.4972, 10.36043
970.9793, 9.858322
971.4614, 10.01706
971.9435, 10.48474
972.4257, 11.03764
972.9078, 11.56409
973.3899, 11.87763
973.8720, 11.93495
974.3541, 12.09460
974.8362, 12.79243
975.3184, 13.26016
975.8005, 13.16031
976.2826, 12.55502
976.7647, 12.02176
977.2468, 11.53870
977.7289, 11.04477
978.2111, 10.53500
978.6932, 9.901840
979.1753, 8.844330
979.6574, 7.604675
980.1395, 6.765976
980.6216, 6.831421
981.1038, 6.754150
981.5859, 6.480316
982.0680, 6.030243
982.5501, 5.400452
983.0322, 4.605652
983.5143, 3.512482
983.9965, 2.093277
984.4786, 1.404022
984.9607, 3.040466
985.4428, 5.101196
985.9249, 6.274872
986.4070, 6.387054
986.8892, 5.617508
987.3713, 3.539032
987.8534, 1.817261
988.3355, 1.189484
988.8176, 1.196243
989.2997, 0.7659450
989.7819, 0.1233980
990.2640, 0.1034240
990.7461, 0.6334080
991.2282, 1.329514
991.7103, 1.383682
992.1924, 1.286835
992.6746, 1.648804
993.1567, 2.618820
993.6388, 3.263916
994.1209, 3.554764
994.6030, 3.791687
995.0851, 4.079544
995.5673, 4.548248
996.0494, 5.596848
996.5315, 7.184311
997.0136, 8.335526
997.4957, 8.219162
997.9778, 8.272705
998.4600, 8.985168
998.9421, 10.09129
999.4242, 10.74748
999.9063, 10.99918
1000.388, 11.39433
1000.871, 12.15161
1001.353, 13.07448
1001.835, 14.12798
1002.317, 15.16359
1002.799, 15.98163
1003.281, 16.24568
1003.763, 16.93990
1004.245, 18.46222
1004.728, 19.81595
1005.210, 20.20193
1005.692, 19.87860
1006.174, 19.48718
1006.656, 19.09172
1007.138, 18.86198
1007.620, 19.03372
1008.102, 19.28160
1008.584, 19.59288
1009.067, 19.82166
1009.549, 19.64632
1010.031, 19.07692
1010.513, 18.21007
1010.995, 16.99918
1011.477, 15.65337
1011.959, 14.19316
1012.441, 12.87910
1012.924, 12.05968
1013.406, 11.80312
1013.888, 12.06129
1014.370, 13.22626
1014.852, 14.31319
1015.334, 14.94322
1015.816, 15.07430
1016.298, 14.10205
1016.780, 12.22624
1017.263, 10.87381
1017.745, 11.24867
1018.227, 11.96289
1018.709, 12.05746
1019.191, 11.89853
1019.673, 12.24780
1020.155, 13.40628
1020.637, 14.20123
1021.120, 14.42554
1021.602, 14.68170
1022.084, 15.73166
1022.566, 17.25177
1023.048, 18.63365
1023.530, 19.81860
1024.012, 21.12770
1024.494, 22.56303
1024.976, 24.29051
1025.458, 26.37074
1025.941, 28.78517
1026.423, 31.36107
1026.905, 34.11734
1027.387, 37.26997
1027.869, 40.92870
1028.351, 44.85347
1028.833, 48.82101
1029.316, 52.89661
1029.798, 57.21988
1030.280, 61.81793
1030.762, 66.64087
1031.244, 71.56879
1031.726, 76.93039
1032.208, 83.08119
1032.690, 89.89693
1033.172, 96.85847
1033.655, 104.0480
1034.137, 111.8389
1034.619, 121.0623
1035.101, 130.1292
1035.583, 138.0512
1036.065, 145.4607
1036.547, 153.6901
1037.029, 162.7478
1037.511, 170.5057
1037.994, 176.5274
1038.476, 181.3286
1038.958, 185.7558
1039.440, 188.8724
1039.922, 189.2996
1040.404, 186.5887
1040.886, 183.7335
1041.368, 180.9498
1041.851, 177.9191
1042.333, 174.2777
1042.815, 170.4284
1043.297, 167.4888
1043.779, 165.2388
1044.261, 163.3176
1044.743, 163.7911
1045.225, 161.0571
1045.708, 152.2393
1046.190, 139.5060
1046.672, 124.3085
1047.154, 106.3183
1047.636, 88.49582
1048.118, 70.60486
1048.600, 56.28624
1049.082, 50.88330
1049.564, 48.31169
1050.047, 42.47789
1050.529, 34.06989
1051.011, 27.78448
1051.493, 24.74652
1051.975, 22.28459
1052.457, 19.98190
1052.939, 17.96274
1053.421, 16.40414
1053.903, 15.29379
1054.386, 14.70010
1054.868, 14.74184
1055.350, 14.47450
1055.832, 12.41539
1056.314, 11.04070
1056.796, 12.00266
1057.278, 14.90039
1057.760, 16.65584
1058.243, 17.27771
1058.725, 16.49606
1059.207, 13.32051
1059.689, 10.07042
1060.171, 8.737396
1060.653, 8.651505
1061.135, 8.963852
1061.617, 10.28499
1062.099, 10.09471
1062.582, 7.931244
1063.064, 5.695923
1063.546, 5.049042
1064.028, 5.360443
1064.510, 5.384674
1064.992, 5.172134
1065.474, 5.192657
1065.956, 5.893875
1066.438, 6.529465
1066.921, 6.936508
1067.403, 7.159607
1067.885, 7.175430
1068.367, 7.057175
1068.849, 7.500031
1069.331, 8.650665
1069.813, 9.912125
1070.295, 10.76317
1070.778, 11.63306
1071.260, 12.80324
1071.742, 14.29288
1072.224, 16.34851
1072.706, 19.25160
1073.188, 20.88826
1073.670, 20.00284
1074.152, 18.44585
1074.635, 18.67473
1075.117, 20.05675
1075.599, 21.66870
1076.081, 23.68521
1076.563, 24.91263
1077.045, 24.78520
1077.527, 24.57346
1078.009, 25.29756
1078.491, 26.68901
1078.974, 27.79814
1079.456, 28.62589
1079.938, 29.21832
1080.420, 29.49908
1080.902, 29.68333
1081.384, 29.70679
1081.866, 29.76785
1082.348, 30.15686
1082.831, 30.88803
1083.313, 31.63496
1083.795, 32.38557
1084.277, 32.98207
1084.759, 33.24963
1085.241, 33.27193
1085.723, 32.93896
1086.205, 32.33881
1086.688, 32.18355
1087.170, 32.69220
1087.652, 32.95096
1088.134, 32.70181
1088.616, 32.23032
1089.098, 32.06650
1089.580, 31.94124
1090.062, 31.36243
1090.544, 30.12976
1091.026, 28.92921
1091.509, 27.73891
1091.991, 26.83589
1092.473, 26.54063
1092.955, 26.56015
1093.437, 25.79758
1093.919, 24.37607
1094.401, 22.79440
1094.883, 21.15401
1095.366, 19.50607
1095.848, 17.66264
1096.330, 15.96980
1096.812, 14.75172
1097.294, 14.03975
1097.776, 13.25311
1098.258, 12.41309
1098.740, 11.52979
1099.223, 10.57767
1099.705, 9.600662
1100.187, 8.430237
1100.669, 7.289932
1101.151, 6.855377
1101.633, 7.580734
1102.115, 7.546783
1102.597, 6.411362
1103.079, 5.122711
1103.562, 4.779449
1104.044, 4.940308
1104.526, 5.000565
1105.008, 4.884995
1105.490, 4.669739
1105.972, 4.281570
1106.454, 4.071259
1106.936, 4.200790
1107.418, 4.372818
1107.901, 3.776001
1108.383, 2.770340
1108.865, 2.596786
1109.347, 3.711777
1109.829, 4.345337
1110.311, 3.019684
1110.793, 1.728394
1111.275, 1.647705
1111.758, 2.515701
1112.240, 2.564056
1112.722, 1.845901
1113.204, 1.193253
1113.686, 0.7583310
1114.168, 0.6608890
1114.650, 1.402283
1115.132, 2.292709
1115.615, 2.438690
1116.097, 1.710983
1116.579, 1.247543
1117.061, 1.029327
1117.543, 0.9626310
1118.025, 0.9847410
1118.507, 0.9664150
1118.989, 0.5442960
1119.471, 1.3138000E-02
1119.953, 0.1077730
1120.436, 0.6218720
1120.918, 1.079712
1121.400, 1.183258
1121.882, 1.153290
1122.364, 1.287323
1122.846, 1.373444
1123.328, 0.8434910
1123.810, 0.1705170
1124.293, 0.7605290
1124.775, 0.2605590
1125.257, 0.1587980
1125.739, 0.3083190
1126.221, 0.2820740
1126.703, 0.1643980
1127.185, 5.0050002E-03
1127.667, 0.1760410
1128.150, 0.3464050
1128.632, 0.2186890
1129.114, 0.9832760
1129.596, 1.748093
1130.078, 1.259933
1130.560, 1.9851999E-02
1131.042, 0.4199370
1131.524, 0.1690220
1132.006, 8.4366001E-02
1132.489, 0.2119900
1132.971, 8.7006003E-02
1133.453, 0.9632110
1133.935, 1.775818
1134.417, 1.195068
1134.899, 0.6683040
1135.381, 1.228333
1135.863, 0.4900670
1136.346, 0.1378020
1136.828, 1.9089000E-02
1137.310, 0.3864290
1137.792, 0.5058140
1138.274, 0.4907840
1138.756, 0.4936520
1139.238, 0.5500340
1139.720, 0.5181580
1140.203, 0.3958130
1140.685, 0.2032010
1141.167, 0.2855530
1141.649, 0.6422880
1142.131, 1.5991000E-02
1142.613, 1.155746
1143.095, 1.617111
1143.577, 0.5325470
1144.059, 0.1342770
1144.542, 0.7143710
1145.024, 1.310410
1145.506, 0.9103240
1145.988, 1.0880000E-02
1146.470, 0.6320340
1146.952, 1.000275
1147.434, 1.167282
1147.916, 1.052277
1148.398, 0.8652190
1148.881, 0.5915070
1149.363, 0.3308870
1149.845, 0.1961060
1150.327, 0.1754150
1150.809, 0.3095860
1151.291, 0.5815730
1151.773, 0.8173220
1152.255, 0.9190830
1152.738, 1.005630
1153.220, 1.190704
1153.702, 1.291321
1154.184, 0.7863160
1154.666, 0.1310120
1155.148, 0.6267700
1155.630, 0.5444640
1156.112, 0.3247830
1156.594, 8.8287003E-02
1157.077, 0.1101530
1157.559, 0.2575230
1158.041, 0.3548280
1158.523, 0.4008330
1159.005, 0.3957820
1159.487, 0.3019260
1159.969, 5.7968002E-02
1160.451, 7.3882997E-02
1160.933, 0.4062350
1161.416, 0.7675780
1161.898, 0.2771760
1162.380, 0.9213560
1162.862, 1.107010
1163.344, 0.3212590
1163.826, 0.4310000
1164.308, 0.7901000
1164.790, 0.8938140
1165.273, 0.7775270
1165.755, 0.5003810
1166.237, 9.6542001E-02
1166.719, 0.4503630
1167.201, 0.9381260
1167.683, 1.382141
1168.165, 1.453400
1168.647, 0.5885160
1169.130, 0.2527160
1169.612, 8.2886003E-02
1170.094, 0.6616520
1170.576, 0.4943390
1171.058, 1.560684
1171.540, 2.155899
1172.022, 2.305328
1172.504, 0.6755070
1172.986, 1.341278
1173.469, 1.085739
1173.951, 0.7917180
1174.433, 1.778610
1174.915, 0.4030760
1175.397, 1.367218
1175.879, 1.396103
1176.361, 1.851852
1176.843, 1.380768
1177.326, 1.194382
1177.808, 1.932968
1178.290, 2.158737
1178.772, 1.577805
1179.254, 1.346268
1179.736, 1.832932
1180.218, 2.103821
1180.700, 2.082077
1181.182, 1.937088
1181.665, 1.755478
1182.147, 1.610931
1182.629, 1.676483
1183.111, 1.931076
1183.593, 2.237183
1184.075, 2.712860
1184.557, 2.930115
1185.039, 2.781448
1185.521, 2.447769
1186.004, 1.957809
1186.486, 1.559158
1186.968, 1.816132
1187.450, 2.738113
1187.932, 3.284454
1188.414, 3.098602
1188.896, 2.766113
1189.378, 2.331314
1189.861, 2.031754
1190.343, 2.482178
1190.825, 3.263275
1191.307, 3.544449
1191.789, 3.167236
1192.271, 2.826370
1192.753, 2.555603
1193.235, 2.540970
1193.718, 2.958481
1194.200, 3.505127
1194.682, 3.562027
1195.164, 3.338287
1195.646, 3.263977
1196.128, 3.445816
1196.610, 3.651260
1197.092, 3.840836
1197.574, 4.034760
1198.057, 4.285889
1198.539, 4.493576
1199.021, 4.333313
1199.503, 3.955261
1199.985, 3.780869
1200.467, 3.965790
1200.949, 3.989151
1201.431, 3.548752
1201.913, 3.304077
1202.396, 3.737183
1202.878, 4.447052
1203.360, 4.268555
1203.842, 3.525650
1204.324, 3.053696
1204.806, 3.226028
1205.288, 3.403488
1205.770, 3.530701
1206.253, 3.568832
1206.735, 3.391998
1207.217, 3.171982
1207.699, 2.275360
1208.181, 3.427399
1208.663, 4.099686
1209.145, 4.308899
1209.627, 2.722366
1210.109, 3.423660
1210.592, 3.197052
1211.074, 2.918549
1211.556, 3.912750
1212.038, 2.575317
1212.520, 3.633087
1213.002, 3.772797
1213.484, 4.336960
1213.966, 3.965561
1214.448, 3.866180
1214.931, 4.232773
1215.413, 4.064148
1215.895, 3.802994
1216.377, 3.643936
1216.859, 3.569138
1217.341, 3.514908
1217.823, 3.497574
1218.305, 3.428802
1218.788, 3.168686
1219.270, 3.005188
1219.752, 3.404205
1220.234, 4.103287
1220.716, 4.232346
1221.198, 3.904526
1221.680, 3.650192
1222.162, 3.787109
1222.645, 3.947525
1223.127, 4.256226
1223.609, 4.294937
1224.091, 1.650650
1224.573, 2.793396
1225.055, 3.483353
1225.537, 3.738449
1226.019, 2.215561
1226.501, 2.961548
1226.984, 2.740021
1227.466, 2.489853
1227.948, 3.558578
1228.430, 2.257767
1228.912, 3.330612
1229.394, 3.475449
1229.876, 4.048141
1230.358, 3.658813
1230.841, 3.576599
1231.323, 4.412354
1231.805, 1.493134
1232.287, 2.704987
1232.769, 3.402130
1233.251, 3.688126
1233.733, 2.195709
1234.215, 3.010117
1234.698, 2.892532
1235.180, 2.730896
1235.662, 3.866913
1236.144, 2.646713
1236.626, 3.754471
1237.108, 3.922607
1237.590, 4.530731
1238.072, 4.214340
1238.554, 4.189865
1239.036, 5.083771
1239.519, 4.995789
1240.001, 4.901184
1240.483, 3.796005
1240.965, 5.194962
1241.447, 6.125702
1241.929, 6.615784
1242.411, 5.331894
1242.893, 6.341064
1243.376, 6.426697
1243.858, 6.465897
1244.340, 7.801071
1244.822, 6.767426
1245.304, 8.040131
1245.786, 8.408478
1246.268, 9.191910
1246.750, 9.039139
1247.233, 9.192932
1247.715, 10.26811
1248.197, 10.82156
1248.679, 10.57745
1249.161, 11.39410
1249.643, 10.66400
1250.125, 12.08998
1250.607, 13.04677
1251.089, 13.55742
1251.572, 12.28790
1252.054, 13.31371
1252.536, 13.41272
1253.018, 13.47748
1253.500, 14.82153
1253.982, 13.79729
1254.464, 15.11888
1254.946, 15.50728
1255.428, 16.31322
1255.911, 16.20561
1256.393, 15.59497
1256.875, 17.12941
1257.357, 18.19461
1257.839, 18.81415
1258.321, 17.65858
1258.803, 18.79910
1259.285, 19.01949
1259.768, 19.20367
1260.250, 20.66905
1260.732, 19.77380
1261.214, 21.22025
1261.696, 21.73315
1262.178, 22.67342
1262.660, 22.68896
1263.142, 22.99252
1263.625, 23.23608
1264.107, 23.41122
1264.589, 23.49091
1265.071, 23.61632
1265.553, 23.75699
1266.035, 23.84305
1266.517, 23.86319
1266.999, 23.81483
1267.481, 23.61246
1267.964, 23.49059
1268.446, 23.54355
1268.928, 23.58118
1269.410, 23.44598
1269.892, 23.06052
1270.374, 22.12108
1270.856, 20.67676
1271.338, 19.67390
1271.820, 19.41473
1272.303, 18.95506
1272.785, 18.03531
1273.267, 17.18915
1273.749, 17.42253
1274.231, 17.82718
1274.713, 17.26569
1275.195, 15.79491
1275.677, 14.48192
1276.160, 13.29439
1276.642, 12.65260
1277.124, 12.71388
1277.606, 12.73080
1278.088, 11.99286
1278.570, 10.92932
1279.052, 9.652100
1279.534, 8.378189
1280.016, 7.793213
1280.499, 7.925705
1280.981, 7.567276
1281.463, 6.531006
1281.945, 5.550217
1282.427, 5.113846
1282.909, 4.934387
1283.391, 4.987381
1283.873, 5.084122
1284.356, 4.873276
1284.838, 4.393875
1285.320, 3.837311
1285.802, 3.234604
1286.284, 2.766022
1286.766, 2.601212
1287.248, 2.511261
1287.730, 2.433121
1288.213, 2.368713
1288.695, 2.374191
1289.177, 2.382004
1289.659, 2.128510
1290.141, 1.642303
1290.623, 1.346115
1291.105, 1.498764
1291.587, 0.1421050
1292.069, 1.163345
1292.552, 1.717392
1293.034, 1.829834
1293.516, 0.1676480
1293.998, 0.8060610
1294.480, 0.5286250
1294.962, 0.2184140
1295.444, 1.194992
1295.926, 0.1834560
1296.408, 0.7856450
1296.891, 0.8276980
1297.373, 1.291107
1297.855, 0.8513340
1298.337, 0.6814880
1298.819, 1.458115
1299.301, 1.705673
1299.783, 1.051224
1300.265, 1.810074
1300.748, 2.106384
1301.230, 2.513870
1301.712, 2.4750000E-02
1302.194, 0.9198150
1302.676, 0.0000000E+00
##END=



