##NAMES=Naujakasite
##RRUFFID=R060975
##IDEAL CHEMISTRY=Na_6_Fe^2+^Al_4_Si_8_O_26_
##LOCALITY=Lille Elv Plateau, Kangerdluarssuk, Ilimaussaq intrusion, Greenland
##OWNER=RRUFF
##SOURCE=Michael Scott
##DESCRIPTION=Gray colored plates associated with black arfvedsonite
##STATUS=The identification of this mineral is not yet confirmed.
##URL=rruff.info/R060975
122.0102, 0.0000000E+00
122.4923, 17.31885
122.9744, 421.3247
123.4565, 1032.729
123.9386, 1792.410
124.4208, 2599.949
124.9029, 3404.069
125.3850, 4186.956
125.8671, 4930.790
126.3492, 5636.786
126.8313, 6285.746
127.3135, 6865.902
127.7956, 7423.185
128.2777, 7888.418
128.7598, 8178.078
129.2419, 8274.166
129.7240, 8260.812
130.2061, 8271.028
130.6883, 8229.126
131.1704, 8057.826
131.6525, 7759.509
132.1346, 7332.749
132.6167, 6757.535
133.0988, 6011.840
133.5810, 5167.291
134.0631, 4276.665
134.5452, 3327.306
135.0273, 2457.764
135.5094, 1699.516
135.9915, 1056.274
136.4737, 537.6914
136.9558, 151.2002
137.4379, 101.3691
137.9200, 236.2422
138.4021, 261.1738
138.8842, 167.3848
139.3664, 67.18848
139.8485, 430.9678
140.3306, 876.7393
140.8127, 1429.319
141.2948, 2027.305
141.7769, 2621.566
142.2591, 3216.359
142.7412, 3763.214
143.2233, 4234.170
143.7054, 4630.771
144.1875, 4947.267
144.6696, 5159.996
145.1517, 5299.909
145.6339, 5398.060
146.1160, 5457.827
146.5981, 5465.216
147.0802, 5396.359
147.5623, 5247.147
148.0444, 5079.271
148.5266, 4930.411
149.0087, 4752.956
149.4908, 4519.257
149.9729, 4223.887
150.4550, 3866.116
150.9371, 3400.909
151.4193, 2786.503
151.9014, 2270.519
152.3835, 1929.966
152.8656, 1694.535
153.3477, 1543.020
153.8298, 1469.533
154.3120, 1453.764
154.7941, 1474.321
155.2762, 1543.731
155.7583, 1612.949
156.2404, 1663.616
156.7225, 1717.271
157.2047, 1791.149
157.6868, 1888.807
158.1689, 2011.464
158.6510, 2157.604
159.1331, 2338.421
159.6152, 2498.697
160.0974, 2647.636
160.5795, 2773.880
161.0616, 2863.047
161.5437, 2909.977
162.0258, 2924.031
162.5079, 2943.185
162.9901, 2998.210
163.4722, 3021.259
163.9543, 2999.770
164.4364, 2944.281
164.9185, 2856.051
165.4007, 2731.097
165.8828, 2576.278
166.3649, 2438.519
166.8470, 2326.789
167.3291, 2211.560
167.8112, 2079.571
168.2933, 1944.498
168.7755, 1820.617
169.2576, 1713.900
169.7397, 1623.646
170.2218, 1549.940
170.7039, 1530.058
171.1860, 1471.850
171.6682, 1353.391
172.1503, 1205.066
172.6324, 1049.749
173.1145, 900.5747
173.5966, 762.0469
174.0787, 643.1182
174.5609, 562.6885
175.0430, 485.3564
175.5251, 393.8506
176.0072, 302.8857
176.4893, 231.9502
176.9714, 189.0977
177.4536, 167.6699
177.9357, 161.1162
178.4178, 186.9893
178.8999, 197.6187
179.3820, 182.0825
179.8641, 135.6963
180.3463, 100.8452
180.8284, 83.41455
181.3105, 75.94336
181.7926, 62.91553
182.2747, 11.17041
182.7568, 4.443848
183.2390, 55.93848
183.7211, 136.3730
184.2032, 170.9526
184.6853, 134.8330
185.1674, 61.63135
185.6495, 25.89990
186.1317, 62.98047
186.6138, 98.12939
187.0959, 134.3379
187.5780, 164.8032
188.0601, 184.7485
188.5422, 192.8438
189.0244, 188.4155
189.5065, 169.5762
189.9886, 121.0967
190.4707, 78.42773
190.9528, 41.85693
191.4349, 11.12305
191.9170, 12.30566
192.3992, 28.36963
192.8813, 41.04785
193.3634, 57.89551
193.8455, 86.60840
194.3276, 106.6606
194.8097, 116.5166
195.2919, 118.9937
195.7740, 114.8359
196.2561, 102.0225
196.7382, 83.51318
197.2203, 67.88525
197.7024, 58.44873
198.1846, 53.76855
198.6667, 54.81445
199.1488, 60.13525
199.6309, 71.76807
200.1130, 89.95850
200.5951, 106.0615
201.0773, 107.1704
201.5594, 83.01807
202.0415, 63.26123
202.5236, 43.67969
203.0057, 30.87842
203.4878, 34.91113
203.9700, 57.03223
204.4521, 83.97656
204.9342, 98.22119
205.4163, 93.33350
205.8984, 91.43359
206.3805, 97.15137
206.8627, 103.0439
207.3448, 104.9731
207.8269, 101.6494
208.3090, 89.91846
208.7911, 62.59766
209.2732, 8.313965
209.7554, 16.43896
210.2375, 13.49561
210.7196, 53.96582
211.2017, 75.66553
211.6838, 74.54199
212.1659, 58.30859
212.6480, 33.47656
213.1302, 2.135742
213.6123, 37.33105
214.0944, 73.76660
214.5765, 108.6855
215.0586, 137.2144
215.5407, 160.9028
216.0229, 190.0801
216.5050, 236.9663
216.9871, 305.5273
217.4692, 347.4873
217.9513, 350.5815
218.4334, 342.2354
218.9156, 334.8413
219.3977, 328.9380
219.8798, 320.5273
220.3619, 306.0869
220.8440, 285.5684
221.3261, 267.2393
221.8083, 254.8228
222.2904, 240.5977
222.7725, 219.9360
223.2546, 194.3491
223.7367, 168.1499
224.2188, 143.0889
224.7010, 119.4907
225.1831, 103.2041
225.6652, 103.6929
226.1473, 99.75000
226.6294, 79.79297
227.1115, 50.65479
227.5937, 25.98535
228.0758, 13.39844
228.5579, 11.42041
229.0400, 13.62207
229.5221, 28.56836
230.0042, 37.40039
230.4864, 31.77295
230.9685, 18.86572
231.4506, 9.767090
231.9327, 9.857422
232.4148, 15.53223
232.8969, 16.19531
233.3791, 1.406738
233.8612, 5.833008
234.3433, 0.8334960
234.8254, 13.84619
235.3075, 24.64990
235.7896, 30.04004
236.2717, 32.83496
236.7539, 38.55518
237.2360, 46.53125
237.7181, 59.28906
238.2002, 83.02197
238.6823, 107.8628
239.1644, 123.9253
239.6466, 129.1904
240.1287, 130.1670
240.6108, 136.8677
241.0929, 155.8628
241.5750, 168.6558
242.0571, 173.9746
242.5393, 175.0620
243.0214, 167.6538
243.5035, 154.7773
243.9856, 150.8696
244.4677, 174.9883
244.9498, 237.9390
245.4320, 286.8281
245.9141, 323.4854
246.3962, 347.3208
246.8783, 351.7690
247.3604, 341.2881
247.8425, 328.3486
248.3247, 322.1499
248.8068, 322.1792
249.2889, 337.4219
249.7710, 387.1338
250.2531, 432.5439
250.7352, 456.3818
251.2174, 466.3784
251.6995, 480.2676
252.1816, 511.6973
252.6637, 558.9248
253.1458, 602.4458
253.6279, 641.4658
254.1101, 678.6025
254.5922, 716.3271
255.0743, 751.9873
255.5564, 780.0137
256.0385, 796.2383
256.5206, 806.7998
257.0027, 833.1963
257.4849, 893.3594
257.9670, 937.5981
258.4491, 945.2798
258.9312, 941.5195
259.4133, 954.1870
259.8954, 993.1938
260.3776, 1040.750
260.8597, 1064.983
261.3418, 1057.214
261.8239, 1046.169
262.3060, 1037.436
262.7881, 1026.865
263.2703, 1012.034
263.7524, 992.2017
264.2345, 969.0908
264.7166, 945.5239
265.1987, 922.2881
265.6808, 895.0059
266.1630, 859.4585
266.6451, 824.3887
267.1272, 792.9785
267.6093, 764.6831
268.0914, 740.5493
268.5735, 724.7456
269.0557, 717.3843
269.5378, 710.0264
270.0199, 702.9165
270.5020, 697.7373
270.9841, 697.4897
271.4662, 700.1182
271.9484, 700.4590
272.4305, 687.4033
272.9126, 670.3491
273.3947, 678.6792
273.8768, 722.5420
274.3589, 764.7979
274.8411, 779.1772
275.3232, 778.5195
275.8053, 780.7720
276.2874, 788.0898
276.7695, 803.7417
277.2516, 838.9272
277.7338, 896.0938
278.2159, 941.2661
278.6980, 955.7534
279.1801, 948.7539
279.6622, 934.5200
280.1443, 908.7910
280.6265, 886.6313
281.1086, 885.4854
281.5907, 899.6631
282.0728, 899.2666
282.5549, 869.6572
283.0370, 826.8936
283.5192, 797.0732
284.0013, 781.9253
284.4834, 767.5010
284.9655, 749.3872
285.4476, 728.0400
285.9297, 704.1465
286.4119, 677.9390
286.8940, 651.6143
287.3761, 626.3647
287.8582, 601.1138
288.3403, 585.0000
288.8224, 586.5767
289.3046, 593.1943
289.7867, 590.2212
290.2688, 577.6558
290.7509, 570.7153
291.2330, 583.0132
291.7151, 615.7983
292.1972, 643.9722
292.6794, 674.6836
293.1615, 695.1084
293.6436, 688.0938
294.1257, 663.7568
294.6078, 650.5454
295.0899, 665.8110
295.5721, 705.2715
296.0542, 745.9985
296.5363, 795.7012
297.0184, 837.4092
297.5005, 859.4053
297.9826, 874.1050
298.4648, 901.0312
298.9469, 947.5806
299.4290, 1000.639
299.9111, 1033.198
300.3932, 1020.242
300.8753, 1026.082
301.3575, 1067.361
301.8396, 1113.938
302.3217, 1145.997
302.8038, 1160.404
303.2859, 1162.772
303.7680, 1157.129
304.2502, 1139.572
304.7323, 1132.965
305.2144, 1148.337
305.6965, 1164.088
306.1786, 1174.538
306.6607, 1178.966
307.1429, 1177.126
307.6250, 1166.740
308.1071, 1150.407
308.5892, 1146.603
309.0713, 1165.510
309.5534, 1181.153
310.0356, 1187.685
310.5177, 1186.287
310.9998, 1176.679
311.4819, 1156.782
311.9640, 1135.273
312.4461, 1126.225
312.9283, 1131.135
313.4104, 1142.472
313.8925, 1164.245
314.3746, 1188.171
314.8567, 1207.238
315.3388, 1220.238
315.8210, 1233.702
316.3031, 1253.948
316.7852, 1279.903
317.2673, 1303.264
317.7494, 1318.608
318.2315, 1337.871
318.7137, 1375.529
319.1958, 1428.368
319.6779, 1476.796
320.1600, 1500.298
320.6421, 1519.963
321.1242, 1571.006
321.6064, 1658.000
322.0885, 1752.480
322.5706, 1833.808
323.0527, 1906.271
323.5348, 1989.243
324.0169, 2097.029
324.4991, 2203.671
324.9812, 2288.337
325.4633, 2357.384
325.9454, 2435.583
326.4275, 2537.894
326.9096, 2650.200
327.3918, 2734.076
327.8739, 2792.025
328.3560, 2823.268
328.8381, 2807.667
329.3202, 2773.645
329.8023, 2763.682
330.2845, 2786.175
330.7666, 2800.753
331.2487, 2752.390
331.7308, 2617.771
332.2129, 2496.263
332.6950, 2384.494
333.1772, 2287.118
333.6593, 2209.881
334.1414, 2149.518
334.6235, 2094.708
335.1056, 2035.646
335.5877, 1974.198
336.0698, 1930.203
336.5519, 1909.900
337.0341, 1901.684
337.5162, 1909.926
337.9983, 1926.562
338.4804, 1940.774
338.9625, 1947.905
339.4446, 1955.374
339.9268, 1979.404
340.4089, 2027.384
340.8910, 2068.046
341.3731, 2087.949
341.8552, 2104.608
342.3373, 2132.414
342.8195, 2171.331
343.3016, 2203.234
343.7837, 2211.682
344.2658, 2198.796
344.7479, 2180.753
345.2300, 2161.353
345.7122, 2131.465
346.1943, 2082.277
346.6764, 2018.584
347.1585, 1951.408
347.6406, 1888.973
348.1227, 1824.478
348.6049, 1743.070
349.0870, 1644.850
349.5691, 1554.716
350.0512, 1487.489
350.5333, 1435.715
351.0154, 1380.296
351.4976, 1321.013
351.9797, 1258.546
352.4618, 1184.880
352.9439, 1109.207
353.4260, 1054.527
353.9081, 1029.003
354.3903, 1008.361
354.8724, 957.4810
355.3545, 860.0142
355.8366, 789.9795
356.3187, 771.4116
356.8008, 762.1104
357.2830, 733.4673
357.7651, 686.8618
358.2472, 638.4819
358.7293, 600.1562
359.2114, 571.1978
359.6935, 543.8691
360.1757, 521.4941
360.6578, 496.8823
361.1399, 457.5518
361.6220, 419.8706
362.1041, 408.8340
362.5862, 432.7900
363.0684, 467.7329
363.5505, 467.1826
364.0326, 410.1909
364.5147, 383.4253
364.9968, 428.7573
365.4789, 477.1802
365.9611, 490.1562
366.4432, 470.2993
366.9253, 445.3579
367.4074, 438.6519
367.8895, 444.6118
368.3716, 436.3188
368.8538, 407.9419
369.3359, 377.8354
369.8180, 355.1333
370.3001, 336.8579
370.7822, 319.5586
371.2643, 303.6387
371.7465, 286.4106
372.2286, 263.0029
372.7107, 234.8413
373.1928, 213.0488
373.6749, 204.7104
374.1570, 199.2212
374.6392, 176.4038
375.1213, 132.8340
375.6034, 99.85449
376.0855, 96.37354
376.5676, 101.9502
377.0497, 89.97607
377.5319, 58.88184
378.0140, 31.05957
378.4961, 26.69482
378.9782, 45.79980
379.4603, 55.49414
379.9424, 54.02148
380.4246, 47.02881
380.9066, 28.60938
381.3888, 7.719727
381.8709, 1.066895
382.3530, 8.715332
382.8351, 29.20215
383.3172, 44.15088
383.7993, 48.36523
384.2815, 57.98877
384.7636, 82.01367
385.2457, 104.1753
385.7278, 110.1367
386.2099, 102.8154
386.6920, 99.59082
387.1742, 119.8413
387.6563, 158.4961
388.1384, 174.7031
388.6205, 152.4839
389.1026, 137.4990
389.5847, 154.7236
390.0669, 188.7944
390.5490, 221.8550
391.0311, 252.0547
391.5132, 272.0762
391.9953, 269.6250
392.4774, 247.2876
392.9596, 226.4224
393.4417, 211.1851
393.9238, 201.9653
394.4059, 205.9541
394.8880, 224.3862
395.3701, 223.6401
395.8523, 175.3086
396.3344, 115.9980
396.8165, 84.39648
397.2986, 81.25879
397.7807, 85.67969
398.2628, 85.23682
398.7450, 79.30615
399.2271, 62.24463
399.7092, 19.69775
400.1913, 15.36816
400.6734, 33.13672
401.1555, 40.85156
401.6377, 45.82031
402.1198, 50.65186
402.6019, 56.38574
403.0840, 65.66162
403.5661, 82.11084
404.0482, 89.02588
404.5304, 69.63086
405.0125, 56.45361
405.4946, 69.97656
405.9767, 100.3804
406.4588, 122.9058
406.9409, 121.0396
407.4231, 104.3945
407.9052, 96.29297
408.3873, 99.26953
408.8694, 100.5093
409.3515, 96.97900
409.8336, 88.50439
410.3158, 73.10742
410.7979, 49.62158
411.2800, 27.72070
411.7621, 14.58105
412.2442, 7.083008
412.7263, 2.034668
413.2085, 14.10254
413.6906, 25.18750
414.1727, 30.57129
414.6548, 30.68848
415.1369, 36.81494
415.6190, 51.13867
416.1012, 69.17529
416.5833, 94.13623
417.0654, 120.6089
417.5475, 134.8677
418.0296, 130.6699
418.5117, 120.9922
418.9939, 131.7988
419.4760, 177.7646
419.9581, 215.6323
420.4402, 235.7446
420.9223, 257.3306
421.4044, 298.5693
421.8866, 353.3022
422.3687, 396.5532
422.8508, 404.5093
423.3329, 389.8267
423.8150, 413.7598
424.2971, 500.5879
424.7793, 570.9292
425.2614, 587.3345
425.7435, 580.8145
426.2256, 579.4917
426.7077, 589.3442
427.1898, 596.7139
427.6719, 592.8804
428.1541, 578.2236
428.6362, 549.6157
429.1183, 501.9185
429.6004, 458.1553
430.0825, 442.1162
430.5646, 450.6089
431.0468, 451.3750
431.5289, 435.3091
432.0110, 417.7935
432.4931, 410.0361
432.9752, 407.3540
433.4573, 394.9854
433.9395, 365.5610
434.4216, 335.0898
434.9037, 335.5801
435.3858, 394.6729
435.8679, 426.5083
436.3500, 409.2568
436.8322, 387.0312
437.3143, 379.5542
437.7964, 389.6821
438.2785, 416.8999
438.7606, 464.5488
439.2427, 525.0903
439.7249, 570.4307
440.2070, 596.4565
440.6891, 617.0908
441.1712, 634.1235
441.6533, 649.0063
442.1354, 658.2085
442.6176, 660.7632
443.0997, 676.1973
443.5818, 731.8232
444.0639, 808.8818
444.5460, 858.5229
445.0281, 872.8433
445.5103, 876.7788
445.9924, 885.3433
446.4745, 899.0674
446.9566, 918.0254
447.4387, 949.9634
447.9208, 978.4863
448.4030, 995.1196
448.8851, 1004.938
449.3672, 1016.449
449.8493, 1032.300
450.3314, 1048.041
450.8135, 1058.050
451.2957, 1062.859
451.7778, 1059.920
452.2599, 1038.722
452.7420, 1021.119
453.2241, 1022.660
453.7062, 1032.821
454.1884, 1031.011
454.6705, 1005.828
455.1526, 967.9976
455.6347, 934.6309
456.1168, 905.2168
456.5989, 884.2212
457.0811, 876.0005
457.5632, 873.4380
458.0453, 871.8926
458.5274, 870.4863
459.0095, 863.7158
459.4916, 846.7646
459.9738, 824.8501
460.4559, 798.7407
460.9380, 770.2231
461.4201, 757.1924
461.9022, 774.4917
462.3843, 809.6094
462.8665, 821.2500
463.3486, 787.2544
463.8307, 764.2456
464.3128, 758.6089
464.7949, 766.9253
465.2770, 795.8623
465.7592, 839.1216
466.2413, 872.9985
466.7234, 875.3154
467.2055, 850.2012
467.6876, 833.7480
468.1697, 824.7012
468.6519, 830.4009
469.1340, 867.8145
469.6161, 909.9414
470.0982, 926.9297
470.5803, 912.0513
471.0624, 895.8232
471.5445, 907.1030
472.0266, 938.6787
472.5088, 965.5103
472.9909, 984.5752
473.4730, 999.8340
473.9551, 1013.103
474.4372, 1025.397
474.9193, 1040.822
475.4015, 1062.442
475.8836, 1081.545
476.3657, 1088.303
476.8478, 1093.557
477.3299, 1117.512
477.8120, 1163.854
478.2942, 1210.875
478.7763, 1232.116
479.2584, 1223.873
479.7405, 1220.396
480.2226, 1229.052
480.7047, 1234.632
481.1869, 1225.220
481.6690, 1213.017
482.1511, 1218.117
482.6332, 1248.963
483.1153, 1284.623
483.5974, 1296.153
484.0796, 1284.977
484.5617, 1279.239
485.0438, 1281.132
485.5259, 1292.798
486.0080, 1325.047
486.4901, 1369.879
486.9723, 1402.486
487.4544, 1406.860
487.9365, 1409.011
488.4186, 1433.419
488.9007, 1468.082
489.3828, 1483.179
489.8650, 1467.921
490.3471, 1437.353
490.8292, 1414.029
491.3113, 1405.141
491.7934, 1377.607
492.2755, 1318.630
492.7577, 1256.778
493.2398, 1206.340
493.7219, 1160.558
494.2040, 1104.452
494.6861, 1029.652
495.1682, 948.7290
495.6504, 882.7886
496.1325, 833.1118
496.6146, 779.7778
497.0967, 716.2925
497.5788, 652.7993
498.0609, 595.6104
498.5431, 544.5059
499.0252, 501.9448
499.5073, 470.5859
499.9894, 446.4351
500.4715, 430.7109
500.9536, 420.1597
501.4358, 403.4136
501.9179, 375.1924
502.4000, 341.9717
502.8821, 312.8892
503.3642, 286.4502
503.8463, 270.4375
504.3285, 272.8433
504.8106, 276.4209
505.2927, 272.6572
505.7748, 264.2456
506.2569, 258.9326
506.7390, 261.2163
507.2212, 263.6616
507.7033, 249.7363
508.1854, 217.0557
508.6675, 195.4287
509.1496, 198.2700
509.6317, 203.2261
510.1139, 184.9048
510.5960, 150.3706
511.0781, 128.2817
511.5602, 134.4634
512.0423, 148.2202
512.5244, 157.8560
513.0065, 162.5244
513.4886, 159.3066
513.9708, 146.7949
514.4529, 130.0913
514.9350, 117.0791
515.4171, 109.9961
515.8992, 97.81152
516.3813, 74.31201
516.8635, 52.79932
517.3456, 37.10791
517.8277, 27.28223
518.3098, 23.49707
518.7919, 26.22119
519.2740, 31.41016
519.7562, 36.32080
520.2383, 40.70215
520.7204, 31.52686
521.2025, 0.8808590
521.6846, 32.62158
522.1667, 39.82031
522.6489, 29.71631
523.1310, 23.64502
523.6131, 30.54883
524.0952, 36.29199
524.5773, 30.20264
525.0594, 18.27588
525.5416, 11.65088
526.0237, 13.27295
526.5058, 18.48145
526.9879, 22.63379
527.4700, 26.13965
527.9521, 23.57764
528.4343, 5.793457
528.9164, 7.750488
529.3985, 8.963379
529.8806, 5.080078
530.3627, 6.542969
530.8448, 16.42627
531.3270, 24.21582
531.8091, 15.04004
532.2912, 5.428711
532.7733, 12.97559
533.2554, 3.371094
533.7375, 9.191406
534.2197, 14.84375
534.7018, 16.16553
535.1839, 23.53076
535.6660, 44.28369
536.1481, 59.86475
536.6302, 61.45996
537.1124, 57.48877
537.5945, 57.77734
538.0766, 62.78174
538.5587, 64.66797
539.0408, 55.27588
539.5229, 37.76074
540.0051, 34.69482
540.4872, 55.17041
540.9693, 71.47510
541.4514, 82.08057
541.9335, 82.44141
542.4156, 61.34814
542.8978, 20.20947
543.3799, 12.30713
543.8620, 16.58936
544.3441, 5.027832
544.8262, 6.342285
545.3083, 17.16602
545.7905, 31.10840
546.2726, 51.45752
546.7547, 72.42432
547.2368, 82.04639
547.7189, 74.85352
548.2010, 66.93555
548.6832, 54.56055
549.1653, 45.00049
549.6474, 44.42920
550.1295, 49.69434
550.6116, 53.24805
551.0938, 51.08740
551.5759, 46.43750
552.0580, 45.07422
552.5401, 47.12891
553.0222, 47.52002
553.5043, 44.14990
553.9865, 41.00928
554.4686, 43.10205
554.9507, 48.57080
555.4328, 50.79736
555.9149, 48.48926
556.3970, 43.07812
556.8792, 32.76953
557.3613, 20.64941
557.8434, 8.901123
558.3255, 0.9062500
558.8076, 0.4455570
559.2897, 22.56445
559.7719, 68.11523
560.2540, 93.80005
560.7361, 87.71143
561.2182, 78.30640
561.7003, 68.30884
562.1824, 61.38037
562.6646, 65.20093
563.1467, 80.65479
563.6288, 88.30859
564.1109, 65.30688
564.5930, 29.57544
565.0751, 14.95923
565.5573, 22.23901
566.0394, 28.00854
566.5215, 15.90308
567.0036, 1.452637
567.4857, 23.11230
567.9678, 122.8367
568.4500, 180.5850
568.9321, 168.5564
569.4142, 140.3872
569.8963, 119.8218
570.3784, 109.7954
570.8605, 109.5671
571.3427, 119.5540
571.8248, 135.3840
572.3069, 153.7805
572.7890, 174.7068
573.2711, 181.5381
573.7532, 167.2107
574.2354, 147.0864
574.7175, 130.4263
575.1996, 117.9597
575.6817, 114.1016
576.1638, 131.9021
576.6459, 143.8372
577.1281, 127.1907
577.6102, 103.5198
578.0923, 106.5691
578.5744, 139.2798
579.0565, 171.3040
579.5386, 172.4817
580.0208, 149.0586
580.5029, 140.2034
580.9850, 152.2671
581.4671, 163.5093
581.9492, 159.9543
582.4313, 159.6089
582.9134, 185.9980
583.3955, 238.0454
583.8776, 269.5776
584.3597, 242.6846
584.8419, 198.7937
585.3240, 178.2239
585.8061, 179.2529
586.2882, 189.1838
586.7703, 202.3521
587.2524, 219.1697
587.7346, 242.6140
588.2167, 278.5947
588.6988, 303.7546
589.1809, 304.2668
589.6630, 306.6396
590.1451, 319.9058
590.6273, 339.4878
591.1094, 356.6238
591.5915, 367.2827
592.0736, 383.1860
592.5557, 420.2954
593.0378, 472.2551
593.5200, 519.9185
594.0021, 560.0308
594.4842, 602.1890
594.9663, 653.9487
595.4484, 711.8057
595.9305, 762.9375
596.4127, 793.1367
596.8948, 839.3501
597.3769, 918.2886
597.8590, 998.9819
598.3411, 1055.082
598.8232, 1096.168
599.3054, 1151.591
599.7875, 1237.738
600.2696, 1339.727
600.7517, 1430.033
601.2338, 1510.239
601.7159, 1618.403
602.1981, 1770.186
602.6802, 1926.661
603.1623, 2054.904
603.6444, 2158.847
604.1265, 2273.613
604.6086, 2407.341
605.0908, 2541.332
605.5729, 2678.699
606.0550, 2809.076
606.5371, 2921.269
607.0192, 3014.671
607.5013, 3098.115
607.9835, 3178.525
608.4656, 3252.327
608.9477, 3307.397
609.4298, 3341.743
609.9119, 3369.004
610.3940, 3395.481
610.8762, 3412.000
611.3583, 3409.945
611.8404, 3390.275
612.3225, 3353.010
612.8046, 3295.183
613.2867, 3223.054
613.7689, 3140.761
614.2510, 3045.927
614.7331, 2929.794
615.2152, 2792.863
615.6973, 2655.487
616.1794, 2540.817
616.6616, 2444.890
617.1437, 2321.084
617.6258, 2155.931
618.1079, 1999.764
618.5900, 1867.871
619.0721, 1752.737
619.5543, 1649.845
620.0364, 1559.132
620.5185, 1467.812
621.0006, 1356.043
621.4827, 1256.772
621.9648, 1202.660
622.4470, 1178.682
622.9291, 1154.704
623.4112, 1120.622
623.8933, 1077.173
624.3754, 1021.963
624.8575, 954.0024
625.3397, 906.2065
625.8218, 889.4531
626.3039, 871.6523
626.7860, 840.8225
627.2681, 803.7070
627.7502, 765.9829
628.2324, 728.3430
628.7145, 691.0034
629.1966, 648.7122
629.6787, 611.3401
630.1608, 595.1079
630.6429, 592.3008
631.1251, 579.9507
631.6072, 548.7305
632.0893, 507.2112
632.5714, 467.4873
633.0535, 429.5225
633.5356, 393.6711
634.0178, 360.6057
634.4999, 328.3540
634.9820, 294.9983
635.4641, 262.5410
635.9462, 232.8594
636.4283, 206.1316
636.9105, 183.0850
637.3926, 166.7532
637.8747, 152.2300
638.3568, 131.0391
638.8389, 106.3582
639.3210, 91.08765
639.8032, 91.35303
640.2853, 97.93457
640.7674, 95.96558
641.2495, 84.35498
641.7316, 69.31958
642.2137, 43.88525
642.6959, 25.35132
643.1780, 27.39624
643.6601, 36.77661
644.1422, 36.63232
644.6243, 23.89575
645.1064, 7.074707
645.5886, 14.93262
646.0707, 35.36035
646.5528, 45.39429
647.0349, 46.68140
647.5170, 47.19922
647.9991, 50.69971
648.4813, 52.99023
648.9634, 44.92090
649.4455, 22.66602
649.9276, 13.20312
650.4097, 27.66260
650.8918, 37.94897
651.3740, 27.99487
651.8561, 9.197021
652.3382, 4.224365
652.8203, 9.953613
653.3024, 13.72021
653.7845, 16.56226
654.2667, 19.59302
654.7488, 22.87183
655.2309, 27.26147
655.7130, 35.92065
656.1951, 50.24072
656.6772, 65.95312
657.1594, 72.75635
657.6415, 67.52466
658.1236, 85.50928
658.6057, 140.8474
659.0878, 193.6125
659.5699, 221.7881
660.0521, 239.2886
660.5342, 264.4722
661.0163, 300.5532
661.4984, 331.1226
661.9805, 344.0439
662.4626, 354.7471
662.9448, 374.1177
663.4269, 401.7935
663.9090, 437.8042
664.3911, 481.6262
664.8732, 524.6763
665.3553, 556.9893
665.8375, 578.6484
666.3196, 584.7598
666.8017, 568.4036
667.2838, 555.8560
667.7659, 562.2207
668.2480, 575.6580
668.7302, 576.3125
669.2123, 561.4006
669.6944, 554.9360
670.1765, 571.8877
670.6586, 588.2686
671.1407, 590.2236
671.6229, 581.0432
672.1050, 567.1548
672.5870, 550.6516
673.0692, 530.8743
673.5513, 505.2712
674.0334, 475.4773
674.5155, 450.5234
674.9976, 431.0952
675.4797, 412.3967
675.9619, 393.4851
676.4440, 373.3914
676.9261, 349.0020
677.4082, 318.4592
677.8903, 299.0552
678.3724, 303.0986
678.8546, 304.6460
679.3367, 288.9709
679.8188, 267.9497
680.3009, 255.9175
680.7830, 255.3938
681.2651, 260.2163
681.7473, 266.8813
682.2294, 274.7366
682.7115, 285.1992
683.1936, 297.3584
683.6757, 298.5786
684.1578, 283.3325
684.6400, 263.2319
685.1221, 249.7205
685.6042, 242.7883
686.0863, 243.3677
686.5684, 265.9290
687.0505, 277.1785
687.5327, 268.0757
688.0148, 249.2461
688.4969, 225.4421
688.9790, 199.0300
689.4611, 177.9070
689.9432, 163.6814
690.4254, 159.4099
690.9075, 175.2502
691.3896, 203.0303
691.8717, 219.7422
692.3538, 221.0474
692.8359, 222.2212
693.3181, 237.4980
693.8002, 261.1323
694.2823, 264.1260
694.7644, 232.4438
695.2465, 212.5957
695.7286, 219.6101
696.2108, 230.3936
696.6929, 233.3303
697.1750, 229.7397
697.6571, 222.8491
698.1392, 207.9958
698.6213, 201.2615
699.1035, 216.8281
699.5856, 241.6907
700.0677, 267.1582
700.5498, 287.7129
701.0319, 288.1157
701.5140, 258.2754
701.9962, 216.8774
702.4783, 201.7581
702.9604, 214.6167
703.4425, 216.3271
703.9246, 201.4172
704.4067, 182.3789
704.8889, 163.3364
705.3710, 146.2588
705.8531, 135.5410
706.3352, 133.5337
706.8173, 130.7134
707.2994, 125.2910
707.7816, 119.8274
708.2637, 114.8076
708.7458, 110.5132
709.2279, 108.3770
709.7100, 107.8762
710.1921, 105.1946
710.6743, 97.10474
711.1564, 84.81226
711.6385, 66.15991
712.1206, 41.61011
712.6027, 29.10400
713.0848, 36.14575
713.5670, 54.36230
714.0491, 73.66626
714.5312, 94.32593
715.0133, 109.7388
715.4954, 123.1482
715.9775, 126.3682
716.4597, 110.3562
716.9418, 89.22412
717.4239, 71.79370
717.9060, 60.22046
718.3881, 59.54639
718.8702, 81.50244
719.3524, 105.0864
719.8345, 111.0886
720.3166, 107.4902
720.7987, 108.3374
721.2808, 116.0505
721.7629, 126.1179
722.2451, 135.5911
722.7272, 143.4219
723.2093, 146.2175
723.6914, 143.6082
724.1735, 137.5188
724.6556, 124.5579
725.1378, 115.1248
725.6199, 118.6809
726.1020, 131.1287
726.5841, 138.4275
727.0662, 138.3748
727.5483, 137.4634
728.0305, 139.5439
728.5126, 138.8003
728.9947, 129.2646
729.4768, 114.1660
729.9589, 98.91992
730.4410, 85.42065
730.9232, 77.77954
731.4053, 86.67285
731.8874, 103.1577
732.3695, 100.5139
732.8516, 79.52295
733.3337, 65.88940
733.8159, 70.85791
734.2980, 85.02441
734.7801, 95.95190
735.2622, 104.0974
735.7443, 103.1909
736.2264, 84.56470
736.7086, 69.88965
737.1907, 68.26855
737.6728, 69.99048
738.1549, 64.07080
738.6370, 51.65015
739.1191, 47.60205
739.6013, 66.10059
740.0834, 84.21753
740.5655, 89.01123
741.0476, 84.55420
741.5297, 76.21875
742.0118, 66.15552
742.4940, 58.08569
742.9761, 55.16138
743.4582, 54.03711
743.9403, 48.04028
744.4224, 37.28687
744.9045, 21.08130
745.3867, 4.129639
745.8688, 17.74756
746.3509, 2.344971
746.8330, 31.36548
747.3151, 52.93945
747.7972, 59.60791
748.2794, 59.01489
748.7615, 40.45190
749.2436, 26.66382
749.7257, 32.31982
750.2078, 46.69629
750.6899, 53.47168
751.1721, 49.11572
751.6542, 43.97754
752.1363, 43.72510
752.6184, 45.95605
753.1005, 48.33643
753.5826, 51.06689
754.0648, 56.69531
754.5469, 65.31250
755.0290, 69.19531
755.5111, 57.74805
755.9932, 36.74243
756.4753, 36.93018
756.9575, 63.76147
757.4396, 72.44482
757.9217, 44.32788
758.4038, 14.09863
758.8859, 13.95850
759.3680, 38.65503
759.8502, 51.02344
760.3323, 37.75317
760.8144, 32.36865
761.2965, 49.02734
761.7786, 63.87305
762.2607, 57.29321
762.7428, 37.82739
763.2249, 25.52197
763.7070, 27.49072
764.1891, 31.44922
764.6713, 31.43384
765.1534, 26.22827
765.6355, 8.575684
766.1176, 16.64282
766.5997, 30.02295
767.0818, 23.68628
767.5640, 11.66943
768.0461, 10.99194
768.5282, 19.94434
769.0103, 18.64722
769.4924, 3.276123
769.9745, 5.148682
770.4567, 2.641113
770.9388, 12.22437
771.4209, 9.245117
771.9030, 3.681152
772.3851, 9.729980
772.8672, 2.066895
773.3494, 1.736816
773.8315, 23.56665
774.3136, 43.84009
774.7957, 41.71753
775.2778, 23.74072
775.7599, 8.999756
776.2421, 4.458252
776.7242, 6.744141
777.2063, 13.51416
777.6884, 21.96753
778.1705, 35.44385
778.6526, 50.97461
779.1348, 54.17163
779.6169, 39.01196
780.0990, 21.27173
780.5811, 26.18091
781.0632, 50.35767
781.5453, 48.55347
782.0275, 13.79639
782.5096, 3.274658
782.9917, 18.64966
783.4738, 49.40552
783.9559, 55.80737
784.4380, 39.15259
784.9202, 39.76196
785.4023, 83.46362
785.8844, 108.6091
786.3665, 92.66382
786.8486, 67.74609
787.3307, 52.82446
787.8129, 48.44409
788.2950, 52.49805
788.7771, 68.34399
789.2592, 78.70874
789.7413, 63.69897
790.2234, 43.94165
790.7056, 45.87476
791.1877, 64.45020
791.6698, 82.67993
792.1519, 93.61938
792.6340, 95.37915
793.1161, 81.30933
793.5983, 56.48242
794.0804, 43.10474
794.5625, 41.31616
795.0446, 45.76538
795.5267, 57.44287
796.0089, 64.43726
796.4910, 52.43359
796.9731, 24.62939
797.4552, 10.86011
797.9373, 9.611328
798.4194, 34.32593
798.9016, 60.04688
799.3837, 68.52905
799.8658, 8.146240
800.3479, 36.69141
800.8300, 29.59839
801.3121, 21.04517
801.7943, 62.10693
802.2764, 11.74292
802.7585, 52.01855
803.2406, 56.05859
803.7227, 76.32227
804.2048, 61.08862
804.6870, 57.65503
805.1691, 53.79150
805.6512, 36.98682
806.1333, 20.12329
806.6154, 34.44727
807.0975, 69.75659
807.5797, 81.16064
808.0618, 60.00073
808.5439, 38.59521
809.0260, 43.06421
809.5081, 63.91772
809.9902, 71.67969
810.4724, 64.11035
810.9545, 54.87720
811.4366, 41.79492
811.9187, 34.37085
812.4008, 41.39062
812.8829, 54.69067
813.3651, 58.65454
813.8472, 51.43066
814.3293, 42.83276
814.8114, 25.14136
815.2935, 15.87207
815.7756, 31.78882
816.2578, 51.53687
816.7399, 48.07983
817.2220, 24.31177
817.7041, 12.07568
818.1862, 36.00146
818.6683, 59.43896
819.1505, 52.74365
819.6326, 32.16626
820.1147, 15.07495
820.5968, 5.290283
821.0789, 6.439697
821.5610, 20.75269
822.0432, 38.49585
822.5253, 49.31128
823.0074, 52.59961
823.4895, 40.89917
823.9716, 14.60107
824.4537, 0.1477050
824.9359, 8.249512
825.4180, 24.11182
825.9001, 29.29053
826.3822, 23.97095
826.8643, 15.06909
827.3464, 1.833984
827.8286, 13.03027
828.3107, 37.64355
828.7928, 52.90674
829.2749, 37.08179
829.7570, 1.210693
830.2391, 20.87744
830.7213, 23.48169
831.2034, 24.43481
831.6855, 26.53589
832.1676, 26.90088
832.6497, 24.42847
833.1318, 19.09131
833.6140, 6.989258
834.0961, 10.95581
834.5782, 17.94922
835.0603, 3.035889
835.5424, 31.09399
836.0245, 55.43994
836.5067, 71.75171
836.9888, 69.23877
837.4709, 50.30884
837.9530, 32.28564
838.4351, 26.09009
838.9172, 23.94165
839.3994, 10.65015
839.8815, 9.091553
840.3636, 12.63086
840.8457, 1.121582
841.3278, 14.15112
841.8099, 19.30420
842.2921, 17.72217
842.7742, 8.983398
843.2563, 6.276611
843.7384, 9.725342
844.2205, 1.195557
844.7026, 16.57764
845.1848, 38.24438
845.6669, 57.87842
846.1490, 67.51172
846.6311, 69.57690
847.1132, 75.08691
847.5953, 92.37866
848.0775, 97.47314
848.5596, 74.46729
849.0417, 55.40503
849.5238, 56.04956
850.0059, 68.93164
850.4880, 88.25977
850.9702, 112.2815
851.4523, 121.4016
851.9343, 89.92603
852.4164, 60.85205
852.8986, 68.83325
853.3807, 90.26611
853.8628, 92.88037
854.3449, 77.79346
854.8270, 67.79272
855.3091, 75.37354
855.7913, 89.05200
856.2734, 101.1091
856.7555, 109.5557
857.2376, 109.4604
857.7197, 102.3098
858.2018, 95.13818
858.6840, 90.65625
859.1661, 90.49805
859.6482, 97.71729
860.1303, 110.4065
860.6124, 119.8145
861.0945, 125.8472
861.5767, 130.4006
862.0588, 133.3105
862.5409, 137.5583
863.0230, 146.9707
863.5051, 157.1763
863.9872, 154.2659
864.4694, 128.7068
864.9515, 121.3296
865.4336, 142.6179
865.9157, 165.4517
866.3978, 184.3977
866.8799, 197.3533
867.3621, 200.1218
867.8442, 192.8887
868.3263, 187.3784
868.8084, 186.0371
869.2905, 184.6670
869.7726, 187.2766
870.2548, 185.0847
870.7369, 165.3003
871.2190, 137.0530
871.7011, 118.7314
872.1832, 114.2451
872.6653, 125.8530
873.1475, 175.5354
873.6296, 221.8247
874.1117, 223.0972
874.5938, 199.7271
875.0759, 186.0747
875.5580, 187.4949
876.0402, 186.9270
876.5223, 169.6279
877.0044, 153.2041
877.4865, 163.7888
877.9686, 191.1484
878.4507, 217.8938
878.9329, 239.5864
879.4150, 241.7432
879.8971, 217.5725
880.3792, 191.0439
880.8613, 197.1787
881.3434, 227.4929
881.8256, 236.7759
882.3077, 224.9399
882.7898, 219.2966
883.2719, 226.2236
883.7540, 237.3850
884.2361, 247.8318
884.7183, 254.3523
885.2004, 244.1926
885.6825, 208.2852
886.1646, 194.1055
886.6467, 218.1721
887.1288, 231.8235
887.6110, 206.0596
888.0931, 169.9065
888.5752, 165.9561
889.0573, 195.9683
889.5394, 210.7363
890.0215, 192.8037
890.5037, 183.2822
890.9858, 194.5669
891.4679, 207.6858
891.9500, 212.0837
892.4321, 208.7815
892.9142, 200.6804
893.3964, 185.7749
893.8785, 170.9946
894.3606, 157.4980
894.8427, 145.3721
895.3248, 132.6531
895.8069, 123.0212
896.2891, 118.3936
896.7712, 119.7495
897.2533, 132.3865
897.7354, 166.1421
898.2175, 194.6296
898.6996, 199.6592
899.1818, 191.3694
899.6639, 174.8708
900.1460, 154.7363
900.6281, 141.1116
901.1102, 136.9727
901.5923, 134.6689
902.0745, 125.2236
902.5566, 114.8372
903.0387, 113.4675
903.5208, 121.4438
904.0029, 133.6309
904.4850, 145.9287
904.9672, 158.6807
905.4493, 173.3567
905.9314, 187.0798
906.4135, 196.1331
906.8956, 199.6880
907.3777, 193.2988
907.8599, 177.7830
908.3420, 161.6897
908.8241, 146.7717
909.3062, 144.2344
909.7883, 168.2666
910.2704, 206.9543
910.7526, 215.8396
911.2347, 191.6565
911.7168, 173.7527
912.1989, 165.6895
912.6810, 162.3015
913.1631, 163.6997
913.6453, 167.5823
914.1274, 170.2263
914.6095, 172.4685
915.0916, 165.3765
915.5737, 137.3403
916.0558, 132.9802
916.5380, 177.3398
917.0201, 215.6089
917.5022, 206.8718
917.9843, 170.0061
918.4664, 149.0652
918.9485, 146.3547
919.4307, 151.5601
919.9128, 178.4111
920.3949, 196.3689
920.8770, 195.1560
921.3591, 183.6606
921.8412, 162.7686
922.3234, 137.5330
922.8055, 128.2515
923.2876, 153.7969
923.7697, 165.1736
924.2518, 130.7300
924.7339, 101.5359
925.2161, 116.1064
925.6982, 149.1465
926.1803, 165.4089
926.6624, 160.3884
927.1445, 149.9170
927.6266, 133.9221
928.1088, 122.1628
928.5909, 120.1802
929.0730, 124.2776
929.5551, 136.0825
930.0372, 149.7930
930.5193, 153.7393
931.0015, 144.4399
931.4836, 129.5691
931.9657, 106.9644
932.4478, 88.20361
932.9299, 86.92529
933.4120, 95.61499
933.8942, 105.3958
934.3763, 113.1548
934.8584, 114.1597
935.3405, 105.2747
935.8226, 96.47412
936.3047, 103.2092
936.7869, 113.7180
937.2690, 104.1619
937.7511, 81.90869
938.2332, 72.29419
938.7153, 79.07739
939.1974, 81.54419
939.6796, 63.24951
940.1617, 36.98950
940.6438, 20.75684
941.1259, 14.22363
941.6080, 19.53589
942.0901, 34.76196
942.5722, 47.98950
943.0543, 54.90942
943.5364, 59.11304
944.0186, 64.75757
944.5007, 69.76514
944.9828, 67.14453
945.4649, 57.58716
945.9470, 46.08813
946.4291, 33.25269
946.9113, 28.76807
947.3934, 38.45972
947.8755, 50.71216
948.3576, 47.67358
948.8397, 31.86475
949.3218, 23.46143
949.8040, 22.16113
950.2861, 35.96191
950.7682, 70.20483
951.2503, 98.70264
951.7324, 105.3840
952.2145, 94.14673
952.6967, 69.33350
953.1788, 28.38306
953.6609, 5.799561
954.1430, 3.489502
954.6251, 15.18604
955.1072, 47.39331
955.5894, 71.66479
956.0715, 61.04150
956.5536, 27.34082
957.0357, 9.472168
957.5178, 13.69751
957.9999, 10.57471
958.4821, 6.686768
958.9642, 14.69482
959.4463, 3.472656
959.9284, 20.12671
960.4105, 1.013916
960.8926, 45.31177
961.3748, 61.50293
961.8569, 26.99341
962.3390, 6.193359
962.8211, 9.347168
963.3032, 13.13184
963.7853, 7.061279
964.2675, 2.102051
964.7496, 6.093262
965.2317, 5.010986
965.7138, 4.680908
966.1959, 7.974365
966.6780, 7.520996
967.1602, 5.341064
967.6423, 12.84839
968.1244, 0.7175290
968.6065, 21.00757
969.0886, 27.48486
969.5707, 19.17090
970.0529, 5.952148
970.5350, 27.36523
971.0171, 42.98438
971.4992, 11.63330
971.9813, 16.11523
972.4634, 3.052002
972.9456, 42.83008
973.4277, 49.65845
973.9098, 12.97852
974.3919, 6.250977
974.8740, 20.90039
975.3561, 40.17676
975.8383, 28.89478
976.3204, 10.84863
976.8025, 3.770508
977.2846, 4.344971
977.7667, 1.556152
978.2488, 7.621094
978.7310, 12.48413
979.2131, 1.949951
979.6952, 5.320801
980.1773, 26.90332
980.6594, 65.14893
981.1415, 84.95264
981.6237, 87.36890
982.1058, 80.01587
982.5879, 60.34814
983.0700, 47.37793
983.5521, 46.18652
984.0342, 53.73364
984.5164, 78.73975
984.9985, 104.2415
985.4806, 109.2451
985.9627, 98.12915
986.4448, 93.44604
986.9269, 105.3657
987.4091, 111.0181
987.8912, 88.29395
988.3733, 72.05591
988.8554, 98.03979
989.3375, 132.1279
989.8196, 127.8271
990.3018, 89.36060
990.7839, 59.65137
991.2660, 54.45435
991.7481, 53.28345
992.2302, 51.38599
992.7123, 46.57031
993.1945, 29.56128
993.6766, 13.42993
994.1587, 18.42725
994.6408, 43.04565
995.1229, 64.88477
995.6050, 75.55737
996.0872, 83.30225
996.5693, 87.53003
997.0514, 94.79419
997.5335, 111.3091
998.0156, 132.6357
998.4977, 154.9319
998.9799, 176.4175
999.4620, 191.7141
999.9441, 191.6714
1000.426, 198.5254
1000.908, 232.7043
1001.390, 267.9270
1001.873, 283.6692
1002.355, 286.6899
1002.837, 284.5676
1003.319, 281.0347
1003.801, 288.7144
1004.283, 318.9026
1004.765, 350.7112
1005.247, 378.4282
1005.729, 400.6182
1006.212, 409.1846
1006.694, 414.5190
1007.176, 438.4500
1007.658, 480.9438
1008.140, 509.6096
1008.622, 506.4045
1009.104, 494.5332
1009.586, 487.7888
1010.069, 473.9116
1010.551, 436.9773
1011.033, 388.5532
1011.515, 345.3467
1011.997, 311.6802
1012.479, 288.9988
1012.961, 283.9600
1013.443, 280.6143
1013.925, 274.5769
1014.408, 264.5151
1014.890, 243.6348
1015.372, 221.6482
1015.854, 217.6509
1016.336, 230.7834
1016.818, 228.9243
1017.300, 188.5498
1017.782, 151.7400
1018.265, 133.1897
1018.747, 121.2480
1019.229, 117.6863
1019.711, 117.8408
1020.193, 105.9067
1020.675, 80.49536
1021.157, 67.00366
1021.639, 84.61255
1022.121, 101.1321
1022.604, 103.1152
1023.086, 102.4062
1023.568, 109.3044
1024.050, 117.8931
1024.532, 119.3411
1025.014, 111.8245
1025.496, 97.87427
1025.978, 65.69922
1026.460, 48.15161
1026.943, 67.81958
1027.425, 87.98340
1027.907, 78.10229
1028.389, 57.83838
1028.871, 62.94385
1029.353, 96.67310
1029.835, 121.1321
1030.317, 127.9866
1030.800, 120.6755
1031.282, 92.99414
1031.764, 66.50171
1032.246, 42.38232
1032.728, 25.81714
1033.210, 33.62793
1033.692, 65.23193
1034.174, 81.62622
1034.656, 65.18481
1035.139, 52.06396
1035.621, 42.64722
1036.103, 41.37793
1036.585, 56.47705
1037.067, 76.19531
1037.549, 85.32690
1038.031, 85.53613
1038.513, 93.54712
1038.995, 117.0481
1039.478, 136.3438
1039.960, 142.4639
1040.442, 155.9409
1040.924, 186.1621
1041.406, 225.1902
1041.888, 264.6650
1042.370, 305.4951
1042.852, 355.4355
1043.335, 430.7017
1043.817, 479.3906
1044.299, 485.4570
1044.781, 493.4248
1045.263, 515.6931
1045.745, 548.9695
1046.227, 593.4922
1046.709, 645.5850
1047.192, 691.9805
1047.674, 738.8188
1048.156, 758.5181
1048.638, 743.9761
1049.120, 719.8340
1049.602, 686.4075
1050.084, 662.1846
1050.566, 664.2305
1051.048, 685.3306
1051.531, 705.2852
1052.013, 723.7241
1052.495, 741.8376
1052.977, 757.1450
1053.459, 787.4023
1053.941, 839.0815
1054.423, 897.8154
1054.905, 955.1279
1055.387, 1005.834
1055.870, 1033.063
1056.352, 1038.045
1056.834, 1064.916
1057.316, 1113.997
1057.798, 1175.942
1058.280, 1250.252
1058.762, 1294.748
1059.244, 1281.279
1059.727, 1239.824
1060.209, 1215.209
1060.691, 1204.475
1061.173, 1197.689
1061.655, 1192.540
1062.137, 1171.178
1062.619, 1131.799
1063.101, 1081.598
1063.583, 1023.569
1064.066, 982.6108
1064.548, 1001.897
1065.030, 1047.025
1065.512, 1032.232
1065.994, 978.9761
1066.476, 947.1768
1066.958, 940.5886
1067.440, 937.1582
1067.922, 928.7168
1068.405, 928.2520
1068.887, 955.2134
1069.369, 984.4543
1069.851, 976.7710
1070.333, 951.2192
1070.815, 942.5962
1071.297, 943.8962
1071.779, 926.5081
1072.262, 885.0620
1072.744, 844.0356
1073.226, 820.3293
1073.708, 799.7544
1074.190, 776.3833
1074.672, 745.1978
1075.154, 693.3071
1075.636, 633.4805
1076.118, 585.0093
1076.601, 550.9253
1077.083, 523.8337
1077.565, 500.7869
1078.047, 483.8503
1078.529, 480.4209
1079.011, 476.0967
1079.493, 462.0474
1079.975, 441.4175
1080.458, 415.1855
1080.940, 386.1670
1081.422, 362.9216
1081.904, 348.8872
1082.386, 334.5815
1082.868, 317.5193
1083.350, 300.6304
1083.832, 275.9722
1084.314, 260.3936
1084.797, 281.1497
1085.279, 317.9031
1085.761, 318.0383
1086.243, 271.0466
1086.725, 234.2390
1087.207, 205.9329
1087.689, 192.1211
1088.171, 205.3381
1088.653, 214.9160
1089.136, 203.7102
1089.618, 178.8828
1090.100, 148.8193
1090.582, 114.6562
1091.064, 92.12646
1091.546, 81.84302
1092.028, 79.65527
1092.510, 88.82056
1092.993, 90.28540
1093.475, 75.04907
1093.957, 52.02368
1094.439, 26.89331
1094.921, 7.169678
1095.403, 29.62183
1095.885, 91.00342
1096.367, 112.0925
1096.849, 90.93433
1097.332, 75.83105
1097.814, 81.12329
1098.296, 98.52490
1098.778, 123.5759
1099.260, 147.8792
1099.742, 152.6587
1100.224, 147.5962
1100.706, 159.9668
1101.188, 185.7041
1101.671, 210.1206
1102.153, 231.1611
1102.635, 253.3481
1103.117, 278.6497
1103.599, 314.3630
1104.081, 383.7947
1104.563, 452.6929
1105.045, 464.7859
1105.528, 460.0793
1106.010, 502.3652
1106.492, 579.0354
1106.974, 640.4114
1107.456, 673.6807
1107.938, 704.3391
1108.420, 751.8315
1108.902, 791.7236
1109.385, 801.4497
1109.867, 808.5544
1110.349, 837.8643
1110.831, 876.0244
1111.313, 906.3159
1111.795, 925.4561
1112.277, 928.7927
1112.759, 906.2561
1113.241, 886.2700
1113.724, 887.0452
1114.206, 872.1987
1114.688, 811.1433
1115.170, 745.6616
1115.652, 711.4238
1116.134, 698.2422
1116.616, 679.3923
1117.098, 656.8577
1117.580, 615.0811
1118.063, 543.6611
1118.545, 486.4263
1119.027, 454.4805
1119.509, 428.2554
1119.991, 395.9666
1120.473, 366.2446
1120.955, 355.4009
1121.437, 357.2471
1121.920, 331.0691
1122.402, 278.8027
1122.884, 240.2083
1123.366, 218.6917
1123.848, 200.4292
1124.330, 180.6548
1124.812, 175.3074
1125.294, 202.3088
1125.776, 237.8672
1126.259, 246.3796
1126.741, 231.8831
1127.223, 189.3977
1127.705, 134.5562
1128.187, 108.0486
1128.669, 111.9724
1129.151, 117.3157
1129.633, 110.7153
1130.115, 99.68359
1130.598, 87.26050
1131.080, 75.88037
1131.562, 66.80566
1132.044, 60.37256
1132.526, 59.55957
1133.008, 60.93579
1133.490, 55.85938
1133.972, 42.86353
1134.455, 34.90332
1134.937, 40.81201
1135.419, 44.42432
1135.901, 35.76685
1136.383, 31.03052
1136.865, 47.97510
1137.347, 65.96118
1137.829, 57.92505
1138.312, 29.91235
1138.794, 12.01880
1139.276, 6.235840
1139.758, 4.680176
1140.240, 9.870361
1140.722, 10.09106
1141.204, 0.6535640
1141.686, 3.816162
1142.168, 15.55591
1142.651, 40.06543
1143.133, 39.77661
1143.615, 19.19849
1144.097, 2.485107
1144.579, 9.647949
1145.061, 9.557129
1145.543, 2.177246
1146.025, 16.09595
1146.507, 28.00391
1146.990, 27.99854
1147.472, 3.292236
1147.954, 27.24731
1148.436, 38.70605
1148.918, 37.74268
1149.400, 28.46362
1149.882, 16.92798
1150.364, 17.26538
1150.847, 28.05713
1151.329, 31.54712
1151.811, 19.02393
1152.293, 6.151611
1152.775, 3.650879
1153.257, 1.866943
1153.739, 7.601807
1154.221, 18.35742
1154.703, 23.14307
1155.186, 22.36499
1155.668, 19.67773
1156.150, 15.91260
1156.632, 11.97803
1157.114, 0.7785640
1157.596, 4.003906
1158.078, 34.19019
1158.560, 57.34937
1159.042, 56.83472
1159.525, 50.70337
1160.007, 56.97583
1160.489, 66.29663
1160.971, 50.66431
1161.453, 11.61841
1161.935, 9.598389
1162.417, 14.60620
1162.899, 10.54980
1163.382, 0.8022460
1163.864, 16.98682
1164.346, 36.82178
1164.828, 51.61206
1165.310, 49.32007
1165.792, 41.34155
1166.274, 45.53491
1166.756, 56.24902
1167.238, 68.25488
1167.721, 76.26562
1168.203, 64.41284
1168.685, 36.82471
1169.167, 25.48315
1169.649, 47.96387
1170.131, 68.58667
1170.613, 74.49316
1171.095, 68.18115
1171.578, 33.79126
1172.060, 4.329834
1172.542, 15.69702
1173.024, 48.90674
1173.506, 63.75220
1173.988, 58.53491
1174.470, 51.17212
1174.952, 38.93286
1175.434, 30.97192
1175.917, 26.77710
1176.399, 31.05176
1176.881, 46.92773
1177.363, 67.92871
1177.845, 91.25439
1178.327, 108.6895
1178.809, 93.79517
1179.291, 54.21460
1179.773, 46.96094
1180.256, 64.68115
1180.738, 66.63721
1181.220, 50.16626
1181.702, 33.69043
1182.184, 25.67529
1182.666, 28.73413
1183.148, 50.47729
1183.630, 73.89062
1184.113, 81.17944
1184.595, 82.48462
1185.077, 89.32495
1185.559, 96.92480
1186.041, 92.31055
1186.523, 80.02832
1187.005, 85.71118
1187.487, 124.6377
1187.969, 140.4028
1188.452, 99.18774
1188.934, 66.73389
1189.416, 61.44287
1189.898, 64.22070
1190.380, 67.94263
1190.862, 71.64673
1191.344, 75.16699
1191.826, 77.25806
1192.308, 67.76660
1192.791, 45.10986
1193.273, 43.48535
1193.755, 64.05688
1194.237, 75.40796
1194.719, 70.22437
1195.201, 60.39429
1195.683, 52.57593
1196.165, 51.75000
1196.648, 74.14624
1197.130, 97.90063
1197.612, 83.69385
1198.094, 51.22827
1198.576, 23.92578
1199.058, 6.684570
1199.540, 5.141113
1200.022, 18.32397
1200.505, 35.16626
1200.987, 56.73315
1201.469, 67.74536
1201.951, 56.37476
1202.433, 42.34033
1202.915, 32.29248
1203.397, 24.41699
1203.879, 16.26440
1204.361, 9.665039
1204.844, 8.354248
1205.326, 11.94629
1205.808, 12.80273
1206.290, 11.28052
1206.772, 4.760742
1207.254, 7.166748
1207.736, 11.46729
1208.218, 4.543945
1208.700, 1.170166
1209.183, 10.54419
1209.665, 21.70874
1210.147, 16.80933
1210.629, 7.163574
1211.111, 18.56592
1211.593, 35.56445
1212.075, 27.40918
1212.557, 2.061035
1213.040, 15.24463
1213.522, 19.11255
1214.004, 20.06958
1214.486, 22.38452
1214.968, 19.98853
1215.450, 1.937500
1215.932, 13.31714
1216.414, 8.854492
1216.896, 36.21021
1217.379, 52.14282
1217.861, 55.74048
1218.343, 41.06519
1218.825, 10.55225
1219.307, 7.441650
1219.789, 34.87671
1220.271, 50.88599
1220.753, 52.23535
1221.235, 48.77881
1221.718, 43.59302
1222.200, 38.35791
1222.682, 34.29175
1223.164, 29.93481
1223.646, 17.72339
1224.128, 9.348389
1224.610, 31.11865
1225.092, 59.74243
1225.575, 59.29761
1226.057, 39.70947
1226.539, 25.78931
1227.021, 22.19824
1227.503, 23.71997
1227.985, 33.39111
1228.467, 37.86426
1228.949, 26.10181
1229.432, 22.03101
1229.914, 37.05713
1230.396, 52.56470
1230.878, 56.62988
1231.360, 56.03003
1231.842, 61.58521
1232.324, 70.85913
1232.806, 68.51978
1233.288, 56.84155
1233.771, 59.78369
1234.253, 74.28125
1234.735, 73.54053
1235.217, 54.70361
1235.699, 43.29565
1236.181, 54.55591
1236.663, 71.73462
1237.145, 89.14526
1237.627, 95.60889
1238.110, 54.16309
1238.592, 14.44629
1239.074, 23.37012
1239.556, 57.51782
1240.038, 71.44092
1240.520, 61.68384
1241.002, 67.10400
1241.484, 97.28467
1241.967, 116.9331
1242.449, 112.9697
1242.931, 113.2480
1243.413, 134.3911
1243.895, 145.4287
1244.377, 131.9355
1244.859, 117.1028
1245.341, 125.4202
1245.823, 146.4575
1246.306, 134.6943
1246.788, 103.2041
1247.270, 97.63574
1247.752, 105.6650
1248.234, 94.37964
1248.716, 73.07959
1249.198, 66.34204
1249.680, 82.11597
1250.162, 97.80713
1250.645, 110.9673
1251.127, 115.5615
1251.609, 114.0786
1252.091, 114.7251
1252.573, 109.9602
1253.055, 108.6030
1253.537, 109.7263
1254.019, 111.0154
1254.502, 113.4695
1254.984, 115.9326
1255.466, 112.7134
1255.948, 105.0237
1256.430, 109.9983
1256.912, 124.3586
1257.394, 112.8694
1257.876, 71.28760
1258.358, 43.54175
1258.841, 53.34790
1259.323, 68.68677
1259.805, 63.86841
1260.287, 54.90967
1260.769, 50.50708
1261.251, 49.66284
1261.733, 59.57861
1262.215, 67.15967
1262.698, 43.33130
1263.180, 0.1486820
1263.662, 0.5798340
1264.144, 55.98560
1264.626, 70.52588
1265.108, 24.13892
1265.590, 6.5430000E-02
1266.072, 0.0000000E+00
##END=



