##NAMES=Nchwaningite
##RRUFFID=R140275
##IDEAL CHEMISTRY=Mn^2+^_2_SiO_3_(OH)_2_&#183;H_2_O
##LOCALITY=N'Chwaning mine, Kuruman, Kalahari manganese field, Northern Cape Province, South Africa
##OWNER=RRUFF
##SOURCE=Rock Currier
##DESCRIPTION=Micro brown tufts
##STATUS=The identification of this mineral has been confirmed by single-crystal X-ray diffraction.
##URL=rruff.info/R140275
100.2380, 0.0000000E+00
100.7201, 0.9225080
101.2023, 1.198997
101.6844, 0.5945820
102.1665, 0.5486150
102.6486, 1.717331
103.1307, 2.568741
103.6128, 2.462654
104.0950, 1.829895
104.5771, 1.351410
105.0592, 1.663162
105.5413, 2.570465
106.0234, 4.061005
106.5055, 6.181175
106.9877, 9.382103
107.4698, 13.47661
107.9519, 16.84297
108.4340, 18.22874
108.9161, 17.93434
109.3982, 16.35021
109.8804, 14.09320
110.3625, 11.56400
110.8446, 8.622208
111.3267, 6.303757
111.8088, 5.187035
112.2909, 4.292839
112.7731, 3.058289
113.2552, 1.460159
113.7373, 9.2896000E-02
114.2194, 1.006386
114.7015, 1.064651
115.1836, 0.7302860
115.6658, 0.3867870
116.1479, 1.714325
116.6300, 2.671677
117.1121, 3.064430
117.5942, 3.102180
118.0763, 3.261536
118.5584, 3.518486
119.0406, 3.873909
119.5227, 4.325279
120.0048, 4.873222
120.4869, 5.515656
120.9690, 6.223595
121.4511, 7.073196
121.9333, 8.106361
122.4154, 9.263596
122.8975, 10.70004
123.3796, 12.74518
123.8617, 15.50864
124.3438, 17.98458
124.8260, 19.84012
125.3081, 21.08356
125.7902, 21.55578
126.2723, 21.08279
126.7544, 19.94196
127.2365, 18.60780
127.7187, 16.45238
128.2008, 15.25732
128.6829, 15.79968
129.1650, 17.38993
129.6471, 19.16055
130.1292, 20.62561
130.6114, 21.81357
131.0935, 22.94561
131.5756, 23.63959
132.0577, 24.56639
132.5398, 26.05846
133.0219, 28.33939
133.5041, 30.99493
133.9862, 33.03975
134.4683, 34.76814
134.9504, 36.72123
135.4325, 38.45043
135.9146, 40.59911
136.3968, 43.69923
136.8789, 47.70654
137.3610, 52.08427
137.8431, 56.43674
138.3252, 61.00192
138.8073, 63.79529
139.2895, 64.16602
139.7716, 62.92933
140.2537, 60.90569
140.7358, 58.22152
141.2179, 54.96909
141.7000, 50.83688
142.1821, 45.89158
142.6643, 41.63017
143.1464, 38.74164
143.6285, 37.05215
144.1106, 35.99313
144.5927, 35.84473
145.0748, 35.87032
145.5570, 35.37635
146.0391, 34.35791
146.5212, 33.23876
147.0033, 32.40845
147.4854, 31.90502
147.9675, 31.30410
148.4497, 30.39430
148.9318, 29.43622
149.4139, 28.49186
149.8960, 27.59457
150.3781, 26.86134
150.8602, 26.42812
151.3424, 26.16327
151.8245, 26.56554
152.3066, 27.89371
152.7887, 29.63033
153.2708, 31.57740
153.7529, 33.61904
154.2351, 35.49331
154.7172, 36.54561
155.1993, 36.82770
155.6814, 36.00648
156.1635, 33.70792
156.6456, 30.43016
157.1278, 26.64516
157.6099, 22.55394
158.0920, 18.44012
158.5741, 14.63782
159.0562, 10.73470
159.5383, 7.515312
160.0205, 5.442574
160.5026, 4.236961
160.9847, 3.244514
161.4668, 2.082405
161.9489, 0.8742600
162.4310, 0.1338350
162.9131, 0.1060490
163.3953, 0.2801250
163.8774, 0.5607760
164.3595, 0.9090960
164.8416, 0.8516880
165.3237, 0.2950710
165.8058, 1.957153
166.2880, 2.808170
166.7701, 2.242184
167.2522, 1.181335
167.7343, 0.6986660
168.2164, 0.9164430
168.6985, 1.136639
169.1807, 0.9457280
169.6628, 0.5135040
170.1449, 8.9039998E-03
170.6270, 0.5596350
171.1091, 1.112667
171.5912, 1.430622
172.0734, 1.347019
172.5555, 1.371864
173.0376, 1.690498
173.5197, 2.277466
174.0018, 2.999653
174.4839, 3.759125
174.9661, 4.581482
175.4482, 5.686066
175.9303, 7.416607
176.4124, 9.064434
176.8945, 10.41284
177.3766, 11.54775
177.8588, 12.61813
178.3409, 13.73520
178.8230, 14.90208
179.3051, 16.04034
179.7872, 17.51975
180.2693, 18.61761
180.7515, 19.00515
181.2336, 18.79308
181.7157, 18.27981
182.1978, 17.69763
182.6799, 17.03792
183.1620, 16.38925
183.6441, 15.84157
184.1263, 15.22575
184.6084, 14.49052
185.0905, 13.62054
185.5726, 12.56775
186.0547, 11.22794
186.5368, 9.535606
187.0190, 8.284523
187.5011, 7.633476
187.9832, 7.294308
188.4653, 7.136711
188.9474, 7.134342
189.4296, 7.158791
189.9117, 7.032112
190.3938, 6.771698
190.8759, 6.771347
191.3580, 7.073505
191.8401, 7.656944
192.3223, 8.594467
192.8044, 9.956303
193.2865, 11.35844
193.7686, 12.36251
194.2507, 13.08791
194.7328, 13.87505
195.2150, 14.76507
195.6971, 15.80445
196.1792, 17.26173
196.6613, 19.55975
197.1434, 21.39695
197.6255, 21.52746
198.1077, 20.44261
198.5898, 19.33639
199.0719, 18.98835
199.5540, 19.19847
200.0361, 18.96407
200.5182, 17.77335
201.0004, 16.80459
201.4825, 16.87651
201.9646, 17.66627
202.4467, 18.35849
202.9288, 18.21115
203.4109, 17.31030
203.8930, 17.00455
204.3752, 17.78307
204.8573, 18.66762
205.3394, 19.18617
205.8215, 19.49588
206.3036, 20.03891
206.7857, 21.26379
207.2679, 23.22283
207.7500, 24.84120
208.2321, 25.46064
208.7142, 26.32938
209.1963, 27.88063
209.6784, 30.03780
210.1606, 32.51548
210.6427, 35.12747
211.1248, 37.91537
211.6069, 40.31578
212.0890, 41.95486
212.5711, 43.58792
213.0533, 45.53027
213.5354, 47.74871
214.0175, 50.09401
214.4996, 52.49532
214.9817, 55.06992
215.4638, 56.76911
215.9460, 57.49100
216.4281, 57.66223
216.9102, 57.32592
217.3923, 56.57989
217.8744, 55.66124
218.3565, 54.79111
218.8387, 53.98358
219.3208, 53.07958
219.8029, 52.09764
220.2850, 51.00384
220.7671, 49.56487
221.2492, 47.88255
221.7314, 46.57815
222.2135, 46.27335
222.6956, 47.05170
223.1777, 47.52100
223.6598, 47.38932
224.1419, 47.11044
224.6240, 47.10809
225.1062, 47.42108
225.5883, 47.74283
226.0704, 47.79678
226.5525, 47.60344
227.0346, 47.44404
227.5167, 47.50976
227.9989, 47.53479
228.4810, 47.33332
228.9631, 46.89463
229.4452, 46.04276
229.9273, 44.41474
230.4094, 42.26057
230.8916, 40.27428
231.3737, 38.83635
231.8558, 37.47120
232.3379, 35.51540
232.8200, 32.86699
233.3021, 30.35037
233.7843, 28.62040
234.2664, 27.33220
234.7485, 25.98847
235.2306, 24.38891
235.7127, 22.74625
236.1948, 21.32494
236.6770, 20.12664
237.1591, 19.11473
237.6412, 18.41375
238.1233, 17.84090
238.6054, 17.18105
239.0875, 16.32134
239.5697, 15.41431
240.0518, 14.72751
240.5339, 14.32156
241.0160, 13.93454
241.4981, 13.39264
241.9802, 12.84787
242.4624, 12.49914
242.9445, 12.46522
243.4266, 12.49662
243.9087, 12.09563
244.3908, 11.03578
244.8729, 10.16605
245.3550, 9.901955
245.8372, 9.819939
246.3193, 9.588356
246.8014, 9.096153
247.2835, 8.402287
247.7656, 7.554119
248.2477, 6.432934
248.7299, 5.452103
249.2120, 4.670349
249.6941, 4.045040
250.1762, 3.646221
250.6583, 3.478546
251.1404, 3.303692
251.6226, 2.629711
252.1047, 1.028233
252.5868, 7.2757997E-02
253.0689, 0.2470930
253.5510, 0.1578330
254.0331, 0.2993620
254.5153, 0.7837980
254.9974, 1.348370
255.4795, 1.562466
255.9616, 1.170959
256.4437, 0.9757160
256.9258, 1.146568
257.4080, 1.368958
257.8901, 1.427971
258.3722, 1.290379
258.8543, 1.079906
259.3364, 0.9680520
259.8185, 1.019897
260.3007, 1.005432
260.7828, 1.155254
261.2649, 1.085381
261.7470, 0.4320490
262.2291, 0.7687110
262.7112, 2.100616
263.1934, 3.091110
263.6755, 3.640594
264.1576, 4.185825
264.6397, 4.665134
265.1218, 5.188789
265.6039, 5.842270
266.0861, 6.608864
266.5682, 7.375240
267.0503, 7.989563
267.5324, 8.353653
268.0145, 9.254211
268.4966, 11.01445
268.9788, 12.89674
269.4609, 14.57495
269.9430, 16.04500
270.4251, 17.46839
270.9072, 19.01566
271.3893, 20.69639
271.8715, 21.86628
272.3536, 22.02465
272.8357, 22.27567
273.3178, 23.05357
273.7999, 24.30860
274.2820, 25.84209
274.7642, 27.55835
275.2463, 29.43544
275.7284, 31.15955
276.2105, 32.50634
276.6926, 33.98178
277.1747, 35.78907
277.6568, 37.86206
278.1389, 40.02323
278.6211, 42.17068
279.1032, 44.34019
279.5853, 46.72977
280.0674, 49.43311
280.5495, 52.20240
281.0316, 55.21806
281.5138, 58.23348
281.9959, 60.80471
282.4780, 62.72800
282.9601, 64.14027
283.4422, 65.31528
283.9243, 66.32102
284.4065, 67.03897
284.8886, 67.37538
285.3707, 67.42653
285.8528, 67.21917
286.3349, 66.71486
286.8170, 66.24384
287.2992, 66.42106
287.7813, 67.39227
288.2634, 68.43057
288.7455, 69.35956
289.2276, 70.32226
289.7097, 71.54475
290.1919, 73.08835
290.6740, 74.67524
291.1561, 75.86222
291.6382, 76.52359
292.1203, 77.82442
292.6024, 80.36650
293.0846, 83.33346
293.5667, 85.98339
294.0488, 88.24197
294.5309, 90.27476
295.0130, 92.17271
295.4951, 93.94353
295.9773, 96.01577
296.4594, 98.86807
296.9415, 101.6645
297.4236, 103.7854
297.9057, 105.2107
298.3878, 106.2457
298.8700, 107.1737
299.3521, 107.8452
299.8342, 107.7392
300.3163, 106.2849
300.7984, 104.5897
301.2805, 103.3259
301.7627, 102.3736
302.2448, 101.1553
302.7269, 99.26175
303.2090, 96.96455
303.6911, 95.11552
304.1732, 94.15206
304.6554, 92.91019
305.1375, 90.56206
305.6196, 87.51601
306.1017, 84.81041
306.5838, 82.83200
307.0659, 81.38982
307.5481, 80.25433
308.0302, 79.55620
308.5123, 78.61961
308.9944, 76.76091
309.4765, 74.61774
309.9586, 73.45943
310.4408, 73.73826
310.9229, 74.47622
311.4050, 74.39399
311.8871, 73.48697
312.3692, 72.46317
312.8513, 71.26746
313.3335, 70.12207
313.8156, 69.51290
314.2977, 69.52862
314.7798, 69.26430
315.2619, 67.85987
315.7440, 65.33038
316.2262, 62.48399
316.7083, 58.96130
317.1904, 55.44151
317.6725, 52.49779
318.1546, 50.12236
318.6367, 47.98531
319.1188, 45.90682
319.6010, 43.94711
320.0831, 42.14203
320.5652, 40.45506
321.0473, 38.91287
321.5294, 37.54233
322.0115, 36.33443
322.4937, 35.24403
322.9758, 34.27857
323.4579, 33.39798
323.9400, 32.55177
324.4221, 31.85372
324.9042, 30.95220
325.3864, 29.50621
325.8685, 27.80103
326.3506, 26.42177
326.8327, 25.60410
327.3148, 24.95952
327.7969, 23.82632
328.2791, 22.11809
328.7612, 20.54413
329.2433, 19.33824
329.7254, 18.29041
330.2075, 17.07806
330.6896, 15.64528
331.1718, 14.37051
331.6539, 13.69769
332.1360, 13.68768
332.6181, 13.48722
333.1002, 12.94202
333.5823, 12.29790
334.0645, 11.67241
334.5466, 11.09407
335.0287, 10.64621
335.5108, 10.44524
335.9929, 10.42659
336.4750, 10.14105
336.9572, 9.374947
337.4393, 8.595894
337.9214, 7.857533
338.4035, 7.248142
338.8856, 7.037998
339.3677, 7.409042
339.8499, 8.120144
340.3320, 8.521965
340.8141, 8.564606
341.2962, 8.451553
341.7783, 8.252831
342.2604, 7.907215
342.7426, 7.306873
343.2247, 6.423759
343.7068, 5.354919
344.1889, 4.156109
344.6710, 2.571835
345.1531, 1.765270
345.6353, 2.505173
346.1174, 3.504581
346.5995, 3.751495
347.0816, 3.194351
347.5637, 2.407166
348.0458, 1.898785
348.5280, 1.686813
349.0101, 1.342598
349.4922, 0.5859600
349.9743, 1.1750000E-03
350.4564, 1.2383000E-02
350.9385, 0.4008790
351.4207, 0.6129910
351.9028, 0.3101310
352.3849, 0.3741650
352.8670, 0.8730200
353.3491, 1.143742
353.8312, 1.283524
354.3134, 1.220467
354.7955, 1.064110
355.2776, 0.9149210
355.7597, 0.8117450
356.2418, 0.7799870
356.7239, 0.8712010
357.2061, 1.180313
357.6882, 1.422745
358.1703, 1.680710
358.6524, 1.820545
359.1345, 1.717052
359.6166, 1.382637
360.0987, 0.9431300
360.5808, 0.5152700
361.0630, 0.1028940
361.5451, 0.3377610
362.0272, 0.9363400
362.5093, 1.427635
362.9914, 1.608917
363.4735, 1.626289
363.9557, 1.785873
364.4378, 2.294910
364.9199, 3.024632
365.4020, 3.413948
365.8841, 3.124554
366.3662, 2.944412
366.8484, 2.771896
367.3305, 2.840572
367.8126, 3.565899
368.2947, 5.022388
368.7768, 6.607582
369.2589, 7.274261
369.7411, 6.489361
370.2232, 6.240505
370.7053, 6.961082
371.1874, 7.887306
371.6695, 8.673557
372.1516, 9.289627
372.6338, 9.869724
373.1159, 10.51418
373.5980, 11.22134
374.0801, 11.99282
374.5622, 12.92320
375.0443, 13.80122
375.5265, 14.53179
376.0086, 15.17502
376.4907, 15.83597
376.9728, 16.59115
377.4549, 17.34181
377.9370, 17.84488
378.4192, 18.01023
378.9013, 18.18162
379.3834, 18.58427
379.8655, 18.95182
380.3476, 19.00530
380.8297, 18.69491
381.3119, 18.35861
381.7940, 18.44085
382.2761, 18.92793
382.7582, 19.07121
383.2403, 18.48398
383.7224, 17.87563
384.2046, 17.78032
384.6867, 18.08197
385.1688, 18.34298
385.6509, 18.24474
386.1330, 17.95741
386.6151, 17.97062
387.0973, 18.44501
387.5794, 18.63317
388.0615, 17.67319
388.5436, 16.26997
389.0257, 15.49192
389.5078, 15.84101
389.9900, 16.30127
390.4721, 15.82047
390.9542, 14.53603
391.4363, 13.59577
391.9184, 13.55978
392.4005, 13.79709
392.8827, 13.32730
393.3648, 12.08622
393.8469, 11.08274
394.3290, 10.89566
394.8111, 11.13276
395.2932, 11.17639
395.7754, 10.92761
396.2575, 10.60075
396.7396, 10.28673
397.2217, 10.03166
397.7038, 10.14633
398.1859, 11.10769
398.6681, 12.03765
399.1501, 12.32087
399.6323, 12.06969
400.1144, 11.69132
400.5965, 11.33814
401.0786, 11.07059
401.5607, 11.10813
402.0428, 11.67974
402.5250, 12.10412
403.0071, 12.09314
403.4892, 11.95162
403.9713, 11.99237
404.4534, 12.29590
404.9355, 12.83842
405.4177, 13.62426
405.8998, 14.72117
406.3819, 15.72706
406.8640, 16.57475
407.3461, 17.40051
407.8282, 18.35227
408.3104, 19.33882
408.7925, 20.11167
409.2746, 20.48975
409.7567, 20.53106
410.2388, 20.50402
410.7209, 20.08696
411.2031, 20.07981
411.6852, 20.91475
412.1673, 22.00645
412.6494, 22.82503
413.1315, 23.24351
413.6136, 23.44488
414.0958, 23.70899
414.5779, 24.16084
415.0600, 24.18942
415.5421, 23.36825
416.0242, 22.47224
416.5063, 21.74053
416.9885, 21.18987
417.4706, 20.79336
417.9527, 20.55982
418.4348, 20.46814
418.9169, 20.48217
419.3990, 20.67535
419.8812, 20.71503
420.3633, 20.35366
420.8454, 19.90505
421.3275, 19.61941
421.8096, 19.55288
422.2917, 19.71163
422.7739, 20.21017
423.2560, 21.02519
423.7381, 21.65222
424.2202, 21.80578
424.7023, 22.05418
425.1844, 22.99004
425.6666, 24.41321
426.1487, 25.59653
426.6308, 26.11351
427.1129, 26.27197
427.5950, 26.42767
428.0771, 26.56998
428.5593, 26.96795
429.0414, 27.90469
429.5235, 29.12741
430.0056, 30.07882
430.4877, 30.74999
430.9698, 31.16946
431.4520, 31.19200
431.9341, 30.99530
432.4162, 31.00079
432.8983, 31.34797
433.3804, 31.65085
433.8625, 31.40202
434.3447, 30.50425
434.8268, 29.81669
435.3089, 29.55336
435.7910, 29.34904
436.2731, 29.04604
436.7552, 28.60582
437.2374, 27.93147
437.7195, 26.93310
438.2016, 25.72710
438.6837, 24.77661
439.1658, 24.44182
439.6479, 23.89947
440.1301, 22.86358
440.6122, 21.73050
441.0943, 20.85839
441.5764, 20.33002
442.0585, 20.03184
442.5406, 19.86716
443.0227, 19.86572
443.5049, 19.77874
443.9870, 19.68682
444.4691, 19.42237
444.9512, 18.90098
445.4333, 18.17837
445.9154, 17.29394
446.3976, 16.25022
446.8797, 15.17886
447.3618, 14.40121
447.8439, 14.02687
448.3260, 13.62154
448.8081, 13.12399
449.2903, 12.55247
449.7724, 11.90880
450.2545, 11.19576
450.7366, 10.42247
451.2187, 9.574226
451.7008, 8.666798
452.1830, 7.760212
452.6651, 6.797497
453.1472, 5.991726
453.6293, 5.592453
454.1114, 5.418579
454.5935, 5.230991
455.0757, 5.022587
455.5578, 4.620449
456.0399, 3.655525
456.5220, 2.327099
457.0041, 1.555801
457.4862, 1.759731
457.9684, 2.274952
458.4505, 2.201626
458.9326, 1.551086
459.4147, 0.9519350
459.8968, 0.3980140
460.3789, 2.7690999E-02
460.8611, 0.1035350
461.3432, 0.5401380
461.8253, 0.8597180
462.3074, 0.7502520
462.7895, 0.3154410
463.2716, 2.2427000E-02
463.7538, 0.2442400
464.2359, 0.4013900
464.7180, 0.5022850
465.2001, 0.5434610
465.6822, 0.5151060
466.1643, 0.4174120
466.6465, 0.2548680
467.1286, 5.0280001E-03
467.6107, 0.3699190
468.0928, 0.4780650
468.5749, 6.3460998E-02
469.0570, 0.4647140
469.5392, 0.4004860
470.0213, 9.0057001E-02
470.5034, 0.1456990
470.9855, 0.1667860
471.4676, 2.9446000E-02
471.9497, 0.2243800
472.4319, 0.6626320
472.9140, 0.9165420
473.3961, 0.8271560
473.8782, 0.6159060
474.3603, 0.3155400
474.8424, 1.7867999E-02
475.3246, 0.2132070
475.8067, 5.4848000E-02
476.2888, 0.2702220
476.7709, 0.3298800
477.2530, 8.4331997E-02
477.7351, 0.1765480
478.2173, 0.3002590
478.6994, 0.3715100
479.1815, 0.5624660
479.6636, 0.9542470
480.1457, 1.191010
480.6278, 0.9334720
481.1100, 0.4403840
481.5920, 0.1690860
482.0742, 0.2011720
482.5563, 0.4272880
483.0384, 0.7999730
483.5205, 1.313393
484.0026, 1.711285
484.4847, 1.984142
484.9669, 2.181667
485.4490, 2.215466
485.9311, 2.190659
486.4132, 2.266815
486.8953, 2.502747
487.3774, 2.829185
487.8596, 3.139286
488.3417, 3.464123
488.8238, 3.687492
489.3059, 3.696114
489.7880, 3.730331
490.2701, 4.057114
490.7523, 4.499367
491.2344, 4.573494
491.7165, 3.907063
492.1986, 2.916988
492.6807, 2.873623
493.1628, 4.266994
493.6450, 5.248207
494.1271, 5.035522
494.6092, 4.561569
495.0913, 4.464352
495.5734, 4.756229
496.0555, 4.987839
496.5377, 4.750336
497.0198, 4.225777
497.5019, 3.948120
497.9840, 4.000679
498.4661, 4.015217
498.9482, 3.770821
499.4304, 3.377583
499.9125, 3.041286
500.3946, 2.769634
500.8767, 2.542358
501.3588, 2.407043
501.8409, 2.313663
502.3231, 2.090988
502.8052, 1.720417
503.2873, 1.357204
503.7694, 1.148434
504.2515, 1.113964
504.7336, 1.243797
505.2158, 1.875511
505.6979, 2.272202
506.1800, 2.027901
506.6621, 1.440662
507.1442, 0.9382360
507.6263, 0.6787870
508.1085, 0.5785560
508.5906, 0.5217250
509.0727, 0.5267720
509.5548, 0.5841220
510.0369, 0.7798310
510.5190, 0.8490600
511.0012, 0.5381470
511.4833, 4.9888998E-02
511.9654, 0.2161100
512.4475, 4.6452001E-02
512.9296, 0.3458600
513.4117, 0.5975910
513.8939, 0.7097240
514.3760, 0.7414250
514.8581, 0.6134680
515.3402, 0.4853250
515.8223, 0.4844700
516.3044, 0.6122630
516.7866, 0.8481100
517.2687, 1.360437
517.7508, 1.834671
518.2329, 1.793772
518.7150, 1.289013
519.1971, 1.009502
519.6793, 1.396584
520.1614, 2.059713
520.6435, 2.218855
521.1256, 1.719254
521.6077, 1.306875
522.0898, 1.208555
522.5720, 1.181549
523.0541, 0.9912740
523.5362, 0.6922170
524.0183, 0.5874210
524.5004, 0.9303680
524.9825, 1.603733
525.4647, 1.983671
525.9468, 1.915512
526.4289, 1.738211
526.9110, 1.231020
527.3931, 0.7981850
527.8752, 0.8685820
528.3574, 1.400415
528.8395, 1.926613
529.3216, 2.024231
529.8037, 1.748491
530.2858, 1.466347
530.7679, 1.158577
531.2501, 0.9518970
531.7322, 0.9333320
532.2143, 1.037962
532.6964, 1.188236
533.1785, 1.346043
533.6606, 1.605509
534.1428, 2.265533
534.6249, 3.021442
535.1070, 3.071980
535.5891, 2.250374
536.0712, 1.429653
536.5533, 1.314480
537.0355, 1.776957
537.5176, 1.967026
537.9997, 1.727419
538.4818, 1.435825
538.9639, 1.137650
539.4460, 0.8718660
539.9282, 0.7219810
540.4103, 0.6899740
540.8924, 0.6429520
541.3745, 0.4138450
541.8566, 9.8270001E-03
542.3387, 0.1806680
542.8209, 0.1999450
543.3029, 0.4859180
543.7850, 0.4750730
544.2672, 0.3386750
544.7493, 0.2808060
545.2314, 0.3537330
545.7135, 0.4443260
546.1956, 0.3901370
546.6777, 0.2127820
547.1599, 0.2012710
547.6420, 0.4669910
548.1241, 0.6942520
548.6062, 0.6137010
549.0883, 0.3795300
549.5704, 0.2340930
550.0526, 0.2370530
550.5347, 0.2916830
551.0168, 0.3613130
551.4989, 0.4347520
551.9810, 0.4785330
552.4631, 0.4845810
552.9453, 0.5121170
553.4274, 0.6518750
553.9095, 0.9040850
554.3916, 0.8917330
554.8737, 0.2943970
555.3558, 0.1437230
555.8380, 5.6279998E-02
556.3201, 0.2276820
556.8022, 0.2355770
557.2843, 0.1225530
557.7664, 0.4680210
558.2485, 0.2852590
558.7307, 0.4585700
559.2128, 0.7535510
559.6949, 0.2105710
560.1770, 0.2321530
560.6591, 0.1538220
561.1412, 0.1406100
561.6234, 0.2548240
562.1055, 7.2682999E-02
562.5876, 0.1054990
563.0697, 5.3447999E-02
563.5518, 0.4322890
564.0339, 0.6276090
564.5161, 0.5749210
564.9982, 0.4369260
565.4803, 0.3526740
565.9624, 0.2724550
566.4445, 7.6870001E-03
566.9266, 0.8497070
567.4088, 1.377806
567.8909, 1.072275
568.3730, 0.3925570
568.8551, 0.1483020
569.3372, 0.4173200
569.8193, 0.4638330
570.3015, 0.3307210
570.7836, 4.0004998E-02
571.2657, 0.1469290
571.7478, 0.2048800
572.2299, 0.1945460
572.7120, 2.6690001E-02
573.1942, 0.1377280
573.6763, 8.1929997E-02
574.1584, 0.1887700
574.6405, 0.3738630
575.1226, 4.3235999E-02
575.6047, 0.6113280
576.0869, 0.6782760
576.5690, 2.9539000E-02
577.0511, 0.5274850
577.5332, 0.1094260
578.0153, 0.6592860
578.4974, 0.7911660
578.9796, 8.8748999E-02
579.4617, 0.4263130
579.9438, 0.1850800
580.4259, 0.3372310
580.9080, 0.5982570
581.3901, 0.5775620
581.8723, 0.5307430
582.3544, 0.6241720
582.8365, 0.8097740
583.3186, 0.9232940
583.8007, 0.9437710
584.2828, 0.9184130
584.7650, 0.7025450
585.2471, 0.5633070
585.7292, 0.7865850
586.2113, 1.262386
586.6934, 1.614912
587.1755, 1.595091
587.6577, 1.334627
588.1398, 1.040461
588.6219, 0.6512720
589.1040, 0.6860430
589.5861, 1.610950
590.0682, 2.629793
590.5504, 2.928431
591.0325, 2.616158
591.5146, 2.391783
591.9967, 2.559666
592.4788, 2.820549
592.9609, 2.819944
593.4431, 2.693655
593.9252, 2.955465
594.4073, 3.825293
594.8894, 4.774658
595.3715, 5.024778
595.8536, 4.353329
596.3358, 3.985723
596.8179, 3.871811
597.3000, 4.065063
597.7821, 4.858728
598.2642, 5.874161
598.7463, 6.551027
599.2285, 6.706726
599.7106, 6.693371
600.1927, 6.933430
600.6748, 7.452587
601.1569, 8.069736
601.6390, 8.793589
602.1212, 9.564362
602.6033, 10.40462
603.0854, 11.25500
603.5675, 11.96736
604.0496, 12.43409
604.5317, 13.03419
605.0139, 13.99587
605.4960, 15.20489
605.9781, 16.54823
606.4602, 17.98316
606.9423, 19.34801
607.4244, 20.49133
607.9066, 21.49724
608.3887, 22.75412
608.8708, 24.35383
609.3529, 26.08963
609.8350, 28.17187
610.3171, 30.20424
610.7993, 31.77775
611.2814, 33.02251
611.7635, 34.41981
612.2456, 36.24476
612.7277, 38.45115
613.2098, 41.05838
613.6920, 44.15324
614.1741, 47.09274
614.6562, 49.62231
615.1383, 52.04799
615.6204, 54.66339
616.1025, 57.49067
616.5847, 60.51385
617.0668, 64.00385
617.5489, 67.35133
618.0310, 70.11871
618.5131, 72.47327
618.9952, 74.79081
619.4774, 77.15504
619.9595, 79.26281
620.4416, 80.78776
620.9237, 81.76429
621.4058, 82.04191
621.8879, 81.29398
622.3701, 80.18688
622.8522, 78.77393
623.3343, 77.12762
623.8164, 75.39719
624.2985, 73.58195
624.7806, 71.32077
625.2628, 68.18718
625.7448, 64.52168
626.2269, 61.10918
626.7090, 57.95292
627.1912, 54.92770
627.6733, 51.94902
628.1554, 49.09205
628.6375, 46.52481
629.1196, 44.31075
629.6017, 42.00758
630.0839, 39.32960
630.5660, 36.74652
631.0481, 34.61444
631.5302, 32.81359
632.0123, 30.96396
632.4944, 28.90655
632.9766, 26.90205
633.4587, 25.34757
633.9408, 24.29651
634.4229, 23.37371
634.9050, 22.80574
635.3871, 22.05633
635.8693, 20.62999
636.3514, 18.92722
636.8335, 17.58211
637.3156, 16.76823
637.7977, 16.14502
638.2798, 15.47188
638.7620, 14.78454
639.2441, 14.18228
639.7262, 13.67470
640.2083, 13.14070
640.6904, 12.48644
641.1725, 11.76038
641.6547, 11.19423
642.1368, 10.92715
642.6189, 10.63508
643.1010, 10.33795
643.5831, 10.02438
644.0652, 9.684521
644.5474, 9.284864
645.0295, 8.743519
645.5116, 7.989376
645.9937, 7.254299
646.4758, 7.000050
646.9579, 7.229076
647.4401, 7.277481
647.9222, 7.015879
648.4043, 6.624380
648.8864, 6.129402
649.3685, 5.612194
649.8506, 5.341209
650.3328, 5.368160
650.8149, 5.594723
651.2970, 6.295546
651.7791, 7.004402
652.2612, 7.022661
652.7433, 6.380768
653.2255, 5.759186
653.7076, 5.665871
654.1897, 5.973436
654.6718, 6.226376
655.1539, 6.444221
655.6360, 6.557022
656.1182, 6.413452
656.6003, 6.282097
657.0824, 6.345100
657.5645, 6.546782
658.0466, 6.694498
658.5287, 6.676775
659.0109, 6.640942
659.4930, 6.742418
659.9751, 6.936352
660.4572, 7.079372
660.9393, 7.137589
661.4214, 7.243670
661.9036, 7.541273
662.3857, 8.000744
662.8678, 8.294319
663.3499, 8.305767
663.8320, 8.301746
664.3141, 8.157640
664.7963, 8.119438
665.2784, 8.555025
665.7605, 9.314739
666.2426, 9.777893
666.7247, 9.443031
667.2068, 8.798014
667.6890, 8.806786
668.1711, 9.446186
668.6532, 9.895250
669.1353, 9.936769
669.6174, 9.823212
670.0995, 9.718840
670.5817, 9.650337
671.0638, 9.770309
671.5459, 10.35915
672.0280, 10.77352
672.5101, 10.69867
672.9922, 10.41512
673.4744, 10.16382
673.9565, 10.04623
674.4386, 10.12104
674.9207, 10.44118
675.4028, 10.85463
675.8849, 10.75738
676.3671, 10.01049
676.8492, 9.362049
677.3313, 8.916557
677.8134, 8.659939
678.2955, 8.630068
678.7776, 8.773949
679.2598, 8.912796
679.7419, 9.153393
680.2240, 9.190681
680.7061, 8.764465
681.1882, 8.050272
681.6703, 7.202074
682.1525, 6.307201
682.6346, 5.658012
683.1167, 5.530952
683.5988, 5.805912
684.0809, 5.885849
684.5630, 5.688343
685.0452, 5.475622
685.5273, 5.364941
686.0094, 5.174644
686.4915, 4.698895
686.9736, 4.049656
687.4557, 3.561972
687.9379, 3.409237
688.4200, 3.374641
688.9021, 3.267529
689.3842, 3.131941
689.8663, 3.096310
690.3484, 3.180172
690.8306, 3.252932
691.3127, 3.220840
691.7948, 3.086557
692.2769, 2.856258
692.7590, 2.421038
693.2411, 2.064373
693.7233, 1.912071
694.2054, 1.736753
694.6875, 1.291803
695.1696, 0.7140600
695.6517, 0.4045720
696.1339, 0.6301080
696.6160, 0.8950820
697.0981, 0.5168230
697.5802, 0.2924690
698.0623, 0.7642440
698.5444, 0.7678640
699.0266, 0.6250630
699.5087, 0.5222660
699.9908, 0.4699820
700.4729, 0.5125770
700.9550, 0.8255040
701.4371, 0.9616660
701.9193, 0.8088680
702.4014, 0.5774140
702.8835, 0.3923360
703.3656, 0.2308160
703.8477, 6.0330001E-03
704.3298, 0.3701250
704.8120, 0.7198520
705.2941, 0.8445240
705.7762, 0.7915210
706.2583, 0.8298400
706.7404, 1.014664
707.2225, 1.050104
707.7046, 0.6547740
708.1867, 7.5185999E-02
708.6688, 2.2973999E-02
709.1509, 0.6194630
709.6331, 1.052576
710.1152, 1.001329
710.5973, 0.9333880
711.0794, 1.183363
711.5615, 1.598761
712.0436, 1.861197
712.5258, 1.858936
713.0079, 1.785738
713.4900, 1.865656
713.9721, 2.073019
714.4542, 2.241831
714.9363, 2.341066
715.4185, 2.597631
715.9006, 3.271988
716.3827, 3.996590
716.8648, 4.061300
717.3469, 3.333693
717.8290, 2.826107
718.3112, 2.833450
718.7933, 2.854332
719.2754, 2.606041
719.7575, 2.228277
720.2396, 1.934837
720.7217, 1.781069
721.2039, 1.672213
721.6860, 1.475744
722.1681, 1.257902
722.6502, 1.381676
723.1323, 1.925135
723.6144, 2.133501
724.0966, 1.625429
724.5787, 0.9006500
725.0608, 0.5424730
725.5429, 0.5411870
726.0250, 0.5243020
726.5071, 0.5022350
726.9893, 0.4254150
727.4714, 0.1836970
727.9535, 6.7776002E-02
728.4356, 0.1426140
728.9177, 3.0888001E-02
729.3998, 0.1735190
729.8820, 0.4595470
730.3641, 0.6883110
730.8462, 0.3803290
731.3283, 0.4981500
731.8104, 0.8418520
732.2925, 0.2500900
732.7747, 0.4756410
733.2568, 0.6396370
733.7389, 0.3701880
734.2210, 0.3825740
734.7031, 0.9646150
735.1852, 1.380581
735.6674, 1.464973
736.1495, 1.340965
736.6316, 0.9428900
737.1137, 0.4329170
737.5958, 0.2198010
738.0779, 0.5272330
738.5601, 0.9916340
739.0422, 1.029903
739.5243, 0.6965600
740.0064, 0.5268710
740.4885, 0.5863150
740.9706, 0.7099780
741.4528, 0.8420830
741.9349, 0.9553150
742.4170, 0.9647880
742.8991, 0.8052520
743.3812, 0.7743400
743.8633, 0.9725190
744.3455, 1.225372
744.8276, 1.513393
745.3097, 1.767899
745.7918, 1.855942
746.2739, 1.758364
746.7560, 1.674212
747.2382, 1.809835
747.7203, 2.106045
748.2024, 2.408699
748.6845, 2.720215
749.1666, 2.937012
749.6487, 2.984074
750.1309, 3.013733
750.6130, 3.224342
751.0951, 3.628698
751.5772, 3.962029
752.0593, 4.198605
752.5414, 4.403349
753.0236, 4.383219
753.5057, 4.492157
753.9878, 5.209299
754.4699, 6.390663
754.9520, 7.363422
755.4341, 7.651371
755.9163, 7.721821
756.3984, 8.305172
756.8805, 9.305931
757.3626, 10.26890
757.8447, 11.13552
758.3268, 11.88076
758.8090, 12.41320
759.2911, 12.78016
759.7732, 13.23391
760.2553, 13.94589
760.7374, 14.49231
761.2195, 14.69419
761.7017, 14.88101
762.1838, 15.35030
762.6659, 15.87736
763.1480, 16.03352
763.6301, 15.67721
764.1122, 15.19002
764.5944, 14.85636
765.0765, 14.56760
765.5586, 14.15124
766.0407, 13.56952
766.5228, 12.77507
767.0049, 11.75005
767.4871, 10.67783
767.9692, 9.756649
768.4513, 9.008934
768.9334, 8.333073
769.4155, 7.606632
769.8976, 7.154123
770.3798, 7.420748
770.8619, 7.685934
771.3440, 7.262352
771.8261, 6.267004
772.3082, 5.463783
772.7903, 5.351366
773.2725, 5.225838
773.7546, 4.342527
774.2367, 3.241335
774.7188, 2.902397
775.2009, 3.331350
775.6830, 3.710007
776.1652, 3.495811
776.6473, 2.924461
777.1294, 2.517000
777.6115, 2.277376
778.0936, 2.186321
778.5757, 2.333241
779.0579, 2.469168
779.5400, 2.381460
780.0221, 2.219486
780.5042, 2.240408
780.9863, 2.497644
781.4684, 2.705601
781.9506, 2.708445
782.4327, 2.727728
782.9148, 3.011053
783.3969, 3.372097
783.8790, 3.462891
784.3611, 3.214939
784.8433, 2.872423
785.3254, 2.552372
785.8075, 2.370193
786.2896, 2.920082
786.7717, 4.228954
787.2538, 4.855133
787.7360, 4.240606
788.2181, 3.448500
788.7002, 3.475920
789.1823, 4.184317
789.6644, 4.668238
790.1465, 4.943562
790.6286, 5.106194
791.1107, 5.081528
791.5928, 4.990971
792.0750, 4.864517
792.5571, 4.743824
793.0392, 4.718355
793.5213, 4.835766
794.0034, 4.915489
794.4855, 4.835266
794.9677, 4.594742
795.4498, 4.076559
795.9319, 3.343952
796.4140, 2.866098
796.8961, 2.850176
797.3782, 3.007231
797.8604, 2.945629
798.3425, 2.656229
798.8246, 2.337450
799.3067, 1.943674
799.7888, 1.600597
800.2709, 1.257553
800.7531, 1.044283
801.2352, 1.193550
801.7173, 1.601984
802.1994, 1.766064
802.6815, 1.380997
803.1636, 0.9795610
803.6458, 0.8217750
804.1279, 0.8106500
804.6100, 0.9120640
805.0921, 1.055779
805.5742, 1.035574
806.0563, 0.7281480
806.5385, 0.3666320
807.0206, 0.3729780
807.5027, 0.7130360
807.9848, 0.9174400
808.4669, 0.9613000
808.9490, 0.8932230
809.4312, 0.6977480
809.9133, 0.4506740
810.3954, 0.2536660
810.8775, 0.1047460
811.3596, 3.4504000E-02
811.8417, 0.1232950
812.3239, 0.1876030
812.8060, 0.1871510
813.2881, 0.1334550
813.7702, 3.8231000E-02
814.2523, 9.7778000E-02
814.7344, 0.3068370
815.2166, 0.6995530
815.6987, 0.9700070
816.1808, 0.6011560
816.6629, 8.3981998E-02
817.1450, 0.3072700
817.6271, 2.3980999E-02
818.1093, 0.2543720
818.5914, 0.2333740
819.0735, 5.8917999E-02
819.5556, 3.9478000E-02
820.0377, 0.2353060
820.5198, 0.1704080
821.0020, 0.3976710
821.4841, 0.7641280
821.9662, 0.4525680
822.4483, 4.1476998E-02
822.9304, 0.1172920
823.4125, 0.2117040
823.8947, 0.3713930
824.3768, 6.8148002E-02
824.8589, 0.3183060
825.3410, 0.2341730
825.8231, 0.9798910
826.3052, 1.222757
826.7874, 0.9656110
827.2695, 0.5953290
827.7516, 0.3043560
828.2337, 0.1037100
828.7158, 2.0102000E-02
829.1979, 4.4059999E-02
829.6801, 0.2355080
830.1622, 0.8375640
830.6443, 1.185081
831.1264, 0.9444810
831.6085, 0.4287700
832.0906, 0.1308380
832.5728, 5.9751999E-02
833.0549, 0.1531030
833.5370, 0.6034700
834.0191, 0.9381960
834.5012, 1.071466
834.9833, 1.039433
835.4655, 0.7348350
835.9476, 0.2580950
836.4297, 5.8669999E-02
836.9118, 0.4335990
837.3939, 0.8535770
837.8760, 1.049282
838.3582, 1.123981
838.8403, 1.188601
839.3224, 1.248058
839.8045, 1.245262
840.2866, 1.152460
840.7687, 1.073772
841.2509, 1.161903
841.7330, 1.386444
842.2151, 1.635698
842.6972, 1.909691
843.1793, 2.160671
843.6614, 2.376688
844.1436, 2.557501
844.6257, 2.700335
845.1078, 2.775291
845.5899, 2.676352
846.0720, 2.169786
846.5541, 1.844458
847.0363, 1.874512
847.5184, 1.955591
848.0005, 1.922281
848.4826, 1.808592
848.9647, 1.675587
849.4468, 1.515842
849.9290, 1.412167
850.4111, 1.428999
850.8932, 1.493202
851.3753, 1.512373
851.8574, 1.525902
852.3395, 1.662512
852.8217, 1.946928
853.3038, 2.247416
853.7859, 2.472097
854.2680, 2.577478
854.7501, 2.346916
855.2322, 1.780598
855.7144, 1.326664
856.1965, 1.044657
856.6786, 1.040712
857.1607, 1.474659
857.6428, 2.189457
858.1249, 2.684303
858.6071, 2.886099
859.0892, 3.019520
859.5713, 3.017651
860.0534, 3.027119
860.5355, 3.007416
861.0176, 3.079443
861.4998, 3.473743
861.9819, 4.187025
862.4640, 4.740351
862.9461, 4.979101
863.4282, 4.960800
863.9103, 4.322454
864.3925, 3.663412
864.8746, 4.062641
865.3567, 5.389027
865.8388, 6.487606
866.3209, 6.678652
866.8030, 6.403708
867.2852, 6.237762
867.7673, 6.186020
868.2494, 6.306114
868.7315, 6.604252
869.2136, 6.965605
869.6957, 7.399269
870.1779, 7.702423
870.6600, 7.560745
871.1421, 6.967262
871.6242, 6.551691
872.1063, 6.350548
872.5884, 6.245911
873.0705, 6.354944
873.5526, 6.416508
874.0347, 6.340294
874.5168, 6.147148
874.9990, 5.749054
875.4811, 4.934824
875.9632, 4.479662
876.4453, 5.191265
876.9274, 5.894112
877.4095, 5.517281
877.8917, 4.555309
878.3738, 3.944843
878.8559, 3.914864
879.3380, 4.059895
879.8201, 4.144382
880.3022, 4.140284
880.7844, 4.022173
881.2665, 3.826162
881.7486, 3.535505
882.2307, 3.147860
882.7128, 2.944176
883.1949, 3.178644
883.6771, 3.591198
884.1592, 3.689548
884.6413, 3.443434
885.1234, 3.057566
885.6055, 2.327831
886.0876, 1.973494
886.5698, 2.455824
887.0519, 3.203983
887.5340, 3.631340
888.0161, 3.740448
888.4982, 3.739408
888.9803, 3.579618
889.4625, 3.386662
889.9446, 3.153847
890.4267, 2.913233
890.9088, 2.616928
891.3909, 2.356400
891.8730, 2.377184
892.3552, 2.767160
892.8373, 2.962952
893.3194, 2.328373
893.8015, 1.551434
894.2836, 1.524899
894.7657, 1.895672
895.2479, 1.771744
895.7300, 1.040636
896.2121, 0.3586030
896.6942, 0.2307380
897.1763, 0.3965870
897.6584, 0.3032720
898.1406, 8.3680004E-03
898.6227, 0.1020280
899.1048, 7.7754997E-02
899.5869, 0.2941340
900.0690, 0.4683460
900.5511, 0.5209520
901.0333, 0.2797390
901.5154, 0.2844070
901.9975, 0.4573760
902.4796, 9.7666003E-02
902.9617, 0.4150540
903.4438, 0.1109410
903.9260, 0.2845610
904.4081, 0.3844470
904.8902, 0.3005700
905.3723, 0.3365760
905.8544, 0.5949990
906.3365, 0.7696650
906.8187, 0.8587720
907.3008, 0.7664030
907.7829, 0.3260000
908.2650, 0.2751100
908.7471, 0.8699150
909.2292, 1.377411
909.7114, 1.619564
910.1935, 1.356853
910.6756, 0.9959530
911.1577, 0.9422300
911.6398, 1.089781
912.1219, 1.242178
912.6041, 1.392784
913.0862, 1.646730
913.5683, 2.053896
914.0504, 2.535324
914.5325, 3.020702
915.0146, 3.489876
915.4968, 3.810013
915.9789, 3.975025
916.4610, 4.176344
916.9431, 4.446989
917.4252, 4.859524
917.9073, 5.522238
918.3895, 6.337032
918.8716, 6.928970
919.3537, 7.144609
919.8358, 7.546207
920.3179, 8.244873
920.8000, 8.966984
921.2822, 9.489956
921.7643, 10.06888
922.2464, 11.10954
922.7285, 12.58040
923.2106, 13.69290
923.6927, 14.07097
924.1749, 14.44203
924.6570, 14.81791
925.1391, 15.42324
925.6212, 16.59659
926.1033, 18.09452
926.5854, 19.39780
927.0676, 20.35003
927.5497, 21.27253
928.0318, 22.38321
928.5139, 23.55185
928.9960, 24.81404
929.4781, 25.98611
929.9603, 26.51892
930.4424, 26.50691
930.9245, 26.90535
931.4066, 28.37330
931.8887, 30.25703
932.3708, 31.55529
932.8530, 32.37305
933.3351, 33.09883
933.8172, 33.76011
934.2993, 34.49004
934.7814, 35.35195
935.2635, 36.08215
935.7457, 36.36102
936.2278, 36.27328
936.7099, 36.37532
937.1920, 36.80565
937.6741, 36.73559
938.1563, 35.72311
938.6384, 35.01147
939.1205, 35.58932
939.6026, 36.63227
940.0847, 36.60740
940.5668, 35.28990
941.0490, 34.23879
941.5311, 33.58956
942.0132, 33.00712
942.4953, 32.38643
942.9774, 31.84988
943.4595, 31.53436
943.9417, 31.36962
944.4238, 31.14495
944.9059, 30.75043
945.3880, 30.56245
945.8701, 31.12793
946.3522, 31.50417
946.8344, 30.77173
947.3165, 29.62811
947.7986, 29.11453
948.2807, 29.26427
948.7628, 29.29220
949.2449, 28.73565
949.7271, 28.02752
950.2092, 27.66238
950.6913, 27.36420
951.1734, 26.50980
951.6555, 25.31774
952.1376, 24.70031
952.6198, 24.91506
953.1019, 25.14172
953.5840, 24.53596
954.0661, 23.45393
954.5482, 22.89109
955.0303, 22.70441
955.5124, 21.79481
955.9945, 20.00491
956.4766, 18.41791
956.9587, 17.63998
957.4409, 17.25892
957.9230, 16.66002
958.4051, 15.84018
958.8872, 14.88211
959.3693, 13.73776
959.8514, 12.56983
960.3336, 11.38975
960.8157, 10.31602
961.2978, 9.450447
961.7799, 8.772888
962.2620, 8.294178
962.7441, 8.164602
963.2263, 7.798582
963.7084, 7.050138
964.1905, 6.241262
964.6726, 5.304661
965.1547, 4.485519
965.6368, 4.106945
966.1190, 4.050989
966.6011, 3.783077
967.0832, 3.057110
967.5653, 2.485929
968.0474, 2.262896
968.5295, 2.159954
969.0117, 2.163301
969.4938, 2.142696
969.9759, 1.865076
970.4580, 1.358759
970.9401, 1.025270
971.4222, 1.175144
971.9044, 1.325363
972.3865, 1.110958
972.8686, 0.7905250
973.3507, 0.5627480
973.8328, 0.4819200
974.3149, 0.6875420
974.7971, 1.178469
975.2792, 1.545523
975.7613, 1.441971
976.2434, 1.061253
976.7255, 0.4694500
977.2076, 0.1381990
977.6898, 0.2803190
978.1719, 1.9975999E-02
978.6540, 0.3827440
979.1361, 0.6276380
979.6182, 0.7371270
980.1003, 0.6613010
980.5825, 0.4433000
981.0646, 0.1504940
981.5467, 0.1794280
982.0288, 0.1536920
982.5109, 0.3037200
982.9930, 0.6207680
983.4752, 0.3861240
983.9573, 2.4251999E-02
984.4394, 0.2001230
984.9215, 1.066729
985.4036, 1.334042
985.8857, 0.8609240
986.3679, 0.6656570
986.8500, 1.139145
987.3321, 1.610880
987.8142, 1.462484
988.2963, 0.9987410
988.7784, 1.172203
989.2606, 2.313234
989.7427, 2.873196
990.2248, 2.409094
990.7069, 2.237722
991.1890, 3.057678
991.6711, 4.014706
992.1533, 4.258406
992.6354, 3.905821
993.1175, 3.639112
993.5996, 3.306992
994.0817, 3.333227
994.5638, 3.995823
995.0460, 4.692858
995.5281, 5.210955
996.0102, 5.634588
996.4923, 6.050459
996.9744, 6.462049
997.4565, 6.847656
997.9387, 7.139170
998.4208, 7.509022
998.9029, 8.013958
999.3850, 8.600250
999.8671, 9.292311
1000.349, 10.00729
1000.831, 10.58471
1001.313, 11.03347
1001.796, 11.61260
1002.278, 12.58583
1002.760, 13.46442
1003.242, 13.83268
1003.724, 14.07998
1004.206, 14.63313
1004.688, 15.38746
1005.170, 16.06973
1005.653, 16.62209
1006.135, 17.23704
1006.617, 18.22535
1007.099, 19.11579
1007.581, 19.27993
1008.063, 19.18318
1008.545, 19.54743
1009.027, 20.26315
1009.509, 20.79176
1009.992, 20.95414
1010.474, 21.02284
1010.956, 21.36485
1011.438, 21.60876
1011.920, 20.92091
1012.402, 19.77462
1012.884, 19.48987
1013.366, 19.95958
1013.849, 19.87243
1014.331, 18.66078
1014.813, 17.13342
1015.295, 16.12969
1015.777, 15.51469
1016.259, 15.15244
1016.741, 14.94096
1017.223, 14.29748
1017.705, 13.18845
1018.188, 12.24533
1018.670, 11.80144
1019.152, 11.52436
1019.634, 10.94703
1020.116, 10.14387
1020.598, 9.424280
1021.080, 8.795160
1021.562, 8.450554
1022.044, 8.446056
1022.527, 8.295292
1023.009, 7.671629
1023.491, 6.845612
1023.973, 6.287552
1024.455, 5.983477
1024.937, 5.666521
1025.419, 5.335316
1025.901, 4.977592
1026.384, 4.571739
1026.866, 4.220121
1027.348, 3.980951
1027.830, 3.848806
1028.312, 3.839602
1028.794, 3.963663
1029.276, 3.925964
1029.758, 3.666285
1030.240, 3.474789
1030.723, 3.464676
1031.205, 3.380020
1031.687, 3.067329
1032.169, 2.552370
1032.651, 1.809065
1033.133, 0.7371690
1033.615, 0.2862150
1034.097, 0.7196040
1034.579, 1.225805
1035.062, 1.875307
1035.544, 2.203882
1036.026, 1.675037
1036.508, 0.7759800
1036.990, 0.5455970
1037.472, 1.113304
1037.954, 1.537069
1038.436, 1.936577
1038.919, 2.003120
1039.401, 1.391459
1039.883, 0.7505400
1040.365, 0.5338250
1040.847, 0.5667150
1041.329, 0.4447540
1041.811, 7.5828999E-02
1042.293, 3.8052000E-02
1042.776, 0.9337230
1043.258, 1.336475
1043.740, 0.3881590
1044.222, 0.5518720
1044.704, 0.4626480
1045.186, 0.2105690
1045.668, 0.5889300
1046.150, 0.5855160
1046.632, 0.5219170
1047.115, 0.3287220
1047.597, 0.2172320
1048.079, 0.2342590
1048.561, 0.3368950
1049.043, 0.5453360
1049.525, 0.8026050
1050.007, 1.039139
1050.489, 1.268110
1050.971, 1.279470
1051.454, 0.8386880
1051.936, 0.4409980
1052.418, 0.2234520
1052.900, 0.1048980
1053.382, 3.6161002E-02
1053.864, 1.5585000E-02
1054.346, 7.9056002E-02
1054.828, 0.2352290
1055.311, 0.3003480
1055.793, 0.1546250
1056.275, 7.5889998E-03
1056.757, 6.8820998E-02
1057.239, 0.1222020
1057.721, 0.1839980
1058.203, 0.2498590
1058.685, 0.3181510
1059.167, 0.3863240
1059.650, 0.4113850
1060.132, 0.4399280
1060.614, 0.3400440
1061.096, 0.1684760
1061.578, 0.6003440
1062.060, 0.4185140
1062.542, 2.0764999E-02
1063.024, 8.4085003E-02
1063.506, 0.3100810
1063.989, 0.7357920
1064.471, 1.266411
1064.953, 1.478966
1065.435, 0.8570160
1065.917, 0.1869470
1066.399, 6.4668998E-02
1066.881, 0.3028430
1067.363, 0.6059550
1067.846, 0.9067550
1068.328, 1.171432
1068.810, 1.494341
1069.292, 1.591255
1069.774, 1.172344
1070.256, 0.6460480
1070.738, 0.2400760
1071.220, 3.4449000E-02
1071.703, 0.2056370
1072.185, 0.2703500
1072.667, 0.1824670
1073.149, 0.1678560
1073.631, 0.4580920
1074.113, 0.4406130
1074.595, 0.4110340
1075.077, 0.6371940
1075.559, 0.9487110
1076.042, 1.105875
1076.524, 1.105267
1077.006, 1.103367
1077.488, 1.177599
1077.970, 1.189535
1078.452, 1.100018
1078.934, 0.9047010
1079.416, 0.4256150
1079.898, 4.1301999E-02
1080.380, 7.2474003E-02
1080.863, 0.2409420
1081.345, 0.4370940
1081.827, 0.3425390
1082.309, 0.2855130
1082.791, 0.4419480
1083.273, 0.6470780
1083.755, 0.7848530
1084.237, 0.9259490
1084.720, 1.220749
1085.202, 1.583843
1085.684, 1.794611
1086.166, 1.798798
1086.648, 1.595589
1087.130, 0.8976880
1087.612, 0.3506240
1088.094, 0.4627110
1088.577, 0.7249980
1089.059, 0.6451990
1089.541, 0.3445490
1090.023, 0.1164630
1090.505, 1.9823000E-02
1090.987, 0.1438790
1091.469, 0.8719600
1091.951, 1.359285
1092.433, 1.086229
1092.916, 0.5899700
1093.398, 0.1613010
1093.880, 0.1251830
1094.362, 0.1661300
1094.844, 3.2333001E-02
1095.326, 0.2169700
1095.808, 0.3038560
1096.290, 0.4183430
1096.772, 0.5295370
1097.255, 0.6272220
1097.737, 0.8394600
1098.219, 1.078960
1098.701, 1.273361
1099.183, 1.387671
1099.665, 1.284230
1100.147, 0.6972860
1100.629, 0.3853150
1101.112, 0.6845100
1101.594, 1.143716
1102.076, 1.843937
1102.558, 2.319628
1103.040, 1.969681
1103.522, 0.9974230
1104.004, 0.3130800
1104.486, 7.4620001E-02
1104.969, 2.8286999E-02
1105.451, 0.3275070
1105.933, 0.5592800
1106.415, 0.3983270
1106.897, 0.2788200
1107.379, 0.7336580
1107.861, 1.465744
1108.343, 1.663265
1108.825, 1.122080
1109.307, 0.8792450
1109.790, 1.307623
1110.272, 1.640349
1110.754, 1.596375
1111.236, 1.548077
1111.718, 1.860967
1112.200, 2.249351
1112.682, 2.154884
1113.164, 1.535292
1113.647, 1.219586
1114.129, 1.482656
1114.611, 1.587167
1115.093, 1.411395
1115.575, 1.167066
1116.057, 0.8259740
1116.539, 0.5711350
1117.021, 0.6818330
1117.504, 1.094803
1117.986, 1.307644
1118.468, 1.218056
1118.950, 1.215740
1119.432, 1.363210
1119.914, 1.400243
1120.396, 1.206863
1120.878, 0.9144690
1121.360, 0.5861880
1121.843, 0.2919070
1122.325, 0.2948280
1122.807, 0.6675210
1123.289, 0.8794920
1123.771, 0.8521440
1124.253, 0.9498470
1124.735, 1.302457
1125.217, 1.670152
1125.699, 1.940645
1126.182, 2.047730
1126.664, 1.828829
1127.146, 1.313402
1127.628, 1.035622
1128.110, 1.008577
1128.592, 1.163549
1129.074, 1.519622
1129.556, 1.739704
1130.039, 1.660048
1130.521, 1.499722
1131.003, 1.510231
1131.485, 1.630362
1131.967, 1.673848
1132.449, 1.652328
1132.931, 1.880643
1133.413, 2.357547
1133.896, 2.231153
1134.378, 1.244834
1134.860, 0.4598240
1135.342, 0.7356960
1135.824, 1.498470
1136.306, 1.778005
1136.788, 1.645562
1137.270, 1.255042
1137.752, 0.6806150
1138.234, 0.3442000
1138.717, 0.3168290
1139.199, 0.3614280
1139.681, 0.3517500
1140.163, 0.3332300
1140.645, 0.3087720
1141.127, 0.3619240
1141.609, 0.7574760
1142.091, 1.279762
1142.574, 1.333876
1143.056, 1.037349
1143.538, 1.074968
1144.020, 1.595380
1144.502, 1.856911
1144.984, 1.153036
1145.466, 0.4122980
1145.948, 0.7947780
1146.431, 1.563384
1146.913, 1.903666
1147.395, 1.855865
1147.877, 1.452515
1148.359, 0.8440860
1148.841, 0.5080020
1149.323, 0.6702600
1149.805, 0.9521710
1150.287, 1.222161
1150.770, 1.412210
1151.252, 1.526344
1151.734, 1.474554
1152.216, 1.099467
1152.698, 0.5370700
1153.180, 4.5843001E-02
1153.662, 0.6141730
1154.144, 0.6986870
1154.626, 0.4039510
1155.109, 1.236725
1155.591, 1.071280
1156.073, 0.7656770
1156.555, 0.8662100
1157.037, 1.127309
1157.519, 1.309899
1158.001, 1.367191
1158.483, 1.113190
1158.966, 0.1309660
1159.448, 0.2812990
1159.930, 0.5289160
1160.412, 1.123151
1160.894, 0.9303460
1161.376, 0.6113350
1161.858, 0.6608760
1162.340, 0.9096160
1162.822, 0.9834900
1163.305, 0.8686440
1163.787, 0.9085680
1164.269, 1.228584
1164.751, 1.264388
1165.233, 0.8045580
1165.715, 0.5236470
1166.197, 0.8133840
1166.679, 1.217627
1167.161, 1.165620
1167.644, 0.8123420
1168.126, 0.8476430
1168.608, 1.294040
1169.090, 1.362437
1169.572, 1.005633
1170.054, 0.8240050
1170.536, 0.9852330
1171.018, 1.172138
1171.500, 1.163965
1171.983, 1.089872
1172.465, 1.198423
1172.947, 1.394031
1173.429, 1.340755
1173.911, 1.085494
1174.393, 0.7514840
1174.875, 0.4012620
1175.357, 0.1792820
1175.840, 0.1426940
1176.322, 0.3240150
1176.804, 0.8378330
1177.286, 1.382122
1177.768, 1.601368
1178.250, 1.597116
1178.732, 1.439831
1179.214, 1.206464
1179.697, 0.9443210
1180.179, 0.7309560
1180.661, 0.8351970
1181.143, 1.417069
1181.625, 1.866856
1182.107, 1.735688
1182.589, 1.445848
1183.071, 1.179004
1183.553, 0.9657820
1184.036, 0.7317950
1184.518, 0.6082040
1185.000, 0.9520580
1185.482, 1.767201
1185.964, 2.253143
1186.446, 2.072874
1186.928, 1.809573
1187.410, 1.496362
1187.892, 1.196988
1188.375, 0.8348840
1188.857, 0.5999240
1189.339, 0.7749340
1189.821, 1.182666
1190.303, 1.304941
1190.785, 1.100581
1191.267, 0.8350910
1191.749, 0.4198510
1192.232, 0.2072700
1192.714, 0.2963960
1193.196, 0.4661750
1193.678, 0.6216720
1194.160, 0.7557310
1194.642, 0.8834970
1195.124, 0.9565860
1195.606, 0.6899940
1196.089, 0.1074580
1196.571, 1.9951001E-02
1197.053, 0.3135660
1197.535, 0.4040850
1198.017, 8.1445001E-02
1198.499, 9.1793999E-02
1198.981, 0.2435100
1199.463, 0.7026970
1199.945, 0.6960900
1200.427, 0.5046360
1200.910, 0.8234580
1201.392, 1.349806
1201.874, 1.382727
1202.356, 0.9888960
1202.838, 0.4995000
1203.320, 6.4746998E-02
1203.802, 1.2564000E-02
1204.284, 0.6532630
1204.767, 1.218938
1205.249, 0.9207930
1205.731, 0.5366620
1206.213, 0.7356370
1206.695, 1.204236
1207.177, 1.723074
1207.659, 2.111631
1208.141, 1.937905
1208.624, 1.066848
1209.106, 0.5403180
1209.588, 0.8868410
1210.070, 1.183803
1210.552, 1.147075
1211.034, 1.113252
1211.516, 1.421114
1211.998, 1.654379
1212.480, 1.325190
1212.963, 0.5711780
1213.445, 8.0678999E-02
1213.927, 0.1622710
1214.409, 1.3410000E-03
1214.891, 0.7392030
1215.373, 1.159948
1215.855, 1.042485
1216.337, 0.8242080
1216.819, 0.7156100
1217.302, 0.6647420
1217.784, 0.6811010
1218.266, 0.7336650
1218.748, 0.8373580
1219.230, 0.9570940
1219.712, 0.8928310
1220.194, 0.6692950
1220.676, 0.4092710
1221.159, 0.1748140
1221.641, 0.1516600
1222.123, 0.4458950
1222.605, 0.8250300
1223.087, 1.125342
1223.569, 1.314797
1224.051, 1.249043
1224.533, 1.136841
1225.016, 1.386779
1225.498, 1.751400
1225.980, 1.652969
1226.462, 1.074181
1226.944, 0.5517300
1227.426, 0.2363590
1227.908, 0.1016110
1228.390, 0.3052730
1228.872, 0.4720030
1229.354, 0.4055810
1229.837, 0.2789390
1230.319, 0.1355340
1230.801, 7.4125998E-02
1231.283, 0.3113650
1231.765, 0.8266140
1232.247, 1.125921
1232.729, 1.163894
1233.211, 1.078163
1233.694, 0.7473130
1234.176, 0.8216980
1234.658, 1.626065
1235.140, 2.283916
1235.622, 2.141444
1236.104, 1.573193
1236.586, 1.164217
1237.068, 0.9094100
1237.551, 0.7397440
1238.033, 0.7018280
1238.515, 1.215804
1238.997, 2.111422
1239.479, 2.377051
1239.961, 1.800031
1240.443, 1.204966
1240.925, 1.098600
1241.407, 1.176166
1241.890, 1.120181
1242.372, 1.082767
1242.854, 1.341235
1243.336, 1.537220
1243.818, 0.9596380
1244.300, 5.5844001E-02
1244.782, 5.5500999E-02
1245.264, 0.7459770
1245.746, 1.337491
1246.229, 1.307266
1246.711, 1.277302
1247.193, 1.514919
1247.675, 1.540813
1248.157, 0.8978310
1248.639, 0.3620600
1249.121, 0.6134000
1249.603, 1.161880
1250.085, 1.151119
1250.568, 0.6189630
1251.050, 0.5170150
1251.532, 0.9130390
1252.014, 0.9476950
1252.496, 0.5396980
1252.978, 0.2738680
1253.460, 0.3224450
1253.942, 0.3468900
1254.425, 9.5712997E-02
1254.907, 0.1558700
1255.389, 3.1075001E-02
1255.871, 0.4399980
1256.353, 0.7440610
1256.835, 0.9197310
1257.317, 0.8126630
1257.799, 0.5680830
1258.281, 0.6036800
1258.764, 0.9352830
1259.246, 1.098127
1259.728, 0.8745530
1260.210, 0.5422220
1260.692, 3.7909999E-02
1261.174, 0.2912430
1261.656, 0.1340370
1262.138, 0.1108750
1262.620, 8.3230004E-02
1263.103, 2.7151000E-02
1263.585, 9.7493999E-02
1264.067, 0.4388110
1264.549, 0.8577330
1265.031, 1.507701
1265.513, 1.651296
1265.995, 1.141335
1266.477, 0.7288680
1266.960, 0.5791490
1267.442, 0.5836280
1267.924, 0.7008630
1268.406, 0.7590230
1268.888, 0.5012000
1269.370, 0.1369560
1269.852, 0.1730510
1270.334, 0.4535060
1270.817, 0.8017030
1271.299, 1.097001
1271.781, 1.105287
1272.263, 0.8529290
1272.745, 0.5390850
1273.227, 0.1659820
1273.709, 5.4907002E-02
1274.191, 0.5828150
1274.673, 0.9766950
1275.156, 0.6910790
1275.638, 0.3294440
1276.120, 0.3336770
1276.602, 0.4487790
1277.084, 0.2989230
1277.566, 7.5249998E-03
1278.048, 5.3966999E-02
1278.530, 0.5065520
1279.012, 0.6211380
1279.495, 0.2512140
1279.977, 0.1397020
1280.459, 0.4349560
1280.941, 0.5859390
1281.423, 0.3748900
1281.905, 0.1551970
1282.387, 0.2164400
1282.869, 0.3788280
1283.352, 0.3385590
1283.834, 0.1746330
1284.316, 5.3966999E-02
1284.798, 0.0000000E+00
##END=



