##NAMES=Neighborite
##RRUFFID=R080108
##IDEAL CHEMISTRY=NaMgF_3_
##LOCALITY=Mont Saint-Hilaire, Quebec, Canada
##OWNER=RRUFF
##SOURCE=William W. Pinch
##DESCRIPTION=Translucent brown zoned pseudocubic crystals associated with calcite and clinoenstatite
##STATUS=The identification of this mineral has been confirmed by single-crystal X-ray diffraction.
##URL=rruff.info/R080108
95.24622, 0.0000000E+00
95.72833, 27.60995
96.21045, 55.41371
96.69257, 79.28625
97.17468, 100.5097
97.65680, 111.8462
98.13892, 125.3007
98.62103, 130.3369
99.10315, 111.1255
99.58527, 73.49286
100.0674, 38.25336
100.5495, 8.742432
101.0316, 14.04169
101.5137, 29.88593
101.9958, 38.82806
102.4780, 40.24915
102.9601, 34.34698
103.4422, 21.20569
103.9243, 1.709106
104.4064, 24.12866
104.8885, 56.43774
105.3707, 97.73560
105.8528, 147.9362
106.3349, 205.8939
106.8170, 270.7689
107.2991, 344.8232
107.7813, 421.3153
108.2634, 499.1105
108.7455, 579.7252
109.2276, 663.6691
109.7097, 756.0579
110.1918, 849.1553
110.6740, 939.9226
111.1561, 1030.139
111.6382, 1115.758
112.1203, 1194.387
112.6024, 1267.858
113.0845, 1340.688
113.5667, 1407.766
114.0488, 1477.185
114.5309, 1555.648
115.0130, 1643.193
115.4951, 1740.181
115.9772, 1846.607
116.4594, 1963.689
116.9415, 2091.561
117.4236, 2236.428
117.9057, 2390.294
118.3878, 2543.792
118.8699, 2696.781
119.3521, 2848.176
119.8342, 3001.202
120.3163, 3156.608
120.7984, 3306.768
121.2805, 3449.248
121.7626, 3583.187
122.2448, 3707.110
122.7269, 3819.706
123.2090, 3922.239
123.6911, 4015.458
124.1732, 4098.970
124.6553, 4174.431
125.1375, 4242.468
125.6196, 4303.591
126.1017, 4359.424
126.5838, 4410.105
127.0659, 4456.282
127.5480, 4498.483
128.0302, 4535.594
128.5123, 4572.432
128.9944, 4614.722
129.4765, 4662.417
129.9586, 4714.961
130.4407, 4771.868
130.9229, 4833.275
131.4050, 4900.707
131.8871, 4973.261
132.3692, 5050.663
132.8513, 5130.255
133.3334, 5199.098
133.8156, 5234.380
134.2977, 5248.050
134.7798, 5268.591
135.2619, 5288.724
135.7440, 5308.258
136.2261, 5326.167
136.7083, 5339.914
137.1904, 5349.474
137.6725, 5356.585
138.1546, 5363.956
138.6367, 5372.563
139.1188, 5377.880
139.6010, 5379.240
140.0831, 5376.670
140.5652, 5370.530
141.0473, 5360.868
141.5294, 5347.852
142.0115, 5331.830
142.4937, 5313.346
142.9758, 5290.215
143.4579, 5260.328
143.9400, 5221.440
144.4221, 5185.606
144.9042, 5152.251
145.3864, 5121.646
145.8685, 5095.034
146.3506, 5074.251
146.8327, 5054.362
147.3148, 5033.582
147.7969, 5010.895
148.2791, 4989.701
148.7612, 4971.825
149.2433, 4955.396
149.7254, 4935.804
150.2075, 4906.250
150.6896, 4879.738
151.1718, 4861.397
151.6539, 4858.252
152.1360, 4853.136
152.6181, 4842.932
153.1002, 4821.534
153.5823, 4804.693
154.0645, 4798.816
154.5466, 4793.272
155.0287, 4783.109
155.5108, 4765.950
155.9929, 4746.450
156.4750, 4724.759
156.9572, 4701.094
157.4393, 4676.240
157.9214, 4647.668
158.4035, 4619.268
158.8856, 4593.443
159.3677, 4574.679
159.8499, 4555.249
160.3320, 4534.153
160.8141, 4511.355
161.2962, 4485.522
161.7783, 4452.045
162.2604, 4417.008
162.7426, 4385.588
163.2247, 4362.157
163.7068, 4340.201
164.1889, 4316.718
164.6710, 4291.888
165.1531, 4267.698
165.6353, 4245.798
166.1174, 4224.762
166.5995, 4203.035
167.0816, 4178.837
167.5637, 4154.529
168.0458, 4131.489
168.5280, 4109.769
169.0101, 4088.592
169.4922, 4068.311
169.9743, 4048.144
170.4564, 4027.053
170.9385, 4002.982
171.4207, 3978.769
171.9028, 3957.686
172.3849, 3940.072
172.8670, 3921.898
173.3491, 3899.755
173.8312, 3874.826
174.3134, 3849.283
174.7955, 3823.730
175.2776, 3798.456
175.7597, 3773.751
176.2418, 3749.506
176.7239, 3726.349
177.2061, 3706.147
177.6882, 3687.444
178.1703, 3666.473
178.6524, 3638.850
179.1345, 3608.274
179.6166, 3581.691
180.0988, 3559.808
180.5809, 3539.164
181.0630, 3516.153
181.5451, 3490.946
182.0272, 3464.933
182.5093, 3438.160
182.9915, 3410.873
183.4736, 3384.177
183.9557, 3358.038
184.4378, 3331.998
184.9199, 3305.165
185.4020, 3277.820
185.8842, 3249.479
186.3663, 3220.798
186.8484, 3191.121
187.3305, 3158.763
187.8126, 3123.080
188.2947, 3085.415
188.7769, 3047.007
189.2590, 3007.950
189.7411, 2969.796
190.2232, 2935.299
190.7053, 2903.320
191.1874, 2864.750
191.6696, 2816.933
192.1517, 2765.292
192.6338, 2720.146
193.1159, 2681.739
193.5980, 2643.398
194.0801, 2600.519
194.5623, 2553.646
195.0444, 2508.010
195.5265, 2464.541
196.0086, 2422.221
196.4907, 2378.873
196.9728, 2334.334
197.4550, 2289.726
197.9371, 2245.548
198.4192, 2201.784
198.9013, 2158.769
199.3834, 2116.703
199.8655, 2075.368
200.3477, 2033.509
200.8298, 1991.075
201.3119, 1948.702
201.7940, 1906.566
202.2761, 1864.774
202.7582, 1822.257
203.2404, 1778.658
203.7225, 1734.589
204.2046, 1691.894
204.6867, 1651.089
205.1688, 1609.983
205.6509, 1567.253
206.1331, 1522.255
206.6152, 1479.070
207.0973, 1438.202
207.5794, 1399.184
208.0615, 1360.833
208.5436, 1323.287
209.0258, 1285.831
209.5079, 1247.990
209.9900, 1209.471
210.4721, 1172.343
210.9542, 1136.810
211.4363, 1102.941
211.9185, 1070.653
212.4006, 1039.545
212.8827, 1010.322
213.3648, 984.2847
213.8469, 961.5640
214.3290, 940.6797
214.8112, 922.1851
215.2933, 905.2354
215.7754, 885.4443
216.2575, 860.4341
216.7396, 836.3750
217.2217, 818.0059
217.7039, 808.1274
218.1860, 795.5381
218.6681, 778.7407
219.1502, 759.2554
219.6323, 742.3594
220.1144, 729.0640
220.5966, 716.5747
221.0787, 703.4043
221.5608, 688.8145
222.0429, 675.7139
222.5250, 665.2314
223.0071, 656.7793
223.4893, 647.8965
223.9714, 637.2495
224.4535, 627.6562
224.9356, 620.9238
225.4177, 618.9404
225.8998, 616.0454
226.3820, 611.4766
226.8641, 605.5371
227.3462, 600.3618
227.8283, 597.0439
228.3104, 592.6958
228.7925, 585.4023
229.2747, 572.0869
229.7568, 561.6440
230.2389, 554.8682
230.7210, 550.8159
231.2031, 547.5889
231.6852, 547.1997
232.1674, 544.8667
232.6495, 537.8960
233.1316, 523.3521
233.6137, 511.1855
234.0958, 502.6064
234.5779, 496.1699
235.0601, 488.4966
235.5422, 478.5420
236.0243, 469.1055
236.5064, 461.8394
236.9885, 459.8657
237.4706, 452.6396
237.9528, 437.8809
238.4349, 418.7812
238.9170, 403.4966
239.3991, 393.9219
239.8812, 385.2520
240.3633, 375.5698
240.8455, 364.7388
241.3276, 353.1445
241.8097, 341.1323
242.2918, 328.4946
242.7739, 314.5708
243.2560, 298.0000
243.7382, 282.4219
244.2203, 269.7153
244.7024, 261.7656
245.1845, 251.3369
245.6666, 236.8276
246.1487, 220.6611
246.6309, 207.0654
247.1130, 196.8140
247.5951, 187.8027
248.0772, 179.7559
248.5593, 173.1450
249.0414, 165.3394
249.5236, 155.6323
250.0057, 145.1577
250.4878, 135.3052
250.9699, 125.5278
251.4520, 117.2642
251.9341, 111.5808
252.4163, 109.2305
252.8984, 105.2073
253.3805, 98.54175
253.8626, 90.82666
254.3447, 85.06714
254.8268, 82.52979
255.3090, 78.94824
255.7911, 72.85645
256.2732, 63.76562
256.7553, 55.88013
257.2374, 49.54663
257.7195, 44.03564
258.2017, 38.49634
258.6838, 32.85498
259.1659, 27.13721
259.6480, 21.30298
260.1301, 15.50073
260.6122, 8.997070
261.0944, 1.402588
261.5765, 6.466797
262.0586, 13.73022
262.5407, 19.98145
263.0228, 26.64136
263.5049, 34.32300
263.9871, 43.01953
264.4692, 49.31250
264.9513, 52.78418
265.4334, 54.69897
265.9155, 56.35571
266.3976, 57.62549
266.8798, 58.42700
267.3619, 58.26245
267.8440, 57.48413
268.3261, 58.50952
268.8082, 61.90942
269.2903, 65.90112
269.7725, 68.89746
270.2546, 70.47827
270.7367, 72.54297
271.2188, 75.59912
271.7009, 79.22144
272.1830, 82.01416
272.6652, 84.15698
273.1473, 84.82031
273.6294, 83.01807
274.1115, 78.22925
274.5936, 74.08105
275.0757, 70.73413
275.5579, 68.46484
276.0400, 68.50000
276.5221, 71.54248
277.0042, 74.19751
277.4863, 74.37451
277.9684, 71.94702
278.4506, 68.72266
278.9327, 64.20532
279.4148, 59.70483
279.8969, 58.56494
280.3790, 61.25073
280.8611, 63.84985
281.3433, 63.81079
281.8254, 61.17480
282.3075, 60.32031
282.7896, 61.88696
283.2717, 64.12622
283.7538, 64.33472
284.2360, 62.46045
284.7181, 59.57349
285.2002, 56.39941
285.6823, 52.77832
286.1644, 47.02173
286.6465, 38.88672
287.1287, 29.54956
287.6108, 20.04834
288.0929, 10.45264
288.5750, 1.623047
289.0571, 6.185547
289.5392, 12.95728
290.0214, 17.91479
290.5035, 20.76099
290.9856, 24.24219
291.4677, 32.25537
291.9498, 44.02026
292.4319, 54.48413
292.9141, 61.48438
293.3962, 66.62012
293.8783, 73.82959
294.3604, 83.16235
294.8425, 92.67798
295.3246, 100.5276
295.8068, 107.2319
296.2889, 114.3193
296.7710, 121.9302
297.2531, 130.4543
297.7352, 140.4841
298.2173, 151.9648
298.6995, 164.6895
299.1816, 178.9973
299.6637, 194.3486
300.1458, 209.4558
300.6279, 224.2166
301.1100, 238.4692
301.5922, 251.0488
302.0743, 262.4922
302.5564, 275.0720
303.0385, 291.2424
303.5206, 308.9597
304.0027, 325.4150
304.4849, 339.8850
304.9670, 353.9475
305.4491, 369.2852
305.9312, 385.3171
306.4133, 400.6641
306.8954, 413.8999
307.3776, 426.6182
307.8597, 440.5085
308.3418, 455.9292
308.8239, 471.2805
309.3060, 484.6118
309.7881, 497.3901
310.2703, 511.6150
310.7524, 528.0461
311.2345, 546.4233
311.7166, 567.6077
312.1987, 591.4302
312.6808, 613.8733
313.1630, 631.4092
313.6451, 646.9668
314.1272, 663.7993
314.6093, 682.9692
315.0914, 703.3708
315.5735, 724.0625
316.0557, 745.2153
316.5378, 767.8965
317.0199, 794.0928
317.5020, 820.9934
317.9841, 846.7739
318.4662, 869.3579
318.9484, 892.6033
319.4305, 918.2944
319.9126, 945.6182
320.3947, 972.4707
320.8768, 996.8906
321.3589, 1021.630
321.8411, 1048.468
322.3232, 1078.835
322.8053, 1107.887
323.2874, 1134.368
323.7695, 1159.055
324.2516, 1183.187
324.7338, 1205.988
325.2159, 1229.174
325.6980, 1253.270
326.1801, 1278.417
326.6622, 1303.744
327.1443, 1330.038
327.6265, 1356.254
328.1086, 1381.431
328.5907, 1404.634
329.0728, 1427.480
329.5549, 1450.040
330.0370, 1472.463
330.5192, 1495.116
331.0013, 1519.961
331.4834, 1543.816
331.9655, 1564.644
332.4476, 1580.152
332.9297, 1596.539
333.4119, 1614.564
333.8940, 1633.623
334.3761, 1651.221
334.8582, 1666.350
335.3403, 1681.058
335.8224, 1696.595
336.3046, 1713.910
336.7867, 1729.305
337.2688, 1742.316
337.7509, 1753.542
338.2330, 1765.134
338.7151, 1777.826
339.1973, 1788.297
339.6794, 1794.243
340.1615, 1795.123
340.6436, 1801.146
341.1257, 1814.280
341.6078, 1828.305
342.0900, 1834.644
342.5721, 1832.753
343.0542, 1830.320
343.5363, 1829.741
344.0184, 1830.606
344.5005, 1830.601
344.9827, 1829.739
345.4648, 1828.550
345.9469, 1827.320
346.4290, 1826.018
346.9111, 1824.857
347.3932, 1824.125
347.8754, 1822.758
348.3575, 1819.012
348.8396, 1812.872
349.3217, 1804.620
349.8038, 1792.726
350.2859, 1778.798
350.7681, 1767.841
351.2502, 1761.290
351.7323, 1753.927
352.2144, 1739.281
352.6965, 1718.711
353.1786, 1696.779
353.6608, 1676.306
354.1429, 1655.528
354.6250, 1631.246
355.1071, 1603.288
355.5892, 1576.513
356.0714, 1557.245
356.5535, 1541.113
357.0356, 1521.669
357.5177, 1494.966
357.9998, 1465.362
358.4819, 1435.479
358.9641, 1405.396
359.4462, 1376.267
359.9283, 1349.874
360.4104, 1323.907
360.8925, 1296.306
361.3746, 1265.518
361.8568, 1234.716
362.3389, 1205.208
362.8210, 1177.167
363.3031, 1149.492
363.7852, 1121.285
364.2673, 1093.276
364.7495, 1065.998
365.2316, 1039.819
365.7137, 1013.064
366.1958, 984.0449
366.6779, 955.0527
367.1600, 928.4961
367.6422, 905.9897
368.1243, 884.5413
368.6064, 864.5354
369.0885, 846.0005
369.5706, 824.8928
370.0527, 798.2891
370.5349, 771.7253
371.0170, 748.0422
371.4991, 728.0913
371.9812, 709.2729
372.4633, 691.9058
372.9454, 675.3813
373.4276, 658.1489
373.9097, 639.6165
374.3918, 621.1299
374.8739, 603.8579
375.3560, 587.9502
375.8381, 571.5317
376.3203, 554.7051
376.8024, 537.8701
377.2845, 521.1584
377.7666, 504.4353
378.2487, 488.8704
378.7308, 475.6323
379.2130, 464.2371
379.6951, 452.3862
380.1772, 439.7830
380.6593, 427.5698
381.1414, 417.2307
381.6235, 408.5425
382.1057, 398.1865
382.5878, 384.8240
383.0699, 370.5237
383.5520, 359.1003
384.0341, 350.3418
384.5162, 343.1140
384.9984, 337.2566
385.4805, 332.2588
385.9626, 326.9802
386.4447, 321.3030
386.9268, 315.3604
387.4089, 308.7925
387.8911, 302.0029
388.3732, 296.0881
388.8553, 292.3955
389.3374, 289.2063
389.8195, 284.6953
390.3016, 278.9875
390.7838, 273.5039
391.2659, 269.5120
391.7480, 266.1306
392.2301, 262.4324
392.7122, 257.8579
393.1943, 253.4331
393.6765, 249.4202
394.1586, 245.9729
394.6407, 243.5425
395.1228, 243.6323
395.6049, 243.7510
396.0870, 242.3855
396.5692, 238.6406
397.0513, 235.8933
397.5334, 235.5920
398.0155, 236.3655
398.4976, 236.5024
398.9797, 235.4868
399.4619, 234.1179
399.9440, 232.1650
400.4261, 229.6006
400.9082, 228.0676
401.3903, 229.6516
401.8724, 230.1853
402.3546, 226.5347
402.8367, 215.6013
403.3188, 207.4026
403.8009, 203.4387
404.2830, 202.1189
404.7651, 199.4512
405.2473, 195.2412
405.7294, 190.3965
406.2115, 185.2568
406.6936, 179.8914
407.1757, 174.0308
407.6578, 167.5730
408.1400, 160.8950
408.6221, 154.7468
409.1042, 149.0940
409.5863, 141.8306
410.0684, 131.7673
410.5505, 120.2498
411.0327, 109.7317
411.5148, 100.1619
411.9969, 91.43726
412.4790, 83.26514
412.9611, 75.76855
413.4432, 69.79932
413.9254, 65.83765
414.4075, 61.72217
414.8896, 54.61841
415.3717, 45.52295
415.8538, 36.80151
416.3359, 29.16382
416.8181, 22.73560
417.3002, 18.04443
417.7823, 14.96875
418.2644, 12.41284
418.7465, 11.03296
419.2286, 9.116943
419.7108, 4.875977
420.1929, 4.606934
420.6750, 13.33252
421.1571, 18.76099
421.6392, 21.75854
422.1213, 24.36328
422.6035, 26.97314
423.0856, 29.42651
423.5677, 31.66113
424.0498, 33.58496
424.5319, 35.41626
425.0140, 36.93066
425.4962, 38.41235
425.9783, 40.09375
426.4604, 41.16675
426.9425, 43.62451
427.4246, 48.91089
427.9067, 56.23071
428.3889, 59.67700
428.8710, 58.21118
429.3531, 54.70776
429.8352, 50.41016
430.3173, 45.18286
430.7994, 40.22925
431.2816, 35.65015
431.7637, 31.33252
432.2458, 26.95728
432.7279, 22.50098
433.2100, 19.10669
433.6921, 18.05273
434.1743, 18.28394
434.6564, 15.58594
435.1385, 9.866455
435.6206, 3.418213
436.1027, 1.628906
436.5848, 5.884521
437.0670, 11.27197
437.5491, 18.69482
438.0312, 26.10669
438.5133, 30.45117
438.9954, 32.89355
439.4775, 36.60376
439.9597, 44.87793
440.4418, 54.17090
440.9239, 60.89331
441.4060, 64.86450
441.8881, 69.33643
442.3702, 77.02173
442.8524, 85.66943
443.3345, 93.16016
443.8166, 98.27075
444.2987, 102.8733
444.7808, 106.5188
445.2629, 109.9102
445.7451, 115.2061
446.2272, 124.3572
446.7093, 133.9719
447.1914, 142.7532
447.6735, 150.4075
448.1556, 157.9683
448.6378, 165.3071
449.1199, 172.5491
449.6020, 179.8372
450.0841, 187.0198
450.5662, 194.2908
451.0483, 201.6943
451.5305, 209.2478
452.0126, 216.8748
452.4947, 224.7820
452.9768, 232.3301
453.4589, 238.9580
453.9410, 244.6689
454.4232, 251.1887
454.9053, 258.8218
455.3874, 266.5852
455.8695, 273.4939
456.3516, 279.5696
456.8337, 284.7979
457.3159, 288.9475
457.7980, 292.5178
458.2801, 296.0442
458.7622, 299.6423
459.2443, 304.2285
459.7264, 312.5051
460.2086, 321.3765
460.6907, 326.0303
461.1728, 325.0222
461.6549, 323.6270
462.1370, 324.5547
462.6191, 327.7595
463.1013, 333.1770
463.5834, 344.0149
464.0655, 354.0366
464.5476, 359.6379
465.0297, 361.2671
465.5118, 363.4939
465.9940, 367.6763
466.4761, 372.5452
466.9582, 377.3418
467.4403, 381.5413
467.9224, 386.5645
468.4045, 393.7661
468.8867, 401.1406
469.3688, 405.5830
469.8509, 404.3459
470.3330, 405.1763
470.8151, 410.5708
471.2972, 419.9949
471.7794, 427.3228
472.2615, 432.1514
472.7436, 436.2566
473.2257, 441.0142
473.7078, 446.4705
474.1899, 450.5571
474.6721, 452.6523
475.1542, 454.6853
475.6363, 460.3657
476.1184, 469.0286
476.6005, 476.4028
477.0826, 479.4561
477.5648, 480.7729
478.0469, 484.6882
478.5290, 490.9873
479.0111, 497.8728
479.4932, 504.8408
479.9753, 511.4631
480.4575, 517.3411
480.9396, 522.5942
481.4217, 526.5867
481.9038, 527.3428
482.3859, 526.8542
482.8680, 528.0251
483.3502, 533.3525
483.8323, 538.9329
484.3144, 543.4009
484.7965, 546.6187
485.2786, 549.6104
485.7607, 553.1526
486.2429, 555.8887
486.7250, 557.1460
487.2071, 555.3970
487.6892, 555.7644
488.1713, 558.7068
488.6534, 563.5776
489.1356, 570.1350
489.6177, 579.8071
490.0998, 587.0347
490.5819, 589.9226
491.0640, 589.5134
491.5461, 590.2461
492.0283, 591.8496
492.5104, 596.4954
492.9925, 606.8569
493.4746, 621.9700
493.9567, 636.2852
494.4388, 649.6069
494.9210, 661.6096
495.4031, 671.7170
495.8852, 680.2070
496.3673, 688.1296
496.8494, 695.0930
497.3315, 702.1426
497.8137, 709.9839
498.2958, 718.6694
498.7779, 728.2881
499.2600, 740.5798
499.7421, 752.7361
500.2242, 762.5557
500.7064, 769.3755
501.1885, 776.2173
501.6706, 785.1709
502.1527, 794.1372
502.6348, 800.8569
503.1169, 802.1367
503.5991, 804.7844
504.0812, 810.5791
504.5633, 818.4084
505.0454, 824.1213
505.5275, 826.9556
506.0096, 828.8679
506.4918, 830.4460
506.9739, 831.6282
507.4560, 832.9680
507.9381, 834.3420
508.4202, 836.1494
508.9023, 839.0754
509.3845, 843.0327
509.8666, 846.6130
510.3487, 849.5137
510.8308, 852.0320
511.3129, 855.0771
511.7950, 858.3677
512.2772, 860.5142
512.7593, 859.8188
513.2414, 858.1089
513.7235, 857.8730
514.2056, 859.0618
514.6877, 859.6067
515.1699, 856.6882
515.6520, 853.2588
516.1341, 852.1904
516.6162, 855.1897
517.0983, 858.3604
517.5804, 861.6157
518.0626, 863.9368
518.5447, 863.6687
519.0268, 857.7485
519.5089, 852.1260
519.9910, 848.6340
520.4731, 847.0286
520.9553, 843.6985
521.4374, 837.5640
521.9195, 831.4661
522.4016, 827.0024
522.8837, 824.4851
523.3658, 822.7795
523.8480, 822.3989
524.3301, 821.8401
524.8122, 818.6775
525.2943, 813.1504
525.7764, 808.0476
526.2585, 803.7002
526.7407, 800.7629
527.2228, 801.2036
527.7049, 804.4749
528.1870, 807.3767
528.6691, 808.0254
529.1512, 807.1821
529.6334, 805.5571
530.1155, 803.1165
530.5976, 800.2627
531.0797, 796.1941
531.5618, 792.1562
532.0439, 789.5325
532.5261, 789.7686
533.0082, 789.6528
533.4903, 787.9316
533.9724, 785.2734
534.4545, 783.0308
534.9366, 782.9971
535.4188, 781.5049
535.9009, 777.2090
536.3830, 770.2283
536.8651, 764.5457
537.3472, 760.1716
537.8293, 757.2456
538.3115, 756.6946
538.7936, 758.8877
539.2757, 758.8250
539.7578, 755.8542
540.2399, 751.9639
540.7220, 749.6721
541.2042, 748.8145
541.6863, 748.0830
542.1684, 747.1843
542.6505, 745.9800
543.1326, 744.6589
543.6147, 742.9983
544.0969, 739.9751
544.5790, 733.0859
545.0611, 725.9573
545.5432, 722.5635
546.0253, 723.4993
546.5074, 722.1877
546.9896, 712.8528
547.4717, 702.0442
547.9538, 695.0520
548.4359, 695.9863
548.9180, 696.2517
549.4001, 695.0081
549.8823, 692.7515
550.3644, 690.2913
550.8465, 687.5388
551.3286, 684.7048
551.8107, 682.1113
552.2928, 679.5796
552.7750, 675.6204
553.2571, 669.8740
553.7392, 663.8279
554.2213, 658.4019
554.7034, 653.6235
555.1855, 648.2280
555.6677, 641.9543
556.1498, 636.3982
556.6319, 634.4790
557.1140, 634.3677
557.5961, 632.2649
558.0782, 626.4709
558.5604, 619.5176
559.0425, 613.2439
559.5246, 607.2607
560.0067, 600.9255
560.4888, 595.2917
560.9709, 588.4492
561.4531, 578.4253
561.9352, 565.2080
562.4173, 555.6760
562.8994, 555.9016
563.3815, 556.0605
563.8636, 550.8198
564.3458, 537.3157
564.8279, 526.0657
565.3100, 517.4800
565.7921, 510.0955
566.2742, 502.5093
566.7563, 494.8401
567.2385, 486.3684
567.7206, 476.6411
568.2027, 466.3323
568.6848, 458.0315
569.1669, 451.3230
569.6490, 444.2344
570.1312, 434.7654
570.6133, 424.6157
571.0954, 416.9851
571.5775, 411.5549
572.0596, 405.4541
572.5417, 396.2673
573.0239, 385.7949
573.5060, 375.6746
573.9881, 365.8313
574.4702, 356.5688
574.9523, 347.9412
575.4344, 339.8718
575.9166, 332.4277
576.3987, 326.7490
576.8808, 319.9729
577.3629, 311.1318
577.8450, 300.9307
578.3271, 291.7461
578.8093, 284.1594
579.2914, 276.0103
579.7735, 265.7800
580.2556, 254.1323
580.7377, 245.3721
581.2198, 239.7205
581.7020, 234.2620
582.1841, 226.3599
582.6662, 216.9250
583.1483, 207.7329
583.6304, 199.1870
584.1125, 191.1782
584.5947, 184.6165
585.0768, 178.3579
585.5589, 170.6917
586.0410, 159.3918
586.5231, 148.5417
587.0052, 140.6941
587.4874, 134.7964
587.9695, 128.1470
588.4516, 118.8279
588.9337, 109.9612
589.4158, 102.6055
589.8979, 96.79785
590.3801, 91.04810
590.8622, 85.53711
591.3443, 79.65527
591.8264, 72.65894
592.3085, 64.26196
592.7906, 57.71216
593.2728, 53.26221
593.7549, 49.82642
594.2370, 46.40820
594.7191, 42.80615
595.2012, 38.41309
595.6833, 32.51758
596.1655, 26.68799
596.6476, 22.93433
597.1297, 20.67236
597.6118, 18.32471
598.0939, 15.43652
598.5760, 12.08545
599.0582, 8.141846
599.5403, 3.863037
600.0224, 0.2851560
600.5045, 4.111084
600.9866, 7.816650
601.4688, 11.88232
601.9509, 16.89990
602.4330, 19.24561
602.9151, 17.32617
603.3972, 14.89014
603.8793, 15.72314
604.3615, 20.29956
604.8436, 23.63184
605.3257, 25.01465
605.8078, 25.15820
606.2899, 24.71069
606.7720, 23.87158
607.2542, 23.27368
607.7363, 23.31177
608.2184, 23.55688
608.7005, 23.08813
609.1826, 22.30762
609.6647, 22.40381
610.1469, 26.00684
610.6290, 29.04175
611.1111, 27.83691
611.5932, 22.05200
612.0753, 18.94702
612.5574, 23.00977
613.0396, 27.77490
613.5217, 29.47339
614.0038, 26.82861
614.4859, 24.40967
614.9680, 22.00098
615.4501, 20.12158
615.9323, 20.38135
616.4144, 23.07715
616.8965, 21.91211
617.3786, 14.45190
617.8607, 4.989014
618.3428, 0.9936520
618.8250, 1.554443
619.3071, 2.898682
619.7892, 2.895508
620.2713, 3.075439
620.7534, 5.652100
621.2355, 10.04797
621.7177, 13.38660
622.1998, 14.36743
622.6819, 13.76514
623.1640, 11.44128
623.6461, 6.928833
624.1282, 3.910400
624.6104, 4.426758
625.0925, 5.083496
625.5746, 3.669189
626.0567, 0.6799320
626.5388, 4.564941
627.0209, 7.999634
627.5031, 10.75488
627.9852, 12.17773
628.4673, 12.31714
628.9494, 12.78345
629.4315, 14.14929
629.9136, 15.66455
630.3958, 15.51318
630.8779, 14.43176
631.3600, 14.71899
631.8421, 18.82275
632.3242, 23.67273
632.8063, 27.40100
633.2885, 29.98975
633.7706, 31.52563
634.2527, 30.80994
634.7348, 30.13562
635.2169, 30.85608
635.6990, 33.44788
636.1812, 34.80640
636.6633, 34.27368
637.1454, 33.33362
637.6275, 32.80957
638.1096, 32.51636
638.5917, 33.87952
639.0739, 37.29932
639.5560, 41.28149
640.0381, 44.04529
640.5202, 45.75305
641.0023, 47.08521
641.4844, 48.09509
641.9666, 48.99683
642.4487, 50.03394
642.9308, 51.15417
643.4129, 52.21277
643.8950, 53.78333
644.3771, 54.67590
644.8593, 53.35376
645.3414, 50.53748
645.8235, 49.81934
646.3056, 53.90149
646.7877, 58.06335
647.2698, 60.84509
647.7520, 62.21265
648.2341, 63.28723
648.7162, 63.89417
649.1983, 64.66199
649.6804, 66.32336
650.1625, 68.70471
650.6447, 70.07629
651.1268, 70.22742
651.6089, 70.28003
652.0910, 71.26257
652.5731, 72.99927
653.0552, 75.39465
653.5374, 78.95581
654.0195, 81.88867
654.5016, 81.97766
654.9837, 81.07544
655.4658, 81.89417
655.9479, 88.55432
656.4301, 93.09485
656.9122, 91.97034
657.3943, 87.72583
657.8764, 87.51379
658.3585, 93.16614
658.8406, 98.33142
659.3228, 100.7360
659.8049, 100.8994
660.2870, 101.7324
660.7691, 103.3478
661.2512, 105.7776
661.7333, 110.0995
662.2155, 114.5134
662.6976, 115.3395
663.1797, 112.6018
663.6618, 109.7222
664.1439, 109.7405
664.6260, 110.3177
665.1082, 108.9792
665.5903, 104.3782
666.0724, 101.1646
666.5545, 102.5161
667.0366, 104.7520
667.5187, 104.2828
668.0009, 98.95679
668.4830, 94.95691
668.9651, 93.27747
669.4472, 93.28284
669.9293, 93.55908
670.4114, 93.67090
670.8936, 93.14807
671.3757, 92.11194
671.8578, 90.75854
672.3399, 88.63843
672.8220, 85.99194
673.3041, 83.66272
673.7863, 81.11316
674.2684, 79.40137
674.7505, 80.62146
675.2326, 84.44080
675.7147, 87.39905
676.1968, 87.37793
676.6790, 86.24963
677.1611, 84.51221
677.6432, 82.19629
678.1253, 80.86255
678.6074, 80.70496
679.0895, 80.65149
679.5717, 80.37415
680.0538, 80.03564
680.5359, 78.95129
681.0180, 77.20007
681.5001, 75.14563
681.9822, 72.27185
682.4644, 69.04932
682.9465, 67.14136
683.4286, 67.32092
683.9107, 67.66028
684.3928, 66.02844
684.8749, 63.84753
685.3571, 62.84534
685.8392, 65.92737
686.3213, 66.97180
686.8034, 63.28784
687.2855, 57.65625
687.7676, 54.37085
688.2498, 54.00134
688.7319, 54.37012
689.2140, 55.46863
689.6961, 56.97754
690.1782, 57.46924
690.6603, 56.94287
691.1425, 56.21387
691.6246, 55.37402
692.1067, 54.66968
692.5888, 54.97644
693.0709, 56.00256
693.5530, 56.38611
694.0352, 54.63538
694.5173, 52.44421
694.9994, 50.68823
695.4815, 49.41895
695.9636, 48.75342
696.4457, 49.22644
696.9279, 49.90088
697.4100, 50.06177
697.8921, 49.29553
698.3742, 50.83533
698.8563, 55.54675
699.3384, 59.88367
699.8206, 59.94202
700.3027, 56.70251
700.7848, 54.93298
701.2669, 55.28467
701.7490, 55.93481
702.2311, 55.09143
702.7133, 53.46069
703.1954, 51.99158
703.6775, 50.91821
704.1596, 50.27612
704.6417, 50.40674
705.1238, 50.79932
705.6060, 50.73145
706.0881, 49.80920
706.5702, 49.01709
707.0523, 48.48145
707.5344, 48.12158
708.0165, 47.72864
708.4987, 47.27466
708.9808, 47.04724
709.4629, 47.42822
709.9450, 47.72668
710.4271, 46.01050
710.9092, 42.91724
711.3914, 40.76941
711.8735, 41.28625
712.3556, 42.71765
712.8377, 44.66772
713.3198, 46.73779
713.8019, 47.08167
714.2841, 43.81458
714.7662, 40.05933
715.2483, 36.55396
715.7304, 33.35938
716.2125, 32.21936
716.6946, 34.01843
717.1768, 35.48132
717.6589, 34.07629
718.1410, 30.32605
718.6231, 28.37280
719.1052, 28.24927
719.5873, 29.17444
720.0695, 31.65576
720.5516, 34.28845
721.0337, 35.09448
721.5158, 33.68518
721.9979, 32.07690
722.4800, 30.92346
722.9622, 29.97583
723.4443, 29.01917
723.9264, 27.46021
724.4085, 27.40283
724.8906, 29.78857
725.3727, 32.58643
725.8549, 33.60767
726.3370, 32.69446
726.8191, 31.86401
727.3012, 31.28528
727.7833, 31.07715
728.2654, 31.77148
728.7476, 32.93848
729.2297, 33.50269
729.7118, 32.95361
730.1939, 32.13684
730.6760, 32.00305
731.1581, 31.87732
731.6403, 30.72827
732.1224, 26.33789
732.6045, 23.47168
733.0866, 23.52600
733.5687, 25.20667
734.0508, 25.76123
734.5330, 24.88318
735.0151, 24.27966
735.4972, 24.61877
735.9793, 25.30322
736.4614, 24.57788
736.9435, 22.78455
737.4257, 21.71570
737.9078, 23.53906
738.3899, 25.48840
738.8720, 24.34180
739.3541, 20.99451
739.8362, 18.66406
740.3184, 19.35022
740.8005, 20.39722
741.2826, 20.99988
741.7647, 21.13000
742.2468, 20.37634
742.7289, 17.98474
743.2111, 16.48804
743.6932, 17.75269
744.1753, 21.00854
744.6574, 21.33130
745.1395, 18.79187
745.6216, 16.40784
746.1038, 16.77234
746.5859, 18.25867
747.0680, 18.84326
747.5501, 18.46765
748.0322, 18.14404
748.5143, 18.81860
748.9965, 19.31702
749.4786, 18.65186
749.9607, 16.30054
750.4428, 15.42554
750.9249, 16.94653
751.4070, 18.46826
751.8892, 17.92456
752.3713, 15.37695
752.8534, 13.51709
753.3355, 12.49658
753.8176, 11.41260
754.2997, 8.272705
754.7819, 4.955566
755.2640, 4.964600
755.7461, 9.440186
756.2282, 13.38965
756.7103, 13.76440
757.1924, 12.61230
757.6746, 11.59937
758.1567, 10.67041
758.6388, 10.53320
759.1209, 11.70605
759.6030, 13.09497
760.0851, 13.50562
760.5673, 12.87695
761.0494, 12.28149
761.5315, 11.69727
762.0136, 11.28857
762.4957, 11.13330
762.9778, 11.34692
763.4600, 12.27393
763.9421, 14.33057
764.4242, 16.23022
764.9063, 17.67139
765.3884, 18.40381
765.8705, 18.09058
766.3527, 15.55127
766.8348, 13.69385
767.3169, 12.97534
767.7990, 12.71973
768.2811, 11.90601
768.7632, 10.51270
769.2454, 8.859863
769.7275, 6.768555
770.2096, 5.231934
770.6917, 5.977295
771.1738, 8.088623
771.6559, 9.732666
772.1381, 9.946045
772.6202, 9.939209
773.1023, 10.91943
773.5844, 11.93018
774.0665, 11.20386
774.5486, 5.581299
775.0308, 2.786377
775.5129, 5.086914
775.9950, 9.952393
776.4771, 11.86768
776.9592, 10.88281
777.4413, 8.380859
777.9235, 4.112793
778.4056, 0.3300780
778.8877, 3.193848
779.3698, 4.291260
779.8519, 3.115479
780.3340, 3.907471
780.8162, 9.760498
781.2983, 10.73364
781.7804, 8.086182
782.2625, 5.078125
782.7446, 0.6142580
783.2267, 1.828369
783.7089, 1.080322
784.1910, 1.824219
784.6731, 4.283203
785.1552, 6.303955
785.6373, 7.366455
786.1194, 6.524414
786.6016, 5.425293
787.0837, 7.254639
787.5658, 10.86084
788.0479, 13.04370
788.5300, 10.97778
789.0121, 8.451904
789.4943, 6.541016
789.9764, 5.431885
790.4585, 5.798096
790.9406, 8.976074
791.4227, 10.94312
791.9048, 10.24316
792.3870, 7.724609
792.8691, 5.759766
793.3512, 4.381592
793.8333, 4.151123
794.3154, 6.462158
794.7975, 9.097900
795.2797, 8.837891
795.7618, 6.575439
796.2439, 5.021240
796.7260, 6.533203
797.2081, 7.675293
797.6902, 6.883057
798.1724, 4.633301
798.6545, 2.489990
799.1366, 2.4413999E-02
799.6187, 1.010986
800.1008, 0.6699220
800.5829, 3.968750
801.0651, 5.884277
801.5472, 6.532959
802.0293, 6.645264
802.5114, 6.155029
802.9935, 5.588379
803.4756, 5.353271
803.9578, 5.578857
804.4399, 5.965332
804.9220, 7.624512
805.4041, 8.343994
805.8862, 6.951660
806.3683, 4.130127
806.8505, 3.030762
807.3326, 4.160645
807.8147, 4.352051
808.2968, 1.403564
808.7789, 2.347656
809.2610, 0.4399410
809.7432, 5.717285
810.2253, 10.33765
810.7074, 9.550781
811.1895, 7.078369
811.6716, 4.780762
812.1537, 2.706543
812.6359, 0.8701170
813.1180, 1.087402
813.6001, 2.229492
814.0822, 2.261719
814.5643, 1.346680
815.0464, 0.4416500
815.5286, 3.138428
816.0107, 4.422852
816.4928, 2.685547
816.9749, 0.3051760
817.4570, 2.402832
817.9391, 3.574707
818.4213, 3.754150
818.9034, 2.132813
819.3855, 0.3693850
819.8676, 0.8457030
820.3497, 1.628662
820.8318, 2.538818
821.3140, 3.378174
821.7961, 4.598389
822.2782, 6.658203
822.7603, 8.850586
823.2424, 8.801758
823.7245, 6.897217
824.2067, 5.662842
824.6888, 6.839600
825.1709, 8.229004
825.6530, 8.020508
826.1351, 6.510254
826.6172, 4.352539
827.0994, 0.3820800
827.5815, 2.439697
828.0636, 3.064453
828.5457, 2.398682
829.0278, 2.411621
829.5099, 3.239990
829.9921, 3.713623
830.4742, 3.510254
830.9563, 2.871338
831.4384, 1.829102
831.9205, 0.6442870
832.4026, 3.3202998E-02
832.8848, 1.002686
833.3669, 1.480713
833.8490, 0.3862300
834.3311, 3.188721
834.8132, 4.441406
835.2953, 3.045898
835.7775, 1.883545
836.2596, 1.211182
836.7417, 0.8391110
837.2238, 0.3413090
837.7059, 0.1005860
838.1880, 0.8244630
838.6702, 3.902344
839.1523, 6.634033
839.6344, 5.750244
840.1165, 3.173828
840.5986, 1.672852
841.0807, 2.837891
841.5629, 3.787598
842.0450, 3.768311
842.5271, 3.384277
843.0092, 3.289551
843.4913, 3.633545
843.9734, 3.441895
844.4556, 2.505371
844.9377, 1.474365
845.4198, 0.7680660
845.9019, 0.6315920
846.3840, 1.941650
846.8661, 5.302002
847.3483, 7.980713
847.8304, 8.313965
848.3125, 7.359619
848.7946, 5.874512
849.2767, 3.273438
849.7589, 2.100098
850.2410, 2.961914
850.7231, 4.061768
851.2052, 3.207764
851.6873, 0.9304200
852.1694, 1.177979
852.6516, 4.248535
853.1337, 7.499268
853.6158, 8.624512
854.0979, 8.956787
854.5800, 10.09302
855.0621, 12.42383
855.5443, 13.53247
856.0264, 11.89062
856.5085, 9.961670
856.9906, 9.111084
857.4727, 9.358887
857.9548, 8.055664
858.4370, 5.015869
858.9191, 2.747314
859.4012, 4.449707
859.8833, 7.334717
860.3654, 6.023193
860.8475, 1.042480
861.3297, 2.209473
861.8118, 0.4643550
862.2939, 3.780762
862.7760, 4.976074
863.2581, 4.355713
863.7402, 4.807861
864.2224, 6.877197
864.7045, 7.862793
865.1866, 5.763428
865.6687, 2.404785
866.1508, 3.233154
866.6329, 7.220947
867.1151, 10.23218
867.5972, 9.499268
868.0793, 7.560303
868.5614, 5.103271
869.0435, 2.596924
869.5256, 1.526123
870.0078, 2.501953
870.4899, 3.857910
870.9720, 5.381836
871.4541, 7.023438
871.9362, 9.185547
872.4183, 11.70068
872.9005, 12.78833
873.3826, 11.46069
873.8647, 9.425049
874.3468, 8.130615
874.8289, 7.270264
875.3110, 6.346680
875.7932, 4.696045
876.2753, 3.909668
876.7574, 5.260986
877.2395, 6.580811
877.7216, 4.428711
878.2037, 1.557861
878.6859, 4.316406
879.1680, 2.727783
879.6501, 0.6901860
880.1322, 4.473389
880.6143, 7.920898
881.0964, 9.750000
881.5786, 9.382813
882.0607, 8.688232
882.5428, 8.232178
883.0249, 7.790039
883.5070, 7.121338
883.9891, 6.101563
884.4713, 5.536377
884.9534, 5.411865
885.4355, 5.585205
885.9176, 6.591309
886.3997, 7.993896
886.8818, 7.617432
887.3640, 5.412354
887.8461, 4.207520
888.3282, 6.957764
888.8103, 9.842773
889.2924, 10.14111
889.7745, 8.220459
890.2567, 8.845215
890.7388, 13.11401
891.2209, 15.81738
891.7030, 13.93457
892.1851, 9.679932
892.6672, 9.819092
893.1494, 13.20068
893.6315, 14.82764
894.1136, 10.02466
894.5957, 4.967041
895.0778, 2.781494
895.5599, 3.020752
896.0421, 4.746826
896.5242, 9.848633
897.0063, 12.08350
897.4884, 9.629639
897.9705, 4.976807
898.4526, 2.225830
898.9348, 1.345459
899.4169, 1.929932
899.8990, 4.468018
900.3811, 6.578125
900.8632, 5.415527
901.3453, 3.210205
901.8275, 2.610840
902.3096, 5.794678
902.7917, 7.535889
903.2738, 7.129395
903.7559, 5.918457
904.2380, 4.974854
904.7202, 4.409180
905.2023, 4.911377
905.6844, 6.576904
906.1665, 8.192383
906.6486, 8.152100
907.1307, 7.604736
907.6129, 7.722656
908.0950, 8.703613
908.5771, 8.703369
909.0592, 6.142822
909.5413, 4.550537
910.0234, 5.898193
910.5056, 9.554199
910.9877, 11.64282
911.4698, 12.17847
911.9519, 11.31201
912.4340, 7.540283
912.9161, 3.676270
913.3983, 2.541992
913.8804, 3.643555
914.3625, 5.628906
914.8446, 10.80176
915.3267, 13.08569
915.8088, 9.837891
916.2910, 4.337158
916.7731, 3.924316
917.2552, 8.453369
917.7373, 10.66333
918.2194, 8.298096
918.7015, 5.115723
919.1837, 5.442871
919.6658, 7.560791
920.1479, 8.518066
920.6300, 6.705322
921.1121, 5.811279
921.5942, 7.431396
922.0764, 9.007568
922.5585, 8.121582
923.0406, 4.653809
923.5227, 2.587646
924.0048, 2.068115
924.4869, 2.626709
924.9691, 3.729736
925.4512, 5.772949
925.9333, 9.532715
926.4154, 14.95215
926.8975, 20.15381
927.3796, 25.38135
927.8618, 29.42993
928.3439, 32.35718
928.8260, 33.77173
929.3081, 30.32886
929.7902, 22.14526
930.2723, 16.72485
930.7545, 19.85840
931.2366, 24.54272
931.7187, 20.72192
932.2008, 12.59717
932.6829, 8.777100
933.1650, 18.44360
933.6472, 23.60376
934.1293, 20.15088
934.6114, 12.95703
935.0935, 8.741211
935.5756, 7.448975
936.0577, 5.948486
936.5399, 3.807861
937.0220, 1.771484
937.5041, 4.0038999E-02
937.9862, 1.285889
938.4683, 1.154297
938.9504, 0.8603520
939.4326, 2.146484
939.9147, 1.770996
940.3968, 1.207520
940.8789, 1.272461
941.3610, 1.784668
941.8431, 2.937500
942.3253, 4.777832
942.8074, 5.448486
943.2895, 1.885986
943.7716, 1.914063
944.2537, 1.636719
944.7358, 1.685303
945.2180, 3.970703
945.7001, 4.191895
946.1822, 3.335449
946.6643, 0.7951660
947.1464, 2.033691
947.6285, 1.829834
948.1107, 1.014893
948.5928, 3.612305
949.0749, 5.398682
949.5570, 6.307129
950.0391, 5.822754
950.5212, 4.365234
951.0034, 2.984863
951.4855, 1.283691
951.9676, 1.240723
952.4497, 3.784180
952.9318, 6.328125
953.4139, 6.414063
953.8961, 4.616211
954.3782, 4.876221
954.8603, 7.045898
955.3424, 8.137451
955.8245, 3.917725
956.3066, 0.2221680
956.7888, 8.1055000E-02
957.2709, 4.432861
957.7530, 8.058350
958.2351, 11.62817
958.7172, 12.30005
959.1993, 8.392578
959.6815, 2.417236
960.1636, 0.7766110
960.6457, 1.460693
961.1278, 6.4452998E-02
961.6099, 5.069824
962.0920, 8.591797
962.5742, 5.386230
963.0563, 9.5215000E-02
963.5384, 1.797119
964.0205, 1.426270
964.5026, 3.305908
964.9847, 3.481689
965.4669, 3.341309
965.9490, 4.556396
966.4311, 6.235840
966.9132, 6.177246
967.3953, 4.414795
967.8774, 3.307861
968.3596, 4.043457
968.8417, 5.729004
969.3238, 8.468262
969.8059, 11.82666
970.2880, 13.96973
970.7701, 14.90039
971.2523, 14.36816
971.7344, 11.41455
972.2165, 8.456787
972.6986, 9.903076
973.1807, 13.70752
973.6628, 15.87891
974.1450, 13.79175
974.6271, 12.33740
975.1092, 12.99487
975.5913, 14.14404
976.0734, 14.21680
976.5555, 13.16968
977.0377, 13.07861
977.5198, 14.10620
978.0019, 14.98071
978.4840, 13.99219
978.9661, 12.85767
979.4482, 13.63208
979.9304, 16.32617
980.4125, 18.57129
980.8946, 21.58521
981.3767, 21.37451
981.8588, 14.97998
982.3409, 5.951660
982.8231, 5.750488
983.3052, 12.57715
983.7873, 16.79150
984.2694, 13.30176
984.7515, 9.329590
985.2336, 10.67334
985.7158, 14.16382
986.1979, 15.47217
986.6800, 12.23608
987.1621, 12.07129
987.6442, 16.21582
988.1263, 19.92944
988.6085, 17.44922
989.0906, 11.59521
989.5727, 9.512451
990.0548, 11.28174
990.5369, 13.51538
991.0190, 15.84131
991.5012, 16.81860
991.9833, 14.54688
992.4654, 10.48560
992.9475, 10.13428
993.4296, 14.01367
993.9117, 15.94434
994.3939, 13.32568
994.8760, 9.837646
995.3581, 11.67798
995.8402, 15.53418
996.3223, 16.07153
996.8044, 10.19653
997.2866, 4.844727
997.7687, 0.2866210
998.2508, 2.685059
998.7329, 2.900146
999.2150, 0.5144040
999.6971, 0.7451170
1000.179, 0.8613280
1000.661, 1.498291
1001.143, 5.028809
1001.626, 8.272705
1002.108, 8.517090
1002.590, 6.587402
1003.072, 6.311523
1003.554, 8.822998
1004.036, 10.69482
1004.518, 11.19043
1005.000, 10.53369
1005.483, 9.476807
1005.965, 8.036865
1006.447, 5.078857
1006.929, 0.7380370
1007.411, 3.692383
1007.893, 2.875488
1008.375, 10.21069
1008.857, 11.30640
1009.339, 5.495850
1009.822, 2.640137
1010.304, 2.920654
1010.786, 4.500732
1011.268, 7.821289
1011.750, 10.61230
1012.232, 8.106689
1012.714, 2.585693
1013.196, 0.6030270
1013.679, 8.865723
1014.161, 14.14697
1014.643, 13.52832
1015.125, 10.58105
1015.607, 10.60083
1016.089, 12.95728
1016.571, 13.83350
1017.053, 12.61597
1017.535, 10.63403
1018.018, 7.574951
1018.500, 5.069092
1018.982, 4.672363
1019.464, 6.533691
1019.946, 9.253418
1020.428, 13.63696
1020.910, 15.58301
1021.392, 11.65332
1021.875, 6.310791
1022.357, 8.810059
1022.839, 16.07080
1023.321, 20.89160
1023.803, 18.66138
1024.285, 16.45947
1024.767, 15.97803
1025.249, 16.16406
1025.731, 16.39648
1026.214, 16.69531
1026.696, 14.98022
1027.178, 11.08716
1027.660, 7.910889
1028.142, 8.021729
1028.624, 9.633057
1029.106, 11.72021
1029.588, 14.05737
1030.071, 15.70703
1030.553, 17.04907
1031.035, 16.64111
1031.517, 13.38501
1031.999, 9.458496
1032.481, 9.376953
1032.963, 11.69604
1033.445, 12.41797
1033.927, 9.798828
1034.410, 8.386719
1034.892, 11.16895
1035.374, 15.09009
1035.856, 18.32910
1036.338, 20.92773
1036.820, 21.26147
1037.302, 19.27905
1037.784, 17.20312
1038.266, 16.41748
1038.749, 16.17188
1039.231, 16.20190
1039.713, 16.14478
1040.195, 14.98657
1040.677, 10.62427
1041.159, 8.819336
1041.641, 10.69824
1042.123, 13.96118
1042.605, 16.69995
1043.088, 18.47266
1043.570, 17.10205
1044.052, 12.37158
1044.534, 8.563721
1045.016, 7.722656
1045.498, 8.754395
1045.980, 11.94800
1046.462, 16.50000
1046.945, 19.17944
1047.427, 20.05664
1047.909, 17.84863
1048.391, 10.99561
1048.873, 3.634033
1049.355, 0.3210450
1049.837, 1.841309
1050.319, 2.223877
1050.802, 1.598145
1051.284, 0.2182620
1051.766, 3.866211
1052.248, 7.463135
1052.730, 10.06958
1053.212, 12.02148
1053.694, 14.57959
1054.176, 17.40161
1054.658, 18.98975
1055.141, 17.72681
1055.623, 16.00391
1056.105, 13.98706
1056.587, 12.33643
1057.069, 12.11719
1057.551, 13.25610
1058.033, 14.62744
1058.515, 16.19507
1058.998, 17.26831
1059.480, 17.37354
1059.962, 16.60913
1060.444, 14.51904
1060.926, 11.12988
1061.408, 9.566406
1061.890, 10.40820
1062.372, 11.94092
1062.854, 14.09692
1063.337, 15.85034
1063.819, 14.17407
1064.301, 10.66748
1064.783, 9.011719
1065.265, 11.42944
1065.747, 12.96436
1066.229, 10.74268
1066.711, 7.858643
1067.193, 5.921387
1067.676, 4.933838
1068.158, 6.225586
1068.640, 9.573242
1069.122, 11.54150
1069.604, 8.185547
1070.086, 4.598145
1070.568, 4.168945
1071.050, 6.018311
1071.532, 8.252930
1072.015, 11.43530
1072.497, 12.78223
1072.979, 11.96167
1073.461, 9.709229
1073.943, 5.590820
1074.425, 1.227539
1074.907, 1.022949
1075.389, 0.9995120
1075.872, 0.3703610
1076.354, 0.4841310
1076.836, 1.853516
1077.318, 3.866211
1077.800, 6.322021
1078.282, 9.766357
1078.764, 13.44092
1079.246, 14.29639
1079.729, 10.71606
1080.211, 7.233643
1080.693, 5.921387
1081.175, 6.073730
1081.657, 7.467285
1082.139, 10.09863
1082.621, 10.63208
1083.103, 9.046631
1083.585, 7.866211
1084.068, 9.000244
1084.550, 10.61865
1085.032, 11.43677
1085.514, 11.36694
1085.996, 9.989746
1086.478, 5.968994
1086.960, 3.778564
1087.442, 3.914551
1087.925, 4.785156
1088.407, 4.551514
1088.889, 4.167480
1089.371, 6.604248
1089.853, 11.20459
1090.335, 12.98755
1090.817, 6.078857
1091.299, 1.488037
1091.781, 2.854492
1092.264, 6.765869
1092.746, 6.259033
1093.228, 2.477295
1093.710, 1.208008
1094.192, 3.678467
1094.674, 6.785645
1095.156, 9.252197
1095.638, 10.59961
1096.120, 8.998047
1096.603, 5.348145
1097.085, 7.773438
1097.567, 16.70703
1098.049, 23.06543
1098.531, 22.03052
1099.013, 18.39478
1099.495, 16.77466
1099.977, 16.14502
1100.459, 15.05542
1100.942, 12.69678
1101.424, 12.06689
1101.906, 13.65894
1102.388, 15.43164
1102.870, 16.76880
1103.352, 17.05688
1103.834, 14.27783
1104.316, 9.483154
1104.799, 5.550537
1105.281, 3.226318
1105.763, 2.310303
1106.245, 3.030029
1106.727, 4.638428
1107.209, 7.411865
1107.691, 10.41016
1108.173, 7.960938
1108.656, 0.3349610
1109.138, 4.897949
1109.620, 1.276367
1110.102, 3.263672
1110.584, 5.108398
1111.066, 5.286865
1111.548, 6.068604
1112.030, 7.443115
1112.512, 8.638672
1112.995, 9.577393
1113.477, 9.926270
1113.959, 8.497559
1114.441, 7.017090
1114.923, 7.285645
1115.405, 9.273193
1115.887, 10.16406
1116.369, 9.772705
1116.852, 9.371582
1117.334, 9.463379
1117.816, 9.670410
1118.298, 9.659912
1118.780, 9.385742
1119.262, 8.753662
1119.744, 7.663818
1120.226, 6.491943
1120.708, 5.152344
1121.191, 4.088379
1121.673, 3.693115
1122.155, 3.707520
1122.637, 3.656250
1123.119, 3.508789
1123.601, 3.165771
1124.083, 2.029053
1124.565, 1.557129
1125.047, 2.375977
1125.530, 3.314209
1126.012, 3.063721
1126.494, 1.946533
1126.976, 1.259521
1127.458, 1.179199
1127.940, 2.585938
1128.422, 6.909424
1128.904, 11.81665
1129.386, 17.58154
1129.869, 22.51147
1130.351, 23.14331
1130.833, 19.56104
1131.315, 17.52515
1131.797, 17.77563
1132.279, 17.92212
1132.761, 15.50146
1133.243, 12.74658
1133.726, 10.82666
1134.208, 9.983887
1134.690, 11.53882
1135.172, 16.06494
1135.654, 18.61060
1136.136, 17.79834
1136.618, 15.64746
1137.100, 13.40527
1137.583, 11.69873
1138.065, 11.47437
1138.547, 13.11475
1139.029, 14.30811
1139.511, 15.29102
1139.993, 14.89990
1140.475, 11.90918
1140.957, 8.504395
1141.439, 8.094727
1141.922, 9.792725
1142.404, 12.34692
1142.886, 16.46069
1143.368, 18.41113
1143.850, 17.55884
1144.332, 15.32080
1144.814, 11.72876
1145.296, 7.792969
1145.779, 6.687256
1146.261, 7.500000
1146.743, 7.575439
1147.225, 3.619141
1147.707, 2.281250
1148.189, 6.449463
1148.671, 10.78149
1149.153, 9.692627
1149.635, 4.579346
1150.118, 2.573730
1150.600, 3.369873
1151.082, 3.503174
1151.564, 0.1921390
1152.046, 2.858398
1152.528, 5.062744
1153.010, 5.703857
1153.492, 2.196045
1153.974, 4.726318
1154.457, 5.382568
1154.939, 0.9990230
1155.421, 6.121582
1155.903, 2.802002
1156.385, 1.830811
1156.867, 3.797852
1157.349, 3.859375
1157.831, 3.066162
1158.313, 1.352783
1158.796, 2.634277
1159.278, 7.950928
1159.760, 12.92139
1160.242, 14.42993
1160.724, 13.55908
1161.206, 9.409424
1161.688, 3.068604
1162.170, 2.555664
1162.653, 8.573975
1163.135, 13.06738
1163.617, 13.79468
1164.099, 12.34912
1164.581, 6.972900
1165.063, 2.501953
1165.545, 6.008301
1166.027, 19.24072
1166.510, 24.50879
1166.992, 20.24536
1167.474, 15.55151
1167.956, 13.40771
1168.438, 12.84766
1168.920, 13.28833
1169.402, 14.22412
1169.884, 15.12402
1170.366, 16.29517
1170.849, 15.61230
1171.331, 12.28833
1171.813, 10.07959
1172.295, 12.10669
1172.777, 15.62817
1173.259, 16.45825
1173.741, 15.35449
1174.223, 13.70923
1174.706, 10.78760
1175.188, 9.506104
1175.670, 10.43042
1176.152, 11.55396
1176.634, 10.48706
1177.116, 8.975342
1177.598, 11.97925
1178.080, 17.60913
1178.563, 20.18188
1179.045, 14.27051
1179.527, 10.74292
1180.009, 11.35864
1180.491, 12.68140
1180.973, 11.01929
1181.455, 7.434814
1181.937, 4.914307
1182.419, 3.761230
1182.901, 4.679932
1183.384, 11.43994
1183.866, 14.64771
1184.348, 11.65454
1184.830, 6.804199
1185.312, 5.531738
1185.794, 6.821533
1186.276, 7.661621
1186.758, 7.983398
1187.240, 9.682617
1187.723, 15.52148
1188.205, 20.04883
1188.687, 21.58398
1189.169, 21.49023
1189.651, 22.39258
1190.133, 23.56152
1190.615, 21.91504
1191.097, 17.01416
1191.580, 13.97021
1192.062, 17.08960
1192.544, 19.96411
1193.026, 20.52344
1193.508, 19.56909
1193.990, 18.53760
1194.472, 17.52319
1194.954, 17.12695
1195.437, 17.72778
1195.919, 16.86646
1196.401, 11.28857
1196.883, 6.586182
1197.365, 4.934082
1197.847, 5.894531
1198.329, 9.564209
1198.811, 14.84839
1199.293, 17.29297
1199.776, 15.32520
1200.258, 12.69995
1200.740, 10.20312
1201.222, 8.488281
1201.704, 7.936768
1202.186, 8.299072
1202.668, 8.510254
1203.150, 8.645508
1203.633, 9.225342
1204.115, 10.79541
1204.597, 11.76562
1205.079, 10.77734
1205.561, 9.553711
1206.043, 8.851074
1206.525, 8.784668
1207.007, 10.65796
1207.490, 13.83789
1207.972, 15.57910
1208.454, 14.02026
1208.936, 12.40088
1209.418, 12.05640
1209.900, 11.86450
1210.382, 11.19092
1210.864, 10.24609
1211.346, 10.07202
1211.828, 10.59253
1212.311, 11.33325
1212.793, 11.70898
1213.275, 12.54614
1213.757, 16.16992
1214.239, 19.60278
1214.721, 19.84790
1215.203, 17.46606
1215.685, 16.84448
1216.167, 17.70923
1216.650, 18.59204
1217.132, 19.52930
1217.614, 19.33032
1218.096, 16.65601
1218.578, 13.73779
1219.060, 12.97607
1219.542, 13.83789
1220.024, 12.67920
1220.507, 9.781250
1220.989, 6.851318
1221.471, 3.902344
1221.953, 2.236084
1222.435, 2.859619
1222.917, 4.074463
1223.399, 4.112061
1223.881, 3.261475
1224.364, 2.833008
1224.846, 2.830078
1225.328, 2.910889
1225.810, 2.177979
1226.292, 2.590088
1226.774, 5.104492
1227.256, 8.121826
1227.738, 9.788818
1228.220, 10.34375
1228.703, 10.58472
1229.185, 10.61743
1229.667, 10.88428
1230.149, 12.36499
1230.631, 12.88525
1231.113, 11.49609
1231.595, 9.719238
1232.077, 9.402344
1232.560, 10.26489
1233.042, 11.69434
1233.524, 13.59106
1234.006, 15.66064
1234.488, 20.09912
1234.970, 20.85840
1235.452, 15.50708
1235.934, 8.545654
1236.417, 6.732910
1236.899, 7.738281
1237.381, 5.474609
1237.863, 7.7393003E-02
1238.345, 2.492188
1238.827, 3.842285
1239.309, 6.720947
1239.791, 3.183105
1240.273, 2.294922
1240.755, 4.007568
1241.238, 3.204102
1241.720, 2.012695
1242.202, 0.6455080
1242.684, 0.8911130
1243.166, 3.435059
1243.648, 4.348633
1244.130, 2.776611
1244.612, 0.4677730
1245.094, 0.7236330
1245.577, 0.9472660
1246.059, 0.6625980
1246.541, 0.1684570
1247.023, 2.977783
1247.505, 8.830078
1247.987, 14.00586
1248.469, 17.83667
1248.951, 20.33862
1249.434, 21.48853
1249.916, 21.20874
1250.398, 18.41870
1250.880, 13.42651
1251.362, 11.74609
1251.844, 14.69702
1252.326, 16.12915
1252.808, 14.45386
1253.291, 11.93408
1253.773, 10.73682
1254.255, 10.24805
1254.737, 10.20410
1255.219, 10.39722
1255.701, 9.600830
1256.183, 7.716064
1256.665, 6.084717
1257.147, 5.002441
1257.630, 4.255859
1258.112, 1.858398
1258.594, 1.208496
1259.076, 7.454102
1259.558, 18.20996
1260.040, 22.80029
1260.522, 21.25293
1261.004, 19.94556
1261.487, 20.33081
1261.969, 20.63501
1262.451, 18.56860
1262.933, 16.91724
1263.415, 18.54395
1263.897, 21.74658
1264.379, 19.68579
1264.861, 13.16089
1265.344, 8.183350
1265.826, 6.098145
1266.308, 5.627197
1266.790, 7.018311
1267.272, 8.671143
1267.754, 9.959717
1268.236, 10.83887
1268.718, 10.89111
1269.200, 10.45215
1269.682, 10.94336
1270.165, 12.85742
1270.647, 13.57373
1271.129, 10.10449
1271.611, 7.270020
1272.093, 8.278564
1272.575, 6.549072
1273.057, 9.194580
1273.539, 7.305420
1274.021, 8.384033
1274.504, 12.96777
1274.986, 15.61816
1275.468, 15.31592
1275.950, 14.25415
1276.432, 12.69507
1276.914, 10.60352
1277.396, 7.811035
1277.878, 4.881348
1278.361, 2.279297
1278.843, 9.3262002E-02
1279.325, 0.7539060
1279.807, 5.536377
1280.289, 8.183350
1280.771, 6.230713
1281.253, 3.929443
1281.735, 8.038818
1282.218, 6.437988
1282.700, 7.181396
1283.182, 9.198486
1283.664, 8.393555
1284.146, 12.06543
1284.628, 14.32983
1285.110, 13.42310
1285.592, 12.14453
1286.074, 13.65454
1286.557, 15.40698
1287.039, 15.00269
1287.521, 13.13477
1288.003, 12.19043
1288.485, 12.22266
1288.967, 14.66626
1289.449, 20.23169
1289.931, 24.80762
1290.414, 26.04492
1290.896, 25.37207
1291.378, 23.52197
1291.860, 20.46240
1292.342, 16.03857
1292.824, 10.99194
1293.306, 7.827393
1293.788, 7.189941
1294.271, 6.489014
1294.753, 2.697021
1295.235, 1.848145
1295.717, 6.707275
1296.199, 13.28198
1296.681, 14.52881
1297.163, 12.50244
1297.645, 10.79834
1298.127, 9.894287
1298.609, 8.280762
1299.092, 5.145752
1299.574, 2.418701
1300.056, 0.4575200
1300.538, 0.4594730
1301.020, 0.6372070
1301.502, 2.383057
1301.984, 2.955078
1302.466, 1.994141
1302.948, 0.6210940
1303.431, 2.456543
1303.913, 2.168213
1304.395, 0.0000000E+00
##END=



