##NAMES=Nepheline
##RRUFFID=R090059
##IDEAL CHEMISTRY=KNa_3_(AlSiO_4_)_4_
##LOCALITY=Lajuar Madan, Sar-e-Sang District, Badakhshan, Afghanistan
##OWNER=RRUFF
##SOURCE=Dudley Blauwet
##DESCRIPTION=Colorless blocky crystals coated with colorless sodalite with electric blue inclusions, on a marble matrix
##STATUS=The identification of this mineral has been confirmed only by single crystal X-ray diffraction.
##URL=rruff.info/R090059
154.7533, 0.0000000E+00
155.2354, 4.183538
155.7175, 8.969680
156.1996, 10.68774
156.6817, 13.39708
157.1639, 18.07474
157.6460, 23.69384
158.1281, 27.86075
158.6102, 27.90047
159.0923, 27.00468
159.5744, 27.45701
160.0566, 33.79379
160.5387, 37.51109
161.0208, 33.79041
161.5029, 25.70131
161.9850, 19.31253
162.4671, 15.14764
162.9493, 12.95064
163.4314, 10.87567
163.9135, 8.753281
164.3956, 6.328467
164.8777, 2.860895
165.3598, 0.9597900
165.8420, 1.179893
166.3241, 1.129955
166.8062, 1.4480000E-03
167.2883, 1.201147
167.7704, 1.848173
168.2525, 2.774685
168.7346, 4.023201
169.2168, 2.703759
169.6989, 0.4927460
170.1810, 4.332000
170.6631, 9.657595
171.1452, 12.93378
171.6273, 11.81393
172.1095, 9.494519
172.5916, 8.447785
173.0737, 8.605876
173.5558, 9.166203
174.0379, 9.606248
174.5201, 10.06553
175.0022, 10.74821
175.4843, 11.52309
175.9664, 12.66940
176.4485, 15.09559
176.9306, 18.77485
177.4128, 21.65381
177.8949, 20.03858
178.3770, 16.21385
178.8591, 15.22307
179.3412, 22.08138
179.8233, 31.97321
180.3055, 36.81163
180.7876, 36.42519
181.2697, 34.67986
181.7518, 34.37981
182.2339, 35.64425
182.7160, 38.84297
183.1982, 45.25348
183.6803, 53.55980
184.1624, 60.48448
184.6445, 65.75721
185.1266, 71.32842
185.6087, 79.60377
186.0909, 90.28799
186.5730, 101.4215
187.0551, 112.5739
187.5372, 123.5667
188.0193, 133.7507
188.5014, 142.8127
188.9836, 152.2294
189.4657, 164.4826
189.9478, 179.2571
190.4299, 194.3794
190.9120, 208.4852
191.3941, 221.8118
191.8763, 236.4724
192.3584, 252.8765
192.8405, 269.2864
193.3226, 282.8079
193.8047, 293.3694
194.2868, 305.3481
194.7690, 321.7722
195.2511, 342.1954
195.7332, 361.1284
196.2153, 378.1467
196.6974, 394.4301
197.1795, 411.6112
197.6617, 429.9070
198.1438, 447.6579
198.6259, 463.9575
199.1080, 478.8108
199.5901, 493.6689
200.0722, 508.2339
200.5544, 523.1397
201.0365, 540.1431
201.5186, 559.9140
202.0007, 578.0546
202.4828, 592.1513
202.9649, 601.9153
203.4471, 611.0124
203.9292, 619.6527
204.4113, 627.3647
204.8934, 633.6513
205.3755, 638.7050
205.8576, 641.5765
206.3398, 641.4420
206.8219, 637.9280
207.3040, 633.9465
207.7861, 629.8538
208.2682, 625.1028
208.7503, 618.7491
209.2325, 611.0809
209.7146, 601.2612
210.1967, 588.5649
210.6788, 572.4618
211.1609, 556.1415
211.6430, 539.6391
212.1252, 522.8840
212.6073, 505.6297
213.0894, 488.0156
213.5715, 470.7206
214.0536, 453.9212
214.5357, 437.2908
215.0179, 422.2376
215.5000, 409.0432
215.9821, 397.1021
216.4642, 384.9257
216.9463, 372.1474
217.4284, 360.1219
217.9105, 349.4401
218.3927, 340.6957
218.8748, 331.7101
219.3569, 321.9863
219.8390, 312.2625
220.3211, 304.1904
220.8032, 298.6648
221.2854, 293.0819
221.7675, 286.0076
222.2496, 276.7041
222.7317, 268.5114
223.2138, 261.7192
223.6959, 255.7980
224.1781, 249.1184
224.6602, 241.6647
225.1423, 233.7064
225.6244, 225.2807
226.1065, 215.3988
226.5886, 207.6564
227.0708, 203.5343
227.5529, 200.9327
228.0350, 195.0670
228.5171, 183.6092
228.9992, 172.8582
229.4813, 165.3722
229.9635, 162.4682
230.4456, 158.1330
230.9277, 152.0475
231.4098, 144.9165
231.8919, 137.8099
232.3740, 130.6904
232.8562, 124.0419
233.3383, 118.0632
233.8204, 113.1694
234.3025, 106.6615
234.7846, 97.60705
235.2667, 87.64518
235.7489, 79.96583
236.2310, 75.70485
236.7131, 72.14368
237.1952, 68.33147
237.6773, 64.41211
238.1594, 59.25991
238.6416, 52.08081
239.1237, 44.43178
239.6058, 38.83655
240.0879, 35.79889
240.5700, 33.68329
241.0521, 32.21280
241.5343, 31.63486
242.0164, 30.25341
242.4985, 27.59845
242.9806, 24.42812
243.4627, 21.80306
243.9448, 19.63828
244.4270, 18.14566
244.9091, 17.41710
245.3912, 17.49704
245.8733, 18.02918
246.3554, 19.25360
246.8375, 20.69699
247.3197, 21.74609
247.8018, 22.30280
248.2839, 22.60800
248.7660, 22.52649
249.2481, 21.99713
249.7302, 22.69032
250.2124, 24.98330
250.6945, 27.83471
251.1766, 29.53306
251.6587, 28.91971
252.1408, 29.75282
252.6229, 33.33121
253.1051, 39.91616
253.5872, 45.49083
254.0693, 49.72299
254.5514, 53.41513
255.0335, 57.30977
255.5156, 61.17201
255.9978, 65.82381
256.4799, 71.40632
256.9620, 77.88763
257.4441, 84.82207
257.9262, 92.59092
258.4083, 100.3585
258.8904, 107.2253
259.3726, 113.0068
259.8547, 118.4426
260.3368, 123.4639
260.8189, 128.1563
261.3010, 133.1032
261.7831, 138.4725
262.2653, 143.8206
262.7474, 148.7713
263.2295, 153.3589
263.7116, 157.7107
264.1937, 162.1756
264.6758, 166.4671
265.1580, 168.9692
265.6401, 169.2804
266.1222, 168.6609
266.6043, 167.8260
267.0864, 166.6837
267.5685, 165.7992
268.0507, 166.1282
268.5328, 166.4141
269.0149, 162.2089
269.4970, 151.8902
269.9791, 140.8617
270.4612, 132.0197
270.9434, 126.0692
271.4255, 119.7937
271.9076, 112.7947
272.3897, 105.4325
272.8718, 98.48098
273.3539, 91.84898
273.8361, 85.85661
274.3182, 81.10671
274.8003, 77.95842
275.2824, 72.98954
275.7645, 65.28822
276.2466, 56.67543
276.7288, 51.11546
277.2109, 49.22622
277.6930, 47.35670
278.1751, 43.55169
278.6572, 37.64440
279.1393, 32.95256
279.6215, 29.46731
280.1036, 27.24018
280.5857, 27.03797
281.0678, 29.18829
281.5499, 30.33690
282.0320, 28.69732
282.5142, 24.52975
282.9963, 21.27666
283.4784, 19.01293
283.9605, 17.43955
284.4426, 16.54189
284.9247, 16.34407
285.4069, 15.43697
285.8890, 12.68060
286.3711, 8.772144
286.8532, 7.421680
287.3353, 8.957563
287.8174, 11.20905
288.2996, 12.10422
288.7817, 11.70631
289.2638, 10.45624
289.7459, 7.822273
290.2280, 4.747337
290.7101, 4.261212
291.1923, 6.510089
291.6744, 9.012206
292.1565, 9.724113
292.6386, 8.870546
293.1207, 7.439422
293.6028, 5.218122
294.0850, 3.001553
294.5671, 2.672012
295.0492, 4.101350
295.5313, 5.320254
296.0134, 4.941446
296.4955, 3.218777
296.9777, 0.6179380
297.4598, 0.7857460
297.9419, 4.212968
298.4240, 5.788570
298.9061, 5.714357
299.3882, 5.054858
299.8704, 4.169789
300.3525, 3.187163
300.8346, 2.331288
301.3167, 1.636260
301.7988, 0.9686470
302.2809, 2.9011000E-02
302.7631, 1.178185
303.2452, 1.968577
303.7273, 1.975028
304.2094, 1.538690
304.6915, 1.175952
305.1736, 0.9485940
305.6558, 0.3901460
306.1379, 2.176672
306.6200, 5.302537
307.1021, 6.257037
307.5842, 0.9246560
308.0663, 5.244736
308.5485, 5.621020
309.0306, 2.665892
309.5127, 1.185436
309.9948, 1.466234
310.4769, 7.3810001E-03
310.9590, 0.9253600
311.4412, 0.2467930
311.9233, 0.9592930
312.4054, 2.307550
312.8875, 3.693949
313.3696, 4.519957
313.8517, 4.242091
314.3339, 3.357442
314.8160, 2.233536
315.2981, 0.7754380
315.7802, 0.6379920
316.2623, 2.214953
316.7444, 3.675980
317.2266, 4.274569
317.7087, 2.684051
318.1908, 0.8195880
318.6729, 0.1556810
319.1550, 5.4435000E-02
319.6371, 0.8407020
320.1193, 2.413222
320.6014, 4.349053
321.0835, 5.997507
321.5656, 6.629026
322.0477, 7.342669
322.5298, 8.750170
323.0120, 11.09723
323.4941, 12.99870
323.9762, 13.57407
324.4583, 13.77075
324.9404, 14.61273
325.4225, 16.72311
325.9047, 15.17210
326.3868, 14.35668
326.8689, 14.31886
327.3510, 12.68169
327.8331, 7.079080
328.3152, 1.093811
328.7974, 2.791189
329.2795, 2.204283
329.7616, 2.309929
330.2437, 3.203007
330.7258, 4.957764
331.2079, 8.199238
331.6901, 13.98582
332.1722, 20.18947
332.6543, 25.85552
333.1364, 30.89965
333.6185, 35.26550
334.1006, 38.11727
334.5828, 40.50190
335.0649, 44.86898
335.5470, 52.22577
336.0291, 59.86537
336.5112, 66.70544
336.9933, 72.68287
337.4755, 78.34121
337.9576, 83.22459
338.4397, 88.28629
338.9218, 95.11024
339.4039, 104.0450
339.8860, 113.1747
340.3681, 122.0803
340.8503, 130.7889
341.3324, 138.0734
341.8145, 143.7311
342.2966, 148.9275
342.7787, 154.6943
343.2608, 160.9076
343.7430, 168.5236
344.2251, 178.1967
344.7072, 188.9760
345.1893, 197.7224
345.6714, 204.4917
346.1535, 209.8013
346.6357, 213.3295
347.1178, 215.4131
347.5999, 218.7504
348.0820, 224.4109
348.5641, 229.5760
349.0462, 228.9577
349.5284, 223.1873
350.0105, 217.3406
350.4926, 216.6219
350.9747, 217.3465
351.4568, 210.0848
351.9389, 193.8418
352.4211, 175.6008
352.9032, 163.1449
353.3853, 154.4025
353.8674, 144.2897
354.3495, 128.6189
354.8316, 111.7019
355.3138, 99.36147
355.7959, 91.34016
356.2780, 83.58957
356.7601, 73.14337
357.2422, 61.43614
357.7243, 50.05672
358.2065, 38.88084
358.6886, 29.12327
359.1707, 22.00798
359.6528, 17.07220
360.1349, 12.93610
360.6170, 8.742287
361.0992, 5.200916
361.5813, 2.941582
362.0634, 2.316463
362.5455, 2.041306
363.0276, 1.557007
363.5097, 1.092491
363.9919, 0.9710010
364.4740, 1.361702
364.9561, 1.885300
365.4382, 2.093678
365.9203, 1.551182
366.4024, 3.237263
366.8846, 9.383316
367.3667, 17.02319
367.8488, 23.72008
368.3309, 28.62838
368.8130, 33.25965
369.2951, 37.24797
369.7773, 40.92122
370.2594, 46.12889
370.7415, 53.67065
371.2236, 62.01389
371.7057, 70.54728
372.1878, 78.56548
372.6700, 88.39538
373.1521, 100.5319
373.6342, 114.1019
374.1163, 127.5101
374.5984, 140.5850
375.0805, 153.4993
375.5627, 166.1820
376.0448, 178.5606
376.5269, 191.9449
377.0090, 206.0933
377.4911, 221.8579
377.9732, 241.1025
378.4554, 264.3311
378.9375, 286.7249
379.4196, 307.0266
379.9017, 325.9856
380.3838, 347.5683
380.8659, 371.8131
381.3481, 396.5419
381.8302, 418.9312
382.3123, 439.6884
382.7944, 463.5902
383.2765, 491.3088
383.7586, 522.5193
384.2408, 559.5436
384.7229, 600.8353
385.2050, 639.5209
385.6871, 669.3450
386.1692, 694.4942
386.6513, 724.0285
387.1335, 757.9921
387.6156, 793.8002
388.0977, 828.4325
388.5798, 862.7830
389.0619, 899.1440
389.5440, 938.7732
390.0262, 979.7474
390.5083, 1020.730
390.9904, 1062.138
391.4725, 1104.181
391.9546, 1148.799
392.4367, 1192.975
392.9189, 1234.414
393.4010, 1271.628
393.8831, 1308.048
394.3652, 1346.348
394.8473, 1384.396
395.3294, 1418.951
395.8116, 1448.381
396.2937, 1474.197
396.7758, 1496.768
397.2579, 1516.054
397.7400, 1533.049
398.2221, 1548.379
398.7043, 1561.109
399.1864, 1570.399
399.6685, 1574.605
400.1506, 1577.151
400.6327, 1578.945
401.1148, 1579.536
401.5970, 1576.561
402.0791, 1567.877
402.5612, 1558.150
403.0433, 1549.281
403.5254, 1541.292
404.0075, 1534.181
404.4897, 1527.911
404.9718, 1522.658
405.4539, 1518.896
405.9360, 1517.127
406.4181, 1515.454
406.9002, 1513.455
407.3824, 1511.138
407.8645, 1507.967
408.3466, 1503.477
408.8287, 1499.830
409.3108, 1499.753
409.7929, 1502.992
410.2751, 1504.976
410.7572, 1505.506
411.2393, 1503.514
411.7214, 1496.352
412.2035, 1484.321
412.6856, 1470.654
413.1678, 1457.254
413.6499, 1443.496
414.1320, 1427.984
414.6141, 1410.514
415.0962, 1391.734
415.5783, 1373.253
416.0605, 1353.742
416.5426, 1330.222
417.0247, 1299.879
417.5068, 1266.668
417.9889, 1234.171
418.4710, 1202.024
418.9532, 1167.576
419.4353, 1127.517
419.9174, 1085.923
420.3995, 1046.745
420.8816, 1011.015
421.3637, 975.5456
421.8459, 939.0540
422.3280, 902.0923
422.8101, 864.9802
423.2922, 827.6899
423.7743, 790.8500
424.2564, 754.6819
424.7386, 719.2890
425.2207, 685.2756
425.7028, 654.1540
426.1849, 623.8940
426.6670, 592.8884
427.1491, 559.7066
427.6313, 528.0035
428.1134, 498.3827
428.5955, 470.5862
429.0776, 443.9540
429.5597, 418.0868
430.0418, 393.6147
430.5240, 370.7421
431.0061, 349.6721
431.4882, 328.7006
431.9703, 307.7369
432.4524, 287.2287
432.9345, 267.4008
433.4167, 248.3404
433.8988, 230.9122
434.3809, 215.7003
434.8630, 202.3194
435.3451, 190.4197
435.8272, 179.9687
436.3094, 169.9082
436.7915, 159.1213
437.2736, 148.1861
437.7557, 138.5912
438.2378, 130.3600
438.7199, 123.6715
439.2020, 119.7371
439.6841, 117.4309
440.1663, 114.4466
440.6484, 109.9791
441.1305, 104.4454
441.6126, 96.80370
442.0947, 87.61300
442.5768, 80.89510
443.0590, 80.91011
443.5411, 83.06979
444.0232, 83.61124
444.5053, 80.68275
444.9874, 78.57868
445.4695, 78.98257
445.9517, 81.07858
446.4338, 83.65163
446.9159, 86.83878
447.3980, 89.84589
447.8801, 92.56066
448.3622, 95.09074
448.8444, 97.03796
449.3265, 97.62812
449.8086, 98.36852
450.2907, 100.2970
450.7728, 103.8043
451.2549, 107.1794
451.7371, 109.3811
452.2192, 111.7312
452.7013, 118.0335
453.1834, 129.4990
453.6655, 140.7901
454.1476, 149.3805
454.6298, 155.6476
455.1119, 163.7263
455.5940, 173.5938
456.0761, 184.0833
456.5582, 193.9873
457.0403, 203.7027
457.5225, 214.7868
458.0046, 227.7600
458.4867, 241.3810
458.9688, 252.6452
459.4509, 262.4680
459.9330, 274.1989
460.4152, 291.9666
460.8973, 311.5779
461.3794, 327.2547
461.8615, 338.8200
462.3436, 350.7953
462.8257, 368.3394
463.3079, 387.3490
463.7900, 403.1733
464.2721, 412.9836
464.7542, 421.4784
465.2363, 431.6349
465.7184, 441.8734
466.2006, 447.9926
466.6827, 449.7823
467.1648, 446.7376
467.6469, 438.3023
468.1290, 423.8125
468.6111, 406.6349
469.0933, 386.7025
469.5754, 364.1156
470.0575, 338.2747
470.5396, 306.9282
471.0217, 276.9938
471.5038, 248.9781
471.9860, 222.7839
472.4681, 197.5544
472.9502, 173.0697
473.4323, 150.1664
473.9144, 129.2796
474.3965, 110.3167
474.8787, 94.15486
475.3608, 81.01091
475.8429, 69.77885
476.3250, 59.66640
476.8071, 50.64041
477.2892, 42.63781
477.7714, 36.06942
478.2535, 30.04525
478.7356, 23.02591
479.2177, 15.31278
479.6998, 8.407421
480.1819, 3.307594
480.6641, 0.7235740
481.1462, 4.324646
481.6283, 7.569297
482.1104, 10.34203
482.5925, 11.59475
483.0746, 12.73496
483.5568, 15.23373
484.0389, 12.97346
484.5210, 6.764478
485.0031, 5.222527
485.4852, 7.056747
485.9673, 8.168600
486.4495, 7.075127
486.9316, 5.979105
487.4137, 5.590260
487.8958, 5.998937
488.3779, 6.678841
488.8600, 8.358086
489.3422, 9.511654
489.8243, 8.397326
490.3064, 4.013516
490.7885, 0.8543570
491.2706, 0.3270860
491.7527, 0.1167730
492.2349, 0.1256040
492.7170, 0.4356390
493.1991, 7.1915999E-02
493.6812, 2.858629
494.1633, 7.051039
494.6454, 8.863226
495.1276, 8.221535
495.6097, 6.713726
496.0918, 5.823469
496.5739, 5.135955
497.0560, 3.751622
497.5381, 1.216093
498.0203, 1.560864
498.5024, 4.408494
498.9845, 6.893577
499.4666, 8.135587
499.9487, 6.620341
500.4308, 4.618049
500.9130, 3.388631
501.3951, 2.994111
501.8772, 2.745218
502.3593, 1.968830
502.8414, 1.575224
503.3235, 2.229074
503.8057, 5.996037
504.2878, 7.861782
504.7699, 6.582820
505.2520, 3.764207
505.7341, 2.053959
506.2162, 1.760599
506.6984, 2.087736
507.1805, 3.363931
507.6626, 5.313249
508.1447, 4.895411
508.6268, 1.599650
509.1089, 1.318665
509.5911, 4.532807
510.0732, 6.724159
510.5553, 7.685252
511.0374, 7.264701
511.5195, 6.152963
512.0016, 4.576968
512.4838, 2.925320
512.9659, 2.594380
513.4480, 5.011465
513.9301, 8.070410
514.4122, 9.323682
514.8943, 9.090858
515.3765, 8.699919
515.8586, 8.849639
516.3407, 9.168798
516.8228, 9.222960
517.3049, 8.804523
517.7870, 8.998035
518.2692, 10.51280
518.7513, 12.64990
519.2334, 14.73644
519.7155, 17.61592
520.1976, 19.28267
520.6797, 19.11820
521.1619, 17.64056
521.6440, 16.08386
522.1261, 13.51402
522.6082, 12.60645
523.0903, 14.74280
523.5724, 19.99843
524.0546, 24.77701
524.5367, 29.24638
525.0188, 32.66226
525.5009, 33.83287
525.9830, 32.99320
526.4651, 32.90800
526.9473, 34.07249
527.4294, 35.79736
527.9115, 36.96193
528.3936, 37.79427
528.8757, 39.10015
529.3578, 41.18868
529.8400, 43.92468
530.3221, 47.12346
530.8042, 50.78198
531.2863, 55.15364
531.7684, 61.86318
532.2505, 68.31746
532.7327, 72.05699
533.2148, 71.59823
533.6969, 72.20401
534.1790, 75.73145
534.6611, 80.85229
535.1432, 86.02916
535.6254, 91.90654
536.1075, 96.94276
536.5896, 100.4259
537.0717, 102.9953
537.5538, 106.4502
538.0359, 110.4096
538.5181, 116.2840
539.0002, 125.3909
539.4823, 137.5558
539.9644, 147.2838
540.4465, 154.3055
540.9286, 160.8731
541.4108, 168.6895
541.8929, 177.9390
542.3750, 188.3534
542.8571, 199.8211
543.3392, 211.7354
543.8214, 223.8083
544.3035, 235.9665
544.7856, 248.3199
545.2677, 261.3212
545.7498, 274.1360
546.2319, 286.0048
546.7141, 296.9678
547.1962, 307.5193
547.6783, 319.7454
548.1604, 330.3083
548.6425, 337.3761
549.1246, 340.1024
549.6068, 340.8625
550.0889, 340.9060
550.5710, 338.4669
551.0531, 331.8278
551.5352, 320.3438
552.0173, 305.6852
552.4995, 287.5843
552.9816, 266.9999
553.4637, 245.9636
553.9458, 224.3407
554.4279, 203.0268
554.9100, 181.8508
555.3922, 161.3310
555.8743, 143.5128
556.3564, 128.4259
556.8385, 115.0042
557.3206, 102.5974
557.8027, 91.63335
558.2849, 82.65248
558.7670, 75.94293
559.2491, 69.69688
559.7312, 61.65067
560.2133, 53.54589
560.6954, 47.76266
561.1776, 46.78680
561.6597, 46.41582
562.1418, 45.83496
562.6239, 45.09529
563.1060, 43.76621
563.5881, 40.63107
564.0703, 37.78426
564.5524, 35.97329
565.0345, 35.29174
565.5166, 34.29074
565.9987, 33.07102
566.4808, 31.66638
566.9630, 29.94264
567.4451, 27.82164
567.9272, 26.84563
568.4093, 27.27816
568.8914, 28.22701
569.3735, 28.69185
569.8557, 28.60604
570.3378, 27.89312
570.8199, 26.45407
571.3020, 24.99365
571.7841, 24.07232
572.2662, 23.59169
572.7484, 23.10374
573.2305, 21.31323
573.7126, 20.38766
574.1947, 22.68232
574.6768, 28.52504
575.1589, 32.85321
575.6411, 33.14058
576.1232, 32.10267
576.6053, 31.50392
577.0874, 31.44510
577.5695, 31.55926
578.0516, 32.23021
578.5338, 32.83203
579.0159, 32.16905
579.4980, 29.62054
579.9801, 28.04298
580.4622, 28.56285
580.9443, 30.44087
581.4265, 30.93075
581.9086, 29.97586
582.3907, 28.81422
582.8728, 28.05963
583.3549, 27.58686
583.8370, 27.37371
584.3192, 27.42139
584.8013, 27.04439
585.2834, 25.06577
585.7655, 22.67962
586.2476, 21.30217
586.7297, 21.43368
587.2118, 21.98517
587.6939, 23.08078
588.1760, 24.18660
588.6581, 24.51118
589.1403, 23.25769
589.6224, 22.02165
590.1045, 20.86521
590.5866, 19.67409
591.0687, 18.57521
591.5508, 17.65125
592.0330, 16.71074
592.5151, 15.63529
592.9972, 14.46200
593.4793, 13.58868
593.9614, 12.94897
594.4435, 12.32838
594.9257, 11.63122
595.4078, 10.91223
595.8899, 10.26442
596.3720, 9.751111
596.8541, 9.054622
597.3362, 7.190096
597.8184, 5.136937
598.3005, 4.446803
598.7826, 6.690604
599.2647, 8.969392
599.7468, 9.637840
600.2289, 9.384884
600.7111, 9.704923
601.1932, 11.82291
601.6753, 13.61971
602.1574, 14.53125
602.6395, 14.54753
603.1216, 13.83579
603.6038, 12.02189
604.0859, 10.09521
604.5680, 8.383506
605.0501, 6.834254
605.5322, 6.220038
606.0143, 6.587477
606.4965, 7.636708
606.9786, 9.524687
607.4607, 11.88030
607.9428, 13.50399
608.4249, 14.11373
608.9070, 14.14061
609.3892, 13.71381
609.8713, 13.09546
610.3534, 12.77021
610.8355, 12.68860
611.3176, 13.20061
611.7997, 15.53235
612.2819, 18.82798
612.7640, 20.00515
613.2461, 16.29109
613.7282, 12.43257
614.2103, 10.00623
614.6924, 9.106554
615.1746, 7.996980
615.6567, 6.417130
616.1388, 5.099796
616.6209, 4.659565
617.1030, 5.125461
617.5851, 5.601435
618.0673, 6.162376
618.5494, 6.255911
619.0315, 4.714691
619.5136, 2.146276
619.9957, 0.2610960
620.4778, 0.4363260
620.9600, 0.4464310
621.4421, 0.1224720
621.9242, 1.006807
622.4063, 1.646499
622.8884, 1.758056
623.3705, 1.636967
623.8527, 0.8370030
624.3348, 0.3771890
624.8169, 0.1050200
625.2990, 4.073300
625.7811, 7.294624
626.2632, 7.369980
626.7454, 3.981072
627.2275, 2.482501
627.7096, 3.611406
628.1917, 4.725080
628.6738, 3.225795
629.1559, 0.5565200
629.6381, 2.429504
630.1202, 2.069861
630.6023, 2.527187
631.0844, 2.547900
631.5665, 2.543631
632.0486, 2.319632
632.5308, 1.541964
633.0129, 0.9282560
633.4950, 1.459813
633.9771, 2.466457
634.4592, 2.449733
634.9413, 0.8949790
635.4235, 0.9435010
635.9056, 2.371772
636.3877, 3.382272
636.8698, 4.165928
637.3519, 4.876464
637.8340, 4.991007
638.3162, 3.821923
638.7983, 1.416347
639.2804, 1.465312
639.7625, 4.428404
640.2446, 7.200573
640.7267, 6.787066
641.2089, 4.079005
641.6910, 1.867853
642.1731, 0.4135360
642.6552, 0.3463140
643.1373, 8.5490003E-02
643.6194, 1.014236
644.1016, 1.551648
644.5837, 1.623514
645.0658, 0.9895400
645.5479, 1.121809
646.0300, 0.9760610
646.5121, 0.9317350
646.9943, 2.186379
647.4764, 2.038731
647.9585, 0.3163840
648.4406, 0.6315330
648.9227, 2.070320
649.4048, 3.741107
649.8870, 3.780372
650.3691, 0.8257630
650.8512, 0.7770900
651.3333, 0.3040470
651.8154, 0.6110850
652.2975, 3.447999
652.7797, 5.277799
653.2618, 5.687034
653.7439, 5.631516
654.2260, 5.168471
654.7081, 5.097712
655.1902, 7.119405
655.6724, 9.002258
656.1545, 8.669967
656.6366, 4.107022
657.1187, 0.7101300
657.6008, 0.1857400
658.0829, 6.7964002E-02
658.5651, 9.1427997E-02
659.0472, 0.4644730
659.5293, 0.1889230
660.0114, 1.455660
660.4935, 3.573263
660.9756, 3.999076
661.4578, 2.830382
661.9399, 2.420445
662.4220, 4.009124
662.9041, 6.432220
663.3862, 7.999660
663.8683, 8.856828
664.3505, 9.605781
664.8326, 10.60441
665.3147, 11.57453
665.7968, 12.27406
666.2789, 12.71472
666.7610, 13.18450
667.2432, 13.23829
667.7253, 13.82617
668.2074, 15.44129
668.6895, 18.26919
669.1716, 21.27433
669.6537, 24.51553
670.1359, 27.84888
670.6180, 31.55318
671.1001, 35.53051
671.5822, 37.77490
672.0643, 37.89830
672.5464, 37.23309
673.0286, 36.62777
673.5107, 36.56507
673.9928, 37.97069
674.4749, 42.02018
674.9570, 46.08529
675.4391, 48.30585
675.9213, 49.32034
676.4034, 50.16278
676.8855, 49.80024
677.3676, 50.75660
677.8497, 54.66786
678.3318, 60.26168
678.8140, 64.15833
679.2961, 66.24723
679.7782, 66.87955
680.2603, 65.68336
680.7424, 63.25496
681.2245, 61.85198
681.7067, 61.53413
682.1888, 62.08976
682.6709, 65.29201
683.1530, 68.65258
683.6351, 66.99865
684.1172, 60.51262
684.5994, 54.44487
685.0815, 52.48978
685.5636, 52.08242
686.0457, 51.36758
686.5278, 50.15571
687.0099, 48.53056
687.4921, 45.53634
687.9742, 42.82913
688.4563, 41.51615
688.9384, 42.08393
689.4205, 42.79691
689.9026, 43.87910
690.3848, 44.44251
690.8669, 42.83355
691.3490, 39.37237
691.8311, 37.27504
692.3132, 37.80331
692.7953, 38.94077
693.2775, 38.11890
693.7596, 35.89528
694.2417, 33.51519
694.7238, 30.95669
695.2059, 28.95554
695.6880, 28.21982
696.1702, 28.31810
696.6523, 28.01991
697.1344, 25.91883
697.6165, 25.13224
698.0986, 27.04225
698.5807, 30.85566
699.0629, 32.70000
699.5450, 32.42286
700.0271, 31.62773
700.5092, 30.88256
700.9913, 30.08175
701.4734, 29.64451
701.9556, 29.62856
702.4377, 28.78080
702.9198, 24.46097
703.4019, 19.71680
703.8840, 17.99988
704.3661, 19.74557
704.8483, 21.85035
705.3304, 23.90623
705.8125, 25.63663
706.2946, 26.62571
706.7767, 26.62784
707.2589, 26.57228
707.7410, 26.57885
708.2231, 26.48557
708.7052, 25.76426
709.1873, 24.42570
709.6694, 23.77864
710.1516, 23.95450
710.6337, 24.75740
711.1158, 26.64997
711.5979, 28.92931
712.0800, 29.83801
712.5621, 28.31845
713.0443, 26.46415
713.5264, 26.02822
714.0085, 26.17840
714.4906, 25.67579
714.9727, 23.41097
715.4548, 21.41277
715.9370, 19.63387
716.4191, 18.44142
716.9012, 19.12945
717.3833, 22.57853
717.8654, 24.33062
718.3475, 22.60617
718.8297, 18.97245
719.3118, 17.85071
719.7939, 18.85464
720.2760, 19.37362
720.7581, 17.03472
721.2402, 14.18036
721.7224, 13.76536
722.2045, 15.23405
722.6866, 16.03079
723.1687, 14.56609
723.6508, 12.62753
724.1329, 10.69341
724.6151, 8.806324
725.0972, 8.173164
725.5793, 9.764896
726.0614, 10.96726
726.5435, 10.17967
727.0256, 7.521620
727.5078, 5.718593
727.9899, 4.786206
728.4720, 4.449066
728.9541, 5.265133
729.4362, 6.280044
729.9183, 5.125556
730.4005, 1.470246
730.8826, 1.098359
731.3647, 0.8772280
731.8468, 4.070747
732.3289, 5.643081
732.8110, 4.244332
733.2932, 3.708173
733.7753, 5.140553
734.2574, 6.717133
734.7395, 6.730391
735.2216, 4.833771
735.7037, 3.600126
736.1859, 3.371938
736.6680, 3.318691
737.1501, 1.991570
737.6322, 4.8531000E-02
738.1143, 0.8357680
738.5964, 0.4852780
739.0786, 1.828453
739.5607, 0.9394830
740.0428, 0.8323190
740.5249, 0.5628180
741.0070, 0.4785320
741.4891, 1.884033
741.9713, 1.203403
742.4534, 0.2464760
742.9355, 0.4786290
743.4176, 0.9588510
743.8997, 2.162238
744.3818, 2.776552
744.8640, 2.932879
745.3461, 2.986817
745.8282, 2.862830
746.3103, 1.970220
746.7924, 0.9745780
747.2745, 1.392594
747.7567, 8.2153998E-02
748.2388, 1.993188
748.7209, 4.747973
749.2030, 3.830170
749.6851, 2.553151
750.1672, 2.215620
750.6494, 2.498319
751.1315, 2.012989
751.6136, 0.2465660
752.0957, 0.8977580
752.5778, 0.7226570
753.0599, 0.5746000
753.5421, 0.2137930
754.0242, 0.1744390
754.5063, 0.5969430
754.9884, 0.4171990
755.4705, 2.211894
755.9526, 1.872718
756.4348, 0.1199830
756.9169, 0.7179160
757.3990, 1.809941
757.8811, 4.370435
758.3632, 3.707653
758.8453, 0.2799040
759.3275, 0.4847790
759.8096, 0.5092860
760.2917, 0.3011600
760.7738, 0.7873360
761.2559, 0.7644920
761.7380, 1.786686
762.2202, 1.975555
762.7023, 3.074506
763.1844, 9.033248
763.6665, 15.46659
764.1486, 14.74522
764.6307, 6.701525
765.1129, 0.5540300
765.5950, 1.176897
766.0771, 1.386888
766.5592, 0.6879390
767.0413, 0.6441800
767.5234, 0.4881860
768.0056, 0.7966400
768.4877, 0.6250570
768.9698, 0.1745110
769.4519, 0.1922240
769.9340, 0.5997230
770.4161, 1.284176
770.8983, 3.482960
771.3804, 2.736983
771.8625, 0.6878500
772.3446, 0.1137560
772.8267, 1.539444
773.3088, 2.469531
773.7910, 0.6746290
774.2731, 0.2991510
774.7552, 0.2161240
775.2373, 0.1477660
775.7194, 1.425883
776.2015, 1.524010
776.6837, 1.227183
777.1658, 1.019287
777.6479, 0.9094770
778.1300, 1.765673
778.6121, 3.837632
779.0942, 5.525744
779.5764, 4.530692
780.0585, 2.385679
780.5406, 1.577643
781.0227, 2.942646
781.5048, 4.108737
781.9869, 3.045888
782.4691, 1.830294
782.9512, 2.556459
783.4332, 7.290171
783.9153, 9.657745
784.3975, 8.841192
784.8796, 6.858925
785.3617, 5.497575
785.8438, 4.843725
786.3259, 5.586725
786.8080, 8.029424
787.2902, 10.45713
787.7723, 11.18883
788.2544, 10.71452
788.7365, 9.446787
789.2186, 7.132754
789.7007, 5.488577
790.1829, 5.656593
790.6650, 6.633961
791.1471, 7.130820
791.6292, 6.968672
792.1113, 7.057673
792.5934, 7.525510
793.0756, 8.137411
793.5577, 8.274407
794.0398, 8.140294
794.5219, 9.453571
795.0040, 12.93043
795.4861, 16.13620
795.9683, 16.33466
796.4504, 15.14174
796.9325, 14.59353
797.4146, 16.09835
797.8967, 16.49362
798.3788, 13.70900
798.8610, 10.42243
799.3431, 9.398957
799.8252, 11.81832
800.3073, 12.23277
800.7894, 9.462763
801.2715, 6.503969
801.7537, 8.028257
802.2358, 12.68053
802.7179, 15.73091
803.2000, 15.97324
803.6821, 15.09548
804.1642, 14.11499
804.6464, 12.82727
805.1285, 10.95660
805.6106, 6.837826
806.0927, 5.391408
806.5748, 8.794750
807.0569, 13.28517
807.5391, 14.74753
808.0212, 12.70186
808.5033, 11.34530
808.9854, 11.15075
809.4675, 11.64619
809.9496, 13.03841
810.4318, 14.56593
810.9139, 14.05823
811.3960, 10.20143
811.8781, 6.980503
812.3602, 7.499933
812.8423, 9.644183
813.3245, 11.00513
813.8066, 10.71527
814.2887, 11.22536
814.7708, 13.07821
815.2529, 14.60280
815.7350, 13.63315
816.2172, 10.49898
816.6993, 7.831043
817.1814, 5.649367
817.6635, 4.509886
818.1456, 6.319666
818.6277, 9.179410
819.1099, 10.32492
819.5920, 8.414205
820.0741, 6.789280
820.5562, 7.160639
821.0383, 7.943383
821.5204, 7.739283
822.0026, 6.119846
822.4847, 4.665473
822.9668, 3.263211
823.4489, 2.155994
823.9310, 1.774744
824.4131, 2.041434
824.8953, 2.676724
825.3774, 3.680507
825.8595, 4.464558
826.3416, 4.486549
826.8237, 4.137214
827.3058, 3.765672
827.7880, 3.475272
828.2701, 3.212703
828.7522, 2.593107
829.2343, 2.291655
829.7164, 3.046138
830.1985, 5.001374
830.6807, 6.113465
831.1628, 6.287951
831.6449, 6.082702
832.1270, 5.818542
832.6091, 5.627172
833.0912, 5.718855
833.5734, 6.043253
834.0555, 6.345459
834.5376, 6.380845
835.0197, 6.403194
835.5018, 6.741854
835.9839, 7.556611
836.4661, 7.256280
836.9482, 5.374065
837.4303, 3.437063
837.9124, 2.180995
838.3945, 1.689109
838.8766, 3.079327
839.3588, 6.261805
839.8409, 8.524397
840.3230, 6.499530
840.8051, 3.648087
841.2872, 3.758225
841.7693, 6.881608
842.2515, 7.873385
842.7336, 3.243098
843.2157, 0.8411580
843.6978, 0.7423000
844.1799, 0.2099100
844.6620, 1.016790
845.1442, 1.725677
845.6263, 2.262380
846.1084, 2.960054
846.5905, 3.398410
847.0726, 2.187605
847.5547, 0.1759030
848.0369, 1.330684
848.5190, 1.729978
849.0011, 4.392575
849.4832, 4.033330
849.9653, 1.290182
850.4474, 0.2509320
850.9296, 0.2692720
851.4117, 4.5940001E-03
851.8938, 0.1620170
852.3759, 0.3346120
852.8580, 0.9353180
853.3401, 1.835154
853.8223, 2.353298
854.3044, 2.081535
854.7865, 1.598106
855.2686, 0.5907100
855.7507, 0.6050060
856.2328, 1.116361
856.7150, 0.1524770
857.1971, 1.158467
857.6792, 1.573390
858.1613, 1.578377
858.6434, 1.373321
859.1255, 0.9667240
859.6077, 0.9271910
860.0898, 1.402669
860.5719, 2.234104
861.0540, 3.671738
861.5361, 5.198360
862.0182, 5.964242
862.5004, 4.786326
862.9825, 4.083020
863.4646, 4.784195
863.9467, 6.001364
864.4288, 7.028717
864.9109, 8.107952
865.3931, 7.526303
865.8752, 4.748734
866.3573, 1.678324
866.8394, 1.391821
867.3215, 2.478159
867.8036, 1.760579
868.2858, 0.5828520
868.7679, 2.171551
869.2500, 0.4969790
869.7321, 1.831004
870.2142, 2.799564
870.6964, 0.2100060
871.1785, 1.130983
871.6606, 0.6330180
872.1427, 0.7577250
872.6248, 1.556933
873.1069, 2.101601
873.5891, 3.859521
874.0712, 6.698249
874.5533, 8.477043
875.0354, 6.775053
875.5175, 4.197531
875.9996, 2.535734
876.4818, 1.775725
876.9639, 1.906020
877.4460, 3.364060
877.9281, 5.019180
878.4102, 6.656141
878.8923, 8.173672
879.3745, 8.283278
879.8566, 6.983329
880.3387, 5.695023
880.8208, 5.638156
881.3029, 5.839114
881.7850, 4.869154
882.2672, 3.018962
882.7493, 2.049242
883.2314, 3.788340
883.7135, 4.934499
884.1956, 4.202444
884.6777, 2.634513
885.1599, 3.418825
885.6420, 6.773140
886.1241, 9.096670
886.6062, 9.257949
887.0883, 8.043231
887.5704, 4.800544
888.0526, 1.296876
888.5347, 1.077964
889.0168, 8.982765
889.4989, 14.80845
889.9810, 13.32958
890.4631, 9.272819
890.9453, 8.071173
891.4274, 10.67056
891.9095, 11.73283
892.3916, 10.55732
892.8737, 8.880706
893.3558, 9.271974
893.8380, 10.56132
894.3201, 10.08786
894.8022, 7.238185
895.2843, 4.558568
895.7664, 3.655086
896.2485, 3.220614
896.7307, 2.169214
897.2128, 0.2638270
897.6949, 0.2955210
898.1770, 0.2084140
898.6591, 0.1769830
899.1412, 1.115840
899.6234, 4.241677
900.1055, 4.918686
900.5876, 3.407735
901.0697, 2.182293
901.5518, 3.739174
902.0339, 5.291394
902.5161, 3.885814
902.9982, 0.2843530
903.4803, 1.522558
903.9624, 11.18586
904.4445, 16.97738
904.9266, 13.71073
905.4088, 5.469996
905.8909, 1.853495
906.3730, 2.341396
906.8551, 4.109632
907.3372, 6.894900
907.8193, 9.467224
908.3015, 11.43502
908.7836, 12.51079
909.2657, 12.08459
909.7478, 8.857604
910.2299, 6.520983
910.7120, 5.737426
911.1942, 5.229217
911.6763, 2.633322
912.1584, 1.361538
912.6405, 0.1306290
913.1226, 1.079305
913.6047, 1.111237
914.0869, 1.657650
914.5690, 1.487134
915.0511, 1.149319
915.5332, 0.5796740
916.0153, 0.5753180
916.4974, 1.390283
916.9796, 2.371614
917.4617, 3.154081
917.9438, 3.761732
918.4259, 4.507926
918.9080, 5.346275
919.3901, 5.811086
919.8723, 5.371230
920.3544, 4.605568
920.8365, 3.593324
921.3186, 2.543484
921.8007, 2.629879
922.2828, 5.782565
922.7650, 7.083696
923.2471, 4.833202
923.7292, 0.4600390
924.2113, 1.346947
924.6934, 1.164174
925.1755, 1.775289
925.6577, 0.5194600
926.1398, 1.346872
926.6219, 0.7152930
927.1040, 1.803448
927.5861, 1.067086
928.0682, 5.4270001E-03
928.5504, 2.790600
929.0325, 0.7666700
929.5146, 2.222076
929.9967, 1.674894
930.4788, 1.761932
930.9609, 3.182713
931.4431, 2.129121
931.9252, 0.4459430
932.4073, 0.6075770
932.8894, 1.533597
933.3715, 2.847980
933.8536, 0.6967960
934.3358, 0.4433060
934.8179, 0.1849170
935.3000, 0.5636530
935.7821, 1.739391
936.2642, 3.010360
936.7463, 2.466932
937.2285, 0.4402360
937.7106, 0.6507290
938.1927, 2.082915
938.6748, 1.827747
939.1569, 2.684881
939.6390, 0.7763910
940.1212, 2.223844
940.6033, 4.908864
941.0854, 7.367420
941.5675, 9.718305
942.0496, 11.62635
942.5317, 12.24876
943.0139, 11.87581
943.4960, 11.83305
943.9781, 12.36452
944.4602, 13.25545
944.9423, 14.19560
945.4244, 15.52441
945.9066, 17.44303
946.3887, 19.85716
946.8708, 24.17937
947.3529, 31.88776
947.8350, 38.12410
948.3171, 38.31609
948.7993, 34.65571
949.2814, 36.09520
949.7635, 42.05264
950.2456, 48.47578
950.7277, 52.78067
951.2098, 56.94847
951.6920, 61.85214
952.1741, 67.55978
952.6562, 74.24206
953.1383, 82.69132
953.6204, 89.67722
954.1025, 94.00436
954.5847, 97.60425
955.0668, 103.8476
955.5489, 111.9806
956.0310, 120.1465
956.5131, 127.5043
956.9952, 135.7591
957.4774, 145.6608
957.9595, 156.6494
958.4416, 168.5100
958.9237, 181.5937
959.4058, 193.8327
959.8879, 205.0000
960.3701, 215.9044
960.8522, 226.8624
961.3343, 238.1892
961.8164, 250.0246
962.2985, 262.3880
962.7806, 274.8065
963.2628, 288.0924
963.7449, 300.1915
964.2270, 309.5337
964.7091, 317.3442
965.1912, 327.8647
965.6733, 341.6683
966.1555, 352.1432
966.6376, 357.1083
967.1197, 359.3603
967.6018, 362.6709
968.0839, 365.8123
968.5660, 366.6981
969.0482, 364.5382
969.5303, 360.7215
970.0124, 354.3265
970.4945, 347.4668
970.9766, 341.1918
971.4587, 335.5962
971.9409, 332.1761
972.4230, 330.9913
972.9051, 330.3638
973.3872, 329.0187
973.8693, 327.5740
974.3514, 325.6853
974.8336, 323.8449
975.3157, 325.3531
975.7978, 334.2459
976.2799, 340.9138
976.7620, 341.9488
977.2441, 340.5410
977.7263, 344.3097
978.2084, 352.5938
978.6905, 361.7849
979.1726, 371.1906
979.6547, 380.3647
980.1368, 389.7664
980.6190, 398.3871
981.1010, 404.6995
981.5831, 406.8684
982.0652, 411.6574
982.5474, 419.5453
983.0295, 429.2659
983.5116, 440.8874
983.9937, 453.4734
984.4758, 464.1520
984.9579, 472.9099
985.4401, 480.7012
985.9222, 486.8896
986.4043, 492.9938
986.8864, 501.2878
987.3685, 510.2083
987.8506, 514.9473
988.3328, 514.8308
988.8149, 514.6223
989.2970, 516.4198
989.7791, 517.0996
990.2612, 511.5235
990.7433, 502.5048
991.2255, 494.6024
991.7076, 490.2591
992.1897, 483.0469
992.6718, 470.0146
993.1539, 455.3938
993.6360, 441.3602
994.1182, 427.6273
994.6003, 416.5919
995.0824, 408.1771
995.5645, 397.6870
996.0466, 379.1696
996.5287, 358.9830
997.0109, 342.6443
997.4930, 329.6336
997.9751, 316.5898
998.4572, 302.7852
998.9393, 289.4518
999.4214, 276.9903
999.9036, 264.5608
1000.386, 250.3028
1000.868, 235.0944
1001.350, 222.9193
1001.832, 215.0297
1002.314, 207.2289
1002.796, 196.5816
1003.278, 185.4113
1003.760, 175.3967
1004.243, 166.4590
1004.725, 159.4030
1005.207, 154.6515
1005.689, 149.0043
1006.171, 138.9575
1006.653, 128.1045
1007.135, 123.2533
1007.617, 122.2048
1008.100, 118.9839
1008.582, 108.6712
1009.064, 99.47277
1009.546, 93.16752
1010.028, 88.52483
1010.510, 84.33890
1010.992, 80.55786
1011.474, 75.68880
1011.956, 69.42809
1012.439, 63.71766
1012.921, 60.40300
1013.403, 58.29281
1013.885, 56.40652
1014.367, 54.69662
1014.849, 53.72863
1015.331, 54.21046
1015.813, 53.79016
1016.296, 51.33576
1016.778, 47.67810
1017.260, 44.44924
1017.742, 41.64722
1018.224, 39.18209
1018.706, 36.78197
1019.188, 35.05175
1019.670, 34.46834
1020.152, 34.49574
1020.635, 34.53201
1021.117, 34.43919
1021.599, 35.21905
1022.081, 36.98578
1022.563, 38.31656
1023.045, 37.95808
1023.527, 36.61129
1024.009, 35.20670
1024.492, 33.64984
1024.974, 30.99481
1025.456, 24.81370
1025.938, 21.11740
1026.420, 21.94206
1026.902, 24.97735
1027.384, 25.74269
1027.866, 24.77860
1028.349, 24.33637
1028.831, 25.10435
1029.313, 25.75141
1029.795, 24.85202
1030.277, 23.93778
1030.759, 24.46122
1031.241, 26.58153
1031.723, 28.22885
1032.205, 29.45607
1032.688, 29.97714
1033.170, 29.29321
1033.652, 28.09197
1034.134, 26.65274
1034.616, 25.55230
1035.098, 26.21472
1035.580, 32.45603
1036.062, 35.63304
1036.544, 33.29641
1037.027, 29.27781
1037.509, 28.78731
1037.991, 31.09238
1038.473, 31.05347
1038.955, 28.20649
1039.437, 24.04534
1039.919, 18.49792
1040.401, 13.03037
1040.884, 8.392682
1041.366, 4.730625
1041.848, 2.434860
1042.330, 1.808174
1042.812, 1.500104
1043.294, 1.374109
1043.776, 0.9132990
1044.258, 1.470659
1044.740, 2.073346
1045.223, 0.9013250
1045.705, 3.117828
1046.187, 1.876481
1046.669, 3.033813
1047.151, 1.027569
1047.633, 2.270492
1048.115, 6.174502
1048.597, 6.669502
1049.079, 4.118621
1049.562, 1.408136
1050.044, 0.7298550
1050.526, 3.6821000E-02
1051.008, 2.946132
1051.490, 0.7777790
1051.972, 1.993890
1052.454, 7.9057001E-02
1052.936, 2.074070
1053.419, 1.820119
1053.901, 1.117057
1054.383, 1.388842
1054.865, 2.750005
1055.347, 3.637404
1055.829, 0.9230970
1056.311, 1.574080
1056.793, 2.175003
1057.276, 1.525726
1057.758, 2.506408
1058.240, 1.051283
1058.722, 2.014086
1059.204, 0.4252340
1059.686, 0.2092480
1060.168, 3.0590000E-03
1060.650, 4.284914
1061.132, 3.760427
1061.615, 1.368441
1062.097, 0.3456360
1062.579, 1.352669
1063.061, 1.312738
1063.543, 0.1520950
1064.025, 1.130000
1064.507, 1.920441
1064.989, 2.461170
1065.471, 2.869864
1065.954, 3.265556
1066.436, 3.956820
1066.918, 5.487725
1067.400, 6.648859
1067.882, 7.397935
1068.364, 7.718700
1068.846, 6.994090
1069.328, 5.863421
1069.811, 6.566866
1070.293, 9.189900
1070.775, 11.85543
1071.257, 13.75368
1071.739, 15.23055
1072.221, 16.54790
1072.703, 17.57462
1073.185, 17.58389
1073.667, 16.59769
1074.150, 16.43011
1074.632, 17.58908
1075.114, 19.63135
1075.596, 22.72636
1076.078, 26.13378
1076.560, 28.74024
1077.042, 29.97440
1077.524, 33.65790
1078.006, 40.77510
1078.489, 46.84655
1078.971, 48.95435
1079.453, 48.89882
1079.935, 49.21584
1080.417, 50.20911
1080.899, 52.63194
1081.381, 57.79914
1081.863, 62.92679
1082.345, 67.04000
1082.828, 71.71131
1083.310, 78.75747
1083.792, 87.81265
1084.274, 96.41640
1084.756, 104.4904
1085.238, 112.2949
1085.720, 120.6757
1086.202, 128.1420
1086.685, 135.2975
1087.167, 140.5224
1087.649, 139.1066
1088.131, 130.2589
1088.613, 122.3573
1089.095, 116.9884
1089.577, 111.6742
1090.059, 102.5625
1090.542, 92.95412
1091.024, 86.28994
1091.506, 83.09225
1091.988, 81.82655
1092.470, 83.42648
1092.952, 83.86136
1093.434, 81.01843
1093.916, 77.19457
1094.398, 77.31684
1094.880, 79.62864
1095.363, 80.32675
1095.845, 77.07003
1096.327, 75.69939
1096.809, 79.71503
1097.291, 83.41966
1097.773, 82.81866
1098.255, 78.75638
1098.737, 76.65088
1099.220, 76.35104
1099.702, 76.29450
1100.184, 76.05994
1100.666, 75.42585
1101.148, 74.51419
1101.630, 73.06269
1102.112, 70.79986
1102.594, 67.71951
1103.077, 63.75562
1103.559, 58.70999
1104.041, 54.33930
1104.523, 52.41724
1105.005, 51.36098
1105.487, 48.71243
1105.969, 44.83619
1106.451, 43.59878
1106.933, 47.01778
1107.416, 48.09563
1107.898, 45.04657
1108.380, 40.39152
1108.862, 36.90163
1109.344, 34.34904
1109.826, 31.64041
1110.308, 28.48850
1110.790, 26.48960
1111.272, 26.60664
1111.755, 27.74436
1112.237, 30.45448
1112.719, 33.20705
1113.201, 30.74167
1113.683, 24.67358
1114.165, 20.07887
1114.647, 18.79188
1115.129, 18.41372
1115.612, 17.27225
1116.094, 17.30353
1116.576, 20.35400
1117.058, 26.21428
1117.540, 27.59763
1118.022, 24.92905
1118.504, 20.92630
1118.986, 15.20365
1119.469, 10.84060
1119.951, 11.15168
1120.433, 13.45518
1120.915, 13.85859
1121.397, 11.74946
1121.879, 10.81072
1122.361, 11.15022
1122.843, 11.29195
1123.325, 9.764222
1123.807, 7.768797
1124.290, 6.313478
1124.772, 5.502573
1125.254, 5.049737
1125.736, 5.096313
1126.218, 5.288457
1126.700, 5.827404
1127.182, 5.998027
1127.664, 4.557278
1128.147, 2.654058
1128.629, 2.196900
1129.111, 3.476884
1129.593, 5.216266
1130.075, 8.438364
1130.557, 10.12010
1131.039, 9.160779
1131.521, 6.698941
1132.004, 4.166592
1132.486, 1.988781
1132.968, 1.542704
1133.450, 3.326802
1133.932, 5.400009
1134.414, 8.002523
1134.896, 9.158545
1135.378, 7.414099
1135.860, 3.672008
1136.343, 1.492458
1136.825, 0.7934170
1137.307, 1.277885
1137.789, 3.223939
1138.271, 5.307482
1138.753, 7.573192
1139.235, 8.783524
1139.717, 7.353134
1140.199, 3.186335
1140.682, 2.278849
1141.164, 4.575865
1141.646, 6.958975
1142.128, 7.669634
1142.610, 7.899861
1143.092, 8.772210
1143.574, 8.766049
1144.056, 8.771401
1144.539, 8.858813
1145.021, 8.320646
1145.503, 8.476685
1145.985, 8.409285
1146.467, 6.854982
1146.949, 4.998505
1147.431, 4.667650
1147.913, 5.297030
1148.396, 4.777150
1148.878, 1.696021
1149.360, 0.6464180
1149.842, 2.555217
1150.324, 4.541197
1150.806, 2.630354
1151.288, 0.5984500
1151.770, 1.142370
1152.252, 0.8850270
1152.734, 2.761698
1153.217, 4.317599
1153.699, 4.835688
1154.181, 3.960865
1154.663, 2.414317
1155.145, 0.3946560
1155.627, 1.204450
1156.109, 4.8248000E-02
1156.591, 4.717124
1157.074, 7.234171
1157.556, 3.487333
1158.038, 2.7511001E-02
1158.520, 0.9660910
1159.002, 0.9330820
1159.484, 0.7673620
1159.966, 0.4560230
1160.448, 1.606419
1160.931, 2.733450
1161.413, 2.774469
1161.895, 0.7029780
1162.377, 0.7574600
1162.859, 0.4736360
1163.341, 1.787357
1163.823, 3.080001
1164.305, 2.353637
1164.787, 1.358754
1165.270, 0.6137840
1165.752, 0.1124720
1166.234, 0.9613540
1166.716, 0.1278550
1167.198, 0.6618200
1167.680, 8.4787004E-02
1168.162, 0.3297760
1168.644, 0.7527040
1169.126, 0.5332240
1169.609, 0.1827410
1170.091, 0.1843280
1170.573, 0.3154870
1171.055, 0.7499920
1171.537, 0.6208820
1172.019, 0.7601620
1172.501, 2.614944
1172.983, 4.889685
1173.466, 5.873018
1173.948, 1.950529
1174.430, 0.9280660
1174.912, 3.805784
1175.394, 11.18413
1175.876, 12.56069
1176.358, 6.406175
1176.840, 4.244552
1177.323, 6.717988
1177.805, 8.588422
1178.287, 5.116702
1178.769, 0.2857580
1179.251, 1.642943
1179.733, 4.051003
1180.215, 3.262373
1180.697, 0.2133000
1181.179, 2.083912
1181.661, 0.8658070
1182.144, 0.8641980
1182.626, 0.1996150
1183.108, 1.063275
1183.590, 0.6961100
1184.072, 0.7520420
1184.554, 5.9590001E-02
1185.036, 4.050319
1185.518, 4.749883
1186.001, 0.3007000
1186.483, 2.375342
1186.965, 0.6221560
1187.447, 1.833140
1187.929, 4.810421
1188.411, 6.276661
1188.893, 7.720518
1189.375, 9.827678
1189.858, 9.406697
1190.340, 5.049362
1190.822, 0.4173220
1191.304, 0.4828640
1191.786, 1.216520
1192.268, 5.248472
1192.750, 11.58626
1193.232, 14.20009
1193.714, 11.97865
1194.197, 8.784101
1194.679, 5.162238
1195.161, 2.540177
1195.643, 3.935862
1196.125, 7.066579
1196.607, 8.924079
1197.089, 8.917364
1197.571, 7.866257
1198.053, 5.064831
1198.536, 3.680196
1199.018, 5.327222
1199.500, 8.066090
1199.982, 9.502638
1200.464, 9.774931
1200.946, 9.027011
1201.428, 7.158781
1201.910, 4.639235
1202.393, 1.112422
1202.875, 8.0293000E-02
1203.357, 1.768870
1203.839, 2.182856
1204.321, 0.3812120
1204.803, 0.7436940
1205.285, 2.566697
1205.767, 2.240483
1206.250, 2.874793
1206.732, 4.979026
1207.214, 6.602751
1207.696, 6.224366
1208.178, 5.065794
1208.660, 5.125701
1209.142, 5.984831
1209.624, 7.011910
1210.106, 8.647190
1210.589, 9.341053
1211.071, 8.798829
1211.553, 8.248178
1212.035, 8.693278
1212.517, 9.500669
1212.999, 9.795838
1213.481, 9.509827
1213.963, 8.893669
1214.445, 7.149866
1214.928, 6.305836
1215.410, 6.417494
1215.892, 7.297288
1216.374, 9.595714
1216.856, 12.02603
1217.338, 12.31376
1217.820, 10.97649
1218.302, 9.096040
1218.785, 5.008318
1219.267, 4.631555
1219.749, 9.208748
1220.231, 13.25622
1220.713, 11.24553
1221.195, 7.018141
1221.677, 5.660283
1222.159, 6.649501
1222.641, 8.333701
1223.124, 11.71471
1223.606, 12.42149
1224.088, 9.627779
1224.570, 6.538047
1225.052, 5.591011
1225.534, 6.297516
1226.016, 8.931405
1226.498, 12.40347
1226.980, 13.10628
1227.463, 9.251529
1227.945, 7.468973
1228.427, 8.780078
1228.909, 9.713792
1229.391, 5.636945
1229.873, 0.5659540
1230.355, 0.4673200
1230.837, 1.605533
1231.320, 2.545597
1231.802, 1.535861
1232.284, 1.577715
1232.766, 3.486394
1233.248, 4.895496
1233.730, 2.623878
1234.212, 0.3433390
1234.694, 0.7613280
1235.177, 0.9112010
1235.659, 2.280128
1236.141, 3.493809
1236.623, 2.821425
1237.105, 0.4800600
1237.587, 0.6791440
1238.069, 0.2019310
1238.551, 3.826714
1239.033, 4.289781
1239.516, 2.239420
1239.998, 2.712340
1240.480, 6.157269
1240.962, 9.941792
1241.444, 13.77522
1241.926, 16.09453
1242.408, 14.58616
1242.890, 12.39799
1243.372, 11.95687
1243.855, 12.72325
1244.337, 12.98747
1244.819, 13.10622
1245.301, 12.00423
1245.783, 9.284202
1246.265, 7.189406
1246.747, 8.880062
1247.229, 10.54369
1247.712, 9.067755
1248.194, 9.242837
1248.676, 8.470607
1249.158, 6.384774
1249.640, 5.822368
1250.122, 2.782900
1250.604, 0.2500170
1251.086, 0.8537240
1251.568, 1.834988
1252.051, 1.548422
1252.533, 0.7343840
1253.015, 1.125540
1253.497, 2.490810
1253.979, 3.593122
1254.461, 4.631269
1254.943, 5.848571
1255.425, 6.630803
1255.907, 7.105894
1256.390, 7.154459
1256.872, 7.113435
1257.354, 8.008025
1257.836, 9.397619
1258.318, 9.671630
1258.800, 8.588966
1259.282, 7.596849
1259.764, 7.454091
1260.247, 7.479790
1260.729, 7.803861
1261.211, 7.801866
1261.693, 5.387004
1262.175, 2.087808
1262.657, 1.750988
1263.139, 4.912104
1263.621, 6.905735
1264.104, 5.683920
1264.586, 5.157749
1265.068, 6.612427
1265.550, 8.286063
1266.032, 7.100318
1266.514, 4.609839
1266.996, 2.637301
1267.478, 1.446157
1267.960, 3.970424
1268.443, 12.75727
1268.925, 16.86030
1269.407, 12.77350
1269.889, 6.259898
1270.371, 3.634022
1270.853, 3.058335
1271.335, 2.582780
1271.817, 2.554491
1272.299, 3.198510
1272.782, 4.646069
1273.264, 5.891321
1273.746, 6.666931
1274.228, 7.462662
1274.710, 9.443565
1275.192, 11.11483
1275.674, 10.91333
1276.156, 9.212396
1276.639, 7.621809
1277.121, 6.145870
1277.603, 4.687682
1278.085, 3.175868
1278.567, 2.448599
1279.049, 3.703795
1279.531, 5.478450
1280.013, 7.480075
1280.495, 9.007909
1280.978, 7.585169
1281.460, 3.769134
1281.942, 1.061185
1282.424, 4.3986998E-02
1282.906, 0.2490180
1283.388, 0.2150030
1283.870, 0.5384890
1284.352, 2.1686001E-02
1284.834, 0.4563660
1285.317, 2.089771
1285.799, 6.214219
1286.281, 7.839118
1286.763, 6.463648
1287.245, 5.060916
1287.727, 4.379302
1288.209, 4.295279
1288.691, 5.099923
1289.173, 5.818917
1289.656, 4.534505
1290.138, 4.866721
1290.620, 4.582583
1291.102, 3.416357
1291.584, 3.526068
1292.066, 1.823175
1292.548, 0.1268220
1293.030, 0.3410180
1293.513, 0.9694310
1293.995, 1.186195
1294.477, 1.904399
1294.959, 3.347772
1295.441, 3.274911
1295.923, 3.477973
1296.405, 4.030727
1296.887, 4.117377
1297.370, 3.579091
1297.852, 3.089483
1298.334, 2.865302
1298.816, 2.764971
1299.298, 2.986568
1299.780, 5.288753
1300.262, 5.541518
1300.744, 3.957629
1301.226, 3.339214
1301.708, 3.904325
1302.191, 4.863605
1302.673, 4.818831
1303.155, 4.431962
1303.637, 2.969628
1304.119, 0.0000000E+00
##END=



