##NAMES=Nepheline
##RRUFFID=R090059
##IDEAL CHEMISTRY=KNa_3_(AlSiO_4_)_4_
##LOCALITY=Lajuar Madan, Sar-e-Sang District, Badakhshan, Afghanistan
##OWNER=RRUFF
##SOURCE=Dudley Blauwet
##DESCRIPTION=Colorless blocky crystals coated with colorless sodalite with electric blue inclusions, on a marble matrix
##STATUS=The identification of this mineral has been confirmed only by single crystal X-ray diffraction.
##URL=rruff.info/R090059
91.82715, 0.0000000E+00
92.30927, 7.0170001E-03
92.79138, 0.9679100
93.27350, 2.902096
93.75562, 4.225761
94.23773, 4.833582
94.71985, 5.130015
95.20197, 5.282115
95.68408, 5.678355
96.16620, 7.184703
96.64832, 7.836138
97.13043, 7.439670
97.61255, 6.695268
98.09467, 4.977870
98.57678, 4.570745
99.05890, 3.713733
99.54102, 2.296620
100.0231, 0.8305860
100.5052, 0.1559210
100.9874, 0.1459520
101.4695, 0.5631650
101.9516, 0.6837720
102.4337, 0.8913540
102.9158, 1.340118
103.3979, 0.3568750
103.8801, 0.1219050
104.3622, 3.078363
104.8443, 5.215298
105.3264, 6.465338
105.8085, 7.763846
106.2906, 9.110745
106.7728, 10.44451
107.2549, 11.62401
107.7370, 12.66355
108.2191, 13.85491
108.7012, 15.54558
109.1833, 17.76217
109.6655, 20.08001
110.1476, 22.42539
110.6297, 24.83686
111.1118, 27.50282
111.5939, 30.61266
112.0760, 33.57283
112.5582, 35.64384
113.0403, 36.89548
113.5224, 38.13037
114.0045, 39.85101
114.4866, 42.03894
114.9688, 44.21213
115.4509, 46.84029
115.9330, 48.94830
116.4151, 49.65693
116.8972, 48.87774
117.3793, 47.71333
117.8615, 47.72273
118.3436, 49.56107
118.8257, 50.98812
119.3078, 51.79656
119.7899, 52.15543
120.2720, 52.07941
120.7542, 51.58378
121.2363, 50.83733
121.7184, 50.33610
122.2005, 50.76322
122.6826, 50.67374
123.1647, 49.83192
123.6468, 48.43323
124.1290, 46.65866
124.6111, 44.52943
125.0932, 42.16557
125.5753, 40.60854
126.0574, 40.52634
126.5395, 40.37527
127.0217, 39.58737
127.5038, 38.18724
127.9859, 36.39734
128.4680, 34.20543
128.9501, 31.71666
129.4323, 29.54657
129.9144, 28.11248
130.3965, 26.78517
130.8786, 24.73026
131.3607, 21.73294
131.8428, 18.89961
132.3250, 17.18276
132.8071, 16.20523
133.2892, 15.44754
133.7713, 14.80155
134.2534, 14.22161
134.7355, 13.51094
135.2177, 12.50171
135.6998, 11.67521
136.1819, 11.19857
136.6640, 11.05019
137.1461, 11.03053
137.6282, 10.87890
138.1104, 10.53886
138.5925, 10.72334
139.0746, 11.92878
139.5567, 13.26728
140.0388, 14.59005
140.5209, 15.78654
141.0031, 16.69265
141.4852, 17.00961
141.9673, 16.20892
142.4494, 16.27058
142.9315, 17.77372
143.4136, 19.56310
143.8958, 20.88864
144.3779, 21.56369
144.8600, 21.93252
145.3421, 22.54335
145.8242, 23.56335
146.3063, 24.53378
146.7885, 25.01581
147.2706, 25.57624
147.7527, 27.16353
148.2348, 30.27838
148.7169, 33.91419
149.1990, 35.96381
149.6812, 36.26394
150.1633, 35.97635
150.6454, 34.98578
151.1275, 33.61385
151.6096, 32.97632
152.0917, 33.74539
152.5739, 35.25003
153.0560, 36.46590
153.5381, 37.45263
154.0202, 37.94662
154.5023, 37.65707
154.9844, 36.56825
155.4665, 35.13174
155.9487, 33.15472
156.4308, 31.09943
156.9129, 29.31409
157.3950, 27.88369
157.8771, 26.65633
158.3592, 25.40217
158.8414, 24.18071
159.3235, 23.02586
159.8056, 22.14233
160.2877, 21.18348
160.7698, 19.81237
161.2519, 17.95662
161.7341, 15.85874
162.2162, 14.28927
162.6983, 13.71692
163.1804, 13.08267
163.6625, 12.02498
164.1446, 10.87484
164.6268, 10.13733
165.1089, 10.12972
165.5910, 10.66114
166.0731, 10.47480
166.5552, 8.673862
167.0373, 7.134343
167.5195, 6.350954
168.0016, 6.103097
168.4837, 5.903334
168.9658, 5.420286
169.4479, 4.689865
169.9300, 4.291577
170.4122, 4.654248
170.8943, 4.873814
171.3764, 4.441641
171.8585, 3.456747
172.3406, 2.393301
172.8227, 1.515801
173.3049, 0.8831600
173.7870, 0.5607290
174.2691, 0.7077310
174.7512, 1.048981
175.2333, 1.474976
175.7154, 1.990452
176.1976, 2.314639
176.6797, 2.199368
177.1618, 1.721639
177.6439, 1.046513
178.1260, 0.2131030
178.6081, 1.500668
179.0903, 1.876913
179.5724, 1.064684
180.0545, 0.1428170
180.5366, 0.2624190
181.0187, 0.3195520
181.5008, 0.2299800
181.9830, 0.1158470
182.4651, 0.5177900
182.9472, 0.2708780
183.4293, 1.124090
183.9114, 2.412095
184.3935, 2.805158
184.8757, 2.749379
185.3578, 3.043781
185.8399, 4.339892
186.3220, 6.510979
186.8041, 8.133822
187.2862, 8.238059
187.7684, 8.824427
188.2505, 10.90050
188.7326, 13.94894
189.2147, 16.84538
189.6968, 18.59715
190.1789, 19.09764
190.6611, 20.13840
191.1432, 21.97823
191.6253, 24.26915
192.1074, 27.28794
192.5895, 30.62314
193.0716, 33.45518
193.5538, 35.12070
194.0359, 35.32661
194.5180, 36.96107
195.0001, 40.94693
195.4822, 45.16543
195.9643, 48.57344
196.4465, 51.22216
196.9286, 53.86448
197.4107, 57.25999
197.8928, 61.57368
198.3749, 65.03558
198.8570, 67.07607
199.3392, 68.79105
199.8213, 70.91116
200.3034, 73.48448
200.7855, 76.07374
201.2676, 78.29887
201.7497, 80.12527
202.2319, 81.86910
202.7140, 83.55806
203.1961, 85.16080
203.6782, 86.65185
204.1603, 88.03417
204.6424, 89.31907
205.1246, 90.70513
205.6067, 92.06873
206.0888, 92.71098
206.5709, 91.82050
207.0530, 90.38911
207.5351, 89.92629
208.0173, 90.78121
208.4994, 91.64709
208.9815, 91.49339
209.4636, 90.59643
209.9457, 89.38255
210.4278, 87.90465
210.9100, 86.22177
211.3921, 84.36047
211.8742, 82.10836
212.3563, 80.17100
212.8384, 79.03143
213.3205, 78.45053
213.8027, 78.03397
214.2848, 77.60963
214.7669, 77.19527
215.2490, 76.83133
215.7311, 76.32516
216.2132, 76.21078
216.6954, 77.02905
217.1775, 78.30004
217.6596, 79.14441
218.1417, 78.81384
218.6238, 77.61938
219.1059, 77.46266
219.5881, 79.20279
220.0702, 81.00970
220.5523, 82.72022
221.0344, 84.07794
221.5165, 84.67294
221.9986, 84.12455
222.4808, 82.57719
222.9629, 81.38148
223.4450, 80.74241
223.9271, 80.30087
224.4092, 80.42851
224.8913, 80.65717
225.3735, 80.19321
225.8556, 78.43381
226.3377, 75.53176
226.8198, 73.07143
227.3019, 71.54667
227.7840, 70.04058
228.2662, 68.25242
228.7483, 66.27978
229.2304, 64.54202
229.7125, 63.40583
230.1946, 62.71882
230.6767, 60.69009
231.1589, 56.22255
231.6410, 51.79095
232.1231, 47.83621
232.6052, 44.34879
233.0873, 41.18322
233.5694, 38.22540
234.0516, 35.46898
234.5337, 33.12893
235.0158, 31.67676
235.4979, 30.05800
235.9800, 27.81235
236.4621, 25.15822
236.9443, 22.62423
237.4264, 20.53595
237.9085, 18.74335
238.3906, 16.63137
238.8727, 13.72038
239.3548, 11.18091
239.8370, 9.797657
240.3191, 9.145328
240.8012, 8.046458
241.2833, 5.684988
241.7654, 2.671264
242.2475, 0.7864170
242.7297, 0.3400090
243.2118, 0.3044470
243.6939, 0.4981440
244.1760, 0.7924390
244.6581, 0.7897830
245.1402, 0.2534040
245.6224, 0.5670490
246.1045, 1.243408
246.5866, 1.832597
247.0687, 2.030942
247.5508, 1.455581
248.0329, 0.3819480
248.5151, 3.2283999E-02
248.9972, 1.023694
249.4793, 2.240831
249.9614, 1.844226
250.4435, 0.2176040
250.9256, 2.406707
251.4078, 3.842338
251.8899, 4.721295
252.3720, 5.883903
252.8541, 7.642476
253.3362, 9.564878
253.8183, 11.10563
254.3005, 12.27740
254.7826, 13.65873
255.2647, 15.68207
255.7468, 18.25282
256.2289, 20.87755
256.7110, 23.45289
257.1931, 26.09490
257.6753, 28.78109
258.1574, 31.53736
258.6395, 34.55693
259.1216, 37.99847
259.6037, 41.85939
260.0858, 45.89719
260.5680, 50.49358
261.0501, 54.66562
261.5322, 57.82030
262.0143, 60.12926
262.4964, 62.11756
262.9785, 64.07939
263.4607, 65.98882
263.9428, 67.74499
264.4249, 69.44977
264.9070, 70.80210
265.3891, 71.91043
265.8712, 72.62978
266.3534, 72.60709
266.8355, 71.40828
267.3176, 69.33883
267.7997, 67.73357
268.2818, 67.21973
268.7639, 66.03819
269.2461, 63.27814
269.7282, 59.61717
270.2103, 56.05553
270.6924, 53.16392
271.1745, 50.70357
271.6566, 47.98896
272.1388, 44.93822
272.6209, 41.87102
273.1030, 38.73531
273.5851, 35.66750
274.0672, 32.91477
274.5493, 30.60048
275.0315, 28.51274
275.5136, 26.08800
275.9957, 22.89044
276.4778, 20.19119
276.9599, 18.40759
277.4420, 17.02624
277.9242, 15.51913
278.4063, 13.69483
278.8884, 11.88644
279.3705, 10.76115
279.8526, 10.74544
280.3347, 10.53409
280.8169, 9.781115
281.2990, 8.954870
281.7811, 8.474583
282.2632, 8.413396
282.7453, 8.443830
283.2274, 8.093875
283.7096, 7.285317
284.1917, 6.261154
284.6738, 4.485227
285.1559, 2.931598
285.6380, 2.232048
286.1201, 2.421205
286.6023, 3.079590
287.0844, 3.851286
287.5665, 4.930679
288.0486, 5.288287
288.5307, 4.323411
289.0128, 3.237469
289.4950, 2.395971
289.9771, 1.899200
290.4592, 1.807791
290.9413, 2.238909
291.4234, 3.249249
291.9055, 4.021478
292.3877, 4.656743
292.8698, 4.962342
293.3519, 4.628830
293.8340, 3.905465
294.3161, 3.331140
294.7982, 3.329437
295.2804, 3.824262
295.7625, 3.828146
296.2446, 2.880292
296.7267, 1.907658
297.2088, 1.005671
297.6909, 0.2018750
298.1731, 0.1165560
298.6552, 0.2399650
299.1373, 0.4703860
299.6194, 0.7978470
300.1015, 1.536360
300.5836, 1.974222
301.0658, 1.972280
301.5479, 1.676266
302.0300, 1.068572
302.5121, 0.1672170
302.9942, 0.6528470
303.4763, 0.5659590
303.9585, 1.755497
304.4406, 2.923287
304.9227, 1.888475
305.4048, 0.4928730
305.8869, 0.4099110
306.3690, 1.874598
306.8512, 3.651199
307.3333, 4.049607
307.8154, 2.411885
308.2975, 1.571810
308.7796, 1.937309
309.2617, 2.434383
309.7439, 2.388811
310.2260, 1.793702
310.7081, 1.057055
311.1902, 0.5664040
311.6723, 0.3289570
312.1544, 0.2784010
312.6366, 0.5226110
313.1187, 0.8177660
313.6008, 1.135188
314.0829, 1.429942
314.5650, 1.655075
315.0471, 1.795926
315.5293, 1.833090
316.0114, 1.491768
316.4935, 0.2190010
316.9756, 0.8198150
317.4577, 1.367223
317.9398, 1.530304
318.4220, 1.388099
318.9041, 0.9606360
319.3862, 0.4459480
319.8683, 0.4850710
320.3504, 1.732417
320.8326, 2.742493
321.3147, 3.277540
321.7968, 3.627887
322.2789, 4.120508
322.7610, 4.846981
323.2431, 5.613458
323.7253, 5.844071
324.2074, 5.690887
324.6895, 5.889576
325.1716, 5.850553
325.6537, 4.869558
326.1358, 3.682923
326.6180, 2.418880
327.1001, 1.409492
327.5822, 1.090771
328.0643, 1.707721
328.5464, 1.732457
329.0285, 0.7667270
329.5107, 0.3225270
329.9928, 1.255374
330.4749, 2.013081
330.9570, 2.602979
331.4391, 2.980499
331.9212, 3.192122
332.4034, 3.936144
332.8855, 6.016761
333.3676, 7.788361
333.8497, 8.586940
334.3318, 8.969701
334.8139, 9.799101
335.2961, 11.50922
335.7782, 13.74485
336.2603, 15.38547
336.7424, 15.78260
337.2245, 16.55343
337.7066, 17.69295
338.1888, 19.29165
338.6709, 21.51983
339.1530, 24.39507
339.6351, 27.61490
340.1172, 30.81989
340.5993, 34.23258
341.0815, 37.00288
341.5636, 38.47976
342.0457, 39.92547
342.5278, 41.96844
343.0099, 44.60296
343.4920, 47.58015
343.9742, 50.79642
344.4563, 54.30478
344.9384, 57.57019
345.4205, 60.60027
345.9026, 63.30523
346.3847, 65.57327
346.8669, 67.46436
347.3490, 69.20124
347.8311, 71.00303
348.3132, 72.65102
348.7953, 73.11252
349.2774, 71.84997
349.7596, 70.16129
350.2417, 68.23312
350.7238, 66.07063
351.2059, 63.66656
351.6880, 61.00991
352.1701, 58.13887
352.6523, 55.19587
353.1344, 52.30418
353.6165, 48.99114
354.0986, 44.53757
354.5807, 40.09460
355.0628, 36.47650
355.5450, 33.64549
356.0271, 30.89318
356.5092, 27.45051
356.9913, 23.29170
357.4734, 19.59659
357.9555, 16.24289
358.4377, 13.57166
358.9198, 11.96771
359.4019, 11.12457
359.8840, 10.44203
360.3661, 9.594877
360.8482, 8.630501
361.3304, 7.666698
361.8125, 6.536226
362.2946, 5.675022
362.7767, 5.445196
363.2588, 5.587013
363.7409, 5.870039
364.2231, 6.216702
364.7052, 6.488573
365.1873, 6.632973
365.6694, 6.751421
366.1515, 7.117348
366.6336, 7.549831
367.1158, 8.358091
367.5979, 9.876621
368.0800, 12.12763
368.5621, 14.69003
369.0442, 17.33236
369.5263, 20.01338
370.0085, 22.51186
370.4906, 24.67769
370.9727, 26.89089
371.4548, 29.49565
371.9369, 32.32258
372.4190, 35.01672
372.9012, 36.96964
373.3833, 39.01645
373.8654, 42.73512
374.3475, 48.37648
374.8296, 53.75018
375.3117, 57.41213
375.7939, 60.33976
376.2760, 63.96209
376.7581, 68.46495
377.2402, 73.53918
377.7223, 79.13943
378.2044, 85.17860
378.6866, 91.14537
379.1687, 96.65055
379.6508, 102.5372
380.1329, 110.1975
380.6150, 119.5221
381.0971, 128.6407
381.5793, 136.5658
382.0614, 144.1593
382.5435, 152.7572
383.0256, 162.6176
383.5077, 172.5332
383.9898, 181.2392
384.4720, 189.1123
384.9541, 198.8816
385.4362, 212.1695
385.9183, 225.7869
386.4004, 237.2639
386.8825, 247.3738
387.3647, 259.0809
387.8468, 274.0749
388.3289, 290.8960
388.8110, 305.5823
389.2931, 316.8788
389.7752, 329.3444
390.2574, 344.8353
390.7395, 361.5889
391.2216, 377.5431
391.7037, 392.2098
392.1858, 406.3766
392.6679, 420.9210
393.1501, 436.0924
393.6322, 450.2198
394.1143, 463.2988
394.5964, 475.5160
395.0785, 487.1663
395.5606, 498.0204
396.0428, 507.3504
396.5249, 514.7761
397.0070, 520.2742
397.4891, 523.8768
397.9712, 525.2880
398.4533, 525.0095
398.9355, 522.6308
399.4176, 518.7889
399.8997, 514.0856
400.3818, 508.7320
400.8639, 502.6063
401.3460, 495.4357
401.8282, 486.8003
402.3103, 478.2693
402.7924, 469.6950
403.2745, 461.2865
403.7566, 453.2005
404.2387, 445.3748
404.7209, 437.5484
405.2030, 429.4831
405.6851, 421.2746
406.1672, 414.0703
406.6493, 408.6437
407.1314, 403.2167
407.6136, 397.0389
408.0957, 390.7971
408.5778, 385.4173
409.0599, 381.2554
409.5420, 377.4243
410.0241, 372.5477
410.5063, 366.4637
410.9884, 360.3077
411.4705, 354.0995
411.9526, 348.0057
412.4347, 342.1908
412.9168, 336.6354
413.3990, 331.1554
413.8811, 326.0211
414.3632, 320.9200
414.8453, 314.5443
415.3274, 306.4939
415.8095, 298.1530
416.2917, 290.1901
416.7738, 282.4095
417.2559, 274.6238
417.7380, 266.9233
418.2201, 258.8981
418.7022, 249.8413
419.1844, 239.8813
419.6665, 230.2706
420.1486, 221.5599
420.6307, 213.1678
421.1128, 204.4992
421.5949, 195.5040
422.0771, 186.3087
422.5592, 176.4767
423.0413, 166.6879
423.5234, 157.8518
424.0055, 150.1022
424.4876, 142.9120
424.9698, 136.1147
425.4519, 129.6724
425.9340, 123.0313
426.4161, 115.7267
426.8982, 108.6046
427.3803, 102.3542
427.8625, 96.67041
428.3446, 90.72157
428.8267, 84.04722
429.3088, 77.25810
429.7909, 71.53617
430.2730, 67.35955
430.7552, 63.36976
431.2373, 59.99939
431.7194, 56.56211
432.2015, 52.17589
432.6836, 47.05934
433.1657, 42.08049
433.6479, 37.85941
434.1300, 34.36870
434.6121, 32.07352
435.0942, 32.71041
435.5763, 32.61444
436.0584, 30.76610
436.5406, 28.01438
437.0227, 25.15774
437.5048, 22.56214
437.9869, 20.42512
438.4690, 19.05265
438.9511, 18.61781
439.4333, 18.17564
439.9154, 17.79854
440.3975, 17.29257
440.8796, 16.36035
441.3617, 15.25625
441.8438, 14.63027
442.3260, 14.97440
442.8081, 16.02548
443.2902, 17.07558
443.7723, 18.21553
444.2544, 19.04526
444.7365, 18.90011
445.2187, 18.70601
445.7008, 19.38670
446.1829, 21.13329
446.6650, 23.13879
447.1471, 24.57056
447.6292, 25.67649
448.1114, 27.60050
448.5935, 30.79128
449.0756, 34.07076
449.5577, 36.42130
450.0398, 38.11288
450.5219, 39.80488
451.0041, 41.30718
451.4862, 43.06209
451.9683, 45.38764
452.4504, 48.33256
452.9325, 52.25794
453.4146, 57.58419
453.8968, 63.69440
454.3789, 69.19048
454.8610, 73.85445
455.3431, 78.47885
455.8252, 83.32455
456.3073, 88.40236
456.7895, 93.44612
457.2716, 98.48447
457.7537, 104.2043
458.2358, 111.3547
458.7179, 119.9404
459.2000, 127.9021
459.6822, 134.7228
460.1643, 141.6551
460.6464, 148.6202
461.1285, 156.0322
461.6106, 164.6173
462.0927, 174.6312
462.5748, 185.1480
463.0569, 194.6038
463.5391, 202.5900
464.0212, 210.6834
464.5033, 219.9796
464.9854, 228.1985
465.4675, 234.7947
465.9496, 239.4823
466.4318, 241.9663
466.9139, 242.1727
467.3960, 239.9482
467.8781, 234.5048
468.3602, 225.0564
468.8423, 214.1751
469.3245, 202.2787
469.8066, 189.3423
470.2887, 174.9260
470.7708, 159.0304
471.2529, 143.1916
471.7350, 128.4125
472.2172, 114.5847
472.6993, 101.5050
473.1814, 89.03443
473.6635, 77.68852
474.1456, 68.39304
474.6277, 60.47062
475.1099, 52.52642
475.5920, 43.56484
476.0741, 35.58598
476.5562, 30.46819
477.0383, 27.55187
477.5204, 24.74639
478.0026, 21.42415
478.4847, 17.96506
478.9668, 14.91445
479.4489, 12.34673
479.9310, 9.814860
480.4131, 7.113910
480.8953, 4.604161
481.3774, 2.541432
481.8595, 0.8986780
482.3416, 0.4819820
482.8237, 1.712785
483.3058, 2.725477
483.7880, 3.276964
484.2701, 2.681512
484.7522, 2.612988
485.2343, 3.513148
485.7164, 4.662747
486.1985, 4.700287
486.6807, 3.720999
487.1628, 3.071438
487.6449, 2.783993
488.1270, 2.850870
488.6091, 3.190943
489.0912, 4.171191
489.5734, 3.529994
490.0555, 3.291282
490.5376, 3.454413
491.0197, 3.734519
491.5018, 2.893928
491.9839, 2.314219
492.4661, 2.685729
492.9482, 2.717589
493.4303, 1.599155
493.9124, 0.8901380
494.3945, 0.6240400
494.8766, 1.083596
495.3588, 2.022419
495.8409, 2.445604
496.3230, 2.009022
496.8051, 1.610743
497.2872, 0.6976940
497.7693, 0.5615280
498.2515, 1.576837
498.7336, 2.154295
499.2157, 2.287217
499.6978, 1.820568
500.1799, 0.4223320
500.6620, 0.2816720
501.1442, 0.2658330
501.6263, 1.160682
502.1084, 1.966948
502.5905, 2.577821
503.0726, 2.853437
503.5547, 2.666187
504.0369, 2.211489
504.5190, 2.203207
505.0011, 3.243712
505.4832, 3.776251
505.9653, 3.329575
506.4474, 2.689787
506.9296, 2.526535
507.4117, 2.798675
507.8938, 2.898661
508.3759, 2.162590
508.8580, 0.8242240
509.3401, 0.3355210
509.8223, 1.038380
510.3044, 1.850157
510.7865, 2.813213
511.2686, 3.466390
511.7507, 3.046527
512.2328, 1.323429
512.7150, 1.396441
513.1971, 1.277944
513.6792, 1.596584
514.1613, 2.666893
514.6434, 3.158725
515.1255, 3.313426
515.6077, 3.202201
516.0898, 2.884963
516.5719, 2.652998
517.0540, 2.675981
517.5361, 2.589412
518.0182, 2.136228
518.5004, 1.536146
518.9825, 2.318613
519.4646, 3.037619
519.9467, 3.442424
520.4288, 3.123092
520.9109, 1.848647
521.3931, 2.382922
521.8752, 2.256339
522.3573, 3.338176
522.8394, 4.775351
523.3215, 6.101182
523.8036, 6.525179
524.2858, 5.751538
524.7679, 4.517602
525.2500, 4.002121
525.7321, 4.302503
526.2142, 4.848365
526.6964, 6.008443
527.1785, 6.983146
527.6606, 7.200051
528.1427, 6.967609
528.6248, 6.987198
529.1069, 7.603472
529.5891, 8.506876
530.0712, 9.440450
530.5533, 10.38317
531.0354, 10.88715
531.5175, 10.64095
531.9996, 10.20610
532.4818, 10.41265
532.9639, 11.19420
533.4460, 11.52479
533.9281, 10.30400
534.4102, 9.315236
534.8923, 10.43874
535.3745, 13.05650
535.8566, 14.96837
536.3387, 15.08603
536.8208, 14.30570
537.3029, 14.47714
537.7850, 16.31868
538.2672, 17.64115
538.7493, 18.02364
539.2314, 18.29814
539.7135, 19.00592
540.1956, 20.01076
540.6777, 20.81040
541.1599, 21.09405
541.6420, 21.11151
542.1241, 21.56213
542.6062, 22.60122
543.0883, 23.37939
543.5704, 23.45812
544.0526, 23.51058
544.5347, 24.09774
545.0168, 25.09322
545.4989, 25.87462
545.9810, 26.02477
546.4631, 25.79428
546.9453, 25.50897
547.4274, 25.25609
547.9095, 25.05557
548.3916, 24.90734
548.8737, 24.77631
549.3558, 24.71052
549.8380, 24.71966
550.3201, 24.58948
550.8022, 24.55746
551.2843, 24.26850
551.7664, 23.10292
552.2485, 21.26638
552.7307, 19.53741
553.2128, 18.34024
553.6949, 17.58600
554.1770, 17.01691
554.6591, 16.86601
555.1412, 16.48231
555.6234, 15.70850
556.1055, 14.79355
556.5876, 13.83768
557.0697, 12.91791
557.5518, 12.13979
558.0339, 11.53188
558.5161, 11.09277
558.9982, 11.01000
559.4803, 11.32349
559.9624, 11.63058
560.4445, 11.91800
560.9266, 12.09354
561.4088, 12.01867
561.8909, 11.73899
562.3730, 11.57731
562.8551, 11.79867
563.3372, 12.02553
563.8193, 11.77687
564.3015, 11.17007
564.7836, 10.78892
565.2657, 10.91733
565.7478, 11.25828
566.2299, 11.27886
566.7120, 10.73921
567.1942, 10.41704
567.6763, 10.36296
568.1584, 10.43598
568.6405, 10.68191
569.1226, 10.97519
569.6047, 11.08992
570.0869, 10.90763
570.5690, 10.65582
571.0511, 10.66714
571.5332, 10.93995
572.0153, 11.24865
572.4974, 11.74129
572.9796, 12.13893
573.4617, 12.23150
573.9438, 12.13554
574.4259, 12.12378
574.9080, 12.30937
575.3901, 12.59860
575.8723, 13.01519
576.3544, 13.50046
576.8365, 13.68930
577.3186, 13.39084
577.8007, 12.90566
578.2828, 12.52471
578.7650, 12.17616
579.2471, 11.89109
579.7292, 11.76001
580.2113, 11.75858
580.6934, 11.90032
581.1755, 12.10547
581.6577, 12.34773
582.1398, 12.56702
582.6219, 12.47139
583.1040, 11.62358
583.5861, 9.919084
584.0682, 8.726972
584.5504, 8.561356
585.0325, 8.319571
585.5146, 7.336730
585.9967, 6.243515
586.4788, 5.820859
586.9609, 6.338775
587.4431, 7.122544
587.9252, 7.662085
588.4073, 7.939083
588.8894, 7.581188
589.3715, 6.359825
589.8536, 5.387500
590.3358, 5.777425
590.8179, 6.932673
591.3000, 6.830608
591.7821, 4.529878
592.2642, 2.739842
592.7463, 2.785168
593.2285, 3.598936
593.7106, 4.011425
594.1927, 3.873048
594.6748, 3.541641
595.1569, 3.268204
595.6390, 3.097360
596.1212, 3.253084
596.6033, 4.109007
597.0854, 4.652439
597.5675, 4.549083
598.0496, 4.346464
598.5317, 4.399884
599.0139, 4.720319
599.4960, 5.000873
599.9781, 5.105638
600.4602, 5.023151
600.9423, 4.856510
601.4244, 4.610935
601.9066, 4.267070
602.3887, 3.758560
602.8708, 3.263595
603.3529, 2.982859
603.8350, 2.907386
604.3171, 3.360388
604.7993, 5.021827
605.2814, 6.626039
605.7635, 7.266427
606.2456, 7.253591
606.7277, 7.355271
607.2098, 7.862766
607.6920, 8.419367
608.1741, 8.375795
608.6562, 7.489150
609.1383, 7.106725
609.6204, 7.705050
610.1025, 8.305370
610.5847, 8.764989
611.0668, 9.002687
611.5489, 8.842877
612.0310, 8.239744
612.5131, 7.620849
612.9952, 7.402044
613.4774, 7.476540
613.9595, 7.506820
614.4416, 7.412802
614.9237, 7.354702
615.4058, 7.559412
615.8879, 7.806696
616.3701, 7.341757
616.8522, 5.673327
617.3343, 4.398152
617.8164, 3.927868
618.2985, 3.899236
618.7806, 4.205462
619.2628, 4.672883
619.7449, 4.896675
620.2270, 4.607717
620.7091, 3.956067
621.1912, 3.314385
621.6733, 2.608393
622.1555, 2.122747
622.6376, 2.050590
623.1197, 2.073504
623.6018, 2.019178
624.0839, 1.916466
624.5660, 1.881554
625.0482, 2.033867
625.5303, 2.156285
626.0124, 1.916240
626.4945, 1.451657
626.9766, 1.286283
627.4587, 1.568786
627.9409, 1.908668
628.4230, 1.908780
628.9051, 1.579036
629.3872, 1.462855
629.8693, 1.797801
630.3514, 2.010611
630.8336, 1.867356
631.3157, 1.612992
631.7978, 1.446942
632.2799, 1.428745
632.7620, 1.609623
633.2441, 2.137496
633.7263, 2.837114
634.2084, 2.961225
634.6905, 2.389034
635.1726, 1.679934
635.6547, 0.5954070
636.1368, 0.1737670
636.6190, 0.3442290
637.1011, 2.026055
637.5832, 3.126446
638.0653, 2.570444
638.5474, 1.690976
639.0295, 1.724744
639.5117, 2.313490
639.9938, 2.393852
640.4759, 1.603332
640.9580, 0.6269910
641.4401, 0.4227140
641.9222, 1.139087
642.4044, 1.231501
642.8865, 2.3124000E-02
643.3686, 1.069221
643.8507, 0.6243350
644.3328, 0.4000710
644.8149, 0.8484630
645.2971, 0.3425080
645.7792, 0.6259160
646.2613, 0.7750740
646.7434, 0.3477200
647.2255, 0.2483110
647.7076, 1.032149
648.1898, 0.9481770
648.6719, 0.1275780
649.1540, 1.400164
649.6361, 2.057394
650.1182, 1.689118
650.6003, 1.302691
651.0825, 0.9646050
651.5646, 0.6453040
652.0467, 0.2551560
652.5288, 0.1129310
653.0109, 0.2301810
653.4930, 3.0483000E-02
653.9752, 0.2032590
654.4573, 6.6918001E-02
654.9394, 0.4536210
655.4215, 0.8704110
655.9036, 0.2274020
656.3857, 0.1115370
656.8679, 0.2795360
657.3500, 0.7631860
657.8321, 0.1221250
658.3142, 0.4323250
658.7963, 0.6695910
659.2784, 0.1101940
659.7606, 0.5675990
660.2427, 0.4648240
660.7248, 0.2674190
661.2069, 0.8034310
661.6890, 0.7448570
662.1711, 0.3795260
662.6533, 0.2307330
663.1354, 0.3895070
663.6175, 0.4087710
664.0996, 0.1484510
664.5817, 0.1002560
665.0638, 0.4056960
665.5460, 0.5792240
666.0281, 0.1949850
666.5102, 0.8720650
666.9923, 1.679792
667.4744, 1.027970
667.9565, 0.4013400
668.4387, 0.4425930
668.9208, 0.1424330
669.4029, 0.5248030
669.8850, 0.5834030
670.3671, 0.2824230
670.8492, 6.9950998E-02
671.3314, 0.2554550
671.8135, 0.1013460
672.2956, 2.386794
672.7777, 4.119829
673.2598, 3.409871
673.7419, 1.398892
674.2241, 1.3246000E-02
674.7062, 1.8959001E-02
675.1883, 0.7432000
675.6704, 1.916528
676.1525, 3.413574
676.6346, 4.240025
677.1168, 4.185905
677.5989, 3.954801
678.0810, 3.745472
678.5631, 3.661119
679.0452, 3.967096
679.5273, 4.847939
680.0095, 5.257300
680.4916, 4.378260
680.9737, 3.443484
681.4558, 3.434506
681.9379, 4.104439
682.4200, 4.815092
682.9022, 5.296029
683.3843, 5.544332
683.8664, 5.462417
684.3485, 5.002438
684.8306, 4.943594
685.3127, 5.548570
685.7949, 6.093699
686.2770, 6.314352
686.7591, 6.298449
687.2412, 6.105205
687.7233, 5.736811
688.2054, 5.308372
688.6876, 4.627012
689.1697, 4.086168
689.6518, 4.302008
690.1339, 5.046589
690.6160, 5.544302
691.0981, 5.485280
691.5803, 5.096927
692.0624, 4.658048
692.5445, 4.138171
693.0266, 3.841421
693.5087, 3.722830
693.9908, 3.899579
694.4730, 4.890402
694.9551, 5.895404
695.4372, 5.985107
695.9193, 5.079262
696.4014, 4.087038
696.8835, 3.346704
697.3657, 2.936895
697.8478, 3.210924
698.3299, 3.982162
698.8120, 4.283740
699.2941, 3.746538
699.7762, 2.972352
700.2584, 2.661829
700.7405, 2.841931
701.2226, 3.115376
701.7047, 3.784913
702.1868, 4.314330
702.6689, 4.618354
703.1511, 4.800131
703.6332, 4.796877
704.1153, 4.643665
704.5974, 4.593742
705.0795, 5.002499
705.5616, 5.393366
706.0438, 4.896180
706.5259, 3.756725
707.0080, 3.298010
707.4901, 3.976013
707.9722, 4.934453
708.4543, 5.239098
708.9365, 4.909463
709.4186, 4.988909
709.9007, 6.013327
710.3828, 6.724282
710.8649, 6.703014
711.3470, 6.464067
711.8292, 6.367792
712.3113, 6.496273
712.7934, 6.773309
713.2755, 7.263139
713.7576, 7.769270
714.2397, 7.830048
714.7219, 7.541028
715.2040, 7.489518
715.6861, 7.919768
716.1682, 8.177916
716.6503, 7.572628
717.1324, 6.382350
717.6146, 6.091754
718.0967, 7.849391
718.5788, 8.886575
719.0609, 8.520568
719.5430, 7.736248
720.0251, 7.094165
720.5073, 6.639210
720.9894, 6.285025
721.4715, 6.022313
721.9536, 5.721471
722.4357, 5.186002
722.9178, 4.431302
723.4000, 3.620232
723.8821, 2.772477
724.3642, 2.106229
724.8463, 1.805485
725.3284, 1.719423
725.8105, 1.399408
726.2927, 0.5513290
726.7748, 0.3176030
727.2569, 1.361748
727.7390, 2.419488
728.2211, 2.909821
728.7032, 2.879262
729.1854, 2.340316
729.6675, 1.411970
730.1496, 0.6563120
730.6317, 0.9129220
731.1138, 1.845619
731.5959, 2.182734
732.0781, 1.871362
732.5602, 1.333719
733.0423, 0.6268240
733.5244, 2.6774000E-02
734.0065, 0.2564290
734.4886, 3.3906002E-02
734.9708, 0.1789710
735.4529, 0.1001870
735.9350, 0.1915860
736.4171, 0.4333880
736.8992, 1.169760
737.3813, 1.218085
737.8635, 0.5572050
738.3456, 4.4211999E-02
738.8277, 4.8285998E-02
739.3098, 0.4996960
739.7919, 0.6102680
740.2740, 0.4051160
740.7562, 0.2916720
741.2383, 0.3729990
741.7204, 0.4441010
742.2025, 0.3856490
742.6846, 0.2150060
743.1667, 0.1228430
743.6489, 4.1400000E-02
744.1310, 9.7121000E-02
744.6131, 0.5166010
745.0952, 0.8979210
745.5773, 0.6812320
746.0594, 0.1776580
746.5416, 0.3672440
747.0237, 1.853150
747.5058, 3.446691
747.9879, 3.496848
748.4700, 2.419663
748.9521, 1.793293
749.4343, 1.800347
749.9164, 1.798324
750.3985, 1.393196
750.8806, 0.7772620
751.3627, 0.3787000
751.8448, 0.2515770
752.3270, 0.2167040
752.8091, 0.1423110
753.2912, 0.2977750
753.7733, 1.077061
754.2554, 2.014459
754.7375, 2.523282
755.2197, 2.470408
755.7018, 2.086067
756.1839, 1.343542
756.6660, 0.4794630
757.1481, 0.1576200
757.6302, 8.4530003E-02
758.1124, 0.2064870
758.5945, 1.0963000E-02
759.0766, 0.1957630
759.5587, 2.6877999E-02
760.0408, 1.6044000E-02
760.5229, 4.6374999E-02
761.0051, 5.5160001E-03
761.4872, 3.8415000E-02
761.9693, 0.4457330
762.4514, 0.7441450
762.9335, 0.3897300
763.4156, 0.1113310
763.8978, 0.2681320
764.3799, 0.1887360
764.8620, 0.3745580
765.3441, 0.9922880
765.8262, 1.435346
766.3083, 1.470677
766.7905, 1.099149
767.2726, 0.4655680
767.7547, 0.1131870
768.2368, 0.6797570
768.7189, 0.5178920
769.2010, 0.5766470
769.6832, 1.230318
770.1653, 0.1537990
770.6474, 0.2934900
771.1295, 0.3201830
771.6116, 0.1519020
772.0938, 0.1432720
772.5759, 0.6805330
773.0580, 0.9545610
773.5401, 0.7327210
774.0222, 0.3430300
774.5043, 0.1929360
774.9865, 0.1996720
775.4686, 0.1274680
775.9507, 7.8061000E-02
776.4328, 0.7068720
776.9149, 0.6003130
777.3970, 2.1726999E-02
777.8792, 8.2755998E-02
778.3613, 0.5611920
778.8434, 0.9542230
779.3255, 0.7279110
779.8076, 0.4598650
780.2897, 0.7421620
780.7719, 1.404752
781.2540, 1.674209
781.7361, 1.280038
782.2182, 0.8763960
782.7003, 0.6066650
783.1824, 0.3992820
783.6646, 0.2625250
784.1467, 0.1312180
784.6288, 0.1952850
785.1109, 0.3255340
785.5930, 0.8476670
786.0751, 0.7381410
786.5573, 0.1310920
787.0394, 3.1847000E-02
787.5215, 0.5272740
788.0036, 1.061320
788.4857, 1.560070
788.9678, 1.892997
789.4500, 1.776700
789.9321, 1.118446
790.4142, 0.7529610
790.8963, 0.7664960
791.3784, 0.9407610
791.8605, 1.514041
792.3427, 2.038866
792.8248, 1.967384
793.3069, 1.382341
793.7890, 0.9181570
794.2711, 0.9947310
794.7532, 1.132886
795.2354, 0.7200230
795.7175, 7.9406999E-02
796.1996, 6.4929999E-02
796.6817, 0.7100720
797.1638, 1.047447
797.6459, 0.4315910
798.1281, 9.5020002E-03
798.6102, 0.2226460
799.0923, 1.4225000E-02
799.5744, 0.4556740
800.0565, 2.8576000E-02
800.5386, 0.1213680
801.0208, 1.039422
801.5029, 2.445414
801.9850, 2.787392
802.4671, 1.960012
802.9492, 1.130767
803.4313, 0.3812290
803.9135, 1.3247000E-02
804.3956, 0.2512740
804.8777, 0.9158360
805.3598, 1.835037
805.8419, 2.825607
806.3240, 3.284527
806.8062, 2.598327
807.2883, 1.439368
807.7704, 1.446555
808.2525, 2.546320
808.7346, 3.060394
809.2167, 2.642745
809.6989, 2.080978
810.1810, 1.917419
810.6631, 1.957978
811.1452, 1.620933
811.6273, 0.3886200
812.1094, 5.8720000E-03
812.5916, 1.334660
813.0737, 2.484480
813.5558, 2.450398
814.0379, 1.878516
814.5200, 1.596916
815.0021, 1.749523
815.4843, 1.965259
815.9664, 2.143857
816.4485, 2.149783
816.9306, 1.583998
817.4127, 0.7567420
817.8948, 0.4647760
818.3770, 0.7931240
818.8591, 1.195052
819.3412, 1.408185
819.8233, 1.470863
820.3054, 1.483080
820.7875, 1.408289
821.2697, 1.443474
821.7518, 1.678438
822.2339, 1.934512
822.7160, 2.150604
823.1981, 2.306449
823.6802, 2.406733
824.1624, 2.468688
824.6445, 2.391645
825.1266, 1.952139
825.6087, 1.573815
826.0908, 1.571028
826.5729, 1.760970
827.0551, 1.914034
827.5372, 1.907531
828.0193, 1.656337
828.5014, 0.9401290
828.9835, 0.1244620
829.4656, 0.1235210
829.9478, 8.1428997E-02
830.4299, 9.2350997E-02
830.9120, 0.2103410
831.3941, 0.3749580
831.8762, 7.1245998E-02
832.3583, 0.5363060
832.8404, 1.084837
833.3225, 1.559112
833.8046, 1.970122
834.2867, 2.311321
834.7689, 2.557115
835.2510, 2.898649
835.7331, 3.024199
836.2152, 2.316969
836.6973, 0.7532380
837.1794, 0.1585140
837.6616, 0.3734370
838.1437, 1.363042
838.6258, 2.681315
839.1079, 3.835983
839.5900, 4.040054
840.0721, 3.356252
840.5543, 2.546241
841.0364, 1.952507
841.5185, 1.629815
842.0006, 1.977893
842.4827, 2.833135
842.9648, 3.239525
843.4470, 3.089220
843.9291, 2.474600
844.4112, 1.322739
844.8933, 5.8743000E-02
845.3754, 0.3818030
845.8575, 0.1269680
846.3397, 0.6535710
846.8218, 1.498970
847.3039, 1.943710
847.7860, 1.473558
848.2681, 0.8540990
848.7502, 0.7471550
849.2324, 1.082717
849.7145, 1.368060
850.1966, 1.332003
850.6787, 1.434723
851.1608, 2.278852
851.6429, 3.161549
852.1251, 3.134823
852.6072, 2.413636
853.0893, 1.854644
853.5714, 1.826327
854.0535, 2.012021
854.5356, 1.899050
855.0178, 1.578575
855.4999, 1.178226
855.9820, 0.6658460
856.4641, 0.5786020
856.9462, 1.207053
857.4283, 2.003449
857.9105, 2.525807
858.3926, 2.752908
858.8747, 2.570635
859.3568, 1.398194
859.8389, 0.8178760
860.3210, 1.494004
860.8032, 2.205833
861.2853, 2.280049
861.7674, 1.988585
862.2495, 1.791154
862.7316, 1.805807
863.2137, 1.947791
863.6959, 2.482867
864.1780, 2.845257
864.6601, 2.343643
865.1422, 1.461498
865.6243, 1.037795
866.1064, 1.226689
866.5886, 1.544702
867.0707, 1.629588
867.5528, 1.576895
868.0349, 1.339146
868.5170, 1.034583
868.9991, 1.407424
869.4813, 2.556129
869.9634, 3.010776
870.4455, 1.762164
870.9276, 1.5188000E-02
871.4097, 7.7483997E-02
871.8918, 1.982275
872.3740, 2.875042
872.8561, 1.814718
873.3382, 0.8451790
873.8203, 0.6834970
874.3024, 0.6646470
874.7845, 1.3958000E-02
875.2667, 0.7577960
875.7488, 0.8917290
876.2309, 0.5890320
876.7130, 2.131503
877.1951, 2.685516
877.6772, 2.601038
878.1594, 1.651918
878.6415, 0.4524450
879.1236, 0.3539620
879.6057, 1.704108
880.0878, 3.068060
880.5699, 2.813372
881.0521, 3.634250
881.5342, 3.940530
882.0163, 3.574744
882.4984, 4.060532
882.9805, 3.347388
883.4626, 2.535155
883.9448, 2.517645
884.4269, 2.964887
884.9090, 2.857273
885.3911, 2.051379
885.8732, 1.501687
886.3553, 1.258376
886.8375, 1.276778
887.3196, 1.670650
887.8017, 2.208551
888.2838, 2.622370
888.7659, 2.932457
889.2480, 2.689717
889.7302, 1.093790
890.2123, 5.6958001E-02
890.6944, 0.4337730
891.1765, 1.222248
891.6586, 1.694596
892.1407, 1.867254
892.6229, 2.021254
893.1050, 2.272378
893.5871, 2.414213
894.0692, 2.155439
894.5513, 1.831485
895.0334, 1.945129
895.5156, 2.305550
895.9977, 2.383473
896.4798, 2.031329
896.9619, 1.367274
897.4440, 0.3139320
897.9261, 0.2092960
898.4083, 0.1736830
898.8904, 1.297682
899.3725, 2.493701
899.8546, 3.056566
900.3367, 2.878982
900.8188, 1.711305
901.3010, 0.2043610
901.7831, 0.1861660
902.2652, 0.2681020
902.7473, 0.6685210
903.2294, 0.8175020
903.7115, 0.8192130
904.1937, 0.4754120
904.6758, 0.1310990
905.1579, 0.1433430
905.6400, 0.4158440
906.1221, 0.5252340
906.6042, 0.2146420
907.0864, 0.1235440
907.5685, 0.6417990
908.0506, 1.200187
908.5327, 1.433361
909.0148, 1.430739
909.4969, 1.403814
909.9791, 1.389339
910.4612, 1.200669
910.9433, 0.3364890
911.4254, 0.2899110
911.9075, 0.2451680
912.3896, 1.535173
912.8718, 2.027300
913.3539, 1.613956
913.8360, 1.017087
914.3181, 0.6298770
914.8002, 0.4509150
915.2823, 0.6118930
915.7645, 1.028585
916.2466, 1.033303
916.7287, 0.6021160
917.2108, 3.5208002E-02
917.6929, 0.1171070
918.1750, 0.3374170
918.6572, 0.1770950
919.1393, 0.3162940
919.6214, 2.6094001E-02
920.1035, 0.1267750
920.5856, 7.8685001E-02
921.0677, 0.3673780
921.5499, 0.8033190
922.0320, 1.215017
922.5141, 1.409929
922.9962, 0.9056520
923.4783, 0.3828720
923.9604, 0.1009720
924.4426, 0.2019440
924.9247, 1.037424
925.4068, 0.4837780
925.8889, 0.3665140
926.3710, 0.3957370
926.8531, 0.1093750
927.3353, 9.5881999E-02
927.8174, 0.1488540
928.2995, 0.4358650
928.7816, 0.4458350
929.2637, 0.4049700
929.7458, 0.3796160
930.2280, 7.3425002E-02
930.7101, 4.6264000E-02
931.1922, 7.5268999E-02
931.6743, 0.2734830
932.1564, 0.3981820
932.6385, 0.4323640
933.1207, 0.4138590
933.6028, 1.655362
934.0849, 1.995639
934.5670, 1.269043
935.0491, 0.2572560
935.5313, 0.3766510
936.0134, 0.3917130
936.4955, 0.6426010
936.9776, 0.4189120
937.4597, 0.1400170
937.9418, 0.1724740
938.4240, 0.5283510
938.9061, 0.2780250
939.3882, 0.9705700
939.8703, 1.234061
940.3524, 1.219052
940.8345, 1.243842
941.3167, 1.309156
941.7988, 1.411643
942.2809, 1.428004
942.7630, 1.640745
943.2451, 2.500926
943.7272, 3.260642
944.2094, 3.163369
944.6915, 2.427935
945.1736, 1.856143
945.6557, 1.586346
946.1378, 1.568073
946.6199, 1.928396
947.1021, 2.388207
947.5842, 2.719424
948.0663, 3.018821
948.5484, 3.484740
949.0305, 4.135813
949.5126, 4.921002
949.9948, 5.884367
950.4769, 6.837473
950.9590, 7.705426
951.4411, 8.394159
951.9232, 8.536505
952.4053, 8.345544
952.8875, 8.680340
953.3696, 9.835053
953.8517, 11.05141
954.3338, 11.39003
954.8159, 11.29915
955.2980, 12.04085
955.7802, 13.45216
956.2623, 14.82945
956.7444, 16.07726
957.2265, 17.10591
957.7086, 17.83594
958.1907, 18.60071
958.6729, 20.08080
959.1550, 22.30064
959.6371, 24.16684
960.1192, 25.79173
960.6013, 26.89087
961.0834, 27.06396
961.5656, 27.45286
962.0477, 29.11959
962.5298, 31.68182
963.0119, 33.84113
963.4940, 35.56768
963.9761, 36.98380
964.4583, 37.68477
964.9404, 38.61116
965.4225, 40.25826
965.9046, 42.09302
966.3867, 43.92216
966.8688, 45.57718
967.3510, 46.10014
967.8331, 44.04969
968.3152, 43.15389
968.7973, 45.42039
969.2794, 47.76620
969.7615, 48.26312
970.2437, 47.80788
970.7258, 47.70926
971.2079, 48.21256
971.6900, 49.15460
972.1721, 50.97127
972.6542, 52.50096
973.1364, 52.48769
973.6185, 52.20275
974.1006, 53.00975
974.5827, 54.78500
975.0648, 56.94897
975.5469, 59.25664
976.0291, 61.61479
976.5112, 63.91603
976.9933, 66.28654
977.4754, 69.05500
977.9575, 71.95440
978.4396, 74.35493
978.9218, 76.35129
979.4039, 78.79805
979.8860, 82.13988
980.3681, 85.94412
980.8502, 89.68581
981.3323, 93.36644
981.8145, 97.03494
982.2966, 100.7588
982.7787, 104.7780
983.2608, 109.1367
983.7429, 113.5799
984.2250, 117.9815
984.7072, 122.3642
985.1893, 126.9346
985.6714, 131.7125
986.1535, 134.7118
986.6356, 135.6908
987.1177, 136.5823
987.5999, 137.8070
988.0820, 139.2628
988.5641, 141.1032
989.0462, 142.8192
989.5283, 142.5605
990.0104, 139.7238
990.4926, 136.8400
990.9747, 134.1635
991.4568, 130.9703
991.9389, 126.9483
992.4210, 122.4718
992.9031, 117.8467
993.3853, 113.0621
993.8674, 108.0601
994.3495, 102.3229
994.8316, 97.32339
995.3137, 94.00286
995.7958, 90.32140
996.2780, 84.84119
996.7601, 79.05771
997.2422, 74.62384
997.7243, 71.50675
998.2064, 68.40257
998.6885, 65.19199
999.1707, 61.77942
999.6528, 57.68186
1000.135, 53.83722
1000.617, 51.02613
1001.099, 48.76975
1001.581, 46.29950
1002.063, 43.54089
1002.545, 41.17535
1003.028, 39.66695
1003.510, 38.34717
1003.992, 36.81190
1004.474, 35.33444
1004.956, 34.48386
1005.438, 33.79806
1005.920, 32.18695
1006.402, 29.48604
1006.885, 26.87268
1007.367, 25.13634
1007.849, 23.77342
1008.331, 22.20588
1008.813, 20.79180
1009.295, 20.25659
1009.777, 20.33362
1010.259, 20.08375
1010.741, 19.19608
1011.224, 18.20870
1011.706, 17.70406
1012.188, 16.50121
1012.670, 16.04604
1013.152, 14.42467
1013.634, 13.15849
1014.116, 12.30404
1014.598, 11.56548
1015.081, 10.81910
1015.563, 10.25944
1016.045, 10.23798
1016.527, 10.45369
1017.009, 10.07488
1017.491, 9.237297
1017.973, 8.576235
1018.455, 8.177684
1018.937, 7.782908
1019.420, 7.246040
1019.902, 6.902206
1020.384, 7.432484
1020.866, 6.666347
1021.348, 7.947432
1021.830, 5.952974
1022.312, 4.706475
1022.794, 4.603436
1023.276, 4.632000
1023.759, 4.188097
1024.241, 3.743187
1024.723, 4.171495
1025.205, 5.364149
1025.687, 5.625026
1026.169, 4.817721
1026.651, 4.184061
1027.133, 3.921626
1027.616, 4.025667
1028.098, 4.646237
1028.580, 5.278207
1029.062, 4.902707
1029.544, 3.473125
1030.026, 2.750947
1030.508, 2.880125
1030.990, 3.245131
1031.473, 3.905300
1031.955, 4.385317
1032.437, 4.372510
1032.919, 4.005825
1033.401, 3.497895
1033.883, 2.810167
1034.365, 2.381476
1034.847, 2.218973
1035.329, 2.324814
1035.812, 2.971908
1036.294, 3.473961
1036.776, 3.372099
1037.258, 2.853622
1037.740, 2.190220
1038.222, 1.270172
1038.704, 0.9548670
1039.186, 1.979828
1039.668, 2.403435
1040.151, 1.452154
1040.633, 0.3493170
1041.115, 0.2211900
1041.597, 0.4066070
1042.079, 0.4549990
1042.561, 0.3497590
1043.043, 0.2232210
1043.525, 0.2147060
1044.008, 0.2567550
1044.490, 0.6522910
1044.972, 0.1023580
1045.454, 0.3663040
1045.936, 0.2108100
1046.418, 4.1640000E-03
1046.900, 0.2415790
1047.382, 0.4292250
1047.865, 0.4147770
1048.347, 0.5307580
1048.829, 0.1114300
1049.311, 0.3666050
1049.793, 0.2769160
1050.275, 8.0859996E-02
1050.757, 0.6630060
1051.239, 0.5344140
1051.721, 0.2080480
1052.203, 0.5068710
1052.686, 0.2588630
1053.168, 0.2755500
1053.650, 0.4799510
1054.132, 0.3731390
1054.614, 4.6117999E-02
1055.096, 0.1957510
1055.578, 0.3432470
1056.060, 0.1617690
1056.543, 0.1696570
1057.025, 0.1842560
1057.507, 0.4198020
1057.989, 0.6627640
1058.471, 0.7316920
1058.953, 0.7338610
1059.435, 0.7951550
1059.917, 0.9548590
1060.400, 1.173906
1060.882, 1.533485
1061.364, 1.821546
1061.846, 2.025089
1062.328, 2.073894
1062.810, 1.634348
1063.292, 1.143685
1063.774, 1.398471
1064.256, 2.389605
1064.739, 3.066415
1065.221, 2.689025
1065.703, 2.602206
1066.185, 3.745844
1066.667, 4.920118
1067.149, 5.111056
1067.631, 4.847552
1068.113, 4.955898
1068.595, 5.483932
1069.078, 5.907945
1069.560, 5.972145
1070.042, 6.071316
1070.524, 6.497119
1071.006, 6.910401
1071.488, 7.010420
1071.970, 6.990268
1072.452, 7.153799
1072.935, 7.482921
1073.417, 7.656935
1073.899, 7.398903
1074.381, 7.498130
1074.863, 8.762508
1075.345, 10.03365
1075.827, 10.64112
1076.309, 10.75639
1076.792, 10.16773
1077.274, 9.279742
1077.756, 9.401984
1078.238, 11.10172
1078.720, 12.84461
1079.202, 14.14380
1079.684, 15.07952
1080.166, 15.32645
1080.648, 15.49373
1081.130, 16.28364
1081.613, 17.58044
1082.095, 18.85914
1082.577, 19.95063
1083.059, 21.18635
1083.541, 22.58645
1084.023, 24.34771
1084.505, 27.02868
1084.987, 29.74602
1085.469, 31.93922
1085.952, 33.41391
1086.434, 34.22017
1086.916, 34.35019
1087.398, 33.38015
1087.880, 30.84029
1088.362, 27.58624
1088.844, 23.22848
1089.326, 19.06075
1089.809, 16.18728
1090.291, 14.33258
1090.773, 13.04385
1091.255, 12.18226
1091.737, 11.19583
1092.219, 9.673515
1092.701, 8.283131
1093.183, 7.276591
1093.666, 6.492985
1094.148, 5.821646
1094.630, 5.292749
1095.112, 5.009472
1095.594, 4.949819
1096.076, 4.910090
1096.558, 4.882847
1097.040, 4.770282
1097.522, 4.406511
1098.005, 4.103540
1098.487, 4.158138
1098.969, 4.268371
1099.451, 3.995200
1099.933, 3.460608
1100.415, 3.313387
1100.897, 3.953536
1101.379, 4.207207
1101.861, 3.301869
1102.344, 2.473416
1102.826, 2.485188
1103.308, 2.696007
1103.790, 2.598504
1104.272, 2.225270
1104.754, 1.703922
1105.236, 0.9733040
1105.718, 0.5222650
1106.201, 0.6742200
1106.683, 0.7593670
1107.165, 0.4028770
1107.647, 3.0015999E-02
1108.129, 0.1138470
1108.611, 3.9216999E-02
1109.093, 0.4321390
1109.575, 1.378185
1110.057, 1.752258
1110.540, 0.7327890
1111.022, 0.2480300
1111.504, 1.109457
1111.986, 1.953885
1112.468, 2.104835
1112.950, 1.862957
1113.432, 1.588069
1113.914, 1.315708
1114.396, 1.086169
1114.879, 0.9628830
1115.361, 0.7442140
1115.843, 2.2770001E-03
1116.325, 0.1961130
1116.807, 1.087634
1117.289, 2.498154
1117.771, 2.754573
1118.253, 2.105075
1118.736, 1.394276
1119.218, 0.4064420
1119.700, 1.7630000E-03
1120.182, 0.5139060
1120.664, 0.9023670
1121.146, 0.9193470
1121.628, 0.7264510
1122.110, 0.3732880
1122.593, 5.2696999E-02
1123.075, 0.3888290
1123.557, 0.2206610
1124.039, 0.2711060
1124.521, 0.1124280
1125.003, 0.2843250
1125.485, 0.5529080
1125.967, 0.5863540
1126.449, 0.2290020
1126.932, 3.2033999E-02
1127.414, 0.3533180
1127.896, 1.258558
1128.378, 1.876467
1128.860, 2.194099
1129.342, 2.433735
1129.824, 2.653330
1130.306, 2.419109
1130.788, 1.464819
1131.271, 0.6626620
1131.753, 0.9155090
1132.235, 1.671678
1132.717, 1.403281
1133.199, 0.1995960
1133.681, 9.3722999E-02
1134.163, 0.4393880
1134.645, 0.8146170
1135.128, 1.073048
1135.610, 0.8016260
1136.092, 0.3200810
1136.574, 0.7727370
1137.056, 0.7376680
1137.538, 1.555937
1138.020, 1.819666
1138.502, 1.732123
1138.984, 1.924797
1139.467, 0.9701310
1139.949, 0.3510230
1140.431, 0.6510940
1140.913, 1.009590
1141.395, 0.5092710
1141.877, 0.2115510
1142.359, 9.3373001E-02
1142.841, 0.3454650
1143.323, 0.6508130
1143.806, 0.1528020
1144.288, 0.1667760
1144.770, 0.7850260
1145.252, 1.561487
1145.734, 1.456447
1146.216, 1.093841
1146.698, 1.028981
1147.180, 1.079406
1147.663, 0.9454450
1148.145, 0.8275370
1148.627, 1.205351
1149.109, 1.919222
1149.591, 2.347144
1150.073, 2.275707
1150.555, 1.908412
1151.037, 1.006564
1151.520, 0.3109720
1152.002, 0.4259720
1152.484, 0.8466900
1152.966, 1.285260
1153.448, 1.603598
1153.930, 1.647613
1154.412, 1.452559
1154.894, 1.140351
1155.376, 0.4425390
1155.859, 0.2488700
1156.341, 1.357388
1156.823, 2.469745
1157.305, 2.909698
1157.787, 2.999598
1158.269, 3.023827
1158.751, 2.965441
1159.233, 2.706614
1159.715, 2.178769
1160.198, 1.831840
1160.680, 1.904116
1161.162, 1.858403
1161.644, 1.561221
1162.126, 1.168447
1162.608, 0.4997060
1163.090, 1.8045999E-02
1163.572, 0.6276320
1164.055, 2.233898
1164.537, 2.656038
1165.019, 1.349730
1165.501, 0.5851250
1165.983, 0.6392760
1166.465, 0.7571890
1166.947, 0.6122970
1167.429, 0.7028720
1167.911, 1.641033
1168.394, 2.853197
1168.876, 2.538249
1169.358, 3.109250
1169.840, 3.399854
1170.322, 2.676077
1170.804, 3.425327
1171.286, 2.332265
1171.768, 1.423908
1172.250, 1.778259
1172.733, 2.552605
1173.215, 2.776152
1173.697, 2.611840
1174.179, 2.516089
1174.661, 2.383090
1175.143, 1.465021
1175.625, 0.1137100
1176.107, 2.9537000E-02
1176.590, 1.512841
1177.072, 3.014766
1177.554, 3.559037
1178.036, 3.595457
1178.518, 3.375077
1179.000, 3.131764
1179.482, 3.267858
1179.964, 3.523027
1180.447, 3.487802
1180.929, 3.152047
1181.411, 2.726514
1181.893, 2.280374
1182.375, 1.893789
1182.857, 1.781439
1183.339, 1.468469
1183.821, 7.0804000E-02
1184.303, 0.5215010
1184.786, 0.1538170
1185.268, 1.446483
1185.750, 2.186723
1186.232, 1.998442
1186.714, 1.499818
1187.196, 0.4174730
1187.678, 0.1818630
1188.160, 2.092002
1188.642, 3.442298
1189.125, 2.773693
1189.607, 1.956133
1190.089, 2.539703
1190.571, 3.610176
1191.053, 3.512971
1191.535, 2.233188
1192.017, 1.399425
1192.499, 1.029744
1192.982, 1.185600
1193.464, 2.261097
1193.946, 2.667755
1194.428, 1.565217
1194.910, 0.4517950
1195.392, 0.7054350
1195.874, 1.820049
1196.356, 2.773982
1196.839, 3.535168
1197.321, 3.422826
1197.803, 2.509617
1198.285, 1.867539
1198.767, 1.654823
1199.249, 1.453082
1199.731, 1.060633
1200.213, 0.7857070
1200.695, 0.8965990
1201.177, 1.196221
1201.660, 1.205779
1202.142, 1.045617
1202.624, 0.9270220
1203.106, 0.8217040
1203.588, 0.6440270
1204.070, 0.4018030
1204.552, 0.2047990
1205.034, 0.1048720
1205.517, 2.3903999E-02
1205.999, 0.1011380
1206.481, 0.2132870
1206.963, 0.1948760
1207.445, 0.1662290
1207.927, 0.1332820
1208.409, 0.2448610
1208.891, 0.6270430
1209.374, 0.9356000
1209.856, 0.8641400
1210.338, 0.2341280
1210.820, 4.5300000E-03
1211.302, 1.351847
1211.784, 2.746457
1212.266, 2.754045
1212.748, 2.017647
1213.230, 0.4597180
1213.713, 0.7025640
1214.195, 0.8635030
1214.677, 1.2460001E-03
1215.159, 0.5014750
1215.641, 0.1565140
1216.123, 0.1940290
1216.605, 0.7445560
1217.087, 1.106757
1217.569, 0.2152570
1218.052, 0.1407700
1218.534, 0.1662570
1219.016, 0.8925620
1219.498, 1.310108
1219.980, 1.195078
1220.462, 0.9044390
1220.944, 0.5124290
1221.426, 0.3745880
1221.909, 0.5176390
1222.391, 0.8684080
1222.873, 1.343238
1223.355, 1.628180
1223.837, 1.450457
1224.319, 1.050418
1224.801, 0.4885350
1225.283, 5.9759999E-03
1225.766, 0.1646880
1226.248, 0.1757780
1226.730, 0.6917140
1227.212, 1.952314
1227.694, 2.259733
1228.176, 1.268399
1228.658, 0.5192850
1229.140, 0.6682160
1229.622, 0.9968510
1230.104, 1.727254
1230.587, 2.037721
1231.069, 0.9461660
1231.551, 8.8892996E-02
1232.033, 0.1193370
1232.515, 0.7408110
1232.997, 1.574870
1233.479, 2.309009
1233.961, 2.524664
1234.444, 2.101032
1234.926, 1.520729
1235.408, 1.043191
1235.890, 0.6535550
1236.372, 0.2242890
1236.854, 0.2324350
1237.336, 1.392025
1237.818, 1.241825
1238.301, 1.773091
1238.783, 2.279158
1239.265, 2.490071
1239.747, 3.541604
1240.229, 4.114988
1240.711, 4.036677
1241.193, 3.668216
1241.675, 3.144963
1242.157, 2.778223
1242.640, 2.912669
1243.122, 3.206885
1243.604, 3.488107
1244.086, 3.694196
1244.568, 3.786697
1245.050, 3.754873
1245.532, 3.502530
1246.014, 3.092642
1246.496, 2.931221
1246.979, 3.288794
1247.461, 3.528322
1247.943, 3.251054
1248.425, 3.113835
1248.907, 3.419189
1249.389, 3.704425
1249.871, 3.546861
1250.353, 3.589000
1250.836, 3.690059
1251.318, 3.909084
1251.800, 3.553869
1252.282, 2.683206
1252.764, 2.593513
1253.246, 3.222458
1253.728, 3.665717
1254.210, 3.804890
1254.693, 4.083774
1255.175, 4.666134
1255.657, 4.939377
1256.139, 4.406754
1256.621, 3.673429
1257.103, 3.389713
1257.585, 3.376792
1258.067, 3.471735
1258.549, 3.408670
1259.031, 2.884376
1259.514, 2.214313
1259.996, 2.120115
1260.478, 2.810891
1260.960, 3.271550
1261.442, 2.904555
1261.924, 2.622686
1262.406, 2.831223
1262.888, 3.071784
1263.371, 3.271284
1263.853, 3.144662
1264.335, 2.253779
1264.817, 0.9646490
1265.299, 7.3150001E-02
1265.781, 4.9552001E-02
1266.263, 0.1704650
1266.745, 0.5022720
1267.228, 1.948801
1267.710, 4.214241
1268.192, 5.375157
1268.674, 4.700107
1269.156, 3.680084
1269.638, 3.535586
1270.120, 3.763678
1270.602, 3.580991
1271.084, 3.202794
1271.567, 3.047051
1272.049, 3.093051
1272.531, 3.412373
1273.013, 3.848010
1273.495, 4.029617
1273.977, 3.877819
1274.459, 3.587788
1274.941, 3.138998
1275.423, 2.870848
1275.906, 3.024719
1276.388, 3.536957
1276.870, 4.288390
1277.352, 4.698470
1277.834, 4.294588
1278.316, 3.315020
1278.798, 1.794628
1279.280, 1.6780000E-03
1279.763, 7.3302999E-02
1280.245, 2.365380
1280.727, 3.116867
1281.209, 1.863077
1281.691, 0.7210660
1282.173, 8.0606997E-02
1282.655, 5.3860000E-03
1283.137, 1.027558
1283.620, 2.263264
1284.102, 1.961210
1284.584, 1.323981
1285.066, 0.0000000E+00
##END=



