##NAMES=Nevadaite
##RRUFFID=R060775
##IDEAL CHEMISTRY=(Cu^2+^,[box],Al,V^3+^)_6_[Al_8_(PO_4_)_8_F_8_](OH)_2_&#183;22H_2_O
##LOCALITY=Gold Quarry mine, Eueka County, Nevada, USA
##OWNER=RRUFF
##SOURCE=Michael Scott
##DESCRIPTION=Spherical aggregates of blue tabular crystals
##STATUS=The identification of this mineral is not yet confirmed.
##URL=rruff.info/R060775
126.344, 0.000
126.826, 64.190
127.308, 117.970
127.790, 158.777
128.272, 179.516
128.755, 190.316
129.237, 211.625
129.719, 244.054
130.201, 274.787
130.683, 290.789
131.165, 292.977
131.647, 288.946
132.129, 277.373
132.611, 260.452
133.094, 249.981
133.576, 246.196
134.058, 248.043
134.540, 255.330
135.022, 268.473
135.504, 282.232
135.986, 288.812
136.468, 287.316
136.951, 306.608
137.433, 357.361
137.915, 426.528
138.397, 473.756
138.879, 497.686
139.361, 503.614
139.843, 490.853
140.325, 452.348
140.807, 422.991
141.290, 410.888
141.772, 415.846
142.254, 419.585
142.736, 425.690
143.218, 426.660
143.700, 411.666
144.182, 368.435
144.664, 330.331
145.146, 305.098
145.629, 293.828
146.111, 292.453
146.593, 311.611
147.075, 337.537
147.557, 341.796
148.039, 307.476
148.521, 268.623
149.003, 237.444
149.486, 216.085
149.968, 199.098
150.450, 186.097
150.932, 177.501
151.414, 174.677
151.896, 177.642
152.378, 186.810
152.860, 202.440
153.342, 233.094
153.825, 262.110
154.307, 286.924
154.789, 307.645
155.271, 329.244
155.753, 354.345
156.235, 379.727
156.717, 402.363
157.199, 410.562
157.682, 425.629
158.164, 456.362
158.646, 506.098
159.128, 555.780
159.610, 599.130
160.092, 638.339
160.574, 677.009
161.056, 716.261
161.538, 754.172
162.020, 789.564
162.503, 821.777
162.985, 851.775
163.467, 882.583
163.949, 911.605
164.431, 933.044
164.913, 936.291
165.395, 935.093
165.878, 940.260
166.360, 956.073
166.842, 977.342
167.324, 1006.121
167.806, 1040.330
168.288, 1068.551
168.770, 1075.541
169.252, 1075.602
169.734, 1085.444
170.217, 1125.577
170.699, 1168.451
171.181, 1188.410
171.663, 1185.308
172.145, 1181.472
172.627, 1185.871
173.109, 1201.333
173.591, 1233.026
174.073, 1294.839
174.556, 1369.375
175.038, 1437.306
175.520, 1498.502
176.002, 1551.146
176.484, 1586.405
176.966, 1610.286
177.448, 1639.866
177.930, 1681.019
178.413, 1734.465
178.895, 1807.397
179.377, 1908.931
179.859, 2010.524
180.341, 2073.074
180.823, 2101.780
181.305, 2131.495
181.787, 2190.625
182.269, 2268.577
182.751, 2339.490
183.234, 2396.862
183.716, 2445.616
184.198, 2492.559
184.680, 2538.181
185.162, 2579.573
185.644, 2621.464
186.126, 2659.487
186.609, 2673.392
187.091, 2642.021
187.573, 2588.642
188.055, 2582.908
188.537, 2628.817
189.019, 2684.405
189.501, 2703.668
189.983, 2689.805
190.465, 2675.693
190.947, 2675.052
191.430, 2684.307
191.912, 2684.650
192.394, 2675.070
192.876, 2660.812
193.358, 2649.380
193.840, 2640.906
194.322, 2630.220
194.804, 2619.178
195.287, 2607.050
195.769, 2574.009
196.251, 2513.627
196.733, 2444.093
197.215, 2398.530
197.697, 2379.210
198.179, 2365.527
198.661, 2348.267
199.143, 2327.550
199.626, 2305.074
200.108, 2282.864
200.590, 2257.318
201.072, 2218.592
201.554, 2165.579
202.036, 2103.370
202.518, 2033.128
203.000, 1953.696
203.482, 1873.767
203.965, 1793.758
204.447, 1713.370
204.929, 1632.737
205.411, 1549.559
205.893, 1470.540
206.375, 1400.936
206.857, 1341.398
207.339, 1288.652
207.822, 1245.175
208.304, 1209.007
208.786, 1163.080
209.268, 1102.576
209.750, 1041.523
210.232, 996.456
210.714, 973.235
211.196, 945.085
211.678, 904.332
212.161, 850.879
212.643, 803.868
213.125, 764.573
213.607, 730.317
214.089, 700.134
214.571, 678.085
215.053, 648.120
215.536, 599.052
216.018, 525.156
216.500, 482.533
216.982, 483.055
217.464, 503.696
217.946, 510.280
218.428, 496.351
218.910, 481.848
219.392, 474.171
219.874, 476.224
220.357, 472.131
220.839, 458.314
221.321, 441.011
221.803, 432.866
222.285, 438.897
222.767, 445.457
223.249, 446.733
223.731, 439.809
224.214, 435.802
224.696, 432.515
225.178, 433.041
225.660, 445.782
226.142, 474.926
226.624, 509.447
227.106, 545.535
227.588, 589.140
228.070, 619.788
228.553, 628.921
229.035, 625.027
229.517, 639.324
229.999, 680.811
230.481, 728.085
230.963, 769.572
231.445, 803.385
231.927, 836.377
232.410, 870.235
232.892, 903.892
233.374, 931.078
233.856, 947.637
234.338, 963.059
234.820, 983.490
235.302, 1010.386
235.784, 1039.678
236.266, 1072.878
236.749, 1109.109
237.231, 1139.775
237.713, 1161.636
238.195, 1181.808
238.677, 1205.302
239.159, 1232.500
239.641, 1262.538
240.123, 1295.686
240.605, 1332.321
241.088, 1369.891
241.570, 1410.155
242.052, 1449.804
242.534, 1486.512
243.016, 1521.846
243.498, 1550.562
243.980, 1568.437
244.462, 1575.066
244.945, 1591.728
245.427, 1626.615
245.909, 1662.617
246.391, 1683.709
246.873, 1688.312
247.355, 1679.459
247.837, 1650.502
248.319, 1599.423
248.801, 1572.515
249.284, 1582.563
249.766, 1604.725
250.248, 1614.065
250.730, 1610.676
251.212, 1594.586
251.694, 1562.177
252.176, 1511.325
252.658, 1472.186
253.141, 1452.708
253.623, 1438.081
254.105, 1408.839
254.587, 1355.191
255.069, 1307.160
255.551, 1273.006
256.033, 1254.455
256.515, 1236.394
256.997, 1214.771
257.480, 1197.223
257.962, 1194.631
258.444, 1214.423
258.926, 1232.928
259.408, 1244.466
259.890, 1248.951
260.372, 1243.169
260.854, 1218.023
261.336, 1191.067
261.819, 1188.178
262.301, 1218.247
262.783, 1250.873
263.265, 1277.177
263.747, 1296.903
264.229, 1313.719
264.711, 1329.665
265.194, 1340.667
265.676, 1337.256
266.158, 1311.535
266.640, 1294.069
267.122, 1298.108
267.604, 1327.285
268.086, 1350.042
268.568, 1364.803
269.050, 1375.401
269.533, 1389.011
270.015, 1409.256
270.497, 1421.430
270.979, 1418.142
271.461, 1397.523
271.943, 1380.991
272.425, 1370.172
272.907, 1361.431
273.389, 1346.549
273.872, 1322.696
274.354, 1305.805
274.836, 1303.750
275.318, 1317.459
275.800, 1329.856
276.282, 1340.550
276.764, 1350.319
277.246, 1362.494
277.728, 1378.636
278.211, 1387.002
278.693, 1378.604
279.175, 1353.148
279.657, 1336.299
280.139, 1327.707
280.621, 1328.173
281.103, 1341.558
281.585, 1368.643
282.068, 1397.459
282.550, 1421.993
283.032, 1442.718
283.514, 1468.451
283.996, 1499.526
284.478, 1534.945
284.960, 1575.078
285.442, 1620.251
285.924, 1663.702
286.407, 1700.206
286.889, 1731.546
287.371, 1771.103
287.853, 1820.037
288.335, 1873.445
288.817, 1924.351
289.299, 1973.429
289.781, 2024.634
290.263, 2081.466
290.746, 2142.599
291.228, 2205.171
291.710, 2270.619
292.192, 2330.686
292.674, 2365.896
293.156, 2381.408
293.638, 2408.325
294.121, 2472.066
294.603, 2556.604
295.085, 2621.325
295.567, 2665.450
296.049, 2695.443
296.531, 2712.012
297.013, 2719.122
297.495, 2731.432
297.977, 2764.704
298.460, 2805.566
298.942, 2825.083
299.424, 2821.669
299.906, 2813.466
300.388, 2820.100
300.870, 2836.070
301.352, 2846.868
301.834, 2840.789
302.316, 2827.852
302.798, 2825.437
303.281, 2834.129
303.763, 2834.896
304.245, 2805.323
304.727, 2755.855
305.209, 2707.332
305.691, 2671.471
306.173, 2638.481
306.655, 2603.968
307.138, 2567.409
307.620, 2515.788
308.102, 2422.299
308.584, 2311.147
309.066, 2216.785
309.548, 2173.094
310.030, 2135.996
310.512, 2069.895
310.995, 1976.077
311.477, 1883.156
311.959, 1803.777
312.441, 1736.055
312.923, 1677.048
313.405, 1639.290
313.887, 1599.342
314.369, 1540.343
314.851, 1464.267
315.334, 1392.551
315.816, 1335.543
316.298, 1287.108
316.780, 1242.142
317.262, 1196.424
317.744, 1156.145
318.226, 1126.741
318.708, 1106.143
319.190, 1082.289
319.673, 1047.298
320.155, 1010.021
320.637, 976.192
321.119, 939.904
321.601, 915.093
322.083, 911.023
322.565, 922.870
323.047, 931.403
323.530, 932.459
324.012, 929.370
324.494, 923.532
324.976, 906.881
325.458, 898.051
325.940, 907.542
326.422, 927.618
326.904, 934.238
327.387, 908.778
327.869, 883.283
328.351, 870.686
328.833, 877.194
329.315, 886.554
329.797, 904.090
330.279, 923.997
330.761, 932.233
331.243, 916.626
331.725, 903.828
332.208, 903.607
332.690, 920.612
333.172, 939.329
333.654, 963.140
334.136, 987.057
334.618, 1001.144
335.100, 997.652
335.582, 999.447
336.065, 1016.973
336.547, 1054.032
337.029, 1079.187
337.511, 1086.954
337.993, 1089.083
338.475, 1102.575
338.957, 1130.013
339.439, 1157.975
339.922, 1182.492
340.404, 1203.680
340.886, 1222.772
341.368, 1239.376
341.850, 1254.650
342.332, 1271.871
342.814, 1291.862
343.296, 1302.806
343.778, 1300.702
344.261, 1287.490
344.743, 1266.301
345.225, 1235.045
345.707, 1210.664
346.189, 1218.973
346.671, 1253.468
347.153, 1270.272
347.635, 1254.735
348.117, 1218.877
348.600, 1185.616
349.082, 1154.778
349.564, 1121.802
350.046, 1078.188
350.528, 1029.547
351.010, 992.409
351.492, 973.324
351.974, 960.796
352.457, 945.034
352.939, 924.959
353.421, 895.487
353.903, 852.552
354.385, 799.062
354.867, 736.860
355.349, 662.104
355.831, 591.405
356.314, 543.826
356.796, 511.650
357.278, 475.790
357.760, 418.988
358.242, 360.266
358.724, 315.932
359.206, 290.007
359.688, 267.213
360.170, 244.805
360.652, 219.263
361.135, 185.377
361.617, 125.140
362.099, 69.481
362.581, 34.861
363.063, 23.923
363.545, 13.999
364.027, 2.506
364.509, 20.955
364.991, 36.796
365.474, 43.431
365.956, 53.118
366.438, 70.856
366.920, 96.501
367.402, 118.229
367.884, 138.178
368.366, 151.758
368.849, 155.526
369.331, 130.819
369.813, 120.418
370.295, 135.903
370.777, 170.632
371.259, 189.452
371.741, 183.133
372.223, 171.669
372.705, 165.785
373.188, 170.993
373.670, 168.713
374.152, 155.773
374.634, 136.635
375.116, 121.683
375.598, 111.334
376.080, 104.075
376.562, 100.807
377.044, 102.588
377.527, 97.425
378.009, 82.333
378.491, 65.771
378.973, 61.241
379.455, 69.488
379.937, 77.503
380.419, 79.798
380.901, 77.623
381.384, 78.565
381.866, 82.950
382.348, 87.398
382.830, 87.065
383.312, 83.290
383.794, 82.896
384.276, 91.914
384.758, 102.348
385.240, 98.013
385.723, 80.102
386.205, 59.831
386.687, 42.116
387.169, 28.677
387.651, 25.124
388.133, 39.953
388.615, 51.343
389.097, 31.902
389.579, 9.424
390.062, 43.381
390.544, 50.021
391.026, 45.773
391.508, 43.652
391.990, 45.373
392.472, 50.319
392.954, 59.720
393.436, 72.170
393.918, 85.190
394.401, 98.416
394.883, 111.941
395.365, 127.145
395.847, 144.908
396.329, 157.826
396.811, 152.987
397.293, 147.601
397.776, 157.719
398.258, 202.872
398.740, 244.170
399.222, 275.962
399.704, 298.501
400.186, 315.669
400.668, 327.365
401.150, 333.741
401.632, 333.202
402.115, 314.694
402.597, 312.670
403.079, 337.914
403.561, 377.880
404.043, 394.963
404.525, 377.441
405.007, 364.180
405.489, 376.058
405.971, 417.035
406.454, 449.870
406.936, 475.327
407.418, 491.137
407.900, 483.075
408.382, 449.311
408.864, 441.798
409.346, 500.721
409.828, 601.200
410.310, 626.958
410.793, 574.054
411.275, 510.376
411.757, 508.937
412.239, 550.839
412.721, 572.945
413.203, 548.083
413.685, 508.984
414.167, 499.323
414.650, 515.217
415.132, 535.788
415.614, 549.152
416.096, 559.025
416.578, 569.995
417.060, 582.996
417.542, 596.166
418.024, 612.138
418.507, 627.124
418.989, 634.271
419.471, 615.085
419.953, 599.626
420.435, 609.669
420.917, 650.114
421.399, 682.208
421.881, 683.495
422.363, 675.318
422.845, 677.793
423.328, 712.450
423.810, 738.671
424.292, 742.663
424.774, 727.083
425.256, 723.625
425.738, 739.482
426.220, 761.355
426.703, 782.786
427.185, 803.463
427.667, 824.254
428.149, 844.314
428.631, 864.302
429.113, 887.253
429.595, 915.547
430.077, 940.448
430.559, 957.198
431.042, 965.387
431.524, 978.127
432.006, 996.735
432.488, 1016.376
432.970, 1030.720
433.452, 1040.022
433.934, 1049.956
434.416, 1063.356
434.898, 1077.789
435.381, 1085.486
435.863, 1086.903
436.345, 1091.110
436.827, 1111.265
437.309, 1138.393
437.791, 1151.595
438.273, 1142.466
438.755, 1131.519
439.237, 1140.875
439.720, 1164.411
440.202, 1186.911
440.684, 1203.246
441.166, 1213.772
441.648, 1216.089
442.130, 1209.135
442.612, 1204.757
443.094, 1214.650
443.577, 1227.640
444.059, 1232.080
444.541, 1206.303
445.023, 1190.917
445.505, 1208.017
445.987, 1251.732
446.469, 1273.999
446.951, 1239.587
447.434, 1206.607
447.916, 1204.511
448.398, 1266.100
448.880, 1299.249
449.362, 1287.503
449.844, 1254.555
450.326, 1245.435
450.808, 1268.225
451.290, 1296.263
451.772, 1324.286
452.255, 1352.291
452.737, 1364.341
453.219, 1357.473
453.701, 1342.363
454.183, 1324.284
454.665, 1303.705
455.147, 1299.904
455.629, 1323.237
456.112, 1358.686
456.594, 1372.197
457.076, 1365.753
457.558, 1359.945
458.040, 1368.433
458.522, 1386.599
459.004, 1408.854
459.486, 1436.028
459.969, 1458.903
460.451, 1469.679
460.933, 1470.083
461.415, 1463.208
461.897, 1439.003
462.379, 1417.152
462.861, 1412.480
463.343, 1423.931
463.825, 1435.413
464.308, 1445.860
464.790, 1450.592
465.272, 1446.201
465.754, 1430.171
466.236, 1407.643
466.718, 1365.704
467.200, 1317.532
467.682, 1296.291
468.164, 1333.678
468.647, 1361.958
469.129, 1355.645
469.611, 1305.592
470.093, 1279.319
470.575, 1287.191
471.057, 1305.192
471.539, 1308.129
472.021, 1292.229
472.504, 1278.504
472.986, 1271.149
473.468, 1268.421
473.950, 1264.512
474.432, 1259.321
474.914, 1255.789
475.396, 1256.397
475.878, 1260.457
476.361, 1266.296
476.843, 1274.697
477.325, 1281.349
477.807, 1277.688
478.289, 1268.612
478.771, 1265.589
479.253, 1282.811
479.735, 1301.873
480.217, 1299.553
480.699, 1279.191
481.182, 1270.205
481.664, 1299.704
482.146, 1340.383
482.628, 1370.502
483.110, 1381.889
483.592, 1388.806
484.074, 1397.112
484.556, 1403.060
485.039, 1399.604
485.521, 1367.500
486.003, 1344.230
486.485, 1345.151
486.967, 1374.198
487.449, 1383.821
487.931, 1363.533
488.413, 1335.715
488.896, 1317.251
489.378, 1309.754
489.860, 1307.921
490.342, 1312.712
490.824, 1321.935
491.306, 1330.306
491.788, 1337.910
492.270, 1345.235
492.752, 1350.110
493.234, 1354.374
493.717, 1368.634
494.199, 1394.100
494.681, 1418.744
495.163, 1430.691
495.645, 1432.852
496.127, 1430.598
496.609, 1416.132
497.091, 1409.773
497.574, 1439.399
498.056, 1495.478
498.538, 1544.587
499.020, 1561.875
499.502, 1572.483
499.984, 1593.549
500.466, 1629.149
500.948, 1667.743
501.431, 1714.481
501.913, 1759.711
502.395, 1792.979
502.877, 1794.922
503.359, 1806.042
503.841, 1834.462
504.323, 1877.277
504.805, 1919.650
505.287, 1962.830
505.770, 2002.135
506.252, 2033.537
506.734, 2054.678
507.216, 2082.583
507.698, 2121.893
508.180, 2159.030
508.662, 2166.792
509.144, 2146.623
509.626, 2145.254
510.109, 2189.881
510.591, 2253.764
511.073, 2275.099
511.555, 2256.986
512.037, 2231.871
512.519, 2225.182
513.001, 2224.941
513.484, 2212.853
513.966, 2183.631
514.448, 2154.277
514.930, 2143.224
515.412, 2138.005
515.894, 2120.129
516.376, 2072.882
516.858, 2021.285
517.340, 1975.553
517.822, 1934.779
518.305, 1888.357
518.787, 1826.262
519.269, 1764.585
519.751, 1712.112
520.233, 1678.297
520.715, 1633.601
521.197, 1573.349
521.679, 1505.717
522.161, 1441.678
522.644, 1380.970
523.126, 1325.354
523.608, 1278.973
524.090, 1237.154
524.572, 1172.529
525.054, 1084.145
525.536, 1000.787
526.018, 946.448
526.500, 914.361
526.983, 883.632
527.465, 852.596
527.947, 819.175
528.429, 784.926
528.911, 746.182
529.393, 696.737
529.875, 612.356
530.357, 534.242
530.840, 495.765
531.322, 490.187
531.804, 479.644
532.286, 445.376
532.768, 404.993
533.250, 367.171
533.732, 332.125
534.214, 302.803
534.696, 283.273
535.179, 268.008
535.661, 250.955
536.143, 229.918
536.625, 210.502
537.107, 191.692
537.589, 175.100
538.071, 172.870
538.554, 189.303
539.036, 201.679
539.518, 191.704
540.000, 162.576
540.482, 145.228
540.964, 142.028
541.446, 142.788
541.928, 135.660
542.410, 123.431
542.893, 112.920
543.375, 102.883
543.857, 99.325
544.339, 114.546
544.821, 142.441
545.303, 162.917
545.785, 159.723
546.267, 151.347
546.750, 148.924
547.232, 154.568
547.714, 161.017
548.196, 166.415
548.678, 172.218
549.160, 179.631
549.642, 188.417
550.124, 199.663
550.606, 216.067
551.089, 234.311
551.571, 242.916
552.053, 237.294
552.535, 237.234
553.017, 253.139
553.499, 282.951
553.981, 309.120
554.463, 331.874
554.945, 349.132
555.428, 352.448
555.910, 348.556
556.392, 355.997
556.874, 379.831
557.356, 412.051
557.838, 452.709
558.320, 495.608
558.802, 527.475
559.284, 529.315
559.767, 529.336
560.249, 544.298
560.731, 573.834
561.213, 602.388
561.695, 627.395
562.177, 649.266
562.659, 668.398
563.141, 686.351
563.623, 697.028
564.106, 691.185
564.588, 684.679
565.070, 704.686
565.552, 763.640
566.034, 802.749
566.516, 803.214
566.998, 777.166
567.481, 764.395
567.963, 764.996
568.445, 774.830
568.927, 801.984
569.409, 835.058
569.891, 842.054
570.373, 819.483
570.855, 796.959
571.337, 805.012
571.820, 826.510
572.302, 838.104
572.784, 827.183
573.266, 812.943
573.748, 799.000
574.230, 788.042
574.712, 786.032
575.194, 805.240
575.677, 823.175
576.159, 836.554
576.641, 846.167
577.123, 834.654
577.605, 788.766
578.087, 740.799
578.569, 713.514
579.051, 710.781
579.533, 705.910
580.016, 697.472
580.498, 686.149
580.980, 672.264
581.462, 656.137
581.944, 640.787
582.426, 631.156
582.908, 618.801
583.390, 582.734
583.872, 529.262
584.355, 488.257
584.837, 492.193
585.319, 505.840
585.801, 498.440
586.283, 463.000
586.765, 432.647
587.247, 426.978
587.729, 427.535
588.211, 418.345
588.694, 379.206
589.176, 355.509
589.658, 360.217
590.140, 377.265
590.622, 368.958
591.104, 324.482
591.586, 286.594
592.068, 268.810
592.550, 268.777
593.033, 276.263
593.515, 291.806
593.997, 307.412
594.479, 318.251
594.961, 324.663
595.443, 326.891
595.925, 324.560
596.407, 320.783
596.890, 314.156
597.372, 308.926
597.854, 310.952
598.336, 329.256
598.818, 347.708
599.300, 358.907
599.782, 365.392
600.264, 374.625
600.747, 389.712
601.229, 405.792
601.711, 423.319
602.193, 442.825
602.675, 452.148
603.157, 445.949
603.639, 440.303
604.121, 448.211
604.604, 469.889
605.086, 492.683
605.568, 516.947
606.050, 538.032
606.532, 544.573
607.014, 541.717
607.496, 547.049
607.978, 574.679
608.460, 603.634
608.943, 611.118
609.425, 602.496
609.907, 595.481
610.389, 603.066
610.871, 610.511
611.353, 607.062
611.835, 590.030
612.317, 583.180
612.799, 603.375
613.282, 623.865
613.764, 628.140
614.246, 609.899
614.728, 590.580
615.210, 567.802
615.692, 548.274
616.174, 543.446
616.656, 553.473
617.138, 569.078
617.621, 593.891
618.103, 615.481
618.585, 603.581
619.067, 564.630
619.549, 530.003
620.031, 522.907
620.513, 525.114
620.995, 519.149
621.477, 503.965
621.960, 491.312
622.442, 492.618
622.924, 494.381
623.406, 486.650
623.888, 461.362
624.370, 438.069
624.852, 415.258
625.334, 395.807
625.817, 384.580
626.299, 385.229
626.781, 383.039
627.263, 376.123
627.745, 363.715
628.227, 338.684
628.709, 301.692
629.191, 274.736
629.674, 280.267
630.156, 298.875
630.638, 292.547
631.120, 262.891
631.602, 239.042
632.084, 253.424
632.566, 274.620
633.048, 270.988
633.531, 224.979
634.013, 192.122
634.495, 197.735
634.977, 218.897
635.459, 230.046
635.941, 223.793
636.423, 219.311
636.905, 220.338
637.387, 222.788
637.870, 214.881
638.352, 194.716
638.834, 178.545
639.316, 173.952
639.798, 177.418
640.280, 179.542
640.762, 180.469
641.244, 181.702
641.726, 189.970
642.208, 196.550
642.691, 187.177
643.173, 158.379
643.655, 135.175
644.137, 139.282
644.619, 150.452
645.101, 150.438
645.583, 117.834
646.065, 99.520
646.547, 105.517
647.030, 122.970
647.512, 131.287
647.994, 127.116
648.476, 123.176
648.958, 122.869
649.440, 124.327
649.922, 121.053
650.404, 113.272
650.887, 107.478
651.369, 108.702
651.851, 113.619
652.333, 117.757
652.815, 120.879
653.297, 121.013
653.779, 115.518
654.261, 107.480
654.744, 99.042
655.226, 89.663
655.708, 82.907
656.190, 82.419
656.672, 83.256
657.154, 79.849
657.636, 68.198
658.118, 61.030
658.601, 60.095
659.083, 63.689
659.565, 71.472
660.047, 83.910
660.529, 86.855
661.011, 70.573
661.493, 45.248
661.975, 28.969
662.457, 21.168
662.940, 18.858
663.422, 20.256
663.904, 26.646
664.386, 44.169
664.868, 73.707
665.350, 90.807
665.832, 74.490
666.314, 51.748
666.796, 42.100
667.279, 57.317
667.761, 57.889
668.243, 34.664
668.725, 6.638
669.207, 1.153
669.689, 12.690
670.171, 23.425
670.653, 27.300
671.135, 24.975
671.618, 12.998
672.100, 5.257
672.582, 17.340
673.064, 8.635
673.546, 1.125
674.028, 11.245
674.510, 38.638
674.992, 54.125
675.474, 32.276
675.957, 9.177
676.439, 3.205
676.921, 17.507
677.403, 24.001
677.885, 16.077
678.367, 9.373
678.849, 15.807
679.331, 37.284
679.814, 53.808
680.296, 65.707
680.778, 70.189
681.260, 60.223
681.742, 40.593
682.224, 24.138
682.706, 12.961
683.188, 8.451
683.670, 20.048
684.153, 37.757
684.635, 44.835
685.117, 19.454
685.599, 0.024
686.081, 2.832
686.563, 21.669
687.045, 30.786
687.528, 23.528
688.010, 18.237
688.492, 22.723
688.974, 34.477
689.456, 34.673
689.938, 22.251
690.420, 8.820
690.902, 3.167
691.384, 2.102
691.867, 4.730
692.349, 17.794
692.831, 23.612
693.313, 0.084
693.795, 29.177
694.277, 38.397
694.759, 12.495
695.241, 5.920
695.723, 0.718
696.206, 13.696
696.688, 21.411
697.170, 19.502
697.652, 16.873
698.134, 12.218
698.616, 9.136
699.098, 16.589
699.580, 34.188
700.062, 46.644
700.545, 48.153
701.027, 42.935
701.509, 33.522
701.991, 22.158
702.473, 16.349
702.955, 23.150
703.437, 34.051
703.919, 46.736
704.402, 60.458
704.884, 67.125
705.366, 62.831
705.848, 53.085
706.330, 36.657
706.812, 11.327
707.294, 3.341
707.776, 16.330
708.258, 35.997
708.741, 52.829
709.223, 66.566
709.705, 74.695
710.187, 76.558
710.669, 76.113
711.151, 75.734
711.633, 75.899
712.115, 78.043
712.597, 86.332
713.080, 89.100
713.562, 77.877
714.044, 59.540
714.526, 43.808
715.008, 29.233
715.490, 21.227
715.972, 21.976
716.455, 28.742
716.937, 35.287
717.419, 41.432
717.901, 49.535
718.383, 63.692
718.865, 77.608
719.347, 73.180
719.829, 54.741
720.311, 41.885
720.794, 53.437
721.276, 68.431
721.758, 70.743
722.240, 60.328
722.722, 50.645
723.204, 45.595
723.686, 41.445
724.168, 35.112
724.651, 25.052
725.133, 26.348
725.615, 42.826
726.097, 60.779
726.579, 67.857
727.061, 65.731
727.543, 65.352
728.025, 67.867
728.507, 70.829
728.990, 74.548
729.472, 76.040
729.954, 69.240
730.436, 45.763
730.918, 30.736
731.400, 44.597
731.882, 68.283
732.364, 76.581
732.846, 58.360
733.329, 41.201
733.811, 24.497
734.293, 13.043
734.775, 22.853
735.257, 54.648
735.739, 68.538
736.221, 44.480
736.703, 6.887
737.185, 6.170
737.668, 0.793
738.150, 13.260
738.632, 26.606
739.114, 41.010
739.596, 62.285
740.078, 86.856
740.560, 94.974
741.042, 65.365
741.524, 37.945
742.007, 24.287
742.489, 23.945
742.971, 29.436
743.453, 42.594
743.935, 53.639
744.417, 54.951
744.899, 49.210
745.381, 43.139
745.864, 37.138
746.346, 35.529
746.828, 50.282
747.310, 65.589
747.792, 64.335
748.274, 39.757
748.756, 20.646
749.238, 11.922
749.721, 12.585
750.203, 21.954
750.685, 41.175
751.167, 67.619
751.649, 39.405
752.131, 24.538
752.613, 22.179
753.095, 70.146
753.578, 53.280
754.060, 62.514
754.542, 72.847
755.024, 46.955
755.506, 87.855
755.988, 66.124
756.470, 87.514
756.952, 99.105
757.434, 73.838
757.917, 34.488
758.399, 21.262
758.881, 48.256
759.363, 67.695
759.845, 68.282
760.327, 59.214
760.809, 64.817
761.291, 83.371
761.773, 94.525
762.255, 85.904
762.738, 70.245
763.220, 60.031
763.702, 55.333
764.184, 56.512
764.666, 70.928
765.148, 84.252
765.630, 90.634
766.112, 90.454
766.594, 88.651
767.077, 85.905
767.559, 80.071
768.041, 67.693
768.523, 51.297
769.005, 48.614
769.487, 59.574
769.969, 70.300
770.451, 68.799
770.934, 63.320
771.416, 67.339
771.898, 80.357
772.380, 88.430
772.862, 78.754
773.344, 66.778
773.826, 61.780
774.308, 65.528
774.791, 68.473
775.273, 69.679
775.755, 71.475
776.237, 77.691
776.719, 87.619
777.201, 86.225
777.683, 72.200
778.165, 58.114
778.648, 59.574
779.130, 66.495
779.612, 62.117
780.094, 41.197
780.576, 25.532
781.058, 27.816
781.540, 37.645
782.022, 46.995
782.504, 58.667
782.987, 61.079
783.469, 48.770
783.951, 35.873
784.433, 43.089
784.915, 67.702
785.397, 73.177
785.879, 50.488
786.361, 26.998
786.843, 38.365
787.326, 66.583
787.808, 83.740
788.290, 76.125
788.772, 67.938
789.254, 66.928
789.736, 70.608
790.218, 76.336
790.700, 89.181
791.182, 90.962
791.665, 75.840
792.147, 55.136
792.629, 48.058
793.111, 53.026
793.593, 57.287
794.075, 56.666
794.557, 55.466
795.039, 61.681
795.521, 70.174
796.004, 71.939
796.486, 51.897
796.968, 38.618
797.450, 46.165
797.932, 63.534
798.414, 70.004
798.896, 60.744
799.378, 54.947
799.861, 58.532
800.343, 65.375
800.825, 61.192
801.307, 48.175
801.789, 36.237
802.271, 28.826
802.753, 24.911
803.235, 24.344
803.718, 26.616
804.200, 30.618
804.682, 42.173
805.164, 48.021
805.646, 41.472
806.128, 27.901
806.610, 24.300
807.092, 32.919
807.575, 40.016
808.057, 40.650
808.539, 37.621
809.021, 38.286
809.503, 40.595
809.985, 37.645
810.467, 17.951
810.949, 0.428
811.431, 3.751
811.914, 3.913
812.396, 5.714
812.878, 13.432
813.360, 20.689
813.842, 0.414
814.324, 36.291
814.806, 35.284
815.288, 4.905
815.770, 39.126
816.253, 43.059
816.735, 31.038
817.217, 20.648
817.699, 13.549
818.181, 15.233
818.663, 42.144
819.145, 64.949
819.627, 64.655
820.109, 45.325
820.592, 38.777
821.074, 51.259
821.556, 62.980
822.038, 66.002
822.520, 63.492
823.002, 69.999
823.484, 84.327
823.966, 93.170
824.448, 79.329
824.931, 63.764
825.413, 72.252
825.895, 99.326
826.377, 117.627
826.859, 105.499
827.341, 96.827
827.823, 102.625
828.305, 121.329
828.788, 147.915
829.270, 186.393
829.752, 211.287
830.234, 205.096
830.716, 180.842
831.198, 163.642
831.680, 153.748
832.162, 151.637
832.644, 167.517
833.127, 182.447
833.609, 180.625
834.091, 165.112
834.573, 161.619
835.055, 181.354
835.537, 197.513
836.019, 199.902
836.502, 192.499
836.984, 194.199
837.466, 204.903
837.948, 213.935
838.430, 210.303
838.912, 205.702
839.394, 220.769
839.876, 248.847
840.358, 265.453
840.841, 248.332
841.323, 230.969
841.805, 225.435
842.287, 229.594
842.769, 236.166
843.251, 246.234
843.733, 254.867
844.215, 259.456
844.697, 261.748
845.180, 267.664
845.662, 276.071
846.144, 282.208
846.626, 282.416
847.108, 280.484
847.590, 277.024
848.072, 273.163
848.554, 272.852
849.036, 279.157
849.519, 285.105
850.001, 289.475
850.483, 292.453
850.965, 294.758
851.447, 296.460
851.929, 296.712
852.411, 295.011
852.893, 291.608
853.375, 286.921
853.858, 281.073
854.340, 274.085
854.822, 265.965
855.304, 256.217
855.786, 238.602
856.268, 220.952
856.750, 223.804
857.232, 253.138
857.715, 272.639
858.197, 272.090
858.679, 259.617
859.161, 242.408
859.643, 224.627
860.125, 219.837
860.607, 246.168
861.089, 267.953
861.571, 262.218
862.054, 240.453
862.536, 223.017
863.018, 209.671
863.500, 204.231
863.982, 209.385
864.464, 219.623
864.946, 227.456
865.429, 232.800
865.911, 234.353
866.393, 231.616
866.875, 225.838
867.357, 215.801
867.839, 204.419
868.321, 195.657
868.803, 192.684
869.285, 189.051
869.768, 184.691
870.250, 179.019
870.732, 170.857
871.214, 159.937
871.696, 148.962
872.178, 136.814
872.660, 130.784
873.142, 148.953
873.625, 174.989
874.107, 182.317
874.589, 160.850
875.071, 137.093
875.553, 114.878
876.035, 99.452
876.517, 96.999
876.999, 115.638
877.481, 113.200
877.964, 82.740
878.446, 54.724
878.928, 67.881
879.410, 103.884
879.892, 114.312
880.374, 94.479
880.856, 75.703
881.338, 81.943
881.820, 93.179
882.303, 94.357
882.785, 81.962
883.267, 73.383
883.749, 70.440
884.231, 67.261
884.713, 57.350
885.195, 43.490
885.677, 45.673
886.159, 62.401
886.641, 72.098
887.124, 48.727
887.606, 21.909
888.088, 17.085
888.570, 33.950
889.052, 48.454
889.534, 60.873
890.016, 64.969
890.498, 53.923
890.981, 33.586
891.463, 35.419
891.945, 57.890
892.427, 72.899
892.909, 62.109
893.391, 40.075
893.873, 15.976
894.355, 7.125
894.838, 20.776
895.320, 19.907
895.802, 11.733
896.284, 5.737
896.766, 27.278
897.248, 41.762
897.730, 49.523
898.212, 45.654
898.695, 25.229
899.177, 1.139
899.659, 8.664
900.141, 10.205
900.623, 15.012
901.105, 33.876
901.587, 45.596
902.069, 37.979
902.551, 23.743
903.034, 15.939
903.516, 15.895
903.998, 15.704
904.480, 14.668
904.962, 13.665
905.444, 15.378
905.926, 17.399
906.408, 13.914
906.890, 2.493
907.373, 5.651
907.855, 6.623
908.337, 1.012
908.819, 13.755
909.301, 43.546
909.783, 48.245
910.265, 22.070
910.747, 5.378
911.229, 7.577
911.712, 4.471
912.194, 4.338
912.676, 7.933
913.158, 17.167
913.640, 10.235
914.122, 2.150
914.604, 2.105
915.086, 9.607
915.568, 15.086
916.051, 17.778
916.533, 21.000
917.015, 25.832
917.497, 32.417
917.979, 43.549
918.461, 57.401
918.943, 66.961
919.425, 63.029
919.908, 59.945
920.390, 62.097
920.872, 71.184
921.354, 92.858
921.836, 140.786
922.318, 162.810
922.800, 141.896
923.282, 106.661
923.765, 108.517
924.247, 136.701
924.729, 156.778
925.211, 156.198
925.693, 156.721
926.175, 176.915
926.657, 202.751
927.139, 218.497
927.622, 217.579
928.104, 221.349
928.586, 233.016
929.068, 241.889
929.550, 231.133
930.032, 209.587
930.514, 210.988
930.996, 237.504
931.478, 265.126
931.961, 281.517
932.443, 290.506
932.925, 288.032
933.407, 272.926
933.889, 286.432
934.371, 344.363
934.853, 391.068
935.335, 396.560
935.817, 374.639
936.300, 365.032
936.782, 366.402
937.264, 372.512
937.746, 382.085
938.228, 393.480
938.710, 404.457
939.192, 416.885
939.674, 435.811
940.156, 464.612
940.639, 492.691
941.121, 519.558
941.603, 542.422
942.085, 554.966
942.567, 559.832
943.049, 564.783
943.531, 571.345
944.013, 580.016
944.495, 580.625
944.978, 589.706
945.460, 628.758
945.942, 720.263
946.424, 772.228
946.906, 774.130
947.388, 767.749
947.870, 787.548
948.352, 826.929
948.835, 872.912
949.317, 924.051
949.799, 970.810
950.281, 1005.964
950.763, 1036.734
951.245, 1063.379
951.727, 1087.730
952.209, 1126.112
952.692, 1181.229
953.174, 1239.117
953.656, 1294.313
954.138, 1349.019
954.620, 1403.660
955.102, 1460.683
955.584, 1526.272
956.066, 1613.814
956.549, 1697.947
957.031, 1768.446
957.513, 1830.598
957.995, 1890.031
958.477, 1941.906
958.959, 2015.757
959.441, 2118.719
959.923, 2230.818
960.405, 2330.303
960.888, 2423.737
961.370, 2523.211
961.852, 2631.324
962.334, 2737.287
962.816, 2836.702
963.298, 2934.189
963.780, 3028.600
964.262, 3120.419
964.744, 3231.460
965.227, 3363.585
965.709, 3493.574
966.191, 3597.612
966.673, 3694.421
967.155, 3807.335
967.637, 3932.470
968.119, 4053.304
968.601, 4160.387
969.083, 4266.279
969.566, 4372.379
970.048, 4478.144
970.530, 4579.979
971.012, 4677.386
971.494, 4769.814
971.976, 4857.104
972.458, 4936.374
972.940, 4997.160
973.422, 5050.493
973.905, 5113.244
974.387, 5207.949
974.869, 5261.780
975.351, 5257.207
975.833, 5234.182
976.315, 5219.223
976.797, 5211.658
977.279, 5212.046
977.762, 5219.003
978.244, 5212.729
978.726, 5168.174
979.208, 5115.210
979.690, 5076.336
980.172, 5049.452
980.654, 5014.409
981.136, 4973.707
981.619, 4916.969
982.101, 4836.331
982.583, 4745.471
983.065, 4674.249
983.547, 4616.332
984.029, 4550.419
984.511, 4462.209
984.993, 4382.399
985.476, 4341.750
985.958, 4307.723
986.440, 4242.647
986.922, 4133.345
987.404, 4042.428
987.886, 3971.860
988.368, 3914.136
988.850, 3865.896
989.332, 3823.315
989.815, 3783.367
990.297, 3745.004
990.779, 3700.791
991.261, 3653.280
991.743, 3591.906
992.225, 3508.842
992.707, 3410.888
993.189, 3327.090
993.671, 3257.909
994.154, 3189.822
994.636, 3116.292
995.118, 3044.672
995.600, 2992.844
996.082, 2946.424
996.564, 2884.377
997.046, 2789.517
997.528, 2696.626
998.010, 2608.385
998.493, 2518.510
998.975, 2421.495
999.457, 2317.544
999.939, 2205.689
1000.421, 2087.066
1000.903, 1987.610
1001.385, 1939.265
1001.867, 1905.664
1002.350, 1865.788
1002.832, 1818.353
1003.314, 1765.170
1003.796, 1703.094
1004.278, 1646.904
1004.760, 1602.153
1005.242, 1566.266
1005.724, 1536.494
1006.206, 1512.413
1006.689, 1492.741
1007.171, 1474.541
1007.653, 1465.198
1008.135, 1470.455
1008.617, 1483.785
1009.099, 1500.326
1009.581, 1520.061
1010.063, 1541.409
1010.545, 1563.969
1011.028, 1592.793
1011.510, 1638.944
1011.992, 1688.984
1012.474, 1726.362
1012.956, 1751.481
1013.438, 1781.250
1013.920, 1812.687
1014.402, 1858.874
1014.885, 1927.698
1015.367, 2009.370
1015.849, 2082.511
1016.331, 2148.455
1016.813, 2213.730
1017.295, 2278.925
1017.777, 2347.932
1018.259, 2424.478
1018.741, 2504.722
1019.224, 2584.074
1019.706, 2660.899
1020.188, 2742.805
1020.670, 2830.645
1021.152, 2919.699
1021.634, 3006.743
1022.116, 3092.071
1022.598, 3174.849
1023.081, 3256.549
1023.563, 3345.840
1024.045, 3461.811
1024.527, 3566.359
1025.009, 3651.332
1025.491, 3717.418
1025.973, 3756.707
1026.455, 3772.380
1026.938, 3803.554
1027.420, 3860.266
1027.902, 3931.258
1028.384, 4037.170
1028.866, 4134.958
1029.348, 4167.354
1029.830, 4097.091
1030.312, 4086.951
1030.794, 4159.097
1031.276, 4231.700
1031.759, 4247.361
1032.241, 4225.628
1032.723, 4211.878
1033.205, 4205.387
1033.687, 4202.832
1034.169, 4212.945
1034.651, 4214.438
1035.133, 4195.688
1035.616, 4165.998
1036.098, 4134.652
1036.580, 4100.030
1037.062, 4096.528
1037.544, 4133.776
1038.026, 4168.582
1038.508, 4145.260
1038.990, 4106.730
1039.473, 4103.370
1039.955, 4147.250
1040.437, 4163.107
1040.919, 4128.325
1041.401, 4108.465
1041.883, 4142.333
1042.365, 4203.728
1042.847, 4222.210
1043.329, 4207.756
1043.812, 4193.390
1044.294, 4190.884
1044.776, 4194.917
1045.258, 4207.969
1045.740, 4224.041
1046.222, 4236.331
1046.704, 4244.293
1047.186, 4253.672
1047.668, 4264.896
1048.151, 4275.187
1048.633, 4289.254
1049.115, 4296.331
1049.597, 4281.676
1050.079, 4246.670
1050.561, 4213.307
1051.043, 4186.658
1051.525, 4157.820
1052.008, 4125.720
1052.490, 4088.491
1052.972, 4039.234
1053.454, 3981.693
1053.936, 3927.456
1054.418, 3881.298
1054.900, 3832.302
1055.382, 3777.810
1055.865, 3716.194
1056.347, 3644.967
1056.829, 3563.394
1057.311, 3490.974
1057.793, 3428.106
1058.275, 3360.637
1058.757, 3279.053
1059.239, 3190.417
1059.721, 3096.960
1060.203, 3002.633
1060.686, 2917.193
1061.168, 2844.598
1061.650, 2778.319
1062.132, 2719.941
1062.614, 2662.940
1063.096, 2605.461
1063.578, 2542.005
1064.060, 2451.589
1064.543, 2330.992
1065.025, 2231.749
1065.507, 2195.421
1065.989, 2168.911
1066.471, 2131.421
1066.953, 2082.569
1067.435, 2019.150
1067.917, 1941.744
1068.400, 1864.849
1068.882, 1791.664
1069.364, 1726.356
1069.846, 1681.870
1070.328, 1644.060
1070.810, 1592.105
1071.292, 1512.405
1071.774, 1460.055
1072.256, 1444.096
1072.739, 1424.338
1073.221, 1362.099
1073.703, 1280.573
1074.185, 1223.136
1074.667, 1185.370
1075.149, 1150.050
1075.631, 1110.481
1076.113, 1072.856
1076.595, 1039.173
1077.078, 1006.747
1077.560, 972.440
1078.042, 935.862
1078.524, 894.058
1079.006, 846.111
1079.488, 805.724
1079.970, 792.700
1080.452, 782.808
1080.934, 755.909
1081.417, 714.835
1081.899, 682.103
1082.381, 658.471
1082.863, 636.674
1083.345, 614.333
1083.827, 592.421
1084.309, 573.681
1084.791, 555.525
1085.274, 533.412
1085.756, 500.310
1086.238, 478.449
1086.720, 473.513
1087.202, 468.981
1087.684, 448.592
1088.166, 420.033
1088.648, 410.331
1089.130, 415.397
1089.613, 417.309
1090.095, 402.312
1090.577, 389.555
1091.059, 384.123
1091.541, 384.867
1092.023, 393.380
1092.505, 408.823
1092.987, 416.055
1093.469, 413.292
1093.952, 403.707
1094.434, 377.507
1094.916, 355.570
1095.398, 355.078
1095.880, 375.623
1096.362, 406.478
1096.844, 454.085
1097.326, 475.566
1097.809, 451.742
1098.291, 411.886
1098.773, 386.691
1099.255, 375.574
1099.737, 380.491
1100.219, 409.051
1100.701, 430.452
1101.183, 442.580
1101.666, 447.670
1102.148, 444.644
1102.630, 436.427
1103.112, 429.394
1103.594, 424.907
1104.076, 427.637
1104.558, 452.858
1105.040, 468.593
1105.522, 462.498
1106.005, 445.851
1106.487, 426.067
1106.969, 403.790
1107.451, 395.193
1107.933, 400.747
1108.415, 403.246
1108.897, 385.808
1109.379, 365.734
1109.861, 357.355
1110.344, 356.079
1110.826, 344.233
1111.308, 319.700
1111.790, 299.433
1112.272, 286.699
1112.754, 279.744
1113.236, 282.124
1113.718, 286.103
1114.201, 281.725
1114.683, 266.756
1115.165, 253.655
1115.647, 241.947
1116.129, 235.344
1116.611, 237.679
1117.093, 242.945
1117.575, 239.946
1118.057, 230.645
1118.540, 219.305
1119.022, 207.633
1119.504, 192.142
1119.986, 162.573
1120.468, 142.487
1120.950, 153.169
1121.432, 188.187
1121.914, 211.266
1122.396, 222.664
1122.879, 222.727
1123.361, 193.257
1123.843, 173.853
1124.325, 192.691
1124.807, 224.373
1125.289, 239.403
1125.771, 237.479
1126.253, 223.478
1126.736, 197.170
1127.218, 182.031
1127.700, 204.421
1128.182, 237.619
1128.664, 266.120
1129.146, 287.601
1129.628, 299.955
1130.110, 301.885
1130.593, 298.260
1131.075, 286.645
1131.557, 283.455
1132.039, 320.857
1132.521, 369.188
1133.003, 391.406
1133.485, 380.397
1133.967, 382.579
1134.449, 407.001
1134.932, 425.470
1135.414, 426.171
1135.896, 417.875
1136.378, 409.023
1136.860, 404.848
1137.342, 418.428
1137.824, 466.010
1138.306, 493.081
1138.788, 479.964
1139.271, 467.826
1139.753, 485.325
1140.235, 522.001
1140.717, 538.192
1141.199, 540.194
1141.681, 550.476
1142.163, 598.927
1142.645, 630.573
1143.128, 620.793
1143.610, 597.564
1144.092, 583.768
1144.574, 579.338
1145.056, 584.353
1145.538, 598.307
1146.020, 614.519
1146.502, 634.179
1146.984, 649.908
1147.467, 656.740
1147.949, 657.409
1148.431, 654.406
1148.913, 647.594
1149.395, 645.752
1149.877, 650.417
1150.359, 653.214
1150.841, 637.672
1151.323, 625.154
1151.806, 641.165
1152.288, 678.035
1152.770, 685.104
1153.252, 656.483
1153.734, 640.934
1154.216, 652.333
1154.698, 670.117
1155.180, 681.424
1155.663, 680.815
1156.145, 654.263
1156.627, 594.859
1157.109, 573.328
1157.591, 601.327
1158.073, 622.941
1158.555, 614.988
1159.037, 591.656
1159.520, 566.832
1160.002, 543.354
1160.484, 526.629
1160.966, 522.214
1161.448, 511.393
1161.930, 491.608
1162.412, 469.770
1162.894, 447.767
1163.376, 427.715
1163.859, 416.770
1164.341, 411.435
1164.823, 403.445
1165.305, 388.986
1165.787, 373.320
1166.269, 358.375
1166.751, 340.289
1167.233, 309.530
1167.715, 273.833
1168.198, 259.161
1168.680, 262.570
1169.162, 267.405
1169.644, 267.707
1170.126, 267.447
1170.608, 272.807
1171.090, 270.998
1171.572, 236.769
1172.055, 181.134
1172.537, 154.306
1173.019, 157.735
1173.501, 162.509
1173.983, 151.800
1174.465, 142.335
1174.947, 142.439
1175.429, 144.983
1175.911, 134.430
1176.394, 113.752
1176.876, 101.862
1177.358, 101.415
1177.840, 102.553
1178.322, 103.393
1178.804, 99.630
1179.286, 87.444
1179.768, 69.970
1180.250, 57.875
1180.733, 50.487
1181.215, 39.745
1181.697, 22.228
1182.179, 8.838
1182.661, 12.497
1183.143, 18.894
1183.625, 18.289
1184.107, 11.162
1184.590, 1.174
1185.072, 11.490
1185.554, 23.677
1186.036, 34.552
1186.518, 44.384
1187.000, 57.276
1187.482, 66.043
1187.964, 60.979
1188.447, 42.058
1188.929, 39.390
1189.411, 52.797
1189.893, 66.974
1190.375, 73.958
1190.857, 80.174
1191.339, 94.962
1191.821, 109.237
1192.303, 111.046
1192.786, 98.168
1193.268, 87.049
1193.750, 77.645
1194.232, 71.798
1194.714, 70.721
1195.196, 73.687
1195.678, 82.070
1196.160, 93.431
1196.642, 104.672
1197.125, 117.418
1197.607, 120.133
1198.089, 111.739
1198.571, 104.078
1199.053, 109.021
1199.535, 115.562
1200.017, 111.936
1200.499, 103.052
1200.981, 100.962
1201.464, 106.571
1201.946, 118.655
1202.428, 138.482
1202.910, 150.916
1203.392, 135.528
1203.874, 112.607
1204.356, 100.627
1204.838, 97.613
1205.321, 90.796
1205.803, 77.376
1206.285, 71.878
1206.767, 76.659
1207.249, 85.491
1207.731, 99.726
1208.213, 109.434
1208.695, 98.933
1209.177, 72.696
1209.660, 66.811
1210.142, 87.627
1210.624, 94.719
1211.106, 78.348
1211.588, 57.259
1212.070, 47.723
1212.552, 46.077
1213.034, 53.293
1213.516, 67.387
1213.999, 65.909
1214.481, 44.529
1214.963, 34.866
1215.445, 46.926
1215.927, 63.932
1216.409, 69.620
1216.891, 69.458
1217.373, 67.074
1217.856, 63.131
1218.338, 67.249
1218.820, 81.499
1219.302, 87.956
1219.784, 78.836
1220.266, 66.462
1220.748, 63.830
1221.230, 65.012
1221.713, 65.088
1222.195, 63.713
1222.677, 51.165
1223.159, 24.896
1223.641, 14.765
1224.123, 39.066
1224.605, 67.559
1225.087, 67.102
1225.569, 55.476
1226.052, 54.319
1226.534, 65.498
1227.016, 69.021
1227.498, 64.538
1227.980, 57.704
1228.462, 50.034
1228.944, 42.672
1229.426, 36.890
1229.908, 31.842
1230.391, 24.471
1230.873, 13.102
1231.355, 23.677
1231.837, 56.546
1232.319, 72.815
1232.801, 38.753
1233.283, 2.215
1233.765, 6.663
1234.248, 27.455
1234.730, 34.359
1235.212, 25.227
1235.694, 20.611
1236.176, 20.481
1236.658, 21.173
1237.140, 18.973
1237.622, 19.175
1238.104, 32.082
1238.587, 44.078
1239.069, 35.297
1239.551, 3.232
1240.033, 5.651
1240.515, 7.162
1240.997, 17.021
1241.479, 3.438
1241.961, 10.682
1242.443, 10.219
1242.926, 5.070
1243.408, 7.050
1243.890, 15.906
1244.372, 18.092
1244.854, 14.025
1245.336, 9.917
1245.818, 8.246
1246.300, 8.170
1246.783, 11.469
1247.265, 14.793
1247.747, 12.667
1248.229, 6.637
1248.711, 10.416
1249.193, 22.483
1249.675, 30.713
1250.157, 22.852
1250.640, 18.380
1251.122, 27.229
1251.604, 36.623
1252.086, 29.565
1252.568, 12.067
1253.050, 9.141
1253.532, 19.901
1254.014, 30.666
1254.496, 38.120
1254.979, 39.159
1255.461, 31.696
1255.943, 20.699
1256.425, 10.072
1256.907, 1.682
1257.389, 0.673
1257.871, 6.676
1258.353, 14.632
1258.835, 23.339
1259.318, 34.984
1259.800, 54.748
1260.282, 64.626
1260.764, 32.939
1261.246, 14.518
1261.728, 28.306
1262.210, 12.867
1262.692, 1.918
1263.175, 4.432
1263.657, 8.266
1264.139, 12.849
1264.621, 13.911
1265.103, 4.851
1265.585, 5.978
1266.067, 2.961
1266.549, 9.536
1267.031, 8.293
1267.514, 16.729
1267.996, 26.122
1268.478, 13.180
1268.960, 1.073
1269.442, 8.014
1269.924, 20.329
1270.406, 11.918
1270.888, 9.923
1271.370, 14.017
1271.853, 3.215
1272.335, 9.303
1272.817, 0.091
1273.299, 10.693
1273.781, 11.857
1274.263, 10.280
1274.745, 13.893
1275.227, 16.939
1275.710, 4.800
1276.192, 21.993
1276.674, 43.136
1277.156, 56.502
1277.638, 61.256
1278.120, 49.269
1278.602, 36.950
1279.084, 34.840
1279.567, 36.263
1280.049, 27.486
1280.531, 12.980
1281.013, 19.138
1281.495, 46.153
1281.977, 58.791
1282.459, 18.463
1282.941, 9.679
1283.423, 4.826
1283.906, 12.699
1284.388, 11.099
1284.870, 1.142
1285.352, 2.047
1285.834, 9.634
1286.316, 21.413
1286.798, 30.741
1287.280, 37.975
1287.762, 42.886
1288.245, 46.309
1288.727, 51.672
1289.209, 54.290
1289.691, 46.828
1290.173, 30.648
1290.655, 14.829
1291.137, 3.319
1291.619, 7.554
1292.102, 5.860
1292.584, 21.804
1293.066, 27.385
1293.548, 24.730
1294.030, 15.368
1294.512, 2.287
1294.994, 0.000
##END=



