##NAMES=Nickeltalmessite
##RRUFFID=R090023
##IDEAL CHEMISTRY=Ca_2_Ni^2+^(As^5+^O_4_)_2_&#183;2H_2_O
##LOCALITY=Ait Ahmane, Bou Azzer, Morocco
##OWNER=RRUFF
##SOURCE=Wiiliam W. Pinch
##DESCRIPTION=Small pale green to colorless acicular crystals
##STATUS=The identification of this mineral has been confirmed only by single crystal X-ray diffraction.
##URL=rruff.info/R090023
92.37695, 0.0000000E+00
92.85907, 0.2434690
93.34119, 2.432007
93.82330, 2.422974
94.30542, 1.935059
94.78754, 1.855591
95.26965, 3.489380
95.75177, 10.25714
96.23389, 27.50525
96.71600, 47.22485
97.19812, 62.75500
97.68024, 73.15344
98.16235, 81.06097
98.64447, 89.71387
99.12659, 99.72443
99.60870, 106.4041
100.0908, 110.7958
100.5729, 113.8475
101.0551, 116.2150
101.5372, 117.8271
102.0193, 118.5111
102.5014, 118.5714
102.9835, 114.6931
103.4656, 114.0614
103.9478, 117.8683
104.4299, 124.6935
104.9120, 132.3310
105.3941, 139.1559
105.8762, 145.1627
106.3583, 153.0630
106.8405, 164.0007
107.3226, 175.8770
107.8047, 189.8857
108.2868, 206.0559
108.7689, 220.3016
109.2510, 227.8613
109.7332, 227.5169
110.2153, 218.5914
110.6974, 196.1591
111.1795, 169.5024
111.6616, 144.9929
112.1437, 123.5501
112.6259, 106.5627
113.1080, 93.58490
113.5901, 87.31305
114.0722, 83.82114
114.5543, 78.04807
115.0364, 72.43561
115.5185, 69.30533
116.0007, 69.65250
116.4828, 71.29272
116.9649, 74.18768
117.4470, 78.23123
117.9291, 82.44659
118.4112, 85.84836
118.8934, 88.56372
119.3755, 90.27432
119.8576, 91.69559
120.3397, 91.76215
120.8218, 89.80096
121.3039, 85.48044
121.7861, 78.91568
122.2682, 70.55841
122.7503, 58.35773
123.2324, 46.42245
123.7145, 34.11716
124.1966, 22.36520
124.6788, 12.51395
125.1609, 5.285706
125.6430, 0.5448910
126.1251, 2.861603
126.6072, 5.383575
127.0893, 6.584747
127.5715, 5.235443
128.0536, 1.905579
128.5357, 0.6266480
129.0178, 9.2770001E-03
129.4999, 3.365082
129.9821, 5.697357
130.4642, 6.153107
130.9463, 5.923553
131.4284, 6.465698
131.9105, 8.092896
132.3926, 9.252594
132.8748, 7.650696
133.3569, 4.697540
133.8390, 3.078735
134.3211, 5.604919
134.8032, 10.60541
135.2853, 12.02457
135.7674, 7.379669
136.2496, 2.257507
136.7317, 0.8103940
137.2138, 2.090118
137.6959, 2.365540
138.1780, 1.650238
138.6601, 0.3484500
139.1423, 0.2675480
139.6244, 4.219696
140.1065, 8.952484
140.5886, 12.37662
141.0707, 14.44672
141.5528, 16.08432
142.0350, 18.44437
142.5171, 22.15720
142.9992, 24.91251
143.4813, 26.87439
143.9634, 28.00140
144.4455, 27.71597
144.9277, 26.05115
145.4098, 24.25699
145.8919, 24.38608
146.3740, 27.39758
146.8561, 30.82294
147.3382, 35.39172
147.8204, 40.08722
148.3025, 43.39688
148.7846, 44.60516
149.2667, 44.92444
149.7488, 46.98615
150.2309, 52.46622
150.7131, 58.17349
151.1952, 63.68042
151.6773, 68.95020
152.1594, 73.69830
152.6415, 77.37796
153.1236, 80.96384
153.6058, 85.80832
154.0879, 92.05261
154.5700, 99.06003
155.0521, 106.1169
155.5342, 113.1441
156.0163, 121.2890
156.4985, 130.7163
156.9806, 141.6741
157.4627, 155.1010
157.9448, 171.6404
158.4269, 188.8649
158.9090, 203.3417
159.3912, 214.5667
159.8733, 223.9146
160.3554, 233.8817
160.8375, 241.5341
161.3196, 243.9847
161.8017, 239.8587
162.2839, 230.3333
162.7660, 218.8389
163.2481, 204.0587
163.7302, 188.7898
164.2123, 172.2648
164.6944, 155.8185
165.1766, 140.8683
165.6587, 128.0593
166.1408, 117.5410
166.6229, 110.1813
167.1050, 107.6104
167.5871, 106.3508
168.0693, 106.1475
168.5514, 106.7752
169.0335, 107.8119
169.5156, 108.8718
169.9977, 110.1092
170.4798, 113.3752
170.9620, 119.1450
171.4441, 125.9303
171.9262, 133.6775
172.4083, 142.1016
172.8904, 150.0802
173.3725, 156.3029
173.8547, 161.2315
174.3368, 168.5143
174.8189, 180.2301
175.3010, 192.9094
175.7831, 204.0101
176.2652, 213.4521
176.7474, 221.6913
177.2295, 229.5618
177.7116, 236.3916
178.1937, 240.0795
178.6758, 239.4940
179.1579, 235.7482
179.6401, 230.4185
180.1222, 223.5945
180.6043, 214.8098
181.0864, 201.9870
181.5685, 187.2241
182.0506, 174.1111
182.5328, 164.2733
183.0149, 157.2218
183.4970, 151.4446
183.9791, 146.8068
184.4612, 144.0661
184.9433, 143.8957
185.4255, 145.6631
185.9076, 148.2496
186.3897, 151.1091
186.8718, 153.9419
187.3539, 155.2494
187.8360, 152.1332
188.3182, 150.8752
188.8003, 153.7066
189.2824, 159.7493
189.7645, 167.1891
190.2466, 174.8283
190.7287, 182.9080
191.2109, 190.6575
191.6930, 196.0212
192.1751, 202.6524
192.6572, 211.5954
193.1393, 222.9579
193.6214, 236.7179
194.1036, 252.7319
194.5857, 271.3788
195.0678, 288.1855
195.5499, 305.0763
196.0320, 318.9590
196.5141, 329.3224
196.9963, 335.6669
197.4784, 336.9349
197.9605, 332.1382
198.4426, 320.6570
198.9247, 301.9007
199.4068, 269.7664
199.8890, 235.7629
200.3711, 206.9757
200.8532, 184.0044
201.3353, 164.0474
201.8174, 144.3117
202.2995, 124.9429
202.7817, 109.1208
203.2638, 97.99200
203.7459, 89.88007
204.2280, 83.52551
204.7101, 78.79932
205.1922, 75.36914
205.6744, 73.11765
206.1565, 71.96606
206.6386, 71.78833
207.1207, 73.10443
207.6028, 75.18918
208.0849, 77.12674
208.5671, 78.88211
209.0492, 80.41675
209.5313, 80.84964
210.0134, 80.94708
210.4955, 82.64328
210.9776, 88.40717
211.4598, 96.05478
211.9419, 100.5235
212.4240, 100.6821
212.9061, 99.75781
213.3882, 100.2219
213.8703, 101.0968
214.3525, 100.4367
214.8346, 96.63223
215.3167, 90.52643
215.7988, 85.50137
216.2809, 83.13837
216.7630, 79.25262
217.2451, 70.84109
217.7273, 60.03171
218.2094, 50.48514
218.6915, 44.56760
219.1736, 41.75293
219.6557, 39.05469
220.1378, 33.58438
220.6200, 35.50882
221.1021, 35.93518
221.5842, 34.96179
222.0663, 27.38116
222.5484, 29.10965
223.0305, 27.58264
223.5127, 26.24777
223.9948, 30.25693
224.4769, 25.38391
224.9590, 29.99323
225.4411, 31.29944
225.9232, 34.65363
226.4054, 31.81729
226.8875, 30.44324
227.3696, 30.82758
227.8517, 33.92184
228.3338, 38.37827
228.8159, 44.79358
229.2981, 52.03671
229.7802, 58.11243
230.2623, 61.53790
230.7444, 62.62936
231.2265, 66.40732
231.7086, 75.08563
232.1908, 83.97885
232.6729, 92.07248
233.1550, 99.58258
233.6371, 107.1286
234.1192, 115.0955
234.6013, 123.3963
235.0835, 131.2241
235.5656, 138.2752
236.0477, 145.3409
236.5298, 153.1787
237.0119, 161.2117
237.4940, 168.2303
237.9762, 173.4847
238.4583, 177.2490
238.9404, 180.8430
239.4225, 184.0452
239.9046, 187.3361
240.3867, 191.5401
240.8689, 196.0150
241.3510, 199.0441
241.8331, 199.5793
242.3152, 198.2830
242.7973, 197.1857
243.2794, 196.0993
243.7616, 195.4448
244.2437, 195.5121
244.7258, 196.1805
245.2079, 197.0939
245.6900, 198.1177
246.1721, 199.3123
246.6543, 200.5984
247.1364, 201.5532
247.6185, 203.5976
248.1006, 207.9180
248.5827, 214.0225
249.0648, 220.3104
249.5470, 226.5551
250.0291, 232.3938
250.5112, 237.4065
250.9933, 241.6034
251.4754, 245.2160
251.9576, 248.9215
252.4397, 252.3311
252.9218, 253.9525
253.4039, 253.7054
253.8860, 250.8344
254.3681, 244.7919
254.8503, 235.6135
255.3324, 225.1209
255.8145, 214.2473
256.2966, 202.9662
256.7787, 191.1483
257.2608, 178.8270
257.7430, 165.8193
258.2251, 151.5615
258.7072, 136.3412
259.1893, 122.0263
259.6714, 109.8500
260.1535, 99.63748
260.6357, 90.16922
261.1178, 80.82501
261.5999, 73.19168
262.0820, 68.69946
262.5641, 66.87723
263.0462, 65.27466
263.5284, 61.58710
264.0105, 56.37201
264.4926, 52.54477
264.9747, 50.23840
265.4568, 49.40741
265.9389, 50.27905
266.4211, 52.23990
266.9032, 54.21393
267.3853, 55.42441
267.8674, 56.13330
268.3495, 57.61462
268.8316, 59.48285
269.3138, 62.98227
269.7959, 69.84421
270.2780, 78.11142
270.7601, 84.73322
271.2422, 87.72629
271.7243, 88.34854
272.2065, 90.86096
272.6886, 96.62692
273.1707, 102.0143
273.6528, 106.7433
274.1349, 110.3906
274.6170, 112.3528
275.0992, 112.3334
275.5813, 110.7021
276.0634, 108.4276
276.5455, 105.8719
277.0276, 101.8134
277.5097, 96.02072
277.9919, 88.96237
278.4740, 80.81219
278.9561, 71.60941
279.4382, 61.95746
279.9203, 53.04520
280.4024, 45.83377
280.8846, 37.32260
281.3667, 24.87616
281.8488, 12.71268
282.3309, 4.176819
282.8130, 1.2238000E-02
283.2951, 1.588806
283.7773, 2.870667
284.2594, 2.937958
284.7415, 5.051056
285.2236, 11.74435
285.7057, 18.35464
286.1878, 22.40448
286.6700, 23.45477
287.1521, 22.29929
287.6342, 19.45374
288.1163, 14.20642
288.5984, 10.14377
289.0805, 7.762939
289.5627, 6.013977
290.0448, 4.760681
290.5269, 3.788635
291.0090, 2.674072
291.4911, 0.9342350
291.9732, 1.537170
292.4554, 3.233521
292.9375, 2.622559
293.4196, 2.772919
293.9017, 4.626068
294.3838, 8.047668
294.8659, 12.85919
295.3481, 19.23904
295.8302, 26.89005
296.3123, 31.42624
296.7944, 28.12668
297.2765, 26.67053
297.7586, 29.71927
298.2408, 35.64523
298.7229, 41.99094
299.2050, 47.39908
299.6871, 52.10577
300.1692, 56.96561
300.6513, 61.25906
301.1335, 66.65961
301.6156, 74.93387
302.0977, 83.67200
302.5798, 89.82541
303.0619, 92.23141
303.5440, 92.91934
304.0262, 96.31750
304.5083, 105.2846
304.9904, 112.7403
305.4725, 118.4096
305.9546, 122.7766
306.4367, 126.2735
306.9189, 128.9794
307.4010, 130.7266
307.8831, 131.5012
308.3652, 132.3802
308.8473, 128.9361
309.3294, 118.4642
309.8116, 106.5963
310.2937, 96.85861
310.7758, 89.31845
311.2579, 81.78864
311.7400, 71.95746
312.2221, 59.11716
312.7043, 48.54681
313.1864, 40.81055
313.6685, 34.35059
314.1506, 28.90808
314.6327, 24.23877
315.1148, 19.96759
315.5970, 15.82263
316.0791, 11.83975
316.5612, 8.536652
317.0433, 5.494629
317.5254, 3.580933
318.0075, 4.479370
318.4897, 6.334686
318.9718, 5.968079
319.4539, 1.634338
319.9360, 4.959412
320.4181, 8.331482
320.9002, 4.738342
321.3824, 2.383698
321.8645, 2.962982
322.3466, 4.341309
322.8287, 4.211792
323.3108, 1.867493
323.7929, 1.437286
324.2751, 3.413300
324.7572, 2.449738
325.2393, 3.346039
325.7214, 7.380493
326.2035, 12.05948
326.6856, 15.59244
327.1678, 17.84207
327.6499, 19.98120
328.1320, 23.37592
328.6141, 28.41467
329.0962, 32.82126
329.5783, 35.57867
330.0605, 38.75516
330.5426, 43.03851
331.0247, 48.48834
331.5068, 54.99457
331.9889, 62.56287
332.4710, 71.12823
332.9532, 79.63452
333.4353, 87.57986
333.9174, 96.10397
334.3995, 105.9408
334.8816, 116.3480
335.3637, 125.7886
335.8459, 133.3394
336.3280, 140.5069
336.8101, 151.6956
337.2922, 170.2030
337.7743, 188.1506
338.2564, 204.8185
338.7386, 220.8439
339.2206, 236.3121
339.7028, 251.4732
340.1849, 267.0926
340.6670, 284.5107
341.1491, 304.4887
341.6312, 324.1890
342.1133, 342.1288
342.5955, 360.9072
343.0776, 382.6305
343.5597, 406.7119
344.0418, 430.4051
344.5239, 450.8706
345.0060, 467.9446
345.4882, 487.3799
345.9703, 511.6138
346.4524, 536.1669
346.9345, 560.1250
347.4166, 583.3935
347.8987, 605.9168
348.3809, 627.3067
348.8630, 648.3928
349.3451, 672.2180
349.8272, 701.6098
350.3093, 729.6010
350.7914, 753.7010
351.2736, 776.4568
351.7557, 800.6855
352.2378, 827.4070
352.7199, 854.4567
353.2020, 878.1596
353.6841, 898.0276
354.1663, 915.8534
354.6484, 931.3904
355.1305, 945.3986
355.6126, 958.1057
356.0947, 969.6242
356.5768, 980.0431
357.0590, 990.4261
357.5411, 1000.907
358.0232, 1005.746
358.5053, 1002.838
358.9874, 996.0500
359.4695, 986.2288
359.9517, 974.0561
360.4338, 961.0057
360.9159, 949.1118
361.3980, 936.2715
361.8801, 914.6947
362.3622, 882.5938
362.8444, 845.5188
363.3265, 803.0257
363.8086, 758.0662
364.2907, 713.5790
364.7728, 670.3117
365.2549, 627.2457
365.7371, 582.2421
366.2192, 534.6031
366.7013, 489.7346
367.1834, 449.0217
367.6655, 411.6931
368.1476, 376.5733
368.6298, 343.6555
369.1119, 315.1166
369.5940, 293.6976
370.0761, 278.3506
370.5582, 264.5182
371.0403, 252.2370
371.5225, 240.8019
372.0046, 228.8863
372.4867, 217.3330
372.9688, 208.2224
373.4509, 203.5547
373.9330, 201.0738
374.4152, 197.4951
374.8973, 192.7033
375.3794, 187.8821
375.8615, 183.3269
376.3436, 179.2903
376.8257, 176.0196
377.3079, 173.3871
377.7900, 171.4483
378.2721, 170.8724
378.7542, 171.7991
379.2363, 173.0417
379.7184, 173.9423
380.2006, 175.2155
380.6827, 177.8311
381.1648, 181.7871
381.6469, 187.0461
382.1290, 194.2173
382.6111, 202.2301
383.0933, 209.6763
383.5754, 216.3926
384.0575, 222.9727
384.5396, 229.5626
385.0217, 236.4392
385.5038, 245.1298
385.9860, 257.2517
386.4681, 269.7344
386.9502, 281.0181
387.4323, 291.1213
387.9144, 300.5202
388.3965, 309.5596
388.8787, 317.7585
389.3608, 323.9713
389.8429, 330.1542
390.3250, 331.1826
390.8071, 325.1231
391.2892, 313.7303
391.7714, 298.4611
392.2535, 279.7951
392.7356, 258.6867
393.2177, 236.0942
393.6998, 211.5261
394.1819, 187.6950
394.6641, 162.6621
395.1462, 139.8891
395.6283, 122.0477
396.1104, 108.3612
396.5925, 96.51312
397.0746, 84.94446
397.5568, 73.90836
398.0389, 64.43521
398.5210, 57.71021
399.0031, 51.27179
399.4852, 44.85699
399.9673, 38.58533
400.4495, 32.25797
400.9316, 25.92599
401.4137, 20.35190
401.8958, 17.02731
402.3779, 17.60193
402.8600, 15.89188
403.3422, 9.093018
403.8243, 2.807556
404.3064, 0.2964170
404.7885, 0.9381100
405.2706, 2.072998
405.7527, 1.705292
406.2349, 3.0396000E-02
406.7170, 1.390656
407.1991, 2.632751
407.6812, 3.454926
408.1633, 3.710419
408.6454, 3.604828
409.1276, 3.337372
409.6097, 2.976166
410.0918, 2.528687
410.5739, 1.951660
411.0560, 1.187012
411.5381, 0.5943300
412.0203, 4.1382000E-02
412.5024, 0.1390990
412.9845, 0.5512700
413.4666, 1.912476
413.9487, 3.023560
414.4308, 2.991241
414.9130, 2.162628
415.3951, 1.898804
415.8772, 2.402618
416.3593, 2.977478
416.8414, 4.173828
417.3235, 4.957062
417.8057, 3.427216
418.2878, 1.906372
418.7699, 7.573853
419.2520, 9.858795
419.7341, 9.109436
420.2162, 8.801453
420.6984, 10.39880
421.1805, 12.28214
421.6626, 11.65695
422.1447, 8.440002
422.6268, 7.236145
423.1089, 10.81580
423.5911, 16.86273
424.0732, 22.76746
424.5553, 28.24033
425.0374, 32.44962
425.5195, 34.16031
426.0016, 33.88306
426.4838, 35.35596
426.9659, 40.08359
427.4480, 44.90982
427.9301, 47.96521
428.4122, 50.11166
428.8943, 52.95013
429.3765, 57.02960
429.8586, 62.55786
430.3407, 70.16101
430.8228, 81.96219
431.3049, 91.08121
431.7870, 94.94916
432.2692, 97.97574
432.7513, 102.9080
433.2334, 110.0660
433.7155, 119.0729
434.1976, 129.8978
434.6797, 142.2850
435.1619, 152.7204
435.6440, 158.9958
436.1261, 165.8459
436.6082, 173.7671
437.0903, 182.7661
437.5724, 193.0906
438.0546, 204.7340
438.5367, 216.9712
439.0188, 228.2121
439.5009, 237.1923
439.9830, 249.5313
440.4651, 268.2937
440.9473, 287.7171
441.4294, 305.1898
441.9115, 321.0766
442.3936, 337.0746
442.8757, 353.7814
443.3578, 371.0488
443.8400, 389.3302
444.3221, 409.4440
444.8042, 428.8750
445.2863, 445.8721
445.7684, 462.1513
446.2505, 479.5182
446.7327, 498.4775
447.2148, 516.4214
447.6969, 530.2851
448.1790, 540.7659
448.6611, 552.6859
449.1432, 568.8589
449.6254, 582.2651
450.1075, 585.0496
450.5896, 579.9633
451.0717, 574.6372
451.5538, 571.5294
452.0359, 568.9939
452.5181, 565.1035
453.0002, 559.6917
453.4823, 554.0151
453.9644, 548.8258
454.4465, 543.6189
454.9286, 536.6047
455.4108, 526.1900
455.8929, 518.8571
456.3750, 518.0070
456.8571, 519.9459
457.3392, 521.7289
457.8214, 522.5239
458.3035, 520.8311
458.7856, 515.2123
459.2677, 505.6275
459.7498, 494.3661
460.2319, 481.8065
460.7141, 467.5072
461.1962, 450.9499
461.6783, 432.5728
462.1604, 412.7067
462.6425, 391.5994
463.1246, 370.2478
463.6068, 350.4851
464.0889, 333.4755
464.5710, 315.0824
465.0531, 293.7888
465.5352, 272.7422
466.0173, 253.1240
466.4995, 234.9480
466.9816, 217.9018
467.4637, 201.7448
467.9458, 186.6956
468.4279, 173.5101
468.9100, 162.8018
469.3922, 152.0385
469.8743, 139.3780
470.3564, 126.9605
470.8385, 116.6661
471.3206, 108.7298
471.8027, 101.5866
472.2849, 93.68050
472.7670, 85.57043
473.2491, 79.58250
473.7312, 76.52859
474.2133, 73.70280
474.6954, 68.95576
475.1776, 62.95117
475.6597, 57.29893
476.1418, 52.20468
476.6239, 47.72906
477.1060, 44.16251
477.5881, 41.34619
478.0703, 38.90746
478.5524, 36.81163
479.0345, 34.84647
479.5166, 32.63599
479.9987, 29.97540
480.4808, 28.08835
480.9630, 28.16425
481.4451, 28.15031
481.9272, 26.28246
482.4093, 22.98314
482.8914, 19.81218
483.3735, 17.67207
483.8557, 16.40784
484.3378, 15.44034
484.8199, 15.63097
485.3020, 14.83444
485.7841, 11.80937
486.2662, 8.638168
486.7484, 6.973694
487.2305, 6.936890
487.7126, 7.586807
488.1947, 8.117264
488.6768, 8.547897
489.1589, 9.191345
489.6411, 10.46875
490.1232, 11.48773
490.6053, 11.63309
491.0874, 11.47958
491.5695, 11.78044
492.0516, 12.83189
492.5338, 13.34595
493.0159, 11.50240
493.4980, 7.609985
493.9801, 4.492477
494.4622, 2.613922
494.9443, 1.465057
495.4265, 0.9581450
495.9086, 0.8751830
496.3907, 0.6176450
496.8728, 0.7218170
497.3549, 1.620819
497.8370, 0.2005460
498.3192, 3.785568
498.8013, 5.089767
499.2834, 2.050339
499.7655, 2.441071
500.2476, 3.418381
500.7297, 0.5411380
501.2119, 2.884842
501.6940, 1.327713
502.1761, 0.4169460
502.6582, 0.8863680
503.1403, 4.475616
503.6224, 7.268036
504.1045, 7.300308
504.5866, 5.267120
505.0688, 3.599472
505.5509, 1.746460
506.0330, 1.231903
506.5151, 3.725342
506.9972, 6.281815
507.4793, 6.707855
507.9615, 4.921265
508.4436, 2.107574
508.9257, 1.365875
509.4078, 5.047470
509.8899, 5.644836
510.3720, 1.464081
510.8542, 2.103485
511.3363, 2.289536
511.8184, 1.270004
512.3005, 1.208435
512.7827, 2.563690
513.2648, 4.056229
513.7469, 4.619293
514.2290, 4.578506
514.7111, 5.121628
515.1932, 6.652771
515.6754, 7.494095
516.1575, 5.940369
516.6396, 2.535812
517.1217, 4.8294000E-02
517.6038, 1.288559
518.0859, 1.850754
518.5681, 1.372314
519.0502, 0.3440700
519.5323, 0.2661440
520.0144, 0.2008670
520.4965, 0.2883910
520.9786, 1.787613
521.4608, 5.315857
521.9429, 6.399033
522.4250, 3.002441
522.9071, 0.2144780
523.3892, 1.405807
523.8713, 1.383774
524.3535, 1.572800
524.8356, 2.549316
525.3177, 3.700073
525.7998, 4.059494
526.2819, 3.601883
526.7640, 2.468369
527.2462, 0.6358950
527.7283, 3.013702
528.2104, 2.513245
528.6925, 0.3544160
529.1746, 0.4968720
529.6567, 1.877319
530.1389, 5.071487
530.6210, 5.512665
531.1031, 3.385315
531.5852, 2.069656
532.0673, 2.984436
532.5494, 4.370026
533.0316, 3.666153
533.5137, 1.029114
533.9958, 0.7101750
534.4779, 0.9678040
534.9600, 0.1366880
535.4421, 2.178436
535.9243, 5.414169
536.4064, 8.034042
536.8885, 9.356750
537.3706, 9.345291
537.8527, 7.719894
538.3348, 2.296921
538.8170, 0.2848820
539.2991, 2.743561
539.7812, 5.926590
540.2633, 5.375854
540.7454, 2.213791
541.2275, 0.1540830
541.7097, 1.557510
542.1918, 5.219666
542.6739, 8.227600
543.1560, 10.80701
543.6381, 11.91980
544.1202, 10.03635
544.6024, 7.668533
545.0845, 6.748917
545.5666, 6.954956
546.0487, 6.268982
546.5308, 1.949966
547.0129, 3.043335
547.4951, 3.402145
547.9772, 0.7495880
548.4593, 4.917084
548.9414, 7.468597
549.4235, 8.753296
549.9056, 9.094681
550.3878, 8.357086
550.8699, 7.766174
551.3520, 7.825165
551.8341, 7.890701
552.3162, 7.193802
552.7983, 5.964233
553.2805, 5.099869
553.7626, 5.112946
554.2447, 5.888443
554.7268, 7.144135
555.2089, 9.985245
555.6910, 11.49440
556.1732, 10.22986
556.6553, 8.787292
557.1374, 9.089325
557.6195, 10.51729
558.1016, 11.36012
558.5837, 10.63519
559.0659, 8.846588
559.5480, 7.505081
560.0301, 6.563889
560.5122, 6.146255
560.9943, 6.505768
561.4764, 7.142929
561.9586, 7.614029
562.4407, 7.904434
562.9228, 8.029236
563.4049, 7.678833
563.8870, 7.388199
564.3691, 8.019409
564.8513, 9.360611
565.3334, 10.13918
565.8155, 9.652313
566.2976, 8.635101
566.7797, 8.428589
567.2618, 9.523788
567.7440, 10.12437
568.2261, 10.94131
568.7082, 11.03247
569.1903, 8.856094
569.6724, 5.515656
570.1545, 3.567841
570.6367, 4.445892
571.1188, 6.945953
571.6009, 8.695648
572.0830, 9.752167
572.5651, 9.812515
573.0472, 7.859421
573.5294, 5.864441
574.0115, 4.973648
574.4936, 4.882904
574.9757, 4.663269
575.4578, 3.742218
575.9399, 2.736328
576.4221, 2.399826
576.9042, 2.677567
577.3863, 3.117432
577.8684, 3.628784
578.3505, 4.122269
578.8326, 4.453415
579.3148, 4.602646
579.7969, 4.989563
580.2790, 6.134659
580.7611, 6.945877
581.2432, 6.803711
581.7253, 6.037247
582.2075, 4.875229
582.6896, 3.408798
583.1717, 2.204422
583.6538, 2.194183
584.1359, 3.600555
584.6180, 5.090866
585.1002, 7.110748
585.5823, 8.694733
586.0643, 9.513000
586.5464, 9.744858
587.0286, 9.564331
587.5107, 9.053970
587.9928, 8.474426
588.4749, 8.140945
588.9570, 7.944366
589.4391, 7.345200
589.9213, 6.120392
590.4034, 5.368332
590.8855, 6.190765
591.3676, 7.996902
591.8497, 8.574417
592.3318, 7.178146
592.8140, 5.947495
593.2961, 5.755341
593.7782, 5.931000
594.2603, 5.577301
594.7424, 4.698700
595.2245, 4.168442
595.7067, 4.807251
596.1888, 6.260498
596.6709, 6.510178
597.1530, 4.422729
597.6351, 3.233368
598.1172, 4.373230
598.5994, 5.624054
599.0815, 4.669312
599.5636, 2.026382
600.0457, 0.7708440
600.5278, 4.082321
601.0099, 9.233047
601.4921, 10.44961
601.9742, 7.666763
602.4563, 5.691574
602.9384, 6.441666
603.4205, 8.402069
603.9026, 9.634262
604.3848, 10.17316
604.8669, 10.03198
605.3490, 8.975891
605.8311, 7.900925
606.3132, 6.979446
606.7953, 6.261551
607.2775, 5.608185
607.7596, 4.982819
608.2417, 4.976257
608.7238, 6.850433
609.2059, 11.39067
609.6880, 13.88754
610.1702, 12.91623
610.6523, 11.41896
611.1344, 10.24983
611.6165, 9.169968
612.0986, 7.611893
612.5807, 5.342590
613.0629, 3.495392
613.5450, 3.165955
614.0271, 4.102814
614.5092, 5.917358
614.9913, 8.824890
615.4734, 10.67213
615.9556, 9.543961
616.4377, 6.478867
616.9198, 5.179520
617.4019, 6.706146
617.8840, 7.745193
618.3661, 7.002151
618.8483, 5.948074
619.3304, 5.998154
619.8125, 7.072052
620.2946, 8.269424
620.7767, 9.029587
621.2589, 9.386276
621.7410, 9.311035
622.2231, 8.449310
622.7052, 8.226334
623.1873, 9.644958
623.6694, 10.97919
624.1516, 10.97047
624.6337, 10.06284
625.1158, 9.684753
625.5979, 10.85582
626.0800, 12.08159
626.5621, 11.60483
627.0443, 9.859756
627.5264, 8.290085
628.0085, 7.202805
628.4906, 6.804993
628.9727, 7.469452
629.4548, 9.189758
629.9370, 10.29140
630.4191, 10.14824
630.9012, 10.28374
631.3833, 11.57567
631.8654, 12.98672
632.3475, 13.24800
632.8297, 12.33488
633.3118, 11.37556
633.7939, 11.36244
634.2760, 12.02730
634.7581, 12.34061
635.2402, 12.19077
635.7224, 12.10847
636.2045, 11.94041
636.6866, 12.26442
637.1687, 14.27730
637.6508, 17.79930
638.1329, 19.63329
638.6151, 17.36720
639.0972, 14.29248
639.5793, 12.96184
640.0614, 12.98579
640.5435, 13.43318
641.0256, 14.02737
641.5078, 14.55116
641.9899, 14.60059
642.4720, 14.03307
642.9541, 13.70741
643.4362, 13.42732
643.9183, 13.76909
644.4005, 15.20059
644.8826, 16.96667
645.3647, 18.73064
645.8468, 20.37450
646.3289, 21.11165
646.8110, 19.33868
647.2932, 16.26660
647.7753, 15.10159
648.2574, 15.97585
648.7395, 17.65372
649.2216, 20.08749
649.7037, 22.36330
650.1859, 22.61919
650.6680, 20.34396
651.1501, 18.53178
651.6322, 17.40297
652.1143, 16.79716
652.5964, 17.04745
653.0786, 17.58563
653.5607, 17.42493
654.0428, 16.28683
654.5249, 15.05016
655.0070, 15.06750
655.4891, 16.35081
655.9713, 16.14612
656.4534, 13.28780
656.9355, 11.32600
657.4176, 13.04773
657.8997, 16.13100
658.3818, 17.71106
658.8640, 17.26698
659.3461, 17.44472
659.8282, 20.55916
660.3103, 23.82379
660.7924, 24.05846
661.2745, 21.87755
661.7567, 19.40170
662.2388, 17.31595
662.7209, 15.99254
663.2030, 16.45265
663.6851, 19.53575
664.1672, 21.70901
664.6494, 22.44897
665.1315, 22.90709
665.6136, 23.23888
666.0957, 23.55890
666.5778, 24.13316
667.0599, 25.09160
667.5421, 26.05322
668.0242, 26.99916
668.5063, 27.64139
668.9884, 26.80800
669.4705, 24.28822
669.9526, 22.17969
670.4348, 21.63914
670.9169, 22.22676
671.3990, 23.02011
671.8811, 24.31122
672.3632, 25.25316
672.8453, 25.91760
673.3275, 26.40916
673.8096, 26.11096
674.2917, 25.29483
674.7738, 24.93317
675.2559, 25.54198
675.7380, 26.84030
676.2202, 28.65781
676.7023, 30.86780
677.1844, 32.59747
677.6665, 33.77184
678.1486, 34.11136
678.6307, 33.09880
679.1129, 31.35281
679.5950, 29.95392
680.0771, 28.82721
680.5592, 28.51418
681.0413, 29.97699
681.5234, 31.38914
682.0056, 31.13228
682.4877, 29.73883
682.9698, 28.45656
683.4519, 27.88536
683.9340, 28.30862
684.4161, 30.72581
684.8983, 35.48883
685.3804, 37.57635
685.8625, 35.61572
686.3446, 33.50894
686.8267, 33.53781
687.3088, 34.07903
687.7910, 33.00453
688.2731, 29.97353
688.7552, 27.17107
689.2373, 25.79684
689.7194, 24.92610
690.2015, 23.36308
690.6837, 21.45528
691.1658, 20.52133
691.6479, 21.12886
692.1300, 22.64903
692.6121, 24.31450
693.0942, 26.26199
693.5764, 27.25299
694.0585, 26.61072
694.5406, 25.88606
695.0227, 25.92856
695.5048, 25.87355
695.9869, 24.37387
696.4691, 21.34149
696.9512, 19.07384
697.4333, 19.92465
697.9154, 21.67838
698.3975, 20.92374
698.8796, 18.16287
699.3618, 16.38831
699.8439, 16.77652
700.3260, 17.76736
700.8081, 17.12932
701.2902, 14.51134
701.7723, 13.61003
702.2545, 17.03239
702.7366, 19.00810
703.2187, 17.23470
703.7008, 14.27927
704.1829, 12.56856
704.6650, 12.37796
705.1472, 12.58379
705.6293, 12.55116
706.1114, 12.40703
706.5935, 12.35586
707.0756, 12.36861
707.5577, 12.26918
708.0399, 11.99043
708.5220, 11.64833
709.0041, 11.29117
709.4862, 10.91510
709.9683, 11.09706
710.4504, 13.31386
710.9326, 14.13777
711.4147, 11.43839
711.8968, 8.255966
712.3789, 7.454773
712.8610, 8.866028
713.3431, 10.39937
713.8253, 10.92131
714.3074, 10.62733
714.7895, 9.736786
715.2716, 8.324799
715.7537, 6.397491
716.2358, 3.666977
716.7180, 1.947418
717.2001, 3.503769
717.6822, 7.490234
718.1643, 8.115707
718.6464, 1.804657
719.1285, 2.578629
719.6107, 3.219849
720.0928, 2.498581
720.5749, 1.632996
721.0570, 0.9143680
721.5391, 0.5203700
722.0212, 0.5907290
722.5034, 0.8429260
722.9855, 0.7025300
723.4676, 0.3294530
723.9497, 0.8030400
724.4318, 2.331604
724.9139, 4.196854
725.3961, 6.252701
725.8782, 8.133041
726.3603, 8.698471
726.8424, 7.250076
727.3245, 6.142212
727.8066, 5.679031
728.2888, 5.396500
728.7709, 4.512680
729.2530, 3.765533
729.7351, 5.073090
730.2172, 9.004974
730.6993, 12.39290
731.1815, 10.64044
731.6636, 5.482803
732.1457, 3.726105
732.6278, 5.755920
733.1099, 8.436554
733.5920, 10.90276
734.0742, 12.60684
734.5563, 12.57973
735.0384, 10.43520
735.5205, 8.365128
736.0026, 5.239716
736.4847, 3.506287
736.9669, 5.366776
737.4490, 8.359680
737.9311, 9.606262
738.4132, 8.685776
738.8953, 7.159073
739.3774, 5.822906
739.8596, 5.020828
740.3417, 6.088058
740.8238, 8.829865
741.3059, 9.832214
741.7880, 7.845032
742.2701, 5.143341
742.7523, 3.769104
743.2344, 3.686615
743.7165, 4.246964
744.1986, 7.132324
744.6807, 8.295898
745.1628, 5.711502
745.6450, 2.491501
746.1271, 1.678162
746.6092, 2.391418
747.0913, 1.097229
747.5734, 4.435699
748.0555, 10.44437
748.5377, 11.68808
749.0198, 9.410126
749.5019, 8.162109
749.9840, 8.513123
750.4661, 9.390900
750.9482, 10.19849
751.4304, 11.03049
751.9125, 12.11014
752.3946, 13.01654
752.8767, 15.22281
753.3588, 19.29263
753.8409, 23.93103
754.3231, 30.04706
754.8052, 35.74185
755.2873, 37.52371
755.7694, 34.77823
756.2515, 33.16425
756.7336, 38.27628
757.2158, 46.57138
757.6979, 51.88580
758.1800, 54.66257
758.6621, 58.21634
759.1442, 63.72327
759.6263, 69.65927
760.1085, 74.03052
760.5906, 76.75696
761.0727, 82.45215
761.5548, 93.28821
762.0369, 103.8953
762.5190, 113.9852
763.0012, 123.2008
763.4833, 130.7249
763.9654, 137.0653
764.4475, 144.1722
764.9296, 153.1543
765.4117, 162.5178
765.8939, 170.7627
766.3760, 178.6578
766.8581, 188.1889
767.3402, 199.3190
767.8223, 209.3101
768.3044, 216.2736
768.7866, 221.8969
769.2687, 230.5015
769.7508, 243.1614
770.2329, 254.9068
770.7150, 265.8182
771.1971, 275.7471
771.6793, 284.8572
772.1614, 292.8095
772.6435, 298.9158
773.1256, 302.9795
773.6077, 306.1573
774.0898, 309.7712
774.5720, 311.7991
775.0541, 309.6980
775.5362, 305.2029
776.0183, 301.8604
776.5004, 300.3332
776.9825, 298.1719
777.4647, 292.9771
777.9468, 285.4180
778.4289, 278.5937
778.9110, 272.7438
779.3931, 265.8053
779.8752, 255.8247
780.3574, 246.8228
780.8395, 243.5164
781.3216, 244.6774
781.8037, 243.8872
782.2858, 239.6506
782.7679, 235.0660
783.2501, 230.0475
783.7322, 225.6425
784.2143, 222.5850
784.6964, 221.1346
785.1785, 221.6196
785.6606, 224.2604
786.1428, 227.3953
786.6249, 228.0135
787.1070, 227.3071
787.5891, 230.7910
788.0712, 238.7426
788.5533, 246.4751
789.0355, 251.9001
789.5176, 257.0437
789.9997, 264.2903
790.4818, 273.4208
790.9639, 284.6356
791.4460, 299.5171
791.9282, 314.4496
792.4103, 327.7389
792.8924, 341.6779
793.3745, 358.3541
793.8566, 377.8601
794.3387, 399.1412
794.8209, 421.3356
795.3030, 445.1967
795.7851, 472.2653
796.2672, 501.7787
796.7493, 531.6073
797.2314, 561.5524
797.7136, 592.5700
798.1957, 625.2808
798.6778, 659.5114
799.1599, 694.7123
799.6420, 730.9492
800.1241, 769.0524
800.6063, 811.4383
801.0884, 851.8989
801.5705, 884.3836
802.0526, 914.5871
802.5347, 950.1816
803.0168, 992.3709
803.4990, 1032.370
803.9811, 1068.132
804.4632, 1100.203
804.9453, 1128.072
805.4274, 1152.698
805.9095, 1175.651
806.3917, 1197.065
806.8738, 1216.379
807.3559, 1233.570
807.8380, 1247.404
808.3201, 1254.928
808.8022, 1256.272
809.2844, 1252.557
809.7665, 1243.481
810.2486, 1231.416
810.7307, 1217.602
811.2128, 1202.337
811.6949, 1186.812
812.1771, 1172.002
812.6592, 1154.937
813.1413, 1135.600
813.6234, 1114.149
814.1055, 1089.091
814.5876, 1062.838
815.0698, 1037.719
815.5519, 1014.485
816.0340, 995.3734
816.5161, 982.6673
816.9982, 974.2518
817.4803, 967.3846
817.9625, 962.8865
818.4446, 962.0267
818.9267, 965.4253
819.4088, 976.1660
819.8909, 997.1797
820.3730, 1026.780
820.8552, 1059.175
821.3373, 1094.719
821.8194, 1132.212
822.3015, 1171.233
822.7836, 1212.933
823.2657, 1257.566
823.7479, 1305.552
824.2300, 1356.836
824.7121, 1411.560
825.1942, 1468.790
825.6763, 1529.496
826.1584, 1591.123
826.6406, 1650.185
827.1227, 1710.183
827.6048, 1776.502
828.0869, 1849.904
828.5690, 1927.544
829.0511, 2008.136
829.5333, 2090.103
830.0154, 2170.383
830.4975, 2249.480
830.9796, 2331.622
831.4617, 2417.867
831.9438, 2499.540
832.4260, 2571.442
832.9081, 2632.264
833.3902, 2679.225
833.8723, 2713.210
834.3544, 2731.085
834.8365, 2737.448
835.3187, 2720.731
835.8008, 2676.549
836.2829, 2608.388
836.7650, 2518.309
837.2471, 2406.547
837.7292, 2281.167
838.2114, 2141.948
838.6935, 1992.238
839.1756, 1825.381
839.6577, 1653.767
840.1398, 1492.052
840.6219, 1343.032
841.1041, 1206.230
841.5862, 1081.260
842.0683, 968.0326
842.5504, 868.0815
843.0325, 780.4910
843.5146, 699.9001
843.9968, 626.2945
844.4789, 560.1209
844.9610, 502.2927
845.4431, 451.5709
845.9252, 405.9604
846.4073, 365.3323
846.8895, 330.6745
847.3716, 304.9255
847.8537, 281.0015
848.3358, 256.6867
848.8179, 234.2799
849.3000, 216.3121
849.7822, 201.8365
850.2643, 186.6925
850.7464, 167.6421
851.2285, 150.4735
851.7106, 140.0733
852.1927, 132.7476
852.6749, 123.2379
853.1570, 112.1475
853.6391, 103.9405
854.1212, 100.7301
854.6033, 99.43811
855.0854, 96.15680
855.5676, 91.46619
856.0497, 87.77878
856.5318, 85.03406
857.0139, 83.16824
857.4960, 82.20651
857.9781, 81.98511
858.4603, 82.04712
858.9424, 82.45343
859.4245, 86.88116
859.9066, 98.08228
860.3887, 107.0404
860.8708, 109.8711
861.3530, 114.2295
861.8351, 124.8722
862.3172, 139.5299
862.7993, 153.5245
863.2814, 165.5783
863.7635, 179.6763
864.2457, 199.2839
864.7278, 220.0208
865.2099, 237.9075
865.6920, 254.6497
866.1741, 273.8950
866.6563, 295.9575
867.1384, 316.4916
867.6205, 331.3327
868.1026, 343.8650
868.5847, 360.3022
869.0668, 380.3723
869.5490, 401.8922
870.0311, 424.4788
870.5132, 447.1314
870.9953, 468.9106
871.4774, 492.2816
871.9595, 522.4862
872.4417, 561.0037
872.9238, 598.4595
873.4059, 635.4860
873.8880, 670.7027
874.3701, 701.2012
874.8522, 731.5206
875.3344, 767.6829
875.8165, 807.9660
876.2986, 841.9944
876.7807, 871.0193
877.2628, 888.6193
877.7449, 894.7484
878.2271, 886.7512
878.7092, 859.2009
879.1913, 815.7850
879.6734, 763.7702
880.1555, 706.0792
880.6376, 643.5490
881.1198, 574.1381
881.6019, 502.5753
882.0840, 435.9486
882.5661, 374.9491
883.0482, 322.1578
883.5303, 278.1543
884.0125, 240.7738
884.4946, 208.6448
884.9767, 180.8006
885.4588, 153.7538
885.9409, 126.8257
886.4230, 104.3954
886.9052, 86.85385
887.3873, 73.69666
887.8694, 66.33337
888.3515, 61.81546
888.8336, 55.18634
889.3157, 46.14453
889.7979, 37.57135
890.2800, 28.17261
890.7621, 21.04158
891.2442, 18.84148
891.7263, 17.73616
892.2084, 13.55820
892.6906, 7.560486
893.1727, 4.894760
893.6548, 8.480682
894.1369, 11.43573
894.6190, 7.907440
895.1011, 2.123093
895.5833, 0.9706730
896.0654, 1.938339
896.5475, 3.282394
897.0296, 5.671326
897.5117, 7.548096
897.9938, 7.099915
898.4760, 5.407990
898.9581, 5.939468
899.4402, 8.366974
899.9223, 8.340729
900.4044, 4.915298
900.8865, 1.592316
901.3687, 0.4779050
901.8508, 0.9391940
902.3329, 1.656479
902.8150, 2.602951
903.2971, 4.168518
903.7792, 7.513657
904.2614, 9.375259
904.7435, 6.805832
905.2256, 4.011292
905.7077, 5.786621
906.1898, 11.04840
906.6719, 13.68805
907.1541, 11.83011
907.6362, 9.118973
908.1183, 4.336807
908.6004, 1.005249
909.0825, 3.101471
909.5646, 7.881866
910.0468, 10.48463
910.5289, 9.694839
911.0110, 8.122162
911.4931, 6.906448
911.9752, 6.329697
912.4573, 7.310150
912.9395, 8.974655
913.4216, 9.422379
913.9037, 8.510559
914.3858, 7.321655
914.8679, 6.445602
915.3500, 6.202377
915.8321, 8.079391
916.3142, 6.325592
916.7963, 10.46249
917.2784, 4.767349
917.7606, 0.6578830
918.2427, 0.4646610
918.7248, 2.085464
919.2069, 3.591095
919.6890, 4.869934
920.1711, 5.022507
920.6533, 3.495880
921.1354, 2.077560
921.6175, 0.7944340
922.0996, 0.1138150
922.5817, 0.4893040
923.0638, 0.4734650
923.5460, 7.0602000E-02
924.0281, 1.355286
924.5102, 1.182861
924.9923, 3.104797
925.4744, 5.891937
925.9565, 3.097885
926.4387, 0.4044950
926.9208, 0.7039950
927.4029, 5.103973
927.8850, 7.702347
928.3671, 6.444870
928.8492, 4.513779
929.3314, 3.783279
929.8135, 3.767517
930.2956, 4.026260
930.7777, 4.524841
931.2598, 5.473846
931.7419, 6.797501
932.2241, 7.588303
932.7062, 6.759262
933.1883, 5.794067
933.6704, 8.768570
934.1525, 14.23541
934.6346, 14.68138
935.1168, 9.603638
935.5989, 5.818192
936.0810, 6.529968
936.5631, 9.836975
937.0452, 13.48016
937.5273, 17.37898
938.0095, 20.06801
938.4916, 21.58069
938.9737, 21.55580
939.4558, 19.03587
939.9379, 16.72328
940.4200, 16.71193
940.9022, 18.12605
941.3843, 18.67696
941.8664, 17.80042
942.3485, 17.78540
942.8306, 19.68187
943.3127, 21.07974
943.7949, 21.31918
944.2770, 20.76985
944.7591, 18.98241
945.2412, 16.62288
945.7233, 16.24712
946.2054, 19.38161
946.6876, 22.42708
947.1697, 24.73282
947.6518, 25.83897
948.1339, 24.22550
948.6160, 21.71755
949.0981, 21.56251
949.5803, 24.04974
950.0624, 25.82706
950.5445, 24.06860
951.0266, 21.92015
951.5087, 22.55182
951.9908, 24.91908
952.4730, 28.13200
952.9551, 31.40168
953.4372, 32.30650
953.9193, 29.94006
954.4014, 27.25486
954.8835, 28.11891
955.3657, 30.95097
955.8478, 30.93555
956.3299, 28.53567
956.8120, 26.45892
957.2941, 25.18211
957.7762, 26.08535
958.2584, 30.57880
958.7405, 35.94070
959.2226, 36.07307
959.7047, 30.44324
960.1868, 28.36338
960.6689, 31.02498
961.1511, 32.18291
961.6332, 29.26888
962.1153, 25.79004
962.5974, 25.15308
963.0795, 26.70964
963.5616, 27.42624
964.0438, 26.51028
964.5259, 26.01900
965.0080, 26.26298
965.4901, 26.94186
965.9722, 28.86593
966.4543, 30.59427
966.9365, 29.96792
967.4186, 27.11257
967.9007, 25.13630
968.3828, 25.01710
968.8649, 25.46394
969.3470, 26.57102
969.8292, 27.69604
970.3113, 28.48469
970.7934, 28.83670
971.2755, 28.73809
971.7576, 28.27438
972.2397, 27.71758
972.7219, 27.60697
973.2040, 26.88006
973.6861, 23.51581
974.1682, 20.16254
974.6503, 19.70815
975.1324, 21.98268
975.6146, 24.18507
976.0967, 25.11821
976.5788, 25.43266
977.0609, 26.35193
977.5430, 26.63229
978.0251, 23.18209
978.5073, 18.23154
978.9894, 17.29200
979.4715, 20.51578
979.9536, 23.56631
980.4357, 24.06356
980.9178, 23.13577
981.4000, 21.90720
981.8821, 20.57542
982.3642, 20.64394
982.8463, 22.08953
983.3284, 21.75146
983.8105, 18.62653
984.2927, 16.44357
984.7748, 18.57657
985.2569, 22.99947
985.7390, 24.41852
986.2211, 22.49551
986.7032, 21.35555
987.1854, 21.22221
987.6675, 21.40594
988.1496, 22.04982
988.6317, 21.78241
989.1138, 18.81788
989.5959, 14.19978
990.0781, 12.51551
990.5602, 14.80446
991.0423, 16.84145
991.5244, 19.03940
992.0065, 20.55115
992.4886, 20.49226
992.9708, 19.73952
993.4529, 19.73103
993.9350, 18.17038
994.4171, 19.60688
994.8992, 15.31598
995.3813, 12.36746
995.8635, 10.54024
996.3456, 10.39098
996.8277, 13.83562
997.3098, 18.05556
997.7919, 19.45491
998.2740, 18.02473
998.7562, 16.69822
999.2383, 16.48923
999.7204, 15.74062
1000.203, 12.87566
1000.685, 10.55349
1001.167, 11.07784
1001.649, 13.11658
1002.131, 14.63102
1002.613, 15.21883
1003.095, 15.08366
1003.577, 13.76788
1004.059, 12.61711
1004.542, 12.45941
1005.024, 12.64412
1005.506, 12.19213
1005.988, 11.60288
1006.470, 12.37955
1006.952, 14.88031
1007.434, 17.18651
1007.916, 18.11001
1008.398, 17.99092
1008.881, 16.41863
1009.363, 14.51969
1009.845, 14.18802
1010.327, 15.09797
1010.809, 15.49167
1011.291, 14.69310
1011.773, 13.79562
1012.255, 14.05800
1012.738, 14.70190
1013.220, 14.59734
1013.702, 13.79984
1014.184, 12.06067
1014.666, 9.691185
1015.148, 8.153214
1015.630, 8.187546
1016.112, 9.110161
1016.594, 10.49650
1017.077, 11.82188
1017.559, 10.97265
1018.041, 8.648537
1018.523, 8.803284
1019.005, 11.86149
1019.487, 14.79200
1019.969, 15.98539
1020.451, 15.07705
1020.934, 10.14561
1021.416, 11.25844
1021.898, 2.147972
1022.380, 8.521774
1022.862, 11.23202
1023.344, 7.730591
1023.826, 4.623726
1024.308, 6.141006
1024.791, 9.725540
1025.273, 10.71158
1025.755, 9.196770
1026.237, 8.617043
1026.719, 9.120789
1027.201, 9.371796
1027.683, 8.847992
1028.165, 8.861977
1028.647, 10.53802
1029.130, 12.82632
1029.612, 13.55559
1030.094, 12.66424
1030.576, 10.66785
1031.058, 6.617661
1031.540, 4.979515
1032.022, 7.885170
1032.504, 10.66398
1032.986, 9.645607
1033.469, 6.689781
1033.951, 6.191231
1034.433, 8.807198
1034.915, 9.711449
1035.397, 7.669479
1035.879, 6.598701
1036.361, 7.792076
1036.843, 9.492424
1037.326, 10.94639
1037.808, 11.77931
1038.290, 10.78896
1038.772, 7.012627
1039.254, 5.722198
1039.736, 8.789207
1040.218, 11.62357
1040.700, 13.51767
1041.182, 14.29723
1041.665, 13.33368
1042.147, 11.24943
1042.629, 9.312210
1043.111, 7.194977
1043.593, 6.625084
1044.075, 8.841568
1044.557, 10.93173
1045.039, 12.94224
1045.521, 14.04079
1046.004, 13.42075
1046.486, 11.53938
1046.968, 8.945930
1047.450, 5.154541
1047.932, 3.651398
1048.414, 6.730713
1048.896, 9.578056
1049.378, 10.80410
1049.861, 11.52402
1050.343, 12.70569
1050.825, 13.94588
1051.307, 14.25184
1051.789, 13.45074
1052.271, 12.24030
1052.753, 9.452583
1053.235, 7.997513
1053.718, 9.867821
1054.200, 12.40583
1054.682, 14.27129
1055.164, 15.12422
1055.646, 14.16753
1056.128, 11.16005
1056.610, 9.250648
1057.092, 10.03533
1057.574, 11.03004
1058.057, 11.19949
1058.539, 11.37996
1059.021, 13.01077
1059.503, 14.85023
1059.985, 14.26242
1060.467, 10.84965
1060.949, 8.029259
1061.431, 7.189163
1061.913, 6.750465
1062.396, 6.118301
1062.878, 5.643692
1063.360, 5.521538
1063.842, 5.791367
1064.324, 6.833717
1064.806, 8.579079
1065.288, 9.324539
1065.770, 7.387695
1066.253, 5.829826
1066.735, 5.986656
1067.217, 6.722725
1067.699, 7.409370
1068.181, 7.921501
1068.663, 8.115158
1069.145, 8.015923
1069.627, 7.987358
1070.109, 8.133224
1070.592, 8.512878
1071.074, 9.574364
1071.556, 10.25095
1072.038, 9.330307
1072.520, 7.665146
1073.002, 6.306091
1073.484, 5.544579
1073.966, 5.664803
1074.448, 7.387383
1074.931, 8.747871
1075.413, 8.454308
1075.895, 7.811272
1076.377, 7.885818
1076.859, 8.152779
1077.341, 7.929245
1077.823, 7.099998
1078.305, 5.687172
1078.788, 3.550972
1079.270, 1.300385
1079.752, 2.262230
1080.234, 4.229523
1080.716, 0.9635390
1081.198, 3.650093
1081.680, 4.562599
1082.162, 2.385368
1082.644, 1.570122
1083.127, 3.951263
1083.609, 5.234177
1084.091, 1.635887
1084.573, 1.388359
1085.055, 0.5899890
1085.537, 4.225868
1086.019, 6.239937
1086.501, 6.561485
1086.984, 5.995552
1087.466, 4.672325
1087.948, 3.376984
1088.430, 1.725235
1088.912, 1.070190
1089.394, 3.446251
1089.876, 6.007286
1090.358, 5.486191
1090.840, 3.233650
1091.323, 2.532867
1091.805, 4.060005
1092.287, 5.393784
1092.769, 5.440620
1093.251, 5.301193
1093.733, 5.875305
1094.215, 6.076370
1094.697, 4.525154
1095.179, 2.244865
1095.662, 1.223480
1096.144, 1.577667
1096.626, 1.133820
1097.108, 2.415840
1097.590, 4.306648
1098.072, 1.541275
1098.554, 1.780602
1099.036, 3.627068
1099.519, 4.140953
1100.001, 3.096840
1100.483, 0.9417190
1100.965, 8.2497001E-02
1101.447, 1.043076
1101.929, 2.561142
1102.411, 4.910439
1102.893, 6.253670
1103.375, 4.398293
1103.858, 2.290131
1104.340, 4.087463
1104.822, 8.305725
1105.304, 8.967224
1105.786, 3.893753
1106.268, 7.3320000E-03
1106.750, 1.660355
1107.232, 1.794876
1107.714, 0.8006060
1108.197, 3.447845
1108.679, 4.242157
1109.161, 3.908836
1109.643, 4.307388
1110.125, 5.751701
1110.607, 6.655685
1111.089, 6.632675
1111.571, 6.395920
1112.054, 5.041611
1112.536, 4.621025
1113.018, 8.214005
1113.500, 12.48775
1113.982, 11.25774
1114.464, 4.345924
1114.946, 1.153770
1115.428, 4.501167
1115.911, 6.886803
1116.393, 7.774429
1116.875, 7.873734
1117.357, 7.184059
1117.839, 6.100670
1118.321, 4.961647
1118.803, 3.793610
1119.285, 2.674454
1119.767, 0.9488980
1120.250, 1.028412
1120.732, 3.958611
1121.214, 6.702217
1121.696, 9.116295
1122.178, 9.661850
1122.660, 6.145363
1123.142, 0.6110000
1123.624, 1.483017
1124.106, 0.2527690
1124.589, 1.647949
1125.071, 2.446999
1125.553, 4.147575
1126.035, 7.956665
1126.517, 9.547760
1126.999, 5.519463
1127.481, 0.2767030
1127.963, 1.575317
1128.446, 1.183548
1128.928, 2.825562
1129.410, 3.344307
1129.892, 2.574036
1130.374, 0.1548840
1130.856, 0.5906520
1131.338, 1.969315
1131.820, 5.202034
1132.302, 6.255371
1132.785, 5.876724
1133.267, 6.673874
1133.749, 8.480347
1134.231, 7.996895
1134.713, 5.168121
1135.195, 3.608315
1135.677, 4.312477
1136.159, 5.469322
1136.641, 5.831146
1137.124, 5.557304
1137.606, 4.778175
1138.088, 3.514290
1138.570, 1.638329
1139.052, 0.4192350
1139.534, 1.044762
1140.016, 5.764580
1140.498, 7.294991
1140.981, 2.696045
1141.463, 2.277016
1141.945, 1.102364
1142.427, 3.004128
1142.909, 5.246811
1143.391, 5.882668
1143.873, 4.785965
1144.355, 2.704887
1144.838, 1.556984
1145.320, 1.848732
1145.802, 2.298920
1146.284, 1.808289
1146.766, 1.923676
1147.248, 5.653671
1147.730, 9.661911
1148.212, 9.701881
1148.694, 7.139442
1149.177, 3.487244
1149.659, 2.1126000E-02
1150.141, 0.2324070
1150.623, 4.500740
1151.105, 8.029716
1151.587, 4.612228
1152.069, 0.9928740
1152.551, 2.835289
1153.033, 5.939972
1153.516, 5.133812
1153.998, 2.392906
1154.480, 3.123108
1154.962, 7.934052
1155.444, 10.41036
1155.926, 6.093689
1156.408, 3.143585
1156.890, 6.431389
1157.373, 8.966194
1157.855, 5.373024
1158.337, 0.1345440
1158.819, 3.149925
1159.301, 3.481110
1159.783, 1.553993
1160.265, 4.393105
1160.747, 7.731789
1161.229, 6.162163
1161.712, 4.629150
1162.194, 4.243607
1162.676, 4.197548
1163.158, 4.399376
1163.640, 4.246613
1164.122, 2.075081
1164.604, 3.298866
1165.086, 2.581139
1165.568, 3.629379
1166.051, 6.941025
1166.533, 5.663414
1167.015, 3.661446
1167.497, 2.108513
1167.979, 1.793030
1168.461, 4.039650
1168.943, 7.438408
1169.425, 6.580711
1169.908, 8.337044
1170.390, 9.366211
1170.872, 7.393150
1171.354, 9.607788
1171.836, 5.734360
1172.318, 2.475159
1172.800, 3.960510
1173.282, 7.339874
1173.765, 8.884071
1174.247, 8.960487
1174.729, 8.268723
1175.211, 7.077698
1175.693, 6.583099
1176.175, 6.623039
1176.657, 5.689873
1177.139, 3.418831
1177.621, 1.240379
1178.104, 6.4781003E-02
1178.586, 6.5063000E-02
1179.068, 2.074577
1179.550, 4.362648
1180.032, 3.010628
1180.514, 9.5290001E-03
1180.996, 0.7679600
1181.478, 0.6210630
1181.960, 1.986153
1182.443, 2.449875
1182.925, 2.591682
1183.407, 2.753792
1183.889, 2.695618
1184.371, 2.077240
1184.853, 1.362251
1185.335, 0.3822100
1185.817, 0.1723100
1186.300, 1.516556
1186.782, 5.127884
1187.264, 7.168739
1187.746, 5.761040
1188.228, 5.127930
1188.710, 6.856102
1189.192, 8.370956
1189.674, 9.380692
1190.156, 9.090630
1190.639, 5.593369
1191.121, 0.9931720
1191.603, 0.4114990
1192.085, 3.807411
1192.567, 5.352341
1193.049, 4.215256
1193.531, 3.868248
1194.013, 5.007431
1194.495, 5.982605
1194.978, 6.088448
1195.460, 5.699997
1195.942, 5.084946
1196.424, 4.455917
1196.906, 4.328087
1197.388, 4.760857
1197.870, 6.903427
1198.352, 10.52804
1198.835, 11.23948
1199.317, 8.213379
1199.799, 5.167374
1200.281, 3.665627
1200.763, 2.760513
1201.245, 1.032059
1201.727, 0.4182740
1202.209, 0.9270250
1202.692, 3.807961
1203.174, 6.053558
1203.656, 7.371223
1204.138, 7.589844
1204.620, 6.774200
1205.102, 5.149620
1205.584, 2.520508
1206.066, 0.7931820
1206.548, 2.053207
1207.031, 3.954704
1207.513, 4.504982
1207.995, 4.889008
1208.477, 7.474922
1208.959, 10.58732
1209.441, 9.769119
1209.923, 4.577187
1210.405, 2.037468
1210.887, 6.440361
1211.370, 9.460594
1211.852, 9.071350
1212.334, 8.140320
1212.816, 6.713272
1213.298, 5.693947
1213.780, 6.141197
1214.262, 7.227043
1214.744, 6.711624
1215.227, 4.354004
1215.709, 3.024811
1216.191, 2.850693
1216.673, 3.044258
1217.155, 3.853729
1217.637, 4.333054
1218.119, 3.900093
1218.601, 3.332947
1219.083, 3.510788
1219.566, 4.197998
1220.048, 4.954124
1220.530, 5.708572
1221.012, 6.187172
1221.494, 6.360397
1221.976, 5.943848
1222.458, 5.044281
1222.940, 4.254066
1223.422, 4.229347
1223.905, 4.647331
1224.387, 5.925392
1224.869, 6.699974
1225.351, 4.567825
1225.833, 1.880569
1226.315, 1.689575
1226.797, 2.915916
1227.279, 3.379738
1227.762, 3.082863
1228.244, 3.715240
1228.726, 6.099380
1229.208, 7.449219
1229.690, 5.188751
1230.172, 3.897575
1230.654, 6.709076
1231.136, 9.345146
1231.619, 8.321007
1232.101, 5.931740
1232.583, 5.517181
1233.065, 4.495079
1233.547, 3.635002
1234.029, 4.031799
1234.511, 3.290504
1234.993, 4.685440
1235.475, 6.127220
1235.958, 7.240532
1236.440, 7.799309
1236.922, 7.721672
1237.404, 6.993095
1237.886, 5.269501
1238.368, 3.433327
1238.850, 5.151009
1239.332, 9.097763
1239.814, 9.541382
1240.297, 6.924683
1240.779, 4.587791
1241.261, 3.407021
1241.743, 3.203133
1242.225, 3.936577
1242.707, 4.665291
1243.189, 4.771919
1243.671, 4.254517
1244.154, 2.176323
1244.636, 0.2999190
1245.118, 0.7121350
1245.600, 2.323067
1246.082, 2.953842
1246.564, 2.596581
1247.046, 3.363564
1247.528, 7.059967
1248.010, 7.869087
1248.493, 0.8125760
1248.975, 3.410927
1249.457, 6.4087003E-02
1249.939, 3.964714
1250.421, 5.129982
1250.903, 4.520576
1251.385, 3.101891
1251.867, 1.370155
1252.349, 2.737106
1252.832, 2.394936
1253.314, 2.284897
1253.796, 4.743950
1254.278, 3.267563
1254.760, 5.537003
1255.242, 7.878105
1255.724, 8.312508
1256.206, 6.969635
1256.689, 2.839104
1257.171, 1.049637
1257.653, 1.444923
1258.135, 6.933907
1258.617, 10.63741
1259.099, 12.11414
1259.581, 10.52177
1260.063, 6.770691
1260.546, 4.310463
1261.028, 4.430229
1261.510, 4.779221
1261.992, 3.921974
1262.474, 3.623100
1262.956, 5.133606
1263.438, 6.795990
1263.920, 8.021996
1264.402, 8.473648
1264.885, 7.127792
1265.367, 4.826920
1265.849, 4.647240
1266.331, 7.176788
1266.813, 9.025002
1267.295, 9.994637
1267.777, 10.99291
1268.259, 14.28130
1268.741, 13.29453
1269.224, 4.830536
1269.706, 2.086990
1270.188, 1.648056
1270.670, 9.636261
1271.152, 9.605614
1271.634, 4.913269
1272.116, 2.450195
1272.598, 2.485649
1273.081, 2.412163
1273.563, 2.214607
1274.045, 3.298027
1274.527, 5.830215
1275.009, 7.235413
1275.491, 5.436516
1275.973, 4.042290
1276.455, 5.754936
1276.938, 7.161156
1277.420, 5.185257
1277.902, 3.223572
1278.384, 4.277077
1278.866, 2.875313
1279.348, 2.630836
1279.830, 3.902168
1280.312, 2.065323
1280.794, 3.351776
1281.276, 4.158997
1281.759, 4.344856
1282.241, 3.727051
1282.723, 2.299034
1283.205, 1.909294
1283.687, 3.907135
1284.169, 5.779449
1284.651, 3.721268
1285.133, 0.3032000
1285.616, 2.5322000E-02
1286.098, 0.0000000E+00
##END=



