##NAMES=Nickelhexahydrite
##RRUFFID=R060596
##IDEAL CHEMISTRY=NiSO_4_&#183;6H_2_O
##LOCALITY=Gorner Glacier, Monte Rosa Massif, Zermatt, Matt Valley, Wallis, Switzerland
##OWNER=RRUFF
##SOURCE=Michael Scott
##DESCRIPTION=Pale blue granular aggregate
##STATUS=The identification of this mineral is not yet confirmed.
##URL=rruff.info/R060596
142.736, 0.000
143.218, 7.652
143.700, 17.842
144.182, 25.148
144.665, 30.664
145.147, 43.963
145.629, 68.788
146.111, 93.128
146.593, 112.378
147.075, 125.637
147.557, 134.487
148.040, 133.634
148.522, 124.330
149.004, 128.385
149.486, 115.781
149.968, 126.569
150.450, 139.708
150.932, 155.512
151.414, 146.443
151.896, 143.033
152.378, 130.927
152.861, 117.446
153.343, 110.436
153.825, 101.874
154.307, 95.073
154.789, 85.210
155.271, 72.416
155.753, 55.048
156.235, 28.960
156.718, 8.107
157.200, 3.306
157.682, 7.862
158.164, 11.355
158.646, 18.758
159.128, 23.468
159.610, 21.554
160.092, 6.531
160.574, 7.244
161.057, 13.368
161.539, 13.550
162.021, 15.573
162.503, 26.454
162.985, 38.512
163.467, 45.331
163.949, 40.562
164.431, 33.640
164.913, 23.680
165.396, 11.328
165.878, 2.228
166.360, 16.958
166.842, 25.964
167.324, 29.547
167.806, 11.344
168.288, 21.354
168.770, 20.101
169.253, 18.409
169.735, 32.464
170.217, 17.564
170.699, 31.405
171.181, 33.793
171.663, 33.540
172.145, 33.778
172.627, 35.122
173.109, 37.029
173.592, 38.942
174.074, 38.678
174.556, 37.405
175.038, 39.344
175.520, 47.688
176.002, 60.878
176.484, 55.702
176.966, 54.944
177.449, 80.666
177.931, 99.956
178.413, 113.160
178.895, 102.053
179.377, 122.316
179.859, 129.987
180.341, 137.118
180.823, 154.850
181.305, 159.863
181.788, 167.436
182.270, 177.559
182.752, 191.715
183.234, 213.770
183.716, 241.890
184.198, 267.860
184.680, 289.568
185.162, 306.813
185.645, 320.467
186.127, 330.470
186.609, 335.958
187.091, 330.208
187.573, 315.261
188.055, 308.713
188.537, 324.472
189.019, 357.400
189.501, 383.983
189.984, 403.163
190.466, 416.317
190.948, 420.836
191.430, 416.682
191.912, 418.842
192.394, 443.341
192.876, 486.423
193.358, 511.678
193.840, 509.609
194.323, 495.660
194.805, 506.444
195.287, 544.771
195.769, 585.214
196.251, 607.651
196.733, 611.999
197.215, 623.599
197.697, 649.117
198.180, 683.179
198.662, 706.485
199.144, 717.271
199.626, 724.776
200.108, 722.829
200.590, 753.171
201.072, 775.785
201.554, 791.054
202.036, 776.972
202.519, 800.755
203.001, 809.330
203.483, 817.253
203.965, 846.290
204.447, 836.343
204.929, 864.965
205.411, 878.132
205.893, 887.696
206.376, 877.281
206.858, 873.257
207.340, 876.102
207.822, 875.802
208.304, 870.087
208.786, 911.583
209.268, 941.526
209.750, 960.598
210.232, 936.240
210.715, 967.959
211.197, 977.210
211.679, 997.588
212.161, 1013.650
212.643, 1062.163
213.125, 1099.311
213.607, 1116.669
214.089, 1162.036
214.572, 1244.849
215.054, 1349.510
215.536, 1440.912
216.018, 1506.748
216.500, 1583.897
216.982, 1692.983
217.464, 1842.268
217.946, 1998.559
218.428, 2157.561
218.911, 2322.500
219.393, 2500.106
219.875, 2694.048
220.357, 2894.664
220.839, 3097.494
221.321, 3308.857
221.803, 3508.390
222.285, 3688.321
222.768, 3854.939
223.250, 4040.346
223.732, 4257.025
224.214, 4477.617
224.696, 4689.375
225.178, 4895.881
225.660, 5083.018
226.142, 5247.402
226.624, 5392.544
227.107, 5533.077
227.589, 5684.993
228.071, 5808.924
228.553, 5871.567
229.035, 5858.255
229.517, 5813.718
229.999, 5751.550
230.481, 5670.774
230.964, 5523.643
231.446, 5283.542
231.928, 5002.898
232.410, 4732.445
232.892, 4485.311
233.374, 4225.233
233.856, 3941.243
234.338, 3629.611
234.820, 3351.099
235.303, 3113.079
235.785, 2899.008
236.267, 2689.840
236.749, 2479.325
237.231, 2284.934
237.713, 2110.011
238.195, 1954.665
238.677, 1819.041
239.160, 1709.534
239.642, 1614.726
240.124, 1520.025
240.606, 1419.729
241.088, 1329.216
241.570, 1250.971
242.052, 1183.811
242.534, 1137.914
243.016, 1127.954
243.499, 1129.178
243.981, 1103.987
244.463, 1033.381
244.945, 967.367
245.427, 920.657
245.909, 896.866
246.391, 879.094
246.873, 872.588
247.355, 868.676
247.838, 851.640
248.320, 811.266
248.802, 774.900
249.284, 753.019
249.766, 751.505
250.248, 743.883
250.730, 726.982
251.212, 705.933
251.695, 690.326
252.177, 681.373
252.659, 676.088
253.141, 675.915
253.623, 687.224
254.105, 682.838
254.587, 655.714
255.069, 616.781
255.551, 589.743
256.034, 580.212
256.516, 571.996
256.998, 557.887
257.480, 534.404
257.962, 515.739
258.444, 503.287
258.926, 494.643
259.408, 483.657
259.891, 467.620
260.373, 454.303
260.855, 449.059
261.337, 457.634
261.819, 455.385
262.301, 437.900
262.783, 411.456
263.265, 391.936
263.747, 380.962
264.229, 372.999
264.712, 367.123
265.194, 366.283
265.676, 355.740
266.158, 331.475
266.640, 299.615
267.122, 276.620
267.604, 265.358
268.086, 255.916
268.569, 243.775
269.051, 228.615
269.533, 212.027
270.015, 194.327
270.497, 175.329
270.979, 155.155
271.461, 134.138
271.943, 111.340
272.426, 82.792
272.908, 45.226
273.390, 25.421
273.872, 30.983
274.354, 50.384
274.836, 56.020
275.318, 45.785
275.800, 30.186
276.282, 12.372
276.765, 8.674
277.247, 19.958
277.729, 16.857
278.211, 7.543
278.693, 14.160
279.175, 40.258
279.657, 63.325
280.139, 68.651
280.621, 55.844
281.104, 43.323
281.586, 31.854
282.068, 22.208
282.550, 14.187
283.032, 7.276
283.514, 7.208
283.996, 23.697
284.478, 55.062
284.961, 70.889
285.443, 66.134
285.925, 48.957
286.407, 32.071
286.889, 15.189
287.371, 4.474
287.853, 9.120
288.335, 25.866
288.818, 30.571
289.300, 18.521
289.782, 0.855
290.264, 9.961
290.746, 9.485
291.228, 11.057
291.710, 26.288
292.192, 50.116
292.674, 61.875
293.156, 56.936
293.639, 46.728
294.121, 48.141
294.603, 60.098
295.085, 75.205
295.567, 89.840
296.049, 104.462
296.531, 114.886
297.013, 115.046
297.496, 130.935
297.978, 137.958
298.460, 167.859
298.942, 192.196
299.424, 211.268
299.906, 209.325
300.388, 234.495
300.870, 248.788
301.353, 262.624
301.835, 291.581
302.317, 302.733
302.799, 300.064
303.281, 292.605
303.763, 287.787
304.245, 299.563
304.727, 332.202
305.209, 363.253
305.691, 370.300
306.174, 360.377
306.656, 349.128
307.138, 345.557
307.620, 343.428
308.102, 335.559
308.584, 320.757
309.066, 306.728
309.548, 297.294
310.031, 292.711
310.513, 293.099
310.995, 302.427
311.477, 314.251
311.959, 323.672
312.441, 330.134
312.923, 337.179
313.405, 347.409
313.888, 359.258
314.370, 370.339
314.852, 380.897
315.334, 389.942
315.816, 397.469
316.298, 403.534
316.780, 406.440
317.262, 399.199
317.744, 390.805
318.227, 390.800
318.709, 413.793
319.191, 434.786
319.673, 442.087
320.155, 435.580
320.637, 432.941
321.119, 443.154
321.601, 457.307
322.083, 467.971
322.566, 475.854
323.048, 477.437
323.530, 468.330
324.012, 449.206
324.494, 434.300
324.976, 428.472
325.458, 425.745
325.940, 422.103
326.422, 414.757
326.905, 409.117
327.387, 405.844
327.869, 404.811
328.351, 404.998
328.833, 407.935
329.315, 410.909
329.797, 412.139
330.280, 404.248
330.762, 404.886
331.244, 417.751
331.726, 440.855
332.208, 463.820
332.690, 487.964
333.172, 509.500
333.654, 526.129
334.136, 534.168
334.618, 545.256
335.101, 564.719
335.583, 587.488
336.065, 592.963
336.547, 594.763
337.029, 615.262
337.511, 629.404
337.993, 638.569
338.475, 629.931
338.958, 646.174
339.440, 653.519
339.922, 661.108
340.404, 682.662
340.886, 679.937
341.368, 701.790
341.850, 712.847
342.332, 726.453
342.815, 729.401
343.297, 735.684
343.779, 744.582
344.261, 742.036
344.743, 750.423
345.225, 761.404
345.707, 772.814
346.189, 775.335
346.671, 767.706
347.154, 765.300
347.636, 790.249
348.118, 836.360
348.600, 875.229
349.082, 895.320
349.564, 904.031
350.046, 911.472
350.528, 917.442
351.010, 931.797
351.493, 970.766
351.975, 1023.505
352.457, 1067.263
352.939, 1089.098
353.421, 1105.624
353.903, 1135.863
354.385, 1178.377
354.867, 1225.212
355.349, 1271.641
355.832, 1319.531
356.314, 1371.456
356.796, 1429.695
357.278, 1488.873
357.760, 1542.346
358.242, 1593.406
358.724, 1654.146
359.207, 1731.619
359.689, 1820.419
360.171, 1919.116
360.653, 2032.953
361.135, 2141.691
361.617, 2228.258
362.099, 2304.641
362.581, 2391.662
363.063, 2498.409
363.546, 2615.111
364.028, 2738.803
364.510, 2869.618
364.992, 3005.259
365.474, 3147.867
365.956, 3294.433
366.438, 3441.324
366.920, 3584.724
367.402, 3733.258
367.885, 3887.663
368.367, 4047.351
368.849, 4219.720
369.331, 4418.067
369.813, 4619.853
370.295, 4805.691
370.777, 4957.038
371.259, 5116.934
371.741, 5293.935
372.224, 5486.545
372.706, 5681.038
373.188, 5887.267
373.670, 6078.792
374.152, 6237.376
374.634, 6354.093
375.116, 6456.052
375.598, 6549.936
376.081, 6627.987
376.563, 6673.692
377.045, 6691.216
377.527, 6662.087
378.009, 6564.616
378.491, 6398.083
378.973, 6238.297
379.455, 6109.920
379.938, 5952.448
380.420, 5645.303
380.902, 5186.394
381.384, 4712.875
381.866, 4263.661
382.348, 3845.726
382.830, 3479.116
383.312, 3165.519
383.794, 2899.226
384.276, 2712.094
384.759, 2577.917
385.241, 2409.287
385.723, 2135.015
386.205, 1828.102
386.687, 1596.219
387.169, 1437.637
387.651, 1312.002
388.134, 1196.693
388.616, 1094.644
389.098, 1010.678
389.580, 960.436
390.062, 911.362
390.544, 827.750
391.026, 720.482
391.508, 633.089
391.990, 600.342
392.473, 589.258
392.955, 576.286
393.437, 559.377
393.919, 535.584
394.401, 501.792
394.883, 460.825
395.365, 417.960
395.847, 368.157
396.329, 322.325
396.812, 286.005
397.294, 261.542
397.776, 238.454
398.258, 212.485
398.740, 188.312
399.222, 171.503
399.704, 173.999
400.186, 169.998
400.668, 154.333
401.151, 126.936
401.633, 96.358
402.115, 52.990
402.597, 16.747
403.079, 4.669
403.561, 30.217
404.043, 45.403
404.525, 42.845
405.008, 27.290
405.490, 13.580
405.972, 1.142
406.454, 7.649
406.936, 9.116
407.418, 2.735
407.900, 4.425
408.382, 17.479
408.865, 33.359
409.347, 36.328
409.829, 26.982
410.311, 19.238
410.793, 22.113
411.275, 31.390
411.757, 33.685
412.239, 28.638
412.721, 21.598
413.203, 19.587
413.686, 19.754
414.168, 14.718
414.650, 3.432
415.132, 22.479
415.614, 26.627
416.096, 17.999
416.578, 9.936
417.060, 14.195
417.543, 21.741
418.025, 22.949
418.507, 13.570
418.989, 2.360
419.471, 11.405
419.953, 23.653
420.435, 26.059
420.917, 2.196
421.400, 21.535
421.882, 30.855
422.364, 20.493
422.846, 13.708
423.328, 14.145
423.810, 20.566
424.292, 31.485
424.774, 56.083
425.256, 75.071
425.738, 81.880
426.221, 77.337
426.703, 82.594
427.185, 105.819
427.667, 129.521
428.149, 141.189
428.631, 135.953
429.113, 131.568
429.595, 126.979
430.078, 124.590
430.560, 133.268
431.042, 155.222
431.524, 175.044
432.006, 184.329
432.488, 183.433
432.970, 182.956
433.452, 182.465
433.935, 182.965
434.417, 185.983
434.899, 191.087
435.381, 195.990
435.863, 197.211
436.345, 199.068
436.827, 202.756
437.309, 223.192
437.791, 239.529
438.274, 251.215
438.756, 247.713
439.238, 263.350
439.720, 271.347
440.202, 279.049
440.684, 297.888
441.166, 304.777
441.648, 324.092
442.130, 330.235
442.613, 336.115
443.095, 353.308
443.577, 386.206
444.059, 412.905
444.541, 417.903
445.023, 416.243
445.505, 424.905
445.987, 457.912
446.470, 489.934
446.952, 515.140
447.434, 533.887
447.916, 554.424
448.398, 574.112
448.880, 598.333
449.362, 632.327
449.844, 687.537
450.327, 725.467
450.809, 739.079
451.291, 738.522
451.773, 745.937
452.255, 762.719
452.737, 782.433
453.219, 802.914
453.701, 824.303
454.183, 845.604
454.665, 866.207
455.148, 890.332
455.630, 926.249
456.112, 971.895
456.594, 995.538
457.076, 998.858
457.558, 1020.924
458.040, 1038.485
458.522, 1051.783
459.005, 1047.940
459.487, 1066.308
459.969, 1075.826
460.451, 1085.019
460.933, 1106.623
461.415, 1105.472
461.897, 1125.749
462.379, 1123.848
462.862, 1120.642
463.344, 1113.697
463.826, 1095.965
464.308, 1057.833
464.790, 999.329
465.272, 948.983
465.754, 926.993
466.236, 908.660
466.718, 877.134
467.201, 807.172
467.683, 753.772
468.165, 729.559
468.647, 722.792
469.129, 700.650
469.611, 655.145
470.093, 606.834
470.575, 562.819
471.057, 523.718
471.540, 480.863
472.022, 430.659
472.504, 383.935
472.986, 356.402
473.468, 349.196
473.950, 341.552
474.432, 329.868
474.914, 313.489
475.397, 280.260
475.879, 231.443
476.361, 203.742
476.843, 200.498
477.325, 191.133
477.807, 175.871
478.289, 138.106
478.771, 129.812
479.254, 109.948
479.736, 89.608
480.218, 79.041
480.700, 77.103
481.182, 87.687
481.664, 84.232
482.146, 67.109
482.628, 51.632
483.110, 42.212
483.592, 37.404
484.075, 36.558
484.557, 46.532
485.039, 50.091
485.521, 39.245
486.003, 20.507
486.485, 9.588
486.967, 20.125
487.449, 20.356
487.931, 5.520
488.414, 14.260
488.896, 15.614
489.378, 18.784
489.860, 23.674
490.342, 32.913
490.824, 36.832
491.306, 40.378
491.789, 41.868
492.271, 40.202
492.753, 30.000
493.235, 11.481
493.717, 2.990
494.199, 0.482
494.681, 10.105
495.163, 6.006
495.645, 15.027
496.128, 36.525
496.610, 44.271
497.092, 41.970
497.574, 35.199
498.056, 15.276
498.538, 2.499
499.020, 11.176
499.502, 11.567
499.984, 34.662
500.467, 52.256
500.949, 64.798
501.431, 56.686
501.913, 75.448
502.395, 83.477
502.877, 91.070
503.359, 113.491
503.841, 108.228
504.323, 130.623
504.806, 143.072
505.288, 153.620
505.770, 175.102
506.252, 184.971
506.734, 179.443
507.216, 174.763
507.698, 182.650
508.181, 202.624
508.663, 213.056
509.145, 210.969
509.627, 207.997
510.109, 218.352
510.591, 239.510
511.073, 265.508
511.555, 300.071
512.037, 336.945
512.519, 360.972
513.002, 372.621
513.484, 389.137
513.966, 429.146
514.448, 478.777
514.930, 522.068
515.412, 552.247
515.894, 583.804
516.376, 631.229
516.859, 683.901
517.341, 724.366
517.823, 733.109
518.305, 743.777
518.787, 767.966
519.269, 806.709
519.751, 840.222
520.233, 863.740
520.716, 881.810
521.198, 899.184
521.680, 918.211
522.162, 940.148
522.644, 966.763
523.126, 991.332
523.608, 1001.436
524.090, 994.926
524.572, 988.045
525.055, 990.127
525.537, 996.028
526.019, 987.848
526.501, 966.064
526.983, 942.597
527.465, 930.179
527.947, 921.239
528.429, 901.391
528.911, 867.183
529.394, 827.782
529.876, 778.413
530.358, 730.715
530.840, 702.533
531.322, 681.004
531.804, 664.855
532.286, 647.360
532.768, 628.604
533.250, 606.660
533.733, 578.564
534.215, 559.045
534.697, 538.897
535.179, 516.801
535.661, 495.962
536.143, 474.191
536.625, 455.412
537.107, 447.704
537.589, 455.646
538.072, 457.543
538.554, 447.747
539.036, 428.390
539.518, 405.344
540.000, 378.229
540.482, 355.031
540.964, 345.223
541.446, 343.689
541.929, 333.449
542.411, 311.060
542.893, 294.458
543.375, 312.664
543.857, 346.644
544.339, 362.890
544.821, 331.566
545.303, 297.572
545.786, 288.423
546.268, 298.435
546.750, 305.780
547.232, 301.543
547.714, 293.815
548.196, 285.813
548.678, 278.002
549.160, 271.167
549.643, 266.833
550.125, 262.773
550.607, 256.592
551.089, 245.796
551.571, 240.222
552.053, 219.119
552.535, 220.255
553.017, 216.024
553.499, 207.483
553.982, 178.336
554.464, 176.256
554.946, 163.295
555.428, 149.860
555.910, 151.069
556.392, 123.823
556.874, 124.552
557.356, 114.233
557.838, 109.549
558.321, 93.935
558.803, 81.385
559.285, 80.015
559.767, 76.661
560.249, 74.704
560.731, 83.597
561.213, 86.176
561.695, 67.637
562.177, 26.993
562.660, 10.838
563.142, 49.215
563.624, 87.190
564.106, 92.163
564.588, 44.479
565.070, 18.519
565.552, 22.857
566.034, 38.987
566.516, 36.281
566.999, 12.948
567.481, 0.139
567.963, 13.960
568.445, 38.510
568.927, 32.182
569.409, 1.605
569.891, 32.053
570.373, 31.758
570.856, 19.014
571.338, 19.517
571.820, 37.110
572.302, 53.192
572.784, 53.029
573.266, 47.013
573.748, 46.113
574.230, 59.594
574.713, 71.463
575.195, 76.270
575.677, 76.678
576.159, 81.208
576.641, 101.986
577.123, 110.220
577.605, 90.726
578.087, 42.760
578.570, 22.712
579.052, 38.182
579.534, 61.014
580.016, 70.838
580.498, 68.026
580.980, 53.482
581.462, 24.670
581.944, 7.237
582.426, 26.814
582.909, 37.224
583.391, 47.249
583.873, 60.102
584.355, 74.167
584.837, 89.011
585.319, 104.062
585.801, 116.913
586.283, 121.760
586.765, 127.800
587.248, 141.222
587.730, 164.542
588.212, 187.283
588.694, 200.242
589.176, 217.260
589.658, 206.730
590.140, 244.594
590.622, 270.692
591.104, 285.662
591.587, 256.202
592.069, 284.087
592.551, 288.973
593.033, 292.909
593.515, 328.830
593.997, 305.775
594.479, 341.170
594.961, 353.218
595.443, 375.935
595.926, 375.521
596.408, 382.235
596.890, 412.077
597.372, 429.099
597.854, 425.983
598.336, 449.326
598.818, 425.376
599.300, 442.911
599.783, 478.344
600.265, 476.354
600.747, 479.214
601.229, 506.813
601.711, 532.834
602.193, 557.686
602.675, 579.733
603.157, 598.980
603.640, 615.021
604.122, 625.551
604.604, 630.337
605.086, 630.595
605.568, 623.059
606.050, 610.896
606.532, 609.267
607.014, 621.604
607.497, 638.340
607.979, 649.215
608.461, 656.945
608.943, 666.926
609.425, 687.457
609.907, 705.048
610.389, 707.960
610.871, 700.903
611.353, 701.183
611.836, 721.872
612.318, 743.118
612.800, 755.878
613.282, 758.705
613.764, 765.433
614.246, 777.812
614.728, 791.810
615.210, 806.782
615.692, 824.303
616.175, 826.217
616.657, 805.621
617.139, 782.806
617.621, 794.100
618.103, 832.064
618.585, 860.862
619.067, 862.505
619.549, 854.026
620.031, 849.650
620.514, 850.837
620.996, 863.788
621.478, 902.088
621.960, 941.815
622.442, 969.244
622.924, 982.736
623.406, 986.922
623.888, 969.985
624.370, 952.927
624.853, 950.417
625.335, 978.663
625.817, 983.416
626.299, 977.752
626.781, 999.720
627.263, 1013.579
627.745, 1019.214
628.227, 999.462
628.710, 1013.453
629.192, 1014.302
629.674, 1013.574
630.156, 1030.246
630.638, 1013.194
631.120, 1030.092
631.602, 1031.287
632.084, 1027.941
632.567, 1031.748
633.049, 1035.767
633.531, 1016.034
634.013, 1009.812
634.495, 984.233
634.977, 993.696
635.459, 995.856
635.941, 992.965
636.424, 958.869
636.906, 965.357
637.388, 962.380
637.870, 963.344
638.352, 958.933
638.834, 951.139
639.316, 941.370
639.798, 930.083
640.280, 923.931
640.763, 932.085
641.245, 944.701
641.727, 941.930
642.209, 926.461
642.691, 918.262
643.173, 898.258
643.655, 913.250
644.137, 919.781
644.619, 918.304
645.102, 884.761
645.584, 892.685
646.066, 884.028
646.548, 874.717
647.030, 888.554
647.512, 875.225
647.994, 868.603
648.476, 867.777
648.958, 880.873
649.441, 909.272
649.923, 921.369
650.405, 899.616
650.887, 861.920
651.369, 841.076
651.851, 836.099
652.333, 840.683
652.815, 860.881
653.297, 882.779
653.780, 890.426
654.262, 883.329
654.744, 880.659
655.226, 893.963
655.708, 911.847
656.190, 927.225
656.672, 941.025
657.154, 948.866
657.636, 945.990
658.119, 941.573
658.601, 944.416
659.083, 940.315
659.565, 981.960
660.047, 1012.540
660.529, 1032.650
661.011, 1010.852
661.494, 1043.246
661.976, 1053.962
662.458, 1063.823
662.940, 1103.937
663.422, 1088.393
663.904, 1128.096
664.386, 1141.752
664.868, 1191.599
665.350, 1265.316
665.833, 1350.336
666.315, 1448.953
666.797, 1534.956
667.279, 1596.986
667.761, 1655.915
668.243, 1725.639
668.725, 1807.602
669.207, 1890.626
669.690, 1973.123
670.172, 2056.352
670.654, 2144.174
671.136, 2235.123
671.618, 2316.483
672.100, 2379.798
672.582, 2444.796
673.064, 2534.529
673.546, 2643.372
674.029, 2760.055
674.511, 2886.487
674.993, 3012.655
675.475, 3131.837
675.957, 3245.737
676.439, 3362.027
676.921, 3497.775
677.403, 3619.297
677.885, 3711.138
678.368, 3770.539
678.850, 3840.425
679.332, 3925.084
679.814, 4008.125
680.296, 4071.800
680.778, 4119.000
681.260, 4171.174
681.742, 4234.518
682.224, 4279.181
682.707, 4260.453
683.189, 4203.454
683.671, 4148.798
684.153, 4112.611
684.635, 4073.078
685.117, 4028.981
685.599, 3973.237
686.081, 3895.107
686.563, 3767.877
687.046, 3647.460
687.528, 3542.816
688.010, 3449.852
688.492, 3356.051
688.974, 3261.807
689.456, 3172.590
689.938, 3095.334
690.420, 3025.146
690.903, 2941.170
691.385, 2844.198
691.867, 2752.766
692.349, 2685.006
692.831, 2628.055
693.313, 2568.808
693.795, 2506.206
694.277, 2439.228
694.760, 2361.604
695.242, 2284.354
695.724, 2215.915
696.206, 2163.573
696.688, 2106.803
697.170, 2040.243
697.652, 1972.110
698.134, 1910.357
698.617, 1854.588
699.099, 1811.672
699.581, 1786.636
700.063, 1767.952
700.545, 1737.179
701.027, 1696.211
701.509, 1651.808
701.991, 1602.728
702.473, 1555.150
702.956, 1514.434
703.438, 1479.508
703.920, 1446.765
704.402, 1416.108
704.884, 1386.405
705.366, 1356.937
705.848, 1327.503
706.330, 1302.227
706.812, 1284.407
707.295, 1264.460
707.777, 1235.497
708.259, 1198.464
708.741, 1166.331
709.223, 1139.406
709.705, 1111.385
710.187, 1077.771
710.669, 1039.857
711.151, 999.425
711.634, 956.591
712.116, 913.645
712.598, 875.985
713.080, 836.658
713.562, 788.686
714.044, 708.354
714.526, 647.859
715.008, 622.284
715.490, 612.642
715.973, 590.742
716.455, 553.755
716.937, 513.590
717.419, 470.503
717.901, 428.685
718.383, 402.076
718.865, 387.948
719.347, 371.148
719.830, 338.536
720.312, 303.478
720.794, 283.608
721.276, 274.693
721.758, 257.420
722.240, 206.238
722.722, 160.382
723.204, 142.088
723.687, 154.542
724.169, 158.604
724.651, 154.057
725.133, 141.582
725.615, 116.234
726.097, 75.931
726.579, 58.841
727.061, 68.111
727.544, 79.407
728.026, 66.423
728.508, 41.565
728.990, 32.176
729.472, 46.952
729.954, 56.336
730.436, 31.031
730.918, 4.470
731.400, 24.069
731.883, 7.620
732.365, 2.764
732.847, 6.004
733.329, 1.868
733.811, 13.937
734.293, 47.092
734.775, 62.533
735.257, 48.199
735.739, 24.173
736.222, 33.126
736.704, 65.681
737.186, 82.803
737.668, 48.497
738.150, 10.508
738.632, 21.431
739.114, 64.946
739.596, 92.542
740.078, 71.573
740.561, 47.290
741.043, 36.312
741.525, 37.036
742.007, 35.140
742.489, 28.185
742.971, 24.664
743.453, 32.568
743.935, 48.807
744.417, 46.923
744.900, 26.919
745.382, 6.151
745.864, 3.320
746.346, 5.130
746.828, 1.557
747.310, 7.864
747.792, 11.824
748.274, 3.280
748.757, 20.700
749.239, 27.686
749.721, 17.751
750.203, 14.140
750.685, 22.331
751.167, 28.522
751.649, 15.718
752.131, 16.077
752.614, 33.247
753.096, 31.412
753.578, 20.505
754.060, 26.764
754.542, 0.890
755.024, 18.939
755.506, 31.149
755.988, 13.129
756.471, 31.899
756.953, 36.185
757.435, 40.233
757.917, 64.664
758.399, 50.497
758.881, 73.884
759.363, 82.177
759.845, 86.975
760.327, 81.570
760.810, 83.896
761.292, 72.503
761.774, 55.171
762.256, 46.250
762.738, 44.042
763.220, 43.027
763.702, 42.532
764.184, 39.759
764.666, 31.047
765.148, 18.131
765.631, 9.890
766.113, 5.647
766.595, 9.272
767.077, 24.531
767.559, 48.969
768.041, 63.729
768.523, 67.987
769.005, 67.429
769.487, 61.789
769.970, 55.630
770.452, 59.125
770.934, 69.322
771.416, 75.709
771.898, 64.755
772.380, 53.352
772.862, 54.143
773.344, 67.956
773.827, 82.755
774.309, 105.152
774.791, 120.347
775.273, 116.575
775.755, 89.735
776.237, 84.360
776.719, 104.713
777.201, 126.778
777.683, 126.074
778.166, 111.396
778.648, 104.330
779.130, 107.833
779.612, 114.119
780.094, 125.031
780.576, 131.550
781.058, 123.296
781.541, 88.279
782.023, 60.189
782.505, 36.777
782.987, 25.065
783.469, 39.842
783.951, 89.343
784.433, 100.686
784.915, 58.992
785.397, 6.302
785.880, 5.073
786.362, 13.061
786.844, 33.661
787.326, 54.004
787.808, 66.137
788.290, 55.727
788.772, 36.866
789.254, 27.752
789.737, 45.994
790.219, 56.773
790.701, 56.020
791.183, 48.135
791.665, 36.439
792.147, 18.554
792.629, 14.367
793.111, 33.413
793.593, 59.951
794.076, 67.025
794.558, 59.323
795.040, 51.729
795.522, 53.194
796.004, 57.245
796.486, 60.021
796.968, 59.798
797.450, 56.266
797.932, 48.619
798.415, 45.984
798.897, 52.252
799.379, 61.832
799.861, 58.646
800.343, 42.895
800.825, 32.387
801.307, 33.821
801.789, 42.201
802.271, 60.147
802.754, 82.050
803.236, 89.807
803.718, 55.848
804.200, 24.723
804.682, 16.491
805.164, 27.075
805.646, 35.508
806.128, 44.239
806.610, 46.680
807.093, 37.975
807.575, 22.984
808.057, 20.524
808.539, 29.421
809.021, 36.987
809.503, 33.285
809.985, 26.388
810.468, 30.464
810.950, 41.999
811.432, 43.372
811.914, 7.339
812.396, 18.771
812.878, 11.589
813.360, 21.278
813.842, 33.729
814.324, 18.626
814.807, 7.771
815.289, 16.842
815.771, 39.552
816.253, 61.232
816.735, 80.848
817.217, 90.177
817.699, 71.522
818.181, 51.328
818.664, 56.423
819.146, 83.182
819.628, 94.631
820.110, 63.909
820.592, 39.244
821.074, 39.411
821.556, 60.593
822.038, 67.337
822.520, 58.600
823.003, 45.099
823.485, 27.794
823.967, 11.956
824.449, 9.254
824.931, 18.187
825.413, 27.078
825.895, 34.077
826.377, 35.318
826.859, 21.471
827.342, 7.130
827.824, 9.876
828.306, 32.850
828.788, 64.369
829.270, 53.173
829.752, 9.393
830.234, 7.247
830.716, 2.520
831.198, 17.737
831.681, 28.155
832.163, 34.964
832.645, 38.345
833.127, 38.783
833.609, 39.852
834.091, 44.080
834.573, 47.742
835.055, 50.493
835.537, 52.186
836.020, 47.698
836.502, 35.482
836.984, 24.251
837.466, 16.120
837.948, 13.020
838.430, 23.213
838.912, 44.780
839.394, 65.292
839.877, 81.341
840.359, 90.550
840.841, 87.290
841.323, 73.254
841.805, 68.955
842.287, 80.513
842.769, 93.002
843.251, 100.980
843.734, 104.469
844.216, 94.733
844.698, 72.164
845.180, 59.604
845.662, 83.984
846.144, 118.220
846.626, 129.071
847.108, 117.660
847.591, 101.396
848.073, 73.567
848.555, 59.600
849.037, 79.980
849.519, 125.354
850.001, 132.427
850.483, 92.899
850.965, 57.614
851.447, 50.155
851.930, 61.034
852.412, 72.228
852.894, 83.419
853.376, 92.733
853.858, 97.303
854.340, 98.314
854.822, 100.735
855.304, 102.921
855.786, 95.321
856.269, 65.285
856.751, 48.075
857.233, 57.105
857.715, 82.683
858.197, 96.472
858.679, 98.954
859.161, 99.213
859.643, 102.876
860.125, 104.688
860.608, 95.441
861.090, 79.938
861.572, 70.790
862.054, 80.260
862.536, 86.043
863.018, 81.899
863.500, 71.624
863.982, 65.995
864.464, 65.529
864.947, 63.148
865.429, 54.174
865.911, 46.184
866.393, 54.044
866.875, 72.424
867.357, 88.045
867.839, 96.019
868.321, 100.204
868.804, 100.243
869.286, 97.914
869.768, 97.351
870.250, 103.054
870.732, 95.941
871.214, 67.858
871.696, 35.963
872.178, 36.774
872.661, 61.087
873.143, 73.141
873.625, 57.494
874.107, 39.259
874.589, 37.631
875.071, 43.881
875.553, 46.183
876.035, 29.248
876.518, 28.623
877.000, 54.055
877.482, 84.641
877.964, 90.076
878.446, 72.367
878.928, 73.230
879.410, 103.315
879.892, 129.147
880.374, 106.905
880.857, 65.555
881.339, 41.750
881.821, 49.012
882.303, 57.956
882.785, 68.963
883.267, 74.618
883.749, 64.844
884.231, 35.054
884.713, 28.536
885.196, 48.078
885.678, 71.943
886.160, 81.241
886.642, 81.208
887.124, 79.630
887.606, 76.400
888.088, 76.524
888.570, 93.803
889.052, 107.743
889.534, 104.133
890.017, 81.386
890.499, 59.700
890.981, 36.600
891.463, 24.285
891.945, 39.010
892.427, 68.338
892.909, 79.462
893.391, 74.114
893.874, 72.977
894.356, 97.295
894.838, 120.249
895.320, 127.746
895.802, 119.257
896.284, 101.105
896.766, 64.526
897.248, 41.291
897.731, 49.475
898.213, 75.279
898.695, 76.218
899.177, 57.065
899.659, 40.919
900.141, 43.268
900.623, 49.616
901.105, 55.252
901.588, 57.785
902.070, 49.597
902.552, 23.150
903.034, 1.731
903.516, 25.510
903.998, 41.187
904.480, 28.113
904.962, 8.993
905.444, 40.921
905.927, 59.809
906.409, 68.563
906.891, 67.465
907.373, 58.889
907.855, 46.069
908.337, 23.193
908.819, 5.297
909.301, 6.067
909.783, 13.219
910.266, 21.305
910.748, 29.456
911.230, 18.762
911.712, 16.067
912.194, 44.128
912.676, 26.512
913.158, 7.846
913.640, 27.848
914.122, 28.856
914.605, 14.497
915.087, 34.928
915.569, 75.897
916.051, 77.109
916.533, 38.562
917.015, 16.841
917.497, 12.291
917.979, 16.164
918.461, 24.504
918.944, 36.204
919.426, 55.026
919.908, 79.249
920.390, 90.434
920.872, 66.300
921.354, 47.384
921.836, 49.225
922.318, 66.380
922.801, 69.568
923.283, 58.246
923.765, 51.462
924.247, 58.785
924.729, 73.544
925.211, 91.365
925.693, 109.690
926.175, 123.223
926.657, 127.445
927.140, 129.791
927.622, 131.023
928.104, 131.890
928.586, 136.274
929.068, 144.727
929.550, 138.873
930.032, 112.821
930.515, 82.711
930.997, 62.632
931.479, 51.508
931.961, 49.340
932.443, 62.338
932.925, 68.288
933.407, 54.828
933.889, 38.566
934.371, 27.676
934.854, 20.666
935.336, 34.973
935.818, 17.031
936.300, 36.949
936.782, 47.668
937.264, 49.726
937.746, 16.988
938.228, 29.175
938.710, 23.289
939.193, 16.510
939.675, 34.871
940.157, 7.113
940.639, 25.198
941.121, 25.032
941.603, 33.197
942.085, 23.044
942.567, 18.413
943.049, 32.135
943.532, 15.779
944.014, 14.108
944.496, 17.098
944.978, 30.229
945.460, 38.572
945.942, 35.958
946.424, 30.408
946.906, 37.012
947.388, 55.959
947.871, 68.194
948.353, 68.849
948.835, 68.319
949.317, 76.836
949.799, 91.347
950.281, 110.268
950.763, 141.500
951.245, 150.736
951.728, 113.868
952.210, 79.775
952.692, 92.539
953.174, 150.725
953.656, 168.864
954.138, 146.216
954.620, 125.262
955.102, 147.751
955.584, 179.533
956.067, 184.880
956.549, 165.759
957.031, 162.827
957.513, 197.714
957.995, 218.541
958.477, 207.668
958.959, 178.058
959.442, 171.497
959.924, 184.089
960.406, 187.292
960.888, 161.076
961.370, 133.064
961.852, 128.848
962.334, 140.129
962.816, 151.896
963.298, 157.145
963.781, 165.820
964.263, 179.838
964.745, 193.903
965.227, 200.562
965.709, 202.179
966.191, 209.441
966.673, 223.912
967.155, 237.247
967.638, 242.456
968.120, 245.892
968.602, 253.149
969.084, 266.344
969.566, 276.764
970.048, 276.893
970.530, 290.550
971.012, 337.413
971.494, 401.812
971.977, 437.515
972.459, 453.842
972.941, 484.254
973.423, 549.827
973.905, 626.182
974.387, 704.025
974.869, 784.750
975.351, 871.193
975.833, 960.809
976.316, 1067.521
976.798, 1198.085
977.280, 1337.121
977.762, 1419.821
978.244, 1507.900
978.726, 1729.139
979.208, 2152.143
979.690, 2550.946
980.172, 2876.373
980.655, 3122.301
981.137, 3258.840
981.619, 3275.330
982.101, 3377.042
982.583, 3568.313
983.065, 3765.682
983.547, 3976.399
984.029, 4116.139
984.511, 4086.675
984.994, 3896.715
985.476, 3602.805
985.958, 3138.401
986.440, 2666.038
986.922, 2195.916
987.404, 1755.498
987.886, 1416.491
988.369, 1170.354
988.851, 963.537
989.333, 778.572
989.815, 625.723
990.297, 526.089
990.779, 457.152
991.261, 392.748
991.743, 320.935
992.225, 276.024
992.708, 267.230
993.190, 265.601
993.672, 250.942
994.154, 224.529
994.636, 183.396
995.118, 129.899
995.600, 89.752
996.082, 80.806
996.565, 86.359
997.047, 107.873
997.529, 137.403
998.011, 144.460
998.493, 125.489
998.975, 101.161
999.457, 75.297
999.939, 50.646
1000.421, 23.782
1000.904, 1.990
1001.386, 2.218
1001.868, 49.968
1002.350, 76.625
1002.832, 46.855
1003.314, 6.994
1003.796, 5.330
1004.278, 10.557
1004.760, 18.081
1005.243, 16.313
1005.725, 11.811
1006.207, 6.201
1006.689, 2.881
1007.171, 9.725
1007.653, 24.667
1008.135, 24.787
1008.617, 6.968
1009.099, 23.354
1009.582, 6.654
1010.064, 26.674
1010.546, 42.974
1011.028, 44.419
1011.510, 39.543
1011.992, 29.722
1012.474, 16.795
1012.956, 0.012
1013.438, 18.348
1013.921, 38.984
1014.403, 70.463
1014.885, 65.084
1015.367, 15.595
1015.849, 30.353
1016.331, 24.787
1016.813, 3.134
1017.295, 5.572
1017.778, 15.468
1018.260, 33.073
1018.742, 37.899
1019.224, 36.581
1019.706, 29.642
1020.188, 19.026
1020.670, 5.566
1021.152, 9.459
1021.634, 8.152
1022.117, 19.625
1022.599, 48.432
1023.081, 53.973
1023.563, 49.245
1024.045, 47.924
1024.527, 50.675
1025.009, 61.665
1025.491, 83.933
1025.974, 106.418
1026.456, 118.907
1026.938, 125.809
1027.420, 140.489
1027.902, 161.432
1028.384, 179.812
1028.866, 185.152
1029.348, 194.054
1029.830, 214.344
1030.313, 242.230
1030.795, 271.726
1031.277, 302.918
1031.759, 330.670
1032.241, 352.206
1032.723, 378.201
1033.205, 422.962
1033.687, 476.781
1034.170, 528.909
1034.652, 577.193
1035.134, 620.625
1035.616, 645.218
1036.098, 690.193
1036.580, 788.516
1037.062, 921.944
1037.544, 1019.454
1038.026, 1086.678
1038.509, 1152.825
1038.991, 1233.245
1039.473, 1314.511
1039.955, 1391.776
1040.437, 1464.810
1040.919, 1544.576
1041.401, 1608.055
1041.883, 1654.399
1042.365, 1683.870
1042.848, 1682.413
1043.330, 1693.016
1043.812, 1681.730
1044.294, 1657.888
1044.776, 1635.424
1045.258, 1575.849
1045.740, 1528.860
1046.222, 1430.604
1046.705, 1304.672
1047.187, 1192.233
1047.669, 1094.166
1048.151, 1008.542
1048.633, 923.366
1049.115, 828.400
1049.597, 740.494
1050.079, 668.717
1050.562, 609.668
1051.044, 558.923
1051.526, 518.477
1052.008, 476.609
1052.490, 432.392
1052.972, 391.454
1053.454, 358.502
1053.936, 331.478
1054.418, 305.745
1054.901, 282.365
1055.383, 270.522
1055.865, 289.287
1056.347, 294.020
1056.829, 269.710
1057.311, 232.917
1057.793, 217.273
1058.275, 218.514
1058.757, 221.807
1059.240, 225.809
1059.722, 223.061
1060.204, 202.018
1060.686, 175.873
1061.168, 158.037
1061.650, 148.690
1062.132, 145.995
1062.614, 150.173
1063.097, 157.779
1063.579, 169.268
1064.061, 180.867
1064.543, 187.178
1065.025, 191.316
1065.507, 197.521
1065.989, 206.541
1066.471, 216.405
1066.953, 229.710
1067.436, 240.267
1067.918, 235.968
1068.400, 220.629
1068.882, 201.749
1069.364, 180.272
1069.846, 179.927
1070.328, 143.704
1070.810, 198.626
1071.292, 230.884
1071.775, 241.365
1072.257, 166.675
1072.739, 200.277
1073.221, 192.821
1073.703, 184.053
1074.185, 235.561
1074.667, 175.963
1075.149, 226.403
1075.631, 224.984
1076.114, 223.243
1076.596, 226.537
1077.078, 240.280
1077.560, 245.051
1078.042, 217.498
1078.524, 176.773
1079.006, 167.319
1079.488, 182.679
1079.971, 197.889
1080.453, 199.843
1080.935, 203.767
1081.417, 214.023
1081.899, 226.869
1082.381, 237.893
1082.863, 247.029
1083.345, 252.273
1083.828, 253.143
1084.310, 253.787
1084.792, 265.556
1085.274, 271.023
1085.756, 247.211
1086.238, 200.196
1086.720, 188.293
1087.202, 218.087
1087.684, 238.978
1088.167, 230.551
1088.649, 213.095
1089.131, 216.334
1089.613, 227.473
1090.095, 225.588
1090.577, 192.826
1091.059, 183.805
1091.541, 212.548
1092.023, 241.967
1092.506, 241.266
1092.988, 222.320
1093.470, 228.753
1093.952, 253.868
1094.434, 268.715
1094.916, 245.399
1095.398, 226.416
1095.880, 228.062
1096.363, 239.473
1096.845, 248.526
1097.327, 255.125
1097.809, 255.371
1098.291, 248.412
1098.773, 244.320
1099.255, 264.775
1099.737, 279.729
1100.219, 256.210
1100.702, 200.535
1101.184, 173.315
1101.666, 180.456
1102.148, 188.595
1102.630, 186.837
1103.112, 180.525
1103.594, 176.979
1104.076, 175.286
1104.558, 175.057
1105.041, 178.559
1105.523, 173.515
1106.005, 155.664
1106.487, 136.618
1106.969, 121.225
1107.451, 110.379
1107.933, 111.569
1108.415, 120.663
1108.898, 123.884
1109.380, 112.850
1109.862, 98.290
1110.344, 78.607
1110.826, 60.924
1111.308, 53.876
1111.790, 57.031
1112.272, 63.777
1112.755, 72.258
1113.237, 77.524
1113.719, 75.943
1114.201, 69.380
1114.683, 54.285
1115.165, 34.736
1115.647, 25.589
1116.129, 29.437
1116.611, 20.257
1117.094, 12.785
1117.576, 33.298
1118.058, 27.163
1118.540, 103.526
1119.022, 113.473
1119.504, 38.603
1119.986, 3.974
1120.468, 29.387
1120.950, 48.450
1121.433, 32.491
1121.915, 0.589
1122.397, 23.494
1122.879, 36.380
1123.361, 38.271
1123.843, 21.749
1124.325, 8.758
1124.807, 6.601
1125.290, 5.179
1125.772, 14.006
1126.254, 38.391
1126.736, 18.550
1127.218, 43.872
1127.700, 58.230
1128.182, 62.212
1128.664, 24.862
1129.146, 41.335
1129.629, 41.731
1130.111, 45.943
1130.593, 20.604
1131.075, 29.158
1131.557, 76.640
1132.039, 113.061
1132.521, 98.112
1133.003, 66.686
1133.485, 34.044
1133.968, 5.148
1134.450, 6.277
1134.932, 1.869
1135.414, 8.731
1135.896, 9.139
1136.378, 11.134
1136.860, 23.571
1137.342, 41.187
1137.825, 63.279
1138.307, 90.686
1138.789, 90.453
1139.271, 51.840
1139.753, 20.524
1140.235, 7.298
1140.717, 21.155
1141.199, 50.718
1141.682, 27.120
1142.164, 53.830
1142.646, 68.333
1143.128, 71.324
1143.610, 28.220
1144.092, 44.688
1144.574, 37.183
1145.056, 28.679
1145.538, 53.427
1146.021, 16.887
1146.503, 41.102
1146.985, 36.621
1147.467, 8.362
1147.949, 11.085
1148.431, 29.434
1148.913, 54.893
1149.395, 83.559
1149.877, 93.219
1150.360, 84.320
1150.842, 73.422
1151.324, 62.030
1151.806, 59.574
1152.288, 74.032
1152.770, 96.885
1153.252, 119.238
1153.734, 139.643
1154.217, 131.459
1154.699, 88.700
1155.181, 51.136
1155.663, 47.335
1156.145, 59.510
1156.627, 86.758
1157.109, 120.321
1157.591, 123.119
1158.073, 94.158
1158.556, 59.163
1159.038, 21.284
1159.520, 5.190
1160.002, 1.796
1160.484, 16.297
1160.966, 35.604
1161.448, 54.951
1161.930, 75.887
1162.412, 100.796
1162.895, 110.163
1163.377, 89.084
1163.859, 59.280
1164.341, 40.504
1164.823, 32.754
1165.305, 38.849
1165.787, 72.333
1166.269, 79.026
1166.752, 53.573
1167.234, 24.788
1167.716, 11.718
1168.198, 7.378
1168.680, 2.859
1169.162, 13.429
1169.644, 10.964
1170.126, 28.149
1170.609, 44.702
1171.091, 30.531
1171.573, 9.563
1172.055, 0.556
1172.537, 0.352
1173.019, 14.848
1173.501, 39.584
1173.983, 56.579
1174.465, 57.583
1174.948, 51.611
1175.430, 35.368
1175.912, 22.350
1176.394, 28.327
1176.876, 45.994
1177.358, 59.751
1177.840, 67.927
1178.322, 69.993
1178.804, 57.077
1179.287, 50.328
1179.769, 60.358
1180.251, 72.126
1180.733, 49.754
1181.215, 7.920
1181.697, 5.864
1182.179, 18.727
1182.661, 42.440
1183.144, 42.008
1183.626, 44.871
1184.108, 67.452
1184.590, 97.085
1185.072, 90.591
1185.554, 56.263
1186.036, 26.177
1186.518, 8.146
1187.000, 1.837
1187.483, 1.641
1187.965, 5.064
1188.447, 3.811
1188.929, 19.397
1189.411, 0.086
1189.893, 46.020
1190.375, 71.318
1190.857, 47.052
1191.339, 16.989
1191.822, 5.971
1192.304, 17.561
1192.786, 9.828
1193.268, 15.877
1193.750, 33.119
1194.232, 42.225
1194.714, 46.338
1195.196, 41.361
1195.678, 38.549
1196.161, 44.989
1196.643, 55.040
1197.125, 64.123
1197.607, 72.330
1198.089, 71.695
1198.571, 62.558
1199.053, 53.713
1199.535, 52.113
1200.018, 50.419
1200.500, 40.268
1200.982, 29.718
1201.464, 33.255
1201.946, 51.327
1202.428, 60.672
1202.910, 59.566
1203.392, 57.985
1203.875, 64.485
1204.357, 71.261
1204.839, 75.626
1205.321, 75.710
1205.803, 62.304
1206.285, 34.674
1206.767, 38.495
1207.249, 80.600
1207.731, 120.115
1208.214, 125.833
1208.696, 115.988
1209.178, 94.390
1209.660, 68.432
1210.142, 61.153
1210.624, 72.407
1211.106, 77.640
1211.588, 71.596
1212.070, 63.411
1212.553, 56.381
1213.035, 53.713
1213.517, 57.021
1213.999, 66.720
1214.481, 96.709
1214.963, 146.148
1215.445, 154.165
1215.927, 94.133
1216.410, 32.241
1216.892, 22.020
1217.374, 31.093
1217.856, 36.145
1218.338, 37.809
1218.820, 43.511
1219.302, 52.939
1219.784, 61.792
1220.266, 68.511
1220.749, 69.877
1221.231, 57.191
1221.713, 43.055
1222.195, 37.330
1222.677, 39.219
1223.159, 51.827
1223.641, 77.125
1224.123, 91.539
1224.605, 76.973
1225.088, 56.278
1225.570, 25.680
1226.052, 57.100
1226.534, 73.211
1227.016, 75.205
1227.498, 20.434
1227.980, 39.111
1228.462, 28.342
1228.945, 16.374
1229.427, 43.571
1229.909, 3.158
1230.391, 25.209
1230.873, 18.223
1231.355, 52.810
1231.837, 61.082
1232.319, 45.090
1232.802, 34.155
1233.284, 46.735
1233.766, 66.893
1234.248, 80.571
1234.730, 89.503
1235.212, 89.502
1235.694, 83.740
1236.176, 57.657
1236.658, 82.945
1237.141, 95.866
1237.623, 96.970
1238.105, 50.877
1238.587, 65.665
1239.069, 61.409
1239.551, 56.490
1240.033, 75.497
1240.515, 81.735
1240.997, 75.424
1241.480, 70.550
1241.962, 73.694
1242.444, 81.750
1242.926, 97.941
1243.408, 112.899
1243.890, 115.485
1244.372, 107.022
1244.854, 88.409
1245.337, 62.142
1245.819, 48.381
1246.301, 65.378
1246.783, 86.124
1247.265, 108.977
1247.747, 124.599
1248.229, 111.024
1248.711, 79.786
1249.193, 73.125
1249.676, 90.532
1250.158, 98.680
1250.640, 71.583
1251.122, 50.902
1251.604, 47.351
1252.086, 49.615
1252.568, 33.983
1253.050, 12.982
1253.532, 21.317
1254.015, 60.035
1254.497, 82.828
1254.979, 63.791
1255.461, 42.272
1255.943, 20.205
1256.425, 7.913
1256.907, 29.693
1257.389, 65.772
1257.872, 80.777
1258.354, 73.071
1258.836, 75.820
1259.318, 107.117
1259.800, 111.943
1260.282, 72.776
1260.764, 23.799
1261.246, 5.282
1261.729, 5.498
1262.211, 16.429
1262.693, 35.354
1263.175, 35.249
1263.657, 6.892
1264.139, 4.241
1264.621, 16.008
1265.103, 39.045
1265.585, 34.103
1266.068, 18.340
1266.550, 5.728
1267.032, 1.988
1267.514, 0.778
1267.996, 8.476
1268.478, 27.209
1268.960, 58.418
1269.442, 81.333
1269.924, 75.896
1270.407, 61.271
1270.889, 54.752
1271.371, 61.315
1271.853, 48.283
1272.335, 12.703
1272.817, 0.062
1273.299, 17.455
1273.781, 35.712
1274.264, 37.669
1274.746, 30.763
1275.228, 14.157
1275.710, 0.040
1276.192, 4.143
1276.674, 0.000
##END=



