##NAMES=Nifontovite
##RRUFFID=R080138
##IDEAL CHEMISTRY=Ca_3_[BO(OH)_2_]_6_&#183;2H_2_O
##LOCALITY=Charcas, San Luis Potosi, Mexico
##OWNER=RRUFF
##SOURCE=Marcus Origlieri
##DESCRIPTION=Colorless prismatic crystal
##STATUS=The identification of this mineral has been confirmed by single-crystal X-ray diffraction.
##URL=rruff.info/R080138
110.2925, 0.0000000E+00
110.7746, 0.4480590
111.2567, 0.2932820
111.7388, 0.2526860
112.2209, 1.329956
112.7031, 3.384972
113.1852, 6.787140
113.6673, 11.89827
114.1494, 17.88267
114.6315, 24.42323
115.1136, 31.52888
115.5958, 39.60979
116.0779, 48.89504
116.5600, 59.19107
117.0421, 70.23566
117.5242, 82.00826
118.0063, 94.55380
118.4885, 108.8999
118.9706, 125.8004
119.4527, 140.6848
119.9348, 151.9865
120.4169, 159.4861
120.8990, 163.0011
121.3812, 160.6243
121.8633, 154.7457
122.3454, 147.4037
122.8275, 138.3982
123.3096, 129.1970
123.7917, 121.3302
124.2739, 114.4499
124.7560, 107.2758
125.2381, 98.93867
125.7202, 89.73280
126.2023, 80.12063
126.6844, 69.59580
127.1666, 59.36874
127.6487, 50.86495
128.1308, 44.05885
128.6129, 39.03115
129.0950, 36.24445
129.5771, 35.34474
130.0593, 35.06767
130.5414, 35.33022
131.0235, 37.19417
131.5056, 39.97318
131.9877, 42.47492
132.4698, 43.68601
132.9520, 44.78609
133.4341, 46.01109
133.9162, 47.32487
134.3983, 48.59585
134.8804, 49.87978
135.3625, 51.74554
135.8447, 54.28069
136.3268, 57.16767
136.8089, 60.57063
137.2910, 64.91010
137.7731, 67.48926
138.2552, 67.29375
138.7374, 64.24920
139.2195, 59.16302
139.7016, 51.44026
140.1837, 42.20776
140.6658, 33.78475
141.1479, 26.01127
141.6301, 19.16048
142.1122, 13.21514
142.5943, 7.934494
143.0764, 4.105728
143.5585, 1.851563
144.0406, 1.031189
144.5228, 0.9042970
145.0049, 1.337753
145.4870, 2.599236
145.9691, 4.944389
146.4512, 9.841949
146.9333, 13.49009
147.4155, 15.75301
147.8976, 16.65564
148.3797, 16.17433
148.8618, 13.67263
149.3439, 10.25072
149.8260, 6.624489
150.3082, 1.552216
150.7903, 2.395554
151.2724, 4.958931
151.7545, 6.109848
152.2366, 6.619591
152.7188, 6.443512
153.2009, 5.691132
153.6830, 4.447136
154.1651, 2.088120
154.6472, 0.1428220
155.1293, 1.739754
155.6115, 2.559349
156.0936, 3.921234
156.5757, 6.099648
157.0578, 8.907890
157.5399, 12.11884
158.0220, 16.46009
158.5042, 20.54681
158.9863, 23.80189
159.4684, 26.09800
159.9505, 28.06725
160.4326, 30.24091
160.9147, 32.14288
161.3969, 33.06362
161.8790, 31.94259
162.3611, 30.37710
162.8432, 28.98969
163.3253, 27.59336
163.8074, 27.27052
164.2896, 28.72654
164.7717, 31.60000
165.2538, 35.17557
165.7359, 39.20900
166.2180, 43.76940
166.7001, 49.10768
167.1823, 55.65971
167.6644, 61.96376
168.1465, 67.62495
168.6286, 72.43182
169.1107, 75.54736
169.5928, 77.09885
170.0750, 76.48584
170.5571, 72.86612
171.0392, 65.20620
171.5213, 55.99702
172.0034, 46.51109
172.4855, 36.92852
172.9677, 28.29816
173.4498, 21.16293
173.9319, 15.31981
174.4140, 10.49575
174.8961, 6.643311
175.3782, 3.785072
175.8604, 2.065750
176.3425, 1.410789
176.8246, 1.218643
177.3067, 0.9819180
177.7888, 0.8752060
178.2709, 1.233925
178.7531, 2.164574
179.2352, 3.580246
179.7173, 5.409012
180.1994, 7.659218
180.6815, 10.19958
181.1636, 12.86033
181.6458, 15.67538
182.1279, 18.71833
182.6100, 21.99744
183.0921, 25.52380
183.5742, 29.52057
184.0563, 33.93728
184.5385, 38.42020
185.0206, 42.74588
185.5027, 46.88450
185.9848, 50.49618
186.4669, 53.75846
186.9490, 56.40050
187.4312, 57.61400
187.9133, 57.32384
188.3954, 55.96769
188.8775, 53.95536
189.3596, 51.31487
189.8417, 48.04974
190.3239, 43.93905
190.8060, 39.15535
191.2881, 34.68702
191.7702, 30.56929
192.2523, 26.81117
192.7344, 23.31571
193.2166, 20.10062
193.6987, 17.47671
194.1808, 15.59453
194.6629, 14.43598
195.1450, 13.70536
195.6271, 13.43863
196.1093, 13.50402
196.5914, 13.77084
197.0735, 14.25124
197.5556, 14.77617
198.0377, 15.31722
198.5198, 15.87911
199.0020, 16.26530
199.4841, 16.42449
199.9662, 16.49759
200.4483, 16.75588
200.9304, 17.24300
201.4125, 17.64716
201.8947, 17.64693
202.3768, 17.15490
202.8589, 17.40016
203.3410, 18.49914
203.8231, 20.19527
204.3052, 22.10548
204.7874, 24.32724
205.2695, 26.39879
205.7516, 27.89499
206.2337, 28.60227
206.7158, 30.28666
207.1979, 33.26614
207.6801, 36.94625
208.1622, 40.01276
208.6443, 42.20390
209.1264, 44.21371
209.6085, 46.55172
210.0906, 49.45218
210.5728, 51.88770
211.0549, 53.88508
211.5370, 55.45104
212.0191, 56.54784
212.5012, 57.15065
212.9833, 57.15234
213.4655, 56.35173
213.9476, 54.36869
214.4297, 52.98083
214.9118, 52.26872
215.3939, 52.14787
215.8760, 52.38698
216.3581, 52.93393
216.8403, 53.94381
217.3224, 55.65355
217.8045, 58.53656
218.2866, 60.68399
218.7687, 61.93417
219.2508, 62.46099
219.7330, 62.67407
220.2151, 62.53113
220.6972, 62.14837
221.1793, 61.60703
221.6614, 60.98481
222.1435, 59.99979
222.6257, 58.74501
223.1078, 57.09518
223.5899, 54.55793
224.0720, 50.61197
224.5541, 46.60107
225.0362, 43.06490
225.5184, 40.16174
226.0005, 37.41353
226.4826, 34.76233
226.9647, 32.26794
227.4468, 30.03924
227.9289, 28.21545
228.4111, 26.47155
228.8932, 24.71401
229.3753, 23.13594
229.8574, 21.05677
230.3395, 18.16883
230.8216, 14.86438
231.3038, 12.20369
231.7859, 10.51812
232.2680, 9.016266
232.7501, 7.325569
233.2322, 5.251324
233.7143, 3.423519
234.1965, 1.818054
234.6786, 0.4504130
235.1607, 0.6363220
235.6428, 1.359375
236.1249, 1.915508
236.6070, 2.356144
237.0892, 2.565849
237.5713, 2.969372
238.0534, 3.742306
238.5355, 4.664722
239.0176, 5.161686
239.4997, 5.097801
239.9819, 4.806934
240.4640, 4.432961
240.9461, 4.007870
241.4282, 3.405643
241.9103, 2.537174
242.3924, 1.518757
242.8746, 0.6350400
243.3567, 4.1039001E-02
243.8388, 0.6950230
244.3209, 1.377636
244.8030, 2.005451
245.2851, 2.878658
245.7673, 4.104797
246.2494, 5.534084
246.7315, 6.822128
247.2136, 7.813564
247.6957, 8.911777
248.1778, 10.27897
248.6600, 11.95023
249.1421, 13.76436
249.6242, 15.78025
250.1063, 17.92017
250.5884, 19.98776
251.0705, 21.75146
251.5527, 23.85289
252.0348, 26.59458
252.5169, 30.26923
252.9990, 33.56693
253.4811, 36.23940
253.9632, 38.73379
254.4454, 41.79831
254.9275, 45.60811
255.4096, 49.69050
255.8917, 53.94648
256.3738, 58.39205
256.8560, 62.84094
257.3381, 67.45015
257.8202, 71.96480
258.3023, 76.13059
258.7844, 79.97523
259.2665, 83.32125
259.7487, 86.13925
260.2308, 88.42554
260.7129, 90.07215
261.1950, 91.01450
261.6771, 91.38866
262.1592, 91.30096
262.6414, 90.60322
263.1235, 89.79048
263.6056, 88.82101
264.0877, 87.61636
264.5698, 87.48753
265.0519, 88.87091
265.5341, 90.72894
266.0162, 91.81166
266.4983, 91.83880
266.9804, 91.94402
267.4625, 92.52000
267.9446, 93.54692
268.4268, 93.99633
268.9089, 93.62279
269.3910, 93.09621
269.8731, 93.27897
270.3552, 94.48502
270.8373, 94.95855
271.3195, 94.13354
271.8016, 92.14753
272.2837, 90.58331
272.7658, 89.74357
273.2479, 88.60403
273.7300, 86.29391
274.2122, 82.82098
274.6943, 78.20038
275.1764, 72.23520
275.6585, 65.14618
276.1406, 57.90113
276.6227, 50.34439
277.1049, 43.21593
277.5870, 37.08427
278.0691, 31.96930
278.5512, 27.67422
279.0333, 24.25683
279.5154, 21.55378
279.9976, 19.01542
280.4797, 16.56967
280.9618, 14.54517
281.4439, 13.24029
281.9260, 12.67055
282.4081, 12.16083
282.8903, 11.62128
283.3724, 11.14150
283.8545, 10.96004
284.3366, 11.09223
284.8187, 11.36034
285.3008, 11.67052
285.7830, 12.02567
286.2651, 12.37503
286.7472, 12.67458
287.2293, 13.04848
287.7114, 13.72211
288.1935, 14.69428
288.6757, 15.87076
289.1578, 17.19430
289.6399, 18.67722
290.1220, 20.31721
290.6041, 22.13675
291.0862, 24.00892
291.5684, 25.66641
292.0505, 27.15602
292.5326, 28.87089
293.0147, 31.19827
293.4968, 33.93188
293.9789, 36.42677
294.4611, 38.59673
294.9432, 40.84003
295.4253, 43.72338
295.9074, 47.08973
296.3895, 50.25259
296.8716, 52.97495
297.3538, 55.39581
297.8359, 57.84233
298.3180, 60.36360
298.8001, 62.57773
299.2822, 64.07861
299.7643, 65.04813
300.2465, 65.89007
300.7286, 66.67404
301.2107, 67.42489
301.6928, 68.25607
302.1749, 69.14128
302.6570, 69.91140
303.1392, 70.59464
303.6213, 71.05616
304.1034, 71.03736
304.5855, 70.47717
305.0676, 69.36589
305.5497, 67.71611
306.0319, 65.51917
306.5140, 62.66427
306.9961, 59.00903
307.4782, 54.71669
307.9603, 49.77505
308.4424, 43.74506
308.9246, 37.95859
309.4067, 33.62569
309.8888, 30.42017
310.3709, 27.33612
310.8530, 23.13840
311.3351, 19.24871
311.8173, 17.04586
312.2994, 17.10157
312.7815, 17.67696
313.2636, 17.72334
313.7457, 17.56583
314.2278, 17.79582
314.7100, 18.95087
315.1921, 20.36217
315.6742, 21.58743
316.1563, 22.51769
316.6384, 23.64985
317.1205, 25.45553
317.6027, 27.49442
318.0848, 29.19748
318.5669, 30.47440
319.0490, 31.30469
319.5311, 31.67356
320.0132, 31.57923
320.4954, 31.05393
320.9775, 30.15225
321.4596, 28.80373
321.9417, 26.95406
322.4238, 24.47536
322.9059, 21.61504
323.3881, 18.08183
323.8702, 14.00601
324.3523, 10.53943
324.8344, 8.260765
325.3165, 6.373550
325.7986, 4.385666
326.2808, 1.440331
326.7629, 0.6406560
327.2450, 1.421524
327.7271, 1.165916
328.2092, 0.9186330
328.6913, 0.6592640
329.1735, 0.4347990
329.6556, 0.2676770
330.1377, 0.2373120
330.6198, 0.1091690
331.1019, 0.2130890
331.5840, 0.6018980
332.0662, 0.8457410
332.5483, 1.060188
333.0304, 0.9550550
333.5125, 0.3996430
333.9946, 0.6838070
334.4767, 1.864891
334.9589, 3.288803
335.4410, 4.657349
335.9231, 5.599823
336.4052, 6.077408
336.8873, 6.216591
337.3694, 6.065094
337.8516, 5.618301
338.3336, 4.671181
338.8158, 3.096893
339.2979, 1.279282
339.7800, 0.5020680
340.2621, 2.236107
340.7442, 3.906815
341.2263, 5.431396
341.7085, 6.905533
342.1906, 8.717659
342.6727, 10.99237
343.1548, 12.93069
343.6369, 13.88151
344.1190, 13.89244
344.6012, 13.88471
345.0833, 13.95760
345.5654, 14.03802
346.0475, 14.02511
346.5296, 13.91616
347.0117, 13.67371
347.4939, 13.27928
347.9760, 12.73735
348.4581, 11.99887
348.9402, 11.02847
349.4223, 10.05511
349.9044, 9.117378
350.3866, 8.331688
350.8687, 8.080330
351.3508, 8.845352
351.8329, 10.09377
352.3150, 10.96167
352.7971, 11.46534
353.2793, 12.01800
353.7614, 12.90267
354.2435, 14.07375
354.7256, 15.45807
355.2077, 17.01447
355.6898, 18.79225
356.1720, 20.89639
356.6541, 23.29753
357.1362, 25.84230
357.6183, 28.27602
358.1004, 30.92472
358.5826, 34.07582
359.0647, 37.79639
359.5468, 41.98416
360.0289, 46.75053
360.5110, 51.93399
360.9931, 57.24973
361.4753, 62.52022
361.9574, 67.88067
362.4395, 73.35944
362.9216, 78.94209
363.4037, 84.75538
363.8858, 91.20327
364.3680, 97.75877
364.8501, 103.8926
365.3322, 109.9278
365.8143, 115.0124
366.2964, 118.8253
366.7785, 121.3932
367.2607, 123.3559
367.7428, 125.2561
368.2249, 126.2840
368.7070, 125.9265
369.1891, 123.6649
369.6712, 120.7316
370.1534, 117.0543
370.6355, 112.7127
371.1176, 107.9472
371.5997, 102.6567
372.0818, 97.04445
372.5639, 90.98589
373.0461, 84.00217
373.5282, 78.02864
374.0103, 73.11835
374.4924, 69.03487
374.9745, 65.55746
375.4566, 62.78157
375.9388, 60.22060
376.4209, 57.67922
376.9030, 55.16714
377.3851, 53.29997
377.8672, 52.01802
378.3493, 51.47432
378.8315, 52.15899
379.3136, 54.10855
379.7957, 55.50599
380.2778, 55.73512
380.7599, 55.50797
381.2420, 56.79617
381.7242, 59.57935
382.2063, 62.40474
382.6884, 64.07597
383.1705, 64.97041
383.6526, 66.38672
384.1347, 68.50618
384.6169, 70.87752
385.0990, 73.19789
385.5811, 75.36955
386.0632, 76.89132
386.5453, 77.45788
387.0274, 77.27737
387.5096, 76.44424
387.9917, 74.97533
388.4738, 73.36157
388.9559, 72.24955
389.4380, 71.18718
389.9201, 69.52468
390.4023, 66.57526
390.8844, 63.55078
391.3665, 61.21896
391.8486, 59.45403
392.3307, 57.91573
392.8128, 56.49134
393.2950, 55.17896
393.7771, 53.90441
394.2592, 52.50131
394.7413, 51.62810
395.2234, 51.66882
395.7055, 52.36517
396.1877, 53.31924
396.6698, 54.58529
397.1519, 55.98579
397.6340, 57.36745
398.1161, 58.65547
398.5982, 60.35457
399.0804, 62.73547
399.5625, 65.40070
400.0446, 68.07528
400.5267, 70.88243
401.0088, 73.52489
401.4909, 75.80869
401.9731, 77.88926
402.4552, 80.31347
402.9373, 82.95921
403.4194, 86.15139
403.9015, 90.19926
404.3836, 95.43509
404.8658, 100.1362
405.3479, 103.9708
405.8300, 107.7060
406.3121, 112.5574
406.7942, 118.6146
407.2763, 125.0722
407.7585, 131.7123
408.2406, 138.5745
408.7227, 145.7063
409.2048, 153.0797
409.6869, 160.6906
410.1690, 168.3518
410.6512, 176.1250
411.1333, 184.6945
411.6154, 194.3288
412.0975, 204.5801
412.5796, 215.1623
413.0617, 225.9730
413.5439, 236.6761
414.0260, 247.4678
414.5081, 258.0014
414.9902, 267.6427
415.4723, 276.3913
415.9544, 284.5302
416.4366, 292.4399
416.9187, 299.7932
417.4008, 306.0617
417.8829, 310.0581
418.3650, 313.8190
418.8471, 318.8331
419.3293, 324.8339
419.8114, 330.4287
420.2935, 335.6247
420.7756, 339.7694
421.2577, 342.2056
421.7398, 342.2676
422.2220, 341.8672
422.7041, 342.6751
423.1862, 343.1258
423.6683, 340.4228
424.1504, 331.9455
424.6325, 322.4574
425.1147, 313.3340
425.5968, 304.5978
426.0789, 294.9775
426.5610, 283.8821
427.0431, 272.4415
427.5252, 261.7298
428.0074, 252.1553
428.4895, 242.2494
428.9716, 231.4870
429.4537, 220.5480
429.9358, 212.0549
430.4179, 206.6474
430.9001, 201.4821
431.3822, 195.1290
431.8643, 187.5698
432.3464, 180.1408
432.8285, 172.7835
433.3106, 165.7738
433.7928, 159.4591
434.2749, 153.8161
434.7570, 148.6360
435.2391, 143.7750
435.7212, 139.3945
436.2033, 135.8972
436.6855, 133.2737
437.1676, 131.0812
437.6497, 129.0771
438.1318, 127.2953
438.6139, 125.9627
439.0960, 125.3376
439.5782, 124.3411
440.0603, 122.2114
440.5424, 119.0534
441.0245, 115.1156
441.5066, 110.3826
441.9887, 104.9673
442.4709, 98.67573
442.9530, 91.54990
443.4351, 84.51390
443.9172, 77.86459
444.3993, 71.51082
444.8814, 65.48167
445.3636, 59.69287
445.8457, 54.27525
446.3278, 49.15648
446.8099, 44.44781
447.2920, 40.28557
447.7741, 37.00143
448.2563, 33.86058
448.7384, 30.67675
449.2205, 27.36166
449.7026, 24.42692
450.1847, 21.93023
450.6668, 19.78634
451.1490, 17.98307
451.6311, 16.59896
452.1132, 15.22417
452.5953, 13.74803
453.0774, 12.27032
453.5595, 10.97869
454.0417, 9.877201
454.5238, 8.868656
455.0059, 7.852909
455.4880, 6.868107
455.9701, 6.090382
456.4522, 5.552113
456.9344, 5.073265
457.4165, 4.447399
457.8986, 3.719585
458.3807, 3.036163
458.8628, 2.392136
459.3449, 1.858978
459.8271, 1.588234
460.3092, 1.520615
460.7913, 1.391289
461.2734, 1.015083
461.7555, 0.5310710
462.2376, 8.2170004E-03
462.7198, 0.5726780
463.2019, 1.020596
463.6840, 1.144981
464.1661, 1.113968
464.6482, 1.130863
465.1303, 1.271206
465.6125, 1.442692
466.0946, 1.651237
466.5767, 1.889744
467.0588, 2.060600
467.5409, 2.107212
468.0230, 2.129135
468.5052, 2.171700
468.9873, 2.258377
469.4694, 2.315453
469.9515, 2.386658
470.4336, 2.389996
470.9157, 2.164326
471.3979, 1.608669
471.8800, 1.168797
472.3621, 0.9682240
472.8442, 0.9708940
473.3263, 1.058392
473.8084, 1.252773
474.2906, 1.362072
474.7727, 1.135258
475.2548, 0.6706770
475.7369, 0.4736670
476.2190, 0.6335070
476.7011, 0.9145930
477.1833, 1.139717
477.6654, 1.270515
478.1475, 1.197453
478.6296, 0.6280820
479.1117, 4.0549999E-03
479.5938, 0.1308780
480.0760, 0.1480480
480.5581, 0.3355670
481.0402, 8.0338001E-02
481.5223, 0.3469390
482.0044, 0.7391780
482.4865, 1.059242
482.9687, 1.337791
483.4508, 1.608845
483.9329, 1.838554
484.4150, 1.977535
484.8971, 1.888416
485.3792, 1.843887
485.8614, 1.943386
486.3435, 2.172215
486.8256, 2.303501
487.3077, 2.210178
487.7898, 2.168419
488.2719, 2.342529
488.7541, 2.806210
489.2362, 3.257713
489.7183, 3.726490
490.2004, 4.141655
490.6825, 4.381634
491.1646, 4.431862
491.6468, 4.443302
492.1289, 4.402779
492.6110, 4.383873
493.0931, 4.653481
493.5752, 5.208908
494.0573, 5.770618
494.5395, 6.182434
495.0216, 6.451206
495.5037, 6.555351
495.9858, 6.461624
496.4679, 6.376907
496.9500, 6.448212
497.4322, 6.664097
497.9143, 7.006336
498.3964, 7.568165
498.8785, 8.164448
499.3606, 8.758808
499.8427, 9.324554
500.3249, 9.704807
500.8070, 9.467411
501.2891, 9.331673
501.7712, 9.751984
502.2533, 11.06783
502.7354, 12.09232
503.2176, 12.69103
503.6997, 12.97407
504.1818, 12.99634
504.6639, 12.42043
505.1460, 12.22064
505.6281, 12.62086
506.1103, 13.48722
506.5924, 14.34115
507.0745, 15.23008
507.5566, 15.93688
508.0387, 16.14284
508.5208, 15.90180
509.0030, 16.43437
509.4851, 17.84364
509.9672, 19.44631
510.4493, 20.52400
510.9314, 21.19183
511.4135, 21.82151
511.8957, 22.45176
512.3778, 23.16594
512.8599, 24.09008
513.3420, 25.18241
513.8242, 26.31453
514.3063, 27.39248
514.7884, 28.52387
515.2705, 29.78246
515.7526, 31.16828
516.2347, 32.65740
516.7169, 34.07823
517.1990, 35.69138
517.6811, 37.70627
518.1632, 40.56184
518.6453, 43.26664
519.1274, 45.49185
519.6096, 47.55480
520.0917, 50.00622
520.5738, 53.00478
521.0559, 56.03860
521.5380, 58.91586
522.0201, 61.68007
522.5023, 64.99844
522.9844, 69.03220
523.4665, 73.17685
523.9486, 76.82517
524.4307, 80.04111
524.9128, 84.00223
525.3950, 88.88360
525.8771, 94.11694
526.3592, 98.79653
526.8413, 103.1046
527.3234, 107.9182
527.8055, 113.6766
528.2877, 119.8966
528.7698, 126.2368
529.2519, 132.6675
529.7340, 139.1628
530.2161, 145.6358
530.6982, 152.1114
531.1804, 158.6052
531.6625, 164.8901
532.1446, 171.8414
532.6267, 180.1857
533.1088, 189.1012
533.5909, 197.6628
534.0731, 205.9010
534.5552, 213.6096
535.0373, 220.7887
535.5194, 227.4357
536.0015, 234.0725
536.4836, 241.3117
536.9658, 247.2901
537.4479, 251.0355
537.9300, 252.5911
538.4121, 254.2281
538.8942, 256.2236
539.3763, 257.2354
539.8585, 255.8604
540.3406, 252.3776
540.8227, 248.4077
541.3048, 244.1180
541.7869, 239.3976
542.2690, 234.0404
542.7512, 228.1222
543.2333, 221.8457
543.7154, 215.1651
544.1975, 208.2890
544.6796, 201.2758
545.1617, 194.1265
545.6439, 187.1561
546.1260, 179.4541
546.6081, 172.7887
547.0902, 168.6294
547.5723, 168.0040
548.0544, 166.3804
548.5366, 161.4066
549.0187, 156.1550
549.5008, 153.3389
549.9829, 154.2299
550.4650, 155.2443
550.9471, 156.2398
551.4293, 157.1136
551.9114, 157.5911
552.3935, 157.6014
552.8756, 157.5726
553.3577, 157.6183
553.8398, 157.7553
554.3220, 158.2359
554.8041, 159.0857
555.2862, 159.6269
555.7683, 159.3591
556.2504, 158.4065
556.7325, 157.0427
557.2147, 155.3307
557.6968, 153.0487
558.1789, 149.5682
558.6610, 145.4888
559.1431, 141.7344
559.6252, 138.8802
560.1074, 136.1747
560.5895, 133.0745
561.0716, 129.8273
561.5537, 127.3295
562.0358, 126.0359
562.5179, 125.2305
563.0001, 124.7271
563.4822, 124.5431
563.9643, 124.3775
564.4464, 123.9090
564.9285, 123.9145
565.4106, 125.0598
565.8928, 127.4944
566.3749, 130.1948
566.8570, 133.1890
567.3391, 136.2642
567.8212, 139.1624
568.3033, 141.9021
568.7855, 144.4505
569.2676, 147.0791
569.7497, 149.2606
570.2318, 150.2881
570.7139, 150.2019
571.1960, 149.2786
571.6782, 148.1057
572.1603, 145.8663
572.6424, 141.8661
573.1245, 135.9826
573.6066, 128.9201
574.0887, 119.8795
574.5709, 110.3457
575.0530, 101.3989
575.5351, 93.47513
576.0172, 85.57364
576.4993, 77.49071
576.9814, 69.48154
577.4636, 62.09275
577.9457, 55.42409
578.4278, 49.12444
578.9099, 43.19366
579.3920, 37.65781
579.8741, 32.55827
580.3563, 27.90875
580.8384, 23.83587
581.3205, 20.59858
581.8026, 17.96323
582.2847, 15.40323
582.7668, 12.88852
583.2490, 10.54784
583.7311, 8.452953
584.2132, 6.616501
584.6953, 5.052944
585.1774, 3.835930
585.6595, 2.755669
586.1416, 1.658413
586.6237, 0.6429560
587.1058, 0.1572230
587.5880, 0.5517810
588.0701, 0.9013790
588.5522, 1.294937
589.0343, 1.713676
589.5164, 2.071350
589.9985, 2.401928
590.4807, 2.613739
590.9628, 2.651878
591.4449, 2.513695
591.9270, 2.317741
592.4091, 2.028919
592.8912, 1.833271
593.3734, 2.027260
593.8555, 2.495617
594.3376, 2.670124
594.8197, 2.436409
595.3018, 2.054512
595.7839, 1.774597
596.2661, 1.556389
596.7482, 1.322205
597.2303, 0.9902840
597.7124, 0.6832240
598.1945, 0.4700360
598.6766, 0.3357700
599.1588, 0.2440220
599.6409, 0.1444930
600.1230, 0.1253970
600.6051, 0.2695160
601.0872, 0.5927160
601.5693, 0.7832370
602.0515, 0.7378730
602.5336, 0.7019690
603.0157, 0.8858490
603.4978, 1.375740
603.9799, 1.488377
604.4620, 1.099464
604.9442, 0.6311570
605.4263, 0.7034530
605.9084, 1.215363
606.3905, 1.602192
606.8726, 1.750938
607.3547, 1.680740
607.8369, 1.380112
608.3190, 0.8784640
608.8011, 0.2351840
609.2832, 0.8137210
609.7653, 1.735695
610.2474, 2.022560
610.7296, 1.779182
611.2117, 1.828140
611.6938, 2.474113
612.1759, 3.404724
612.6580, 4.479744
613.1401, 5.699112
613.6223, 7.076866
614.1044, 8.607986
614.5865, 10.27472
615.0686, 12.03609
615.5507, 13.88067
616.0328, 15.86194
616.5150, 17.99264
616.9971, 20.21201
617.4792, 22.33514
617.9613, 24.43616
618.4434, 26.87899
618.9255, 29.94460
619.4077, 33.20440
619.8898, 36.20959
620.3719, 39.02350
620.8540, 41.89800
621.3361, 44.56255
621.8182, 47.62253
622.3004, 51.52599
622.7825, 56.26282
623.2646, 61.11633
623.7467, 66.12855
624.2288, 71.02988
624.7109, 75.60994
625.1931, 79.64902
625.6752, 84.23582
626.1573, 89.64942
626.6394, 95.19324
627.1215, 100.0095
627.6036, 104.0805
628.0858, 108.6067
628.5679, 113.8962
629.0500, 119.4000
629.5321, 123.9323
630.0142, 127.9119
630.4963, 132.5178
630.9785, 138.5666
631.4606, 145.1517
631.9427, 151.2023
632.4248, 157.0888
632.9069, 164.0213
633.3890, 172.4749
633.8712, 182.0181
634.3533, 192.2491
634.8354, 203.0829
635.3175, 216.2224
635.7996, 233.0258
636.2817, 250.5845
636.7639, 267.2361
637.2460, 282.2096
637.7281, 299.9673
638.2102, 321.1051
638.6923, 343.5703
639.1744, 364.8798
639.6566, 385.2627
640.1387, 407.3098
640.6208, 430.9336
641.1029, 456.5889
641.5850, 484.5209
642.0671, 514.6313
642.5493, 547.4280
643.0314, 581.6384
643.5135, 619.5066
643.9956, 662.8672
644.4777, 710.8418
644.9598, 761.1980
645.4420, 812.6344
645.9241, 867.4006
646.4062, 926.6131
646.8883, 989.7900
647.3704, 1053.112
647.8525, 1117.654
648.3347, 1179.131
648.8168, 1236.577
649.2989, 1290.361
649.7810, 1327.905
650.2631, 1349.322
650.7452, 1352.782
651.2274, 1336.612
651.7095, 1300.996
652.1916, 1243.424
652.6737, 1161.511
653.1558, 1068.870
653.6379, 967.2104
654.1201, 862.8520
654.6022, 763.5869
655.0843, 668.9072
655.5664, 582.8512
656.0485, 507.0924
656.5306, 441.6556
657.0128, 384.5335
657.4949, 337.1972
657.9770, 295.6628
658.4591, 259.7365
658.9412, 229.0567
659.4233, 202.4215
659.9055, 179.8633
660.3876, 160.3109
660.8697, 143.4151
661.3518, 128.8153
661.8339, 115.8849
662.3160, 104.6153
662.7982, 94.55741
663.2803, 85.68084
663.7624, 77.59615
664.2445, 69.97668
664.7266, 62.66566
665.2087, 56.32996
665.6909, 51.68822
666.1730, 47.83992
666.6551, 44.04303
667.1372, 40.05438
667.6193, 36.37361
668.1014, 32.98260
668.5836, 29.96091
669.0657, 27.54391
669.5478, 25.80841
670.0299, 23.96400
670.5120, 21.76271
670.9941, 19.53471
671.4763, 17.89194
671.9584, 16.74459
672.4405, 15.71786
672.9226, 14.70427
673.4047, 13.67910
673.8868, 12.53086
674.3690, 11.33876
674.8511, 10.34650
675.3332, 9.646301
675.8153, 9.171028
676.2974, 8.972816
676.7795, 9.062263
677.2617, 8.968765
677.7438, 8.601532
678.2259, 8.185776
678.7080, 7.769272
679.1901, 7.331161
679.6722, 7.270630
680.1544, 7.618752
680.6365, 8.152779
681.1186, 8.790489
681.6007, 9.446190
682.0828, 9.856285
682.5649, 9.927391
683.0471, 10.06239
683.5292, 10.73239
684.0113, 11.59740
684.4934, 12.21702
684.9755, 12.16975
685.4576, 12.34740
685.9398, 13.13147
686.4219, 14.23385
686.9040, 15.16135
687.3861, 15.74678
687.8682, 16.48144
688.3503, 17.40702
688.8325, 18.55672
689.3146, 20.11675
689.7967, 22.08971
690.2788, 23.86481
690.7609, 24.91835
691.2430, 25.81142
691.7252, 27.77391
692.2073, 30.59736
692.6894, 33.25862
693.1715, 34.77183
693.6536, 36.22816
694.1357, 38.38675
694.6179, 41.27097
695.1000, 44.42551
695.5821, 47.91399
696.0642, 51.48943
696.5463, 54.94067
697.0284, 58.15026
697.5106, 62.04457
697.9927, 66.73909
698.4748, 71.86906
698.9569, 77.02055
699.4390, 82.26876
699.9211, 88.12786
700.4033, 94.67060
700.8854, 101.5598
701.3675, 108.1982
701.8496, 115.0383
702.3317, 122.8622
702.8138, 131.9304
703.2960, 141.5832
703.7781, 151.8676
704.2602, 162.3920
704.7423, 172.6755
705.2244, 181.8560
705.7065, 191.8286
706.1887, 202.9914
706.6708, 214.8201
707.1529, 226.7533
707.6350, 238.7432
708.1171, 251.0840
708.5992, 263.8767
709.0814, 277.0591
709.5635, 290.9382
710.0456, 305.4425
710.5277, 319.9237
711.0098, 334.2419
711.4919, 348.2202
711.9741, 361.8993
712.4562, 375.0616
712.9383, 387.3229
713.4204, 398.6625
713.9025, 408.9384
714.3846, 418.2610
714.8668, 426.7132
715.3489, 433.1852
715.8310, 437.6747
716.3131, 440.3037
716.7952, 441.2841
717.2773, 440.5776
717.7595, 437.4047
718.2416, 431.7296
718.7237, 424.1266
719.2058, 415.1621
719.6879, 404.5241
720.1700, 391.4958
720.6522, 375.7777
721.1343, 359.6491
721.6164, 344.2224
722.0985, 328.9472
722.5806, 312.9774
723.0627, 296.1389
723.5449, 278.9877
724.0270, 260.7428
724.5091, 242.7804
724.9912, 226.4012
725.4733, 211.5730
725.9554, 197.3875
726.4376, 183.7243
726.9197, 170.6149
727.4018, 158.1043
727.8839, 146.3469
728.3660, 136.0052
728.8481, 127.5180
729.3303, 119.5324
729.8124, 110.5672
730.2945, 101.4765
730.7766, 93.65814
731.2587, 88.06383
731.7408, 83.03413
732.2230, 78.38938
732.7051, 74.02657
733.1872, 69.76242
733.6693, 65.57585
734.1514, 61.65257
734.6335, 57.99681
735.1157, 54.67473
735.5978, 51.98624
736.0799, 49.86853
736.5620, 47.78012
737.0441, 45.14799
737.5262, 42.67857
738.0084, 41.39690
738.4905, 40.98682
738.9726, 40.37056
739.4547, 38.77517
739.9368, 37.16767
740.4189, 36.05755
740.9011, 35.40903
741.3832, 34.44131
741.8653, 32.87241
742.3474, 31.47658
742.8295, 30.62989
743.3116, 30.25915
743.7938, 29.87948
744.2759, 29.49425
744.7580, 28.96951
745.2401, 28.11985
745.7222, 27.12368
746.2043, 26.19164
746.6865, 25.33801
747.1686, 24.67113
747.6507, 24.57272
748.1328, 24.42718
748.6149, 23.75454
749.0970, 22.38172
749.5792, 21.19373
750.0613, 20.35708
750.5434, 19.53637
751.0255, 18.43582
751.5076, 17.01385
751.9897, 15.98913
752.4719, 15.41865
752.9540, 14.91486
753.4361, 13.98464
753.9182, 12.86366
754.4003, 12.12466
754.8824, 11.92892
755.3646, 11.45554
755.8467, 9.798454
756.3288, 7.810104
756.8109, 6.341850
757.2930, 5.729492
757.7751, 5.189415
758.2573, 4.738144
758.7394, 4.265221
759.2215, 3.644691
759.7036, 2.840286
760.1857, 2.060066
760.6678, 1.301102
761.1500, 0.6841430
761.6321, 0.4885250
762.1142, 0.5662230
762.5963, 0.5470580
763.0784, 0.3291930
763.5605, 3.7308000E-02
764.0427, 0.2768940
764.5248, 0.6003570
765.0069, 0.9165730
765.4890, 1.149727
765.9711, 1.473991
766.4532, 1.947205
766.9354, 2.487259
767.4175, 3.003170
767.8996, 3.513519
768.3817, 3.885601
768.8638, 4.084126
769.3459, 4.173145
769.8281, 4.286388
770.3102, 4.371056
770.7923, 4.260963
771.2744, 3.816208
771.7565, 3.289505
772.2386, 2.815334
772.7208, 2.384411
773.2029, 1.980789
773.6850, 1.542309
774.1671, 1.214451
774.6492, 1.078754
775.1313, 1.033932
775.6135, 0.8611600
776.0956, 0.5469210
776.5777, 0.2274090
777.0598, 4.2039999E-03
777.5419, 0.3059540
778.0240, 1.226414
778.5062, 2.540924
778.9883, 3.575012
779.4704, 3.783363
779.9525, 3.853081
780.4346, 4.117058
780.9167, 4.561874
781.3989, 5.154610
781.8810, 5.822521
782.3631, 6.748684
782.8452, 8.075386
783.3273, 9.636787
783.8094, 10.91685
784.2916, 11.88297
784.7737, 12.97702
785.2558, 14.48797
785.7379, 16.09373
786.2200, 16.98418
786.7021, 17.41251
787.1843, 18.18297
787.6664, 20.05411
788.1485, 22.03240
788.6306, 23.38153
789.1127, 24.34732
789.5948, 25.85294
790.0770, 28.37769
790.5591, 30.90557
791.0412, 33.27385
791.5233, 35.44661
792.0054, 37.20222
792.4875, 38.51754
792.9697, 40.04778
793.4518, 42.10148
793.9339, 44.49131
794.4160, 46.91277
794.8981, 49.39566
795.3802, 52.04355
795.8624, 55.34908
796.3445, 58.36345
796.8266, 60.31947
797.3087, 61.47399
797.7908, 63.24041
798.2729, 65.91366
798.7551, 68.67233
799.2372, 71.40543
799.7193, 74.02487
800.2014, 76.10536
800.6835, 77.68678
801.1656, 79.36657
801.6478, 81.82875
802.1299, 84.22200
802.6120, 85.50464
803.0941, 85.88553
803.5762, 86.04851
804.0583, 86.72784
804.5405, 86.76078
805.0226, 85.38754
805.5047, 82.94154
805.9868, 80.68601
806.4689, 78.76560
806.9510, 76.64579
807.4332, 74.09861
807.9153, 71.29575
808.3974, 68.71780
808.8795, 66.33458
809.3616, 64.00249
809.8438, 61.61311
810.3259, 59.30288
810.8080, 57.12510
811.2901, 55.15824
811.7722, 53.54609
812.2543, 52.52765
812.7365, 51.64487
813.2186, 50.83093
813.7007, 50.05676
814.1828, 49.25153
814.6649, 48.41922
815.1470, 47.45808
815.6292, 46.23650
816.1113, 44.98234
816.5934, 44.16879
817.0755, 43.70194
817.5576, 43.28560
818.0397, 42.76070
818.5219, 42.26381
819.0040, 41.93926
819.4861, 41.70514
819.9682, 41.29701
820.4503, 40.64809
820.9324, 39.90101
821.4146, 39.02482
821.8967, 38.11801
822.3788, 37.52665
822.8609, 37.23301
823.3430, 36.91585
823.8251, 36.57100
824.3073, 35.96392
824.7894, 34.56814
825.2715, 32.72379
825.7536, 31.10489
826.2357, 30.29668
826.7178, 29.41338
827.2000, 28.02158
827.6821, 26.44517
828.1642, 25.38995
828.6463, 25.08389
829.1284, 24.50432
829.6105, 23.37002
830.0927, 21.96893
830.5748, 20.71064
831.0569, 19.60711
831.5390, 18.71593
832.0211, 18.19480
832.5032, 17.60808
832.9854, 16.60423
833.4675, 15.35780
833.9496, 14.15051
834.4317, 12.97539
834.9138, 11.91967
835.3959, 10.97437
835.8781, 10.20379
836.3602, 9.739265
836.8423, 9.580173
837.3244, 9.131310
837.8065, 8.188725
838.2886, 7.236118
838.7708, 7.012199
839.2529, 7.113010
839.7350, 6.839062
840.2171, 5.744003
840.6992, 4.775326
841.1813, 4.314667
841.6635, 4.089855
842.1456, 3.813938
842.6277, 3.484314
843.1098, 3.094818
843.5919, 2.608292
844.0740, 2.160343
844.5562, 1.957439
845.0383, 1.928215
845.5204, 1.866585
846.0025, 1.738144
846.4846, 1.597321
846.9667, 1.474468
847.4489, 1.362797
847.9310, 1.268997
848.4131, 1.233185
848.8952, 1.087074
849.3773, 0.7508280
849.8594, 0.4112590
850.3416, 0.2195010
850.8237, 0.1716040
851.3058, 0.1300050
851.7879, 9.2518002E-02
852.2700, 1.0281000E-02
852.7521, 0.2785680
853.2343, 0.5704350
853.7164, 0.5509870
854.1985, 0.1751710
854.6806, 5.5645000E-02
855.1627, 0.2192540
855.6448, 0.5001530
856.1270, 0.5104830
856.6091, 0.2428780
857.0912, 0.1051060
857.5733, 0.1074410
858.0554, 0.1882900
858.5375, 0.3831940
859.0197, 0.6069560
859.5018, 0.6305690
859.9839, 0.4867550
860.4660, 0.3822670
860.9481, 0.4479410
861.4302, 0.5677830
861.9124, 0.7388420
862.3945, 0.9326900
862.8766, 0.9338420
863.3587, 0.6537590
863.8408, 0.3734470
864.3229, 0.1399990
864.8051, 7.2710002E-03
865.2872, 0.2847140
865.7693, 0.8824460
866.2514, 1.259907
866.7335, 1.048737
867.2156, 0.6147160
867.6978, 0.1035960
868.1799, 0.4057120
868.6620, 0.7395970
869.1441, 0.5619930
869.6262, 0.5964970
870.1083, 1.013966
870.5905, 1.639385
871.0726, 2.103218
871.5547, 2.417301
872.0368, 2.824940
872.5189, 3.426414
873.0010, 4.030941
873.4832, 4.332237
873.9653, 4.517719
874.4474, 4.887394
874.9295, 5.550518
875.4116, 6.365391
875.8937, 7.439522
876.3759, 8.561481
876.8580, 9.477192
877.3401, 10.10269
877.8222, 11.05562
878.3043, 12.45391
878.7864, 13.85913
879.2686, 14.62871
879.7507, 15.14502
880.2328, 16.20036
880.7149, 17.97093
881.1970, 19.62072
881.6791, 20.46833
882.1613, 21.25639
882.6434, 22.55462
883.1255, 24.44031
883.6076, 26.31025
884.0897, 28.23327
884.5718, 29.92296
885.0540, 30.98597
885.5361, 31.69109
886.0182, 32.98303
886.5003, 34.78419
886.9824, 36.34876
887.4645, 37.00401
887.9467, 37.47577
888.4288, 38.31992
888.9109, 39.46826
889.3930, 40.09830
889.8751, 39.90847
890.3572, 39.81899
890.8394, 40.22191
891.3215, 40.84093
891.8036, 40.86825
892.2857, 40.37609
892.7678, 39.74892
893.2499, 39.07338
893.7321, 38.43439
894.2142, 37.94107
894.6963, 37.51614
895.1784, 37.01492
895.6605, 36.13534
896.1426, 35.62017
896.6248, 35.72458
897.1069, 35.98997
897.5890, 35.59681
898.0711, 34.63504
898.5532, 34.08802
899.0353, 34.21272
899.5175, 34.36319
899.9996, 33.76110
900.4817, 32.91310
900.9638, 32.44925
901.4459, 32.64219
901.9280, 32.73034
902.4102, 32.62364
902.8923, 32.40659
903.3744, 32.04787
903.8565, 31.53452
904.3386, 31.47004
904.8207, 31.86895
905.3029, 32.30772
905.7850, 32.48266
906.2671, 32.49854
906.7492, 32.40265
907.2313, 32.21133
907.7134, 32.12069
908.1956, 32.30966
908.6777, 32.49610
909.1598, 32.60001
909.6419, 32.62522
910.1240, 32.53390
910.6061, 32.30907
911.0883, 32.21305
911.5704, 32.51221
912.0525, 32.87917
912.5346, 32.84245
913.0167, 32.48971
913.4988, 32.07963
913.9810, 31.55591
914.4631, 31.24101
914.9452, 31.47203
915.4273, 31.73436
915.9094, 31.15013
916.3915, 29.62391
916.8737, 28.51895
917.3558, 28.09744
917.8379, 27.88586
918.3200, 27.25511
918.8021, 26.49668
919.2842, 26.05851
919.7664, 26.06353
920.2485, 26.20407
920.7306, 26.69193
921.2127, 27.05492
921.6948, 26.94659
922.1769, 26.32347
922.6591, 25.84827
923.1412, 25.50256
923.6233, 25.17258
924.1054, 24.74189
924.5875, 24.37169
925.0696, 24.33623
925.5518, 24.57606
926.0339, 24.70419
926.5160, 24.33707
926.9981, 24.07853
927.4802, 24.30450
927.9623, 24.75316
928.4445, 24.48182
928.9266, 23.41090
929.4087, 22.58648
929.8908, 22.39492
930.3729, 22.42209
930.8550, 22.14695
931.3372, 21.67138
931.8193, 21.17749
932.3014, 20.67693
932.7835, 20.23174
933.2656, 19.97466
933.7477, 19.68539
934.2299, 19.14990
934.7120, 18.35201
935.1941, 17.43188
935.6762, 16.37612
936.1583, 15.40424
936.6404, 14.81530
937.1226, 14.39458
937.6047, 13.90735
938.0868, 13.32874
938.5689, 12.61567
939.0510, 11.61333
939.5331, 10.62499
940.0153, 9.788891
940.4974, 9.068211
940.9795, 8.101013
941.4616, 6.871410
941.9437, 5.942822
942.4258, 5.831879
942.9080, 5.871517
943.3901, 5.085720
943.8722, 3.862286
944.3543, 3.031796
944.8364, 3.369499
945.3185, 3.424137
945.8007, 2.837215
946.2828, 2.028946
946.7649, 1.574398
947.2470, 1.463696
947.7291, 1.270588
948.2112, 0.9179040
948.6934, 0.6376000
949.1755, 0.7842520
949.6576, 1.043083
950.1397, 1.021954
950.6218, 0.5957180
951.1039, 0.3542020
951.5861, 0.4542960
952.0682, 0.6256680
952.5503, 0.7434120
953.0324, 0.8183780
953.5145, 0.9510190
953.9966, 1.131214
954.4788, 1.243206
954.9609, 1.067368
955.4430, 0.9369200
955.9251, 1.185650
956.4072, 1.688725
956.8893, 2.113792
957.3715, 2.426521
957.8536, 2.616085
958.3357, 2.637005
958.8178, 2.595642
959.2999, 2.589909
959.7820, 2.656178
960.2642, 3.049431
960.7463, 3.907280
961.2284, 4.578407
961.7105, 4.435299
962.1926, 4.003479
962.6747, 3.714462
963.1569, 3.607597
963.6390, 3.692963
964.1211, 4.052822
964.6032, 4.383556
965.0853, 4.499275
965.5674, 4.441631
966.0496, 4.154442
966.5317, 3.743866
967.0138, 3.705372
967.4959, 4.839386
967.9780, 5.846512
968.4601, 5.954063
968.9423, 5.500946
969.4244, 5.299343
969.9065, 5.467747
970.3886, 5.311146
970.8707, 4.595943
971.3528, 3.859230
971.8350, 3.937637
972.3171, 4.471947
972.7992, 4.779213
973.2813, 4.661991
973.7634, 4.640926
974.2455, 5.194725
974.7277, 5.636276
975.2098, 5.431770
975.6919, 4.565887
976.1740, 4.377590
976.6561, 4.898987
977.1382, 5.393551
977.6204, 5.271591
978.1025, 4.971275
978.5846, 5.065762
979.0667, 5.426743
979.5488, 5.666615
980.0309, 5.616253
980.5131, 5.478539
980.9952, 5.224987
981.4773, 4.964558
981.9594, 4.884033
982.4415, 4.968838
982.9236, 5.121429
983.4058, 5.337318
983.8879, 5.525379
984.3700, 5.668255
984.8521, 5.707596
985.3342, 5.506523
985.8163, 4.933067
986.2985, 4.836529
986.7806, 5.468967
987.2627, 6.012043
987.7448, 5.997776
988.2269, 5.592823
988.7090, 5.270027
989.1912, 5.012150
989.6733, 4.744621
990.1554, 4.254189
990.6375, 3.937542
991.1196, 4.249729
991.6017, 4.767529
992.0839, 4.722000
992.5660, 3.936802
993.0481, 3.360302
993.5302, 3.121696
994.0123, 3.082439
994.4944, 3.172310
994.9766, 3.296547
995.4587, 3.301800
995.9408, 3.160870
996.4229, 3.035408
996.9050, 2.915382
997.3871, 2.889809
997.8693, 2.916710
998.3514, 3.040234
998.8335, 2.929264
999.3156, 2.697269
999.7977, 2.784115
1000.280, 3.544079
1000.762, 4.323090
1001.244, 4.444477
1001.726, 4.240395
1002.208, 4.229752
1002.690, 4.449989
1003.173, 4.964058
1003.655, 5.881958
1004.137, 6.903603
1004.619, 7.742599
1005.101, 8.427082
1005.583, 8.981739
1006.065, 9.428150
1006.547, 9.926270
1007.029, 10.72466
1007.512, 11.44234
1007.994, 11.73829
1008.476, 11.76181
1008.958, 12.20678
1009.440, 13.13910
1009.922, 14.06238
1010.404, 14.88522
1010.886, 15.50103
1011.369, 15.54412
1011.851, 15.35108
1012.333, 15.52089
1012.815, 16.46404
1013.297, 17.19480
1013.779, 17.43970
1014.261, 17.55818
1014.743, 17.72297
1015.225, 17.94775
1015.708, 18.59542
1016.190, 19.63211
1016.672, 20.49255
1017.154, 20.66451
1017.636, 20.64641
1018.118, 20.70528
1018.600, 20.86319
1019.082, 21.17253
1019.565, 21.72626
1020.047, 22.17320
1020.529, 22.45279
1021.011, 22.61710
1021.493, 22.77230
1021.975, 22.86166
1022.457, 22.68037
1022.939, 22.13887
1023.421, 21.83111
1023.904, 22.31162
1024.386, 22.80347
1024.868, 22.88617
1025.350, 22.61057
1025.832, 22.47002
1026.314, 22.46255
1026.796, 22.36209
1027.278, 22.01796
1027.760, 21.59460
1028.243, 21.19210
1028.725, 20.84285
1029.207, 20.61234
1029.689, 20.82037
1030.171, 20.54192
1030.653, 19.50709
1031.135, 18.52636
1031.617, 18.57998
1032.100, 19.30188
1032.582, 19.62799
1033.064, 19.52186
1033.546, 19.29728
1034.028, 19.06774
1034.510, 18.81364
1034.992, 18.51538
1035.474, 18.18650
1035.957, 17.89007
1036.439, 17.62714
1036.921, 17.32477
1037.403, 16.98018
1037.885, 16.53172
1038.367, 15.77911
1038.849, 14.94860
1039.331, 14.37420
1039.813, 14.19571
1040.296, 13.88190
1040.778, 13.41719
1041.260, 12.78674
1041.742, 11.93881
1042.224, 10.93627
1042.706, 9.931351
1043.188, 8.977951
1043.670, 8.232765
1044.152, 8.016144
1044.635, 7.753002
1045.117, 7.213974
1045.599, 6.493729
1046.081, 5.669624
1046.563, 4.693771
1047.045, 3.965992
1047.527, 3.528584
1048.009, 3.129360
1048.492, 2.467106
1048.974, 1.789944
1049.456, 1.423321
1049.938, 1.346611
1050.420, 1.112682
1050.902, 0.5686840
1051.384, 7.0243999E-02
1051.866, 0.2940030
1052.349, 0.5718500
1052.831, 0.8429180
1053.313, 1.103878
1053.795, 1.454628
1054.277, 2.091106
1054.759, 2.090015
1055.241, 0.1686900
1055.723, 2.117077
1056.205, 1.859440
1056.688, 0.5254550
1057.170, 1.746304
1057.652, 1.805210
1058.134, 1.771503
1058.616, 2.331059
1059.098, 2.917534
1059.580, 2.950485
1060.062, 2.644993
1060.544, 2.401779
1061.027, 2.323055
1061.509, 2.200314
1061.991, 1.993320
1062.473, 1.834488
1062.955, 1.972355
1063.437, 2.215996
1063.919, 2.072193
1064.401, 1.569839
1064.884, 1.169662
1065.366, 1.192406
1065.848, 1.217079
1066.330, 1.131760
1066.812, 0.9522670
1067.294, 0.6659280
1067.776, 0.2933390
1068.258, 5.1300000E-02
1068.740, 1.3363000E-02
1069.223, 4.4312000E-02
1069.705, 0.3458400
1070.187, 0.7132950
1070.669, 0.9446180
1071.151, 1.016895
1071.633, 1.435402
1072.115, 2.308380
1072.597, 3.014748
1073.079, 3.250797
1073.562, 3.209824
1074.044, 2.991501
1074.526, 2.761269
1075.008, 2.839466
1075.490, 3.613083
1075.972, 4.166237
1076.454, 4.342480
1076.936, 4.425941
1077.419, 4.700039
1077.901, 5.081055
1078.383, 5.139698
1078.865, 4.911743
1079.347, 4.671135
1079.829, 4.434441
1080.311, 4.367496
1080.793, 4.664936
1081.275, 5.129158
1081.758, 5.466064
1082.240, 5.673000
1082.722, 5.840183
1083.204, 5.974678
1083.686, 6.111568
1084.168, 6.287743
1084.650, 6.483292
1085.132, 6.695858
1085.615, 6.920830
1086.097, 7.085751
1086.579, 7.151619
1087.061, 7.268341
1087.543, 7.452335
1088.025, 7.758633
1088.507, 8.474472
1088.989, 9.310806
1089.471, 9.647346
1089.953, 9.100399
1090.436, 9.014126
1090.918, 10.01956
1091.400, 11.08062
1091.882, 11.63913
1092.364, 11.83084
1092.846, 12.36174
1093.328, 13.12402
1093.810, 13.61806
1094.293, 13.21283
1094.775, 13.03812
1095.257, 13.77426
1095.739, 14.92367
1096.221, 15.96500
1096.703, 16.89082
1097.185, 17.79383
1097.667, 18.67890
1098.150, 19.56967
1098.632, 20.66296
1099.114, 21.59724
1099.596, 21.79533
1100.078, 21.57953
1100.560, 22.07373
1101.042, 23.73392
1101.524, 24.80795
1102.006, 24.96131
1102.489, 24.88156
1102.971, 25.30208
1103.453, 26.04739
1103.935, 26.98434
1104.417, 28.08425
1104.899, 28.76423
1105.381, 28.57249
1105.863, 28.41695
1106.345, 28.50897
1106.828, 28.80404
1107.310, 29.32401
1107.792, 29.96286
1108.274, 30.41476
1108.756, 30.65680
1109.238, 30.42720
1109.720, 29.04002
1110.202, 27.71879
1110.685, 27.21921
1111.167, 27.40975
1111.649, 27.34821
1112.131, 27.03146
1112.613, 26.65619
1113.095, 26.49097
1113.577, 26.23104
1114.059, 25.59507
1114.542, 24.69011
1115.024, 23.73021
1115.506, 22.73763
1115.988, 22.10178
1116.470, 21.82626
1116.952, 21.45567
1117.434, 20.69712
1117.916, 19.75900
1118.398, 18.75801
1118.880, 17.73363
1119.363, 16.78796
1119.845, 15.68890
1120.327, 15.31228
1120.809, 15.94168
1121.291, 16.50224
1121.773, 15.80274
1122.255, 14.41603
1122.737, 13.19246
1123.220, 12.15939
1123.702, 11.27535
1124.184, 10.50974
1124.666, 10.00111
1125.148, 9.909374
1125.630, 9.906471
1126.112, 9.247620
1126.594, 8.227375
1127.077, 7.900154
1127.559, 8.450249
1128.041, 8.918213
1128.523, 8.655434
1129.005, 8.397781
1129.487, 8.487175
1129.969, 8.809921
1130.451, 9.018314
1130.933, 9.129436
1131.416, 9.278492
1131.898, 9.521965
1132.380, 9.727386
1132.862, 9.638592
1133.344, 9.618473
1133.826, 10.02640
1134.308, 10.82422
1134.790, 11.35569
1135.272, 11.61875
1135.755, 11.79122
1136.237, 11.88408
1136.719, 12.04096
1137.201, 12.52575
1137.683, 13.08820
1138.165, 13.36330
1138.647, 13.23043
1139.129, 13.26953
1139.612, 13.48653
1140.094, 13.83508
1140.576, 14.39342
1141.058, 14.97245
1141.540, 15.32908
1142.022, 15.52035
1142.504, 15.67081
1142.986, 15.85751
1143.469, 15.87497
1143.951, 15.66051
1144.433, 15.45438
1144.915, 15.53505
1145.397, 15.73077
1145.879, 15.63562
1146.361, 15.34884
1146.843, 15.30816
1147.325, 16.01928
1147.807, 16.45412
1148.290, 16.44325
1148.772, 16.20226
1149.254, 15.91823
1149.736, 15.62838
1150.218, 15.45301
1150.700, 15.38529
1151.182, 15.25908
1151.664, 14.94177
1152.147, 14.62888
1152.629, 14.37891
1153.111, 14.15987
1153.593, 13.96207
1154.075, 13.75272
1154.557, 13.37175
1155.039, 12.78826
1155.521, 12.16209
1156.004, 11.37325
1156.486, 10.81678
1156.968, 10.81366
1157.450, 11.08926
1157.932, 10.69160
1158.414, 9.723068
1158.896, 8.908546
1159.378, 8.434715
1159.860, 8.096962
1160.343, 7.771896
1160.825, 7.530827
1161.307, 7.440861
1161.789, 7.477341
1162.271, 7.462299
1162.753, 7.397247
1163.235, 7.330772
1163.717, 7.314072
1164.199, 7.212135
1164.682, 6.811646
1165.164, 6.345627
1165.646, 6.028576
1166.128, 5.861271
1166.610, 5.902405
1167.092, 6.161095
1167.574, 6.359074
1168.056, 6.289333
1168.539, 6.203785
1169.021, 6.374237
1169.503, 6.651093
1169.985, 6.798306
1170.467, 6.720428
1170.949, 6.940250
1171.431, 7.492767
1171.913, 8.020710
1172.396, 8.108036
1172.878, 8.221668
1173.360, 9.066254
1173.842, 10.24045
1174.324, 10.93893
1174.806, 10.85411
1175.288, 10.99274
1175.770, 11.41028
1176.252, 11.86161
1176.734, 12.13539
1177.217, 12.34526
1177.699, 12.57093
1178.181, 12.84782
1178.663, 13.29542
1179.145, 14.12367
1179.627, 14.58907
1180.109, 14.55567
1180.591, 14.48729
1181.074, 15.04013
1181.556, 15.69906
1182.038, 15.65629
1182.520, 15.02431
1183.002, 14.52260
1183.484, 14.40500
1183.966, 14.09657
1184.448, 13.47335
1184.931, 12.81678
1185.413, 12.47334
1185.895, 12.28755
1186.377, 12.00104
1186.859, 11.61263
1187.341, 11.29860
1187.823, 11.15186
1188.305, 10.95184
1188.787, 10.64436
1189.270, 10.30362
1189.752, 10.05494
1190.234, 9.834641
1190.716, 9.500866
1191.198, 9.044979
1191.680, 8.654335
1192.162, 8.314278
1192.644, 8.160992
1193.126, 8.290951
1193.609, 8.498924
1194.091, 8.389275
1194.573, 8.142479
1195.055, 8.157597
1195.537, 8.514900
1196.019, 8.617523
1196.501, 8.082855
1196.983, 7.756039
1197.466, 7.954575
1197.948, 8.379345
1198.430, 8.432346
1198.912, 8.306019
1199.394, 8.451614
1199.876, 9.015217
1200.358, 9.325237
1200.840, 9.068516
1201.323, 8.857399
1201.805, 8.888458
1202.287, 9.142509
1202.769, 9.749752
1203.251, 10.49294
1203.733, 10.90367
1204.215, 10.83543
1204.697, 10.63406
1205.179, 10.27902
1205.661, 10.00367
1206.144, 9.952900
1206.626, 10.00274
1207.108, 9.788342
1207.590, 9.460381
1208.072, 9.421059
1208.554, 9.924606
1209.036, 10.28062
1209.518, 10.35311
1210.001, 10.22367
1210.483, 9.823914
1210.965, 9.375843
1211.447, 9.536377
1211.929, 10.04802
1212.411, 10.32670
1212.893, 10.12891
1213.375, 9.851849
1213.858, 9.389595
1214.340, 9.214775
1214.822, 9.761642
1215.304, 10.65292
1215.786, 10.96776
1216.268, 10.89995
1216.750, 10.86028
1217.232, 10.87563
1217.714, 11.16323
1218.197, 11.76244
1218.679, 12.54301
1219.161, 13.58799
1219.643, 14.63927
1220.125, 14.98172
1220.607, 14.92905
1221.089, 15.21687
1221.571, 16.36850
1222.053, 17.27097
1222.536, 17.74954
1223.018, 18.29071
1223.500, 19.34330
1223.982, 20.61011
1224.464, 21.61346
1224.946, 22.33781
1225.428, 22.73762
1225.910, 22.33279
1226.393, 22.41795
1226.875, 23.10138
1227.357, 23.98984
1227.839, 24.91311
1228.321, 25.78175
1228.803, 26.49175
1229.285, 27.03320
1229.767, 27.37407
1230.250, 27.35983
1230.732, 27.44852
1231.214, 27.68752
1231.696, 27.86323
1232.178, 27.77563
1232.660, 27.55560
1233.142, 27.35302
1233.624, 27.16481
1234.106, 26.99501
1234.589, 26.93082
1235.071, 26.69309
1235.553, 26.29486
1236.035, 25.61460
1236.517, 24.31826
1236.999, 22.90608
1237.481, 22.02874
1237.963, 21.50021
1238.445, 20.88367
1238.928, 20.17129
1239.410, 19.23381
1239.892, 18.02702
1240.374, 16.86047
1240.856, 15.99632
1241.338, 15.25439
1241.820, 14.48718
1242.302, 13.70448
1242.785, 12.96140
1243.267, 12.28619
1243.749, 11.44640
1244.231, 10.42619
1244.713, 9.418358
1245.195, 8.535637
1245.677, 7.745739
1246.159, 7.035847
1246.641, 6.416725
1247.124, 5.951061
1247.606, 5.673580
1248.088, 5.077732
1248.570, 4.159607
1249.052, 3.420918
1249.534, 3.332439
1250.016, 3.368061
1250.498, 3.332714
1250.980, 3.154209
1251.463, 2.683224
1251.945, 1.925335
1252.427, 1.258770
1252.909, 0.7060590
1253.391, 0.3463550
1253.873, 0.4385340
1254.355, 0.4939160
1254.837, 0.1973930
1255.320, 0.1555060
1255.802, 0.1916260
1256.284, 2.7632000E-02
1256.766, 0.1129950
1257.248, 6.4893998E-02
1257.730, 2.3729999E-03
1258.212, 5.1043998E-02
1258.694, 7.5989999E-03
1259.177, 0.2941000
1259.659, 0.6019170
1260.141, 0.7037260
1260.623, 0.6488080
1261.105, 0.5585480
1261.587, 0.4593850
1262.069, 0.4458080
1262.551, 0.6341880
1263.033, 0.8094200
1263.516, 0.9868850
1263.998, 1.058046
1264.480, 0.7743720
1264.962, 0.3719830
1265.444, 0.4683110
1265.926, 0.9033470
1266.408, 1.047066
1266.890, 0.4612940
1267.372, 8.5175000E-02
1267.855, 2.0890001E-03
1268.337, 2.6094001E-02
1268.819, 0.1217940
1269.301, 0.1718220
1269.783, 3.5477001E-02
1270.265, 0.4172610
1270.747, 0.7434840
1271.229, 1.000269
1271.712, 1.150423
1272.194, 1.171755
1272.676, 1.238661
1273.158, 1.587240
1273.640, 1.946823
1274.122, 2.003201
1274.604, 1.903435
1275.086, 1.951492
1275.568, 2.175577
1276.051, 2.467495
1276.533, 2.809305
1277.015, 2.987452
1277.497, 2.907457
1277.979, 2.847782
1278.461, 2.828835
1278.943, 2.738316
1279.425, 2.797260
1279.907, 2.765869
1280.390, 2.578854
1280.872, 2.609402
1281.354, 2.432205
1281.836, 1.841097
1282.318, 1.573687
1282.800, 1.717545
1283.282, 1.913454
1283.764, 2.142319
1284.247, 2.275204
1284.729, 2.164667
1285.211, 1.987350
1285.693, 1.885056
1286.175, 1.955044
1286.657, 1.965061
1287.139, 1.898073
1287.621, 1.776514
1288.104, 1.523338
1288.586, 1.257360
1289.068, 1.048180
1289.550, 0.8565690
1290.032, 0.6741450
1290.514, 0.4892920
1290.996, 0.3693790
1291.478, 0.3507790
1291.960, 0.3203600
1292.443, 0.1852990
1292.925, 4.7035001E-02
1293.407, 0.0000000E+00
##END=



