##NAMES=Nissonite
##RRUFFID=R100068
##IDEAL CHEMISTRY=Cu_2_Mg_2_(PO_4_)_2_(OH)_2_&#183;5H_2_O
##LOCALITY=Boss mine, Goodsprings district, Clark County, Nevada, USA
##OWNER=RRUFF
##SOURCE=Bob Jenkins
##DESCRIPTION=Pale blue bladed crystals associated with green malachite
##STATUS=The identification of this mineral has been confirmed by single-crystal X-ray diffraction.
##URL=rruff.info/R100068
142.5608, 0.0000000E+00
143.0429, 3.688171
143.5250, 0.3114620
144.0071, 0.8167110
144.4893, 2.014160
144.9714, 3.942017
145.4535, 18.88159
145.9356, 39.56396
146.4177, 74.32141
146.8998, 121.4493
147.3820, 181.9506
147.8641, 263.9840
148.3462, 369.4351
148.8283, 493.2272
149.3104, 634.6970
149.7925, 804.2152
150.2747, 977.0299
150.7568, 1163.490
151.2389, 1359.602
151.7210, 1513.372
152.2031, 1650.427
152.6852, 1728.898
153.1674, 1724.155
153.6495, 1574.829
154.1316, 1403.790
154.6137, 1211.435
155.0958, 997.3552
155.5779, 815.8372
156.0601, 674.4309
156.5422, 567.2103
157.0243, 490.9575
157.5064, 455.8027
157.9885, 441.5060
158.4706, 445.1848
158.9528, 467.5266
159.4349, 499.2297
159.9170, 543.3051
160.3991, 593.8953
160.8812, 644.2277
161.3633, 704.0137
161.8455, 753.7958
162.3276, 788.4995
162.8097, 811.4102
163.2918, 811.4373
163.7739, 769.6302
164.2560, 699.8197
164.7382, 616.0333
165.2203, 529.6254
165.7024, 453.0924
166.1845, 392.8635
166.6666, 349.8121
167.1487, 319.7402
167.6309, 302.7100
168.1130, 296.2551
168.5951, 295.5421
169.0772, 299.6366
169.5593, 307.4426
170.0414, 318.4747
170.5236, 333.6134
171.0057, 349.6434
171.4878, 366.2679
171.9699, 382.5071
172.4520, 395.0896
172.9341, 402.7972
173.4163, 405.9121
173.8984, 404.6937
174.3805, 399.0593
174.8626, 389.4336
175.3447, 376.3480
175.8268, 359.6982
176.3090, 338.7732
176.7911, 312.2976
177.2732, 281.5800
177.7553, 248.5470
178.2374, 212.2783
178.7195, 175.3080
179.2017, 139.7137
179.6838, 105.3564
180.1659, 74.41626
180.6480, 48.01343
181.1301, 26.04346
181.6122, 7.739868
182.0944, 7.013794
182.5765, 18.32104
183.0586, 26.10352
183.5407, 30.28955
184.0228, 32.54724
184.5049, 34.18372
184.9871, 35.06458
185.4692, 34.69958
185.9513, 33.16931
186.4334, 30.24158
186.9155, 25.47424
187.3976, 18.94202
187.8798, 10.08435
188.3619, 16.67385
188.8440, 17.57446
189.3261, 33.98914
189.8082, 50.91406
190.2903, 68.37524
190.7725, 87.22656
191.2546, 108.0912
191.7367, 128.3948
192.2188, 147.8239
192.7009, 166.2234
193.1830, 176.6241
193.6652, 175.1207
194.1473, 163.0380
194.6294, 147.9044
195.1115, 129.4457
195.5936, 108.9347
196.0757, 86.22363
196.5579, 61.07483
197.0400, 40.08740
197.5221, 25.86816
198.0042, 18.25916
198.4863, 15.23596
198.9684, 17.38953
199.4506, 22.86829
199.9327, 28.78406
200.4148, 33.23547
200.8969, 39.77100
201.3790, 49.79309
201.8611, 63.40051
202.3433, 76.75745
202.8254, 89.83374
203.3075, 102.7311
203.7896, 115.0239
204.2717, 126.3544
204.7538, 139.0062
205.2360, 153.9974
205.7181, 171.4303
206.2002, 189.8885
206.6823, 209.1223
207.1644, 229.6268
207.6465, 252.2573
208.1287, 276.6398
208.6108, 303.5933
209.0929, 333.5490
209.5750, 366.8329
210.0571, 402.0073
210.5392, 439.0704
211.0214, 478.3254
211.5035, 520.1821
211.9856, 563.6061
212.4677, 611.3401
212.9498, 665.2483
213.4319, 725.8126
213.9140, 788.7664
214.3962, 855.3402
214.8783, 923.7460
215.3604, 989.6942
215.8425, 1055.844
216.3246, 1114.851
216.8067, 1166.251
217.2889, 1213.720
217.7710, 1239.286
218.2531, 1241.353
218.7352, 1222.031
219.2173, 1184.791
219.6994, 1124.825
220.1816, 1055.615
220.6637, 979.9653
221.1458, 892.2523
221.6279, 813.3574
222.1100, 741.9033
222.5921, 679.7527
223.0743, 630.1183
223.5564, 594.9893
224.0385, 569.5740
224.5206, 553.2893
225.0027, 548.9242
225.4848, 545.8094
225.9670, 544.8719
226.4491, 544.8043
226.9312, 542.8391
227.4133, 541.6316
227.8954, 534.1903
228.3775, 516.4586
228.8597, 483.0507
229.3418, 451.3242
229.8239, 419.8363
230.3060, 390.3595
230.7881, 368.9482
231.2702, 357.0132
231.7524, 350.5242
232.2345, 347.5959
232.7166, 347.2877
233.1987, 352.7750
233.6808, 366.0088
234.1629, 384.4470
234.6451, 401.9534
235.1272, 419.1395
235.6093, 434.3687
236.0914, 447.0831
236.5735, 457.7363
237.0556, 464.9896
237.5378, 468.5081
238.0199, 468.8304
238.5020, 467.1045
238.9841, 462.6724
239.4662, 457.2015
239.9483, 450.9497
240.4305, 442.9417
240.9126, 436.0587
241.3947, 430.2634
241.8768, 425.7689
242.3589, 422.9305
242.8410, 421.4933
243.3232, 422.1101
243.8053, 424.8812
244.2874, 429.2468
244.7695, 437.7974
245.2516, 451.4340
245.7337, 469.3151
246.2159, 488.9734
246.6980, 509.2521
247.1801, 532.0997
247.6622, 558.8795
248.1443, 591.2090
248.6264, 623.7039
249.1086, 657.8591
249.5907, 691.5973
250.0728, 721.1642
250.5549, 748.1589
251.0370, 768.0615
251.5191, 779.7596
252.0013, 784.1443
252.4834, 777.1021
252.9655, 757.4592
253.4476, 727.1505
253.9297, 688.8281
254.4118, 640.1168
254.8940, 588.5032
255.3761, 535.4369
255.8582, 478.9148
256.3403, 427.8546
256.8224, 383.3105
257.3046, 343.6877
257.7867, 307.1453
258.2688, 272.9437
258.7509, 242.6925
259.2330, 217.9185
259.7151, 199.4360
260.1973, 180.8773
260.6794, 162.1149
261.1615, 143.9146
261.6436, 127.9066
262.1257, 114.3420
262.6078, 102.0172
263.0900, 90.66809
263.5721, 80.13318
264.0542, 70.99841
264.5363, 63.08936
265.0184, 56.62488
265.5005, 51.71387
265.9827, 48.61987
266.4648, 46.36609
266.9469, 44.51904
267.4290, 43.04065
267.9111, 43.58154
268.3932, 46.74280
268.8754, 50.98608
269.3575, 54.46655
269.8396, 56.84192
270.3217, 59.77393
270.8038, 63.43457
271.2859, 67.90295
271.7681, 74.36426
272.2502, 83.33606
272.7323, 93.24304
273.2144, 102.1497
273.6965, 109.7969
274.1786, 118.0900
274.6608, 127.8007
275.1429, 138.6157
275.6250, 148.3793
276.1071, 156.7800
276.5892, 165.0060
277.0714, 174.1528
277.5535, 184.4362
278.0356, 193.9368
278.5177, 201.7941
278.9998, 208.7390
279.4819, 218.2573
279.9641, 231.0729
280.4462, 243.8641
280.9283, 254.4662
281.4104, 262.8209
281.8925, 268.6947
282.3746, 271.5983
282.8568, 272.3416
283.3389, 273.2255
283.8210, 274.3381
284.3031, 274.8223
284.7852, 274.2876
285.2673, 272.7012
285.7495, 269.1724
286.2316, 262.9431
286.7137, 255.5797
287.1958, 250.3640
287.6779, 247.3198
288.1600, 245.0663
288.6422, 243.2402
289.1243, 241.6299
289.6064, 238.9695
290.0885, 234.9749
290.5706, 230.2566
291.0527, 226.3878
291.5349, 223.2163
292.0170, 218.3053
292.4991, 209.3263
292.9812, 197.3813
293.4633, 187.0164
293.9454, 178.6973
294.4276, 170.7268
294.9097, 161.2931
295.3918, 150.4298
295.8739, 138.4341
296.3560, 124.2727
296.8381, 109.2146
297.3203, 97.02356
297.8024, 88.04163
298.2845, 79.81396
298.7666, 69.60779
299.2487, 58.08838
299.7308, 46.97632
300.2130, 36.58521
300.6951, 27.18481
301.1772, 19.41650
301.6593, 13.31677
302.1414, 7.744263
302.6235, 1.272461
303.1057, 5.304565
303.5878, 10.17834
304.0699, 11.88550
304.5520, 12.36462
305.0341, 13.91357
305.5162, 16.39465
305.9984, 18.75378
306.4805, 20.54126
306.9626, 21.64087
307.4447, 21.73657
307.9268, 20.19971
308.4089, 18.42456
308.8911, 17.74670
309.3732, 17.94983
309.8553, 18.11218
310.3374, 17.87610
310.8195, 17.24438
311.3016, 16.28540
311.7838, 15.23352
312.2659, 13.38757
312.7480, 9.546509
313.2301, 4.483521
313.7122, 7.0189998E-02
314.1943, 1.616577
314.6765, 3.174805
315.1586, 6.663086
315.6407, 12.86584
316.1228, 19.25281
316.6049, 24.58972
317.0870, 29.31323
317.5692, 34.06702
318.0513, 39.31641
318.5334, 44.48389
319.0155, 48.87524
319.4976, 52.19055
319.9797, 56.70984
320.4619, 63.79895
320.9440, 72.26855
321.4261, 80.69800
321.9082, 88.37610
322.3903, 96.36584
322.8724, 105.5182
323.3546, 115.8881
323.8367, 124.9004
324.3188, 129.6692
324.8009, 134.2634
325.2830, 141.7310
325.7651, 157.1398
326.2473, 170.3450
326.7294, 179.2504
327.2115, 184.3352
327.6936, 189.3768
328.1757, 194.4032
328.6578, 199.5673
329.1400, 204.9987
329.6221, 212.1700
330.1042, 217.5975
330.5863, 220.9763
331.0684, 222.4952
331.5505, 222.8678
332.0327, 221.1716
332.5148, 219.5072
332.9969, 218.4551
333.4790, 217.5419
333.9611, 218.9537
334.4432, 223.2382
334.9254, 229.4778
335.4075, 236.1814
335.8896, 243.5438
336.3717, 250.7411
336.8538, 257.4698
337.3359, 263.9119
337.8180, 271.0026
338.3001, 278.4011
338.7823, 286.7225
339.2644, 296.9861
339.7465, 309.7661
340.2286, 322.5950
340.7107, 334.9888
341.1928, 346.8529
341.6750, 357.1083
342.1571, 365.7938
342.6392, 373.3674
343.1213, 379.8591
343.6034, 385.0781
344.0855, 390.4130
344.5677, 396.9723
345.0498, 402.7950
345.5319, 402.6357
346.0140, 396.4401
346.4961, 387.8197
346.9782, 378.8398
347.4604, 369.2021
347.9425, 357.9093
348.4246, 344.6353
348.9067, 330.1099
349.3888, 315.1440
349.8709, 299.7488
350.3531, 283.9021
350.8352, 267.2181
351.3173, 250.2427
351.7994, 233.4589
352.2815, 216.8958
352.7636, 201.4103
353.2458, 188.0903
353.7279, 176.4531
354.2100, 165.4766
354.6921, 155.0797
355.1742, 144.9645
355.6563, 134.3291
356.1385, 123.3333
356.6206, 113.2263
357.1027, 104.4189
357.5848, 97.15527
358.0669, 91.79944
358.5490, 89.65820
359.0312, 87.64868
359.5133, 82.98499
359.9954, 76.52515
360.4775, 71.00146
360.9596, 68.32495
361.4417, 66.59497
361.9239, 64.55884
362.4060, 61.79834
362.8881, 59.49500
363.3702, 58.57092
363.8523, 58.24744
364.3344, 57.34998
364.8166, 55.02258
365.2987, 52.68518
365.7808, 50.88489
366.2629, 49.67346
366.7450, 48.93677
367.2271, 49.41431
367.7093, 49.94421
368.1914, 49.53271
368.6735, 46.48315
369.1556, 44.38489
369.6377, 43.99744
370.1198, 45.20117
370.6020, 46.60010
371.0841, 48.22058
371.5662, 50.13428
372.0483, 52.20703
372.5304, 54.53748
373.0125, 56.97021
373.4947, 59.92737
373.9768, 62.82361
374.4589, 64.11499
374.9410, 62.64880
375.4231, 61.85266
375.9052, 63.40344
376.3874, 67.77527
376.8695, 70.61902
377.3516, 71.84497
377.8337, 71.75488
378.3158, 70.41418
378.7979, 67.61169
379.2801, 65.31238
379.7622, 64.84448
380.2443, 65.21716
380.7264, 61.00623
381.2085, 51.60583
381.6906, 41.97302
382.1728, 36.63171
382.6549, 34.94019
383.1370, 33.18738
383.6191, 30.76233
384.1012, 27.92114
384.5833, 25.02478
385.0655, 22.05542
385.5476, 18.94824
386.0297, 15.45483
386.5118, 11.81714
386.9939, 8.123901
387.4760, 4.265991
387.9582, 1.354492
388.4403, 1.168823
388.9224, 2.676270
389.4045, 3.715820
389.8866, 3.439209
390.3687, 2.299194
390.8509, 3.497878
391.3330, 2.453125
391.8151, 4.963867
392.2972, 6.945557
392.7793, 8.245972
393.2614, 8.571655
393.7436, 6.514404
394.2257, 5.387207
394.7078, 7.406128
395.1899, 11.50916
395.6720, 14.90833
396.1541, 16.03174
396.6363, 16.78723
397.1184, 18.20496
397.6005, 20.83020
398.0826, 22.70239
398.5647, 22.96521
399.0468, 22.50244
399.5290, 22.38977
400.0111, 24.05884
400.4932, 24.59131
400.9753, 23.21826
401.4574, 19.93274
401.9395, 16.62451
402.4217, 12.95471
402.9038, 9.592285
403.3859, 7.259277
403.8680, 7.236206
404.3501, 5.044922
404.8322, 7.653848
405.3144, 7.775635
405.7965, 13.63892
406.2786, 17.73633
406.7607, 21.18384
407.2428, 23.86646
407.7249, 25.71350
408.2071, 30.19080
408.6892, 37.79346
409.1713, 46.61865
409.6534, 54.28455
410.1355, 60.82910
410.6176, 67.72327
411.0998, 75.45728
411.5819, 83.85242
412.0640, 92.74658
412.5461, 102.0348
413.0282, 111.1600
413.5103, 119.0608
413.9925, 126.4269
414.4746, 134.8925
414.9567, 144.9395
415.4388, 155.5602
415.9209, 165.7258
416.4030, 175.6930
416.8852, 186.4261
417.3673, 198.5092
417.8494, 211.3086
418.3315, 224.9470
418.8136, 239.3252
419.2957, 252.7655
419.7779, 263.6949
420.2600, 273.3671
420.7421, 282.8464
421.2242, 292.3335
421.7063, 301.9564
422.1884, 312.3328
422.6706, 323.0714
423.1527, 333.1373
423.6348, 342.4869
424.1169, 350.8461
424.5990, 358.4872
425.0811, 366.5992
425.5633, 371.1230
426.0454, 370.3566
426.5275, 366.6727
427.0096, 362.9413
427.4917, 358.9917
427.9738, 355.3510
428.4560, 352.6539
428.9381, 350.7404
429.4202, 346.2778
429.9023, 338.2368
430.3844, 329.6113
430.8665, 322.8704
431.3487, 318.4520
431.8308, 313.0092
432.3129, 305.9319
432.7950, 298.0846
433.2771, 291.0039
433.7592, 284.7021
434.2414, 279.8884
434.7235, 277.2871
435.2056, 276.4883
435.6877, 275.8435
436.1698, 275.3115
436.6519, 275.2675
437.1341, 276.0562
437.6162, 277.6200
438.0983, 279.9048
438.5804, 283.1217
439.0625, 286.7428
439.5446, 289.5763
440.0268, 292.1299
440.5089, 296.2308
440.9910, 303.9681
441.4731, 313.1401
441.9552, 321.9365
442.4373, 329.9724
442.9195, 338.1489
443.4016, 347.3319
443.8837, 356.7527
444.3658, 365.4813
444.8479, 371.6797
445.3300, 378.6719
445.8122, 387.6196
446.2943, 398.4602
446.7764, 410.2402
447.2585, 424.6887
447.7406, 438.4458
448.2227, 449.5553
448.7049, 454.6604
449.1870, 463.1952
449.6691, 477.2772
450.1512, 493.7616
450.6333, 507.2089
451.1154, 516.2657
451.5976, 525.8562
452.0797, 537.5961
452.5618, 551.0392
453.0439, 561.5419
453.5260, 568.5480
454.0081, 573.9987
454.4903, 579.3116
454.9724, 584.3785
455.4545, 588.0459
455.9366, 590.0001
456.4187, 591.0392
456.9008, 592.3634
457.3830, 593.8947
457.8651, 594.7640
458.3472, 593.8060
458.8293, 592.4652
459.3114, 593.3927
459.7935, 596.5870
460.2757, 600.9539
460.7578, 604.7365
461.2399, 609.2513
461.7220, 616.4050
462.2041, 627.8397
462.6862, 640.5796
463.1684, 651.4801
463.6505, 662.0829
464.1326, 675.7384
464.6147, 694.8275
465.0968, 716.5289
465.5789, 739.0381
466.0611, 762.0730
466.5432, 787.0623
467.0253, 813.9922
467.5074, 842.9379
467.9895, 873.8351
468.4716, 908.0874
468.9538, 943.0981
469.4359, 977.9729
469.9180, 1013.204
470.4001, 1050.669
470.8822, 1090.171
471.3643, 1131.933
471.8465, 1176.470
472.3286, 1224.085
472.8107, 1271.808
473.2928, 1318.964
473.7749, 1366.573
474.2570, 1415.459
474.7392, 1465.628
475.2213, 1514.502
475.7034, 1561.876
476.1855, 1607.245
476.6676, 1650.052
477.1497, 1690.321
477.6319, 1726.527
478.1140, 1759.409
478.5961, 1787.493
479.0782, 1808.830
479.5603, 1823.357
480.0424, 1829.816
480.5246, 1825.955
481.0067, 1813.791
481.4888, 1796.165
481.9709, 1773.307
482.4530, 1745.453
482.9352, 1711.463
483.4173, 1672.562
483.8994, 1632.269
484.3815, 1592.105
484.8636, 1549.865
485.3457, 1503.792
485.8279, 1451.947
486.3100, 1402.869
486.7921, 1355.825
487.2742, 1312.975
487.7563, 1275.767
488.2384, 1244.669
488.7206, 1217.976
489.2027, 1196.132
489.6848, 1178.432
490.1669, 1162.417
490.6490, 1147.582
491.1311, 1136.354
491.6133, 1130.575
492.0954, 1130.294
492.5775, 1131.694
493.0596, 1134.523
493.5417, 1139.249
494.0238, 1146.501
494.5060, 1156.345
494.9881, 1168.862
495.4702, 1184.314
495.9523, 1202.003
496.4344, 1220.722
496.9165, 1240.596
497.3987, 1262.000
497.8808, 1286.388
498.3629, 1311.887
498.8450, 1336.825
499.3271, 1361.267
499.8092, 1385.198
500.2914, 1409.965
500.7735, 1433.673
501.2556, 1455.178
501.7377, 1472.099
502.2198, 1488.886
502.7019, 1508.348
503.1841, 1528.541
503.6662, 1544.332
504.1483, 1553.273
504.6304, 1560.262
505.1125, 1567.630
505.5946, 1576.045
506.0768, 1576.844
506.5589, 1568.128
507.0410, 1554.654
507.5231, 1540.903
508.0052, 1527.891
508.4873, 1508.442
508.9695, 1481.817
509.4516, 1448.987
509.9337, 1412.175
510.4158, 1371.280
510.8979, 1324.527
511.3800, 1269.255
511.8622, 1207.730
512.3443, 1143.667
512.8264, 1077.627
513.3085, 1010.109
513.7906, 939.1274
514.2728, 867.9702
514.7549, 800.9331
515.2370, 739.0922
515.7191, 680.6532
516.2012, 623.7419
516.6833, 569.8702
517.1655, 520.3633
517.6476, 476.6182
518.1297, 436.4561
518.6118, 399.0676
519.0939, 364.5110
519.5760, 333.5040
520.0582, 308.6639
520.5403, 285.5468
521.0224, 262.4144
521.5045, 237.9783
521.9866, 217.0347
522.4688, 200.6521
522.9509, 186.5529
523.4330, 171.2982
523.9151, 154.2131
524.3972, 139.7725
524.8793, 129.6312
525.3615, 122.3176
525.8436, 113.9039
526.3257, 104.3669
526.8078, 94.96448
527.2899, 86.14941
527.7720, 77.92102
528.2542, 70.51721
528.7363, 63.99817
529.2184, 57.82593
529.7005, 51.27356
530.1826, 44.97961
530.6647, 39.95227
531.1469, 37.28003
531.6290, 34.67432
532.1111, 30.70703
532.5932, 25.93787
533.0753, 21.52527
533.5574, 18.26184
534.0396, 14.90967
534.5217, 10.38953
535.0038, 4.565308
535.4859, 0.9766850
535.9680, 1.501465
536.4501, 2.509888
536.9323, 1.970093
537.4144, 4.270702
537.8965, 3.716309
538.3786, 8.175049
538.8607, 12.56274
539.3428, 14.28247
539.8250, 13.09717
540.3071, 12.85938
540.7892, 15.30725
541.2713, 18.86304
541.7534, 19.08228
542.2355, 16.25037
542.7177, 13.44824
543.1998, 12.34778
543.6819, 12.61755
544.1640, 14.23010
544.6461, 17.26501
545.1282, 19.77087
545.6104, 20.14319
546.0925, 19.29614
546.5746, 18.24048
547.0567, 17.21045
547.5388, 16.08228
548.0209, 14.49854
548.5031, 12.80615
548.9852, 11.75293
549.4673, 13.29224
549.9494, 13.50793
550.4315, 10.91638
550.9136, 5.532471
551.3958, 1.257813
551.8779, 1.673340
552.3600, 3.911133
552.8421, 5.643066
553.3242, 6.745361
553.8063, 8.540283
554.2885, 11.10461
554.7706, 14.31421
555.2527, 18.40027
555.7348, 23.16370
556.2169, 27.28369
556.6990, 29.93970
557.1812, 32.25586
557.6633, 35.97815
558.1454, 40.78931
558.6275, 45.50854
559.1096, 49.09778
559.5917, 52.54492
560.0739, 56.63110
560.5560, 61.45264
561.0381, 66.48315
561.5202, 71.06616
562.0023, 75.99731
562.4844, 81.91565
562.9666, 90.36584
563.4487, 97.59375
563.9308, 102.2756
564.4129, 106.1226
564.8950, 111.9406
565.3771, 120.8629
565.8593, 128.8326
566.3414, 134.3618
566.8235, 138.3359
567.3056, 145.6108
567.7877, 156.7070
568.2698, 166.9731
568.7520, 173.1729
569.2341, 176.2620
569.7162, 179.8431
570.1983, 184.0042
570.6804, 188.6217
571.1625, 194.2621
571.6447, 200.2843
572.1268, 205.5107
572.6089, 209.6765
573.0910, 213.0452
573.5731, 215.7565
574.0552, 217.8821
574.5374, 219.6150
575.0195, 220.7915
575.5016, 221.7849
575.9837, 222.9065
576.4658, 224.0339
576.9479, 224.0403
577.4301, 223.0925
577.9122, 221.1577
578.3943, 217.8188
578.8764, 212.5574
579.3585, 209.1334
579.8406, 208.3051
580.3228, 207.6338
580.8049, 204.3544
581.2870, 198.6304
581.7691, 192.9390
582.2512, 187.7404
582.7333, 182.7250
583.2155, 177.7639
583.6975, 172.7252
584.1796, 166.8722
584.6617, 158.9493
585.1439, 150.7109
585.6260, 143.6877
586.1081, 137.7742
586.5902, 132.3717
587.0723, 127.7826
587.5544, 122.9869
588.0366, 117.2413
588.5187, 110.3687
589.0008, 103.3385
589.4829, 95.49915
589.9650, 88.20593
590.4471, 82.56677
590.9293, 79.32214
591.4114, 76.07996
591.8935, 72.91663
592.3756, 69.39539
592.8577, 64.15894
593.3398, 57.10449
593.8220, 51.53589
594.3041, 48.98315
594.7862, 48.20288
595.2683, 46.37378
595.7504, 43.58887
596.2325, 40.71289
596.7147, 38.41333
597.1968, 36.41455
597.6789, 34.26636
598.1610, 31.88403
598.6431, 29.81372
599.1252, 28.59937
599.6074, 27.83423
600.0895, 27.28296
600.5716, 27.42224
601.0537, 26.72656
601.5358, 23.80347
602.0179, 20.24036
602.5001, 18.22009
602.9822, 18.91455
603.4643, 18.99121
603.9464, 17.61023
604.4285, 15.39929
604.9106, 14.48706
605.3928, 14.99072
605.8749, 15.77185
606.3570, 16.57739
606.8391, 17.15283
607.3212, 16.33765
607.8033, 14.25745
608.2855, 12.44067
608.7676, 12.37451
609.2497, 13.17651
609.7318, 13.81519
610.2139, 14.10278
610.6960, 13.95959
611.1782, 12.79114
611.6603, 11.44873
612.1424, 10.80579
612.6245, 12.00952
613.1066, 12.79980
613.5887, 12.79895
614.0709, 12.21838
614.5530, 11.33521
615.0351, 9.810303
615.5172, 8.850708
615.9993, 9.116699
616.4814, 10.21667
616.9636, 9.698242
617.4457, 7.411377
617.9278, 5.357910
618.4099, 5.126221
618.8920, 6.096069
619.3741, 6.604614
619.8563, 6.591919
620.3384, 6.286255
620.8205, 5.839722
621.3026, 5.213379
621.7847, 4.185791
622.2668, 2.234863
622.7490, 1.111328
623.2311, 2.609375
623.7132, 5.003662
624.1953, 6.077148
624.6774, 3.736084
625.1595, 2.163208
625.6417, 2.449463
626.1238, 3.749146
626.6059, 3.388062
627.0880, 0.4624020
627.5701, 1.339844
628.0522, 0.1501460
628.5344, 3.236694
629.0165, 4.573730
629.4986, 3.819580
629.9807, 2.817139
630.4628, 3.455688
630.9449, 4.575439
631.4271, 3.515503
631.9092, 4.300930
632.3913, 3.153320
632.8734, 3.948486
633.3555, 3.272461
633.8376, 1.861206
634.3198, 0.9206540
634.8019, 0.8753004
635.2840, 0.3405299
635.7661, 1.160645
636.2482, 0.5037840
636.7303, 0.9547120
637.2125, 1.403198
637.6946, 1.801880
638.1767, 2.073975
638.6588, 1.998047
639.1409, 1.558228
639.6230, 0.9453130
640.1052, 0.2259520
640.5873, 0.6204830
641.0694, 1.746704
641.5515, 3.115234
642.0336, 4.294556
642.5157, 4.835571
642.9979, 5.091309
643.4800, 5.663086
643.9621, 6.643921
644.4442, 6.846313
644.9263, 5.193604
645.4084, 2.819702
645.8906, 0.5712890
646.3727, 1.860718
646.8548, 3.258301
647.3369, 2.900879
647.8190, 1.922974
648.3011, 1.599609
648.7833, 1.921875
649.2654, 3.011841
649.7475, 5.399414
650.2296, 7.909180
650.7117, 7.534180
651.1938, 4.552612
651.6760, 2.426147
652.1581, 3.075439
652.6402, 4.995728
653.1223, 6.086548
653.6044, 6.473267
654.0865, 6.705200
654.5687, 7.350708
655.0508, 7.754883
655.5329, 7.152222
656.0150, 5.455811
656.4971, 4.615967
656.9792, 5.708740
657.4614, 7.270874
657.9435, 8.563477
658.4256, 9.600708
658.9077, 10.27844
659.3898, 10.57886
659.8719, 10.53052
660.3541, 9.946899
660.8362, 8.858765
661.3183, 8.308350
661.8004, 8.528198
662.2825, 9.101196
662.7646, 9.626343
663.2468, 10.08215
663.7289, 10.38953
664.2110, 10.30823
664.6931, 10.36072
665.1752, 11.11157
665.6573, 12.28796
666.1395, 13.24133
666.6216, 13.61646
667.1037, 13.92151
667.5858, 14.55298
668.0679, 15.37537
668.5500, 15.23254
669.0322, 13.57690
669.5143, 12.01196
669.9964, 11.14490
670.4785, 10.96277
670.9606, 11.50134
671.4427, 12.82166
671.9249, 14.17566
672.4070, 14.98376
672.8891, 15.38257
673.3712, 15.66565
673.8533, 15.85999
674.3354, 15.90491
674.8176, 15.48755
675.2997, 15.02710
675.7818, 14.99878
676.2639, 15.89307
676.7460, 16.56885
677.2281, 16.72595
677.7103, 16.53552
678.1924, 16.16968
678.6745, 15.47583
679.1566, 15.03259
679.6387, 15.15308
680.1208, 15.29871
680.6030, 13.87878
681.0851, 11.02637
681.5672, 9.322144
682.0493, 10.15991
682.5314, 12.14050
683.0135, 12.92371
683.4957, 12.82251
683.9778, 12.90601
684.4599, 14.31323
684.9420, 15.47144
685.4241, 15.12891
685.9063, 13.55103
686.3884, 12.39807
686.8705, 11.85596
687.3526, 11.84167
687.8347, 12.56226
688.3168, 14.32166
688.7990, 14.86902
689.2811, 13.64868
689.7632, 12.28149
690.2453, 12.37598
690.7274, 13.89514
691.2095, 14.36792
691.6917, 13.58887
692.1738, 12.52100
692.6559, 11.43994
693.1380, 10.67151
693.6201, 11.00720
694.1022, 13.02869
694.5844, 15.08923
695.0665, 16.73584
695.5486, 17.62622
696.0307, 17.32690
696.5128, 13.32019
696.9949, 11.21582
697.4771, 12.16919
697.9592, 15.00049
698.4413, 17.43945
698.9234, 19.39697
699.4055, 21.39624
699.8876, 24.13806
700.3698, 26.56946
700.8519, 25.20532
701.3340, 20.55042
701.8161, 16.05383
702.2982, 13.43384
702.7803, 12.17651
703.2625, 11.97144
703.7446, 12.67725
704.2267, 13.55017
704.7088, 14.51843
705.1909, 15.25317
705.6730, 15.31055
706.1552, 14.58557
706.6373, 14.93713
707.1194, 17.17517
707.6015, 19.39502
708.0836, 20.40381
708.5657, 20.08179
709.0479, 19.98328
709.5300, 20.02966
710.0121, 20.70435
710.4942, 23.01001
710.9763, 26.15088
711.4584, 28.33411
711.9406, 29.24670
712.4227, 29.67822
712.9048, 29.50720
713.3869, 29.49561
713.8690, 30.65674
714.3511, 34.97827
714.8333, 37.33130
715.3154, 34.96240
715.7975, 31.13733
716.2796, 29.32202
716.7617, 30.27722
717.2438, 31.11890
717.7260, 31.44299
718.2081, 31.65466
718.6902, 32.67615
719.1723, 34.36914
719.6544, 35.51270
720.1365, 35.61865
720.6187, 35.16687
721.1008, 34.12146
721.5829, 32.95215
722.0650, 32.74316
722.5471, 34.70874
723.0292, 36.96448
723.5114, 38.90039
723.9935, 40.44775
724.4756, 41.43835
724.9577, 41.67102
725.4398, 41.61853
725.9219, 41.27112
726.4041, 40.73584
726.8862, 40.52820
727.3683, 40.60327
727.8504, 41.41455
728.3325, 43.69385
728.8146, 46.80176
729.2968, 49.47083
729.7789, 51.70166
730.2610, 53.52124
730.7431, 54.30127
731.2252, 55.19568
731.7073, 57.23499
732.1895, 60.57056
732.6716, 63.47449
733.1537, 65.14807
733.6358, 66.69556
734.1179, 68.55859
734.6000, 70.62463
735.0822, 73.90686
735.5643, 78.76855
736.0464, 83.63757
736.5285, 86.97595
737.0106, 89.15857
737.4927, 91.42920
737.9749, 93.81116
738.4570, 96.25928
738.9391, 98.64551
739.4212, 101.3680
739.9033, 104.7362
740.3854, 108.8220
740.8676, 113.0433
741.3497, 117.3518
741.8318, 121.9092
742.3139, 126.8485
742.7960, 132.4872
743.2781, 137.1532
743.7603, 140.3728
744.2424, 143.4231
744.7245, 148.3516
745.2066, 154.7379
745.6887, 160.1396
746.1708, 163.7040
746.6530, 167.0253
747.1351, 172.3459
747.6172, 178.7444
748.0993, 184.4319
748.5814, 188.4633
749.0635, 191.9114
749.5457, 194.8409
750.0278, 197.4647
750.5099, 200.2701
750.9920, 203.8916
751.4741, 206.5457
751.9562, 208.2072
752.4384, 208.7690
752.9205, 207.4624
753.4026, 204.3875
753.8847, 200.9443
754.3668, 197.4245
754.8489, 193.6053
755.3311, 189.4857
755.8132, 185.1808
756.2953, 180.5765
756.7774, 174.8788
757.2595, 169.4614
757.7416, 165.4993
758.2238, 162.5112
758.7059, 157.6846
759.1880, 150.0550
759.6701, 142.2607
760.1522, 134.6899
760.6343, 127.4203
761.1165, 120.8537
761.5986, 115.1004
762.0807, 109.7689
762.5628, 104.6047
763.0449, 99.61908
763.5270, 94.86743
764.0092, 90.43335
764.4913, 86.21973
764.9734, 82.62244
765.4555, 78.80743
765.9376, 74.04675
766.4197, 68.28961
766.9019, 63.55377
767.3840, 60.18384
767.8661, 57.46423
768.3482, 55.27667
768.8303, 53.59143
769.3124, 51.07465
769.7946, 47.62018
770.2767, 44.89600
770.7588, 45.48944
771.2409, 47.10315
771.7230, 44.93549
772.2051, 39.00427
772.6873, 33.58453
773.1694, 31.23718
773.6515, 30.23334
774.1336, 29.55280
774.6157, 29.16077
775.0978, 28.67010
775.5800, 28.09082
776.0621, 27.37097
776.5442, 26.54144
777.0263, 25.61267
777.5084, 23.90625
777.9905, 21.28931
778.4727, 19.06104
778.9548, 18.74017
779.4369, 19.43085
779.9190, 19.50616
780.4011, 18.77289
780.8832, 18.20923
781.3654, 18.89325
781.8475, 19.62274
782.3296, 19.55975
782.8117, 18.55640
783.2938, 16.69556
783.7759, 13.06543
784.2581, 9.876709
784.7402, 9.172607
785.2223, 10.95776
785.7044, 12.19775
786.1865, 12.78235
786.6686, 12.61975
787.1508, 11.23999
787.6329, 9.167847
788.1150, 7.006226
788.5971, 4.704102
789.0792, 3.135864
789.5613, 2.834351
790.0435, 3.301147
790.5256, 4.242798
791.0077, 5.929565
791.4898, 7.229614
791.9719, 8.230469
792.4540, 8.664063
792.9362, 8.163574
793.4183, 6.786987
793.9004, 5.003052
794.3825, 2.747803
794.8646, 0.9696040
795.3467, 1.283813
795.8289, 2.327759
796.3110, 2.003540
796.7931, 2.107775
797.2752, 2.314209
797.7573, 1.600220
798.2394, 1.830743
798.7216, 1.902742
799.2037, 1.422363
799.6858, 1.958008
800.1679, 1.243164
800.6500, 0.3934330
801.1321, 0.8659670
801.6143, 2.274292
802.0964, 2.491577
802.5785, 1.185303
803.0606, 0.2564700
803.5427, 0.9547120
804.0248, 0.9127200
804.5070, 1.795867
804.9891, 2.153198
805.4712, 4.025391
805.9533, 5.414185
806.4354, 6.289063
806.9175, 6.604614
807.3997, 6.323608
807.8818, 5.358276
808.3639, 3.440552
808.8460, 1.807495
809.3281, 1.837158
809.8102, 3.143433
810.2924, 5.185181
810.7745, 8.082153
811.2566, 9.851929
811.7387, 7.743164
812.2208, 4.683716
812.7029, 3.391113
813.1851, 5.101318
813.6672, 6.411987
814.1493, 7.289063
814.6314, 7.598755
815.1135, 6.918213
815.5956, 5.161865
816.0778, 4.732666
816.5599, 5.885620
817.0420, 7.071777
817.5241, 6.470825
818.0062, 5.058716
818.4883, 4.501099
818.9705, 5.165649
819.4526, 5.389160
819.9347, 3.525024
820.4168, 1.543579
820.8989, 1.137085
821.3810, 2.993408
821.8632, 3.500854
822.3453, 2.107666
822.8274, 0.5634770
823.3095, 0.4665530
823.7916, 1.521118
824.2737, 2.300049
824.7559, 2.745972
825.2380, 2.566406
825.7201, 2.624207
826.2022, 1.149902
826.6843, 2.163574
827.1664, 1.855225
827.6486, 2.070190
828.1307, 3.754150
828.6128, 5.596191
829.0949, 6.954712
829.5770, 7.769531
830.0591, 8.924438
830.5413, 10.47668
831.0234, 11.98254
831.5055, 12.89844
831.9876, 13.59509
832.4697, 14.89307
832.9518, 16.77173
833.4340, 18.71680
833.9161, 20.26562
834.3982, 21.88000
834.8803, 23.75891
835.3624, 25.92395
835.8445, 28.67834
836.3267, 32.22083
836.8088, 35.97693
837.2909, 39.93799
837.7730, 43.90002
838.2551, 46.23987
838.7372, 47.07861
839.2194, 48.20142
839.7015, 50.72437
840.1836, 54.13428
840.6657, 57.97754
841.1478, 62.28772
841.6299, 67.11011
842.1121, 73.62183
842.5942, 79.29297
843.0763, 82.51538
843.5584, 84.11267
844.0405, 89.27283
844.5226, 98.49731
845.0048, 107.5497
845.4869, 114.4171
845.9690, 120.0537
846.4511, 126.3284
846.9332, 132.9243
847.4153, 138.7904
847.8975, 141.8608
848.3796, 145.6970
848.8617, 152.5039
849.3438, 161.5323
849.8259, 170.0436
850.3080, 178.0387
850.7902, 185.4209
851.2723, 191.7706
851.7544, 197.8507
852.2365, 205.6415
852.7186, 214.7959
853.2007, 223.3694
853.6829, 230.1329
854.1650, 236.7484
854.6471, 245.1597
855.1292, 254.2968
855.6113, 262.5065
856.0934, 267.0735
856.5756, 273.6030
857.0577, 283.5798
857.5398, 294.8781
858.0219, 304.4181
858.5040, 312.0659
858.9861, 321.3125
859.4683, 333.1217
859.9504, 345.3407
860.4325, 354.2979
860.9146, 362.0403
861.3967, 372.0349
861.8788, 386.0267
862.3610, 399.6229
862.8431, 410.2860
863.3252, 420.1693
863.8073, 431.0605
864.2894, 443.1471
864.7715, 456.2886
865.2537, 470.6985
865.7358, 485.6566
866.2179, 500.9001
866.7000, 516.2374
867.1821, 530.8599
867.6642, 544.7109
868.1464, 559.1833
868.6285, 575.5316
869.1106, 592.8965
869.5927, 611.1653
870.0748, 630.7441
870.5569, 650.0343
871.0391, 668.6685
871.5212, 687.0551
872.0033, 705.1809
872.4854, 723.1783
872.9675, 741.5627
873.4496, 760.5059
873.9318, 778.3378
874.4139, 794.1005
874.8960, 808.0221
875.3781, 820.4363
875.8602, 831.4308
876.3423, 840.4724
876.8245, 846.5122
877.3066, 851.4417
877.7887, 856.4677
878.2708, 860.7421
878.7529, 860.3851
879.2350, 855.3660
879.7172, 848.3474
880.1993, 840.7047
880.6814, 831.6920
881.1635, 820.2020
881.6456, 806.5768
882.1277, 791.6335
882.6099, 774.6028
883.0920, 757.6479
883.5741, 742.3124
884.0562, 727.0481
884.5383, 708.3846
885.0204, 685.7002
885.5026, 663.4286
885.9847, 642.2261
886.4668, 622.0284
886.9489, 602.4917
887.4310, 583.8611
887.9131, 567.0746
888.3953, 552.9601
888.8774, 539.0625
889.3595, 524.2981
889.8416, 509.2778
890.3237, 494.3856
890.8058, 479.3015
891.2880, 465.6833
891.7701, 453.7274
892.2522, 442.9008
892.7343, 433.0302
893.2164, 423.7845
893.6985, 414.1191
894.1807, 404.0421
894.6628, 394.2601
895.1449, 384.8644
895.6270, 376.3688
896.1091, 369.5112
896.5912, 364.5361
897.0734, 357.8882
897.5555, 348.4395
898.0376, 340.1949
898.5197, 335.9037
899.0018, 334.0776
899.4839, 328.9408
899.9661, 321.1753
900.4482, 314.7601
900.9303, 313.6274
901.4124, 312.9088
901.8945, 308.6564
902.3766, 302.1385
902.8588, 297.6077
903.3409, 296.6343
903.8230, 295.5532
904.3051, 293.4780
904.7872, 291.2456
905.2693, 290.7081
905.7515, 291.6035
906.2336, 292.3075
906.7157, 292.4008
907.1978, 292.3164
907.6799, 291.9487
908.1620, 291.7509
908.6442, 292.2979
909.1263, 293.8887
909.6084, 296.0243
910.0905, 298.8409
910.5726, 301.8723
911.0547, 304.5715
911.5369, 307.0214
912.0190, 310.3955
912.5011, 314.8276
912.9832, 319.6079
913.4653, 324.0709
913.9474, 328.6967
914.4296, 333.9899
914.9117, 339.9935
915.3938, 346.1072
915.8759, 352.1462
916.3580, 358.2825
916.8401, 364.4968
917.3223, 370.7762
917.8044, 377.2299
918.2865, 383.8737
918.7686, 390.7858
919.2507, 397.8831
919.7328, 405.3114
920.2150, 413.2872
920.6971, 421.6605
921.1792, 430.2557
921.6613, 439.8275
922.1434, 448.4272
922.6255, 455.3763
923.1077, 461.9080
923.5898, 470.2480
924.0719, 480.2386
924.5540, 489.9882
925.0361, 498.9725
925.5182, 508.3230
926.0004, 520.6171
926.4825, 533.3176
926.9646, 543.1509
927.4467, 547.9670
927.9288, 554.3896
928.4109, 564.7162
928.8931, 574.9200
929.3752, 582.4875
929.8573, 587.4147
930.3394, 589.7791
930.8215, 589.5787
931.3036, 588.1587
931.7858, 586.0950
932.2679, 583.6300
932.7500, 581.7513
933.2321, 580.1036
933.7142, 575.5590
934.1964, 565.2749
934.6785, 555.0447
935.1606, 547.0745
935.6427, 539.7560
936.1248, 527.9395
936.6069, 511.8136
937.0891, 495.9874
937.5712, 481.7991
938.0533, 468.2094
938.5354, 454.4092
939.0175, 440.3643
939.4996, 426.3243
939.9818, 413.8293
940.4639, 398.3881
940.9460, 378.3665
941.4281, 357.7664
941.9102, 341.5863
942.3923, 329.2374
942.8745, 314.9949
943.3566, 298.2771
943.8387, 281.2965
944.3208, 265.7211
944.8029, 251.0134
945.2850, 236.4080
945.7672, 221.9075
946.2493, 209.0605
946.7314, 199.1498
947.2135, 188.5648
947.6956, 175.3296
948.1777, 160.5573
948.6599, 149.2687
949.1420, 140.9568
949.6241, 133.0835
950.1062, 124.7668
950.5883, 116.1218
951.0704, 106.0645
951.5526, 95.95361
952.0347, 88.77942
952.5168, 86.77161
952.9989, 83.20715
953.4810, 77.21826
953.9631, 70.28870
954.4453, 63.94556
954.9274, 58.20264
955.4095, 53.15015
955.8916, 48.86475
956.3737, 45.01672
956.8558, 41.75781
957.3380, 38.58105
957.8201, 35.01538
958.3022, 30.99878
958.7843, 27.10840
959.2664, 23.28699
959.7485, 19.67346
960.2307, 16.14392
960.7128, 12.98535
961.1949, 11.38757
961.6770, 10.87366
962.1591, 9.805542
962.6412, 6.979248
963.1234, 3.940796
963.6055, 0.6888430
964.0876, 2.119629
964.5697, 3.224365
965.0518, 1.997681
965.5339, 1.983765
966.0161, 3.823242
966.4982, 6.147095
966.9803, 7.488342
967.4624, 8.144714
967.9445, 8.564575
968.4266, 8.842407
968.9088, 8.820313
969.3909, 7.699341
969.8730, 7.047058
970.3551, 7.898499
970.8372, 10.12885
971.3193, 11.72449
971.8015, 12.67120
972.2836, 13.25769
972.7657, 13.70435
973.2478, 13.80133
973.7299, 13.36682
974.2120, 12.37982
974.6942, 10.79877
975.1763, 7.257141
975.6584, 5.029297
976.1405, 5.001099
976.6226, 5.886658
977.1047, 5.941467
977.5869, 5.211731
978.0690, 4.176086
978.5511, 2.906189
979.0332, 3.126565
979.5153, 3.625863
979.9974, 3.881897
980.4796, 5.937256
980.9617, 7.273010
981.4438, 8.265198
981.9259, 8.571777
982.4080, 9.330627
982.8901, 11.15894
983.3723, 13.77637
983.8544, 16.57507
984.3365, 19.43188
984.8186, 21.86005
985.3007, 22.18719
985.7828, 23.59149
986.2650, 28.32599
986.7471, 34.88739
987.2292, 40.80963
987.7113, 46.24133
988.1934, 50.17676
988.6755, 51.87732
989.1577, 54.22614
989.6398, 61.45679
990.1219, 71.19031
990.6040, 78.98627
991.0861, 84.27344
991.5682, 90.24994
992.0504, 98.07208
992.5325, 107.1491
993.0146, 117.9185
993.4967, 129.6592
993.9788, 138.7521
994.4609, 145.2576
994.9431, 152.0845
995.4252, 160.9742
995.9073, 169.6637
996.3894, 176.6655
996.8715, 181.7798
997.3536, 184.6809
997.8358, 184.7733
998.3179, 183.1259
998.8000, 179.4952
999.2821, 174.6257
999.7642, 168.9591
1000.246, 162.5264
1000.728, 155.5415
1001.211, 147.9803
1001.693, 141.4768
1002.175, 136.9581
1002.657, 133.8481
1003.139, 132.0198
1003.621, 131.3871
1004.103, 131.4500
1004.585, 132.2356
1005.068, 133.4987
1005.550, 134.9055
1006.032, 137.3068
1006.514, 143.0475
1006.996, 150.6309
1007.478, 157.0118
1007.960, 160.5682
1008.442, 164.7900
1008.924, 169.9142
1009.407, 176.9870
1009.889, 187.3002
1010.371, 200.9507
1010.853, 213.3707
1011.335, 224.6761
1011.817, 237.6720
1012.299, 255.5011
1012.781, 274.9595
1013.263, 292.8003
1013.746, 309.8304
1014.228, 329.3807
1014.710, 352.5874
1015.192, 376.9583
1015.674, 402.0837
1016.156, 428.1240
1016.638, 455.9048
1017.120, 485.1365
1017.603, 514.5706
1018.085, 544.0899
1018.567, 575.2344
1019.049, 608.8710
1019.531, 644.5760
1020.013, 682.5339
1020.495, 722.5981
1020.977, 764.1774
1021.459, 807.4359
1021.942, 850.6188
1022.424, 893.1517
1022.906, 935.1104
1023.388, 979.6536
1023.870, 1023.518
1024.352, 1060.433
1024.834, 1091.120
1025.316, 1110.633
1025.799, 1119.966
1026.281, 1117.566
1026.763, 1101.463
1027.245, 1072.293
1027.727, 1031.100
1028.209, 977.9736
1028.691, 915.3096
1029.173, 837.7612
1029.656, 757.3704
1030.138, 681.3858
1030.620, 610.3774
1031.102, 542.7523
1031.584, 477.6368
1032.066, 418.9574
1032.548, 367.6155
1033.030, 322.0867
1033.512, 280.4951
1033.995, 243.0178
1034.477, 211.1740
1034.959, 186.1393
1035.441, 164.2141
1035.923, 145.2822
1036.405, 128.4321
1036.887, 113.1075
1037.369, 99.47888
1037.851, 87.66919
1038.334, 77.67712
1038.816, 68.06995
1039.298, 57.37366
1039.780, 47.55811
1040.262, 40.26385
1040.744, 32.44885
1041.226, 28.68219
1041.708, 21.40295
1042.191, 16.52521
1042.673, 14.60181
1043.155, 13.71130
1043.637, 12.20099
1044.119, 10.15302
1044.601, 7.328430
1045.083, 3.762939
1045.565, 1.102173
1046.047, 0.7717900
1046.530, 0.3885500
1047.012, 0.9194950
1047.494, 2.707581
1047.976, 3.697876
1048.458, 3.985352
1048.940, 4.164001
1049.422, 4.368225
1049.904, 4.627625
1050.386, 5.008911
1050.869, 5.440674
1051.351, 6.079163
1051.833, 7.241516
1052.315, 6.457336
1052.797, 3.295288
1053.279, 0.1627810
1053.761, 1.356812
1054.243, 2.100830
1054.726, 3.460205
1055.208, 5.245911
1055.690, 6.966980
1056.172, 7.813660
1056.654, 9.575623
1057.136, 13.07776
1057.618, 16.80267
1058.100, 18.62677
1058.583, 18.96729
1059.065, 20.36920
1059.547, 23.03247
1060.029, 26.86646
1060.511, 32.76910
1060.993, 38.83417
1061.475, 43.35376
1061.957, 46.95026
1062.439, 52.43347
1062.922, 60.07587
1063.404, 67.93201
1063.886, 75.41595
1064.368, 83.07385
1064.850, 92.11761
1065.332, 101.5850
1065.814, 109.8029
1066.296, 115.5997
1066.778, 123.9868
1067.261, 136.7603
1067.743, 149.5471
1068.225, 159.6946
1068.707, 168.4210
1069.189, 179.3168
1069.671, 192.0876
1070.153, 205.6293
1070.635, 220.0352
1071.118, 234.2292
1071.600, 247.5695
1072.082, 260.2919
1072.564, 272.9868
1073.046, 285.8184
1073.528, 295.3757
1074.010, 301.4641
1074.492, 304.5768
1074.974, 305.5234
1075.457, 303.1844
1075.939, 295.8322
1076.421, 284.1876
1076.903, 271.1013
1077.385, 256.9315
1077.867, 241.3691
1078.349, 224.1861
1078.831, 206.3602
1079.313, 188.5942
1079.796, 171.3242
1080.278, 155.4386
1080.760, 140.9470
1081.242, 127.2701
1081.724, 113.6686
1082.206, 101.5527
1082.688, 91.77191
1083.170, 83.92645
1083.652, 77.11493
1084.135, 71.23035
1084.617, 66.29358
1085.099, 63.14679
1085.581, 58.76526
1086.063, 48.87018
1086.545, 38.72485
1087.027, 33.19281
1087.509, 32.85876
1087.992, 31.95764
1088.474, 30.50049
1088.956, 28.48041
1089.438, 25.44025
1089.920, 22.22351
1090.402, 18.82080
1090.884, 16.01129
1091.366, 15.63757
1091.849, 19.87323
1092.331, 22.43347
1092.813, 22.44934
1093.295, 22.21448
1093.777, 24.03247
1094.259, 27.23315
1094.741, 30.99725
1095.223, 35.05560
1095.705, 38.07074
1096.188, 37.51086
1096.670, 38.45172
1097.152, 42.67041
1097.634, 48.53772
1098.116, 53.10223
1098.598, 56.68054
1099.080, 60.67059
1099.562, 65.28619
1100.044, 70.90546
1100.527, 79.17267
1101.009, 87.30054
1101.491, 93.20447
1101.973, 97.30511
1102.455, 102.2283
1102.937, 108.0406
1103.419, 111.6727
1103.901, 112.0062
1104.384, 110.1768
1104.866, 106.7601
1105.348, 102.0529
1105.830, 96.57953
1106.312, 90.83459
1106.794, 82.34949
1107.276, 70.36121
1107.758, 58.13904
1108.240, 46.78778
1108.723, 36.86615
1109.205, 29.13159
1109.687, 23.23859
1110.169, 18.51733
1110.651, 16.25580
1111.133, 13.02112
1111.615, 7.347656
1112.097, 2.288513
1112.579, 1.565063
1113.062, 3.785400
1113.544, 3.447632
1114.026, 0.8140260
1114.508, 1.229919
1114.990, 0.7416380
1115.472, 6.4940996E-02
1115.954, 0.5419310
1116.436, 0.7656860
1116.919, 0.5759280
1117.401, 4.8950002E-02
1117.883, 0.7280270
1118.365, 2.814087
1118.847, 5.047241
1119.329, 6.091675
1119.811, 7.300354
1120.293, 10.17059
1120.776, 11.38348
1121.258, 15.96436
1121.740, 15.56525
1122.222, 16.37274
1122.704, 19.42731
1123.186, 23.43744
1123.668, 27.23071
1124.150, 31.02350
1124.632, 34.95709
1125.115, 39.04150
1125.597, 44.17908
1126.079, 50.45154
1126.561, 57.24683
1127.043, 64.46643
1127.525, 72.26617
1128.007, 80.41449
1128.489, 89.41492
1128.971, 100.3410
1129.454, 114.5792
1129.936, 127.4302
1130.418, 137.1648
1130.900, 147.8535
1131.382, 162.3578
1131.864, 179.5784
1132.346, 196.6732
1132.828, 213.9187
1133.311, 232.1868
1133.793, 251.5150
1134.275, 272.2313
1134.757, 294.4008
1135.239, 318.3329
1135.721, 345.0210
1136.203, 373.9092
1136.685, 402.5698
1137.167, 430.9767
1137.650, 458.4769
1138.132, 487.1558
1138.614, 512.0811
1139.096, 532.7415
1139.578, 547.3449
1140.060, 552.8247
1140.542, 549.1944
1141.024, 537.0701
1141.506, 516.4697
1141.989, 490.0376
1142.471, 457.0674
1142.953, 421.2426
1143.435, 382.8515
1143.917, 343.7163
1144.399, 307.8711
1144.881, 275.6279
1145.363, 247.0009
1145.846, 222.7102
1146.328, 200.2314
1146.810, 176.6739
1147.292, 154.9257
1147.774, 137.9255
1148.256, 126.0772
1148.738, 115.4521
1149.220, 106.2125
1149.703, 97.08771
1150.185, 87.37885
1150.667, 78.69647
1151.149, 74.30127
1151.631, 71.82990
1152.113, 67.76532
1152.595, 61.17828
1153.077, 56.09851
1153.559, 53.38647
1154.042, 50.41449
1154.524, 45.78070
1155.006, 40.78577
1155.488, 37.72205
1155.970, 36.09833
1156.452, 35.26251
1156.934, 35.59827
1157.416, 34.87323
1157.898, 32.39655
1158.381, 29.77905
1158.863, 27.97046
1159.345, 26.62830
1159.827, 25.02979
1160.309, 23.10168
1160.791, 20.57159
1161.273, 16.38617
1161.755, 13.42780
1162.238, 12.84381
1162.720, 12.85577
1163.202, 12.24719
1163.684, 11.14050
1164.166, 9.755432
1164.648, 8.312073
1165.130, 7.843933
1165.612, 10.58368
1166.094, 12.09888
1166.577, 9.784607
1167.059, 6.812073
1167.541, 6.723633
1168.023, 9.026489
1168.505, 9.218323
1168.987, 7.379272
1169.469, 5.555359
1169.951, 4.520325
1170.433, 4.232483
1170.916, 5.431824
1171.398, 6.877441
1171.880, 6.745422
1172.362, 5.136597
1172.844, 4.344727
1173.326, 4.541138
1173.808, 4.863159
1174.290, 4.749146
1174.773, 4.585876
1175.255, 4.910583
1175.737, 5.240540
1176.219, 4.395630
1176.701, 2.363037
1177.183, 0.9803470
1177.665, 0.4709470
1178.147, 0.5614010
1178.630, 0.4198957
1179.112, 0.9015014
1179.594, 1.572144
1180.076, 1.614075
1180.558, 1.627994
1181.040, 2.002502
1181.522, 1.252197
1182.004, 0.9756470
1182.486, 1.002747
1182.969, 2.080872
1183.451, 2.678467
1183.933, 0.7365110
1184.415, 3.137573
1184.897, 4.510559
1185.379, 3.166931
1185.861, 1.674438
1186.343, 0.6565550
1186.825, 0.1080930
1187.308, 1.005127
1187.790, 1.615112
1188.272, 1.064026
1188.754, 0.5769650
1189.236, 0.3013310
1189.718, 2.124939
1190.200, 4.171021
1190.682, 5.133606
1191.165, 5.066589
1191.647, 3.188538
1192.129, 0.8455810
1192.611, 0.4981690
1193.093, 0.6506350
1193.575, 0.3774410
1194.057, 0.4449460
1194.539, 0.8774410
1195.021, 0.5177610
1195.504, 0.2742310
1195.986, 1.457336
1196.468, 2.623535
1196.950, 3.151428
1197.432, 2.853821
1197.914, 2.914551
1198.396, 3.438599
1198.878, 3.504822
1199.360, 2.279236
1199.843, 1.007813
1200.325, 1.692688
1200.807, 3.045959
1201.289, 3.112061
1201.771, 1.324707
1202.253, 0.1018680
1202.735, 1.251648
1203.217, 1.359497
1203.700, 0.7593380
1204.182, 3.243958
1204.664, 3.810974
1205.146, 3.342041
1205.628, 3.347839
1206.110, 4.499451
1206.592, 4.042419
1207.074, 1.603271
1207.557, 0.1603390
1208.039, 1.062195
1208.521, 3.225464
1209.003, 4.313660
1209.485, 4.627869
1209.967, 4.657288
1210.449, 4.324219
1210.931, 4.126282
1211.413, 4.058411
1211.896, 4.130981
1212.378, 4.331116
1212.860, 4.690491
1213.342, 5.570129
1213.824, 6.561646
1214.306, 6.719238
1214.788, 5.642761
1215.270, 5.046631
1215.752, 5.002686
1216.235, 5.189697
1216.717, 5.467468
1217.199, 5.772461
1217.681, 6.231079
1218.163, 6.624329
1218.645, 6.413025
1219.127, 5.424011
1219.609, 4.706970
1220.092, 4.238953
1220.574, 3.929382
1221.056, 3.376831
1221.538, 3.183411
1222.020, 4.271973
1222.502, 6.071777
1222.984, 7.328979
1223.466, 8.078308
1223.948, 7.663452
1224.431, 5.942627
1224.913, 4.395142
1225.395, 4.309875
1225.877, 4.818604
1226.359, 5.072937
1226.841, 5.426514
1227.323, 6.889099
1227.805, 9.787415
1228.287, 11.56488
1228.770, 12.07184
1229.252, 11.71222
1229.734, 9.919983
1230.216, 8.125000
1230.698, 7.499817
1231.180, 6.832520
1231.662, 7.546448
1232.144, 7.141541
1232.627, 7.503723
1233.109, 8.792358
1233.591, 9.543762
1234.073, 7.748352
1234.555, 6.012695
1235.037, 6.550903
1235.519, 5.483521
1236.001, 8.081665
1236.484, 6.425049
1236.966, 6.946777
1237.448, 9.960754
1237.930, 12.13293
1238.412, 10.26025
1238.894, 8.168701
1239.376, 8.237671
1239.858, 9.245300
1240.340, 9.238403
1240.823, 8.247131
1241.305, 7.341187
1241.787, 6.787415
1242.269, 6.516052
1242.751, 6.836853
1243.233, 6.915955
1243.715, 6.047485
1244.197, 5.055359
1244.679, 5.385193
1245.162, 6.739685
1245.644, 7.617249
1246.126, 8.050720
1246.608, 8.796204
1247.090, 10.87640
1247.572, 12.20691
1248.054, 12.18622
1248.536, 11.41559
1249.019, 11.23828
1249.501, 11.58264
1249.983, 11.31854
1250.465, 10.39636
1250.947, 10.42145
1251.429, 13.92377
1251.911, 15.69470
1252.393, 14.22980
1252.875, 11.48688
1253.358, 9.687805
1253.840, 9.237549
1254.322, 10.18121
1254.804, 12.22986
1255.286, 12.94635
1255.768, 10.35504
1256.250, 8.654663
1256.732, 8.459167
1257.214, 8.963135
1257.697, 9.697449
1258.179, 10.22913
1258.661, 9.715820
1259.143, 8.244507
1259.625, 6.650879
1260.107, 4.507141
1260.589, 3.879822
1261.071, 5.317810
1261.554, 7.237549
1262.036, 8.209045
1262.518, 8.515808
1263.000, 8.320435
1263.482, 7.740051
1263.964, 7.249207
1264.446, 6.734009
1264.928, 6.934631
1265.411, 8.044128
1265.893, 9.000977
1266.375, 8.606445
1266.857, 7.856506
1267.339, 7.503967
1267.821, 7.522644
1268.303, 7.772827
1268.785, 8.307068
1269.267, 8.118286
1269.750, 7.061157
1270.232, 6.536987
1270.714, 9.119507
1271.196, 10.98834
1271.678, 8.434265
1272.160, 4.152405
1272.642, 2.465088
1273.124, 3.204407
1273.606, 3.834412
1274.089, 4.168945
1274.571, 4.766174
1275.053, 7.627930
1275.535, 8.564941
1276.017, 4.609924
1276.499, 0.3413700
1276.981, 0.6206050
1277.463, 2.522217
1277.946, 4.676697
1278.428, 5.536804
1278.910, 5.355591
1279.392, 2.919922
1279.874, 1.366272
1280.356, 1.467468
1280.838, 2.084778
1281.320, 1.614258
1281.802, 0.8710940
1282.285, 2.123840
1282.767, 4.819580
1283.249, 6.148743
1283.731, 4.340698
1284.213, 3.294861
1284.695, 3.546875
1285.177, 3.691284
1285.659, 1.870544
1286.141, 0.3631590
1286.624, 0.8894040
1287.106, 0.1682130
1287.588, 0.3032840
1288.070, 0.2099610
1288.552, 0.8927000
1289.034, 2.534973
1289.516, 3.572632
1289.998, 1.728455
1290.481, 0.3825070
1290.963, 0.2224120
1291.445, 1.095886
1291.927, 1.896912
1292.409, 2.174683
1292.891, 2.961487
1293.373, 4.261169
1293.855, 5.031433
1294.338, 3.740906
1294.820, 2.570862
1295.302, 3.268860
1295.784, 4.828918
1296.266, 4.912842
1296.748, 3.692383
1297.230, 1.877991
1297.712, 1.057556
1298.194, 1.298279
1298.677, 3.869019
1299.159, 5.529724
1299.641, 5.678955
1300.123, 5.333252
1300.605, 5.562683
1301.087, 5.821289
1301.569, 4.436523
1302.051, 2.156738
1302.533, 0.6652220
1303.016, 0.0000000E+00
##END=



