##NAMES=Niter
##RRUFFID=R090001
##IDEAL CHEMISTRY=KNO_3_
##LOCALITY=Searcy County, Arkansas, USA
##OWNER=RRUFF
##SOURCE=James Shigley
##DESCRIPTION=Unconsolidated, granular fragments exhibiting a sandy color
##STATUS=The identification of this mineral has been confirmed by single-crystal X-ray diffraction.
##URL=rruff.info/R090001
140.1837, 0.0000000E+00
140.6658, 4.838074
141.1479, 1.940552
141.6301, 0.2805790
142.1122, 4.241211
142.5943, 19.46875
143.0764, 29.96912
143.5585, 34.38898
144.0406, 33.83301
144.5228, 32.71411
145.0049, 31.47327
145.4870, 29.55933
145.9691, 27.33575
146.4512, 23.52405
146.9333, 19.96454
147.4155, 17.20294
147.8976, 15.25140
148.3797, 13.71802
148.8618, 12.75824
149.3439, 12.19885
149.8260, 12.06354
150.3082, 13.60925
150.7903, 13.61859
151.2724, 10.71594
151.7545, 4.737061
152.2366, 1.363098
152.7188, 3.043396
153.2009, 7.052124
153.6830, 10.83173
154.1651, 14.00659
154.6472, 17.03052
155.1293, 18.95825
155.6115, 20.02350
156.0936, 19.72961
156.5757, 16.60602
157.0578, 12.47766
157.5399, 9.526428
158.0220, 8.811096
158.5042, 8.268494
158.9863, 7.623199
159.4684, 6.896912
159.9505, 6.855774
160.4326, 8.411407
160.9147, 10.75381
161.3969, 12.67081
161.8790, 13.30026
162.3611, 13.86096
162.8432, 15.43201
163.3253, 18.86713
163.8074, 21.12268
164.2896, 20.57727
164.7717, 18.13385
165.2538, 15.79324
165.7359, 13.47641
166.2180, 11.17087
166.7001, 9.279602
167.1823, 9.119598
167.6644, 9.932159
168.1465, 8.806732
168.6286, 6.650330
169.1107, 6.035278
169.5928, 9.126526
170.0750, 13.84863
170.5571, 16.93497
171.0392, 17.12552
171.5213, 16.64984
172.0034, 15.77481
172.4855, 14.91513
172.9677, 14.15842
173.4498, 13.24631
173.9319, 12.20941
174.4140, 11.07523
174.8961, 9.332245
175.3782, 8.064117
175.8604, 9.173065
176.3425, 12.38113
176.8246, 15.22043
177.3067, 15.61380
177.7888, 14.35947
178.2709, 12.97845
178.7531, 11.86035
179.2352, 10.79434
179.7173, 9.165497
180.1994, 7.009491
180.6815, 5.175018
181.1636, 4.480164
181.6458, 4.651276
182.1279, 5.027985
182.6100, 5.545624
183.0921, 6.116455
183.5742, 6.522064
184.0563, 6.831268
184.5385, 6.951721
185.0206, 6.392273
185.5027, 5.244781
185.9848, 4.363556
186.4669, 4.199432
186.9490, 4.529449
187.4312, 4.829224
187.9133, 5.172791
188.3954, 5.169739
188.8775, 4.230347
189.3596, 2.478271
189.8417, 0.4750980
190.3239, 2.023315
190.8060, 4.743958
191.2881, 5.973175
191.7702, 5.568665
192.2523, 4.294403
192.7344, 2.508270
193.2166, 0.1891480
193.6987, 1.233215
194.1808, 0.6605530
194.6629, 1.757385
195.1450, 3.160034
195.6271, 3.336823
196.1093, 2.994781
196.5914, 3.242065
197.0735, 4.142334
197.5556, 4.682648
198.0377, 2.555023
198.5198, 0.7781370
199.0020, 2.635071
199.4841, 2.667542
199.9662, 1.846741
200.4483, 1.732391
200.9304, 2.471619
201.4125, 2.989990
201.8947, 2.063721
202.3768, 0.6630860
202.8589, 0.1318970
203.3410, 5.752502
203.8231, 13.25775
204.3052, 16.79041
204.7874, 15.54108
205.2695, 13.77161
205.7516, 13.34375
206.2337, 14.41696
206.7158, 15.92590
207.1979, 18.20914
207.6801, 20.55469
208.1622, 21.19720
208.6443, 19.47061
209.1264, 18.09225
209.6085, 18.61346
210.0906, 21.69891
210.5728, 23.59708
211.0549, 23.91434
211.5370, 23.26682
212.0191, 23.01883
212.5012, 23.19006
212.9833, 23.67517
213.4655, 24.65033
213.9476, 26.52441
214.4297, 27.21939
214.9118, 26.11572
215.3939, 24.10611
215.8760, 23.46387
216.3581, 24.74850
216.8403, 26.29312
217.3224, 27.19382
217.8045, 27.00943
218.2866, 27.62521
218.7687, 29.55490
219.2508, 32.12552
219.7330, 33.34375
220.2151, 32.41025
220.6972, 31.58939
221.1793, 32.04712
221.6614, 34.27029
222.1435, 36.47998
222.6257, 38.90326
223.1078, 41.18274
223.5899, 42.33630
224.0720, 41.98428
224.5541, 41.11780
225.0362, 40.03574
225.5184, 38.29724
226.0005, 37.60394
226.4826, 38.89252
226.9647, 41.01486
227.4468, 40.47076
227.9289, 35.35175
228.4111, 30.48909
228.8932, 28.10121
229.3753, 28.92285
229.8574, 30.56767
230.3395, 33.71904
230.8216, 37.49887
231.3038, 39.39580
231.7859, 38.43822
232.2680, 37.00600
232.7501, 36.11343
233.2322, 35.90210
233.7143, 35.98790
234.1965, 36.59930
234.6786, 37.46776
235.1607, 37.78201
235.6428, 36.97067
236.1249, 36.40427
236.6070, 36.85744
237.0892, 39.38660
237.5713, 40.47694
238.0534, 39.38315
238.5355, 37.03406
239.0176, 35.87251
239.4997, 36.46677
239.9819, 37.45212
240.4640, 38.39160
240.9461, 39.77885
241.4282, 39.84303
241.9103, 37.66858
242.3924, 34.45871
242.8746, 33.21524
243.3567, 35.03214
243.8388, 37.13124
244.3209, 38.49915
244.8030, 39.09738
245.2851, 39.07634
245.7673, 38.32880
246.2494, 37.00264
246.7315, 35.20798
247.2136, 31.93112
247.6957, 29.72208
248.1778, 29.88303
248.6600, 33.77782
249.1421, 35.84549
249.6242, 35.49913
250.1063, 33.87656
250.5884, 33.15346
251.0705, 33.92027
251.5527, 34.61174
252.0348, 34.56850
252.5169, 33.51755
252.9990, 32.07556
253.4811, 29.89987
253.9632, 27.68167
254.4454, 26.63992
254.9275, 27.18947
255.4096, 28.07481
255.8917, 29.22746
256.3738, 30.97049
256.8560, 31.51605
257.3381, 30.32484
257.8202, 28.31526
258.3023, 26.77469
258.7844, 25.60695
259.2665, 25.20035
259.7487, 26.03735
260.2308, 28.42560
260.7129, 29.08644
261.1950, 27.08643
261.6771, 24.48318
262.1592, 24.54836
262.6414, 28.85614
263.1235, 31.63658
263.6056, 30.59071
264.0877, 25.32126
264.5698, 22.51608
265.0519, 23.09087
265.5341, 24.90073
266.0162, 25.31715
266.4983, 23.75182
266.9804, 22.54778
267.4625, 22.44542
267.9446, 23.43874
268.4268, 23.96140
268.9089, 23.94818
269.3910, 23.57594
269.8731, 22.96605
270.3552, 22.07239
270.8373, 21.11032
271.3195, 19.96870
271.8016, 18.74368
272.2837, 18.31027
272.7658, 18.85724
273.2479, 19.68704
273.7300, 19.87405
274.2122, 19.12277
274.6943, 19.76942
275.1764, 22.90378
275.6585, 27.78778
276.1406, 30.45323
276.6227, 30.56593
277.1049, 29.58205
277.5870, 28.67152
278.0691, 27.89719
278.5512, 26.30428
279.0333, 23.28448
279.5154, 19.58524
279.9976, 17.91563
280.4797, 18.55945
280.9618, 19.72650
281.4439, 20.14761
281.9260, 19.81578
282.4081, 19.67944
282.8903, 19.99701
283.3724, 20.46387
283.8545, 20.19980
284.3366, 19.12605
284.8187, 17.96800
285.3008, 17.09344
285.7830, 16.49843
286.2651, 16.25743
286.7472, 16.44345
287.2293, 16.91434
287.7114, 17.46004
288.1935, 18.09032
288.6757, 18.75755
289.1578, 19.52605
289.6399, 20.32341
290.1220, 20.82318
290.6041, 21.02776
291.0862, 20.88535
291.5684, 20.26276
292.0505, 19.18124
292.5326, 17.87621
293.0147, 16.15170
293.4968, 14.27161
293.9789, 13.12199
294.4611, 12.83205
294.9432, 12.76404
295.4253, 11.95027
295.9074, 10.62595
296.3895, 9.793732
296.8716, 9.954651
297.3538, 10.88559
297.8359, 12.47713
298.3180, 14.79539
298.8001, 16.64986
299.2822, 16.54411
299.7643, 15.06445
300.2465, 13.76653
300.7286, 13.38785
301.2107, 13.45940
301.6928, 13.15935
302.1749, 12.60809
302.6570, 12.18854
303.1392, 12.45343
303.6213, 13.01938
304.1034, 13.17804
304.5855, 12.43324
305.0676, 11.54808
305.5497, 11.15085
306.0319, 11.25787
306.5140, 11.90189
306.9961, 14.51566
307.4782, 17.12408
307.9603, 17.06024
308.4424, 12.48038
308.9246, 7.423065
309.4067, 4.641510
309.8888, 3.845001
310.3709, 4.190033
310.8530, 7.045013
311.3351, 9.843414
311.8173, 9.800201
312.2994, 5.280670
312.7815, 1.672943
313.2636, 3.796875
313.7457, 8.942413
314.2278, 12.25735
314.7100, 9.554596
315.1921, 5.891113
315.6742, 4.366852
316.1563, 5.572235
316.6384, 7.245117
317.1205, 9.367706
317.6027, 11.14072
318.0848, 11.53122
318.5669, 8.555023
319.0490, 5.588531
319.5311, 3.977936
320.0132, 3.855652
320.4954, 4.240936
320.9775, 5.643127
321.4596, 6.992645
321.9417, 7.346893
322.4238, 4.651581
322.9059, 2.796967
323.3881, 3.112915
323.8702, 5.410034
324.3523, 7.241272
324.8344, 8.669434
325.3165, 9.281891
325.7986, 8.856689
326.2808, 4.753479
326.7629, 2.719574
327.2450, 5.028381
327.7271, 10.04862
328.2092, 12.24753
328.6913, 8.458618
329.1735, 4.846008
329.6556, 3.995972
330.1377, 8.476624
330.6198, 10.81619
331.1019, 9.955719
331.5840, 7.262695
332.0662, 5.228668
332.5483, 3.727692
333.0304, 3.118652
333.5125, 3.871216
333.9946, 6.524536
334.4767, 7.558563
334.9589, 6.331909
335.4410, 4.115204
335.9231, 2.284607
336.4052, 0.5159910
336.8873, 0.1380620
337.3694, 2.203979
337.8515, 6.455353
338.3336, 8.019379
338.8158, 6.193481
339.2979, 3.184753
339.7800, 0.7466430
340.2621, 1.101532
340.7442, 2.340637
341.2263, 2.897766
341.7085, 2.860046
342.1906, 2.261322
342.6727, 0.9790650
343.1548, 0.1427000
343.6369, 0.1918030
344.1190, 0.7197880
344.6012, 0.5342100
345.0833, 1.289246
345.5654, 3.650757
346.0475, 4.548157
346.5296, 4.053467
347.0117, 3.281036
347.4939, 2.537598
347.9760, 1.966064
348.4581, 2.229614
348.9402, 3.513763
349.4223, 4.868805
349.9044, 4.905975
350.3866, 4.022430
350.8687, 3.652283
351.3508, 5.289398
351.8329, 7.421844
352.3150, 7.271912
352.7971, 4.778809
353.2793, 2.266388
353.7614, 1.941498
354.2435, 2.828674
354.7256, 3.292450
355.2077, 2.460419
355.6898, 1.548828
356.1720, 2.161407
356.6541, 3.776398
357.1362, 4.475586
357.6183, 1.558533
358.1004, 1.925934
358.5826, 2.924683
359.0647, 0.1095580
359.5468, 3.139099
360.0289, 3.686279
360.5110, 2.782257
360.9931, 2.261871
361.4753, 2.896454
361.9574, 3.880341
362.4395, 5.016113
362.9216, 6.408142
363.4037, 7.111450
363.8858, 6.029022
364.3680, 4.443268
364.8501, 3.698700
365.3322, 5.065369
365.8143, 6.297943
366.2964, 6.915894
366.7785, 6.896820
367.2607, 6.508545
367.7428, 4.690094
368.2249, 3.253296
368.7070, 3.344574
369.1891, 7.215942
369.6712, 9.603973
370.1534, 9.948883
370.6355, 8.687958
371.1176, 7.090515
371.5997, 4.372650
372.0818, 2.330170
372.5639, 1.785889
373.0461, 3.259277
373.5282, 4.502899
374.0103, 5.533844
374.4924, 6.355865
374.9745, 7.143311
375.4566, 8.220001
375.9388, 8.167267
376.4209, 6.130707
376.9030, 2.268494
377.3851, 0.2018430
377.8672, 1.073639
378.3493, 1.277618
378.8315, 1.753601
379.3136, 2.515930
379.7957, 2.686249
380.2778, 2.068573
380.7599, 0.8138730
381.2420, 1.111298
381.7242, 3.679840
382.2063, 5.715912
382.6884, 6.526001
383.1705, 6.162384
383.6526, 4.208557
384.1347, 9.8480001E-02
384.6169, 3.546112
385.0990, 2.245819
385.5811, 2.604889
386.0632, 6.417084
386.5453, 5.863007
387.0274, 3.573883
387.5096, 3.332031
387.9917, 5.183167
388.4738, 6.883087
388.9559, 6.529572
389.4380, 5.016479
389.9201, 3.453430
390.4023, 1.770599
390.8844, 0.6619260
391.3665, 1.072601
391.8486, 2.599091
392.3307, 3.707672
392.8128, 3.116699
393.2950, 2.178345
393.7771, 1.857452
394.2592, 2.563751
394.7413, 3.189880
395.2234, 3.179077
395.7055, 2.918518
396.1877, 2.977417
396.6698, 4.289795
397.1519, 5.156799
397.6340, 4.733429
398.1161, 2.747467
398.5982, 1.611115
399.0804, 2.370850
399.5625, 3.558624
400.0446, 4.129700
400.5267, 3.801483
401.0088, 3.282501
401.4909, 2.367371
401.9731, 1.256104
402.4552, 0.8601070
402.9373, 1.375702
403.4194, 2.335999
403.9015, 3.876587
404.3836, 6.472778
404.8658, 7.144440
405.3479, 5.160187
405.8300, 2.145416
406.3121, 0.3979800
406.7942, 2.5543001E-02
407.2763, 0.2253720
407.7585, 1.080017
408.2406, 2.321838
408.7227, 2.080475
409.2048, 0.1507260
409.6869, 1.522919
410.1690, 0.7811580
410.6512, 1.874268
411.1333, 4.141235
411.6154, 5.774963
412.0975, 6.542297
412.5796, 5.205963
413.0617, 2.268433
413.5439, 0.3347780
414.0260, 1.943756
414.5081, 5.100372
414.9902, 7.080139
415.4723, 7.664032
415.9544, 7.226563
416.4366, 5.550262
416.9187, 3.381165
417.4008, 1.521851
417.8829, 0.3468320
418.3650, 1.110046
418.8471, 0.6474000
419.3293, 4.395599
419.8114, 7.118622
420.2935, 6.449524
420.7756, 4.928467
421.2577, 4.289276
421.7398, 5.255493
422.2220, 6.235535
422.7041, 6.859131
423.1862, 7.289398
423.6683, 7.817505
424.1504, 9.350586
424.6325, 10.11667
425.1147, 9.250153
425.5968, 6.433746
426.0789, 4.825165
426.5610, 5.131073
427.0431, 6.006531
427.5252, 6.332703
428.0074, 5.750916
428.4895, 5.523895
428.9716, 6.068787
429.4537, 6.949463
429.9358, 6.499115
430.4179, 4.266510
430.9001, 2.315643
431.3822, 1.782715
431.8643, 2.685608
432.3464, 3.789307
432.8285, 5.204834
433.3106, 6.452820
433.7928, 6.764618
434.2749, 6.249664
434.7570, 5.813019
435.2391, 5.681854
435.7212, 5.793579
436.2033, 6.453552
436.6855, 7.532379
437.1676, 7.901428
437.6497, 5.995941
438.1318, 3.175690
438.6139, 1.524536
439.0960, 1.482727
439.5782, 2.122742
440.0603, 3.199860
440.5424, 4.395233
441.0245, 5.098511
441.5066, 4.682373
441.9887, 3.990875
442.4709, 3.236298
442.9530, 2.695496
443.4351, 2.611023
443.9172, 3.451233
444.3993, 4.320099
444.8814, 4.551239
445.3636, 2.998047
445.8457, 2.194916
446.3278, 3.000092
446.8099, 4.797424
447.2920, 6.096375
447.7741, 7.227570
448.2563, 7.428192
448.7384, 6.031403
449.2205, 2.619598
449.7026, 0.9885560
450.1847, 1.773743
450.6668, 3.546204
451.1490, 5.108124
451.6311, 6.499603
452.1132, 7.580719
452.5953, 8.392975
453.0774, 8.844879
453.5595, 8.491638
454.0417, 7.218994
454.5238, 6.379242
455.0059, 7.221497
455.4880, 9.379486
455.9701, 10.49921
456.4522, 10.44965
456.9344, 9.689117
457.4165, 8.010162
457.8986, 5.936005
458.3807, 5.143127
458.8628, 7.326447
459.3449, 9.700348
459.8271, 8.512543
460.3092, 4.498444
460.7913, 0.8083800
461.2734, 0.9928890
461.7555, 1.505951
462.2376, 1.053772
462.7198, 0.4867860
463.2019, 2.178619
463.6840, 3.892517
464.1661, 5.377350
464.6482, 6.352142
465.1303, 5.790649
465.6125, 5.764282
466.0946, 7.613251
466.5767, 10.97458
467.0588, 12.31100
467.5409, 9.770844
468.0230, 6.586121
468.5052, 4.039703
468.9873, 1.980286
469.4694, 0.6735840
469.9515, 0.1730040
470.4336, 0.3784480
470.9157, 1.451965
471.3979, 3.903778
471.8800, 5.318420
472.3621, 4.654816
472.8442, 2.467529
473.3263, 1.634857
473.8084, 2.355103
474.2906, 2.890656
474.7727, 1.194061
475.2548, 2.006195
475.7369, 3.010406
476.2190, 1.148132
476.7011, 1.910034
477.1833, 4.554993
477.6654, 6.629578
478.1475, 7.768250
478.6296, 7.223541
479.1117, 6.085510
479.5938, 5.372925
480.0760, 5.047455
480.5581, 4.862244
481.0402, 4.876526
481.5223, 4.849762
482.0044, 4.419861
482.4865, 3.077271
482.9687, 2.559784
483.4508, 4.856018
483.9329, 7.970734
484.4150, 9.034119
484.8971, 4.632996
485.3792, 1.211975
485.8614, 0.8085020
486.3435, 3.160034
486.8256, 4.484985
487.3077, 4.219452
487.7898, 3.576447
488.2719, 3.055420
488.7541, 2.400360
489.2362, 2.924225
489.7183, 5.340729
490.2004, 8.014191
490.6825, 8.079773
491.1646, 5.206665
491.6468, 3.127350
492.1289, 3.278168
492.6110, 4.806244
493.0931, 5.075958
493.5752, 4.105164
494.0573, 3.220154
494.5395, 3.457825
495.0216, 4.450684
495.5037, 5.641846
495.9858, 7.052521
496.4679, 7.958740
496.9500, 7.008118
497.4322, 5.203796
497.9143, 4.216339
498.3964, 5.909546
498.8785, 7.523376
499.3606, 7.282227
499.8427, 5.523499
500.3249, 3.849609
500.8070, 1.630554
501.2891, 0.5501100
501.7712, 2.022003
502.2533, 7.811096
502.7354, 11.46612
503.2176, 10.79532
503.6997, 8.628235
504.1818, 7.913757
504.6639, 10.13333
505.1460, 10.95993
505.6281, 9.214630
506.1103, 5.692230
506.5924, 3.642456
507.0745, 3.394470
507.5566, 3.434357
508.0387, 2.871704
508.5208, 1.760559
509.0030, 1.668152
509.4851, 2.808136
509.9672, 3.766754
510.4493, 2.325317
510.9314, 0.6647340
511.4135, 2.266693
511.8957, 1.476349
512.3778, 0.5627440
512.8599, 3.386963
513.3420, 6.519440
513.8242, 8.650360
514.3063, 8.200653
514.7884, 6.713043
515.2705, 5.162476
515.7526, 3.617645
516.2347, 2.483215
516.7169, 2.110046
517.1990, 2.096924
517.6811, 2.109802
518.1632, 1.173065
518.6453, 1.486725
519.1274, 4.739807
519.6096, 9.090302
520.0917, 11.01010
520.5738, 9.343597
521.0559, 7.221680
521.5380, 5.190918
522.0201, 3.280090
522.5023, 1.947144
522.9844, 1.149994
523.4665, 1.060669
523.9486, 2.223755
524.4307, 4.547302
524.9128, 5.883057
525.3950, 5.942200
525.8771, 5.377136
526.3592, 4.852509
526.8413, 4.389374
527.3234, 4.023224
527.8055, 3.534729
528.2877, 3.374573
528.7698, 4.653625
529.2519, 6.885284
529.7340, 8.150726
530.2161, 6.548950
530.6982, 4.120728
531.1804, 2.292603
531.6625, 1.309570
532.1446, 0.6947020
532.6267, 0.2134090
533.1088, 7.4065998E-02
533.5909, 0.1271060
534.0731, 2.254089
534.5552, 3.491943
535.0373, 2.942627
535.5194, 1.366272
536.0015, 0.6435240
536.4836, 0.9373780
536.9658, 1.810364
537.4479, 3.505890
537.9300, 5.954742
538.4121, 6.412811
538.8942, 4.458069
539.3763, 2.439880
539.8585, 2.802338
540.3406, 5.029572
540.8227, 5.948486
541.3048, 4.879486
541.7869, 3.473389
542.2690, 4.416870
542.7512, 6.673157
543.2333, 7.614166
543.7154, 4.251068
544.1975, 0.7275700
544.6796, 1.036377
545.1617, 4.347931
545.6439, 6.997894
546.1260, 6.727051
546.6081, 5.741425
547.0902, 5.230194
547.5723, 5.346802
548.0544, 5.870636
548.5366, 7.854736
549.0187, 9.614319
549.5008, 9.604126
549.9829, 6.509796
550.4650, 4.039978
550.9471, 2.609497
551.4293, 1.925507
551.9114, 1.181183
552.3935, 0.2318420
552.8756, 4.2296998E-02
553.3577, 0.9934390
553.8398, 2.975922
554.3220, 4.153351
554.8041, 4.579071
555.2862, 4.812775
555.7683, 5.423492
556.2504, 6.256104
556.7325, 7.068604
557.2147, 7.911163
557.6968, 8.268524
558.1789, 7.011963
558.6610, 5.157288
559.1431, 4.203308
559.6252, 6.051300
560.1074, 7.533264
560.5895, 6.366943
561.0716, 3.647095
561.5537, 3.048126
562.0358, 8.670624
562.5179, 13.27603
563.0001, 14.13214
563.4822, 10.70792
563.9643, 7.504272
564.4464, 4.412811
564.9285, 2.156860
565.4106, 1.519653
565.8928, 2.856018
566.3749, 3.287109
566.8570, 2.249542
567.3391, 1.019012
567.8212, 2.010864
568.3033, 4.872223
568.7855, 6.880798
569.2676, 7.132141
569.7497, 6.152313
570.2318, 3.595398
570.7139, 3.9886001E-02
571.1960, 2.373596
571.6782, 0.8968510
572.1603, 1.751282
572.6424, 3.627502
573.1245, 4.573517
573.6066, 4.778992
574.0887, 3.420258
574.5709, 1.896332
575.0530, 1.296661
575.5351, 2.489014
576.0172, 3.561432
576.4993, 4.469421
576.9814, 5.359375
577.4636, 6.633057
577.9457, 9.055908
578.4278, 9.999603
578.9099, 8.049408
579.3920, 4.376862
579.8741, 4.042175
580.3563, 7.322784
580.8384, 10.19641
581.3205, 9.245941
581.8026, 6.081970
582.2847, 6.145599
582.7668, 9.667084
583.2490, 12.35312
583.7311, 8.816498
584.2131, 2.974854
584.6953, 0.1426090
585.1774, 2.774139
585.6595, 5.697723
586.1416, 6.251160
586.6237, 5.384308
587.1058, 4.552856
587.5880, 3.263763
588.0701, 2.957947
588.5522, 4.474884
589.0343, 7.382202
589.5164, 9.946472
589.9985, 13.08963
590.4807, 14.25247
590.9628, 11.48849
591.4449, 4.676331
591.9270, 1.321503
592.4091, 1.936462
592.8912, 3.763458
593.3734, 4.708557
593.8555, 4.812286
594.3376, 3.862640
594.8197, 1.435059
595.3018, 0.3800660
595.7839, 1.636841
596.2661, 5.837891
596.7482, 9.067841
597.2303, 10.16956
597.7124, 9.908844
598.1945, 7.526917
598.6766, 4.009613
599.1588, 2.252472
599.6409, 5.178833
600.1230, 8.089813
600.6051, 9.098022
601.0872, 8.056396
601.5693, 6.989502
602.0515, 5.518890
602.5336, 4.543610
603.0157, 4.889374
603.4978, 6.937164
603.9799, 7.810638
604.4620, 7.192291
604.9442, 6.079865
605.4263, 5.758667
605.9084, 6.093689
606.3905, 6.340759
606.8726, 6.367920
607.3547, 6.152771
607.8369, 5.146454
608.3190, 3.846252
608.8011, 3.495941
609.2832, 6.156860
609.7653, 8.704529
610.2474, 9.131683
610.7296, 7.585571
611.2117, 5.600372
611.6938, 1.756195
612.1759, 0.9082340
612.6580, 0.2763370
613.1401, 4.866211
613.6223, 7.856842
614.1044, 7.938141
614.5865, 6.858429
615.0686, 5.857208
615.5507, 4.855255
616.0328, 4.802124
616.5150, 6.055023
616.9971, 7.657562
617.4792, 8.381134
617.9613, 8.253723
618.4434, 7.339142
618.9255, 5.401978
619.4077, 3.024475
619.8898, 7.6629996E-02
620.3719, 3.231903
620.8540, 4.392242
621.3361, 0.7688600
621.8182, 3.631561
622.3004, 6.983673
622.7825, 9.157257
623.2646, 10.01065
623.7467, 8.580414
624.2288, 6.574707
624.7109, 4.690186
625.1931, 2.362244
625.6752, 1.545776
626.1573, 2.864258
626.6394, 4.854828
627.1215, 5.956543
627.6036, 6.150970
628.0858, 6.558899
628.5679, 7.403137
629.0500, 8.218292
629.5321, 9.015900
630.0142, 9.604462
630.4963, 9.359741
630.9785, 7.261139
631.4606, 5.037201
631.9427, 4.761200
632.4248, 5.710205
632.9069, 5.565308
633.3890, 1.372070
633.8712, 2.313995
634.3533, 3.180145
634.8354, 0.9060970
635.3175, 1.126801
635.7996, 3.268951
636.2817, 4.605438
636.7639, 4.185699
637.2460, 1.200897
637.7281, 0.9269100
638.2102, 4.057159
638.6923, 7.900818
639.1744, 9.329407
639.6566, 8.723694
640.1387, 8.596985
640.6208, 9.655609
641.1029, 10.54526
641.5850, 9.223206
642.0671, 6.616943
642.5493, 4.547668
643.0314, 4.002502
643.5135, 4.019165
643.9956, 4.172302
644.4777, 4.513733
644.9598, 5.197388
645.4420, 7.107727
645.9241, 8.483765
646.4062, 8.811218
646.8883, 8.118988
647.3704, 6.728271
647.8525, 4.078186
648.3347, 1.985199
648.8168, 1.885956
649.2989, 3.697632
649.7810, 4.696594
650.2631, 4.802673
650.7452, 4.639374
651.2274, 5.032715
651.7095, 5.552338
652.1916, 5.020691
652.6737, 2.823151
653.1558, 1.128601
653.6379, 2.132904
654.1201, 4.473389
654.6022, 6.405182
655.0843, 7.828918
655.5664, 8.311707
656.0485, 7.232544
656.5306, 5.170746
657.0128, 3.346344
657.4949, 1.254578
657.9770, 0.4702450
658.4591, 2.033630
658.9412, 5.111816
659.4233, 5.642151
659.9055, 3.377655
660.3876, 1.311096
660.8697, 1.427368
661.3518, 2.878723
661.8339, 3.592346
662.3160, 3.593567
662.7982, 3.453278
663.2803, 3.301208
663.7624, 3.370178
664.2445, 3.985321
664.7266, 5.292175
665.2087, 6.496674
665.6909, 7.362579
666.1730, 7.997864
666.6551, 8.535370
667.1372, 9.930817
667.6193, 9.411682
668.1014, 5.838501
668.5836, 1.516785
669.0657, 0.4505920
669.5478, 5.0659001E-02
670.0299, 1.923279
670.5120, 5.709808
670.9941, 9.736877
671.4763, 10.64844
671.9584, 9.086761
672.4405, 7.578705
672.9226, 7.877930
673.4047, 8.204376
673.8868, 6.342255
674.3690, 3.055359
674.8511, 0.9977420
675.3332, 2.402527
675.8153, 4.132507
676.2974, 4.791229
676.7795, 4.282990
677.2617, 4.094208
677.7438, 4.440491
678.2259, 4.543518
678.7080, 4.135834
679.1901, 3.469147
679.6722, 3.463593
680.1544, 4.237823
680.6365, 4.565552
681.1186, 2.480743
681.6007, 0.8699340
682.0828, 2.509796
682.5649, 1.846741
683.0471, 0.2864990
683.5292, 1.756317
684.0113, 3.809448
684.4934, 5.246277
684.9755, 5.650543
685.4576, 5.837921
685.9398, 6.143616
686.4219, 6.304688
686.9040, 5.853394
687.3861, 4.183044
687.8682, 3.131683
688.3503, 3.077148
688.8325, 3.755981
689.3146, 4.560211
689.7967, 5.489441
690.2788, 6.519684
690.7609, 7.860535
691.2430, 9.121918
691.7252, 9.372589
692.2073, 8.864471
692.6894, 8.286102
693.1715, 7.478973
693.6536, 6.920502
694.1357, 7.300598
694.6179, 8.575317
695.1000, 9.222351
695.5821, 8.216797
696.0642, 7.057526
696.5463, 6.188782
697.0284, 5.405884
697.5106, 6.557861
697.9927, 10.42581
698.4748, 14.49161
698.9569, 15.84390
699.4390, 15.13065
699.9211, 17.94980
700.4033, 24.96066
700.8854, 33.97583
701.3675, 41.23007
701.8496, 49.52151
702.3317, 64.47537
702.8138, 90.40259
703.2960, 114.6595
703.7781, 130.8004
704.2602, 141.6917
704.7423, 150.8407
705.2244, 156.6614
705.7065, 163.3359
706.1887, 169.6449
706.6708, 177.7693
707.1529, 191.3802
707.6350, 210.1172
708.1171, 236.5726
708.5992, 271.8916
709.0814, 314.8073
709.5635, 368.2235
710.0456, 429.5946
710.5277, 485.6188
711.0098, 525.4265
711.4919, 560.3970
711.9741, 594.6726
712.4562, 630.8953
712.9383, 680.5129
713.4204, 740.6419
713.9025, 822.0106
714.3846, 949.0026
714.8668, 1117.908
715.3489, 1238.104
715.8310, 1331.258
716.3131, 1333.518
716.7952, 1182.130
717.2773, 891.5396
717.7595, 639.8047
718.2416, 427.7351
718.7237, 263.2739
719.2058, 167.7219
719.6879, 117.9999
720.1700, 83.34314
720.6522, 60.63480
721.1343, 45.13010
721.6164, 37.14005
722.0985, 33.00351
722.5806, 29.58887
723.0627, 26.26175
723.5449, 24.34177
724.0270, 25.14471
724.5091, 26.17703
724.9912, 25.28665
725.4733, 22.16895
725.9554, 19.16562
726.4376, 16.39230
726.9197, 13.93344
727.4018, 12.05185
727.8839, 10.67661
728.3660, 9.666992
728.8481, 8.982666
729.3303, 8.640045
729.8124, 8.984650
730.2945, 9.592834
730.7766, 9.814056
731.2587, 9.868958
731.7408, 9.037079
732.2230, 6.090271
732.7051, 2.400726
733.1872, 0.6496280
733.6693, 1.526978
734.1514, 2.413361
734.6335, 2.730621
735.1157, 2.592590
735.5978, 2.608093
736.0799, 2.805206
736.5620, 3.429565
737.0441, 5.479767
737.5262, 7.303192
738.0084, 6.545746
738.4905, 3.871429
738.9726, 1.536682
739.4547, 0.1260680
739.9368, 0.7593690
740.4189, 0.7789310
740.9011, 4.290802
741.3832, 6.048950
741.8653, 4.998505
742.3474, 4.064026
742.8295, 4.872711
743.3116, 7.004028
743.7938, 6.455139
744.2759, 3.128723
744.7580, 0.2565610
745.2401, 0.7565920
745.7222, 2.855072
746.2043, 3.798187
746.6865, 3.524841
747.1686, 3.266479
747.6507, 4.360413
748.1328, 5.222015
748.6149, 4.296387
749.0970, 0.6639100
749.5792, 0.4900820
750.0613, 2.822266
750.5434, 6.291077
751.0255, 6.950714
751.5076, 4.479065
751.9897, 2.886444
752.4719, 2.241333
752.9540, 2.260895
753.4361, 3.435059
753.9182, 4.889252
754.4003, 4.442749
754.8824, 1.524292
755.3646, 0.9112550
755.8467, 1.4893000E-02
756.3288, 1.801300
756.8109, 2.158539
757.2930, 0.5374150
757.7751, 2.144836
758.2573, 2.084991
758.7394, 1.212280
759.2215, 0.1799010
759.7036, 1.107544
760.1857, 1.924927
760.6678, 2.109924
761.1500, 2.122314
761.6321, 2.458038
762.1142, 3.072632
762.5963, 3.971222
763.0784, 5.361816
763.5605, 6.415039
764.0427, 6.726196
764.5248, 6.285034
765.0069, 5.079681
765.4890, 1.258209
765.9711, 0.8001710
766.4532, 7.0006996E-02
766.9354, 2.007019
767.4175, 3.489685
767.8996, 4.382874
768.3817, 4.577606
768.8638, 3.875946
769.3459, 2.911591
769.8281, 2.809418
770.3102, 3.294037
770.7923, 3.521912
771.2744, 2.963959
771.7565, 2.441437
772.2386, 2.466400
772.7208, 2.919739
773.2029, 3.595032
773.6850, 5.026062
774.1671, 5.910461
774.6492, 5.835205
775.1313, 5.226868
775.6135, 5.090820
776.0956, 5.551025
776.5777, 5.402985
777.0598, 3.813660
777.5419, 2.228668
778.0240, 3.918182
778.5062, 7.892487
778.9883, 11.08917
779.4704, 12.86292
779.9525, 12.65402
780.4346, 8.293732
780.9167, 1.713074
781.3989, 2.396240
781.8810, 0.8882750
782.3631, 0.5091250
782.8452, 0.6163330
783.3273, 2.4110000E-03
783.8094, 0.5393370
784.2916, 2.382874
784.7737, 3.826599
785.2558, 4.152802
785.7379, 3.877502
786.2200, 3.542267
786.7021, 3.355682
787.1843, 4.012085
787.6664, 7.587097
788.1485, 10.42792
788.6306, 9.617462
789.1127, 6.218109
789.5948, 4.391479
790.0770, 6.437286
790.5591, 7.157593
791.0412, 4.497314
791.5233, 0.1029050
792.0054, 1.133728
792.4875, 1.476257
792.9697, 4.435669
793.4518, 6.470367
793.9339, 7.834900
794.4160, 8.943848
794.8981, 9.703217
795.3802, 9.805573
795.8624, 9.142426
796.3445, 7.753601
796.8266, 4.993042
797.3087, 1.341217
797.7908, 0.9466250
798.2729, 1.429321
798.7551, 1.121429
799.2372, 0.1926570
799.7193, 1.275208
800.2014, 3.435730
800.6835, 6.169525
801.1656, 7.819977
801.6478, 6.204193
802.1299, 4.062561
802.6120, 5.621674
803.0941, 9.520172
803.5762, 11.42685
804.0583, 7.087830
804.5405, 2.999359
805.0226, 1.761200
805.5047, 2.697601
805.9868, 4.271545
806.4689, 6.896179
806.9510, 9.077362
807.4332, 10.25327
807.9153, 10.67712
808.3974, 10.93555
808.8795, 10.97708
809.3616, 10.40939
809.8438, 8.494263
810.3259, 6.326355
810.8080, 4.286682
811.2901, 2.632965
811.7722, 2.260986
812.2543, 4.249115
812.7365, 6.760803
813.2186, 10.28726
813.7007, 13.91663
814.1828, 13.12521
814.6649, 7.230804
815.1470, 2.333435
815.6292, 0.5915220
816.1113, 0.9288020
816.5934, 2.499023
817.0755, 5.132538
817.5576, 8.048828
818.0397, 12.48447
818.5219, 15.48776
819.0040, 14.41095
819.4861, 10.57678
819.9682, 8.366699
820.4503, 8.745667
820.9324, 9.558228
821.4146, 10.61292
821.8967, 11.62311
822.3788, 11.59915
822.8609, 10.61987
823.3430, 9.892120
823.8251, 9.992065
824.3073, 10.35242
824.7894, 10.41028
825.2715, 10.05457
825.7536, 9.068848
826.2357, 5.953979
826.7178, 3.868591
827.2000, 5.019318
827.6821, 7.617432
828.1642, 8.117859
828.6463, 5.737579
829.1284, 4.138763
829.6105, 4.291473
830.0927, 5.182098
830.5748, 4.872681
831.0569, 3.706085
831.5390, 2.821625
832.0211, 2.416809
832.5032, 2.740845
832.9854, 4.772095
833.4675, 7.411804
833.9496, 8.943665
834.4317, 7.460815
834.9138, 7.113098
835.3959, 9.034546
835.8781, 11.36316
836.3602, 10.89386
836.8423, 7.638367
837.3244, 4.894318
837.8065, 3.238434
838.2886, 2.450562
838.7708, 2.621002
839.2529, 3.215881
839.7350, 3.947388
840.2171, 4.710602
840.6992, 5.162659
841.1813, 5.322357
841.6635, 5.202393
842.1456, 4.680725
842.6277, 3.315460
843.1098, 2.990387
843.5919, 3.967255
844.0740, 5.569855
844.5562, 7.631409
845.0383, 9.650482
845.5204, 9.726868
846.0025, 7.301910
846.4846, 4.926300
846.9667, 4.535706
847.4489, 5.012634
847.9310, 5.320648
848.4131, 5.184937
848.8952, 5.242188
849.3773, 5.619720
849.8594, 5.947449
850.3416, 5.797882
850.8237, 5.137024
851.3058, 6.620514
851.7879, 10.54309
852.2700, 13.58020
852.7521, 11.86633
853.2343, 8.450684
853.7164, 7.023895
854.1985, 7.770447
854.6806, 8.292053
855.1627, 8.066406
855.6448, 7.298187
856.1270, 5.999298
856.6091, 4.188019
857.0912, 3.125336
857.5733, 2.783356
858.0554, 3.117035
858.5375, 4.662323
859.0197, 6.708405
859.5018, 7.855286
859.9839, 8.093231
860.4660, 7.485657
860.9481, 5.284973
861.4302, 2.966980
861.9124, 0.5245060
862.3945, 1.629852
862.8766, 0.4082950
863.3587, 6.234039
863.8408, 11.46783
864.3229, 12.84488
864.8051, 11.20551
865.2872, 8.113129
865.7693, 3.907227
866.2514, 0.7211000
866.7335, 0.1755070
867.2156, 0.5122680
867.6978, 0.2518920
868.1799, 0.1349490
868.6620, 0.4363100
869.1441, 4.157074
869.6262, 6.211578
870.1083, 5.388977
870.5905, 3.015991
871.0726, 1.831482
871.5547, 1.830292
872.0368, 1.107849
872.5189, 1.329803
873.0010, 3.057159
873.4832, 0.1660770
873.9653, 5.597534
874.4474, 8.626831
874.9295, 6.475342
875.4116, 4.451752
875.8937, 3.599457
876.3759, 3.535736
876.8580, 4.234009
877.3401, 6.083557
877.8222, 6.513824
878.3043, 4.984100
878.7864, 3.081940
879.2686, 2.522461
879.7507, 2.832611
880.2328, 3.031616
880.7149, 2.900940
881.1970, 3.493744
881.6791, 7.561920
882.1613, 10.78738
882.6434, 9.305603
883.1255, 2.108246
883.6076, 1.220062
884.0897, 0.1197810
884.5718, 2.399628
885.0540, 3.021973
885.5361, 2.651978
886.0182, 3.439056
886.5003, 5.071167
886.9824, 5.951538
887.4645, 4.182587
887.9467, 2.338104
888.4288, 2.202698
888.9109, 3.795746
889.3930, 4.864136
889.8751, 5.157166
890.3572, 5.092773
890.8394, 4.433441
891.3215, 3.732635
891.8036, 5.187378
892.2857, 8.290924
892.7678, 10.32666
893.2499, 9.186157
893.7321, 7.624969
894.2142, 8.007385
894.6963, 9.415100
895.1784, 10.15790
895.6605, 9.887604
896.1426, 8.355438
896.6248, 4.563293
897.1069, 0.6555180
897.5890, 1.1290000E-03
898.0711, 2.456665
898.5532, 4.174896
899.0353, 4.607788
899.5175, 4.656708
899.9996, 4.744385
900.4817, 5.115173
900.9638, 6.296661
901.4459, 9.259430
901.9280, 10.37177
902.4102, 8.042816
902.8923, 5.313965
903.3744, 4.249695
903.8565, 4.867798
904.3386, 6.097229
904.8207, 7.946411
905.3029, 9.391724
905.7850, 8.607941
906.2671, 7.626434
906.7492, 9.549194
907.2313, 14.16010
907.7134, 16.73157
908.1956, 14.30725
908.6777, 11.28442
909.1598, 9.123352
909.6419, 7.543671
910.1240, 4.552521
910.6061, 0.1036380
911.0883, 2.391357
911.5704, 0.6891780
912.0525, 2.835632
912.5346, 5.755524
913.0167, 8.082947
913.4988, 9.846649
913.9810, 11.47476
914.4631, 11.93768
914.9452, 10.15347
915.4273, 7.723846
915.9094, 7.275024
916.3915, 9.050171
916.8737, 9.306458
917.3558, 7.201691
917.8379, 4.942047
918.3200, 5.531769
918.8021, 7.382904
919.2842, 8.023499
919.7664, 6.625336
920.2485, 5.478058
920.7306, 6.268494
921.2127, 7.040192
921.6948, 6.235016
922.1769, 3.625397
922.6591, 3.254974
923.1412, 5.353241
923.6233, 7.390381
924.1054, 7.443054
924.5875, 6.436371
925.0696, 5.591858
925.5518, 4.895233
926.0339, 4.111176
926.5160, 2.947632
926.9981, 2.029755
927.4802, 1.628387
927.9623, 1.578064
928.4445, 1.031769
928.9266, 0.1744080
929.4087, 0.4678040
929.8908, 4.556885
930.3729, 8.974518
930.8550, 9.626343
931.3372, 8.003937
931.8193, 5.940399
932.3014, 3.198822
932.7835, 1.402313
933.2656, 1.804352
933.7477, 2.632935
934.2299, 2.074799
934.7120, 0.1328130
935.1941, 1.012390
935.6762, 0.3158870
936.1583, 0.8356020
936.6404, 1.210571
937.1226, 1.508087
937.6047, 2.967072
938.0868, 5.683258
938.5689, 7.626892
939.0510, 8.547333
939.5331, 7.953491
940.0153, 4.686310
940.4974, 0.4409790
940.9795, 0.9068600
941.4616, 3.257751
941.9437, 6.036957
942.4258, 3.301117
942.9080, 0.9896550
943.3901, 2.313782
943.8722, 1.470459
944.3543, 0.1775210
944.8364, 2.524536
945.3185, 3.494293
945.8007, 1.059113
946.2828, 2.059784
946.7649, 1.652191
947.2470, 2.153412
947.7291, 4.170685
948.2112, 3.574738
948.6934, 2.231384
949.1755, 1.140259
949.6576, 0.7071230
950.1397, 1.950348
950.6218, 5.619263
951.1039, 6.752136
951.5861, 3.257294
952.0682, 0.6885680
952.5503, 3.520874
953.0324, 5.107880
953.5145, 3.411865
953.9966, 1.188904
954.4788, 4.191284
954.9609, 0.2380980
955.4430, 3.869843
955.9251, 1.070496
956.4072, 5.864471
956.8893, 9.522217
957.3715, 6.689423
957.8536, 4.136841
958.3357, 2.559753
958.8178, 1.850891
959.2999, 1.853363
959.7820, 2.588745
960.2642, 4.476410
960.7463, 7.917511
961.2284, 10.67847
961.7105, 10.72958
962.1926, 9.675323
962.6747, 8.888733
963.1569, 8.571167
963.6390, 8.075714
964.1211, 7.218079
964.6032, 6.686493
965.0853, 7.381256
965.5674, 8.609100
966.0496, 8.159790
966.5317, 6.300690
967.0138, 4.286346
967.4959, 2.302948
967.9780, 0.8459780
968.4601, 0.3238530
968.9423, 0.3419490
969.4244, 0.3321530
969.9065, 2.9053001E-02
970.3886, 1.016632
970.8707, 3.963287
971.3528, 7.183777
971.8350, 8.661407
972.3171, 8.741119
972.7992, 7.821381
973.2813, 5.628052
973.7634, 4.120361
974.2455, 4.866119
974.7277, 5.760895
975.2098, 5.282227
975.6919, 3.394135
976.1740, 3.330719
976.6561, 5.190674
977.1382, 6.687469
977.6204, 5.585022
978.1025, 3.942902
978.5846, 4.703156
979.0667, 7.024780
979.5488, 8.400543
980.0309, 6.194244
980.5131, 5.584198
980.9952, 8.289063
981.4773, 11.99741
981.9594, 12.49289
982.4415, 10.20386
982.9236, 8.660400
983.4058, 8.502014
983.8879, 9.143280
984.3700, 11.39130
984.8521, 13.36322
985.3342, 12.86172
985.8163, 8.807495
986.2985, 6.747620
986.7806, 7.618256
987.2627, 8.353058
987.7448, 6.931915
988.2269, 4.246735
988.7090, 2.819519
989.1912, 2.605133
989.6733, 3.404297
990.1554, 6.058746
990.6375, 8.702362
991.1196, 10.78894
991.6017, 12.11688
992.0839, 12.24753
992.5660, 10.84607
993.0481, 9.498901
993.5302, 8.479279
994.0123, 7.631714
994.4944, 6.684753
994.9766, 5.752289
995.4587, 4.963959
995.9408, 4.325623
996.4229, 4.016632
996.9050, 4.324707
997.3871, 4.739075
997.8693, 5.102081
998.3514, 5.343536
998.8335, 5.117828
999.3156, 4.578918
999.7977, 4.576385
1000.280, 5.784271
1000.762, 7.277893
1001.244, 8.646484
1001.726, 9.781006
1002.208, 10.29144
1002.690, 9.822021
1003.173, 8.911102
1003.655, 7.244873
1004.137, 5.687500
1004.619, 5.666351
1005.101, 6.846344
1005.583, 7.762024
1006.065, 8.327393
1006.547, 8.589874
1007.029, 8.025665
1007.512, 7.675629
1007.994, 8.576569
1008.476, 10.27927
1008.958, 10.37729
1009.440, 8.358002
1009.922, 8.231232
1010.404, 12.10504
1010.886, 16.09418
1011.369, 13.75064
1011.851, 8.292450
1012.333, 4.913544
1012.815, 5.903839
1013.297, 6.543091
1013.779, 6.204926
1014.261, 5.814240
1014.743, 6.133209
1015.225, 7.117310
1015.708, 7.610077
1016.190, 7.652008
1016.672, 7.873383
1017.154, 8.563538
1017.636, 9.686981
1018.118, 11.77435
1018.600, 14.27216
1019.082, 15.30618
1019.565, 13.74768
1020.047, 13.56964
1020.529, 15.64960
1021.011, 18.68005
1021.493, 20.97119
1021.975, 22.85275
1022.457, 24.99283
1022.939, 27.49951
1023.421, 30.27469
1023.904, 33.47626
1024.386, 36.73358
1024.868, 39.75009
1025.350, 42.63641
1025.832, 46.47519
1026.314, 51.26370
1026.796, 56.51654
1027.278, 61.99756
1027.760, 67.69406
1028.243, 71.83279
1028.725, 76.89496
1029.207, 87.11218
1029.689, 108.7396
1030.171, 127.5640
1030.653, 146.2484
1031.135, 156.2005
1031.617, 143.4067
1032.100, 115.8807
1032.582, 95.25253
1033.064, 82.61267
1033.546, 75.46585
1034.028, 72.04474
1034.510, 74.48242
1034.992, 84.28290
1035.474, 100.5823
1035.957, 120.3617
1036.439, 143.5094
1036.921, 174.6747
1037.403, 211.2628
1037.885, 269.9842
1038.367, 355.3885
1038.849, 481.4959
1039.331, 668.0528
1039.813, 934.5278
1040.296, 1214.607
1040.778, 1531.607
1041.260, 1802.729
1041.742, 1961.242
1042.224, 2044.030
1042.706, 2154.594
1043.188, 2293.359
1043.670, 2469.049
1044.152, 2645.990
1044.635, 2904.811
1045.117, 3222.104
1045.599, 3676.157
1046.081, 4387.271
1046.563, 5397.265
1047.045, 6412.835
1047.527, 7417.598
1048.009, 8409.736
1048.492, 9053.050
1048.974, 9902.397
1049.456, 11886.96
1049.938, 14895.60
1050.420, 17114.32
1050.902, 19100.88
1051.384, 18825.70
1051.866, 15173.68
1052.349, 9942.191
1052.831, 6174.052
1053.313, 3678.720
1053.795, 2014.475
1054.277, 1212.257
1054.759, 734.1509
1055.241, 492.7737
1055.723, 365.6967
1056.205, 279.5956
1056.688, 233.7140
1057.170, 195.5128
1057.652, 164.7686
1058.134, 140.0181
1058.616, 121.7054
1059.098, 107.6158
1059.580, 97.47510
1060.062, 89.65601
1060.544, 80.97736
1061.027, 68.59198
1061.509, 60.59201
1061.991, 58.36972
1062.473, 57.49844
1062.955, 53.50726
1063.437, 47.77234
1063.919, 43.07101
1064.401, 39.56363
1064.884, 36.73904
1065.366, 35.47968
1065.848, 33.48871
1066.330, 29.30060
1066.812, 24.53445
1067.294, 23.28268
1067.776, 25.19446
1068.258, 26.66840
1068.740, 26.60721
1069.223, 25.47653
1069.705, 23.48026
1070.187, 21.16687
1070.669, 18.92664
1071.151, 16.77542
1071.633, 14.82785
1072.115, 13.05368
1072.597, 11.53925
1073.079, 10.26398
1073.562, 9.343292
1074.044, 9.125031
1074.526, 9.286469
1075.008, 9.530640
1075.490, 10.03000
1075.972, 10.07269
1076.454, 9.463654
1076.936, 8.663818
1077.419, 8.110657
1077.901, 7.683624
1078.383, 6.556732
1078.865, 4.873383
1079.347, 3.721466
1079.829, 4.310516
1080.311, 4.884369
1080.793, 3.936462
1081.275, 2.797943
1081.758, 4.354156
1082.240, 8.932037
1082.722, 9.772858
1083.204, 5.731689
1083.686, 1.026215
1084.168, 1.586700
1084.650, 2.455658
1085.132, 1.024506
1085.615, 2.447876
1086.097, 3.717590
1086.579, 1.919006
1087.061, 0.3285220
1087.543, 0.1166690
1088.025, 0.1324460
1088.507, 0.9818120
1088.989, 1.835266
1089.471, 1.324005
1089.953, 1.592102
1090.436, 3.092163
1090.918, 1.110382
1091.400, 0.7171630
1091.882, 6.0669001E-02
1092.364, 2.199432
1092.846, 1.614075
1093.328, 1.228394
1093.810, 3.600372
1094.293, 4.572571
1094.775, 4.340820
1095.257, 1.679596
1095.739, 1.286621
1096.221, 2.342133
1096.703, 1.358582
1097.185, 1.154480
1097.667, 5.283081
1098.150, 7.917542
1098.632, 5.082489
1099.114, 1.197754
1099.596, 0.1336980
1100.078, 0.6452030
1100.560, 1.749298
1101.042, 3.211426
1101.524, 5.059692
1102.006, 7.324677
1102.489, 9.041199
1102.971, 8.618134
1103.453, 6.974548
1103.935, 5.362335
1104.417, 3.910187
1104.899, 2.740295
1105.381, 1.901642
1105.863, 1.318848
1106.345, 0.9929500
1106.828, 0.9012450
1107.310, 1.330902
1107.792, 1.954834
1108.274, 1.449860
1108.756, 0.9448850
1109.238, 2.312744
1109.720, 0.2112120
1110.202, 2.329926
1110.685, 3.608704
1111.167, 3.793732
1111.649, 4.182434
1112.131, 4.697174
1112.613, 4.491974
1113.095, 2.869293
1113.577, 1.016663
1114.059, 0.9445190
1114.542, 2.213989
1115.024, 1.614899
1115.506, 1.532654
1115.988, 2.720215
1116.470, 1.725830
1116.952, 0.9954830
1117.434, 2.986511
1117.916, 5.440186
1118.398, 5.715637
1118.880, 4.527008
1119.363, 3.632599
1119.845, 3.282471
1120.327, 3.175720
1120.809, 3.210480
1121.291, 3.748199
1121.773, 5.769043
1122.255, 8.270386
1122.737, 9.483978
1123.220, 9.400269
1123.702, 8.632233
1124.184, 7.458008
1124.666, 5.193512
1125.148, 0.7612920
1125.630, 3.405029
1126.112, 2.388702
1126.594, 2.073395
1127.077, 4.407104
1127.559, 3.762695
1128.041, 3.335144
1128.523, 5.106598
1129.005, 7.065704
1129.487, 8.868073
1129.969, 9.953339
1130.451, 7.123352
1130.933, 1.266724
1131.416, 7.6110996E-02
1131.898, 6.292389
1132.380, 12.35767
1132.862, 12.28598
1133.344, 10.02109
1133.826, 8.454559
1134.308, 7.657898
1134.790, 7.839661
1135.272, 9.035126
1135.755, 9.459351
1136.237, 8.049896
1136.719, 6.191132
1137.201, 4.742615
1137.683, 3.849884
1138.165, 3.979431
1138.647, 5.653870
1139.129, 5.565338
1139.612, 3.335144
1140.094, 1.989532
1140.576, 5.007263
1141.058, 8.663422
1141.540, 7.029572
1142.022, 2.554657
1142.504, 0.6573490
1142.986, 4.340332
1143.469, 7.303741
1143.951, 9.502686
1144.433, 10.59827
1144.915, 10.01538
1145.397, 8.266815
1145.879, 5.591125
1146.361, 2.564026
1146.843, 1.299103
1147.325, 4.268127
1147.807, 6.487823
1148.290, 7.413055
1148.772, 7.468170
1149.254, 6.773407
1149.736, 5.617523
1150.218, 4.394684
1150.700, 3.389496
1151.182, 3.791138
1151.664, 7.905670
1152.147, 11.04153
1152.629, 12.01648
1153.111, 11.22009
1153.593, 8.442444
1154.075, 4.396393
1154.557, 1.858551
1155.039, 1.282684
1155.521, 2.026611
1156.004, 5.741180
1156.486, 8.612244
1156.968, 8.763885
1157.450, 6.658905
1157.932, 3.087585
1158.414, 1.396606
1158.896, 2.203400
1159.378, 2.591278
1159.860, 7.203644
1160.343, 7.596405
1160.825, 6.518494
1161.307, 5.569977
1161.789, 4.909637
1162.271, 6.199219
1162.753, 9.293854
1163.235, 10.60834
1163.717, 8.050110
1164.199, 5.385803
1164.682, 6.569824
1165.164, 8.501831
1165.646, 7.771332
1166.128, 4.120667
1166.610, 2.453278
1167.092, 2.835663
1167.574, 3.467957
1168.056, 2.956055
1168.539, 2.608246
1169.021, 4.662201
1169.503, 7.163116
1169.985, 6.822968
1170.467, 2.089325
1170.949, 1.821350
1171.431, 6.604675
1171.913, 10.62799
1172.396, 9.347412
1172.878, 6.339844
1173.360, 4.791962
1173.842, 4.270538
1174.324, 4.220428
1174.806, 4.462097
1175.288, 5.681122
1175.770, 8.222565
1176.252, 10.01959
1176.734, 8.021881
1177.217, 5.104889
1177.699, 6.489258
1178.181, 10.35825
1178.663, 10.82141
1179.145, 4.314728
1179.627, 1.135162
1180.109, 2.586121
1180.591, 5.146729
1181.074, 5.502106
1181.556, 4.840698
1182.038, 4.914825
1182.520, 5.555023
1183.002, 5.489044
1183.484, 3.551941
1183.966, 2.569366
1184.448, 3.019165
1184.931, 4.331604
1185.413, 7.367920
1185.895, 10.34601
1186.377, 9.244995
1186.859, 4.569672
1187.341, 2.738953
1187.823, 6.941956
1188.305, 10.07605
1188.787, 10.91678
1189.270, 9.886200
1189.752, 5.485992
1190.234, 0.7406310
1190.716, 2.537842
1191.198, 11.23221
1191.680, 15.75864
1192.162, 11.26163
1192.644, 7.305267
1193.126, 6.182739
1193.609, 6.549042
1194.091, 6.879181
1194.573, 6.895386
1195.055, 5.545471
1195.537, 2.543762
1196.019, 1.522430
1196.501, 4.843872
1196.983, 7.266602
1197.466, 6.927277
1197.948, 5.383087
1198.430, 5.522522
1198.912, 6.602814
1199.394, 7.181122
1199.876, 6.944550
1200.358, 6.384613
1200.840, 5.737793
1201.323, 4.578705
1201.805, 2.303131
1202.287, 6.8604000E-02
1202.769, 0.8060000
1203.251, 3.324188
1203.733, 5.260284
1204.215, 6.286591
1204.697, 5.645691
1205.179, 1.393890
1205.661, 0.6744080
1206.144, 3.152313
1206.626, 9.495331
1207.108, 10.57196
1207.590, 8.147278
1208.072, 5.807434
1208.554, 4.263580
1209.036, 3.877991
1209.518, 5.633179
1210.001, 6.508820
1210.483, 4.412292
1210.965, 0.9268800
1211.447, 5.5298001E-02
1211.929, 0.5935670
1212.411, 0.9176640
1212.893, 0.1686100
1213.375, 0.5237430
1213.858, 1.733429
1214.340, 1.375000
1214.822, 2.886993
1215.304, 8.672150
1215.786, 9.880859
1216.268, 7.974579
1216.750, 6.531860
1217.232, 6.871948
1217.714, 7.945557
1218.197, 10.49121
1218.679, 11.84344
1219.161, 9.454987
1219.643, 5.323578
1220.125, 3.708984
1220.607, 3.759247
1221.089, 3.439941
1221.571, 1.072632
1222.053, 0.6180420
1222.536, 2.990662
1223.018, 5.324280
1223.500, 5.494934
1223.982, 4.479340
1224.464, 4.117126
1224.946, 4.106018
1225.428, 3.737976
1225.910, 2.472656
1226.393, 1.327026
1226.875, 0.2196040
1227.357, 0.4446720
1227.839, 0.6861880
1228.321, 9.4054997E-02
1228.803, 3.462006
1229.285, 8.208252
1229.767, 9.900604
1230.250, 4.683105
1230.732, 2.253754
1231.214, 3.263916
1231.696, 4.974243
1232.178, 5.955200
1232.660, 5.886505
1233.142, 3.139526
1233.624, 0.8363950
1234.106, 2.444519
1234.589, 0.2883910
1235.071, 1.213440
1235.553, 0.2230530
1236.035, 1.110931
1236.517, 1.215668
1236.999, 4.943176
1237.481, 9.589355
1237.963, 13.66403
1238.445, 13.10135
1238.928, 4.976196
1239.410, 2.815002
1239.892, 7.771271
1240.374, 12.68106
1240.856, 11.02393
1241.338, 8.022522
1241.820, 9.399200
1242.302, 12.64243
1242.785, 11.90302
1243.267, 5.492645
1243.749, 4.025330
1244.231, 8.142700
1244.713, 11.42944
1245.195, 7.311523
1245.677, 2.553009
1246.159, 3.081055
1246.641, 6.186432
1247.124, 6.400513
1247.606, 3.409302
1248.088, 1.507782
1248.570, 0.8899840
1249.052, 1.200317
1249.534, 2.994751
1250.016, 4.768829
1250.498, 5.192902
1250.980, 5.361237
1251.463, 7.331421
1251.945, 11.02896
1252.427, 11.20605
1252.909, 7.979187
1253.391, 5.031921
1253.873, 5.229370
1254.355, 5.734467
1254.837, 4.792969
1255.320, 4.046082
1255.802, 5.675720
1256.284, 9.022705
1256.766, 9.336151
1257.248, 6.888641
1257.730, 4.944702
1258.212, 5.642670
1258.694, 6.752289
1259.177, 8.010712
1259.659, 9.190216
1260.141, 8.548584
1260.623, 6.862885
1261.105, 6.942413
1261.587, 8.559540
1262.069, 10.17737
1262.551, 11.17480
1263.033, 12.05197
1263.516, 13.05008
1263.998, 13.83521
1264.480, 14.18558
1264.962, 14.06589
1265.444, 13.10779
1265.926, 11.46503
1266.408, 10.33191
1266.890, 10.83072
1267.372, 9.503967
1267.855, 5.412445
1268.337, 2.173523
1268.819, 4.032288
1269.301, 7.531464
1269.783, 8.086548
1270.265, 6.498169
1270.747, 6.693970
1271.229, 9.967133
1271.712, 10.77875
1272.194, 8.566956
1272.676, 6.439362
1273.158, 7.045319
1273.640, 8.616364
1274.122, 10.16071
1274.604, 11.19965
1275.086, 10.75418
1275.568, 8.490540
1276.051, 7.260864
1276.533, 7.129242
1277.015, 7.036438
1277.497, 5.532043
1277.979, 4.489532
1278.461, 5.147430
1278.943, 6.939697
1279.425, 9.893341
1279.907, 13.95209
1280.390, 12.94363
1280.872, 7.516083
1281.354, 3.600983
1281.836, 5.910248
1282.318, 8.433838
1282.800, 9.306519
1283.282, 9.296814
1283.764, 8.651855
1284.247, 7.630951
1284.729, 7.865326
1285.211, 8.979828
1285.693, 9.525330
1286.175, 9.092896
1286.657, 7.377625
1287.139, 2.972382
1287.621, 0.2309570
1288.104, 4.442780
1288.586, 11.56003
1289.068, 12.93671
1289.550, 10.35739
1290.032, 7.985931
1290.514, 7.535278
1290.996, 5.753784
1291.478, 2.064758
1291.960, 0.5500180
1292.443, 2.7557001E-02
1292.925, 2.382813
1293.407, 6.355804
1293.889, 10.66904
1294.371, 13.23422
1294.853, 13.93018
1295.335, 13.53885
1295.817, 11.96292
1296.299, 9.298126
1296.782, 3.730408
1297.264, 0.3488770
1297.746, 1.849487
1298.228, 5.337799
1298.710, 7.190033
1299.192, 6.872742
1299.674, 6.659973
1300.156, 6.560120
1300.639, 5.572906
1301.121, 5.993561
1301.603, 5.714996
1302.085, 2.374603
1302.567, 6.3780001E-03
1303.049, 0.1634220
1303.531, 0.0000000E+00
##END=



