##NAMES=Nitratine
##RRUFFID=R050658
##IDEAL CHEMISTRY=NaNO_3_
##LOCALITY=Peru
##OWNER=RRUFF
##SOURCE=University of Arizona Mineral Museum
##DESCRIPTION=Group of colorless crystals
##STATUS=The identification of this mineral has been confirmed by X-ray diffraction and chemical analysis
##URL=rruff.info/R050658
##MEASURED CHEMISTRY=Na_0.92_N_1.00_O_2.96_ ; N not measured but estimated by difference and stoichiometry
124.4858, 0.0000000E+00
124.9679, 7.611572
125.4500, 21.24957
125.9321, 28.66016
126.4143, 41.88770
126.8964, 20.82819
127.3785, 1.753357
127.8606, 13.51373
128.3427, 16.02148
128.8248, 1.059265
129.3070, 28.59796
129.7891, 42.70605
130.2712, 41.82300
130.7533, 37.76862
131.2354, 44.66235
131.7175, 62.14001
132.1996, 76.86749
132.6818, 80.75659
133.1639, 75.15356
133.6460, 79.33411
134.1281, 95.10901
134.6102, 117.5795
135.0923, 141.0587
135.5745, 167.5120
136.0566, 187.3943
136.5387, 191.9821
137.0208, 175.8573
137.5029, 173.8661
137.9850, 192.0076
138.4672, 224.8063
138.9493, 251.2695
139.4314, 268.8116
139.9135, 284.8066
140.3956, 304.7411
140.8777, 329.1155
141.3599, 355.6686
141.8420, 383.5410
142.3241, 413.1279
142.8062, 443.8997
143.2883, 464.2904
143.7704, 484.1587
144.2526, 517.1514
144.7347, 579.7673
145.2168, 632.4452
145.6989, 662.9146
146.1810, 659.7618
146.6631, 668.8717
147.1453, 691.8652
147.6274, 726.3853
148.1095, 767.2919
148.5916, 829.3313
149.0737, 885.5872
149.5558, 926.4423
150.0379, 931.7814
150.5201, 948.3755
151.0022, 979.7625
151.4843, 1024.064
151.9664, 1074.723
152.4485, 1141.385
152.9306, 1207.538
153.4128, 1263.097
153.8949, 1290.697
154.3770, 1324.443
154.8591, 1373.137
155.3412, 1436.514
155.8233, 1503.362
156.3055, 1562.676
156.7876, 1627.237
157.2697, 1709.044
157.7518, 1834.217
158.2339, 1958.263
158.7160, 2058.279
159.1982, 2123.703
159.6803, 2200.086
160.1624, 2309.117
160.6445, 2439.518
161.1266, 2572.152
161.6087, 2700.816
162.0909, 2828.397
162.5730, 2955.721
163.0551, 3076.848
163.5372, 3206.905
164.0193, 3354.317
164.5014, 3517.022
164.9836, 3688.559
165.4657, 3867.706
165.9478, 4053.283
166.4299, 4243.625
166.9120, 4432.462
167.3941, 4631.760
167.8763, 4862.154
168.3584, 5121.497
168.8405, 5372.823
169.3226, 5587.782
169.8047, 5782.004
170.2868, 5978.692
170.7690, 6184.766
171.2511, 6397.725
171.7332, 6621.805
172.2153, 6857.340
172.6974, 7098.923
173.1795, 7341.828
173.6617, 7585.520
174.1438, 7826.440
174.6259, 8053.670
175.1080, 8279.465
175.5901, 8524.970
176.0722, 8796.897
176.5544, 9078.089
177.0365, 9355.374
177.5186, 9630.383
178.0007, 9903.037
178.4828, 10183.34
178.9649, 10462.53
179.4471, 10728.70
179.9292, 10979.52
180.4113, 11213.54
180.8934, 11433.23
181.3755, 11636.90
181.8576, 11822.60
182.3397, 11993.22
182.8219, 12147.02
183.3040, 12254.60
183.7861, 12308.69
184.2682, 12313.22
184.7503, 12280.60
185.2324, 12211.06
185.7146, 12098.90
186.1967, 11930.28
186.6788, 11709.83
187.1609, 11460.83
187.6430, 11192.89
188.1251, 10906.61
188.6073, 10580.65
189.0894, 10211.16
189.5715, 9822.999
190.0536, 9437.800
190.5357, 9057.451
191.0178, 8687.472
191.5000, 8329.633
191.9821, 7987.415
192.4642, 7636.231
192.9463, 7271.834
193.4284, 6907.296
193.9105, 6576.703
194.3927, 6282.978
194.8748, 5997.514
195.3569, 5700.540
195.8390, 5387.382
196.3211, 5099.911
196.8032, 4841.182
197.2854, 4607.186
197.7675, 4388.599
198.2496, 4185.532
198.7317, 3996.129
199.2138, 3821.762
199.6959, 3660.952
200.1780, 3505.444
200.6602, 3352.192
201.1423, 3202.332
201.6244, 3060.943
202.1065, 2928.313
202.5886, 2802.555
203.0707, 2682.725
203.5529, 2570.710
204.0350, 2460.383
204.5171, 2350.296
204.9992, 2239.989
205.4813, 2139.964
205.9634, 2052.956
206.4456, 1971.189
206.9277, 1885.137
207.4098, 1792.127
207.8919, 1700.281
208.3740, 1610.065
208.8561, 1520.263
209.3383, 1447.222
209.8204, 1396.177
210.3025, 1354.930
210.7846, 1304.237
211.2667, 1239.680
211.7488, 1176.776
212.2310, 1121.921
212.7131, 1076.389
213.1952, 1030.286
213.6773, 983.8932
214.1594, 937.5604
214.6415, 892.0266
215.1236, 847.6927
215.6058, 803.6910
216.0879, 758.5562
216.5700, 711.5931
217.0521, 668.6106
217.5342, 628.7964
218.0163, 593.1852
218.4985, 565.1945
218.9806, 549.3164
219.4627, 535.0089
219.9448, 516.5502
220.4269, 494.0879
220.9090, 467.6359
221.3912, 435.1895
221.8733, 398.0942
222.3554, 366.3004
222.8375, 339.3760
223.3196, 318.1293
223.8017, 304.3112
224.2839, 304.3060
224.7660, 297.5847
225.2481, 278.7627
225.7302, 249.2593
226.2123, 226.9413
226.6944, 214.9287
227.1766, 206.7451
227.6587, 196.7696
228.1408, 182.6329
228.6229, 170.8384
229.1050, 164.4863
229.5871, 164.2036
230.0693, 157.0699
230.5514, 138.5889
231.0335, 117.4994
231.5156, 103.5229
231.9977, 100.5622
232.4798, 97.61188
232.9619, 91.29779
233.4441, 80.27484
233.9262, 74.66620
234.4083, 78.23328
234.8904, 84.77350
235.3725, 85.81506
235.8546, 78.64178
236.3368, 70.37268
236.8189, 63.28375
237.3010, 57.87952
237.7831, 49.97363
238.2652, 36.22034
238.7473, 22.19952
239.2295, 18.22314
239.7116, 32.23138
240.1937, 43.33972
240.6758, 43.69049
241.1579, 29.41479
241.6400, 16.01715
242.1222, 1.638672
242.6043, 11.09003
243.0864, 15.65930
243.5685, 6.348999
244.0506, 2.466980
244.5327, 4.390991
245.0149, 5.089661
245.4970, 10.73407
245.9791, 11.81293
246.4612, 9.272766
246.9433, 4.909668
247.4254, 4.387939
247.9075, 10.98865
248.3897, 10.31708
248.8718, 2.624329
249.3539, 10.73145
249.8360, 12.01270
250.3181, 8.243164
250.8002, 5.424561
251.2824, 3.582947
251.7645, 2.506104
252.2466, 1.990173
252.7287, 1.570190
253.2108, 3.171326
253.6929, 7.601318
254.1751, 14.06580
254.6572, 19.52716
255.1393, 23.96295
255.6214, 27.51477
256.1035, 30.65332
256.5856, 34.43713
257.0677, 34.91925
257.5499, 30.17059
258.0320, 21.53925
258.5141, 18.22406
258.9962, 24.32758
259.4783, 29.21667
259.9604, 23.47113
260.4426, 1.180359
260.9247, 14.61371
261.4068, 19.79114
261.8889, 15.46051
262.3710, 10.50079
262.8531, 5.227844
263.3353, 1.254211
263.8174, 11.58856
264.2995, 29.10388
264.7816, 38.15289
265.2637, 32.68964
265.7458, 15.35638
266.2280, 7.803894
266.7101, 13.62927
267.1922, 22.18726
267.6743, 22.99231
268.1564, 13.71887
268.6385, 6.822327
269.1207, 5.701782
269.6028, 9.489380
270.0849, 10.25012
270.5670, 6.600586
271.0491, 2.822510
271.5313, 4.162170
272.0134, 12.09137
272.4955, 17.24664
272.9776, 16.92853
273.4597, 11.82922
273.9418, 7.634949
274.4240, 4.792175
274.9061, 1.590759
275.3882, 4.919128
275.8703, 15.52924
276.3524, 22.87653
276.8345, 24.06366
277.3167, 20.04199
277.7988, 17.03833
278.2809, 14.90167
278.7630, 14.07880
279.2451, 15.95459
279.7272, 20.73846
280.2094, 23.95428
280.6915, 23.59460
281.1736, 20.39166
281.6557, 19.27454
282.1378, 20.55383
282.6199, 22.15802
283.1021, 21.21539
283.5842, 17.85187
284.0663, 15.65820
284.5484, 15.07874
285.0305, 16.49158
285.5126, 23.25653
285.9948, 36.31976
286.4769, 49.24152
286.9590, 54.19226
287.4411, 51.86237
287.9232, 48.86957
288.4053, 47.65845
288.8874, 47.47266
289.3695, 45.05188
289.8517, 39.99622
290.3338, 35.85852
290.8159, 38.17365
291.2980, 45.51453
291.7801, 50.63464
292.2622, 49.41870
292.7444, 44.49756
293.2265, 41.36005
293.7086, 40.02747
294.1907, 40.98334
294.6728, 47.67096
295.1549, 57.75690
295.6371, 63.36310
296.1192, 57.83698
296.6013, 47.11780
297.0834, 41.96051
297.5655, 42.39075
298.0476, 45.37854
298.5298, 48.87158
299.0119, 52.70178
299.4940, 56.45477
299.9761, 60.57910
300.4582, 64.21304
300.9403, 66.05978
301.4225, 66.33163
301.9046, 66.43341
302.3867, 67.29434
302.8688, 68.77252
303.3509, 70.67828
303.8330, 74.15039
304.3152, 77.43628
304.7973, 78.48340
305.2794, 77.33710
305.7615, 75.80087
306.2436, 74.37631
306.7257, 73.45792
307.2079, 73.58545
307.6900, 76.84506
308.1721, 80.33463
308.6542, 80.78253
309.1363, 78.38446
309.6184, 77.72409
310.1006, 85.22354
310.5827, 94.77307
311.0648, 99.30026
311.5469, 91.33759
312.0290, 81.51309
312.5111, 75.04269
312.9933, 71.90985
313.4754, 70.18585
313.9575, 70.05014
314.4396, 70.50546
314.9217, 70.76178
315.4038, 69.92493
315.8860, 69.90741
316.3681, 71.87653
316.8502, 75.16492
317.3323, 76.47473
317.8144, 72.43744
318.2965, 68.88855
318.7787, 68.86771
319.2608, 77.07321
319.7429, 84.61566
320.2250, 89.92227
320.7071, 92.91638
321.1892, 93.17657
321.6713, 87.11462
322.1534, 79.56717
322.6356, 74.37402
323.1177, 77.43845
323.5998, 79.22241
324.0819, 75.96054
324.5640, 67.85791
325.0461, 62.68121
325.5283, 62.99496
326.0104, 66.15222
326.4925, 70.45901
326.9746, 79.59488
327.4567, 83.89786
327.9388, 81.47214
328.4210, 73.85507
328.9031, 67.31369
329.3852, 59.81952
329.8673, 54.52515
330.3494, 53.94214
330.8315, 62.95721
331.3137, 68.35843
331.7958, 69.06714
332.2779, 65.66974
332.7600, 59.75949
333.2421, 49.38608
333.7242, 40.55670
334.2064, 35.30304
334.6885, 32.85822
335.1706, 37.34598
335.6527, 53.27966
336.1348, 73.43805
336.6169, 79.25409
337.0991, 67.12445
337.5812, 52.91193
338.0633, 43.23920
338.5454, 37.84799
339.0275, 38.75803
339.5096, 48.35489
339.9918, 60.96722
340.4739, 64.71286
340.9560, 58.69153
341.4381, 52.91257
341.9202, 53.31424
342.4023, 59.08795
342.8845, 62.74792
343.3666, 64.12408
343.8487, 64.20114
344.3308, 63.64990
344.8129, 62.41681
345.2950, 61.08301
345.7772, 59.78662
346.2593, 58.61713
346.7414, 57.59857
347.2235, 56.56537
347.7056, 56.08658
348.1877, 58.31952
348.6699, 62.30688
349.1520, 64.27890
349.6341, 61.74973
350.1162, 56.38809
350.5983, 49.81500
351.0804, 42.06348
351.5626, 35.06253
352.0447, 28.81772
352.5268, 24.78235
353.0089, 25.25278
353.4910, 37.32721
353.9731, 49.67490
354.4552, 50.28955
354.9373, 40.18594
355.4195, 32.11032
355.9016, 38.15018
356.3837, 48.79303
356.8658, 53.64813
357.3479, 41.39981
357.8300, 30.25009
358.3122, 31.75070
358.7943, 43.43713
359.2764, 51.54840
359.7585, 45.77289
360.2406, 36.98685
360.7227, 33.22214
361.2049, 42.78198
361.6870, 49.53903
362.1691, 46.70807
362.6512, 37.18457
363.1333, 31.50766
363.6154, 35.79599
364.0976, 41.43640
364.5797, 43.95999
365.0618, 37.92395
365.5439, 36.45880
366.0260, 46.67679
366.5081, 61.98508
366.9903, 66.30334
367.4724, 47.27792
367.9545, 29.90625
368.4366, 23.11414
368.9187, 31.80609
369.4008, 38.37906
369.8830, 43.77792
370.3651, 46.39017
370.8472, 42.50958
371.3293, 27.63049
371.8114, 15.01825
372.2935, 8.510986
372.7757, 8.359741
373.2578, 12.88531
373.7399, 24.18115
374.2220, 36.91254
374.7041, 44.32382
375.1862, 46.02277
375.6684, 44.54462
376.1505, 38.84732
376.6326, 30.20822
377.1147, 27.81967
377.5968, 32.76465
378.0789, 38.97464
378.5611, 40.44409
379.0432, 37.53955
379.5253, 34.34164
380.0074, 31.69086
380.4895, 29.52814
380.9716, 27.67032
381.4538, 26.09903
381.9359, 25.05484
382.4180, 24.58185
382.9001, 24.75681
383.3822, 25.83643
383.8643, 27.99075
384.3465, 30.88455
384.8286, 34.60760
385.3107, 38.81784
385.7928, 42.67245
386.2749, 46.55295
386.7570, 48.66608
387.2391, 46.97293
387.7213, 40.01260
388.2034, 33.03427
388.6855, 31.09927
389.1676, 31.74326
389.6497, 30.06549
390.1318, 17.72791
390.6140, 7.066223
391.0961, 6.865326
391.5782, 19.80115
392.0603, 31.60568
392.5424, 38.06061
393.0245, 40.34457
393.5067, 39.83154
393.9888, 34.12921
394.4709, 28.07507
394.9530, 22.18335
395.4351, 16.24136
395.9172, 13.47873
396.3994, 16.98270
396.8815, 22.34177
397.3636, 26.13980
397.8457, 29.03549
398.3278, 29.68048
398.8099, 26.62982
399.2921, 20.33609
399.7742, 15.01587
400.2563, 9.183197
400.7384, 6.403839
401.2205, 10.42233
401.7026, 24.75226
402.1848, 31.87131
402.6669, 28.89151
403.1490, 19.56339
403.6311, 12.16556
404.1132, 5.665436
404.5953, 3.210419
405.0775, 9.013275
405.5596, 22.88339
406.0417, 29.35226
406.5238, 26.43372
407.0059, 20.32251
407.4880, 20.39182
407.9702, 26.06140
408.4523, 30.72202
408.9344, 30.86868
409.4165, 28.00427
409.8986, 25.96655
410.3807, 24.80618
410.8629, 23.90933
411.3450, 22.23474
411.8271, 20.20575
412.3092, 19.17249
412.7913, 20.47437
413.2734, 22.05441
413.7556, 21.48468
414.2377, 19.16101
414.7198, 17.57538
415.2019, 18.76010
415.6840, 21.08691
416.1661, 22.98495
416.6483, 23.17685
417.1304, 24.48380
417.6125, 30.05527
418.0946, 37.85330
418.5767, 42.67865
419.0588, 41.60461
419.5410, 38.17917
420.0230, 33.50375
420.5052, 26.49948
420.9873, 21.42352
421.4694, 19.72079
421.9515, 20.15259
422.4336, 21.01523
422.9157, 23.81717
423.3979, 25.09818
423.8800, 23.73694
424.3621, 19.36456
424.8442, 15.64386
425.3263, 11.31967
425.8084, 8.993958
426.2906, 12.43427
426.7727, 25.62875
427.2548, 32.95538
427.7369, 30.51352
428.2190, 20.67923
428.7011, 13.59967
429.1833, 9.012054
429.6654, 6.788055
430.1475, 7.130524
430.6296, 10.12274
431.1117, 15.46674
431.5938, 24.56442
432.0760, 33.08386
432.5581, 32.17389
433.0402, 22.90732
433.5223, 14.44961
434.0044, 12.22360
434.4865, 13.73373
434.9687, 13.78409
435.4508, 11.95337
435.9329, 11.75653
436.4150, 19.98935
436.8971, 31.64642
437.3792, 37.71970
437.8614, 30.20346
438.3435, 19.57315
438.8256, 12.40909
439.3077, 8.569916
439.7898, 6.836823
440.2719, 8.967377
440.7541, 11.66498
441.2362, 12.23654
441.7183, 9.012909
442.2004, 5.212128
442.6825, 6.4423002E-02
443.1646, 5.447723
443.6468, 7.214172
444.1289, 2.440460
444.6110, 4.020844
445.0931, 11.41547
445.5752, 22.18805
446.0573, 26.16666
446.5395, 19.24985
447.0216, 8.038330
447.5037, 0.4700930
447.9858, 3.159363
448.4679, 3.745728
448.9500, 0.1255800
449.4322, 7.225311
449.9143, 10.37952
450.3964, 7.892181
450.8785, 5.288971
451.3606, 8.300476
451.8427, 16.96976
452.3249, 23.35318
452.8070, 26.67459
453.2891, 26.58383
453.7712, 20.62885
454.2533, 9.337524
454.7354, 0.8084410
455.2175, 6.791473
455.6996, 8.891479
456.1818, 6.128815
456.6639, 2.550964
457.1460, 9.871185
457.6281, 6.279633
458.1102, 3.172607
458.5923, 9.320251
459.0745, 4.043060
459.5566, 2.791443
460.0387, 2.975006
460.5208, 3.025513
461.0029, 6.758698
461.4850, 1.888275
461.9672, 5.293884
462.4493, 9.887421
462.9314, 8.392090
463.4135, 7.606140
463.8956, 8.805725
464.3777, 11.57990
464.8599, 14.75494
465.3420, 20.54471
465.8241, 24.43057
466.3062, 24.68002
466.7883, 20.51254
467.2704, 15.03217
467.7526, 5.803589
468.2347, 2.554291
468.7168, 2.928375
469.1989, 7.683044
469.6810, 15.29648
470.1631, 15.73608
470.6453, 10.55908
471.1274, 7.174316
471.6095, 5.641754
472.0916, 5.560242
472.5737, 7.616211
473.0558, 11.22488
473.5380, 13.20114
474.0201, 12.90619
474.5022, 11.27151
474.9843, 8.986694
475.4664, 6.294037
475.9485, 4.130737
476.4307, 2.040527
476.9128, 1.236298
477.3949, 4.630707
477.8770, 12.70538
478.3591, 18.13544
478.8412, 13.08893
479.3234, 4.007507
479.8055, 1.717743
480.2876, 2.005005
480.7697, 5.725586
481.2518, 5.374817
481.7339, 1.881195
482.2161, 7.1075000E-02
482.6982, 1.840973
483.1803, 4.761566
483.6624, 8.043579
484.1445, 14.01971
484.6266, 15.52243
485.1088, 9.433105
485.5909, 0.5002440
486.0730, 3.788391
486.5551, 1.470978
487.0372, 0.8060910
487.5193, 0.6380310
488.0014, 1.604126
488.4836, 0.2325130
488.9657, 7.219757
489.4478, 14.04721
489.9299, 14.70487
490.4120, 10.07816
490.8941, 9.460480
491.3763, 15.97144
491.8584, 24.22943
492.3405, 24.44537
492.8226, 18.24182
493.3047, 13.36081
493.7868, 16.34302
494.2690, 22.12076
494.7511, 24.72281
495.2332, 23.68768
495.7153, 20.46478
496.1974, 12.39444
496.6795, 4.007935
497.1617, 0.5302730
497.6438, 10.31424
498.1259, 18.67230
498.6080, 18.85968
499.0901, 12.45721
499.5722, 8.496155
500.0544, 10.85190
500.5365, 14.23810
501.0186, 16.17834
501.5007, 15.40936
501.9828, 15.45804
502.4649, 17.09238
502.9471, 19.20856
503.4292, 20.29462
503.9113, 20.34488
504.3934, 19.11682
504.8755, 15.24234
505.3576, 9.761597
505.8398, 11.77454
506.3219, 22.91083
506.8040, 33.02310
507.2861, 30.66995
507.7682, 18.89511
508.2503, 14.43475
508.7325, 21.84738
509.2146, 31.47131
509.6967, 28.78000
510.1788, 17.27939
510.6609, 8.093628
511.1430, 7.915527
511.6252, 11.98355
512.1072, 16.61182
512.5894, 21.54050
513.0715, 25.75229
513.5536, 30.71689
514.0357, 34.35434
514.5178, 34.58179
514.9999, 26.94617
515.4821, 19.93768
515.9642, 14.43246
516.4463, 10.41714
516.9284, 9.184540
517.4105, 12.66836
517.8926, 16.23141
518.3748, 18.57349
518.8569, 19.68372
519.3390, 19.08340
519.8211, 15.10605
520.3032, 11.38956
520.7853, 13.12775
521.2675, 21.42062
521.7496, 25.39636
522.2317, 21.48569
522.7138, 13.40335
523.1959, 10.87860
523.6780, 13.61292
524.1602, 16.41745
524.6423, 14.85382
525.1244, 11.37625
525.6065, 11.10263
526.0886, 14.70959
526.5707, 18.59018
527.0529, 19.71365
527.5350, 18.78351
528.0171, 17.80627
528.4992, 15.63782
528.9813, 15.25549
529.4634, 19.79367
529.9456, 27.95276
530.4277, 33.57925
530.9098, 34.94943
531.3919, 33.37646
531.8740, 28.84048
532.3561, 18.71729
532.8383, 11.98550
533.3204, 10.42273
533.8025, 10.99515
534.2846, 9.125610
534.7667, 2.224213
535.2488, 0.5724490
535.7310, 9.075653
536.2131, 24.09656
536.6952, 28.45197
537.1773, 20.99390
537.6594, 12.66592
538.1415, 12.35110
538.6237, 17.70651
539.1058, 19.48795
539.5879, 16.29984
540.0700, 12.21774
540.5521, 11.43842
541.0342, 12.98083
541.5164, 14.74411
541.9985, 15.44904
542.4806, 16.40955
542.9627, 19.85342
543.4448, 25.03183
543.9269, 27.14178
544.4091, 20.18011
544.8912, 12.95886
545.3733, 11.22272
545.8554, 19.91168
546.3375, 24.98721
546.8196, 21.95813
547.3018, 16.10056
547.7839, 14.27042
548.2660, 19.05481
548.7481, 22.70728
549.2302, 23.70447
549.7123, 22.26306
550.1945, 19.38162
550.6766, 14.80371
551.1587, 9.939148
551.6408, 4.523956
552.1229, 0.7862240
552.6050, 1.199829
553.0872, 4.510040
553.5693, 11.10333
554.0514, 11.68329
554.5335, 8.312012
555.0156, 6.173309
555.4977, 8.979645
555.9799, 12.34341
556.4620, 13.19193
556.9441, 11.65305
557.4262, 8.302551
557.9083, 0.9725340
558.3904, 8.762238
558.8726, 10.09769
559.3547, 1.966339
559.8368, 6.219971
560.3189, 17.10110
560.8010, 25.75165
561.2831, 25.72400
561.7653, 8.991058
562.2474, 1.140350
562.7295, 1.233765
563.2116, 13.04810
563.6937, 20.56567
564.1758, 23.27319
564.6580, 24.42514
565.1401, 26.89944
565.6222, 29.85989
566.1043, 26.66815
566.5864, 16.11722
567.0685, 5.990753
567.5507, 6.700470
568.0327, 14.01657
568.5148, 18.83411
568.9969, 15.88742
569.4791, 12.25388
569.9612, 14.73889
570.4433, 21.34863
570.9254, 25.83240
571.4075, 24.62750
571.8896, 21.36591
572.3718, 16.95871
572.8539, 10.62878
573.3360, 7.546082
573.8181, 11.54999
574.3002, 16.73740
574.7823, 18.01123
575.2645, 12.96768
575.7466, 9.958191
576.2287, 9.626495
576.7108, 11.42413
577.1929, 14.40369
577.6750, 18.88516
578.1572, 21.37189
578.6393, 18.82516
579.1214, 13.01117
579.6035, 10.23761
580.0856, 10.48883
580.5677, 12.50583
581.0499, 17.74609
581.5320, 23.35092
582.0141, 24.64038
582.4962, 19.38525
582.9783, 12.52539
583.4604, 4.393494
583.9426, 2.933685
584.4247, 5.845612
584.9068, 1.462921
585.3889, 9.222443
585.8710, 12.94208
586.3531, 13.19379
586.8353, 15.93423
587.3174, 23.83878
587.7995, 31.05859
588.2816, 33.99438
588.7637, 32.32166
589.2458, 28.02097
589.7280, 20.02240
590.2101, 11.57568
590.6922, 6.739014
591.1743, 6.109131
591.6564, 8.891388
592.1385, 17.54971
592.6207, 26.64935
593.1028, 23.91205
593.5849, 11.81107
594.0670, 2.155212
594.5491, 5.549744
595.0313, 12.36530
595.5134, 13.79309
595.9955, 8.223938
596.4776, 3.582062
596.9597, 2.038391
597.4418, 3.222992
597.9240, 6.795654
598.4061, 18.43182
598.8882, 25.00363
599.3703, 23.04633
599.8524, 16.36078
600.3345, 13.91583
600.8167, 16.72821
601.2988, 21.09863
601.7809, 26.91626
602.2630, 33.46762
602.7451, 35.18640
603.2272, 31.83136
603.7094, 26.80252
604.1915, 22.17145
604.6736, 18.04944
605.1557, 14.28900
605.6378, 10.62958
606.1199, 8.509338
606.6021, 10.53882
607.0842, 14.74265
607.5663, 17.96295
608.0484, 18.51364
608.5305, 18.44659
609.0126, 18.22141
609.4948, 17.94547
609.9769, 18.13483
610.4590, 19.56171
610.9411, 20.84409
611.4232, 21.87524
611.9053, 23.24368
612.3875, 20.68323
612.8696, 12.19525
613.3517, 3.446503
613.8338, 1.219757
614.3159, 5.329956
614.7980, 7.395050
615.2802, 5.232758
615.7623, 2.173096
616.2444, 4.103546
616.7265, 9.748871
617.2086, 14.46954
617.6907, 13.93109
618.1729, 12.21768
618.6550, 13.54773
619.1371, 17.49725
619.6192, 19.59238
620.1013, 15.57181
620.5834, 10.87903
621.0656, 8.871399
621.5477, 10.86554
622.0298, 13.30609
622.5119, 16.24973
622.9940, 19.46283
623.4761, 22.98453
623.9583, 27.44360
624.4404, 30.20850
624.9225, 30.39572
625.4046, 28.59833
625.8867, 27.02322
626.3688, 25.85236
626.8510, 23.98291
627.3331, 20.11462
627.8152, 15.38824
628.2973, 11.87045
628.7794, 9.540619
629.2615, 7.448242
629.7437, 3.143829
630.2258, 0.2523500
630.7079, 1.188385
631.1900, 11.94934
631.6721, 18.51755
632.1542, 12.40405
632.6364, 1.638672
633.1185, 2.567383
633.6006, 5.550781
634.0826, 11.32239
634.5648, 11.53503
635.0469, 8.140564
635.5290, 8.180359
636.0111, 12.04962
636.4932, 17.16217
636.9753, 24.23288
637.4575, 31.74951
637.9396, 32.62460
638.4217, 26.77322
638.9038, 18.97690
639.3859, 10.68954
639.8680, 3.726288
640.3502, 1.622253
640.8323, 7.433380
641.3144, 11.54175
641.7965, 5.106476
642.2786, 5.022980
642.7607, 8.826813
643.2429, 4.811493
643.7250, 13.82819
644.2071, 11.57825
644.6892, 1.422302
645.1713, 1.739319
645.6534, 4.568207
646.1356, 11.87848
646.6177, 17.96130
647.0998, 22.46600
647.5819, 18.15384
648.0640, 3.939911
648.5461, 8.737885
649.0283, 7.040039
649.5104, 3.255310
649.9925, 10.46017
650.4746, 11.93164
650.9567, 12.17838
651.4388, 15.27258
651.9210, 19.07272
652.4031, 20.44775
652.8852, 15.68069
653.3673, 11.39862
653.8494, 9.217224
654.3315, 8.961609
654.8137, 9.784485
655.2958, 12.35025
655.7779, 14.94299
656.2600, 17.03989
656.7421, 18.64612
657.2242, 19.65018
657.7064, 19.98767
658.1885, 20.16147
658.6706, 21.31085
659.1527, 22.66049
659.6348, 21.48209
660.1169, 17.04605
660.5991, 11.96265
661.0812, 7.481964
661.5633, 4.105896
662.0454, 2.559631
662.5275, 4.744965
663.0096, 7.005310
663.4918, 7.603027
663.9739, 7.297180
664.4560, 8.630066
664.9381, 14.79639
665.4202, 18.13696
665.9023, 14.99582
666.3845, 6.165924
666.8666, 4.169098
667.3487, 10.73309
667.8308, 16.75137
668.3129, 14.15610
668.7950, 5.415741
669.2772, 0.3965150
669.7593, 1.4618000E-02
670.2414, 1.251648
670.7235, 2.074829
671.2056, 2.629883
671.6877, 3.231781
672.1699, 4.512939
672.6520, 4.920929
673.1341, 2.459595
673.6162, 1.140350
674.0983, 2.511871
674.5804, 1.058868
675.0626, 2.646820
675.5447, 10.41843
676.0268, 20.71228
676.5089, 23.87595
676.9910, 18.65671
677.4731, 12.01562
677.9553, 6.190979
678.4374, 1.799744
678.9195, 3.922241
679.4016, 12.81876
679.8837, 20.24725
680.3658, 17.86517
680.8480, 10.50330
681.3301, 3.725250
681.8122, 2.012665
682.2943, 5.017731
682.7764, 3.001770
683.2585, 1.652435
683.7407, 6.095428
684.2228, 10.56171
684.7049, 13.87732
685.1870, 16.28073
685.6691, 17.29028
686.1512, 14.51453
686.6334, 6.556152
687.1155, 1.617065
687.5976, 4.133820
688.0797, 11.33102
688.5618, 15.26453
689.0439, 15.99240
689.5261, 14.81628
690.0082, 10.22189
690.4903, 5.491364
690.9724, 4.691193
691.4545, 9.081879
691.9366, 13.54062
692.4188, 16.78964
692.9009, 18.19174
693.3830, 17.28229
693.8651, 10.78439
694.3472, 7.641296
694.8293, 8.876953
695.3115, 11.97162
695.7936, 12.59930
696.2757, 10.16138
696.7578, 10.24969
697.2399, 15.18372
697.7220, 21.77722
698.2042, 23.29382
698.6863, 20.66782
699.1684, 18.17444
699.6505, 17.49423
700.1326, 17.96371
700.6147, 20.47964
701.0968, 25.41913
701.5789, 28.93698
702.0610, 28.69821
702.5432, 27.71353
703.0253, 26.68292
703.5074, 25.38989
703.9895, 28.17889
704.4716, 37.90750
704.9537, 47.38077
705.4359, 48.11426
705.9180, 39.68933
706.4001, 41.97595
706.8822, 59.02847
707.3643, 83.00156
707.8464, 102.7975
708.3286, 121.5774
708.8107, 147.0181
709.2928, 183.0172
709.7749, 223.6010
710.2570, 273.9901
710.7391, 325.4526
711.2213, 359.4728
711.7034, 352.2445
712.1855, 348.3810
712.6676, 359.1311
713.1497, 382.6047
713.6318, 409.6463
714.1140, 442.2663
714.5961, 473.1096
715.0782, 495.6376
715.5603, 512.4969
716.0424, 541.1228
716.5245, 581.3987
717.0067, 625.9052
717.4888, 662.0100
717.9709, 701.1940
718.4530, 758.1935
718.9351, 835.8803
719.4172, 927.1827
719.8994, 1025.393
720.3815, 1137.523
720.8636, 1268.343
721.3457, 1389.340
721.8278, 1583.714
722.3099, 1915.857
722.7921, 2271.347
723.2742, 2490.802
723.7563, 2577.547
724.2384, 2478.548
724.7205, 2130.167
725.2026, 1656.272
725.6848, 1249.229
726.1669, 905.2784
726.6490, 632.2300
727.1311, 450.1670
727.6132, 321.6970
728.0953, 229.1779
728.5775, 168.7522
729.0596, 125.2223
729.5417, 105.0638
730.0238, 91.06839
730.5059, 75.35236
730.9880, 57.08542
731.4702, 45.64761
731.9523, 42.28046
732.4344, 42.98499
732.9165, 47.86157
733.3986, 55.22687
733.8807, 51.86481
734.3629, 35.23877
734.8450, 18.54688
735.3271, 17.78107
735.8092, 25.27759
736.2913, 30.11877
736.7734, 29.25403
737.2556, 26.08978
737.7377, 19.01178
738.2198, 12.09894
738.7019, 9.785950
739.1840, 15.47827
739.6661, 21.20294
740.1483, 27.70807
740.6304, 32.87317
741.1125, 27.91431
741.5946, 12.09985
742.0767, 2.335022
742.5588, 8.448181
743.0410, 21.79169
743.5231, 28.44623
744.0052, 29.09839
744.4873, 27.12360
744.9694, 21.94562
745.4515, 16.70697
745.9337, 13.46271
746.4158, 12.32001
746.8979, 11.18579
747.3800, 10.49725
747.8621, 8.962708
748.3442, 5.341919
748.8264, 0.9812620
749.3085, 3.353821
749.7906, 0.8458860
750.2727, 1.863831
750.7548, 1.272034
751.2369, 7.814148
751.7191, 8.384003
752.2012, 0.4458620
752.6833, 7.562439
753.1654, 7.646545
753.6475, 4.321594
754.1296, 2.748657
754.6118, 4.712830
755.0939, 7.826660
755.5760, 12.86932
756.0581, 18.33636
756.5402, 22.33008
757.0223, 25.24689
757.5045, 25.43311
757.9866, 22.26453
758.4687, 16.97186
758.9508, 10.47302
759.4329, 3.576172
759.9150, 0.7068480
760.3972, 6.819092
760.8793, 15.46857
761.3614, 21.93103
761.8435, 26.07727
762.3256, 27.60852
762.8077, 24.14606
763.2899, 20.24219
763.7720, 17.07849
764.2541, 14.75653
764.7362, 15.89160
765.2183, 22.72687
765.7004, 27.44244
766.1825, 24.01886
766.6646, 13.93054
767.1467, 8.691406
767.6288, 8.336670
768.1110, 10.61310
768.5931, 15.05499
769.0752, 20.40009
769.5573, 25.60785
770.0394, 30.83685
770.5215, 33.97650
771.0037, 32.73364
771.4858, 29.99829
771.9679, 28.25824
772.4500, 29.28442
772.9321, 27.14221
773.4142, 20.19885
773.8964, 12.78534
774.3785, 11.44720
774.8606, 15.34711
775.3427, 15.48254
775.8248, 8.698975
776.3069, 1.952454
776.7891, 4.011475
777.2712, 11.15643
777.7533, 17.03534
778.2354, 20.18427
778.7175, 20.83545
779.1996, 15.36365
779.6818, 7.970764
780.1639, 8.523376
780.6460, 22.84650
781.1281, 32.54742
781.6102, 32.74445
782.0923, 26.50446
782.5745, 21.45288
783.0566, 17.65582
783.5387, 16.39954
784.0208, 20.80109
784.5029, 26.37689
784.9850, 26.80017
785.4672, 23.36926
785.9493, 21.74158
786.4314, 26.19366
786.9135, 31.28888
787.3956, 35.69580
787.8777, 39.18695
788.3599, 37.62933
788.8420, 29.05548
789.3241, 19.77869
789.8062, 13.19855
790.2883, 8.950806
790.7704, 3.219910
791.2526, 4.106934
791.7347, 6.965820
792.2168, 2.961426
792.6989, 17.85138
793.1810, 30.72998
793.6631, 41.60803
794.1453, 43.13837
794.6274, 21.15063
795.1095, 2.782715
795.5916, 12.81720
796.0737, 4.057068
796.5558, 2.838135
797.0380, 8.085266
797.5201, 10.87445
798.0022, 8.369812
798.4843, 2.065063
798.9664, 0.4149170
799.4485, 5.145264
799.9307, 11.63623
800.4128, 18.37537
800.8949, 23.44495
801.3770, 23.98419
801.8591, 14.27209
802.3412, 8.442810
802.8234, 13.67786
803.3055, 22.22217
803.7876, 25.10577
804.2697, 20.40887
804.7518, 17.05756
805.2339, 16.65112
805.7161, 17.34985
806.1982, 16.60632
806.6803, 14.28723
807.1624, 9.985840
807.6445, 1.204529
808.1266, 5.342346
808.6088, 3.087402
809.0909, 4.659790
809.5730, 11.49677
810.0551, 16.95569
810.5372, 20.52936
811.0193, 21.61517
811.5015, 20.83728
811.9836, 20.13361
812.4657, 19.90137
812.9478, 17.56592
813.4299, 9.367920
813.9120, 0.1553960
814.3942, 2.105896
814.8763, 2.038452
815.3584, 7.278992
815.8405, 13.73096
816.3226, 18.05548
816.8047, 16.24298
817.2869, 9.630005
817.7690, 8.043640
818.2511, 17.10376
818.7332, 23.29620
819.2153, 20.48260
819.6974, 11.14838
820.1796, 11.31995
820.6617, 21.19421
821.1438, 28.57715
821.6259, 22.52802
822.1080, 11.75073
822.5901, 8.805725
823.0723, 12.98950
823.5544, 15.78851
824.0365, 11.01978
824.5186, 5.890076
825.0007, 4.067444
825.4828, 5.649719
825.9650, 9.093018
826.4471, 15.78870
826.9292, 20.82581
827.4113, 19.36481
827.8934, 13.23267
828.3755, 13.57880
828.8577, 20.30017
829.3398, 25.75104
829.8219, 21.89044
830.3040, 15.41730
830.7861, 13.07245
831.2682, 16.20972
831.7503, 17.28070
832.2324, 11.85254
832.7145, 6.312073
833.1967, 3.575195
833.6788, 3.643921
834.1609, 7.153442
834.6430, 14.68396
835.1251, 22.78583
835.6072, 29.87231
836.0894, 35.00549
836.5715, 35.32495
837.0536, 30.25140
837.5357, 24.25745
838.0178, 18.14343
838.4999, 13.42163
838.9821, 11.71417
839.4642, 15.30725
839.9463, 15.77191
840.4284, 11.03394
840.9105, 6.413818
841.3926, 6.936279
841.8748, 12.18695
842.3569, 18.45416
842.8390, 26.00073
843.3211, 29.87909
843.8032, 20.33655
844.2853, 6.695740
844.7675, 1.334351
845.2496, 8.980957
845.7317, 16.79340
846.2138, 21.63763
846.6959, 24.96179
847.1780, 28.30530
847.6602, 32.62640
848.1423, 31.85065
848.6244, 24.09033
849.1065, 16.22864
849.5886, 18.66016
850.0707, 27.78485
850.5529, 31.96814
851.0350, 28.47247
851.5171, 23.43604
851.9992, 18.51056
852.4813, 15.26337
852.9634, 15.15839
853.4456, 21.86188
853.9277, 25.45422
854.4098, 23.98755
854.8919, 21.13361
855.3740, 21.68927
855.8561, 25.31097
856.3383, 27.48859
856.8204, 27.56897
857.3025, 26.31604
857.7846, 22.72552
858.2667, 18.94049
858.7488, 18.26868
859.2310, 24.65759
859.7131, 27.60303
860.1952, 19.60413
860.6773, 10.37488
861.1594, 9.941467
861.6415, 21.25842
862.1237, 25.32361
862.6058, 18.82538
863.0879, 10.69092
863.5700, 14.27399
864.0521, 24.14618
864.5342, 28.33728
865.0164, 22.98364
865.4985, 15.31384
865.9806, 3.537842
866.4627, 5.776550
866.9448, 4.874084
867.4269, 15.37970
867.9091, 27.17328
868.3912, 29.10260
868.8733, 24.36255
869.3554, 12.71942
869.8375, 3.458740
870.3196, 9.796753
870.8018, 2.468018
871.2839, 7.327087
871.7660, 10.51440
872.2481, 10.50354
872.7302, 11.49786
873.2123, 14.66693
873.6945, 18.18799
874.1766, 24.37018
874.6587, 28.41492
875.1408, 22.66187
875.6229, 6.302551
876.1050, 1.442444
876.5872, 11.97809
877.0693, 24.94916
877.5514, 26.35773
878.0335, 20.96075
878.5156, 16.01147
878.9977, 12.98065
879.4799, 9.637024
879.9620, 4.439453
880.4441, 0.3023070
880.9262, 0.1655270
881.4083, 5.895996
881.8904, 8.436462
882.3726, 6.688477
882.8547, 4.464600
883.3368, 6.390198
883.8189, 10.96826
884.3010, 14.90906
884.7831, 17.74115
885.2653, 19.31750
885.7474, 18.43744
886.2295, 16.89642
886.7116, 16.20697
887.1937, 16.30664
887.6758, 18.03888
888.1580, 22.53229
888.6401, 26.38940
889.1222, 25.65094
889.6043, 21.36969
890.0864, 18.14301
890.5685, 16.29492
891.0507, 17.83228
891.5328, 28.66815
892.0149, 38.95001
892.4970, 39.69397
892.9791, 26.03857
893.4612, 17.33917
893.9434, 16.90662
894.4255, 18.96436
894.9076, 20.39008
895.3897, 21.17126
895.8718, 19.71234
896.3539, 15.82709
896.8361, 13.04163
897.3181, 15.43372
897.8002, 19.80438
898.2823, 23.40405
898.7645, 25.62561
899.2466, 26.07843
899.7287, 23.62390
900.2108, 21.04254
900.6929, 18.75409
901.1750, 16.44293
901.6572, 17.53400
902.1393, 22.36438
902.6214, 27.70752
903.1035, 31.91577
903.5856, 34.67999
904.0677, 35.72681
904.5499, 34.98987
905.0320, 32.27576
905.5141, 23.94366
905.9962, 17.09637
906.4783, 15.27527
906.9604, 18.12305
907.4426, 20.61530
907.9247, 22.90527
908.4068, 23.89575
908.8889, 21.59668
909.3710, 18.30701
909.8531, 20.26544
910.3353, 25.93573
910.8174, 28.39856
911.2995, 19.90771
911.7816, 11.82800
912.2637, 9.316833
912.7458, 11.66266
913.2280, 15.43256
913.7101, 22.25385
914.1922, 24.51959
914.6743, 17.29022
915.1564, 6.330933
915.6385, 4.573181
916.1207, 10.36444
916.6028, 17.99304
917.0849, 29.76996
917.5670, 37.54834
918.0491, 34.31989
918.5313, 24.37390
919.0134, 18.77417
919.4955, 19.85034
919.9776, 21.13696
920.4597, 22.01617
920.9418, 21.65198
921.4240, 16.76471
921.9061, 9.495483
922.3882, 5.518311
922.8703, 7.982178
923.3524, 11.99463
923.8345, 15.13550
924.3167, 17.25836
924.7988, 18.78467
925.2809, 20.31982
925.7630, 20.45709
926.2451, 19.14081
926.7272, 16.37311
927.2094, 9.708252
927.6915, 1.035706
928.1736, 6.3904002E-02
928.6557, 10.78381
929.1378, 20.75134
929.6199, 17.33594
930.1021, 9.929016
930.5842, 8.094238
931.0663, 16.99402
931.5484, 23.30499
932.0305, 26.15344
932.5126, 27.31915
932.9948, 27.98199
933.4769, 28.11371
933.9590, 28.27600
934.4411, 28.57159
934.9232, 25.74060
935.4053, 11.48981
935.8875, 2.701477
936.3696, 5.943237
936.8517, 5.065613
937.3338, 12.02216
937.8159, 12.61548
938.2980, 11.63318
938.7802, 11.20679
939.2623, 11.67383
939.7444, 12.03058
940.2265, 12.32159
940.7086, 12.94928
941.1907, 13.74689
941.6729, 15.33405
942.1550, 19.72870
942.6371, 26.16577
943.1192, 27.61932
943.6013, 21.12494
944.0834, 14.75598
944.5656, 10.58893
945.0477, 8.390503
945.5298, 7.787170
946.0119, 8.644836
946.4940, 10.21234
946.9761, 14.80255
947.4583, 17.04388
947.9404, 7.597290
948.4225, 6.272461
948.9046, 7.331116
949.3867, 17.21411
949.8688, 32.94086
950.3510, 33.93152
950.8331, 26.56128
951.3152, 19.48590
951.7973, 12.98627
952.2794, 8.017517
952.7615, 4.288940
953.2437, 3.744995
953.7258, 13.53491
954.2079, 24.44330
954.6900, 25.37927
955.1721, 7.125122
955.6542, 3.440735
956.1364, 4.060425
956.6185, 1.691345
957.1006, 3.622681
957.5827, 8.197021
958.0648, 9.264526
958.5469, 6.271790
959.0291, 1.223938
959.5112, 7.723511
959.9933, 15.85583
960.4754, 19.46857
960.9575, 18.09717
961.4396, 14.19464
961.9218, 6.592163
962.4039, 6.5796003E-02
962.8860, 3.778503
963.3680, 4.405334
963.8502, 0.3119510
964.3323, 7.712036
964.8144, 15.41571
965.2965, 23.05542
965.7786, 27.07361
966.2607, 23.34302
966.7429, 14.09747
967.2250, 8.526794
967.7071, 7.705017
968.1892, 6.618774
968.6713, 3.154785
969.1534, 0.2147830
969.6356, 2.560791
970.1177, 8.957214
970.5998, 12.74127
971.0819, 8.848450
971.5640, 5.858093
972.0461, 8.625305
972.5283, 13.15485
973.0104, 14.15845
973.4925, 10.90228
973.9746, 7.571411
974.4567, 4.399414
974.9388, 1.817505
975.4210, 1.031738
975.9031, 2.426392
976.3852, 2.040710
976.8673, 14.83044
977.3494, 22.98694
977.8315, 19.28772
978.3137, 11.85736
978.7958, 3.457520
979.2779, 6.183167
979.7600, 4.614624
980.2421, 9.005066
980.7242, 21.63733
981.2064, 23.63025
981.6885, 20.26447
982.1706, 16.14758
982.6527, 11.83234
983.1348, 9.288208
983.6169, 9.789734
984.0991, 11.44684
984.5812, 14.17267
985.0633, 17.50079
985.5454, 20.73297
986.0275, 23.63763
986.5096, 23.50134
986.9918, 17.80627
987.4739, 10.64941
987.9560, 3.658203
988.4381, 1.669495
988.9202, 2.735535
989.4023, 3.916077
989.8845, 10.63654
990.3666, 18.58356
990.8487, 24.13129
991.3308, 20.51373
991.8129, 10.19196
992.2950, 4.545593
992.7772, 5.456299
993.2593, 6.401001
993.7414, 1.791931
994.2235, 4.220398
994.7056, 8.434937
995.1877, 11.64014
995.6699, 9.075378
996.1520, 0.8903810
996.6341, 10.91003
997.1162, 17.12579
997.5983, 19.81042
998.0804, 17.52673
998.5626, 11.49438
999.0447, 7.809937
999.5268, 12.46246
1000.009, 16.68958
1000.491, 15.88452
1000.973, 12.32324
1001.455, 12.28308
1001.937, 16.21802
1002.419, 18.73987
1002.902, 17.10583
1003.384, 16.38391
1003.866, 27.74786
1004.348, 43.05664
1004.830, 48.92163
1005.312, 33.61670
1005.794, 23.26447
1006.276, 23.47333
1006.759, 26.28186
1007.241, 23.63751
1007.723, 15.57935
1008.205, 14.00830
1008.687, 19.73950
1009.169, 26.55188
1009.651, 30.35492
1010.133, 32.45569
1010.615, 33.72876
1011.098, 34.23560
1011.580, 33.82452
1012.062, 31.70679
1012.544, 30.62042
1013.026, 32.69476
1013.508, 35.50757
1013.990, 32.51111
1014.472, 25.60626
1014.955, 20.74182
1015.437, 20.51379
1015.919, 23.10187
1016.401, 32.13147
1016.883, 42.20197
1017.365, 42.65143
1017.847, 29.98120
1018.329, 25.01678
1018.811, 31.66223
1019.294, 40.98035
1019.776, 42.86353
1020.258, 40.43591
1020.740, 38.06287
1021.222, 36.59601
1021.704, 36.14587
1022.186, 36.73663
1022.668, 37.85095
1023.151, 39.76520
1023.633, 42.24585
1024.115, 41.95148
1024.597, 39.05914
1025.079, 36.83990
1025.561, 39.40100
1026.043, 41.53705
1026.525, 36.88385
1027.007, 28.08521
1027.490, 25.88397
1027.972, 33.37866
1028.454, 41.04041
1028.936, 47.39709
1029.418, 52.69031
1029.900, 58.27802
1030.382, 63.12769
1030.864, 64.04254
1031.346, 58.21661
1031.829, 54.43170
1032.311, 57.01300
1032.793, 63.01923
1033.275, 70.93317
1033.757, 81.80060
1034.239, 85.79236
1034.721, 82.05170
1035.203, 79.04993
1035.686, 84.05029
1036.168, 92.63202
1036.650, 100.4139
1037.132, 106.7673
1037.614, 112.7100
1038.096, 116.9434
1038.578, 123.1247
1039.060, 132.2300
1039.542, 143.7646
1040.025, 158.2108
1040.507, 174.1116
1040.989, 185.3527
1041.471, 186.3038
1041.953, 190.4432
1042.435, 209.1393
1042.917, 233.4222
1043.399, 252.7549
1043.881, 263.9161
1044.364, 279.6403
1044.846, 299.1623
1045.328, 327.1846
1045.810, 376.8959
1046.292, 432.4434
1046.774, 475.8647
1047.256, 505.2001
1047.738, 511.4378
1048.221, 465.0420
1048.703, 426.4525
1049.185, 411.4805
1049.667, 416.2523
1050.149, 429.1011
1050.631, 451.0026
1051.113, 485.8154
1051.595, 528.4342
1052.078, 598.0308
1052.560, 697.9177
1053.042, 838.2115
1053.524, 1030.313
1054.006, 1252.949
1054.488, 1582.656
1054.970, 2032.651
1055.452, 2547.152
1055.934, 3142.531
1056.417, 3743.467
1056.899, 4207.534
1057.381, 4538.798
1057.863, 4899.456
1058.345, 5346.511
1058.827, 5836.851
1059.309, 6349.354
1059.791, 6902.507
1060.273, 7541.584
1060.756, 8267.928
1061.238, 9069.639
1061.720, 9919.631
1062.202, 10898.06
1062.684, 11977.62
1063.166, 13242.24
1063.648, 14798.74
1064.130, 16541.44
1064.612, 18693.42
1065.095, 21169.90
1065.577, 24395.43
1066.059, 29779.03
1066.541, 35666.35
1067.023, 39926.19
1067.505, 42286.91
1067.987, 41372.56
1068.469, 34030.40
1068.952, 26274.71
1069.434, 19499.24
1069.916, 13797.13
1070.398, 9588.475
1070.880, 6743.078
1071.362, 4672.290
1071.844, 3294.047
1072.326, 2336.351
1072.808, 1736.434
1073.291, 1368.030
1073.773, 1090.851
1074.255, 905.1652
1074.737, 763.6939
1075.219, 671.8998
1075.701, 600.9802
1076.183, 530.0649
1076.665, 463.4194
1077.147, 408.0946
1077.630, 363.2417
1078.112, 326.0363
1078.594, 298.9686
1079.076, 276.0413
1079.558, 257.2195
1080.040, 240.5289
1080.522, 219.5850
1081.004, 196.4154
1081.487, 181.1132
1081.969, 178.9648
1082.451, 176.2746
1082.933, 163.9380
1083.415, 147.8011
1083.897, 132.4539
1084.379, 117.3693
1084.861, 106.8626
1085.344, 101.0798
1085.826, 97.65308
1086.308, 95.85779
1086.790, 93.93909
1087.272, 91.31860
1087.754, 88.05457
1088.236, 84.59161
1088.718, 82.49213
1089.200, 76.87402
1089.682, 65.00568
1090.165, 53.01398
1090.647, 52.27948
1091.129, 58.76440
1091.611, 62.30969
1092.093, 61.01947
1092.575, 56.91235
1093.057, 48.45752
1093.539, 39.69952
1094.022, 32.90295
1094.504, 27.91461
1094.986, 22.08997
1095.468, 15.61761
1095.950, 12.14099
1096.432, 16.21802
1096.914, 21.28217
1097.396, 22.21735
1097.879, 20.54871
1098.361, 19.32764
1098.843, 19.06512
1099.325, 18.16058
1099.807, 16.37073
1100.289, 14.56122
1100.771, 14.92578
1101.253, 15.52008
1101.735, 12.62585
1102.218, 5.928345
1102.700, 0.8703000
1103.182, 1.515381
1103.664, 1.106445
1104.146, 3.672974
1104.628, 10.21637
1105.110, 10.05927
1105.592, 4.811340
1106.074, 0.5726930
1106.557, 0.9471440
1107.039, 0.2987670
1107.521, 5.741211
1108.003, 11.26819
1108.485, 9.219299
1108.967, 2.120605
1109.449, 2.463257
1109.931, 8.954895
1110.414, 17.82471
1110.896, 8.571899
1111.378, 3.416443
1111.860, 2.876038
1112.342, 7.243713
1112.824, 10.34534
1113.306, 2.681091
1113.788, 2.607300
1114.271, 2.414917
1114.753, 0.2135010
1115.235, 0.5269170
1115.717, 0.4776610
1116.199, 4.411072
1116.681, 13.02234
1117.163, 15.91156
1117.645, 7.636353
1118.127, 1.359009
1118.609, 6.408264
1119.092, 7.904297
1119.574, 6.098816
1120.056, 1.818115
1120.538, 1.283081
1121.020, 0.7776490
1121.502, 0.4862060
1121.984, 1.663330
1122.466, 2.871948
1122.949, 4.503845
1123.431, 6.596985
1123.913, 7.173645
1124.395, 5.994446
1124.877, 4.866577
1125.359, 5.305237
1125.841, 6.579956
1126.323, 7.494202
1126.806, 8.304016
1127.288, 10.51581
1127.770, 15.31427
1128.252, 15.45642
1128.734, 6.567139
1129.216, 2.918213
1129.698, 1.662720
1130.180, 12.03149
1130.662, 14.92664
1131.145, 3.180481
1131.627, 3.972778
1132.109, 4.176819
1132.591, 2.514282
1133.073, 2.277283
1133.555, 2.751465
1134.037, 1.683655
1134.519, 0.5795900
1135.001, 2.689209
1135.484, 4.582153
1135.966, 5.286804
1136.448, 3.107117
1136.930, 1.172729
1137.412, 6.010376
1137.894, 15.82538
1138.376, 17.60687
1138.858, 9.392212
1139.340, 2.520142
1139.823, 7.920532
1140.305, 14.02130
1140.787, 12.73950
1141.269, 5.806519
1141.751, 2.914795
1142.233, 4.124695
1142.715, 3.588501
1143.197, 3.134644
1143.680, 6.950256
1144.162, 6.271118
1144.644, 24.44904
1145.126, 31.42944
1145.608, 22.28052
1146.090, 18.10773
1146.572, 19.72534
1147.054, 21.95898
1147.536, 20.65881
1148.019, 18.17249
1148.501, 18.21240
1148.983, 19.79016
1149.465, 19.33032
1149.947, 11.04407
1150.429, 11.09186
1150.911, 24.74579
1151.393, 39.59174
1151.875, 36.83179
1152.358, 24.81348
1152.840, 21.89160
1153.322, 30.35437
1153.804, 34.64093
1154.286, 23.76086
1154.768, 14.53772
1155.250, 13.13397
1155.732, 16.02777
1156.215, 12.52661
1156.697, 4.792908
1157.179, 0.8621220
1157.661, 4.424622
1158.143, 9.170898
1158.625, 13.50055
1159.107, 16.95923
1159.589, 19.14185
1160.072, 20.08246
1160.554, 19.64258
1161.036, 18.01898
1161.518, 18.20886
1162.000, 25.44269
1162.482, 31.27997
1162.964, 28.07477
1163.446, 21.25586
1163.928, 20.27283
1164.411, 25.72620
1164.893, 31.97375
1165.375, 38.80634
1165.857, 42.56085
1166.339, 38.26917
1166.821, 30.99237
1167.303, 24.86005
1167.785, 20.06958
1168.267, 13.28339
1168.750, 2.334351
1169.232, 1.494080
1169.714, 18.19373
1170.196, 37.31311
1170.678, 41.58441
1171.160, 35.92761
1171.642, 24.83130
1172.124, 6.146362
1172.607, 3.982788
1173.089, 3.710022
1173.571, 0.2052000
1174.053, 3.062866
1174.535, 6.653564
1175.017, 12.21033
1175.499, 19.02502
1175.981, 24.17535
1176.464, 21.75165
1176.946, 25.57520
1177.428, 40.38190
1177.910, 52.60626
1178.392, 43.94379
1178.874, 24.69965
1179.356, 20.15424
1179.838, 29.30115
1180.320, 36.49359
1180.802, 36.32275
1181.285, 32.37341
1181.767, 24.23950
1182.249, 14.61633
1182.731, 4.990662
1183.213, 2.368713
1183.695, 3.351379
1184.177, 25.59082
1184.659, 39.38867
1185.142, 22.13440
1185.624, 6.769043
1186.106, 9.176819
1186.588, 23.57526
1187.070, 29.29388
1187.552, 28.26105
1188.034, 27.95264
1188.516, 32.36902
1188.999, 34.44788
1189.481, 28.40173
1189.963, 20.35571
1190.445, 13.96539
1190.927, 9.241577
1191.409, 11.10217
1191.891, 18.75214
1192.373, 23.67139
1192.855, 14.96704
1193.338, 8.664673
1193.820, 18.63208
1194.302, 33.33118
1194.784, 35.94507
1195.266, 25.59271
1195.748, 15.18048
1196.230, 5.702515
1196.712, 0.8148800
1197.194, 6.982788
1197.677, 15.24188
1198.159, 20.14624
1198.641, 21.90503
1199.123, 20.44781
1199.605, 15.28290
1200.087, 15.98462
1200.569, 25.64026
1201.051, 34.43597
1201.533, 33.23547
1202.016, 28.00989
1202.498, 21.69330
1202.980, 14.79309
1203.462, 10.69269
1203.944, 9.507568
1204.426, 9.639404
1204.908, 10.50635
1205.390, 12.38000
1205.873, 16.82257
1206.355, 21.74994
1206.837, 24.30688
1207.319, 23.89612
1207.801, 23.90955
1208.283, 24.44702
1208.765, 24.74854
1209.247, 24.77582
1209.729, 23.98077
1210.212, 20.42468
1210.694, 15.92603
1211.176, 14.90692
1211.658, 19.84772
1212.140, 20.10205
1212.622, 14.18756
1213.104, 8.911987
1213.586, 12.36157
1214.068, 18.07635
1214.551, 17.47467
1215.033, 12.19824
1215.515, 13.04175
1215.997, 24.48914
1216.479, 27.72369
1216.961, 18.02631
1217.443, 6.325562
1217.925, 4.247742
1218.408, 8.107971
1218.890, 15.57574
1219.372, 26.24066
1219.854, 30.89673
1220.336, 28.34949
1220.818, 22.62372
1221.300, 13.29852
1221.782, 5.114441
1222.265, 4.696899
1222.747, 9.588440
1223.229, 17.49097
1223.711, 29.90765
1224.193, 36.13556
1224.675, 35.20197
1225.157, 31.57782
1225.639, 26.10980
1226.121, 20.47089
1226.604, 17.51453
1227.086, 16.60999
1227.568, 16.76587
1228.050, 18.91870
1228.532, 19.02386
1229.014, 16.48401
1229.496, 14.14868
1229.978, 16.11084
1230.460, 18.01508
1230.943, 11.54828
1231.425, 0.2330320
1231.907, 6.741089
1232.389, 4.906006
1232.871, 1.139038
1233.353, 4.538147
1233.835, 10.40033
1234.317, 15.17200
1234.800, 18.77905
1235.282, 20.83899
1235.764, 21.91138
1236.246, 22.32483
1236.728, 21.36829
1237.210, 22.37378
1237.692, 26.44824
1238.174, 30.95844
1238.656, 33.52863
1239.139, 33.97235
1239.621, 30.38391
1240.103, 22.59192
1240.585, 21.15308
1241.067, 28.78418
1241.549, 33.99768
1242.031, 32.64954
1242.513, 29.17242
1242.995, 31.06195
1243.478, 33.54504
1243.960, 29.36377
1244.442, 15.33954
1244.924, 5.898376
1245.406, 1.093018
1245.888, 0.6231690
1246.370, 6.427002
1246.852, 13.28540
1247.335, 13.08252
1247.817, 9.999023
1248.299, 10.89471
1248.781, 18.45197
1249.263, 23.97534
1249.745, 27.73163
1250.227, 27.41498
1250.709, 18.31842
1251.192, 7.119019
1251.674, 0.8308110
1252.156, 5.106201
1252.638, 4.114624
1253.120, 4.119690
1253.602, 7.827087
1254.084, 5.789978
1254.566, 5.832092
1255.048, 19.20569
1255.531, 33.10907
1256.013, 35.00244
1256.495, 27.66803
1256.977, 20.91461
1257.459, 14.33960
1257.941, 12.99207
1258.423, 18.05579
1258.905, 22.16815
1259.387, 14.68622
1259.870, 5.581360
1260.352, 10.44354
1260.834, 23.66632
1261.316, 26.56689
1261.798, 18.51520
1262.280, 13.80286
1262.762, 15.47534
1263.244, 18.65436
1263.726, 18.31830
1264.209, 18.69226
1264.691, 25.59351
1265.173, 36.18127
1265.655, 35.06653
1266.137, 22.93079
1266.619, 14.54431
1267.101, 14.75085
1267.583, 17.91229
1268.066, 21.98206
1268.548, 25.90344
1269.030, 28.76416
1269.512, 30.47363
1269.994, 32.87115
1270.476, 39.02203
1270.958, 38.37518
1271.440, 23.96021
1271.922, 11.07501
1272.405, 5.713562
1272.887, 6.620300
1273.369, 15.72437
1273.851, 30.87042
1274.333, 34.27216
1274.815, 28.03302
1275.297, 22.26550
1275.779, 22.34192
1276.261, 22.27240
1276.744, 19.32581
1277.226, 17.07507
1277.708, 19.83826
1278.190, 25.75043
1278.672, 26.06207
1279.154, 22.11066
1279.636, 19.95715
1280.118, 26.20599
1280.601, 28.46558
1281.083, 24.07892
1281.565, 16.74695
1282.047, 7.879578
1282.529, 6.9091998E-02
1283.011, 1.239868
1283.493, 3.820190
1283.975, 11.09741
1284.458, 21.86743
1284.940, 27.84198
1285.422, 26.38690
1285.904, 25.25433
1286.386, 14.31403
1286.868, 0.0000000E+00
##END=



