##NAMES=Norbergite
##RRUFFID=R050280
##IDEAL CHEMISTRY=Mg_3_SiO_4_F_2_
##LOCALITY=Sterling mine, Ogdensburg, New Jersey, USA
##OWNER=RRUFF
##SOURCE=Marcus Origlieri
##DESCRIPTION=Brownish-orange granular
##STATUS=The identification of this mineral has been confirmed by X-ray diffraction and chemical analysis
##URL=rruff.info/R050280
##MEASURED CHEMISTRY=(Mg_0.993_Fe_0.006_Ca_0.001_)_3_(SiO_4_)(F_0.704_OH_0.296_)_2_
134.6170, 0.0000000E+00
135.0991, 0.1291730
135.5812, 0.4408110
136.0633, 0.8557890
136.5455, 1.160927
137.0276, 1.023994
137.5097, 0.5168840
137.9918, 0.3183750
138.4739, 1.248619
138.9560, 1.818001
139.4382, 2.302788
139.9203, 2.740021
140.4024, 2.854080
140.8845, 2.032555
141.3666, 0.7348480
141.8487, 0.1786040
142.3309, 0.1215670
142.8130, 0.6225970
143.2951, 1.105980
143.7772, 1.155144
144.2593, 1.161438
144.7414, 1.378441
145.2236, 1.723228
145.7057, 1.989174
146.1878, 1.980194
146.6699, 1.674950
147.1520, 1.454903
147.6341, 1.251953
148.1163, 1.202354
148.5984, 1.589905
149.0805, 2.231049
149.5626, 2.744171
150.0447, 2.899490
150.5268, 2.536041
151.0090, 2.289398
151.4911, 2.149445
151.9732, 2.102882
152.4553, 2.130013
152.9374, 2.231117
153.4195, 2.447586
153.9017, 2.831131
154.3838, 3.553947
154.8659, 4.122276
155.3480, 4.596840
155.8301, 4.895409
156.3122, 4.881149
156.7944, 4.494621
157.2765, 3.912018
157.7586, 3.447792
158.2407, 3.132050
158.7228, 2.781654
159.2049, 2.265007
159.6871, 1.676811
160.1692, 1.263649
160.6513, 1.189392
161.1334, 1.207993
161.6155, 0.8808360
162.0976, 0.1158290
162.5798, 0.5035320
163.0619, 0.5258640
163.5440, 1.0155000E-02
164.0261, 0.5966340
164.5082, 1.217232
164.9903, 1.708992
165.4725, 1.923050
165.9546, 1.824295
166.4367, 1.552490
166.9188, 1.220963
167.4009, 0.7905040
167.8830, 0.4592130
168.3652, 0.2983400
168.8473, 0.2346950
169.3294, 0.2570570
169.8115, 0.3634570
170.2936, 0.4817350
170.7757, 0.4396060
171.2579, 2.0081000E-02
171.7400, 0.1471250
172.2221, 0.2329180
172.7042, 0.7602620
173.1863, 1.029144
173.6684, 0.8601530
174.1506, 0.4238130
174.6327, 0.2427290
175.1148, 0.6435700
175.5969, 0.9513550
176.0790, 1.126854
176.5611, 1.179329
177.0433, 1.088264
177.5254, 0.8291020
178.0075, 0.4685360
178.4896, 0.3474040
178.9717, 0.6099240
179.4538, 0.9157180
179.9360, 1.230263
180.4181, 1.532967
180.9002, 1.793022
181.3823, 1.998581
181.8644, 2.137543
182.3465, 2.168739
182.8287, 1.998451
183.3108, 1.830009
183.7929, 1.671791
184.2750, 1.558479
184.7571, 1.699455
185.2392, 2.362961
185.7214, 3.328735
186.2035, 3.934830
186.6856, 4.106117
187.1677, 3.969879
187.6498, 3.481499
188.1319, 2.617798
188.6141, 1.907982
189.0962, 1.764992
189.5783, 1.929504
190.0604, 2.065323
190.5425, 2.116531
191.0246, 2.094917
191.5068, 1.961861
191.9889, 1.639427
192.4710, 1.475174
192.9531, 1.882874
193.4352, 2.443733
193.9173, 2.683693
194.3995, 2.354660
194.8816, 1.690773
195.3637, 1.210083
195.8458, 0.9392240
196.3279, 0.8322140
196.8100, 0.8758700
197.2922, 1.040565
197.7743, 1.354538
198.2564, 1.880753
198.7385, 2.472809
199.2206, 2.531540
199.7027, 1.361679
200.1849, 0.5218350
200.6670, 0.4338070
201.1491, 0.7985530
201.6312, 1.297768
202.1133, 1.766464
202.5954, 2.167610
203.0776, 2.269165
203.5597, 1.605049
204.0418, 1.117744
204.5239, 1.020866
205.0060, 1.191124
205.4881, 1.423843
205.9703, 1.592743
206.4524, 1.714142
206.9345, 1.927528
207.4166, 2.539955
207.8987, 2.909576
208.3808, 2.707695
208.8630, 2.125450
209.3451, 1.552551
209.8272, 1.211662
210.3093, 1.097511
210.7914, 1.156265
211.2735, 1.649574
211.7557, 2.014099
212.2378, 1.845863
212.7199, 1.318733
213.2020, 1.012321
213.6841, 1.329765
214.1662, 2.132614
214.6484, 2.702744
215.1305, 3.009903
215.6126, 3.144318
216.0947, 3.084427
216.5768, 2.840019
217.0589, 2.654320
217.5410, 2.748726
218.0232, 2.990364
218.5053, 3.007500
218.9874, 2.601852
219.4695, 2.208580
219.9516, 2.264389
220.4337, 2.734451
220.9159, 3.090019
221.3980, 3.002792
221.8801, 2.679543
222.3622, 2.440880
222.8443, 2.310539
223.3264, 2.303383
223.8086, 2.484322
224.2907, 2.875374
224.7728, 3.236481
225.2549, 3.454323
225.7370, 3.595909
226.2191, 3.718452
226.7013, 3.838249
227.1834, 3.922691
227.6655, 3.931694
228.1476, 3.862007
228.6297, 3.726303
229.1118, 3.423271
229.5940, 3.111481
230.0761, 2.918221
230.5582, 2.879349
231.0403, 2.930153
231.5224, 2.958656
232.0045, 2.914314
232.4867, 3.005775
232.9688, 3.429382
233.4509, 3.898155
233.9330, 4.230965
234.4151, 4.373077
234.8972, 4.347183
235.3794, 4.122353
235.8615, 3.457481
236.3436, 3.171227
236.8257, 3.709335
237.3078, 4.350021
237.7899, 4.504906
238.2721, 4.053108
238.7542, 3.389366
239.2363, 3.171265
239.7184, 3.645836
240.2005, 4.106087
240.6826, 4.610443
241.1648, 5.047638
241.6469, 5.341957
242.1290, 5.473053
242.6111, 5.472023
243.0932, 5.313904
243.5753, 4.740448
244.0575, 4.504028
244.5396, 4.814240
245.0217, 5.305412
245.5038, 5.714905
245.9859, 5.976906
246.4680, 6.170120
246.9502, 6.422173
247.4323, 6.866959
247.9144, 6.966255
248.3965, 6.649162
248.8786, 6.144844
249.3607, 5.434456
249.8429, 4.543915
250.3250, 3.782295
250.8071, 3.488411
251.2892, 3.886787
251.7713, 3.940338
252.2534, 3.343689
252.7356, 2.643951
253.2177, 2.241508
253.6998, 2.162430
254.1819, 2.157532
254.6640, 1.969917
255.1461, 1.553406
255.6283, 1.317039
256.1104, 1.492020
256.5925, 1.678940
257.0746, 1.482780
257.5567, 0.9105830
258.0388, 0.4287190
258.5210, 0.4981920
259.0031, 1.133102
259.4852, 1.451073
259.9673, 1.209648
260.4494, 0.8349760
260.9315, 0.5962370
261.4137, 0.5097050
261.8958, 0.5624470
262.3779, 0.8326420
262.8600, 1.245323
263.3421, 1.386147
263.8242, 0.9389420
264.3064, 0.4576720
264.7885, 0.3855740
265.2706, 0.6921010
265.7527, 1.034027
266.2348, 1.246422
266.7169, 1.324486
267.1991, 1.303436
267.6812, 1.103104
268.1633, 0.9004060
268.6454, 0.8151780
269.1275, 0.8425600
269.6096, 0.9426730
270.0918, 1.160919
270.5739, 1.398537
271.0560, 1.506264
271.5381, 1.489838
272.0202, 1.323883
272.5023, 0.8464430
272.9845, 0.1199420
273.4666, 0.3437270
273.9487, 0.2550960
274.4308, 9.3437001E-02
274.9129, 0.3063130
275.3951, 0.3652190
275.8772, 0.3672030
276.3593, 0.2945250
276.8414, 0.1829150
277.3235, 0.2919390
277.8056, 0.8365480
278.2878, 1.447800
278.7699, 1.774864
279.2520, 1.826363
279.7341, 1.754868
280.2162, 1.600227
280.6983, 1.385284
281.1805, 1.212791
281.6626, 1.044617
282.1447, 1.009811
282.6268, 1.248024
283.1089, 1.702225
283.5910, 2.136360
284.0732, 2.267998
284.5553, 2.246040
285.0374, 2.728683
285.5195, 4.144554
286.0016, 5.362900
286.4837, 5.520607
286.9659, 5.009750
287.4480, 4.650444
287.9301, 4.978065
288.4122, 5.713531
288.8943, 6.077682
289.3764, 5.922188
289.8586, 5.697350
290.3407, 5.630692
290.8228, 5.647591
291.3049, 5.645752
291.7870, 5.608543
292.2691, 5.498772
292.7513, 5.238449
293.2334, 4.808212
293.7155, 4.277443
294.1976, 3.424820
294.6797, 2.602043
295.1618, 2.219727
295.6440, 2.469627
296.1261, 2.901131
296.6082, 2.803253
297.0903, 2.019951
297.5724, 1.362267
298.0545, 1.186958
298.5367, 1.116577
299.0188, 0.8542100
299.5009, 0.3483510
299.9830, 0.1309510
300.4651, 0.2058110
300.9472, 0.2030640
301.4294, 0.3959660
301.9115, 3.0273000E-02
302.3936, 0.3949890
302.8757, 0.6485900
303.3578, 0.7123260
303.8399, 0.6553340
304.3221, 0.4360500
304.8042, 4.7958001E-02
305.2863, 1.4854000E-02
305.7684, 0.7974470
306.2505, 1.356537
306.7326, 0.9151310
307.2148, 0.2203900
307.6969, 1.222557
308.1790, 1.498650
308.6611, 1.149704
309.1432, 0.7875290
309.6253, 0.3008650
310.1075, 1.9843999E-02
310.5896, 9.9509999E-02
311.0717, 3.5805002E-02
311.5538, 0.3966060
312.0359, 1.068840
312.5180, 1.856247
313.0002, 2.161163
313.4823, 1.610489
313.9644, 1.351570
314.4465, 2.009598
314.9286, 2.935425
315.4107, 3.455467
315.8929, 3.322624
316.3750, 2.899727
316.8571, 2.760254
317.3392, 2.968445
317.8213, 3.251030
318.3034, 3.647011
318.7856, 4.037453
319.2677, 4.293793
319.7498, 4.412567
320.2319, 4.572037
320.7140, 5.031540
321.1961, 5.849052
321.6783, 6.493584
322.1604, 6.757126
322.6425, 6.969299
323.1246, 7.274086
323.6067, 7.667084
324.0888, 8.078201
324.5710, 8.394753
325.0531, 8.635406
325.5352, 9.154396
326.0173, 10.20010
326.4994, 11.22053
326.9815, 11.99717
327.4637, 12.59275
327.9458, 13.11633
328.4279, 13.60986
328.9100, 14.08951
329.3921, 14.65666
329.8742, 15.49986
330.3564, 16.02448
330.8385, 16.02295
331.3206, 15.63287
331.8027, 14.99671
332.2848, 14.14435
332.7669, 13.17519
333.2491, 12.27428
333.7312, 11.46535
334.2133, 10.63724
334.6954, 9.671432
335.1775, 8.703827
335.6596, 7.771011
336.1418, 6.888428
336.6239, 6.196739
337.1060, 6.003860
337.5881, 6.342010
338.0702, 6.227386
338.5523, 5.143791
339.0345, 3.994293
339.5165, 3.228043
339.9987, 2.813202
340.4808, 2.615494
340.9629, 2.706932
341.4450, 2.978699
341.9271, 2.801590
342.4092, 1.817780
342.8914, 1.015564
343.3735, 1.073776
343.8556, 1.568657
344.3377, 1.833565
344.8198, 1.535110
345.3019, 0.9303360
345.7841, 0.4204250
346.2662, 2.3575000E-02
346.7483, 0.2583160
347.2304, 5.5381998E-02
347.7125, 0.3126980
348.1946, 0.6462550
348.6768, 0.9124600
349.1589, 1.095322
349.6410, 1.103996
350.1231, 0.9413530
350.6052, 0.9661640
351.0873, 1.436073
351.5695, 1.942978
352.0516, 2.170326
352.5337, 2.118126
353.0158, 1.909294
353.4979, 1.493217
353.9800, 0.9654690
354.4622, 0.6472020
354.9443, 0.5672990
355.4264, 0.7023850
355.9085, 1.216965
356.3906, 1.930542
356.8727, 2.421997
357.3549, 2.462593
357.8370, 2.230400
358.3191, 1.927101
358.8012, 1.545212
359.2833, 1.385246
359.7654, 1.800308
360.2476, 2.434830
360.7297, 2.764008
361.2118, 2.685692
361.6939, 2.437149
362.1760, 2.121925
362.6581, 1.776306
363.1403, 1.522842
363.6224, 1.335075
364.1045, 1.254028
364.5866, 1.417442
365.0687, 1.869995
365.5508, 2.273819
366.0330, 2.512947
366.5151, 2.627090
366.9972, 2.632736
367.4793, 2.498116
367.9614, 2.432892
368.4435, 2.722672
368.9257, 3.314209
369.4078, 3.810013
369.8899, 4.023827
370.3720, 4.202354
370.8541, 4.560303
371.3362, 5.090569
371.8184, 5.663246
372.3005, 6.240036
372.7826, 6.789146
373.2647, 7.198578
373.7468, 7.304329
374.2289, 7.541504
374.7111, 8.087395
375.1932, 8.883896
375.6753, 9.863632
376.1574, 11.01988
376.6395, 12.25285
377.1216, 13.46706
377.6038, 14.78347
378.0859, 15.59822
378.5680, 15.73728
379.0501, 15.41788
379.5322, 14.71280
380.0143, 13.67834
380.4965, 12.57351
380.9786, 11.64751
381.4607, 10.90322
381.9428, 9.893181
382.4249, 8.314758
382.9070, 6.820473
383.3892, 5.667107
383.8713, 4.804474
384.3534, 4.156372
384.8355, 3.704399
385.3176, 3.356560
385.7997, 2.841255
386.2819, 1.893173
386.7640, 1.111633
387.2461, 0.4252170
387.7282, 3.2166000E-02
388.2103, 1.1719000E-02
388.6924, 0.4872590
389.1746, 1.085205
389.6567, 1.320297
390.1388, 1.133133
390.6209, 0.7884980
391.1030, 1.9600000E-02
391.5851, 0.6277540
392.0673, 0.8885650
392.5494, 0.8239440
393.0315, 0.6222530
393.5136, 0.3999180
393.9957, 0.1637500
394.4778, 4.9720999E-02
394.9600, 0.3518220
395.4421, 0.4662700
395.9242, 0.1424640
396.4063, 0.2756880
396.8884, 0.3896260
397.3705, 8.2465999E-02
397.8527, 0.3656310
398.3348, 0.4887850
398.8169, 0.1482700
399.2990, 2.0896999E-02
399.7811, 0.2506640
400.2632, 0.5089650
400.7454, 0.4646300
401.2275, 0.1866300
401.7096, 2.2224000E-02
402.1917, 0.1186600
402.6738, 0.5323940
403.1559, 0.7261960
403.6381, 0.4769360
404.1202, 0.3953700
404.6023, 0.9192890
405.0844, 1.672218
405.5665, 2.150429
406.0486, 2.139091
406.5308, 1.901215
407.0129, 1.686974
407.4950, 1.477585
407.9771, 1.588333
408.4592, 2.440651
408.9413, 3.336517
409.4235, 3.590111
409.9056, 3.224976
410.3877, 2.906601
410.8698, 2.996498
411.3519, 3.417969
411.8340, 4.044685
412.3162, 4.951462
412.7983, 5.774918
413.2804, 6.211967
413.7625, 6.371704
414.2446, 6.460251
414.7267, 6.355408
415.2089, 6.358162
415.6910, 6.758118
416.1731, 7.503395
416.6552, 8.348526
417.1373, 9.254501
417.6194, 10.12888
418.1016, 10.75834
418.5837, 11.08766
419.0658, 11.49116
419.5479, 12.00061
420.0300, 12.67127
420.5121, 13.64434
420.9943, 14.92861
421.4764, 16.25196
421.9585, 17.40427
422.4406, 18.36769
422.9227, 19.09717
423.4048, 19.24679
423.8870, 19.53565
424.3691, 20.40086
424.8512, 21.62952
425.3333, 22.78844
425.8154, 23.68004
426.2975, 24.35635
426.7797, 24.94546
427.2618, 25.43381
427.7439, 25.83358
428.2260, 26.09751
428.7081, 26.30949
429.1902, 26.64979
429.6724, 27.05953
430.1545, 27.19743
430.6366, 26.67735
431.1187, 25.48061
431.6008, 24.59022
432.0829, 24.33406
432.5651, 24.04905
433.0472, 23.49635
433.5293, 22.86140
434.0114, 22.43138
434.4935, 22.33681
434.9756, 22.38876
435.4578, 22.22266
435.9399, 21.75648
436.4220, 21.34054
436.9041, 21.11893
437.3862, 20.87775
437.8683, 20.49629
438.3505, 19.97827
438.8326, 19.40279
439.3147, 18.87783
439.7968, 18.34999
440.2789, 17.52319
440.7610, 16.22562
441.2432, 15.03046
441.7253, 14.23463
442.2074, 13.70453
442.6895, 13.37386
443.1716, 13.34901
443.6537, 13.17618
444.1359, 12.20998
444.6180, 10.61510
445.1001, 9.497437
445.5822, 9.322289
446.0643, 9.386055
446.5464, 8.853928
447.0286, 7.790977
447.5107, 6.745705
447.9928, 5.728058
448.4749, 4.895325
448.9570, 4.473068
449.4391, 4.421425
449.9213, 4.502419
450.4034, 4.660973
450.8855, 4.819664
451.3676, 4.645271
451.8497, 3.927551
452.3318, 3.253944
452.8140, 2.740456
453.2961, 2.384285
453.7782, 2.175766
454.2603, 2.064270
454.7424, 1.998810
455.2245, 1.957253
455.7067, 1.928818
456.1888, 2.001297
456.6709, 2.409668
457.1530, 2.660782
457.6351, 2.443871
458.1172, 1.938759
458.5994, 1.442841
459.0815, 1.125244
459.5636, 1.055046
460.0457, 1.411247
460.5278, 2.627541
461.0099, 3.209213
461.4921, 2.610764
461.9742, 1.839043
462.4563, 1.521736
462.9384, 1.662621
463.4205, 1.892639
463.9026, 1.900887
464.3848, 1.741196
464.8669, 1.816589
465.3490, 2.337456
465.8311, 2.687897
466.3132, 2.374657
466.7953, 1.887871
467.2775, 1.844925
467.7596, 2.466270
468.2417, 3.200386
468.7238, 3.457870
469.2059, 3.298981
469.6880, 3.222740
470.1702, 3.393761
470.6523, 3.561913
471.1344, 3.298981
471.6165, 2.718704
472.0986, 2.398842
472.5807, 2.628952
473.0629, 3.097076
473.5450, 3.600075
474.0271, 4.111473
474.5092, 4.395996
474.9913, 4.278549
475.4734, 3.950554
475.9556, 3.876869
476.4377, 4.187836
476.9198, 4.387917
477.4019, 4.314240
477.8840, 4.152687
478.3661, 4.069168
478.8483, 4.082062
479.3304, 4.129990
479.8125, 4.160934
480.2946, 4.177986
480.7767, 4.240967
481.2589, 4.408371
481.7410, 4.550484
482.2231, 4.468903
482.7052, 4.434349
483.1873, 4.902710
483.6694, 5.944778
484.1516, 6.973862
484.6337, 7.095444
485.1158, 6.081345
485.5979, 5.528458
486.0800, 5.950180
486.5621, 6.294212
487.0443, 6.024338
487.5264, 5.412682
488.0085, 4.997238
488.4906, 5.071785
488.9727, 5.330849
489.4548, 5.317108
489.9370, 5.021675
490.4191, 4.604355
490.9012, 4.046127
491.3833, 3.439301
491.8654, 2.799774
492.3475, 2.148155
492.8297, 1.710922
493.3118, 1.788391
493.7939, 2.029068
494.2760, 1.906425
494.7581, 1.418282
495.2402, 1.023743
495.7224, 1.008492
496.2045, 1.242828
496.6866, 1.321465
497.1687, 1.128197
497.6508, 1.038620
498.1329, 1.236221
498.6151, 1.528229
499.0972, 1.734909
499.5793, 1.815994
500.0614, 1.761353
500.5435, 1.537018
501.0256, 1.145454
501.5078, 0.9066700
501.9899, 1.060478
502.4720, 1.082481
502.9541, 0.7229540
503.4362, 0.2475130
503.9183, 3.0830000E-02
504.4004, 2.2667000E-02
504.8825, 0.1347200
505.3647, 0.2899860
505.8468, 0.4516370
506.3289, 0.5487670
506.8110, 0.5508800
507.2931, 0.5202560
507.7752, 0.4494630
508.2574, 0.3733980
508.7395, 0.3796840
509.2216, 0.5562060
509.7037, 0.6919250
510.1858, 0.3997190
510.6679, 0.2842180
511.1501, 0.6659770
511.6322, 0.4701840
512.1143, 6.8604000E-02
512.5964, 0.1160960
513.0786, 0.1211620
513.5607, 0.2446820
514.0428, 0.8007740
514.5249, 1.323837
515.0070, 1.369156
515.4891, 0.9923550
515.9713, 0.4282150
516.4534, 0.2813570
516.9355, 0.9378970
517.4176, 1.070518
517.8997, 0.2565310
518.3818, 0.2276150
518.8640, 7.9314999E-02
519.3461, 0.1892620
519.8282, 0.2537460
520.3103, 9.7092003E-02
520.7924, 0.2091830
521.2745, 0.6466220
521.7567, 1.128021
522.2388, 1.253784
522.7209, 0.8016890
523.2030, 0.3947680
523.6851, 0.1246110
524.1672, 8.1734002E-02
524.6494, 0.3334430
525.1315, 0.6053390
525.6136, 0.7004010
526.0957, 0.2968520
526.5778, 0.4022980
527.0599, 0.5772090
527.5421, 5.9859999E-02
528.0242, 0.3949740
528.5063, 0.3448490
528.9884, 8.3632998E-02
529.4705, 5.5992000E-02
529.9526, 0.3815920
530.4348, 0.5292970
530.9169, 4.2992000E-02
531.3990, 0.7430650
531.8811, 1.250282
532.3632, 1.403954
532.8453, 1.500183
533.3275, 1.788536
533.8096, 2.220428
534.2917, 2.399933
534.7738, 1.936691
535.2559, 1.754295
535.7380, 2.255569
536.2202, 3.039612
536.7023, 3.706001
537.1844, 4.151138
537.6665, 4.459442
538.1486, 4.726410
538.6307, 4.954094
539.1129, 4.921066
539.5950, 4.245499
540.0771, 3.812386
540.5592, 3.916725
541.0413, 4.319107
541.5234, 4.790756
542.0056, 5.265465
542.4877, 5.717041
542.9698, 6.126770
543.4519, 6.491257
543.9340, 6.758492
544.4161, 6.859207
544.8983, 7.020798
545.3804, 7.432373
545.8625, 8.004898
546.3446, 8.583588
546.8267, 9.147331
547.3088, 9.709221
547.7910, 10.24697
548.2731, 10.79507
548.7552, 11.44872
549.2373, 12.22623
549.7194, 13.03778
550.2015, 13.81529
550.6837, 14.55836
551.1658, 15.14906
551.6479, 15.66584
552.1300, 15.96355
552.6121, 16.05824
553.0942, 15.88919
553.5764, 15.30472
554.0585, 14.29909
554.5406, 13.14061
555.0227, 12.10088
555.5048, 11.16491
555.9869, 10.54781
556.4691, 10.56670
556.9512, 10.46178
557.4333, 9.777443
557.9154, 8.901741
558.3975, 8.368599
558.8796, 8.353416
559.3618, 8.447891
559.8439, 8.166222
560.3260, 7.671509
560.8081, 7.654762
561.2902, 8.307983
561.7723, 9.007896
562.2545, 9.278618
562.7366, 9.211823
563.2187, 9.275421
563.7008, 9.505890
564.1829, 9.827164
564.6650, 10.38711
565.1472, 10.94662
565.6293, 11.08920
566.1114, 10.76512
566.5935, 10.38932
567.0756, 10.36889
567.5577, 10.70241
568.0399, 11.09779
568.5220, 11.72190
569.0041, 12.14713
569.4862, 12.21065
569.9683, 12.16627
570.4504, 12.26350
570.9326, 12.53629
571.4147, 12.79775
571.8968, 12.90919
572.3789, 12.86368
572.8610, 12.56944
573.3431, 11.92764
573.8253, 11.33550
574.3074, 11.11420
574.7895, 10.94780
575.2716, 10.35773
575.7537, 9.215385
576.2358, 8.335724
576.7180, 8.345352
577.2001, 8.711685
577.6822, 8.720924
578.1643, 8.321152
578.6464, 7.783470
579.1285, 7.241341
579.6107, 6.726479
580.0928, 6.380074
580.5749, 6.476547
581.0570, 6.375191
581.5391, 5.831650
582.0212, 5.234039
582.5034, 4.939384
582.9855, 4.904465
583.4676, 4.821304
583.9497, 4.474518
584.4318, 3.962440
584.9139, 3.569031
585.3961, 3.289810
585.8782, 3.094398
586.3602, 3.067009
586.8423, 3.127457
587.3245, 3.285934
587.8066, 3.479012
588.2887, 3.412727
588.7708, 2.630188
589.2529, 1.788071
589.7350, 1.801163
590.2172, 2.537178
590.6993, 3.199745
591.1814, 3.507515
591.6635, 3.473900
592.1456, 3.066544
592.6277, 2.047318
593.1099, 1.539818
593.5920, 1.937828
594.0741, 2.457268
594.5562, 2.612686
595.0383, 2.597221
595.5204, 2.894722
596.0026, 3.713585
596.4847, 4.540039
596.9668, 4.419586
597.4489, 3.129105
597.9310, 2.574867
598.4131, 3.316727
598.8953, 4.158577
599.3774, 4.407890
599.8595, 4.380234
600.3416, 4.585281
600.8237, 5.148918
601.3058, 5.990028
601.7880, 7.376892
602.2701, 8.981667
602.7522, 9.770348
603.2343, 9.516884
603.7164, 9.281517
604.1985, 10.03169
604.6807, 11.59103
605.1628, 12.45683
605.6449, 11.79418
606.1270, 11.64050
606.6091, 12.76524
607.0912, 14.26147
607.5734, 15.32456
608.0555, 15.85654
608.5376, 16.16692
609.0197, 16.49876
609.5018, 16.80800
609.9839, 16.90718
610.4661, 16.77447
610.9482, 16.51869
611.4303, 16.13058
611.9124, 15.70404
612.3945, 15.43098
612.8766, 15.25328
613.3588, 14.70271
613.8409, 13.27644
614.3230, 11.58203
614.8051, 10.29329
615.2872, 9.345764
615.7693, 8.426880
616.2515, 7.415367
616.7336, 6.432320
617.2157, 5.672241
617.6978, 5.191521
618.1799, 4.650551
618.6620, 3.919533
619.1442, 3.273575
619.6263, 2.739609
620.1084, 2.391563
620.5905, 2.382713
621.0726, 2.749741
621.5547, 3.232864
622.0369, 3.628418
622.5190, 3.936920
623.0011, 4.037720
623.4832, 3.932610
623.9653, 3.606438
624.4474, 2.758270
624.9296, 1.813553
625.4117, 1.424271
625.8938, 1.777596
626.3759, 2.033356
626.8580, 1.632240
627.3401, 1.039497
627.8223, 0.8501970
628.3044, 1.060837
628.7865, 1.300629
629.2686, 1.372360
629.7507, 1.352928
630.2328, 1.451111
630.7150, 1.922951
631.1971, 1.994553
631.6792, 1.203667
632.1613, 0.5194090
632.6434, 0.5739360
633.1255, 1.080780
633.6077, 1.391144
634.0898, 1.205215
634.5719, 0.8403020
635.0540, 0.7067030
635.5361, 0.7752000
636.0182, 0.7777710
636.5004, 0.6343380
636.9825, 0.5423510
637.4646, 0.7435680
637.9467, 1.119179
638.4288, 1.181290
638.9109, 0.6062700
639.3931, 0.2212600
639.8752, 0.4816970
640.3573, 0.9409410
640.8394, 1.117683
641.3215, 0.9809110
641.8036, 0.7581710
642.2858, 0.6095730
642.7679, 0.5111920
643.2500, 0.3883060
643.7321, 0.2247390
644.2142, 8.1665002E-02
644.6964, 8.5631996E-02
645.1785, 0.1747280
645.6606, 5.3275999E-02
646.1427, 0.1926040
646.6248, 0.3212130
647.1069, 0.2011720
647.5891, 3.5319999E-03
648.0712, 0.2061840
648.5533, 0.3706590
649.0354, 0.2444610
649.5175, 0.2521900
649.9996, 0.6734770
650.4818, 0.5571590
650.9639, 5.7723999E-02
651.4460, 0.3230130
651.9281, 0.1734770
652.4102, 0.4657970
652.8923, 0.1289670
653.3745, 0.2693250
653.8566, 0.1404190
654.3387, 0.4624630
654.8208, 1.058250
655.3029, 1.356384
655.7850, 1.408722
656.2672, 1.134323
656.7493, 0.4371410
657.2314, 9.6763998E-02
657.7135, 0.5384670
658.1956, 1.078827
658.6777, 0.8866120
659.1599, 0.1172030
659.6420, 0.3816680
660.1241, 0.4579160
660.6062, 0.2758640
661.0883, 0.2861860
661.5704, 0.9710080
662.0526, 1.395576
662.5347, 1.491081
663.0168, 1.447144
663.4989, 1.436317
663.9810, 1.459923
664.4631, 1.384369
664.9453, 1.052406
665.4274, 0.8908620
665.9095, 1.356667
666.3916, 1.752167
666.8737, 1.349976
667.3558, 0.3230060
667.8380, 0.2699970
668.3201, 0.4193800
668.8022, 1.387352
669.2843, 1.640076
669.7664, 1.337776
670.2485, 0.8801420
670.7307, 0.4142070
671.2128, 0.1681060
671.6949, 0.3867490
672.1770, 1.047791
672.6591, 1.500130
673.1412, 1.685875
673.6234, 1.773796
674.1055, 1.779991
674.5876, 1.692253
675.0697, 1.404732
675.5518, 0.9808120
676.0339, 0.7196430
676.5161, 0.9462050
676.9982, 1.322632
677.4803, 1.095734
677.9624, 0.3116610
678.4445, 8.9394003E-02
678.9266, 0.2355800
679.4088, 0.7741240
679.8909, 1.015312
680.3730, 0.9540480
680.8551, 0.9092480
681.3372, 0.7626800
681.8193, 0.7763600
682.3015, 1.158676
682.7836, 1.661339
683.2657, 2.135780
683.7478, 2.483780
684.2299, 2.443527
684.7120, 1.688850
685.1942, 0.5646290
685.6763, 0.1481170
686.1584, 0.5441440
686.6405, 0.9269940
687.1226, 1.125572
687.6047, 1.237610
688.0869, 1.294716
688.5690, 1.327255
689.0511, 1.476868
689.5332, 2.082550
690.0153, 2.443672
690.4974, 2.061371
690.9796, 1.338203
691.4617, 0.7344060
691.9438, 0.3524400
692.4259, 0.1416470
692.9080, 5.5771001E-02
693.3901, 0.1173780
693.8723, 0.4468990
694.3544, 1.158516
694.8365, 1.796982
695.3186, 2.416603
695.8007, 2.809181
696.2828, 2.681908
696.7650, 2.232399
697.2471, 2.057388
697.7292, 2.581299
698.2113, 2.948753
698.6934, 2.320068
699.1755, 1.277039
699.6577, 0.8606640
700.1398, 1.152138
700.6219, 1.438065
701.1040, 1.197716
701.5861, 0.5998230
702.0682, 0.2071000
702.5504, 7.5545996E-02
703.0325, 2.0316999E-02
703.5146, 0.1004490
703.9967, 0.1993260
704.4788, 0.1328350
704.9609, 6.7199998E-02
705.4431, 0.4432070
705.9252, 1.585159
706.4073, 2.474670
706.8894, 2.039787
707.3715, 0.9381030
707.8536, 0.3986130
708.3358, 0.5310360
708.8179, 0.9053500
709.3000, 1.319283
709.7821, 1.669380
710.2642, 1.572998
710.7463, 0.6820980
711.2285, 0.1296690
711.7106, 0.2793810
712.1927, 0.4296190
712.6748, 6.4902999E-02
713.1569, 0.4599990
713.6390, 0.4722140
714.1212, 0.2577130
714.6033, 0.9963610
715.0854, 1.117432
715.5675, 0.8640210
716.0496, 0.6600110
716.5317, 0.5247570
717.0139, 0.4216160
717.4960, 0.3194890
717.9781, 0.2586060
718.4602, 0.2834550
718.9423, 0.3969880
719.4244, 0.5239940
719.9066, 0.8501660
720.3887, 0.9907380
720.8708, 0.6576920
721.3529, 0.1910020
721.8350, 9.6819997E-03
722.3171, 0.1237870
722.7993, 0.3335720
723.2814, 0.4848180
723.7635, 0.5898060
724.2456, 0.6330490
724.7277, 0.6089480
725.2098, 0.5819850
725.6920, 0.5898820
726.1741, 0.6066360
726.6562, 0.5551680
727.1383, 0.4354860
727.6204, 0.1141200
728.1025, 0.9717330
728.5847, 1.523361
729.0668, 0.8674550
729.5489, 8.7883003E-02
730.0310, 0.5704040
730.5131, 0.5531690
730.9952, 0.4278180
731.4774, 0.3839490
731.9595, 0.3991320
732.4416, 0.4706730
732.9237, 0.5805130
733.4058, 0.6268540
733.8879, 0.5823900
734.3701, 0.5419390
734.8522, 0.5597990
735.3343, 0.6465300
735.8164, 0.8651200
736.2985, 1.356323
736.7806, 1.789581
737.2628, 2.371803
737.7449, 2.681824
738.2270, 2.228943
738.7091, 1.340553
739.1912, 0.7356800
739.6733, 0.7122800
740.1555, 0.8904110
740.6376, 0.9091110
741.1197, 0.8229680
741.6018, 0.7432860
742.0839, 0.6834720
742.5660, 0.7634280
743.0482, 1.076172
743.5303, 1.475082
744.0124, 1.682556
744.4945, 1.611473
744.9766, 1.601151
745.4587, 1.692215
745.9409, 1.790230
746.4230, 1.880180
746.9051, 1.950050
747.3872, 1.933197
747.8693, 1.837074
748.3514, 1.887047
748.8336, 2.482338
749.3157, 3.174240
749.7978, 3.229378
750.2799, 2.740303
750.7620, 2.121452
751.2441, 1.490547
751.7263, 1.004578
752.2084, 0.8101880
752.6905, 0.9023360
753.1726, 1.315231
753.6547, 2.680893
754.1368, 3.386894
754.6190, 2.761162
755.1011, 1.848808
755.5832, 1.268898
756.0653, 1.050667
756.5474, 1.078316
757.0295, 1.388237
757.5117, 1.763458
757.9938, 1.965843
758.4759, 2.114098
758.9580, 2.604652
759.4401, 3.398315
759.9222, 3.762543
760.4044, 3.180061
760.8865, 2.051514
761.3686, 1.385681
761.8507, 1.329842
762.3328, 1.276421
762.8149, 1.175377
763.2971, 1.152985
763.7792, 1.301682
764.2613, 1.512878
764.7434, 1.676888
765.2255, 1.784126
765.7076, 1.741051
766.1898, 1.304253
766.6719, 0.8783340
767.1540, 1.038040
767.6361, 1.508301
768.1182, 1.491432
768.6003, 0.7621000
769.0825, 0.1412960
769.5646, 0.6446380
770.0467, 0.7563250
770.5288, 0.3988110
771.0109, 0.7071230
771.4930, 1.338219
771.9752, 1.001602
772.4573, 0.3471980
772.9394, 0.1339800
773.4215, 0.4495390
773.9036, 0.6219790
774.3857, 0.5672230
774.8679, 0.4990840
775.3500, 0.5803760
775.8321, 0.6340710
776.3142, 0.3172380
776.7963, 0.2236790
777.2784, 0.4037020
777.7606, 0.1204760
778.2427, 0.8883060
778.7248, 1.151756
779.2069, 0.9551090
779.6890, 0.6930240
780.1711, 0.3144990
780.6533, 9.6686997E-02
781.1354, 0.2887800
781.6175, 0.6236800
782.0996, 0.5821150
782.5817, 4.5502000E-02
783.0638, 0.2785800
783.5460, 3.8933001E-02
784.0281, 4.5540001E-02
784.5102, 0.5412830
784.9923, 1.306786
785.4744, 1.647530
785.9565, 1.435532
786.4387, 1.007355
786.9208, 0.5448910
787.4029, 0.2058720
787.8850, 0.2705460
788.3671, 0.6271970
788.8492, 0.7630620
789.3314, 0.5602490
789.8135, 0.3486630
790.2956, 0.3942490
790.7777, 0.6346360
791.2598, 0.7993770
791.7419, 0.7132570
792.2241, 0.8843770
792.7062, 1.706253
793.1883, 2.374176
793.6704, 2.514076
794.1525, 2.264145
794.6346, 1.747009
795.1168, 0.9442370
795.5989, 0.4379270
796.0810, 0.8217770
796.5631, 1.493500
797.0452, 1.807106
797.5273, 1.813484
798.0095, 1.780937
798.4916, 1.791855
798.9737, 1.673752
799.4558, 1.168022
799.9379, 0.3753740
800.4200, 0.1497650
800.9022, 0.7150040
801.3843, 1.019073
801.8664, 0.5131990
802.3485, 8.8469997E-02
802.8306, 0.7585300
803.3127, 2.131142
803.7949, 2.968613
804.2770, 2.929680
804.7591, 2.761078
805.2412, 2.438721
805.7233, 2.267326
806.2054, 2.687508
806.6876, 3.436943
807.1697, 3.850983
807.6518, 3.667953
808.1339, 3.392555
808.6160, 3.674301
809.0981, 4.322708
809.5803, 4.634987
810.0624, 4.599976
810.5445, 4.669693
811.0266, 5.018944
811.5087, 5.492226
811.9908, 5.903648
812.4730, 6.254051
812.9551, 6.701767
813.4372, 7.635765
813.9193, 8.107201
814.4014, 7.586876
814.8835, 6.957901
815.3657, 6.764267
815.8478, 6.983551
816.3299, 7.459053
816.8120, 8.254204
817.2941, 8.950165
817.7762, 9.144836
818.2584, 9.134247
818.7405, 9.231323
819.2226, 9.498909
819.7047, 10.14240
820.1868, 11.24971
820.6689, 12.21548
821.1511, 11.98962
821.6332, 10.68266
822.1153, 10.60123
822.5974, 12.11388
823.0795, 13.46101
823.5616, 14.05142
824.0438, 14.36002
824.5259, 14.89838
825.0080, 15.62551
825.4901, 16.12309
825.9722, 16.06386
826.4543, 16.19847
826.9365, 16.51518
827.4186, 17.20140
827.9007, 18.75280
828.3828, 20.80115
828.8649, 22.37186
829.3470, 23.02956
829.8292, 23.63528
830.3113, 25.00098
830.7934, 26.92199
831.2755, 29.06850
831.7576, 31.38941
832.2397, 33.60513
832.7219, 35.60104
833.2040, 37.65702
833.6861, 40.07574
834.1682, 42.88335
834.6503, 46.22035
835.1324, 50.15387
835.6146, 54.42347
836.0967, 58.79997
836.5788, 63.63470
837.0609, 69.59247
837.5430, 76.19362
838.0251, 82.00626
838.5073, 86.10950
838.9894, 91.14835
839.4715, 98.70463
839.9536, 106.9559
840.4357, 114.3382
840.9178, 121.2923
841.4000, 128.8924
841.8821, 137.5181
842.3642, 146.7969
842.8463, 156.2852
843.3284, 166.2037
843.8105, 177.1344
844.2927, 189.0786
844.7748, 202.1007
845.2569, 216.2733
845.7390, 231.1901
846.2211, 246.4991
846.7032, 262.3321
847.1854, 279.8610
847.6675, 299.4526
848.1496, 319.7565
848.6317, 342.9892
849.1138, 364.3803
849.5959, 382.2055
850.0781, 396.8996
850.5602, 409.7464
851.0423, 421.1673
851.5244, 427.4191
852.0065, 427.5619
852.4886, 421.7886
852.9708, 409.3017
853.4529, 391.4362
853.9350, 368.9402
854.4171, 342.7887
854.8992, 315.5821
855.3813, 288.7467
855.8635, 262.8307
856.3456, 238.3590
856.8277, 215.5118
857.3098, 194.4741
857.7919, 175.4408
858.2740, 158.1751
858.7562, 142.5756
859.2383, 128.5388
859.7204, 115.9099
860.2025, 104.6810
860.6846, 95.15405
861.1667, 87.92541
861.6489, 81.39988
862.1310, 75.37709
862.6131, 69.75129
863.0952, 64.26485
863.5773, 59.00270
864.0594, 54.45135
864.5416, 50.95026
865.0237, 47.82300
865.5058, 44.87203
865.9879, 42.10486
866.4700, 39.54216
866.9521, 37.14364
867.4343, 34.81364
867.9164, 32.51836
868.3985, 30.38449
868.8806, 28.42998
869.3627, 26.78684
869.8448, 25.80280
870.3270, 25.36279
870.8091, 24.61475
871.2912, 23.31640
871.7733, 21.99796
872.2554, 21.15159
872.7375, 20.66824
873.2197, 19.94886
873.7018, 18.70883
874.1839, 18.06731
874.6660, 18.53807
875.1481, 19.00877
875.6302, 18.62698
876.1124, 18.02438
876.5945, 18.22654
877.0766, 19.41166
877.5587, 20.32685
878.0408, 20.29065
878.5229, 20.44344
879.0051, 21.57246
879.4872, 23.04764
879.9693, 24.07452
880.4514, 24.62212
880.9335, 25.10847
881.4156, 25.70599
881.8978, 26.45035
882.3799, 27.67816
882.8620, 28.97656
883.3441, 29.47433
883.8262, 29.16123
884.3083, 28.37526
884.7905, 27.25716
885.2726, 25.96114
885.7547, 24.62891
886.2368, 23.30189
886.7189, 22.45247
887.2010, 22.19640
887.6832, 21.86642
888.1653, 21.21642
888.6474, 20.65585
889.1295, 20.45455
889.6116, 20.61159
890.0938, 21.15443
890.5759, 22.41460
891.0580, 23.37719
891.5401, 23.87999
892.0222, 24.23795
892.5043, 24.42140
892.9865, 24.63257
893.4686, 25.18083
893.9507, 26.06077
894.4328, 26.82859
894.9149, 27.38851
895.3970, 27.64290
895.8792, 27.47292
896.3613, 26.98243
896.8434, 26.23325
897.3255, 25.29654
897.8076, 24.37120
898.2897, 23.55377
898.7719, 22.65012
899.2540, 21.35384
899.7361, 19.75142
900.2182, 18.19456
900.7003, 16.67175
901.1824, 14.87100
901.6646, 12.64347
902.1467, 10.48460
902.6288, 8.862831
903.1109, 7.737686
903.5930, 6.947182
904.0751, 6.653290
904.5573, 6.214523
905.0394, 5.551666
905.5215, 4.783340
906.0036, 3.671135
906.4857, 2.650238
906.9678, 2.597549
907.4500, 3.678749
907.9321, 4.059845
908.4142, 2.928551
908.8963, 1.809937
909.3784, 1.054718
909.8605, 0.6814730
910.3427, 0.8093190
910.8248, 1.308449
911.3069, 1.899162
911.7890, 2.549576
912.2711, 2.911064
912.7532, 2.535431
913.2354, 1.859062
913.7175, 1.473450
914.1996, 1.245308
914.6817, 0.5852200
915.1638, 0.5843050
915.6459, 1.418182
916.1280, 1.044327
916.6101, 7.3661998E-02
917.0922, 0.1491170
917.5743, 1.116425
918.0565, 1.334244
918.5386, 0.5372310
919.0207, 0.1354140
919.5028, 2.9387999E-02
919.9849, 0.4310680
920.4670, 0.5060650
920.9492, 0.1468350
921.4313, 2.0843999E-02
921.9134, 0.2050170
922.3955, 0.4630360
922.8776, 0.8773420
923.3597, 1.201126
923.8419, 1.259300
924.3240, 1.067184
924.8061, 0.5903850
925.2882, 0.5499110
925.7703, 1.081627
926.2524, 0.2262340
926.7346, 0.6150820
927.2167, 0.7568280
927.6988, 0.4710620
928.1809, 1.2039000E-02
928.6630, 0.5758130
929.1451, 0.8784640
929.6273, 0.6377030
930.1094, 0.2822190
930.5915, 4.6592999E-02
931.0736, 7.1220003E-02
931.5557, 6.6047996E-02
932.0378, 5.2901998E-02
932.5200, 0.3019710
933.0021, 0.6792980
933.4842, 1.020096
933.9663, 1.137749
934.4484, 1.101372
934.9305, 1.117264
935.4127, 1.150177
935.8948, 0.8623500
936.3769, 0.1589050
936.8590, 0.3251880
937.3411, 0.1345750
937.8232, 0.4370420
938.3054, 0.7312850
938.7875, 0.6993640
939.2696, 0.8812940
939.7517, 1.319870
940.2338, 1.825180
940.7159, 2.311539
941.1981, 2.855629
941.6802, 3.635826
942.1623, 4.574982
942.6444, 5.038979
943.1265, 4.598343
943.6086, 4.394539
944.0908, 4.454720
944.5729, 4.739723
945.0550, 5.349342
945.5371, 6.118271
946.0192, 6.788826
946.5013, 7.331543
946.9835, 8.121971
947.4656, 9.348152
947.9477, 10.70875
948.4298, 12.29333
948.9119, 13.79185
949.3940, 14.92657
949.8762, 15.74940
950.3583, 16.43040
950.8404, 17.01973
951.3225, 17.53532
951.8046, 18.11795
952.2867, 18.49951
952.7689, 18.47877
953.2510, 18.01699
953.7331, 16.76416
954.2152, 14.89471
954.6973, 13.45100
955.1794, 13.09933
955.6616, 13.18512
956.1437, 12.48586
956.6258, 11.32586
957.1079, 10.94664
957.5900, 11.33905
958.0721, 11.99330
958.5543, 12.76184
959.0364, 13.35162
959.5185, 13.44196
960.0006, 13.23753
960.4827, 13.51085
960.9648, 14.34969
961.4470, 14.84577
961.9291, 14.85860
962.4112, 14.81748
962.8933, 14.92870
963.3754, 15.04070
963.8575, 14.92632
964.3397, 14.59425
964.8218, 14.42011
965.3039, 14.41130
965.7860, 14.55012
966.2681, 14.88832
966.7502, 15.31557
967.2324, 15.66203
967.7145, 16.10983
968.1966, 16.97092
968.6787, 18.29202
969.1608, 19.73490
969.6429, 21.16634
970.1251, 22.82268
970.6072, 24.79026
971.0893, 27.01015
971.5714, 29.42894
972.0535, 32.06743
972.5356, 35.07962
973.0178, 38.54125
973.4999, 41.73379
973.9820, 44.50400
974.4641, 46.87695
974.9462, 49.43256
975.4283, 51.09550
975.9105, 50.28711
976.3926, 47.21375
976.8747, 43.16882
977.3568, 38.65327
977.8389, 34.01377
978.3210, 29.32088
978.8032, 24.98575
979.2853, 21.61745
979.7674, 19.03550
980.2495, 16.74809
980.7316, 14.60258
981.2137, 12.68353
981.6959, 11.10448
982.1780, 9.742706
982.6601, 8.300201
983.1422, 6.908920
983.6243, 6.131180
984.1064, 5.947563
984.5886, 5.548401
985.0707, 4.684792
985.5528, 3.832703
986.0349, 3.495003
986.5170, 3.486542
986.9991, 3.100937
987.4813, 2.290260
987.9634, 1.926956
988.4455, 2.187569
988.9276, 2.371048
989.4097, 2.058311
989.8918, 1.652290
990.3740, 1.795593
990.8561, 2.461060
991.3382, 2.547440
991.8203, 1.818779
992.3024, 1.110077
992.7845, 0.2916340
993.2667, 0.1016460
993.7488, 0.4750900
994.2309, 1.457527
994.7130, 1.913483
995.1951, 1.833725
995.6772, 1.710579
996.1594, 1.539124
996.6415, 1.272018
997.1236, 0.6380460
997.6057, 0.1754150
998.0878, 0.3746260
998.5699, 0.9098430
999.0521, 1.151192
999.5342, 0.9913860
1000.016, 0.9451370
1000.498, 1.254517
1000.981, 1.509399
1001.463, 1.681396
1001.945, 1.632561
1002.427, 1.105614
1002.909, 0.3362270
1003.391, 0.1645510
1003.873, 0.2569730
1004.355, 0.1829300
1004.837, 1.7798999E-02
1005.320, 0.2446980
1005.802, 0.8652730
1006.284, 1.412277
1006.766, 1.245834
1007.248, 0.5262300
1007.730, 0.1148680
1008.212, 0.4563290
1008.694, 0.4943160
1009.177, 0.1145710
1009.659, 0.4695970
1010.141, 1.264076
1010.623, 2.001701
1011.105, 2.206482
1011.587, 1.864769
1012.069, 1.183113
1012.551, 0.2065200
1013.033, 0.5349580
1013.516, 0.2359160
1013.998, 0.5406040
1014.480, 0.8481450
1014.962, 0.7822190
1015.444, 0.7655490
1015.926, 0.8903120
1016.408, 1.077805
1016.890, 1.288177
1017.372, 1.456383
1017.855, 1.482155
1018.337, 1.388374
1018.819, 1.217148
1019.301, 0.9867710
1019.783, 0.7424620
1020.265, 0.5087810
1020.747, 0.5125430
1021.229, 0.9644240
1021.712, 1.563850
1022.194, 1.653053
1022.676, 1.303703
1023.158, 1.075417
1023.640, 0.9854810
1024.122, 1.263618
1024.604, 2.022461
1025.086, 2.455307
1025.568, 1.796127
1026.051, 0.5683980
1026.533, 0.2183230
1027.015, 0.7989500
1027.497, 1.083145
1027.979, 0.9991990
1028.461, 0.9462280
1028.943, 1.061913
1029.425, 1.192574
1029.908, 1.210609
1030.390, 1.125313
1030.872, 0.9481350
1031.354, 0.6475980
1031.836, 0.4020840
1032.318, 0.1707610
1032.800, 0.1537170
1033.282, 0.5123830
1033.765, 0.9045560
1034.247, 0.9995650
1034.729, 0.8745500
1035.211, 0.8381420
1035.693, 0.9565050
1036.175, 0.9576870
1036.657, 0.7787400
1037.139, 0.5958940
1037.621, 0.3444060
1038.104, 0.2784420
1038.586, 0.8073810
1039.068, 1.706345
1039.550, 1.968674
1040.032, 1.111008
1040.514, 0.7957000
1040.996, 1.544502
1041.478, 2.065277
1041.960, 1.723534
1042.443, 1.229820
1042.925, 1.300415
1043.407, 1.773689
1043.889, 1.969612
1044.371, 1.868706
1044.853, 1.537010
1045.335, 0.7178190
1045.817, 2.8199999E-04
1046.300, 0.6031040
1046.782, 0.8984300
1047.264, 0.5197140
1047.746, 0.3178250
1048.228, 0.8311690
1048.710, 0.8387370
1049.192, 0.8591610
1049.674, 0.8516690
1050.156, 0.9860690
1050.639, 1.566078
1051.121, 2.083908
1051.603, 2.072884
1052.085, 1.654366
1052.567, 1.256500
1053.049, 0.8821490
1053.531, 0.7441100
1054.013, 1.123184
1054.495, 1.441368
1054.978, 1.342636
1055.460, 1.177605
1055.942, 1.375198
1056.424, 1.788261
1056.906, 1.948196
1057.388, 1.757591
1057.870, 1.379280
1058.352, 0.4368290
1058.835, 0.1584010
1059.317, 0.3377380
1059.799, 1.068962
1060.281, 1.184502
1060.763, 0.8796310
1061.245, 0.8213730
1061.727, 1.205971
1062.209, 1.549820
1062.692, 1.766716
1063.174, 1.819145
1063.656, 1.533783
1064.138, 1.196892
1064.620, 1.063240
1065.102, 1.093384
1065.584, 1.134453
1066.066, 1.159676
1066.548, 1.233803
1067.031, 1.599556
1067.513, 1.809113
1067.995, 1.504570
1068.477, 1.045250
1068.959, 0.5982890
1069.441, 0.3350910
1069.923, 0.5907060
1070.405, 1.446381
1070.887, 1.793610
1071.370, 0.6341780
1071.852, 0.2843170
1072.334, 9.3154997E-02
1072.816, 0.8224560
1073.298, 1.080116
1073.780, 1.081085
1074.262, 1.397194
1074.744, 2.099342
1075.227, 2.627052
1075.709, 2.728600
1076.191, 2.615540
1076.673, 2.213646
1077.155, 1.804977
1077.637, 1.616646
1078.119, 1.581184
1078.601, 1.606430
1079.083, 1.657722
1079.566, 1.625290
1080.048, 1.356514
1080.530, 1.200500
1081.012, 1.391945
1081.494, 1.690384
1081.976, 2.126678
1082.458, 2.435898
1082.940, 2.085800
1083.422, 1.207176
1083.905, 0.7121280
1084.387, 1.073586
1084.869, 1.462280
1085.351, 1.444626
1085.833, 1.360435
1086.315, 1.422020
1086.797, 1.567970
1087.279, 1.798889
1087.761, 2.032265
1088.244, 1.976822
1088.726, 1.428009
1089.208, 1.074272
1089.690, 1.343147
1090.172, 1.729805
1090.654, 2.042488
1091.136, 2.246681
1091.618, 2.224014
1092.101, 2.083763
1092.583, 2.168655
1093.065, 2.557922
1093.547, 2.834885
1094.029, 2.877472
1094.511, 2.746513
1094.993, 2.207680
1095.475, 1.738495
1095.958, 1.948883
1096.440, 2.502769
1096.922, 2.643768
1097.404, 2.221344
1097.886, 1.763382
1098.368, 1.289978
1098.850, 1.020737
1099.332, 1.257874
1099.814, 1.502365
1100.297, 1.243729
1100.779, 0.8208470
1101.261, 0.8576740
1101.743, 1.398384
1102.225, 1.782242
1102.707, 1.600479
1103.189, 1.631500
1103.671, 2.600395
1104.153, 3.201515
1104.636, 2.401779
1105.118, 1.110420
1105.600, 0.3080220
1106.082, 1.6899001E-02
1106.564, 2.0042000E-02
1107.046, 0.4412380
1107.528, 0.8006740
1108.010, 1.187691
1108.493, 1.281120
1108.975, 0.5354310
1109.457, 0.2155460
1109.939, 1.7059000E-02
1110.421, 0.8182450
1110.903, 1.167725
1111.385, 0.7041550
1111.867, 0.5934520
1112.349, 1.485527
1112.832, 1.984573
1113.314, 1.184952
1113.796, 0.4467240
1114.278, 1.052589
1114.760, 2.265526
1115.242, 2.484123
1115.724, 1.493019
1116.206, 1.032234
1116.688, 1.724144
1117.171, 1.924934
1117.653, 0.9758380
1118.135, 0.1181260
1118.617, 4.2419001E-02
1119.099, 0.2338710
1119.581, 0.7566760
1120.063, 1.477394
1120.545, 1.596474
1121.028, 0.6766740
1121.510, 0.1776500
1121.992, 0.3998180
1122.474, 0.5410690
1122.956, 0.1345210
1123.438, 0.1662520
1123.920, 0.4052660
1124.402, 1.540985
1124.885, 2.038109
1125.367, 1.826859
1125.849, 1.242195
1126.331, 3.3882000E-02
1126.813, 0.5214690
1127.295, 0.4440230
1127.777, 1.378174
1128.259, 1.169907
1128.741, 0.3692400
1129.224, 1.7798999E-02
1129.706, 9.7136997E-02
1130.188, 0.4750900
1130.670, 1.214417
1131.152, 1.613335
1131.634, 1.543724
1132.116, 1.266220
1132.598, 0.8719940
1133.080, 0.5505830
1133.563, 0.5197450
1134.045, 0.6800380
1134.527, 0.6567610
1135.009, 0.4625780
1135.491, 0.3482970
1135.973, 0.3325270
1136.455, 0.3541340
1136.937, 0.3925320
1137.420, 0.5985260
1137.902, 1.165199
1138.384, 1.690247
1138.866, 1.081444
1139.348, 0.2166900
1139.830, 0.2168120
1140.312, 0.8132550
1140.794, 1.241608
1141.276, 0.8120420
1141.759, 0.3782730
1142.241, 0.4080120
1142.723, 0.5710530
1143.205, 0.3373640
1143.687, 7.2715998E-02
1144.169, 0.7488940
1144.651, 1.833244
1145.133, 2.056786
1145.615, 1.486023
1146.098, 0.7985380
1146.580, 0.2650300
1147.062, 5.2124001E-02
1147.544, 0.4164890
1148.026, 0.8730850
1148.508, 0.9667280
1148.990, 0.7951430
1149.472, 0.2040180
1149.955, 0.4253080
1150.437, 0.2318800
1150.919, 0.6916730
1151.401, 1.300201
1151.883, 1.070122
1152.365, 0.6436690
1152.847, 0.3469240
1153.329, 0.2025830
1153.812, 0.2489240
1154.294, 0.4232330
1154.776, 0.7887270
1155.258, 1.189003
1155.740, 1.190445
1156.222, 0.6918640
1156.704, 0.5451810
1157.186, 1.679924
1157.668, 2.309837
1158.151, 1.325050
1158.633, 0.2044220
1159.115, 0.1870420
1159.597, 0.1025540
1160.079, 0.2049560
1160.561, 0.6506350
1161.043, 0.8465420
1161.525, 0.6123280
1162.007, 0.4240570
1162.490, 0.2431490
1162.972, 0.2083820
1163.454, 0.4159700
1163.936, 0.7154390
1164.418, 1.032593
1164.900, 1.351753
1165.382, 1.685265
1165.864, 2.076370
1166.347, 1.958656
1166.829, 1.069122
1167.311, 0.4393230
1167.793, 0.2074200
1168.275, 0.3266680
1168.757, 0.8927840
1169.239, 1.484474
1169.721, 1.579437
1170.203, 1.330566
1170.686, 1.424744
1171.168, 1.882301
1171.650, 1.962715
1172.132, 1.624626
1172.614, 1.415443
1173.096, 1.482430
1173.578, 1.688324
1174.060, 1.959518
1174.542, 2.161674
1175.025, 1.979027
1175.507, 1.600868
1175.989, 1.828674
1176.471, 2.415718
1176.953, 2.329330
1177.435, 1.596085
1177.917, 1.045937
1178.399, 0.9773640
1178.882, 1.100006
1179.364, 1.236839
1179.846, 1.310646
1180.328, 1.234047
1180.810, 1.027176
1181.292, 0.4452290
1181.774, 0.1162570
1182.256, 0.3456880
1182.739, 1.611115
1183.221, 2.214790
1183.703, 1.500008
1184.185, 0.7807920
1184.667, 0.9469380
1185.149, 1.252007
1185.631, 1.148148
1186.113, 0.9354780
1186.595, 0.8288880
1187.078, 0.8602910
1187.560, 1.099319
1188.042, 1.526268
1188.524, 1.844185
1189.006, 2.182343
1189.488, 2.061676
1189.970, 0.7753830
1190.452, 0.1823350
1190.934, 0.1139980
1191.417, 0.4208150
1191.899, 1.113792
1192.381, 1.828903
1192.863, 2.253746
1193.345, 2.326958
1193.827, 2.126534
1194.309, 1.449783
1194.791, 1.125412
1195.274, 1.414223
1195.756, 1.586800
1196.238, 1.164764
1196.720, 0.7762990
1197.202, 1.236557
1197.684, 2.166458
1198.166, 2.130989
1198.648, 1.170303
1199.130, 0.8190000
1199.613, 1.083069
1200.095, 1.097717
1200.577, 0.6966400
1201.059, 0.6261220
1201.541, 1.331757
1202.023, 2.054909
1202.505, 1.735741
1202.987, 0.9388350
1203.469, 0.8108060
1203.952, 1.024330
1204.434, 0.8416670
1204.916, 0.3668590
1205.398, 8.3626002E-02
1205.880, 0.1082310
1206.362, 0.3166050
1206.844, 0.7199250
1207.326, 0.9654620
1207.809, 0.6844020
1208.291, 0.2479780
1208.773, 0.3871310
1209.255, 0.7877960
1209.737, 0.2203220
1210.219, 0.8981860
1210.701, 1.564690
1211.183, 1.600601
1211.666, 1.543175
1212.148, 1.430550
1212.630, 1.368866
1213.112, 1.381950
1213.594, 1.444382
1214.076, 1.609665
1214.558, 1.769890
1215.040, 1.745995
1215.522, 1.648956
1216.005, 1.811470
1216.487, 2.314682
1216.969, 2.359520
1217.451, 1.858727
1217.933, 1.286758
1218.415, 0.6238780
1218.897, 0.3930360
1219.379, 0.9141080
1219.861, 1.493759
1220.344, 1.347672
1220.826, 0.8191530
1221.308, 0.8399810
1221.790, 1.252403
1222.272, 1.126045
1222.754, 0.5977020
1223.236, 0.5220030
1223.718, 0.9722140
1224.201, 1.280411
1224.683, 1.133789
1225.165, 0.9466780
1225.647, 1.150597
1226.129, 1.425842
1226.611, 1.375488
1227.093, 1.222122
1227.575, 1.271996
1228.057, 1.406639
1228.540, 1.311768
1229.022, 1.037643
1229.504, 1.039268
1229.986, 1.536659
1230.468, 1.875221
1230.950, 1.779953
1231.432, 1.562149
1231.914, 1.047340
1232.396, 0.7555080
1232.879, 1.381622
1233.361, 2.224625
1233.843, 2.143890
1234.325, 1.289787
1234.807, 0.9900440
1235.289, 1.449028
1235.771, 1.794319
1236.253, 2.062828
1236.736, 2.011208
1237.218, 1.503372
1237.700, 1.051720
1238.182, 0.9762120
1238.664, 1.098335
1239.146, 1.282379
1239.628, 1.447906
1240.110, 1.127228
1240.593, 0.5093230
1241.075, 0.4770890
1241.557, 0.9464110
1242.039, 1.289688
1242.521, 1.379997
1243.003, 1.514397
1243.485, 1.860054
1243.967, 2.194214
1244.449, 2.457726
1244.932, 2.468719
1245.414, 1.798576
1245.896, 1.011627
1246.378, 0.7831190
1246.860, 0.8849950
1247.342, 0.7499470
1247.824, 0.3276670
1248.306, 0.1749420
1248.788, 0.8843920
1249.271, 1.170517
1249.753, 0.2023090
1250.235, 0.2990420
1250.717, 0.5447620
1251.199, 1.385933
1251.681, 1.481689
1252.163, 1.102158
1252.645, 0.4864730
1253.128, 0.2278060
1253.610, 0.1075590
1254.092, 0.9305650
1254.574, 1.873108
1255.056, 2.696510
1255.538, 2.725006
1256.020, 1.830620
1256.502, 1.269501
1256.984, 1.757652
1257.467, 2.394356
1257.949, 2.111946
1258.431, 1.420135
1258.913, 1.099274
1259.395, 1.017853
1259.877, 1.051376
1260.359, 1.094116
1260.841, 0.8988650
1261.323, 0.5247500
1261.806, 0.3346480
1262.288, 0.4602430
1262.770, 0.7368470
1263.252, 1.375114
1263.734, 1.747971
1264.216, 1.271126
1264.698, 0.8289950
1265.180, 1.104576
1265.663, 1.620247
1266.145, 1.823898
1266.627, 1.749184
1267.109, 1.483154
1267.591, 0.9180980
1268.073, 0.8023070
1268.555, 1.137039
1269.037, 1.566269
1269.520, 1.965134
1270.002, 1.906364
1270.484, 1.308365
1270.966, 0.6025090
1271.448, 4.5441002E-02
1271.930, 0.1315990
1272.412, 0.9684300
1272.894, 2.528328
1273.376, 2.425316
1273.859, 1.283676
1274.341, 0.4326170
1274.823, 8.1405997E-02
1275.305, 0.1911090
1275.787, 0.6863100
1276.269, 1.087929
1276.751, 1.194366
1277.233, 1.067070
1277.715, 0.4099960
1278.198, 6.4544998E-02
1278.680, 0.2714000
1279.162, 0.7301480
1279.644, 0.6116030
1280.126, 0.3062060
1280.608, 0.1382450
1281.090, 7.7018999E-02
1281.572, 0.2518310
1282.055, 0.7663650
1282.537, 0.9815060
1283.019, 1.073685
1283.501, 0.9208070
1283.983, 0.4531100
1284.465, 0.1377870
1284.947, 0.2750240
1285.429, 0.4795150
1285.911, 0.3664930
1286.394, 0.0000000E+00
##END=



