##NAMES=Norrishite
##RRUFFID=R130089
##IDEAL CHEMISTRY=KLiMn^3+^_2_Si_4_O_12_
##LOCALITY=Wessels mine, Kalahari Manganese Field, South Africa
##OWNER=RRUFF
##SOURCE=Marcus Origlieri
##DESCRIPTION=Dark brown platy massive cleavages associated with sugilite
##STATUS=The identification of this mineral has been confirmed only by single crystal X-ray diffraction.
##URL=rruff.info/R130089
171.8036, 0.0000000E+00
172.2857, 7.1709000E-02
172.7678, 0.5532760
173.2499, 0.9316830
173.7321, 1.174208
174.2142, 1.261444
174.6963, 0.9140970
175.1784, 0.3600650
175.6605, 4.3483999E-02
176.1426, 0.1121100
176.6248, 7.5398996E-02
177.1069, 0.5064240
177.5890, 1.251728
178.0711, 1.933786
178.5532, 2.057875
179.0353, 1.746614
179.5175, 1.436563
179.9996, 1.291273
180.4817, 1.324522
180.9638, 1.598616
181.4459, 2.171751
181.9280, 2.851847
182.4102, 3.416368
182.8923, 3.866709
183.3744, 4.277899
183.8565, 4.738201
184.3386, 5.196991
184.8207, 5.465031
185.3029, 5.463032
185.7850, 5.365080
186.2671, 5.446518
186.7492, 5.703375
187.2313, 6.046638
187.7134, 6.582005
188.1956, 7.212309
188.6777, 7.398478
189.1598, 6.924746
189.6419, 6.118311
190.1240, 5.679552
190.6061, 5.615499
191.0883, 5.664288
191.5704, 5.659151
192.0525, 5.600950
192.5346, 5.487722
193.0167, 5.289711
193.4988, 5.026648
193.9810, 4.734497
194.4631, 4.393446
194.9452, 4.089760
195.4273, 3.713917
195.9094, 3.269314
196.3915, 3.048004
196.8737, 3.168631
197.3558, 3.520145
197.8379, 3.714075
198.3200, 3.732779
198.8021, 3.686609
199.2842, 3.638412
199.7664, 3.581327
200.2485, 3.625900
200.7306, 3.808167
201.2127, 4.108932
201.6948, 4.451019
202.1769, 4.859915
202.6591, 5.237766
203.1412, 5.478086
203.6233, 5.569994
204.1054, 5.645126
204.5875, 5.783733
205.0696, 5.953863
205.5518, 5.794325
206.0339, 5.207090
206.5160, 4.518049
206.9981, 4.072424
207.4802, 3.920292
207.9623, 3.784376
208.4445, 3.598387
208.9266, 3.364033
209.4087, 3.165548
209.8908, 3.043695
210.3729, 2.915962
210.8550, 2.673502
211.3372, 2.292442
211.8193, 1.976616
212.3014, 1.831976
212.7835, 1.830730
213.2656, 1.893688
213.7477, 2.008055
214.2299, 2.198837
214.7120, 2.413446
215.1941, 2.742113
215.6762, 3.071346
216.1583, 3.271772
216.6404, 3.255148
217.1226, 3.414728
217.6047, 3.858934
218.0868, 4.427910
218.5689, 5.043377
219.0510, 5.832705
219.5331, 6.467897
220.0153, 6.958368
220.4974, 7.307047
220.9795, 7.618286
221.4616, 8.000462
221.9437, 8.240786
222.4258, 8.007252
222.9080, 7.020100
223.3901, 6.167583
223.8722, 5.737120
224.3543, 5.780994
224.8364, 5.716702
225.3185, 5.449354
225.8007, 5.156298
226.2828, 5.095980
226.7649, 5.463419
227.2470, 5.668169
227.7291, 5.449600
228.2112, 4.687660
228.6934, 4.411179
229.1755, 4.845089
229.6576, 5.564016
230.1397, 6.005835
230.6218, 6.032032
231.1039, 6.039618
231.5861, 6.094105
232.0682, 6.173193
232.5503, 6.461531
233.0324, 7.019384
233.5145, 7.730928
233.9966, 8.463459
234.4788, 9.204523
234.9609, 9.992485
235.4430, 10.83860
235.9251, 11.74500
236.4072, 12.71425
236.8893, 13.84942
237.3715, 14.96345
237.8536, 15.87382
238.3357, 16.81246
238.8178, 17.15178
239.2999, 16.66281
239.7820, 15.27104
240.2642, 13.62327
240.7463, 11.49754
241.2284, 9.300711
241.7105, 7.541201
242.1926, 6.393393
242.6747, 5.363628
243.1569, 4.305307
243.6390, 3.172300
244.1211, 2.390831
244.6032, 2.123426
245.0853, 2.054274
245.5674, 1.808554
246.0496, 1.262932
246.5317, 0.7658160
247.0138, 0.3779140
247.4959, 9.6791998E-02
247.9780, 5.1782999E-02
248.4601, 3.5441998E-02
248.9423, 7.8851998E-02
249.4244, 0.2426890
249.9065, 0.5504250
250.3886, 0.7203830
250.8707, 0.6595950
251.3528, 0.3581940
251.8350, 7.6798998E-02
252.3171, 0.2110020
252.7992, 0.4471510
253.2813, 0.5801580
253.7634, 0.6305680
254.2455, 0.5220640
254.7277, 0.1609310
255.2098, 0.4618990
255.6919, 0.8251570
256.1740, 0.8706260
256.6561, 0.7302880
257.1382, 0.5045810
257.6204, 0.1342450
258.1025, 0.1853710
258.5846, 0.4248370
259.0667, 0.5853370
259.5488, 0.6522030
260.0309, 0.6209010
260.5131, 0.5005300
260.9952, 0.2563880
261.4773, 0.2223130
261.9594, 0.5036830
262.4415, 0.4187700
262.9236, 2.6210999E-02
263.4058, 1.2800000E-04
263.8879, 0.5624470
264.3700, 1.113461
264.8521, 1.098700
265.3342, 0.2708150
265.8163, 0.2745910
266.2985, 0.3045520
266.7806, 8.5603997E-02
267.2627, 0.3594190
267.7448, 0.4877470
268.2269, 0.5566120
268.7090, 0.6110480
269.1912, 0.6343860
269.6733, 0.7134780
270.1554, 0.8539730
270.6375, 1.058096
271.1196, 1.381849
271.6017, 1.906853
272.0839, 2.326399
272.5660, 2.356052
273.0481, 1.912365
273.5302, 1.639835
274.0123, 1.638584
274.4944, 1.820286
274.9766, 1.969584
275.4587, 2.119589
275.9408, 2.111210
276.4229, 1.740057
276.9050, 0.9530720
277.3871, 0.4647660
277.8693, 0.3780190
278.3514, 0.5553970
278.8335, 0.7281020
279.3156, 0.9059450
279.7977, 1.029535
280.2798, 1.053566
280.7620, 0.9776820
281.2441, 0.8829540
281.7262, 0.7611080
282.2083, 0.6430850
282.6904, 0.5440880
283.1725, 0.4544510
283.6547, 0.5178640
284.1368, 0.9108700
284.6189, 1.589172
285.1010, 2.038334
285.5831, 2.212555
286.0652, 2.254917
286.5474, 2.344229
287.0295, 2.480421
287.5116, 2.663975
287.9937, 2.951130
288.4758, 3.307568
288.9579, 3.503094
289.4401, 3.523355
289.9222, 3.472412
290.4043, 3.457092
290.8864, 3.476387
291.3685, 3.521502
291.8506, 3.581432
292.3328, 3.665720
292.8149, 3.783592
293.2970, 3.930574
293.7791, 4.163532
294.2612, 4.538975
294.7433, 5.048227
295.2255, 5.657402
295.7076, 6.353765
296.1897, 7.140783
296.6718, 8.020140
297.1539, 8.987484
297.6360, 10.01882
298.1182, 11.13675
298.6003, 12.29851
299.0824, 13.42204
299.5645, 14.47646
300.0466, 15.49463
300.5287, 16.74310
301.0109, 18.13047
301.4930, 19.03156
301.9751, 18.99686
302.4572, 18.16169
302.9393, 16.67669
303.4214, 14.35174
303.9036, 11.76748
304.3857, 9.369568
304.8678, 7.195583
305.3499, 5.332338
305.8320, 3.838991
306.3141, 2.705782
306.7963, 1.992441
307.2784, 1.775753
307.7605, 1.734777
308.2426, 1.671576
308.7247, 1.583004
309.2068, 1.461308
309.6890, 1.197359
310.1711, 0.9390430
310.6532, 0.8411750
311.1353, 0.9435460
311.6174, 1.126863
312.0995, 1.413944
312.5817, 1.740768
313.0638, 1.979994
313.5459, 2.021788
314.0280, 1.973305
314.5101, 1.846487
314.9922, 1.632050
315.4744, 1.527666
315.9565, 1.659323
316.4386, 1.929554
316.9207, 2.226662
317.4028, 2.655706
317.8849, 2.996548
318.3671, 3.146776
318.8492, 3.109219
319.3313, 3.091633
319.8134, 3.106836
320.2955, 3.179037
320.7776, 3.314089
321.2598, 3.579712
321.7419, 3.874109
322.2240, 4.099817
322.7061, 4.283314
323.1882, 4.609571
323.6703, 5.279831
324.1525, 5.989895
324.6346, 6.566776
325.1167, 6.726994
325.5988, 7.064997
326.0809, 7.802759
326.5630, 8.772465
327.0452, 9.516579
327.5273, 9.741205
328.0094, 9.959030
328.4915, 10.37325
328.9736, 11.15376
329.4557, 11.74699
329.9379, 12.17639
330.4200, 12.41119
330.9021, 12.39516
331.3842, 12.04183
331.8663, 11.55036
332.3484, 10.93263
332.8306, 10.17075
333.3127, 9.469648
333.7948, 8.819265
334.2769, 8.236113
334.7590, 7.739954
335.2411, 7.310101
335.7233, 7.003311
336.2054, 6.843498
336.6875, 6.825401
337.1696, 6.891932
337.6517, 7.052891
338.1339, 7.279474
338.6160, 7.563660
339.0981, 7.925816
339.5802, 8.258156
340.0623, 8.558121
340.5444, 8.810415
341.0266, 8.954937
341.5087, 8.993086
341.9908, 8.930105
342.4729, 8.792431
342.9550, 8.580650
343.4371, 8.132500
343.9193, 7.377832
344.4014, 6.496408
344.8835, 5.852259
345.3656, 5.443562
345.8477, 5.013182
346.3298, 4.385649
346.8120, 3.615910
347.2941, 2.956903
347.7762, 2.406209
348.2583, 1.978421
348.7404, 1.713131
349.2225, 1.591366
349.7047, 1.537766
350.1868, 1.623133
350.6689, 1.714540
351.1510, 1.494037
351.6331, 0.9694480
352.1152, 0.4899000
352.5974, 0.4347270
353.0795, 0.6193790
353.5616, 0.6858180
354.0437, 0.4333760
354.5258, 0.1557020
355.0079, 0.1918250
355.4901, 0.4820800
355.9722, 0.7634590
356.4543, 0.8438850
356.9364, 0.8471280
357.4185, 0.9045910
357.9006, 1.056845
358.3828, 1.220786
358.8649, 1.355091
359.3470, 1.463324
359.8291, 1.555162
360.3112, 1.592121
360.7933, 1.646942
361.2755, 1.760624
361.7576, 1.937824
362.2397, 2.158669
362.7218, 2.465561
363.2039, 2.795098
363.6860, 3.076556
364.1682, 3.183890
364.6503, 3.346920
365.1324, 3.713203
365.6145, 4.271528
366.0966, 4.649120
366.5787, 4.634532
367.0609, 4.507386
367.5430, 4.454428
368.0251, 4.819676
368.5072, 4.869413
368.9893, 4.381655
369.4714, 3.518282
369.9536, 2.813779
370.4357, 2.343572
370.9178, 1.950656
371.3999, 1.576509
371.8820, 1.197612
372.3641, 0.8914610
372.8463, 0.6716230
373.3284, 0.5188440
373.8105, 0.4228770
374.2926, 0.4502200
374.7747, 0.3740430
375.2568, 5.3546000E-02
375.7390, 0.5177190
376.2211, 0.7309160
376.7032, 0.4702310
377.1853, 9.8420002E-02
377.6674, 2.9160000E-02
378.1495, 0.1141730
378.6317, 0.2762810
379.1138, 0.4432390
379.5959, 0.5777810
380.0780, 0.5313390
380.5601, 0.2878500
381.0422, 3.9907001E-02
381.5244, 2.8506000E-02
382.0065, 3.3171002E-02
382.4886, 6.5333001E-02
382.9707, 0.3835900
383.4528, 0.7818780
383.9349, 1.061132
384.4171, 1.242638
384.8992, 1.439441
385.3813, 1.766810
385.8634, 2.129827
386.3455, 2.324381
386.8276, 2.335154
387.3098, 2.387173
387.7919, 2.780588
388.2740, 3.338188
388.7561, 3.735058
389.2382, 3.735223
389.7203, 3.663041
390.2025, 3.794079
390.6846, 4.093262
391.1667, 4.400209
391.6488, 4.591984
392.1309, 4.768469
392.6130, 5.007423
393.0952, 5.307823
393.5773, 5.701584
394.0594, 6.296940
394.5415, 6.984449
395.0236, 7.560903
395.5057, 7.750589
395.9879, 8.005764
396.4700, 8.572339
396.9521, 9.537514
397.4342, 10.35110
397.9163, 10.82806
398.3984, 11.16947
398.8806, 11.54835
399.3627, 12.14314
399.8448, 12.58409
400.3269, 12.89773
400.8090, 13.05551
401.2911, 12.82374
401.7733, 11.98862
402.2554, 11.01584
402.7375, 10.15647
403.2196, 9.531495
403.7017, 8.755368
404.1838, 7.705926
404.6660, 6.530029
405.1481, 5.554351
405.6302, 4.805248
406.1123, 4.164795
406.5944, 3.588963
407.0765, 3.082649
407.5587, 2.596471
408.0408, 2.107359
408.5229, 1.717499
409.0050, 1.603828
409.4871, 1.741842
409.9692, 1.780278
410.4514, 1.628163
410.9335, 1.357460
411.4156, 1.043081
411.8977, 0.6989600
412.3798, 0.4987800
412.8619, 0.7344930
413.3441, 1.166283
413.8262, 1.305989
414.3083, 1.063051
414.7904, 0.7311500
415.2725, 0.5469040
415.7546, 0.4852320
416.2368, 0.4889190
416.7189, 0.6209820
417.2010, 0.7464670
417.6831, 0.7118000
418.1652, 0.5292250
418.6473, 0.4168710
419.1295, 0.5435310
419.6116, 0.7696310
420.0937, 0.9734320
420.5758, 1.142925
421.0579, 1.264123
421.5400, 1.393752
422.0222, 1.476274
422.5043, 1.377707
422.9864, 0.7069310
423.4685, 0.1650570
423.9506, 5.4690000E-02
424.4327, 0.5338720
424.9149, 0.9802520
425.3970, 1.466689
425.8791, 1.857803
426.3612, 2.001643
426.8433, 1.654550
427.3254, 1.451820
427.8076, 1.541336
428.2897, 1.872691
428.7718, 2.076331
429.2539, 2.102563
429.7360, 2.097744
430.2181, 2.138309
430.7003, 2.223355
431.1824, 2.358513
431.6645, 2.543126
432.1466, 2.778512
432.6287, 3.098726
433.1108, 3.502987
433.5930, 3.815882
434.0751, 3.949008
434.5572, 4.000157
435.0393, 4.223961
435.5214, 4.603689
436.0035, 4.995202
436.4857, 5.306379
436.9678, 5.526458
437.4499, 5.642414
437.9320, 5.667633
438.4141, 5.599818
438.8962, 5.380737
439.3784, 5.033945
439.8605, 4.663691
440.3426, 4.356234
440.8247, 4.035673
441.3068, 3.607408
441.7889, 3.057263
442.2711, 2.533051
442.7532, 1.962142
443.2353, 1.516525
443.7174, 1.374823
444.1995, 2.021544
444.6816, 2.521514
445.1638, 2.560832
445.6459, 2.217252
446.1280, 1.861252
446.6101, 1.306531
447.0922, 0.9488500
447.5743, 1.028088
448.0565, 1.854113
448.5386, 2.327537
449.0207, 2.308611
449.5028, 2.022011
449.9849, 1.742588
450.4670, 1.454934
450.9492, 1.203856
451.4313, 1.001836
451.9134, 0.8460110
452.3955, 0.7288030
452.8776, 0.6603800
453.3597, 0.6041760
453.8419, 0.5469250
454.3240, 0.4884440
454.8061, 0.3690340
455.2882, 0.1565880
455.7703, 4.3802999E-02
456.2524, 2.0850001E-02
456.7346, 0.1897420
457.2167, 0.3473280
457.6988, 0.2649360
458.1809, 0.1039430
458.6630, 0.2384900
459.1451, 0.6418100
459.6273, 0.9014370
460.1094, 0.4743820
460.5915, 0.2051150
461.0736, 0.5426620
461.5557, 0.2777730
462.0378, 5.6224000E-02
462.5200, 9.0993002E-02
463.0021, 5.0802000E-02
463.4842, 0.1312020
463.9663, 3.9321002E-02
464.4484, 0.2100470
464.9305, 0.2479940
465.4127, 0.1277690
465.8948, 2.3589000E-02
466.3769, 2.0639999E-03
466.8590, 1.1234000E-02
467.3411, 4.8069999E-02
467.8232, 0.1850490
468.3054, 0.2593040
468.7875, 0.2428780
469.2696, 0.1640090
469.7517, 0.1011460
470.2338, 0.1057090
470.7159, 2.5483999E-02
471.1981, 0.2449220
471.6802, 0.7191000
472.1623, 0.9435060
472.6444, 0.8496270
473.1265, 0.6864410
473.6086, 0.6986930
474.0908, 0.8843280
474.5729, 1.116796
475.0550, 1.402055
475.5371, 1.676692
476.0192, 1.801238
476.5013, 1.791675
476.9835, 1.769887
477.4656, 1.745958
477.9477, 1.769966
478.4298, 1.981376
478.9119, 2.392293
479.3940, 2.756474
479.8762, 2.790343
480.3583, 2.689187
480.8404, 2.716076
481.3225, 3.015240
481.8046, 3.358541
482.2867, 3.689116
482.7689, 3.980770
483.2510, 4.173610
483.7331, 4.063360
484.2152, 4.016953
484.6973, 4.208590
485.1794, 4.674853
485.6616, 5.169810
486.1437, 5.784124
486.6258, 6.377831
487.1079, 6.827787
487.5900, 7.023956
488.0721, 7.205417
488.5543, 7.354158
489.0364, 7.515495
489.5185, 7.862591
490.0006, 8.470846
490.4827, 9.021659
490.9648, 9.384580
491.4470, 9.552402
491.9291, 9.543689
492.4112, 9.332191
492.8933, 9.076574
493.3754, 9.004109
493.8575, 9.045910
494.3397, 8.880108
494.8218, 8.388393
495.3039, 7.756886
495.7860, 7.215931
496.2681, 6.750502
496.7502, 6.311365
497.2324, 5.829666
497.7145, 5.381487
498.1966, 5.021929
498.6787, 4.751227
499.1608, 4.602084
499.6429, 4.708999
500.1251, 4.880937
500.6072, 4.950164
501.0893, 4.831079
501.5714, 4.675801
502.0535, 4.449438
502.5356, 4.205693
503.0178, 4.062168
503.4999, 4.161285
503.9820, 4.211671
504.4641, 4.102957
504.9462, 3.823463
505.4283, 3.706770
505.9105, 3.842876
506.3926, 4.004353
506.8747, 4.011671
507.3568, 3.842678
507.8389, 3.673149
508.3210, 3.521297
508.8032, 3.375797
509.2853, 3.221707
509.7674, 3.058661
510.2495, 2.880863
510.7316, 2.660563
511.2137, 2.432735
511.6959, 2.288673
512.1780, 2.222885
512.6601, 2.149659
513.1422, 1.989938
513.6243, 1.788133
514.1064, 1.617190
514.5886, 1.500369
515.0707, 1.380453
515.5528, 1.150806
516.0349, 0.9206840
516.5170, 0.8465360
516.9991, 1.193013
517.4813, 1.427742
517.9634, 1.284738
518.4455, 0.8002440
518.9276, 0.4205660
519.4097, 0.3109600
519.8918, 0.2954050
520.3740, 0.2982020
520.8561, 0.3337860
521.3382, 0.2997280
521.8203, 0.1214070
522.3024, 2.0004001E-02
522.7845, 0.1732560
523.2667, 0.8057670
523.7488, 1.152025
524.2309, 0.9784250
524.7130, 0.5136890
525.1951, 0.3397890
525.6772, 0.4446240
526.1594, 0.5679420
526.6415, 0.5687320
527.1236, 0.4905530
527.6057, 0.3685030
528.0878, 0.1976000
528.5699, 0.1564430
529.0521, 0.5759070
529.5342, 1.145656
530.0163, 1.440988
530.4984, 1.239481
530.9805, 0.9457650
531.4626, 0.7252990
531.9448, 0.5759610
532.4269, 0.4939670
532.9090, 0.5636730
533.3911, 0.6158700
533.8732, 0.5614960
534.3553, 0.3927220
534.8375, 0.3243570
535.3196, 0.4273760
535.8017, 0.5653230
536.2838, 0.6759850
536.7659, 0.7891240
537.2480, 0.7787980
537.7302, 0.5995720
538.2123, 0.3579090
538.6944, 0.2123680
539.1765, 0.1668290
539.6586, 0.1515380
540.1407, 0.1681810
540.6229, 0.1856700
541.1050, 9.6070997E-02
541.5871, 8.6648002E-02
542.0692, 0.2232830
542.5513, 0.1643110
543.0334, 2.8308000E-02
543.5156, 4.5986000E-02
543.9977, 0.2423670
544.4798, 0.3382850
544.9619, 7.1001999E-02
545.4440, 0.5999270
545.9261, 0.8114190
546.4083, 0.3413320
546.8904, 0.1041920
547.3725, 0.3116880
547.8546, 0.3255720
548.3367, 0.2462640
548.8188, 6.2017001E-02
549.3010, 0.3018990
549.7831, 0.3677540
550.2652, 0.2630750
550.7473, 0.2576730
551.2294, 0.4209650
551.7115, 0.5658870
552.1937, 0.5575000
552.6758, 0.3749230
553.1579, 0.2300510
553.6400, 0.1224800
554.1221, 7.9065003E-02
554.6042, 0.1863640
555.0864, 0.4138670
555.5685, 0.5656820
556.0506, 0.5554200
556.5327, 0.4746780
557.0148, 0.4636690
557.4969, 0.4980580
557.9791, 0.4863300
558.4612, 0.1970430
558.9433, 3.6750000E-02
559.4254, 0.1744210
559.9075, 0.8650690
560.3896, 1.365342
560.8718, 1.254290
561.3539, 0.9344600
561.8360, 0.6979240
562.3181, 0.5985830
562.8002, 0.5701060
563.2823, 0.6740750
563.7645, 0.8162880
564.2466, 0.8406870
564.7287, 0.6733010
565.2108, 0.5596500
565.6929, 0.5822380
566.1750, 0.6983820
566.6572, 0.7022530
567.1393, 0.5792020
567.6214, 0.4485190
568.1035, 0.3735050
568.5856, 0.3480560
569.0677, 0.3462270
569.5499, 0.3667250
570.0320, 0.4160740
570.5141, 0.5322190
570.9962, 0.6731930
571.4783, 0.7842130
571.9604, 0.8949310
572.4426, 0.8847810
572.9247, 0.4764780
573.4068, 7.6676004E-02
573.8889, 0.3300570
574.3710, 0.1426000
574.8531, 0.6600020
575.3353, 1.039348
575.8174, 1.271592
576.2995, 1.373090
576.7816, 1.328204
577.2637, 1.169686
577.7458, 0.8430810
578.2280, 0.2526600
578.7101, 5.2928999E-02
579.1922, 0.3410880
579.6743, 0.8039640
580.1564, 1.143984
580.6385, 1.373167
581.1207, 1.534341
581.6028, 1.634852
582.0849, 1.658860
582.5670, 1.514241
583.0491, 1.260262
583.5313, 1.083362
584.0134, 1.153643
584.4955, 1.283145
584.9776, 1.287240
585.4597, 1.187711
585.9418, 1.113635
586.4240, 1.088312
586.9061, 1.137867
587.3882, 1.302463
587.8703, 1.634029
588.3524, 1.887929
588.8345, 1.975211
589.3167, 2.012765
589.7988, 2.089879
590.2809, 2.226078
590.7630, 2.356280
591.2451, 2.470786
591.7272, 2.582982
592.2094, 2.697831
592.6915, 2.797843
593.1736, 3.012129
593.6557, 3.437353
594.1378, 3.969681
594.6199, 4.383073
595.1021, 4.674165
595.5842, 4.882140
596.0663, 4.954936
596.5484, 4.995353
597.0305, 5.084371
597.5126, 5.224747
597.9948, 5.540667
598.4769, 6.215894
598.9590, 7.027859
599.4411, 7.783014
599.9232, 8.380990
600.4053, 9.037924
600.8875, 9.857563
601.3696, 10.71872
601.8517, 11.42103
602.3338, 11.74939
602.8159, 12.41420
603.2980, 13.62863
603.7802, 15.18460
604.2623, 16.37512
604.7444, 17.13295
605.2265, 18.01785
605.7086, 19.46244
606.1907, 21.26522
606.6729, 22.75635
607.1550, 23.92126
607.6371, 25.11963
608.1192, 26.65295
608.6013, 28.31297
609.0834, 29.78415
609.5656, 30.94984
610.0477, 32.36263
610.5298, 34.52456
611.0119, 37.00687
611.4940, 39.35683
611.9761, 41.28162
612.4583, 43.27048
612.9404, 45.56776
613.4225, 47.93690
613.9046, 49.98524
614.3867, 51.67206
614.8688, 53.04183
615.3510, 54.04948
615.8331, 54.74654
616.3152, 55.65182
616.7973, 56.83918
617.2794, 57.48661
617.7615, 56.89479
618.2437, 55.30331
618.7258, 53.40135
619.2079, 51.20889
619.6900, 48.62043
620.1721, 45.28470
620.6542, 41.59864
621.1364, 38.06084
621.6185, 34.73495
622.1006, 31.58670
622.5827, 28.53352
623.0648, 25.63607
623.5469, 22.97850
624.0291, 20.63544
624.5112, 18.46695
624.9933, 16.38589
625.4754, 14.45959
625.9575, 12.99415
626.4396, 12.10351
626.9218, 11.31224
627.4039, 10.42257
627.8860, 9.474570
628.3681, 8.746714
628.8502, 8.245779
629.3323, 7.778995
629.8145, 7.154129
630.2966, 6.475397
630.7787, 5.938891
631.2608, 5.562161
631.7429, 5.237164
632.2250, 4.982991
632.7072, 4.733950
633.1893, 4.419012
633.6714, 3.882012
634.1535, 3.521319
634.6356, 3.619310
635.1177, 3.908554
635.5999, 3.963345
636.0820, 3.699082
636.5641, 3.308396
637.0462, 2.723475
637.5283, 2.061738
638.0104, 1.760053
638.4926, 1.872175
638.9747, 1.986226
639.4568, 1.896434
639.9389, 1.669618
640.4210, 1.540112
640.9031, 1.501617
641.3853, 1.461837
641.8674, 1.363911
642.3495, 1.221455
642.8316, 1.025555
643.3137, 0.7627850
643.7958, 0.5669700
644.2780, 0.5710360
644.7601, 0.6330580
645.2422, 0.6241360
645.7243, 0.3921810
646.2064, 0.2985390
646.6885, 0.4804060
647.1707, 0.7342790
647.6528, 0.7722370
648.1349, 0.5200610
648.6170, 0.2818830
649.0991, 8.4283002E-02
649.5812, 4.0525999E-02
650.0634, 4.4068001E-02
650.5455, 0.3190400
651.0276, 0.4938810
651.5097, 0.3072380
651.9918, 1.8145001E-02
652.4739, 0.1079300
652.9561, 0.4994320
653.4382, 0.7943610
653.9203, 0.6544810
654.4024, 0.4133260
654.8845, 0.2712260
655.3666, 0.2479910
655.8488, 0.3348610
656.3309, 0.7469160
656.8130, 1.100517
657.2951, 1.144970
657.7772, 0.7174480
658.2593, 0.4271060
658.7415, 0.3209180
659.2236, 0.2760610
659.7057, 0.1124140
660.1878, 0.1642100
660.6699, 0.2632780
661.1520, 8.2543999E-02
661.6342, 0.1701980
662.1163, 0.1532540
662.5984, 3.1367999E-02
663.0805, 0.1081740
663.5626, 0.2260470
664.0447, 0.5084380
664.5269, 0.2669800
665.0090, 0.3038530
665.4911, 0.6409020
665.9732, 0.3481330
666.4553, 1.1239000E-02
666.9374, 0.1482410
667.4196, 0.1437040
667.9017, 0.2078480
668.3838, 0.4252940
668.8659, 0.5520780
669.3480, 0.3873800
669.8301, 6.1136998E-02
670.3123, 0.1707090
670.7944, 9.4356999E-02
671.2765, 0.4271900
671.7586, 0.5912860
672.2407, 0.6181740
672.7228, 0.5594240
673.2050, 0.4193940
673.6871, 0.2671770
674.1692, 6.3561000E-02
674.6513, 8.9734003E-02
675.1334, 8.0530003E-02
675.6155, 0.2050330
676.0977, 0.5254100
676.5798, 0.8885700
677.0619, 1.230080
677.5440, 1.446906
678.0261, 1.490767
678.5082, 1.508250
678.9904, 1.526168
679.4725, 1.531563
679.9546, 1.451710
680.4367, 1.290800
680.9188, 1.243000
681.4009, 1.455160
681.8831, 1.791177
682.3652, 2.018699
682.8473, 2.145494
683.3294, 2.198674
683.8115, 2.097821
684.2936, 2.005054
684.7758, 2.030655
685.2579, 2.182939
685.7400, 2.426975
686.2221, 2.776873
686.7042, 3.177264
687.1863, 3.598599
687.6685, 4.044498
688.1506, 4.588183
688.6327, 5.270952
689.1148, 5.986141
689.5969, 6.658081
690.0790, 7.285280
690.5612, 7.847794
691.0433, 8.343596
691.5254, 8.850883
692.0075, 9.465331
692.4896, 10.13851
692.9717, 10.75460
693.4539, 11.17984
693.9360, 11.74273
694.4181, 12.69276
694.9002, 13.88221
695.3823, 15.08670
695.8644, 16.14975
696.3466, 17.34680
696.8287, 18.75760
697.3108, 20.31718
697.7929, 21.83892
698.2750, 23.34050
698.7571, 24.73605
699.2393, 25.96501
699.7214, 27.09406
700.2035, 28.37511
700.6856, 29.77748
701.1677, 30.97851
701.6498, 31.93545
702.1320, 32.50016
702.6141, 32.44105
703.0962, 31.78528
703.5783, 30.83223
704.0604, 29.68548
704.5425, 28.29745
705.0247, 26.58635
705.5068, 24.45651
705.9889, 22.47225
706.4710, 20.72940
706.9531, 19.00619
707.4352, 17.11703
707.9174, 15.04231
708.3995, 13.23508
708.8816, 11.71340
709.3637, 10.40444
709.8458, 9.301701
710.3279, 8.354460
710.8101, 7.343918
711.2922, 6.180751
711.7743, 5.219012
712.2564, 4.864216
712.7385, 4.800980
713.2206, 4.651179
713.7028, 4.231916
714.1849, 3.837820
714.6670, 3.527583
715.1491, 3.273274
715.6312, 3.029552
716.1133, 2.769197
716.5955, 2.617132
717.0776, 2.645195
717.5597, 2.734026
718.0418, 2.586075
718.5239, 2.230198
719.0060, 1.901265
719.4882, 1.648856
719.9703, 1.490349
720.4524, 1.543020
720.9345, 1.721783
721.4166, 1.789762
721.8987, 1.465547
722.3809, 1.137122
722.8630, 0.9617870
723.3451, 0.9345590
723.8272, 0.9902010
724.3093, 1.218160
724.7914, 1.372374
725.2736, 1.332098
725.7557, 1.119304
726.2378, 1.043120
726.7199, 1.127210
727.2020, 1.137901
727.6841, 0.7981360
728.1663, 0.2928090
728.6484, 0.1031080
729.1305, 0.2192130
729.6126, 0.3233060
730.0947, 0.1023550
730.5768, 0.1540180
731.0590, 0.1938810
731.5411, 5.5691000E-02
732.0232, 0.2993020
732.5053, 0.5878010
732.9874, 0.7646540
733.4695, 0.6811270
733.9517, 0.1574720
734.4338, 2.8052000E-02
734.9159, 0.4058160
735.3980, 0.8492300
735.8801, 0.8566960
736.3622, 0.5201170
736.8444, 0.1989030
737.3265, 6.5857999E-02
737.8086, 0.2323360
738.2907, 0.2005620
738.7728, 6.7887999E-02
739.2549, 4.1508999E-02
739.7371, 9.8693997E-02
740.2192, 0.1229880
740.7013, 9.9761002E-02
741.1834, 5.4214999E-02
741.6655, 2.5841000E-02
742.1476, 4.8264001E-02
742.6298, 1.3601000E-02
743.1119, 0.2422370
743.5940, 0.4744620
744.0761, 0.3245810
744.5582, 0.1583140
745.0403, 0.4791910
745.5225, 0.4574810
746.0046, 0.2643660
746.4867, 1.5446000E-02
746.9688, 0.2968240
747.4509, 0.3926770
747.9330, 9.3865998E-02
748.4152, 0.2668250
748.8973, 0.6447550
749.3794, 0.9904240
749.8615, 1.131167
750.3436, 0.8952970
750.8257, 0.7805930
751.3079, 0.9734950
751.7900, 1.352386
752.2721, 1.442815
752.7542, 1.246170
753.2363, 1.048095
753.7184, 0.9815590
754.2006, 1.002511
754.6827, 1.047452
755.1648, 1.119544
755.6469, 1.229625
756.1290, 1.536087
756.6111, 1.744470
757.0933, 1.592644
757.5754, 1.107610
758.0575, 0.8737270
758.5396, 0.9878570
759.0217, 1.259000
759.5038, 1.712014
759.9860, 2.300303
760.4681, 2.429276
760.9502, 2.055270
761.4323, 1.731931
761.9144, 1.908576
762.3965, 2.354956
762.8787, 2.659810
763.3608, 2.817672
763.8429, 2.950666
764.3250, 3.162509
764.8071, 3.348861
765.2892, 3.419416
765.7714, 3.350348
766.2535, 3.317737
766.7356, 3.387162
767.2177, 3.423296
767.6998, 3.325091
768.1819, 3.077746
768.6641, 2.966530
769.1462, 3.010753
769.6283, 3.050726
770.1104, 2.936128
770.5925, 2.727001
771.0746, 2.501304
771.5568, 2.262426
772.0389, 2.139502
772.5210, 2.331428
773.0031, 2.592044
773.4852, 2.741954
773.9673, 2.757654
774.4495, 2.645506
774.9316, 2.356352
775.4137, 2.005351
775.8958, 1.652005
776.3779, 1.286951
776.8600, 1.038821
777.3422, 0.9170850
777.8243, 0.8706220
778.3064, 0.8845910
778.7885, 0.9281530
779.2706, 0.9458360
779.7527, 0.9292040
780.2349, 0.8836770
780.7170, 0.7622430
781.1991, 0.6436630
781.6812, 0.5986210
782.1633, 0.6666980
782.6454, 0.7609790
783.1276, 0.9051560
783.6097, 1.047588
784.0918, 1.119827
784.5739, 1.119463
785.0560, 1.205596
785.5381, 1.419611
786.0203, 1.576667
786.5024, 1.403216
786.9845, 1.048808
787.4666, 0.7551250
787.9487, 0.5594990
788.4308, 0.4694980
788.9130, 0.6073540
789.3951, 0.8132850
789.8772, 0.9006700
790.3593, 0.8436130
790.8414, 0.6683630
791.3235, 0.2799660
791.8057, 9.2817999E-02
792.2878, 0.1303080
792.7699, 0.1447410
793.2520, 0.4100370
793.7341, 0.6388100
794.2162, 0.7657440
794.6984, 0.6187680
795.1805, 0.3524060
795.6626, 0.2227190
796.1447, 0.3689070
796.6268, 0.5136410
797.1089, 0.5385860
797.5911, 0.5119580
798.0732, 0.5132880
798.5553, 0.5465710
799.0374, 0.6069060
799.5195, 0.7083510
800.0016, 0.8107390
800.4838, 0.8667890
800.9659, 0.8694060
801.4480, 0.8389990
801.9301, 0.8089860
802.4122, 0.7400290
802.8943, 0.4924560
803.3765, 0.1945200
803.8586, 1.6309001E-02
804.3407, 6.5879002E-02
804.8228, 0.1037110
805.3049, 1.0777000E-02
805.7870, 3.8787000E-02
806.2692, 0.1220130
806.7513, 0.5626780
807.2334, 0.9433000
807.7155, 1.259598
808.1976, 1.430041
808.6797, 1.235920
809.1619, 0.8065130
809.6440, 0.5278920
810.1261, 0.5058380
810.6082, 0.5522870
811.0903, 0.5567430
811.5724, 0.5413150
812.0546, 0.5248110
812.5367, 0.4198900
813.0188, 0.4839160
813.5009, 0.8656960
813.9830, 1.279078
814.4651, 1.371435
814.9473, 1.118678
815.4294, 0.9899110
815.9115, 1.057790
816.3936, 1.135053
816.8757, 0.9356080
817.3578, 0.6142640
817.8400, 0.4562240
818.3221, 0.5692580
818.8042, 0.6818050
819.2863, 0.6193720
819.7684, 0.5196030
820.2505, 0.5149350
820.7327, 0.6242900
821.2148, 0.8106960
821.6969, 1.133752
822.1790, 1.425439
822.6611, 1.440148
823.1432, 1.234567
823.6254, 1.201777
824.1075, 1.403646
824.5896, 1.596826
825.0717, 1.533165
825.5538, 1.348813
826.0359, 1.197091
826.5181, 1.116737
827.0002, 1.031193
827.4823, 0.8848260
827.9644, 0.7586980
828.4465, 0.7045080
828.9286, 0.7295940
829.4108, 0.8095890
829.8929, 0.9594610
830.3750, 1.097580
830.8571, 1.104237
831.3392, 1.052999
831.8214, 1.147326
832.3035, 1.414453
832.7856, 1.589502
833.2677, 1.417249
833.7498, 1.149228
834.2319, 0.9628520
834.7141, 0.8867510
835.1962, 0.8725330
835.6783, 0.9431380
836.1604, 1.036105
836.6425, 1.117140
837.1246, 1.176661
837.6068, 1.259034
838.0889, 1.364827
838.5710, 1.425511
839.0531, 1.321654
839.5352, 1.186365
840.0173, 1.188725
840.4995, 1.337865
840.9816, 1.442879
841.4637, 1.366759
841.9458, 1.310038
842.4279, 1.390703
842.9100, 1.603964
843.3922, 1.661410
843.8743, 1.543036
844.3564, 1.437589
844.8385, 1.427435
845.3206, 1.433196
845.8027, 1.328679
846.2849, 1.165778
846.7670, 1.117430
847.2491, 1.443463
847.7312, 1.782804
848.2133, 1.863771
848.6954, 1.682177
849.1776, 1.613080
849.6597, 1.715766
850.1418, 1.849734
850.6239, 2.007364
851.1060, 2.144249
851.5881, 2.072845
852.0703, 1.820261
852.5524, 1.614161
853.0345, 1.596840
853.5166, 1.671585
853.9987, 1.777946
854.4808, 1.891617
854.9630, 1.957292
855.4451, 1.933846
855.9272, 1.867717
856.4093, 1.719131
856.8914, 1.554913
857.3735, 1.563135
857.8557, 1.767015
858.3378, 1.853081
858.8199, 1.721555
859.3020, 1.469891
859.7841, 1.087355
860.2662, 0.7164130
860.7484, 0.6776100
861.2305, 1.404330
861.7126, 1.987906
862.1947, 2.012182
862.6768, 1.721581
863.1589, 1.463875
863.6411, 1.218809
864.1232, 1.068390
864.6053, 1.041183
865.0874, 1.057768
865.5695, 0.9837150
866.0516, 0.8655950
866.5338, 0.8508350
867.0159, 0.9724540
867.4980, 1.168324
867.9801, 1.543265
868.4622, 1.886126
868.9443, 1.975685
869.4265, 1.607522
869.9086, 1.415967
870.3907, 1.510770
870.8728, 1.614169
871.3549, 1.428265
871.8370, 0.9945760
872.3192, 0.8515730
872.8013, 1.021766
873.2834, 1.249773
873.7655, 1.378196
874.2476, 1.425760
874.7297, 1.369571
875.2119, 1.204052
875.6940, 1.130806
876.1761, 1.288194
876.6582, 1.457772
877.1403, 1.573291
877.6224, 1.631972
878.1046, 1.564762
878.5867, 1.365314
879.0688, 1.187104
879.5509, 1.185485
880.0330, 1.226375
880.5151, 1.050042
880.9973, 0.7313290
881.4794, 0.5587340
881.9615, 0.8919280
882.4436, 1.133557
882.9257, 0.9315950
883.4078, 0.4853380
883.8900, 0.3916870
884.3721, 0.7315240
884.8542, 1.003433
885.3363, 1.073895
885.8184, 0.9838210
886.3005, 0.7019190
886.7827, 0.3178930
887.2648, 6.9399998E-02
887.7469, 0.1210300
888.2290, 0.2063620
888.7111, 0.1952260
889.1932, 0.1546830
889.6754, 0.1870800
890.1575, 0.3343110
890.6396, 0.4503480
891.1217, 0.5278160
891.6038, 0.5606950
892.0859, 0.5377920
892.5681, 0.4644270
893.0502, 0.3183520
893.5323, 7.3023997E-02
894.0144, 5.9197001E-02
894.4965, 0.1683870
894.9786, 0.5093890
895.4608, 0.7856250
895.9429, 1.011709
896.4250, 0.9765890
896.9071, 0.5446520
897.3892, 0.1242520
897.8713, 3.3383999E-02
898.3535, 0.2107260
898.8356, 0.3156770
899.3177, 0.3478970
899.7998, 0.3392060
900.2819, 0.3602660
900.7640, 0.3083550
901.2462, 1.9401999E-02
901.7283, 0.5675930
902.2104, 0.7610610
902.6925, 0.3047690
903.1746, 0.1052430
903.6567, 0.2826250
904.1389, 0.2627970
904.6210, 6.3349999E-02
905.1031, 0.2768900
905.5852, 0.4050120
906.0673, 1.8417001E-02
906.5494, 0.4192520
907.0316, 0.4338640
907.5137, 0.2132980
907.9958, 8.8916004E-02
908.4779, 0.2974080
908.9600, 0.3929920
909.4421, 0.3079810
909.9243, 0.1273300
910.4064, 7.1338996E-02
910.8885, 0.2811170
911.3706, 0.4072260
911.8527, 0.4429220
912.3348, 0.3466490
912.8170, 0.1029550
913.2991, 0.6102590
913.7812, 0.8072790
914.2633, 0.5480600
914.7454, 0.3432660
915.2275, 0.2968430
915.7097, 0.2929120
916.1918, 0.2714130
916.6739, 0.2325810
917.1560, 0.1708880
917.6381, 8.6200997E-02
918.1202, 6.0343999E-02
918.6024, 0.1885690
919.0845, 0.3788390
919.5666, 0.5825900
920.0487, 0.7733810
920.5308, 0.8383400
921.0129, 0.5471990
921.4951, 0.3679490
921.9772, 0.4674230
922.4593, 0.7377590
922.9414, 0.8700050
923.4235, 0.8640520
923.9056, 0.7496270
924.3878, 0.4768300
924.8699, 0.2172750
925.3520, 0.1132270
925.8341, 0.1687600
926.3162, 0.3960740
926.7983, 1.069188
927.2805, 1.495696
927.7626, 1.525962
928.2447, 1.375023
928.7268, 1.224250
929.2089, 1.073584
929.6910, 1.013412
930.1732, 1.054116
930.6553, 1.146097
931.1374, 1.250813
931.6195, 1.378554
932.1016, 1.574331
932.5837, 1.845524
933.0659, 2.017010
933.5480, 1.913363
934.0301, 1.863329
934.5122, 2.027802
934.9943, 2.361888
935.4764, 2.536339
935.9586, 2.556525
936.4407, 2.568202
936.9228, 2.641836
937.4049, 2.747039
937.8870, 2.844165
938.3691, 2.949095
938.8513, 3.096259
939.3334, 3.335917
939.8155, 3.561938
940.2976, 3.713954
940.7797, 3.890064
941.2618, 4.280539
941.7440, 4.865985
942.2261, 5.369366
942.7082, 5.738183
943.1903, 6.084387
943.6724, 6.490387
944.1545, 6.943016
944.6367, 7.441690
945.1188, 7.999928
945.6009, 8.526369
946.0830, 8.945522
946.5651, 9.435809
947.0472, 10.13782
947.5294, 11.02393
948.0115, 11.77989
948.4936, 12.41722
948.9757, 13.03620
949.4578, 13.64182
949.9399, 14.30477
950.4221, 15.11999
950.9042, 16.05108
951.3863, 16.93062
951.8684, 17.74657
952.3505, 18.49187
952.8326, 19.10149
953.3148, 19.71097
953.7969, 20.71375
954.2790, 21.97217
954.7611, 22.84721
955.2432, 23.08454
955.7253, 23.23685
956.2075, 23.87128
956.6896, 24.52225
957.1717, 24.68468
957.6538, 24.15424
958.1359, 23.66278
958.6180, 23.26487
959.1002, 22.75633
959.5823, 21.96016
960.0644, 20.92935
960.5465, 19.73710
961.0286, 18.40248
961.5107, 17.12895
961.9929, 15.92200
962.4750, 14.93365
962.9571, 14.35332
963.4392, 14.03213
963.9213, 13.37840
964.4034, 12.21797
964.8856, 11.35684
965.3677, 11.04665
965.8498, 11.02473
966.3319, 10.87192
966.8140, 10.68793
967.2961, 10.72194
967.7783, 11.16649
968.2604, 11.47746
968.7425, 11.34785
969.2246, 11.07916
969.7067, 10.92779
970.1888, 10.94398
970.6710, 10.80848
971.1531, 10.48900
971.6352, 10.07601
972.1173, 9.691200
972.5994, 9.228784
973.0815, 8.431985
973.5637, 7.377980
974.0458, 6.514533
974.5279, 6.193959
975.0100, 5.833202
975.4921, 5.219190
975.9742, 4.507024
976.4564, 4.114288
976.9385, 4.017788
977.4206, 3.889895
977.9027, 3.645790
978.3848, 3.350201
978.8669, 3.058291
979.3491, 2.751627
979.8312, 2.387080
980.3133, 1.864640
980.7954, 1.553590
981.2775, 1.549047
981.7596, 1.598213
982.2418, 1.489986
982.7239, 1.272241
983.2060, 1.227019
983.6881, 1.339328
984.1702, 1.440977
984.6523, 1.453364
985.1345, 1.398561
985.6166, 1.239338
986.0987, 1.020605
986.5808, 0.9063000
987.0629, 0.9425950
987.5450, 0.9333290
988.0272, 0.8291830
988.5093, 0.6915570
988.9914, 0.6041380
989.4735, 0.5563130
989.9556, 0.5149600
990.4377, 0.4534120
990.9199, 0.4838650
991.4020, 0.8662300
991.8841, 1.165778
992.3662, 1.018767
992.8483, 0.4042220
993.3304, 0.2330920
993.8126, 0.5342860
994.2947, 0.8412320
994.7768, 0.7791730
995.2589, 0.5879430
995.7410, 0.5621540
996.2231, 0.6642840
996.7053, 0.7611710
997.1874, 0.8711330
997.6695, 0.8888500
998.1516, 0.7813150
998.6337, 0.5988230
999.1158, 0.3731610
999.5980, 0.1300050
1000.080, 2.5867000E-02
1000.562, 8.4716000E-02
1001.044, 0.1793290
1001.526, 0.2020070
1002.009, 0.2193460
1002.491, 0.3009340
1002.973, 0.4630650
1003.455, 0.5617560
1003.937, 0.5892430
1004.419, 0.5776710
1004.901, 0.5377270
1005.383, 0.4718390
1005.865, 0.3641150
1006.348, 0.2335180
1006.830, 0.1308380
1007.312, 8.7131001E-02
1007.794, 6.4995997E-02
1008.276, 1.4360000E-03
1008.758, 1.2691000E-02
1009.240, 0.1835350
1009.722, 0.6354390
1010.205, 0.7610340
1010.687, 0.4928800
1011.169, 0.2059760
1011.651, 0.3145590
1012.133, 0.5251080
1012.615, 0.4959630
1013.097, 0.2180250
1013.579, 1.0351000E-02
1014.061, 7.3613003E-02
1014.544, 8.1736997E-02
1015.026, 2.6320000E-03
1015.508, 0.1278970
1015.990, 0.1428910
1016.472, 8.1766002E-02
1016.954, 0.1010700
1017.436, 0.3066460
1017.918, 0.4556940
1018.401, 0.3704140
1018.883, 0.1678910
1019.365, 5.6116000E-02
1019.847, 0.3319330
1020.329, 0.4509980
1020.811, 0.3990200
1021.293, 0.2680910
1021.775, 9.1583997E-02
1022.257, 0.1035520
1022.740, 0.2914100
1023.222, 0.4648080
1023.704, 0.6000160
1024.186, 0.7234770
1024.668, 0.7526240
1025.150, 0.6368970
1025.632, 0.4570800
1026.114, 0.3238880
1026.596, 0.2433350
1027.079, 0.2651210
1027.561, 0.4062880
1028.043, 0.5742440
1028.525, 0.7651600
1029.007, 0.8981920
1029.489, 0.8687430
1029.971, 0.6584130
1030.453, 0.5413150
1030.936, 0.5566110
1031.418, 0.5269120
1031.900, 0.3352360
1032.382, 9.7479999E-02
1032.864, 7.6481000E-02
1033.346, 0.1922550
1033.828, 0.2540630
1034.310, 0.1252600
1034.792, 4.1687999E-02
1035.275, 0.1042130
1035.757, 0.1954570
1036.239, 0.2115910
1036.721, 0.1526610
1037.203, 7.8874998E-02
1037.685, 6.1090002E-03
1038.167, 2.1217000E-02
1038.649, 0.1737310
1039.132, 0.3951480
1039.614, 0.4700490
1040.096, 0.4311390
1040.578, 0.4937040
1041.060, 0.7653520
1041.542, 0.8643230
1042.024, 0.6690760
1042.506, 0.3862290
1042.989, 0.3288430
1043.471, 0.4163120
1043.953, 0.4933780
1044.435, 0.5393340
1044.917, 0.5213670
1045.399, 0.2726340
1045.881, 0.1240990
1046.363, 0.3265300
1046.845, 0.7982500
1047.328, 0.8039570
1047.810, 0.3739320
1048.292, 3.2543000E-02
1048.774, 7.5548001E-02
1049.256, 0.2224960
1049.738, 0.3224800
1050.220, 0.3521290
1050.702, 0.2556300
1051.184, 8.6524002E-02
1051.667, 0.2669430
1052.149, 0.2693950
1052.631, 0.1370500
1053.113, 0.2085250
1053.595, 0.6168170
1054.077, 0.7740110
1054.559, 0.6961230
1055.041, 0.5853660
1055.523, 0.5529380
1056.006, 0.4504690
1056.488, 0.1678730
1056.970, 0.1496050
1057.452, 0.1667140
1057.934, 8.1517003E-02
1058.416, 0.2768400
1058.898, 0.3501260
1059.380, 0.4115230
1059.863, 0.5719020
1060.345, 0.7399820
1060.827, 0.8469460
1061.309, 0.8894620
1061.791, 0.8386450
1062.273, 0.6706800
1062.755, 0.5233790
1063.237, 0.4728250
1063.719, 0.4568280
1064.202, 0.3326210
1064.684, 0.1801180
1065.166, 0.1560950
1065.648, 0.3953640
1066.130, 0.6098860
1066.612, 0.7405470
1067.094, 0.8853370
1067.576, 1.130493
1068.059, 1.460038
1068.541, 1.785373
1069.023, 2.101804
1069.505, 2.377523
1069.987, 2.537666
1070.469, 2.708970
1070.951, 2.985894
1071.433, 3.305369
1071.916, 3.523377
1072.398, 3.622016
1072.880, 3.838489
1073.362, 4.216075
1073.844, 4.584837
1074.326, 4.689736
1074.808, 4.746842
1075.290, 4.978540
1075.772, 5.407352
1076.255, 5.937724
1076.737, 6.602599
1077.219, 7.256161
1077.701, 7.869074
1078.183, 8.387919
1078.665, 8.645184
1079.147, 8.733379
1079.629, 8.889334
1080.111, 9.271009
1080.594, 9.410072
1081.076, 9.115151
1081.558, 8.533120
1082.040, 7.647954
1082.522, 6.508352
1083.004, 5.694706
1083.486, 5.172484
1083.968, 4.675508
1084.450, 3.993958
1084.933, 3.359448
1085.415, 2.981804
1085.897, 2.724722
1086.379, 2.310812
1086.861, 1.600760
1087.343, 1.374655
1087.825, 1.744191
1088.307, 2.078828
1088.790, 1.643931
1089.272, 0.9848920
1089.754, 0.8235860
1090.236, 1.083366
1090.718, 1.157589
1091.200, 0.7063130
1091.682, 0.5084510
1092.164, 0.7904860
1092.646, 1.204360
1093.129, 1.182401
1093.611, 0.8758540
1094.093, 0.6435960
1094.575, 0.5414420
1095.057, 0.4971370
1095.539, 0.4493930
1096.021, 0.5012090
1096.503, 0.7826700
1096.986, 1.167321
1097.468, 1.086838
1097.950, 0.6069340
1098.432, 0.3050520
1098.914, 0.4155220
1099.396, 0.6081260
1099.878, 0.7127610
1100.360, 0.7353740
1100.843, 0.6570350
1101.325, 0.4631750
1101.807, 0.3784450
1102.289, 0.4014630
1102.771, 0.5271640
1103.253, 0.8027490
1103.735, 1.116554
1104.217, 1.388860
1104.699, 1.577395
1105.182, 1.560112
1105.664, 1.037416
1106.146, 0.8941230
1106.628, 1.268602
1107.110, 1.711039
1107.592, 1.768676
1108.074, 1.625865
1108.556, 1.668632
1109.038, 1.880612
1109.521, 2.096586
1110.003, 2.151472
1110.485, 2.408048
1110.967, 3.066627
1111.449, 3.789545
1111.931, 4.019534
1112.413, 3.864748
1112.895, 3.777823
1113.377, 3.815240
1113.860, 4.015170
1114.342, 4.471699
1114.824, 5.027154
1115.306, 5.650429
1115.788, 6.300440
1116.270, 6.786758
1116.752, 7.115803
1117.234, 7.429327
1117.717, 7.766664
1118.199, 8.084716
1118.681, 8.235056
1119.163, 8.423404
1119.645, 8.905771
1120.127, 9.705664
1120.609, 10.36999
1121.091, 10.92113
1121.573, 11.18219
1122.056, 11.01846
1122.538, 10.62439
1123.020, 10.14063
1123.502, 9.633061
1123.984, 9.214353
1124.466, 9.013196
1124.948, 8.649560
1125.430, 8.129250
1125.913, 7.475270
1126.395, 6.563379
1126.877, 5.588026
1127.359, 4.948560
1127.841, 4.573976
1128.323, 4.275187
1128.805, 4.134129
1129.287, 3.823516
1129.770, 3.157782
1130.252, 2.535917
1130.734, 2.469442
1131.216, 2.777895
1131.698, 2.657993
1132.180, 2.156335
1132.662, 1.749796
1133.144, 1.810221
1133.626, 1.902451
1134.109, 1.902477
1134.591, 1.809240
1135.073, 1.567474
1135.555, 1.209282
1136.037, 1.038170
1136.519, 1.091394
1137.001, 1.193019
1137.483, 1.264490
1137.965, 1.297234
1138.448, 1.278508
1138.930, 1.217059
1139.412, 1.129655
1139.894, 1.015044
1140.376, 0.8862930
1140.858, 0.7315340
1141.340, 0.6437290
1141.822, 0.8263620
1142.304, 1.030000
1142.787, 0.9968550
1143.269, 0.7122920
1143.751, 0.4502380
1144.233, 0.1817320
1144.715, 0.1504170
1145.197, 0.5434610
1145.679, 0.9660330
1146.161, 0.8193040
1146.644, 0.4293420
1147.126, 0.2223850
1147.608, 0.3238810
1148.090, 0.4423960
1148.572, 0.5820020
1149.054, 0.7106090
1149.536, 0.8334170
1150.018, 0.9118260
1150.500, 0.7990550
1150.983, 0.6084660
1151.465, 0.5810940
1151.947, 0.9665670
1152.429, 1.105227
1152.911, 0.8518870
1153.393, 0.5716270
1153.875, 0.5525270
1154.357, 0.6822530
1154.840, 0.6429990
1155.322, 0.4842440
1155.804, 0.3660940
1156.286, 0.4192140
1156.768, 0.4181820
1157.250, 0.3152280
1157.732, 0.1766860
1158.214, 5.3691000E-02
1158.697, 5.3158000E-02
1159.179, 0.1652890
1159.661, 0.2674710
1160.143, 0.2673840
1160.625, 4.4489998E-02
1161.107, 0.2485680
1161.589, 9.6193001E-02
1162.071, 0.1012250
1162.553, 0.1690160
1163.036, 0.7983940
1163.518, 0.9642320
1164.000, 0.6373220
1164.482, 0.3326910
1164.964, 0.4401330
1165.446, 0.5580900
1165.928, 0.4793220
1166.410, 0.2968230
1166.892, 0.1539900
1167.375, 4.9596999E-02
1167.857, 7.0672996E-02
1168.339, 0.2340830
1168.821, 0.3896220
1169.303, 0.4763730
1169.785, 0.4721160
1170.267, 0.2595950
1170.749, 3.6766998E-02
1171.231, 2.6292000E-02
1171.714, 0.2879520
1172.196, 0.5432650
1172.678, 0.6692100
1173.160, 0.6881890
1173.642, 0.5467740
1174.124, 0.3613870
1174.606, 0.1998360
1175.088, 7.4176997E-02
1175.571, 6.1487000E-02
1176.053, 0.1641730
1176.535, 0.3501590
1177.017, 0.6559670
1177.499, 0.8866170
1177.981, 0.7737600
1178.463, 0.5507380
1178.945, 0.4322430
1179.427, 0.4309330
1179.910, 0.5332890
1180.392, 0.7609720
1180.874, 0.8816650
1181.356, 0.8043360
1181.838, 0.5965640
1182.320, 0.1477870
1182.802, 0.2846510
1183.284, 0.3498630
1183.767, 3.5408001E-02
1184.249, 0.3395710
1184.731, 0.5737640
1185.213, 0.6523750
1185.695, 0.4390700
1186.177, 0.1993440
1186.659, 0.3017640
1187.141, 0.5519620
1187.624, 0.6799230
1188.106, 0.6617260
1188.588, 0.4183340
1189.070, 0.1156430
1189.552, 0.4815110
1190.034, 0.2857670
1190.516, 8.1068002E-02
1190.998, 9.2634000E-02
1191.480, 6.0894001E-02
1191.963, 3.9558999E-02
1192.445, 0.3213860
1192.927, 0.5618240
1193.409, 0.6692990
1193.891, 0.7132910
1194.373, 0.7512000
1194.855, 0.7474250
1195.337, 0.5488040
1195.819, 0.2906310
1196.302, 0.2995170
1196.784, 0.8910630
1197.266, 1.079047
1197.748, 0.7592180
1198.230, 0.4037290
1198.712, 0.3886350
1199.194, 0.5675620
1199.676, 0.8786440
1200.158, 1.205264
1200.641, 1.204030
1201.123, 0.5754430
1201.605, 0.2358850
1202.087, 0.2781390
1202.569, 0.4277090
1203.051, 0.4403090
1203.533, 0.4094630
1204.015, 0.4549510
1204.498, 0.5678390
1204.980, 0.7110960
1205.462, 0.8767840
1205.944, 1.045910
1206.426, 1.247259
1206.908, 1.361723
1207.390, 1.154933
1207.872, 0.8714180
1208.354, 0.8939480
1208.837, 1.147151
1209.319, 1.194344
1209.801, 0.8394910
1210.283, 0.6951580
1210.765, 0.8772120
1211.247, 1.109148
1211.729, 1.068513
1212.211, 0.9309480
1212.694, 0.9402330
1213.176, 1.074376
1213.658, 1.106308
1214.140, 0.9396770
1214.622, 0.9376570
1215.104, 1.201079
1215.586, 1.430709
1216.068, 1.174315
1216.551, 0.7838770
1217.033, 0.7366970
1217.515, 1.002236
1217.997, 1.116584
1218.479, 1.061873
1218.961, 0.8524790
1219.443, 0.4419670
1219.925, 7.6673999E-02
1220.407, 8.9893997E-02
1220.890, 0.2892890
1221.372, 0.5380940
1221.854, 0.7912000
1222.336, 0.8348980
1222.818, 0.6106250
1223.300, 0.3768470
1223.782, 0.1601890
1224.264, 5.2887000E-02
1224.746, 0.2937340
1225.229, 0.5974870
1225.711, 0.6169760
1226.193, 0.3653980
1226.675, 0.3154440
1227.157, 0.5181820
1227.639, 0.6578720
1228.121, 0.6622630
1228.603, 0.6041040
1229.085, 0.5630650
1229.568, 0.5157060
1230.050, 0.4077110
1230.532, 0.2513000
1231.014, 0.1790650
1231.496, 0.2035000
1231.978, 0.2284150
1232.460, 0.2280250
1232.942, 0.2811210
1233.425, 0.6158570
1233.907, 0.9194910
1234.389, 0.8148980
1234.871, 0.3903940
1235.353, 0.2667180
1235.835, 0.4588200
1236.317, 0.6192900
1236.799, 0.6561410
1237.281, 0.6932680
1237.764, 0.8880050
1238.246, 1.081749
1238.728, 1.112831
1239.210, 1.031239
1239.692, 1.093631
1240.174, 1.285727
1240.656, 1.223420
1241.138, 0.7886280
1241.621, 0.4275160
1242.103, 0.4748370
1242.585, 0.6490660
1243.067, 0.8001280
1243.549, 0.9104940
1244.031, 0.8866000
1244.513, 0.7538760
1244.995, 0.7314530
1245.478, 0.8913380
1245.960, 0.9457770
1246.442, 0.7341950
1246.924, 0.5343090
1247.406, 0.5035120
1247.888, 0.5873570
1248.370, 0.6061730
1248.852, 0.5667690
1249.334, 0.4771760
1249.817, 0.3277180
1250.299, 0.2384210
1250.781, 0.2827120
1251.263, 0.3955450
1251.745, 0.5833040
1252.227, 0.7840770
1252.709, 0.8371670
1253.191, 0.7848360
1253.673, 0.7682170
1254.156, 0.8280650
1254.638, 0.8148010
1255.120, 0.6446830
1255.602, 0.4362510
1256.084, 0.1847220
1256.566, 1.9672001E-02
1257.048, 6.8462998E-02
1257.530, 0.3219850
1258.012, 0.4550270
1258.495, 0.3971200
1258.977, 0.4827790
1259.459, 0.8886400
1259.941, 1.139657
1260.423, 1.068063
1260.905, 0.8029440
1261.387, 0.4158670
1261.869, 4.0727001E-02
1262.352, 0.1399020
1262.834, 8.7692998E-02
1263.316, 9.9139996E-03
1263.798, 0.1841270
1264.280, 0.2804180
1264.762, 0.2258760
1265.244, 0.1637780
1265.726, 0.3414670
1266.208, 0.5571170
1266.691, 0.5247860
1267.173, 0.2358940
1267.655, 0.1988060
1268.137, 0.4531590
1268.619, 0.6325780
1269.101, 0.6236510
1269.583, 0.5889530
1270.065, 0.7323310
1270.548, 0.8755020
1271.030, 0.8234010
1271.512, 0.6247960
1271.994, 0.4853730
1272.476, 0.4045280
1272.958, 0.3475410
1273.440, 0.3053820
1273.922, 0.2972240
1274.405, 0.4072880
1274.887, 0.4802040
1275.369, 0.3798520
1275.851, 0.2000210
1276.333, 0.2549860
1276.815, 0.4825880
1277.297, 0.5210010
1277.779, 0.2859710
1278.261, 0.1387480
1278.744, 0.3955720
1279.226, 0.6199930
1279.708, 0.6540850
1280.190, 0.5663490
1280.672, 0.3496700
1281.154, 9.8971002E-02
1281.636, 0.1026940
1282.118, 0.3972530
1282.600, 0.5707800
1283.083, 0.6008480
1283.565, 0.5624090
1284.047, 0.4595070
1284.529, 0.3332010
1285.011, 0.2163140
1285.493, 0.1256080
1285.975, 9.5196001E-02
1286.457, 0.1255740
1286.939, 0.1827680
1287.422, 0.2980370
1287.904, 0.2921730
1288.386, 9.9601001E-02
1288.868, 7.2884001E-02
1289.350, 4.3155000E-02
1289.832, 0.2568430
1290.314, 0.3731540
1290.796, 0.4074290
1291.279, 0.5257590
1291.761, 0.7502230
1292.243, 0.7630460
1292.725, 0.5085270
1293.207, 0.2845270
1293.689, 0.4470250
1294.171, 0.6066660
1294.653, 0.3718070
1295.135, 2.0376001E-02
1295.618, 7.6830998E-02
1296.100, 0.5554430
1296.582, 0.6787280
1297.064, 0.3940850
1297.546, 0.1050110
1298.028, 2.3169999E-03
1298.510, 6.4030001E-03
1298.992, 8.1073001E-02
1299.475, 0.2215050
1299.957, 0.3684100
1300.439, 0.4431140
1300.921, 0.3736530
1301.403, 0.1525440
1301.885, 0.0000000E+00
##END=



