##NAMES=Offretite
##RRUFFID=R060767
##IDEAL CHEMISTRY=KCaMg(Si_13_Al_5_)O_36_&#183;15H_2_O
##LOCALITY=Vinarice, Kladno, Czech Republic
##OWNER=RRUFF
##SOURCE=Michael Scott
##DESCRIPTION=Colorless elongated hexagonal prisms
##STATUS=The identification of this mineral is confirmed by single-crystal X-ray diffraction and chemical analysis.
##URL=rruff.info/R060767
##MEASURED CHEMISTRY=(K_0.96_[box]_0.04_)_Σ=1_Ca_1.00_(Mg_0.95_Fe^2+^_0.05_)_Σ=1_Si_13.04_Al_4.96_O_36_·15H_2_O
170.2215, 0.0000000E+00
170.7036, 7.705566
171.1857, 12.23438
171.6678, 12.51099
172.1499, 13.37378
172.6321, 16.44336
173.1142, 25.31079
173.5963, 32.32886
174.0784, 40.30396
174.5605, 44.53613
175.0426, 34.15771
175.5248, 13.52051
176.0069, 4.292236
176.4890, 18.53955
176.9711, 52.37842
177.4532, 72.68237
177.9353, 67.35278
178.4175, 54.45410
178.8996, 51.13086
179.3817, 58.31714
179.8638, 61.80933
180.3459, 46.06689
180.8280, 15.43823
181.3102, 4.698730
181.7923, 30.86450
182.2744, 47.49927
182.7565, 52.42456
183.2386, 49.88916
183.7207, 48.21899
184.2029, 46.93506
184.6850, 47.66968
185.1671, 48.35718
185.6492, 50.31421
186.1313, 61.30054
186.6134, 69.05811
187.0956, 76.31177
187.5777, 81.66675
188.0598, 90.95557
188.5419, 75.64136
189.0240, 66.30322
189.5061, 69.24219
189.9883, 81.37915
190.4704, 99.80835
190.9525, 123.0117
191.4346, 131.0974
191.9167, 96.20117
192.3988, 28.62329
192.8810, 8.677979
193.3631, 26.09424
193.8452, 77.01611
194.3273, 101.4082
194.8094, 102.5029
195.2915, 92.32666
195.7737, 69.65698
196.2558, 39.78638
196.7379, 24.94482
197.2200, 35.53223
197.7021, 52.24341
198.1842, 67.41626
198.6664, 74.84082
199.1485, 79.11328
199.6306, 84.50781
200.1127, 88.53174
200.5948, 77.32642
201.0770, 36.11060
201.5591, 3.011963
202.0412, 0.4470210
202.5233, 17.81567
203.0054, 40.19458
203.4875, 64.05786
203.9697, 84.78857
204.4518, 77.59912
204.9339, 16.87549
205.4160, 29.24756
205.8981, 18.27930
206.3802, 26.70361
206.8624, 65.15039
207.3445, 75.89502
207.8266, 64.98975
208.3087, 48.25806
208.7908, 18.06836
209.2729, 2.825684
209.7551, 1.917725
210.2372, 20.04834
210.7193, 33.32300
211.2014, 32.91943
211.6835, 22.84058
212.1656, 11.87061
212.6478, 0.9389650
213.1299, 12.49023
213.6120, 27.58521
214.0941, 39.20581
214.5762, 35.66992
215.0583, 5.940430
215.5405, 32.54980
216.0226, 42.89624
216.5047, 14.10107
216.9868, 11.43213
217.4689, 15.85229
217.9510, 9.726807
218.4332, 2.306641
218.9153, 4.068359
219.3974, 8.912354
219.8795, 11.50488
220.3616, 11.83228
220.8437, 9.996338
221.3259, 1.672363
221.8080, 6.686523
222.2901, 8.493408
222.7722, 1.141113
223.2543, 8.763428
223.7364, 13.63574
224.2186, 13.17310
224.7007, 9.390625
225.1828, 6.225342
225.6649, 19.47778
226.1470, 16.31030
226.6291, 7.031738
227.1113, 33.87158
227.5934, 46.43433
228.0755, 47.32129
228.5576, 50.82227
229.0397, 64.66357
229.5218, 79.67871
230.0040, 89.38354
230.4861, 93.20020
230.9682, 92.32349
231.4503, 85.01465
231.9324, 71.99976
232.4145, 63.62964
232.8967, 65.29028
233.3788, 68.29004
233.8609, 64.30200
234.3430, 54.00659
234.8251, 45.79370
235.3072, 47.41455
235.7894, 56.36133
236.2715, 60.38770
236.7536, 55.40430
237.2357, 49.16113
237.7178, 47.44849
238.1999, 49.53955
238.6821, 52.60693
239.1642, 56.16284
239.6463, 59.94531
240.1284, 62.41553
240.6105, 62.93457
241.0926, 63.10474
241.5748, 60.10815
242.0569, 57.04980
242.5390, 63.41455
243.0211, 93.94214
243.5032, 132.0234
243.9853, 149.9844
244.4675, 144.8530
244.9496, 131.7358
245.4317, 110.7822
245.9138, 89.56079
246.3959, 85.55957
246.8780, 119.9087
247.3602, 160.5505
247.8423, 169.2163
248.3244, 144.9919
248.8065, 119.5066
249.2886, 108.0112
249.7707, 107.5764
250.2529, 110.5347
250.7350, 119.1621
251.2171, 128.8386
251.6992, 127.1138
252.1813, 116.5676
252.6634, 120.2334
253.1456, 156.3113
253.6277, 205.7080
254.1098, 228.7166
254.5919, 218.0176
255.0740, 200.0981
255.5561, 183.8755
256.0382, 169.8928
256.5204, 159.9338
257.0025, 154.6094
257.4846, 153.4778
257.9667, 157.9036
258.4488, 170.2048
258.9309, 176.7175
259.4131, 170.1885
259.8952, 156.4502
260.3773, 142.6150
260.8594, 129.1306
261.3415, 119.1367
261.8236, 117.5579
262.3058, 125.3435
262.7879, 134.0579
263.2700, 148.5366
263.7521, 160.5991
264.2342, 154.1506
264.7163, 126.8940
265.1985, 103.4614
265.6806, 109.3196
266.1627, 149.0808
266.6448, 176.2620
267.1269, 186.5815
267.6090, 188.9001
268.0912, 186.3870
268.5733, 179.6047
269.0554, 168.7024
269.5375, 152.2212
270.0196, 130.9932
270.5017, 122.3552
270.9839, 131.6973
271.4660, 143.8076
271.9481, 155.4360
272.4302, 167.2666
272.9123, 182.9514
273.3944, 203.2073
273.8766, 223.3269
274.3587, 227.8259
274.8408, 200.2739
275.3229, 175.4077
275.8050, 159.2087
276.2871, 147.0276
276.7693, 129.6152
277.2514, 104.1775
277.7335, 81.34985
278.2156, 83.17627
278.6977, 138.4719
279.1798, 170.4353
279.6620, 166.5242
280.1441, 150.6833
280.6262, 137.3625
281.1083, 130.3110
281.5904, 129.0173
282.0725, 134.8872
282.5547, 152.3962
283.0368, 158.1384
283.5189, 137.5808
284.0010, 119.0120
284.4831, 117.0674
284.9652, 128.0933
285.4474, 140.3386
285.9295, 145.2734
286.4116, 142.9844
286.8937, 133.6685
287.3758, 106.8347
287.8579, 85.77051
288.3401, 81.97534
288.8222, 87.43188
289.3043, 88.17383
289.7864, 75.02832
290.2685, 56.07446
290.7506, 53.72241
291.2328, 74.85083
291.7149, 97.65063
292.1970, 113.9043
292.6791, 129.6077
293.1612, 153.3301
293.6433, 188.9871
294.1255, 222.5493
294.6076, 232.4021
295.0897, 215.5452
295.5718, 205.6001
296.0539, 218.5413
296.5360, 234.6675
297.0182, 234.5596
297.5003, 217.2739
297.9824, 205.6406
298.4645, 224.2986
298.9466, 264.7595
299.4287, 284.7473
299.9109, 266.9036
300.3930, 249.0920
300.8751, 269.6863
301.3572, 319.9412
301.8393, 364.0464
302.3214, 388.8035
302.8036, 400.0862
303.2857, 403.6335
303.7678, 398.9309
304.2499, 394.1807
304.7320, 392.2393
305.2141, 395.1597
305.6963, 408.2078
306.1784, 442.4153
306.6605, 477.7842
307.1426, 499.5330
307.6247, 510.3992
308.1068, 521.8054
308.5890, 540.0437
309.0711, 561.1738
309.5532, 572.8616
310.0353, 568.9536
310.5174, 568.7466
310.9995, 582.6230
311.4817, 601.6809
311.9638, 611.7981
312.4459, 608.8225
312.9280, 601.2402
313.4101, 599.9087
313.8922, 607.3154
314.3744, 616.8833
314.8565, 641.6177
315.3386, 659.0308
315.8207, 645.4634
316.3028, 604.6724
316.7849, 563.6487
317.2671, 545.8518
317.7492, 552.2859
318.2313, 566.0779
318.7134, 609.4971
319.1955, 636.3423
319.6776, 623.6814
320.1598, 585.5798
320.6419, 544.8633
321.1240, 512.9370
321.6061, 492.5142
322.0882, 491.3831
322.5703, 527.7666
323.0525, 551.9609
323.5346, 554.7964
324.0167, 546.3127
324.4988, 532.0537
324.9809, 514.1174
325.4630, 497.9993
325.9452, 491.5078
326.4273, 495.9631
326.9094, 500.3320
327.3915, 503.7532
327.8736, 506.7732
328.3557, 507.8506
328.8379, 508.1147
329.3200, 511.4705
329.8021, 528.6819
330.2842, 552.8103
330.7663, 550.8481
331.2484, 507.2341
331.7306, 469.1943
332.2127, 474.4353
332.6948, 502.5530
333.1769, 519.2166
333.6590, 508.1938
334.1411, 489.6660
334.6233, 490.5312
335.1054, 509.9517
335.5875, 518.1768
336.0696, 498.8542
336.5517, 462.5220
337.0338, 428.8982
337.5160, 396.9819
337.9981, 372.2043
338.4802, 358.9441
338.9623, 354.0884
339.4444, 352.9219
339.9265, 355.7024
340.4087, 358.6184
340.8908, 357.3381
341.3729, 351.2632
341.8550, 350.2473
342.3371, 362.3149
342.8192, 373.5872
343.3014, 374.2380
343.7835, 364.5364
344.2656, 348.8408
344.7477, 328.8191
345.2298, 305.6929
345.7119, 292.8271
346.1941, 305.3071
346.6762, 312.1497
347.1583, 303.1509
347.6404, 284.7959
348.1225, 265.1013
348.6046, 247.2300
349.0868, 231.4561
349.5689, 216.8806
350.0510, 200.7400
350.5331, 192.4458
351.0152, 203.1313
351.4973, 212.2510
351.9795, 203.0374
352.4616, 177.6560
352.9437, 153.9163
353.4258, 149.5542
353.9079, 163.2908
354.3900, 170.8792
354.8722, 167.2339
355.3543, 164.7615
355.8364, 170.3494
356.3185, 180.1067
356.8006, 187.8518
357.2827, 191.2971
357.7649, 191.3567
358.2470, 190.7952
358.7291, 190.1418
359.2112, 181.1296
359.6933, 155.3462
360.1754, 123.5173
360.6576, 99.36328
361.1397, 83.96973
361.6218, 72.01416
362.1039, 61.65771
362.5860, 52.62476
363.0681, 42.86694
363.5503, 31.17871
364.0324, 24.30762
364.5145, 32.95361
364.9966, 57.59644
365.4787, 68.23853
365.9608, 48.13013
366.4430, 26.63403
366.9251, 26.07886
367.4072, 41.59692
367.8893, 54.76440
368.3714, 55.22241
368.8535, 45.23926
369.3357, 33.30151
369.8178, 9.035156
370.2999, 3.899414
370.7820, 1.629883
371.2641, 16.51270
371.7462, 35.35938
372.2284, 55.30054
372.7105, 70.42603
373.1926, 71.51685
373.6747, 54.13013
374.1568, 42.68994
374.6389, 39.67603
375.1211, 40.48242
375.6032, 47.83813
376.0853, 57.71313
376.5674, 62.05444
377.0495, 55.40308
377.5316, 40.72070
378.0138, 24.83081
378.4959, 5.365723
378.9780, 8.752441
379.4601, 14.80200
379.9422, 13.54956
380.4243, 0.9033200
380.9065, 25.99438
381.3886, 47.41724
381.8707, 42.70068
382.3528, 18.51050
382.8349, 1.529053
383.3170, 2.384766
383.7992, 1.231445
384.2813, 2.636353
384.7634, 6.039063
385.2455, 7.259644
385.7276, 1.775513
386.2097, 7.735962
386.6919, 5.744629
387.1740, 34.67383
387.6561, 57.15723
388.1382, 60.14075
388.6203, 49.36938
389.1024, 45.46704
389.5846, 61.66016
390.0667, 67.06848
390.5488, 46.53601
391.0309, 19.87756
391.5130, 9.789551
391.9951, 19.87402
392.4773, 34.35156
392.9594, 34.58862
393.4415, 18.45117
393.9236, 1.651611
394.4057, 23.23169
394.8878, 41.05334
395.3700, 45.17725
395.8521, 38.84021
396.3342, 25.99988
396.8163, 6.227661
397.2984, 12.41394
397.7805, 8.538696
398.2627, 25.64490
398.7448, 52.00696
399.2269, 57.91870
399.7090, 52.98462
400.1911, 40.48633
400.6732, 20.86865
401.1554, 6.776733
401.6375, 14.47327
402.1196, 32.88257
402.6017, 30.94470
403.0838, 1.656738
403.5659, 28.06348
404.0481, 37.92212
404.5302, 30.14148
405.0123, 20.78723
405.4944, 11.70020
405.9765, 7.9590000E-02
406.4586, 20.48181
406.9408, 44.59753
407.4229, 59.39746
407.9050, 59.57397
408.3871, 50.58411
408.8692, 41.12866
409.3513, 24.50562
409.8335, 23.11633
410.3156, 47.31494
410.7977, 77.37793
411.2798, 105.0830
411.7619, 127.4479
412.2440, 140.2041
412.7262, 137.2754
413.2083, 123.3323
413.6904, 129.4075
414.1725, 165.2769
414.6546, 205.7854
415.1367, 253.5278
415.6189, 298.0468
416.1010, 328.4691
416.5831, 341.7853
417.0652, 346.4065
417.5473, 345.9114
418.0294, 341.8264
418.5116, 349.1189
418.9937, 374.8740
419.4758, 402.6923
419.9579, 412.0256
420.4400, 410.7179
420.9221, 426.2720
421.4043, 478.8903
421.8864, 539.7941
422.3685, 591.8804
422.8506, 633.1387
423.3327, 654.2859
423.8148, 647.6370
424.2970, 626.2172
424.7791, 618.0055
425.2612, 630.4479
425.7433, 641.6779
426.2254, 644.0983
426.7076, 649.4744
427.1897, 672.1218
427.6718, 709.0870
428.1539, 742.8218
428.6360, 760.8329
429.1181, 763.2562
429.6003, 755.3914
430.0824, 727.5793
430.5645, 702.8677
431.0466, 679.5410
431.5287, 664.3870
432.0108, 668.8218
432.4930, 695.7852
432.9751, 725.1958
433.4572, 733.2629
433.9393, 721.6134
434.4214, 711.5071
434.9035, 704.4570
435.3857, 700.8491
435.8678, 705.6230
436.3499, 714.5796
436.8320, 714.2148
437.3141, 689.6667
437.7962, 665.3428
438.2784, 666.1890
438.7605, 685.8739
439.2426, 699.5713
439.7247, 696.2690
440.2068, 685.6064
440.6889, 684.6624
441.1711, 694.5801
441.6532, 713.3921
442.1353, 758.6150
442.6174, 798.5177
443.0995, 801.7766
443.5816, 777.3723
444.0638, 760.5164
444.5459, 776.9617
445.0280, 818.5352
445.5101, 851.1965
445.9922, 882.1212
446.4743, 894.4741
446.9564, 856.4993
447.4385, 817.0652
447.9207, 826.7822
448.4028, 893.3425
448.8849, 968.6978
449.3670, 1007.598
449.8491, 1017.615
450.3312, 1038.264
450.8134, 1076.252
451.2955, 1116.072
451.7776, 1149.597
452.2597, 1176.104
452.7418, 1194.467
453.2239, 1194.350
453.7061, 1199.805
454.1882, 1229.535
454.6703, 1272.923
455.1524, 1305.822
455.6345, 1322.679
456.1166, 1340.264
456.5988, 1379.809
457.0809, 1448.958
457.5630, 1503.785
458.0451, 1541.099
458.5272, 1569.794
459.0093, 1584.644
459.4915, 1595.034
459.9736, 1617.591
460.4557, 1660.868
460.9378, 1713.213
461.4199, 1749.567
461.9020, 1767.632
462.3842, 1788.622
462.8663, 1818.706
463.3484, 1849.402
463.8305, 1880.112
464.3126, 1907.561
464.7947, 1921.198
465.2769, 1900.173
465.7590, 1871.326
466.2411, 1876.860
466.7232, 1914.530
467.2053, 1944.072
467.6874, 1944.088
468.1696, 1930.375
468.6517, 1938.722
469.1338, 1978.324
469.6159, 2011.974
470.0980, 2023.437
470.5801, 2033.316
471.0623, 2065.368
471.5444, 2116.594
472.0265, 2165.044
472.5086, 2194.550
472.9907, 2208.049
473.4728, 2227.051
473.9550, 2255.529
474.4371, 2284.962
474.9192, 2300.875
475.4013, 2325.700
475.8834, 2388.301
476.3655, 2488.862
476.8477, 2584.819
477.3298, 2629.246
477.8119, 2637.909
478.2940, 2673.256
478.7761, 2743.570
479.2582, 2817.396
479.7404, 2880.484
480.2225, 2933.512
480.7046, 2976.731
481.1867, 2999.378
481.6688, 3026.707
482.1509, 3075.927
482.6331, 3135.980
483.1152, 3193.901
483.5973, 3245.991
484.0794, 3287.444
484.5615, 3310.819
485.0436, 3316.020
485.5258, 3336.415
486.0079, 3396.382
486.4900, 3443.533
486.9721, 3465.618
487.4542, 3471.703
487.9363, 3474.481
488.4185, 3476.871
488.9006, 3467.008
489.3827, 3430.638
489.8648, 3369.007
490.3469, 3293.044
490.8290, 3193.242
491.3112, 3100.162
491.7933, 3040.274
492.2754, 3000.687
492.7575, 2957.195
493.2396, 2911.254
493.7217, 2853.109
494.2039, 2766.500
494.6860, 2666.151
495.1681, 2582.639
495.6502, 2523.498
496.1323, 2463.665
496.6144, 2375.137
497.0966, 2253.829
497.5787, 2145.235
498.0608, 2055.192
498.5429, 1970.266
499.0250, 1890.365
499.5071, 1812.433
499.9893, 1733.801
500.4714, 1653.507
500.9535, 1572.071
501.4356, 1490.082
501.9177, 1407.479
502.3998, 1319.818
502.8820, 1218.656
503.3641, 1127.122
503.8462, 1065.362
504.3283, 1023.230
504.8104, 982.0049
505.2925, 940.6071
505.7747, 895.8892
506.2568, 843.4012
506.7389, 786.4050
507.2210, 728.0962
507.7031, 669.6250
508.1852, 618.4827
508.6674, 585.2452
509.1495, 572.2413
509.6316, 548.0276
510.1137, 498.3392
510.5958, 454.3488
511.0779, 435.8019
511.5601, 422.5707
512.0422, 381.9083
512.5243, 305.1240
513.0064, 230.5715
513.4885, 211.3451
513.9706, 242.9373
514.4528, 254.6517
514.9349, 235.3999
515.4170, 210.9745
515.8991, 195.9308
516.3812, 187.6915
516.8633, 182.1147
517.3455, 183.1605
517.8276, 179.4862
518.3097, 160.2571
518.7918, 134.1182
519.2739, 116.0114
519.7560, 108.5568
520.2382, 103.1956
520.7203, 91.19385
521.2024, 72.65625
521.6845, 59.60388
522.1666, 56.87402
522.6487, 54.25208
523.1309, 50.69177
523.6130, 46.13818
524.0951, 40.15125
524.5772, 32.79797
525.0593, 25.45801
525.5414, 20.48132
526.0236, 16.77026
526.5057, 6.866211
526.9878, 12.84338
527.4699, 22.90308
527.9520, 3.816040
528.4341, 29.17505
528.9163, 36.76343
529.3984, 3.986206
529.8805, 20.78052
530.3626, 14.68909
530.8447, 1.903320
531.3268, 7.274902
531.8090, 1.8798999E-02
532.2911, 8.878906
532.7732, 10.30164
533.2553, 7.024902
533.7374, 14.37842
534.2195, 44.71033
534.7017, 62.16370
535.1838, 49.91150
535.6659, 32.13318
536.1480, 25.74414
536.6301, 31.50269
537.1122, 40.72021
537.5944, 56.65405
538.0765, 68.91418
538.5586, 54.63611
539.0407, 15.17981
539.5228, 19.69482
540.0049, 38.29163
540.4871, 46.80725
540.9692, 56.09204
541.4513, 70.70093
541.9334, 75.66577
542.4155, 62.38708
542.8976, 46.63757
543.3798, 34.11243
543.8619, 27.27441
544.3440, 30.85840
544.8261, 47.89148
545.3082, 70.09863
545.7903, 80.47058
546.2725, 76.62061
546.7546, 77.76831
547.2367, 86.80347
547.7188, 100.5326
548.2009, 118.7123
548.6830, 139.6212
549.1652, 158.4559
549.6473, 173.0190
550.1294, 186.2839
550.6115, 201.9727
551.0936, 217.5208
551.5757, 226.4869
552.0579, 227.2911
552.5400, 225.7200
553.0221, 227.4744
553.5042, 232.3640
553.9863, 241.1786
554.4684, 254.4510
554.9506, 271.5914
555.4327, 301.5360
555.9148, 332.6598
556.3969, 348.7773
556.8790, 347.0120
557.3611, 341.6311
557.8433, 346.2999
558.3254, 357.5886
558.8075, 363.0426
559.2896, 361.4648
559.7717, 366.8823
560.2538, 390.0791
560.7360, 421.7551
561.2181, 438.8530
561.7002, 439.6965
562.1823, 433.5320
562.6644, 408.6309
563.1465, 387.8352
563.6287, 398.4351
564.1108, 429.5619
564.5929, 446.2411
565.0750, 427.7429
565.5571, 387.6271
566.0392, 355.2466
566.5214, 331.6115
567.0035, 309.9885
567.4856, 288.3152
567.9677, 270.2454
568.4498, 258.7870
568.9319, 252.8140
569.4141, 248.5132
569.8962, 243.2546
570.3783, 241.1947
570.8604, 249.9543
571.3425, 263.2002
571.8246, 267.9092
572.3068, 261.4417
572.7889, 252.5341
573.2710, 251.3734
573.7531, 258.1162
574.2352, 254.5245
574.7173, 227.9205
575.1995, 207.8859
575.6816, 206.9788
576.1637, 210.6841
576.6458, 201.9156
577.1279, 179.0785
577.6100, 159.9102
578.0922, 163.9442
578.5743, 178.0592
579.0564, 172.5680
579.5385, 147.4036
580.0206, 127.5898
580.5027, 125.4448
580.9849, 133.7428
581.4670, 139.1519
581.9491, 142.0435
582.4312, 140.1927
582.9133, 133.7865
583.3954, 122.4736
583.8776, 97.41321
584.3597, 68.98096
584.8418, 57.31995
585.3239, 72.15918
585.8060, 98.00952
586.2881, 113.5464
586.7703, 118.6097
587.2524, 111.2419
587.7345, 84.25964
588.2166, 61.26147
588.6987, 59.22229
589.1808, 72.96643
589.6630, 85.66797
590.1451, 99.45105
590.6272, 107.5221
591.1093, 107.9670
591.5914, 101.4469
592.0735, 83.31921
592.5557, 57.29004
593.0378, 37.59167
593.5199, 34.24243
594.0020, 41.68933
594.4841, 43.34094
594.9662, 37.59546
595.4484, 30.57654
595.9305, 25.06030
596.4126, 19.01709
596.8947, 6.938110
597.3768, 9.444458
597.8589, 15.62781
598.3411, 1.043579
598.8232, 20.95044
599.3053, 29.81824
599.7874, 32.36792
600.2695, 39.03271
600.7516, 52.18359
601.2338, 64.03699
601.7159, 66.19812
602.1980, 58.86365
602.6801, 50.83594
603.1622, 41.89771
603.6443, 32.73901
604.1265, 20.66980
604.6086, 10.28601
605.0907, 6.480469
605.5728, 9.384888
606.0549, 13.69409
606.5370, 18.97766
607.0192, 25.04761
607.5013, 26.08423
607.9834, 20.60046
608.4655, 14.68384
608.9476, 11.45227
609.4297, 11.10791
609.9119, 10.56409
610.3940, 7.809814
610.8761, 12.07043
611.3582, 43.46130
611.8403, 58.97656
612.3224, 30.22009
612.8046, 13.65186
613.2867, 35.65796
613.7688, 26.90588
614.2509, 7.363770
614.7330, 15.88171
615.2151, 36.38184
615.6973, 36.82605
616.1794, 17.54883
616.6615, 9.9730998E-02
617.1436, 4.518433
617.6257, 0.7690430
618.1078, 2.394043
618.5900, 5.378418
619.0721, 6.796997
619.5542, 5.948486
620.0363, 4.399170
620.5184, 0.4144290
621.0005, 3.102417
621.4827, 3.4790002E-02
621.9648, 12.45007
622.4469, 24.65869
622.9290, 22.38062
623.4111, 11.66724
623.8932, 15.53711
624.3754, 37.29211
624.8575, 54.68152
625.3396, 51.49536
625.8217, 36.74744
626.3038, 37.79980
626.7859, 80.32190
627.2681, 94.58313
627.7502, 46.65991
628.2323, 0.7775880
628.7144, 3.542603
629.1965, 38.56360
629.6786, 60.01379
630.1608, 44.04688
630.6429, 20.81799
631.1250, 30.06738
631.6071, 65.21362
632.0892, 95.33838
632.5714, 117.8268
633.0535, 125.7819
633.5356, 109.5879
634.0177, 76.72046
634.4998, 57.16980
634.9819, 60.95679
635.4641, 62.13672
635.9462, 55.87622
636.4283, 49.15552
636.9104, 48.05444
637.3925, 50.57715
637.8746, 49.24963
638.3568, 38.78467
638.8389, 28.91663
639.3210, 36.99390
639.8031, 59.67651
640.2852, 74.16809
640.7673, 76.60828
641.2495, 73.52234
641.7316, 69.16003
642.2137, 63.24573
642.6958, 54.42065
643.1779, 34.89795
643.6600, 23.63782
644.1422, 26.33801
644.6243, 34.36926
645.1064, 46.17627
645.5885, 57.80054
646.0706, 60.10974
646.5527, 46.24133
647.0349, 28.07349
647.5170, 23.69873
647.9991, 32.58423
648.4812, 35.84644
648.9633, 32.09448
649.4454, 30.66492
649.9276, 39.92065
650.4097, 57.12390
650.8918, 67.76636
651.3739, 69.38110
651.8560, 68.13379
652.3381, 64.16431
652.8203, 57.61353
653.3024, 46.39954
653.7845, 32.74182
654.2666, 21.81128
654.7487, 16.11475
655.2308, 13.44653
655.7130, 11.97241
656.1951, 13.61450
656.6772, 20.03723
657.1593, 31.76025
657.6414, 46.22351
658.1235, 62.45886
658.6057, 79.52026
659.0878, 93.64355
659.5699, 108.8459
660.0520, 114.9023
660.5341, 108.0669
661.0162, 95.51831
661.4984, 77.60278
661.9805, 57.96729
662.4626, 45.78540
662.9447, 48.03320
663.4268, 47.86414
663.9089, 16.19751
664.3911, 30.81006
664.8732, 42.11584
665.3553, 11.24524
665.8374, 17.76831
666.3195, 12.88525
666.8016, 11.29932
667.2838, 6.091919
667.7659, 53.60193
668.2480, 96.13147
668.7301, 117.9540
669.2122, 126.4794
669.6943, 117.5378
670.1765, 99.31702
670.6586, 86.21667
671.1407, 84.86414
671.6228, 84.34387
672.1049, 69.39233
672.5870, 51.48035
673.0692, 56.62231
673.5513, 83.21411
674.0334, 99.67603
674.5155, 86.60938
674.9976, 56.52124
675.4797, 37.01306
675.9619, 27.26904
676.4440, 30.84912
676.9261, 63.93176
677.4082, 90.34839
677.8903, 90.68567
678.3724, 76.23303
678.8546, 62.43591
679.3367, 50.73938
679.8188, 49.20679
680.3009, 78.70093
680.7830, 108.8522
681.2651, 98.36938
681.7473, 57.85205
682.2294, 26.40393
682.7115, 21.45911
683.1936, 33.03955
683.6757, 49.82971
684.1578, 73.26355
684.6400, 81.45093
685.1221, 70.55713
685.6042, 52.29028
686.0863, 20.08936
686.5684, 9.969360
687.0505, 13.08850
687.5327, 14.58911
688.0148, 41.12158
688.4969, 63.42053
688.9790, 77.32520
689.4611, 72.20654
689.9432, 60.22644
690.4254, 64.88538
690.9075, 91.37805
691.3896, 116.9384
691.8717, 115.6016
692.3538, 93.64685
692.8359, 76.67395
693.3181, 64.34583
693.8002, 63.02356
694.2823, 80.18335
694.7644, 99.62805
695.2465, 98.90479
695.7286, 74.84741
696.2108, 61.28870
696.6929, 67.40930
697.1750, 72.20239
697.6571, 69.40100
698.1392, 62.70300
698.6213, 52.57703
699.1035, 41.50818
699.5856, 38.54993
700.0677, 52.95752
700.5498, 74.89551
701.0319, 92.88098
701.5140, 106.3577
701.9962, 112.3754
702.4783, 110.1305
702.9604, 104.2313
703.4425, 99.96936
703.9246, 95.27466
704.4067, 72.89905
704.8889, 3.534668
705.3710, 29.31042
705.8531, 14.52271
706.3352, 67.82214
706.8173, 94.36902
707.2994, 98.76074
707.7816, 97.67834
708.2637, 94.00452
708.7458, 89.90332
709.2279, 86.57324
709.7100, 83.73145
710.1921, 80.89612
710.6743, 77.84277
711.1564, 74.80615
711.6385, 71.50476
712.1206, 70.22583
712.6027, 77.38184
713.0848, 94.20105
713.5670, 104.5664
714.0491, 107.2173
714.5312, 104.0544
715.0133, 92.63953
715.4954, 77.54163
715.9775, 68.22412
716.4597, 66.08765
716.9418, 64.53064
717.4239, 61.46411
717.9060, 59.86548
718.3881, 60.67297
718.8702, 64.38013
719.3524, 73.75854
719.8345, 88.87964
720.3166, 100.8392
720.7987, 102.4622
721.2808, 94.71692
721.7629, 73.13452
722.2451, 38.01233
722.7272, 19.87134
723.2093, 33.51721
723.6914, 56.75903
724.1735, 63.08655
724.6556, 51.25818
725.1378, 42.00989
725.6199, 36.00061
726.1020, 32.38171
726.5841, 30.80334
727.0662, 31.73376
727.5483, 39.91040
728.0305, 52.10486
728.5126, 53.41956
728.9947, 27.50073
729.4768, 4.567261
729.9589, 7.969727
730.4410, 25.01770
730.9232, 41.36804
731.4053, 52.90259
731.8874, 52.60291
732.3695, 33.57458
732.8516, 10.80933
733.3337, 23.53308
733.8159, 73.78162
734.2980, 99.94006
734.7801, 92.22522
735.2622, 70.20435
735.7443, 35.87866
736.2264, 6.5063000E-02
736.7086, 7.718262
737.1907, 28.38025
737.6728, 49.99292
738.1549, 38.82324
738.6370, 28.48047
739.1191, 41.32422
739.6013, 63.04797
740.0834, 68.74390
740.5655, 53.00427
741.0476, 40.26526
741.5297, 54.18506
742.0118, 78.36353
742.4940, 90.73987
742.9761, 91.94177
743.4582, 85.69922
743.9403, 73.10669
744.4224, 53.10706
744.9045, 23.13062
745.3867, 13.00623
745.8688, 29.78186
746.3509, 21.76294
746.8330, 6.225220
747.3151, 17.15295
747.7972, 42.59998
748.2794, 66.21985
748.7615, 87.50342
749.2436, 103.8521
749.7257, 119.8777
750.2078, 123.8776
750.6899, 101.8451
751.1721, 75.03918
751.6542, 55.75964
752.1363, 48.16931
752.6184, 61.25903
753.1005, 101.3850
753.5826, 142.2312
754.0648, 149.7833
754.5469, 134.9208
755.0290, 130.4360
755.5111, 137.3093
755.9932, 133.0549
756.4753, 105.2090
756.9575, 71.72095
757.4396, 61.33496
757.9217, 77.30676
758.4038, 89.39734
758.8859, 96.14819
759.3680, 101.3517
759.8502, 106.1072
760.3323, 110.0131
760.8144, 114.2329
761.2965, 118.1927
761.7786, 115.6035
762.2607, 91.07959
762.7429, 75.87854
763.2250, 96.38696
763.7071, 127.8218
764.1892, 134.4412
764.6713, 116.3008
765.1534, 95.13989
765.6356, 84.37598
766.1177, 75.03967
766.5998, 45.95679
767.0819, 5.834839
767.5640, 3.992065
768.0461, 21.47449
768.5283, 48.97278
769.0104, 59.04028
769.4925, 59.30798
769.9746, 67.77930
770.4567, 89.59424
770.9388, 99.83484
771.4210, 89.52234
771.9031, 80.58801
772.3852, 83.37610
772.8673, 89.61353
773.3494, 87.49939
773.8315, 76.46057
774.3137, 76.47607
774.7958, 110.3828
775.2779, 136.7101
775.7600, 129.7828
776.2421, 104.8593
776.7242, 72.51770
777.2064, 40.70422
777.6885, 28.73499
778.1706, 54.65991
778.6527, 93.53088
779.1348, 105.1708
779.6169, 96.79468
780.0991, 97.24854
780.5812, 110.3097
781.0633, 124.2488
781.5454, 131.7449
782.0275, 136.1338
782.5096, 147.3594
782.9918, 172.2555
783.4739, 173.7435
783.9560, 132.6589
784.4381, 99.51636
784.9202, 100.9087
785.4023, 118.2455
785.8845, 132.2195
786.3666, 141.9746
786.8487, 143.7565
787.3308, 127.6292
787.8129, 114.0084
788.2950, 113.4514
788.7772, 118.9888
789.2593, 123.6497
789.7414, 126.2823
790.2235, 128.2429
790.7056, 130.2480
791.1877, 132.0292
791.6699, 130.6676
792.1520, 129.2372
792.6341, 140.0758
793.1162, 162.0145
793.5983, 172.7549
794.0804, 159.0740
794.5626, 131.7650
795.0447, 111.4011
795.5268, 97.51672
796.0089, 85.40100
796.4910, 76.86340
796.9731, 64.10864
797.4553, 37.50098
797.9374, 12.27612
798.4195, 13.16345
798.9016, 43.99048
799.3837, 55.27026
799.8658, 25.07080
800.3480, 3.666260
800.8301, 6.864014
801.3122, 20.24731
801.7943, 40.41956
802.2764, 60.08411
802.7585, 58.27600
803.2407, 15.28796
803.7228, 24.06506
804.2049, 20.35950
804.6870, 4.591064
805.1691, 26.69946
805.6512, 41.24524
806.1334, 41.08557
806.6155, 23.52893
807.0976, 7.783691
807.5797, 26.83289
808.0618, 70.78076
808.5439, 83.47412
809.0261, 63.41418
809.5082, 46.00195
809.9903, 41.97583
810.4724, 46.46985
810.9545, 54.29309
811.4366, 65.13452
811.9188, 69.63379
812.4009, 67.59790
812.8830, 59.35156
813.3651, 35.12952
813.8472, 15.11206
814.3293, 15.43970
814.8115, 27.04712
815.2936, 27.83215
815.7757, 8.266846
816.2578, 0.6773680
816.7399, 29.03601
817.2220, 56.55615
817.7041, 56.75415
818.1862, 41.31470
818.6683, 29.44067
819.1505, 25.52258
819.6326, 21.82385
820.1147, 8.342651
820.5968, 3.956665
821.0789, 4.438721
821.5610, 24.78235
822.0432, 33.75281
822.5253, 28.07654
823.0074, 19.95789
823.4895, 17.79651
823.9716, 18.52771
824.4537, 15.06897
824.9359, 7.489990
825.4180, 0.3026120
825.9001, 8.306519
826.3822, 11.22223
826.8643, 4.979736
827.3464, 8.793701
827.8286, 30.11792
828.3107, 62.26575
828.7928, 77.28552
829.2749, 61.96436
829.7570, 47.63000
830.2391, 41.42676
830.7213, 37.41443
831.2034, 30.00903
831.6855, 20.39465
832.1676, 14.24646
832.6497, 12.12585
833.1318, 14.69861
833.6140, 28.60510
834.0961, 41.79700
834.5782, 40.80621
835.0603, 31.79956
835.5424, 30.51367
836.0245, 41.96313
836.5067, 51.47681
836.9888, 44.56378
837.4709, 30.18787
837.9530, 18.80725
838.4351, 11.61560
838.9172, 13.21680
839.3994, 23.87250
839.8815, 35.47229
840.3636, 42.33826
840.8457, 42.96692
841.3278, 29.42871
841.8099, 1.719849
842.2921, 16.24585
842.7742, 22.05420
843.2563, 15.10156
843.7384, 9.591858
844.2205, 39.42853
844.7026, 49.73236
845.1848, 36.15771
845.6669, 27.94849
846.1490, 27.42706
846.6311, 28.71753
847.1132, 34.70172
847.5953, 39.66852
848.0775, 36.98315
848.5596, 28.28101
849.0417, 23.29022
849.5238, 22.73132
850.0059, 26.86017
850.4880, 47.39661
850.9702, 61.76874
851.4523, 42.93091
851.9344, 8.573364
852.4165, 2.758850
852.8986, 20.15955
853.3807, 42.18396
853.8629, 36.54181
854.3450, 22.32666
854.8271, 17.08228
855.3092, 19.28607
855.7913, 27.56116
856.2734, 39.71021
856.7556, 46.45551
857.2377, 39.40039
857.7198, 28.39520
858.2019, 32.50793
858.6840, 48.11139
859.1661, 59.70575
859.6483, 65.68469
860.1304, 66.01440
860.6125, 60.42212
861.0946, 50.36572
861.5767, 34.81702
862.0588, 15.75885
862.5410, 10.32477
863.0231, 20.25775
863.5052, 33.01617
863.9873, 50.72046
864.4694, 60.50281
864.9515, 46.13306
865.4337, 12.53601
865.9158, 4.036011
866.3979, 13.35248
866.8800, 20.59064
867.3621, 2.657898
867.8442, 8.096741
868.3264, 11.74628
868.8085, 41.43701
869.2906, 52.04364
869.7727, 40.49347
870.2548, 28.39545
870.7369, 14.00342
871.2191, 8.858093
871.7012, 29.53052
872.1833, 53.30353
872.6654, 53.07397
873.1475, 34.82867
873.6296, 26.23273
874.1118, 40.44989
874.5939, 57.23914
875.0760, 62.33875
875.5581, 60.37152
876.0402, 53.78949
876.5223, 45.66888
877.0045, 43.10791
877.4866, 47.51007
877.9687, 51.43274
878.4508, 45.40833
878.9329, 38.93140
879.4150, 56.74420
879.8972, 90.39435
880.3793, 104.7635
880.8614, 95.04718
881.3435, 70.65070
881.8256, 35.07324
882.3077, 1.067993
882.7899, 7.748047
883.2720, 8.589783
883.7541, 28.25922
884.2362, 53.27753
884.7183, 71.22803
885.2004, 77.64502
885.6826, 76.96814
886.1647, 73.24994
886.6468, 66.57599
887.1289, 54.82135
887.6110, 32.58270
888.0931, 18.59454
888.5753, 17.05334
889.0574, 19.32990
889.5395, 21.99823
890.0216, 25.64349
890.5037, 31.80273
890.9858, 41.07062
891.4680, 47.85535
891.9501, 56.17023
892.4322, 56.08923
892.9143, 24.69684
893.3964, 1.438782
893.8785, 35.01306
894.3607, 101.7548
894.8428, 129.7757
895.3249, 88.67883
895.8070, 50.36780
896.2891, 48.85223
896.7712, 56.02130
897.2534, 53.75391
897.7355, 45.56549
898.2176, 37.34167
898.6997, 30.77161
899.1818, 28.06427
899.6639, 33.44788
900.1461, 39.35345
900.6282, 37.71759
901.1103, 33.40314
901.5924, 34.84088
902.0745, 38.84418
902.5566, 32.23096
903.0388, 10.02936
903.5209, 6.403320
904.0030, 12.46198
904.4851, 51.35712
904.9672, 80.98022
905.4493, 100.0204
905.9315, 96.98486
906.4136, 71.89258
906.8957, 51.60303
907.3778, 55.90173
907.8599, 70.97247
908.3420, 64.69275
908.8242, 40.26849
909.3063, 38.28534
909.7884, 60.75732
910.2705, 66.74670
910.7526, 38.45959
911.2347, 10.38715
911.7169, 22.33636
912.1990, 66.29779
912.6811, 91.13190
913.1632, 93.29974
913.6453, 92.14807
914.1274, 91.61115
914.6096, 81.65204
915.0917, 48.80005
915.5738, 13.05817
916.0559, 9.761230
916.5380, 46.14795
917.0201, 65.88965
917.5023, 56.57617
917.9844, 51.64508
918.4665, 63.10382
918.9486, 75.30505
919.4307, 78.25323
919.9128, 73.10706
920.3950, 62.61157
920.8771, 45.20410
921.3592, 26.89465
921.8413, 3.323242
922.3234, 20.55139
922.8055, 3.707275
923.2877, 23.07306
923.7698, 33.29919
924.2519, 28.18671
924.7340, 26.05420
925.2161, 34.86542
925.6982, 41.07434
926.1804, 41.21368
926.6625, 38.58972
927.1446, 31.44281
927.6267, 24.50818
928.1088, 25.98462
928.5909, 36.95276
929.0731, 46.26709
929.5552, 43.92932
930.0373, 42.94312
930.5194, 58.40570
931.0015, 75.94501
931.4836, 74.71686
931.9658, 59.77734
932.4479, 51.87775
932.9300, 59.40082
933.4121, 67.39270
933.8942, 60.69403
934.3763, 50.26477
934.8585, 49.84198
935.3406, 55.65289
935.8227, 59.48492
936.3048, 60.28259
936.7869, 63.12231
937.2690, 72.23334
937.7512, 78.15527
938.2333, 61.49573
938.7154, 36.08771
939.1975, 36.53577
939.6796, 56.60406
940.1617, 64.66180
940.6439, 52.16772
941.1260, 38.69641
941.6081, 40.54095
942.0902, 48.36926
942.5723, 40.81512
943.0544, 21.93896
943.5366, 7.000000
944.0187, 1.496399
944.5008, 11.17102
944.9829, 52.05811
945.4650, 90.93793
945.9471, 88.12134
946.4293, 54.71887
946.9114, 35.98657
947.3935, 31.73920
947.8756, 33.30396
948.3577, 39.93542
948.8398, 44.73639
949.3220, 43.94977
949.8041, 38.47406
950.2862, 27.27948
950.7683, 10.86877
951.2504, 14.46088
951.7325, 43.73633
952.2147, 52.80066
952.6968, 25.17346
953.1789, 1.111755
953.6610, 13.23230
954.1431, 44.09442
954.6252, 48.00055
955.1074, 18.27753
955.5895, 1.906738
956.0716, 4.170166
956.5537, 2.742493
957.0358, 14.55487
957.5179, 25.64966
958.0001, 4.786377
958.4822, 37.34723
958.9643, 51.63263
959.4464, 21.94397
959.9285, 7.764465
960.4106, 16.62946
960.8928, 28.64136
961.3749, 39.98547
961.8570, 47.41058
962.3391, 44.12701
962.8212, 30.96191
963.3033, 19.33972
963.7855, 2.504333
964.2676, 7.5679999E-03
964.7497, 32.37384
965.2318, 53.93097
965.7139, 32.51422
966.1960, 4.205750
966.6782, 18.01520
967.1603, 8.203735
967.6424, 6.8359002E-02
968.1245, 4.408569
968.6066, 10.40686
969.0887, 22.47229
969.5709, 32.22968
970.0530, 33.37201
970.5351, 29.74182
971.0172, 28.95312
971.4993, 32.35681
971.9814, 29.05365
972.4636, 5.912476
972.9457, 7.426147
973.4278, 5.709167
973.9099, 21.30884
974.3920, 21.40021
974.8741, 11.92279
975.3563, 5.460815
975.8384, 1.898621
976.3205, 10.40839
976.8026, 51.57678
977.2847, 79.96893
977.7668, 66.26257
978.2490, 44.91394
978.7311, 50.65704
979.2132, 72.50415
979.6953, 73.26611
980.1774, 38.77777
980.6595, 13.87866
981.1417, 12.33832
981.6238, 17.71460
982.1059, 31.59766
982.5880, 42.04285
983.0701, 30.37225
983.5522, 4.775635
984.0344, 3.726990
984.5165, 16.94385
984.9986, 40.21790
985.4807, 64.94110
985.9628, 81.42029
986.4449, 79.33594
986.9271, 69.47083
987.4092, 64.29028
987.8913, 63.62170
988.3734, 59.18799
988.8555, 45.21112
989.3376, 35.79901
989.8198, 45.26489
990.3019, 51.53656
990.7840, 30.47009
991.2661, 3.860474
991.7482, 5.244629
992.2303, 32.26654
992.7125, 48.41071
993.1946, 32.71289
993.6767, 23.28009
994.1588, 48.74384
994.6409, 74.87091
995.1230, 72.76166
995.6052, 57.42871
996.0873, 51.79736
996.5694, 58.89600
997.0515, 71.07648
997.5336, 88.51178
998.0157, 104.7970
998.4979, 118.6172
998.9800, 128.2929
999.4621, 135.2496
999.9442, 135.7812
1000.426, 118.5688
1000.908, 85.71863
1001.391, 65.47906
1001.873, 76.20856
1002.355, 90.35803
1002.837, 97.77478
1003.319, 99.78168
1003.801, 94.15894
1004.283, 85.54352
1004.765, 80.38733
1005.247, 79.84045
1005.730, 82.33203
1006.212, 95.18469
1006.694, 99.18542
1007.176, 65.65845
1007.658, 37.92175
1008.140, 69.10376
1008.622, 124.0518
1009.104, 137.3981
1009.587, 102.0458
1010.069, 70.90680
1010.551, 58.65503
1011.033, 62.51276
1011.515, 104.3612
1011.997, 142.2297
1012.479, 134.5103
1012.961, 101.8713
1013.443, 80.84717
1013.926, 78.01862
1014.408, 80.16931
1014.890, 82.70959
1015.372, 86.60516
1015.854, 105.0253
1016.336, 115.8282
1016.818, 89.86591
1017.300, 49.09662
1017.783, 31.95441
1018.265, 45.38446
1018.747, 61.12189
1019.229, 80.19666
1019.711, 87.79834
1020.193, 68.76044
1020.675, 45.50415
1021.157, 28.71442
1021.639, 21.70477
1022.122, 33.89307
1022.604, 65.13135
1023.086, 81.72931
1023.568, 59.97296
1024.050, 41.25513
1024.532, 44.75098
1025.014, 50.39020
1025.496, 41.33356
1025.979, 25.43060
1026.461, 15.47156
1026.943, 12.99377
1027.425, 14.09338
1027.907, 22.56702
1028.389, 27.68854
1028.871, 15.80322
1029.353, 11.62091
1029.835, 39.68182
1030.318, 79.46619
1030.800, 100.4856
1031.282, 102.1660
1031.764, 101.3999
1032.246, 110.5457
1032.728, 102.6876
1033.210, 42.17615
1033.692, 1.421021
1034.175, 27.64661
1034.657, 83.48877
1035.139, 103.4285
1035.621, 86.35242
1036.103, 71.11011
1036.585, 58.22986
1037.067, 50.35242
1037.549, 51.07080
1038.031, 52.86365
1038.514, 50.64014
1038.996, 48.99548
1039.478, 54.72144
1039.960, 67.10315
1040.442, 76.22949
1040.924, 86.94446
1041.406, 85.18250
1041.888, 60.84668
1042.370, 38.22485
1042.853, 21.38611
1043.335, 15.25110
1043.817, 32.30505
1044.299, 66.40149
1044.781, 72.72070
1045.263, 31.09363
1045.745, 14.21313
1046.227, 35.59253
1046.710, 56.56458
1047.192, 63.60046
1047.674, 64.86096
1048.156, 67.49927
1048.638, 71.43982
1049.120, 78.51660
1049.602, 95.09644
1050.084, 85.03845
1050.567, 37.80042
1051.049, 1.217529
1051.531, 18.57581
1052.013, 21.60083
1052.495, 15.61926
1052.977, 1.534058
1053.459, 20.50696
1053.941, 52.07104
1054.423, 73.60693
1054.906, 85.26294
1055.388, 78.96497
1055.870, 49.27563
1056.352, 26.81348
1056.834, 35.85840
1057.316, 62.09412
1057.798, 79.06824
1058.280, 86.68823
1058.762, 83.82654
1059.245, 70.82690
1059.727, 52.21863
1060.209, 29.19165
1060.691, 14.68091
1061.173, 17.08435
1061.655, 28.38879
1062.137, 41.11462
1062.619, 51.54968
1063.102, 40.76880
1063.584, 14.68420
1064.066, 1.452271
1064.548, 3.827148
1065.030, 4.446289
1065.512, 22.01318
1065.994, 33.59143
1066.476, 14.67261
1066.958, 15.87341
1067.441, 23.67761
1067.923, 14.89990
1068.405, 2.659912
1068.887, 23.12903
1069.369, 30.83630
1069.851, 20.69299
1070.333, 7.682739
1070.815, 3.543335
1071.297, 3.275513
1071.780, 0.5021970
1072.262, 1.291748
1072.744, 4.437500
1073.226, 14.83057
1073.708, 25.46924
1074.190, 33.67383
1074.672, 29.73621
1075.154, 4.079224
1075.636, 29.16919
1076.119, 13.44092
1076.601, 16.49426
1077.083, 42.59534
1077.565, 63.15015
1078.047, 82.29993
1078.529, 97.77051
1079.011, 92.36133
1079.493, 43.50366
1079.976, 12.47546
1080.458, 36.98022
1080.940, 66.64697
1081.422, 80.50073
1081.904, 80.17590
1082.386, 59.17798
1082.868, 26.51172
1083.350, 15.47461
1083.833, 40.04993
1084.315, 57.87085
1084.797, 56.61255
1085.279, 58.47864
1085.761, 83.91077
1086.243, 100.2828
1086.725, 72.46399
1087.207, 23.09619
1087.689, 4.067505
1088.172, 19.85535
1088.654, 38.69360
1089.136, 66.08533
1089.618, 82.87903
1090.100, 83.32825
1090.582, 77.83960
1091.064, 69.01550
1091.546, 63.15588
1092.028, 72.10107
1092.511, 93.71545
1092.993, 107.7450
1093.475, 114.4285
1093.957, 108.2284
1094.439, 86.80420
1094.921, 68.37805
1095.403, 59.56116
1095.885, 63.44324
1096.368, 85.59485
1096.850, 117.9923
1097.332, 143.2483
1097.814, 159.4072
1098.296, 144.7632
1098.778, 105.4062
1099.260, 94.97888
1099.742, 125.2023
1100.224, 152.2590
1100.707, 144.2738
1101.189, 122.0239
1101.671, 110.9709
1102.153, 107.2903
1102.635, 109.4514
1103.117, 111.5099
1103.599, 96.30164
1104.081, 66.84241
1104.563, 45.15833
1105.046, 40.73743
1105.528, 47.25244
1106.010, 70.08167
1106.492, 91.33350
1106.974, 91.09131
1107.456, 87.36255
1107.938, 105.5531
1108.420, 135.8896
1108.903, 152.2169
1109.385, 148.1571
1109.867, 139.1979
1110.349, 121.3143
1110.831, 114.8335
1111.313, 142.5101
1111.795, 164.5811
1112.277, 143.2252
1112.760, 109.3807
1113.242, 111.5831
1113.724, 147.6399
1114.206, 159.0074
1114.688, 125.3981
1115.170, 102.1107
1115.652, 92.58984
1116.134, 87.99817
1116.616, 87.06641
1117.099, 88.73059
1117.581, 93.40149
1118.063, 100.3188
1118.545, 108.9602
1119.027, 120.6520
1119.509, 115.8490
1119.991, 90.35120
1120.473, 78.81958
1120.955, 89.51050
1121.438, 99.23645
1121.920, 95.08838
1122.402, 83.84070
1122.884, 75.41736
1123.366, 66.73059
1123.848, 63.89734
1124.330, 65.26697
1124.812, 60.94629
1125.295, 51.80798
1125.777, 45.04089
1126.259, 43.99609
1126.741, 52.18433
1127.223, 77.73816
1127.705, 103.7646
1128.187, 108.7441
1128.669, 101.1393
1129.151, 87.48669
1129.634, 73.23950
1130.116, 65.39038
1130.598, 65.66980
1131.080, 76.10901
1131.562, 99.93188
1132.044, 118.2709
1132.526, 124.7664
1133.008, 117.8981
1133.490, 79.94727
1133.973, 43.81360
1134.455, 38.91418
1134.937, 54.47949
1135.419, 67.57483
1135.901, 75.37585
1136.383, 87.73145
1136.865, 116.8015
1137.347, 132.7767
1137.830, 129.4189
1138.312, 117.7391
1138.794, 94.90454
1139.276, 75.56140
1139.758, 78.70532
1140.240, 95.90515
1140.722, 89.64478
1141.204, 51.83411
1141.687, 49.24158
1142.169, 88.05859
1142.651, 112.9998
1143.133, 110.5936
1143.615, 97.86536
1144.097, 84.23755
1144.579, 74.58679
1145.061, 78.77917
1145.543, 90.98474
1146.026, 93.08704
1146.508, 88.10229
1146.990, 87.69263
1147.472, 90.72144
1147.954, 85.52417
1148.436, 69.29944
1148.918, 54.86829
1149.400, 54.02344
1149.882, 52.04602
1150.365, 26.43030
1150.847, 1.042725
1151.329, 3.510254
1151.811, 21.10620
1152.293, 33.79431
1152.775, 41.19763
1153.257, 56.15234
1153.739, 86.71021
1154.222, 101.4095
1154.704, 69.56128
1155.186, 50.66907
1155.668, 81.63281
1156.150, 112.7133
1156.632, 106.9613
1157.114, 82.06104
1157.596, 61.48450
1158.078, 45.31970
1158.561, 37.26355
1159.043, 39.41809
1159.525, 42.66052
1160.007, 47.43030
1160.489, 48.57361
1160.971, 43.89136
1161.453, 38.44580
1161.935, 37.35986
1162.417, 34.72888
1162.900, 10.00525
1163.382, 26.27344
1163.864, 13.90674
1164.346, 31.56824
1164.828, 40.18005
1165.310, 10.26746
1165.792, 5.913696
1166.274, 12.06274
1166.757, 32.57849
1167.239, 29.08777
1167.721, 18.70422
1168.203, 12.01489
1168.685, 12.50635
1169.167, 37.28223
1169.649, 64.43201
1170.131, 48.29639
1170.614, 2.878418
1171.096, 23.96814
1171.578, 11.79578
1172.060, 44.00378
1172.542, 69.62170
1173.024, 75.23315
1173.506, 30.34045
1173.988, 6.488525
1174.470, 6.325684
1174.953, 43.85828
1175.435, 68.49731
1175.917, 80.64111
1176.399, 84.69763
1176.881, 78.67786
1177.363, 79.66089
1177.845, 90.08545
1178.327, 94.91382
1178.809, 89.87463
1179.292, 67.07861
1179.774, 14.88818
1180.256, 29.43335
1180.738, 17.83594
1181.220, 108.9862
1181.702, 130.2910
1182.184, 102.5425
1182.666, 56.60132
1183.149, 8.736938
1183.631, 6.062988
1184.113, 21.73694
1184.595, 45.60498
1185.077, 32.77283
1185.559, 25.25562
1186.041, 54.49023
1186.523, 88.01379
1187.005, 113.3093
1187.488, 122.4332
1187.970, 97.39551
1188.452, 49.20215
1188.934, 18.60583
1189.416, 5.873291
1189.898, 21.63611
1190.380, 91.04089
1190.862, 126.6569
1191.344, 103.0026
1191.827, 79.27051
1192.309, 84.13623
1192.791, 103.1747
1193.273, 124.0570
1193.755, 138.2371
1194.237, 107.7555
1194.719, 46.59595
1195.201, 29.10303
1195.684, 50.92224
1196.166, 81.34607
1196.648, 110.3402
1197.130, 125.9014
1197.612, 121.8431
1198.094, 115.7328
1198.576, 130.2258
1199.058, 139.7952
1199.541, 111.4950
1200.023, 78.30212
1200.505, 70.19678
1200.987, 82.09790
1201.469, 114.8909
1201.951, 159.5376
1202.433, 161.2465
1202.915, 72.71179
1203.397, 35.11401
1203.880, 92.36475
1204.362, 129.5824
1204.844, 111.7827
1205.326, 91.41150
1205.808, 103.7249
1206.290, 121.1219
1206.772, 98.94446
1207.254, 50.63892
1207.736, 41.26794
1208.219, 66.01587
1208.701, 86.43396
1209.183, 101.5819
1209.665, 126.0597
1210.147, 160.7985
1210.629, 186.2423
1211.111, 191.0193
1211.593, 186.3180
1212.076, 170.9181
1212.558, 163.5321
1213.040, 190.6638
1213.522, 227.1376
1214.004, 253.5829
1214.486, 265.9221
1214.968, 254.1002
1215.450, 221.1732
1215.932, 205.8114
1216.415, 228.6964
1216.897, 236.2302
1217.379, 221.1145
1217.861, 209.3652
1218.343, 207.2765
1218.825, 205.7578
1219.307, 196.8097
1219.789, 190.2867
1220.271, 203.4904
1220.754, 227.2666
1221.236, 229.7831
1221.718, 216.4608
1222.200, 232.0736
1222.682, 268.5270
1223.164, 264.7731
1223.646, 215.9706
1224.128, 187.5864
1224.611, 216.4031
1225.093, 243.1925
1225.575, 206.2213
1226.057, 169.3890
1226.539, 174.3047
1227.021, 193.4738
1227.503, 217.8750
1227.985, 233.0486
1228.468, 210.8101
1228.950, 156.2236
1229.432, 132.8805
1229.914, 157.2740
1230.396, 166.3810
1230.878, 154.3824
1231.360, 144.9398
1231.842, 142.5930
1232.324, 148.2264
1232.807, 164.6277
1233.289, 171.0001
1233.771, 137.2865
1234.253, 85.06213
1234.735, 66.07703
1235.217, 65.46155
1235.699, 44.66895
1236.181, 13.63037
1236.663, 7.640259
1237.146, 23.16968
1237.628, 18.00427
1238.110, 25.79578
1238.592, 47.15149
1239.074, 8.489014
1239.556, 54.61633
1240.038, 60.70459
1240.520, 47.42859
1241.003, 0.3356930
1241.485, 35.09888
1241.967, 4.965576
1242.449, 65.28552
1242.931, 98.40491
1243.413, 92.69910
1243.895, 98.80249
1244.377, 116.8083
1244.859, 107.2933
1245.342, 68.57227
1245.824, 52.91919
1246.306, 79.07495
1246.788, 116.3795
1247.270, 145.4150
1247.752, 160.6622
1248.234, 145.7435
1248.716, 124.3055
1249.198, 118.3708
1249.681, 122.1520
1250.163, 137.7520
1250.645, 152.5575
1251.127, 129.9303
1251.609, 65.58496
1252.091, 52.40662
1252.573, 140.8317
1253.055, 188.8781
1253.538, 179.1064
1254.020, 159.7053
1254.502, 115.0411
1254.984, 100.0013
1255.466, 104.3076
1255.948, 99.62256
1256.430, 101.6622
1256.912, 106.3668
1257.395, 109.7820
1257.877, 113.6956
1258.359, 128.1606
1258.841, 144.7371
1259.323, 137.2296
1259.805, 107.4426
1260.287, 80.33521
1260.769, 62.97693
1261.251, 60.41431
1261.734, 97.96204
1262.216, 120.5839
1262.698, 99.97815
1263.180, 78.35278
1263.662, 78.04004
1264.144, 81.47925
1264.626, 72.66492
1265.108, 56.14185
1265.590, 42.34363
1266.073, 31.77820
1266.555, 30.36072
1267.037, 35.59082
1267.519, 29.88367
1268.001, 14.23853
1268.483, 2.517456
1268.965, 0.5883790
1269.447, 1.612671
1269.930, 0.0000000E+00
##END=



