##NAMES=Olmiite
##RRUFFID=R050144
##IDEAL CHEMISTRY=CaMnSiO_3_(OH)_2_
##LOCALITY=N'Chwaning II mine, Kuruman, South Africa
##OWNER=RRUFF
##SOURCE=Rock Currier
##DESCRIPTION=Tan colored prismatic crystals associated with fibrous bultfonteinite, R050088
##STATUS=The identification of this mineral has been confirmed by X-ray diffraction and chemical analysis
##URL=rruff.info/R050144
##MEASURED CHEMISTRY=Ca_1.00_(Mn_0.98_Ca_0.02_)(Si_1.00_O_3_OH)(OH)
52.866, 0.000
54.266, 52.354
55.666, 25.551
57.065, 47.002
58.464, 69.920
59.863, 70.574
61.262, 52.500
62.661, 2.796
64.059, 0.935
65.458, 16.874
66.856, 7.189
68.253, 11.019
69.651, 21.507
71.048, 101.270
72.445, 155.167
73.842, 263.105
75.239, 345.004
76.635, 309.785
78.031, 235.378
79.427, 225.726
80.823, 326.814
82.218, 358.894
83.614, 532.033
85.009, 570.062
86.404, 705.649
87.798, 838.759
89.193, 951.362
90.587, 1076.433
91.981, 916.948
93.375, 967.890
94.768, 879.236
96.161, 878.962
97.554, 1040.033
98.947, 1177.423
100.340, 1220.110
101.732, 1379.082
103.124, 1591.323
104.516, 1860.829
105.908, 2168.754
107.300, 2342.212
108.691, 2689.025
110.082, 3268.029
111.473, 4030.220
112.864, 5127.596
114.254, 6304.154
115.644, 6436.896
117.034, 5295.817
118.424, 3730.917
119.813, 2483.193
121.203, 1868.645
122.592, 1493.271
123.981, 1184.069
125.369, 1064.037
126.758, 1093.174
128.146, 982.478
129.534, 889.947
130.922, 831.580
132.309, 728.374
133.696, 660.327
135.083, 568.439
136.470, 562.673
137.857, 522.924
139.243, 524.196
140.630, 520.490
142.016, 577.800
143.401, 642.136
144.787, 742.524
146.172, 763.979
147.557, 835.511
148.942, 735.124
150.327, 721.825
151.711, 659.616
153.096, 614.502
154.480, 670.485
155.863, 680.734
157.247, 705.386
158.630, 855.672
160.013, 986.079
161.396, 1127.581
162.779, 1136.697
164.161, 1124.242
165.544, 1111.765
166.926, 1128.393
168.308, 1143.128
169.689, 1215.969
171.070, 1190.914
172.452, 1319.965
173.833, 1293.120
175.213, 1117.379
176.594, 1001.743
177.974, 813.210
179.354, 655.780
180.734, 541.452
182.114, 409.226
183.493, 362.102
184.872, 320.079
186.251, 325.156
187.630, 320.334
189.008, 364.611
190.387, 401.985
191.765, 471.455
193.143, 536.020
194.520, 626.679
195.898, 783.432
197.275, 982.278
198.652, 1211.215
200.029, 1477.243
201.405, 1764.361
202.782, 1938.568
204.158, 2053.864
205.534, 2156.246
206.909, 2046.715
208.285, 1913.268
209.660, 1823.906
211.035, 1807.627
212.410, 1628.431
213.784, 1610.315
215.159, 1450.281
216.533, 1491.325
217.907, 1642.449
219.281, 1904.990
220.654, 2178.581
222.027, 2499.206
223.400, 2837.883
224.773, 3118.530
226.146, 3250.241
227.518, 3249.137
228.891, 3118.458
230.263, 2901.266
231.634, 2763.816
233.006, 2560.315
234.377, 2331.989
235.748, 2138.067
237.119, 2042.316
238.490, 1866.737
239.860, 1876.309
241.231, 1583.039
242.601, 1475.917
243.970, 1306.938
245.340, 1018.089
246.709, 774.364
248.079, 556.757
249.448, 436.261
250.816, 246.872
252.185, 200.584
253.553, 126.393
254.921, 37.294
256.289, 23.283
257.657, 11.643
259.024, 52.458
260.391, 67.252
261.758, 88.941
263.125, 133.560
264.492, 116.113
265.858, 84.600
267.224, 130.019
268.590, 71.375
269.956, 107.666
271.321, 10.105
272.687, 9.057
274.052, 69.846
275.416, 93.814
276.781, 211.846
278.146, 323.944
279.510, 361.105
280.874, 490.329
282.237, 556.614
283.601, 650.960
284.964, 673.367
286.327, 691.836
287.690, 805.367
289.053, 764.968
290.416, 739.633
291.778, 827.363
293.140, 870.152
294.502, 826.920
295.863, 930.929
297.225, 796.912
298.586, 727.952
299.947, 812.044
301.308, 754.548
302.668, 895.393
304.029, 699.658
305.389, 730.981
306.749, 491.358
308.108, 523.798
309.468, 627.303
310.827, 665.866
312.186, 771.482
313.545, 916.153
314.903, 1144.875
316.262, 1495.660
317.620, 1748.497
318.978, 2229.388
320.336, 2676.325
321.693, 3386.311
323.051, 4037.318
324.408, 5044.361
325.765, 6074.426
327.121, 7367.528
328.478, 8519.672
329.834, 9716.864
331.190, 10650.103
332.546, 11457.382
333.902, 11087.707
335.257, 11002.072
336.612, 10056.480
337.967, 9065.932
339.322, 7948.421
340.677, 7028.953
342.031, 6159.523
343.385, 5095.131
344.739, 4244.779
346.093, 3576.464
347.446, 2897.187
348.799, 2453.947
350.153, 2083.743
351.505, 1739.575
352.858, 1503.443
354.210, 1313.345
355.563, 1112.281
356.915, 1009.252
358.267, 935.255
359.618, 959.292
360.969, 841.361
362.321, 805.462
363.672, 817.594
365.022, 788.757
366.373, 840.950
367.723, 791.174
369.073, 903.427
370.423, 987.708
371.773, 1039.019
373.122, 1068.357
374.471, 1171.730
375.821, 1195.132
377.169, 1166.571
378.518, 1259.047
379.866, 1219.553
381.215, 1307.086
382.563, 1458.673
383.910, 1657.318
385.258, 1900.284
386.605, 2216.477
387.952, 2639.254
389.299, 2992.902
390.646, 3675.080
391.992, 4111.649
393.339, 4604.361
394.685, 5027.978
396.031, 5363.984
397.376, 5471.198
398.722, 5307.676
400.067, 5220.180
401.412, 4887.192
402.757, 4485.242
404.101, 4335.438
405.446, 3943.663
406.790, 3709.275
408.134, 3537.914
409.478, 3411.447
410.821, 3366.323
412.165, 3499.584
413.508, 3521.482
414.851, 3758.742
416.193, 3958.542
417.536, 4073.024
418.878, 4385.466
420.220, 4659.825
421.562, 4918.657
422.904, 5149.238
424.245, 5780.378
425.586, 6508.414
426.927, 7392.915
428.268, 8636.188
429.609, 9385.367
430.949, 10505.943
432.289, 11349.707
433.629, 11974.330
434.969, 11362.876
436.309, 10748.524
437.648, 9293.187
438.987, 7982.361
440.326, 6449.203
441.665, 5234.905
443.003, 4168.732
444.342, 3372.505
445.680, 2646.602
447.018, 2167.807
448.355, 1730.650
449.693, 1374.919
451.030, 1133.523
452.367, 857.282
453.704, 775.763
455.041, 621.600
456.377, 569.858
457.713, 507.599
459.049, 475.454
460.385, 450.886
461.721, 415.654
463.056, 452.640
464.391, 487.431
465.726, 540.854
467.061, 697.639
468.395, 813.036
469.730, 1059.288
471.064, 1240.906
472.398, 1352.576
473.731, 1472.354
475.065, 1529.865
476.398, 1447.273
477.731, 1343.768
479.064, 1214.943
480.397, 1122.901
481.729, 1044.111
483.062, 1044.676
484.394, 1008.321
485.725, 962.484
487.057, 965.102
488.389, 951.056
489.720, 924.003
491.051, 860.994
492.382, 846.117
493.712, 905.921
495.043, 858.785
496.373, 930.578
497.703, 988.439
499.032, 1181.221
500.362, 1346.997
501.691, 1595.767
503.020, 1962.530
504.349, 2416.285
505.678, 3006.034
507.007, 3419.775
508.335, 3993.507
509.663, 4125.232
510.991, 4064.948
512.319, 3762.656
513.646, 3242.354
514.973, 2859.044
516.300, 2329.725
517.627, 2017.395
518.954, 1713.055
520.280, 1333.706
521.607, 1094.346
522.933, 911.976
524.259, 803.594
525.584, 649.202
526.910, 487.799
528.235, 489.384
529.560, 354.958
530.885, 271.519
532.209, 214.069
533.534, 167.837
534.858, 172.630
536.182, 105.014
537.506, 100.940
538.829, 50.183
540.152, 60.668
541.476, 57.819
542.799, 61.515
544.121, 26.477
545.444, 1.992
546.766, 23.619
548.088, 53.832
549.410, 78.558
550.732, 99.357
552.053, 100.240
553.375, 145.209
554.696, 134.287
556.017, 136.470
557.337, 107.759
558.658, 123.139
559.978, 66.619
561.298, 114.169
562.618, 83.816
563.938, 83.543
565.257, 40.350
566.576, 40.216
567.895, 20.805
569.214, 9.112
570.533, 1.872
571.851, 8.818
573.170, 22.811
574.488, 35.797
575.805, 50.469
577.123, 74.306
578.440, 94.124
579.758, 93.366
581.075, 96.703
582.391, 83.469
583.708, 93.222
585.024, 77.966
586.341, 94.700
587.657, 116.419
588.972, 74.130
590.288, 129.825
591.603, 86.508
592.918, 66.171
594.233, 66.813
595.548, 67.435
596.863, 34.037
598.177, 47.612
599.491, 61.164
600.805, 49.695
602.119, 54.246
603.432, 38.688
604.746, 35.149
606.059, 17.370
607.372, 9.015
608.685, 2.343
609.997, 0.339
611.309, 26.940
612.621, 1.811
613.933, 41.601
615.245, 19.547
616.557, 16.664
617.868, 44.749
619.179, 8.811
620.490, 45.838
621.801, 19.158
623.111, 3.797
624.421, 16.716
625.731, 13.396
627.041, 27.554
628.351, 0.763
629.660, 17.989
630.970, 14.712
632.279, 21.404
633.588, 31.931
634.896, 20.680
636.205, 4.264
637.513, 41.814
638.821, 30.658
640.129, 15.818
641.437, 22.733
642.744, 27.669
644.051, 12.047
645.358, 36.397
646.665, 35.726
647.972, 32.034
649.278, 24.320
650.584, 53.583
651.890, 36.827
653.196, 84.052
654.502, 34.258
655.807, 106.444
657.113, 94.612
658.418, 104.763
659.722, 178.895
661.027, 137.010
662.331, 130.107
663.636, 183.187
664.940, 169.250
666.244, 165.296
667.547, 173.324
668.851, 215.336
670.154, 187.332
671.457, 174.310
672.760, 130.273
674.062, 163.219
675.365, 139.149
676.667, 120.064
677.969, 100.962
679.271, 116.845
680.572, 88.713
681.874, 33.566
683.175, 386.403
684.476, 585.226
685.777, 450.034
687.077, 391.828
688.378, 49.607
689.678, 20.627
690.978, 4.888
692.278, 33.168
693.577, 43.479
694.877, 15.827
696.176, 1.803
697.475, 50.581
698.774, 61.002
700.072, 15.466
701.371, 26.225
702.669, 1.812
703.967, 18.706
705.265, 29.931
706.562, 82.070
707.860, 39.846
709.157, 80.511
710.454, 111.303
711.751, 137.732
713.047, 154.980
714.344, 171.430
715.640, 191.724
716.936, 199.524
718.232, 218.034
719.527, 247.609
720.823, 238.520
722.118, 239.823
723.413, 283.836
724.708, 247.977
726.002, 254.795
727.297, 288.250
728.591, 219.090
729.885, 216.587
731.179, 224.564
732.472, 211.880
733.766, 196.253
735.059, 182.578
736.352, 133.004
737.645, 145.381
738.937, 108.760
740.230, 103.141
741.522, 82.524
742.814, 101.910
744.106, 89.130
745.397, 74.688
746.689, 95.082
747.980, 71.478
749.271, 93.877
750.562, 104.281
751.853, 142.687
753.143, 78.595
754.433, 120.853
755.723, 112.269
757.013, 163.572
758.303, 186.947
759.592, 265.014
760.881, 323.988
762.170, 294.339
763.459, 404.279
764.748, 484.899
766.036, 565.380
767.325, 684.153
768.613, 753.584
769.901, 882.610
771.188, 1069.165
772.476, 1206.623
773.763, 1520.943
775.050, 1651.087
776.337, 1984.455
777.624, 2214.031
778.910, 2493.988
780.196, 2791.597
781.482, 3032.607
782.768, 3372.777
784.054, 3760.592
785.339, 4284.370
786.625, 4660.051
787.910, 4952.015
789.195, 5455.095
790.479, 5828.100
791.764, 6249.438
793.048, 6610.011
794.332, 7053.354
795.616, 7419.361
796.900, 7682.309
798.183, 7963.767
799.467, 8083.793
800.750, 8358.511
802.033, 8616.268
803.316, 8816.006
804.598, 9283.638
805.880, 9295.609
807.163, 9926.547
808.445, 10335.573
809.726, 11326.567
811.008, 10445.662
812.289, 10248.789
813.570, 9364.940
814.851, 8869.112
816.132, 8354.313
817.413, 7781.538
818.693, 7376.790
819.973, 7202.072
821.253, 7043.376
822.533, 6896.698
823.813, 6915.039
825.092, 6872.399
826.371, 6901.778
827.650, 7107.177
828.929, 7273.602
830.208, 7638.060
831.486, 8024.549
832.764, 8439.062
834.042, 9009.596
835.320, 9999.167
836.598, 10968.760
837.875, 12414.382
839.152, 14104.041
840.429, 16271.727
841.706, 19377.432
842.983, 22648.174
844.259, 27027.707
845.536, 32748.240
846.812, 37904.191
848.088, 43503.621
849.363, 47413.734
850.639, 50052.641
851.914, 49824.859
853.189, 47027.566
854.464, 42996.020
855.739, 38417.926
857.013, 33405.973
858.288, 28224.631
859.562, 23854.783
860.836, 20250.988
862.110, 16941.260
863.383, 14105.589
864.656, 12138.990
865.930, 10204.465
867.203, 8813.008
868.475, 7643.617
869.748, 6511.303
871.020, 5748.042
872.292, 5009.844
873.564, 4481.704
874.836, 4030.625
876.108, 3662.593
877.379, 3210.611
878.650, 3073.670
879.922, 2660.768
881.192, 2501.907
882.463, 2268.080
883.733, 2058.285
885.004, 1953.520
886.274, 1798.781
887.544, 1692.070
888.813, 1627.386
890.083, 1538.454
891.352, 1455.097
892.621, 1452.491
893.890, 1437.912
895.159, 1450.359
896.427, 1495.833
897.695, 1417.333
898.964, 1461.860
900.232, 1453.413
901.499, 1375.991
902.767, 1363.595
904.034, 1243.224
905.301, 1212.880
906.568, 1199.564
907.835, 1160.277
909.102, 1135.017
910.368, 1116.462
911.634, 1057.581
912.900, 1079.405
914.166, 1056.257
915.432, 1041.141
916.697, 916.061
917.962, 829.016
919.227, 776.007
920.492, 640.026
921.757, 587.081
923.021, 459.181
924.285, 377.312
925.550, 331.473
926.813, 289.660
928.077, 246.879
929.341, 328.124
930.604, 271.406
931.867, 318.721
933.130, 395.066
934.393, 418.447
935.655, 507.868
936.918, 626.323
938.180, 785.885
939.442, 880.763
940.703, 1049.303
941.965, 1329.910
943.226, 1585.516
944.488, 1881.438
945.749, 2283.834
947.009, 2686.136
948.270, 3056.841
949.530, 3435.005
950.791, 3580.052
952.051, 3459.551
953.311, 3231.626
954.570, 2892.390
955.830, 2648.551
957.089, 2188.539
958.348, 1968.542
959.607, 1642.993
960.866, 1481.168
962.124, 1241.598
963.383, 1090.482
964.641, 997.263
965.899, 888.868
967.156, 814.135
968.414, 784.542
969.671, 680.428
970.928, 686.097
972.185, 536.588
973.442, 529.727
974.699, 536.881
975.955, 421.052
977.211, 351.240
978.468, 328.627
979.723, 308.535
980.979, 259.924
982.234, 234.048
983.490, 228.980
984.745, 183.521
986.000, 135.338
987.254, 107.195
988.509, 111.475
989.763, 93.503
991.017, 115.205
992.271, 38.208
993.525, 65.832
994.779, 60.637
996.032, 95.905
997.285, 100.705
998.538, 128.616
999.791, 90.423
1001.044, 154.139
1002.296, 135.321
1003.548, 146.275
1004.800, 196.167
1006.052, 210.132
1007.304, 211.226
1008.555, 235.999
1009.807, 222.030
1011.058, 390.020
1012.309, 256.811
1013.559, 526.977
1014.810, 324.895
1016.060, 340.995
1017.310, 936.938
1018.560, 558.591
1019.810, 1230.828
1021.060, 299.717
1022.309, 243.633
1023.558, 169.864
1024.807, 193.401
1026.056, 200.648
1027.305, 210.615
1028.553, 143.511
1029.801, 189.529
1031.049, 149.947
1032.297, 102.884
1033.545, 162.962
1034.793, 123.438
1036.040, 144.169
1037.287, 120.332
1038.534, 146.517
1039.781, 145.480
1041.027, 196.411
1042.274, 141.341
1043.520, 139.419
1044.766, 172.360
1046.012, 152.943
1047.257, 153.302
1048.503, 175.457
1049.748, 131.306
1050.993, 147.136
1052.238, 141.970
1053.483, 105.792
1054.727, 72.750
1055.971, 64.771
1057.216, 57.692
1058.459, 106.041
1059.703, 78.145
1060.947, 91.344
1062.190, 118.302
1063.433, 74.175
1064.676, 53.990
1065.919, 120.784
1067.162, 130.653
1068.404, 90.578
1069.646, 106.392
1070.888, 107.114
1072.130, 94.956
1073.372, 50.907
1074.613, 84.725
1075.855, 66.018
1077.096, 90.087
1078.337, 72.872
1079.578, 44.395
1080.818, 47.992
1082.059, 42.778
1083.299, 27.479
1084.539, 36.375
1085.779, 16.013
1087.018, 4.268
1088.258, 15.596
1089.497, 23.024
1090.736, 0.359
1091.975, 35.009
1093.213, 33.299
1094.452, 40.750
1095.690, 37.285
1096.928, 42.600
1098.166, 64.118
1099.404, 44.802
1100.642, 66.368
1101.879, 74.067
1103.116, 51.740
1104.353, 56.626
1105.590, 36.538
1106.827, 51.316
1108.063, 25.256
1109.299, 83.239
1110.536, 38.192
1111.771, 44.133
1113.007, 25.283
1114.243, 4.463
1115.478, 30.526
1116.713, 15.604
1117.948, 22.036
1119.183, 33.318
1120.418, 3.224
1121.652, 144.882
1122.886, 103.385
1124.120, 111.637
1125.354, 101.845
1126.588, 29.389
1127.821, 2.870
1129.055, 35.563
1130.288, 30.243
1131.521, 6.090
1132.753, 22.539
1133.986, 22.115
1135.218, 5.776
1136.450, 11.463
1137.682, 22.393
1138.914, 0.246
1140.146, 13.996
1141.377, 12.967
1142.609, 22.946
1143.840, 37.146
1145.071, 27.663
1146.301, 2.410
1147.532, 35.042
1148.762, 54.673
1149.992, 21.399
1151.222, 5.997
1152.452, 40.573
1153.682, 8.098
1154.911, 25.449
1156.140, 14.089
1157.369, 38.591
1158.598, 44.188
1159.827, 10.553
1161.055, 70.121
1162.284, 60.449
1163.512, 43.613
1164.740, 62.198
1165.967, 21.400
1167.195, 1.366
1168.422, 81.745
1169.650, 77.733
1170.877, 45.582
1172.103, 34.656
1173.330, 47.418
1174.557, 24.463
1175.783, 93.186
1177.009, 71.768
1178.235, 16.599
1179.461, 88.426
1180.686, 68.822
1181.912, 57.403
1183.137, 82.678
1184.362, 64.042
1185.587, 63.293
1186.811, 88.670
1188.036, 96.851
1189.260, 98.226
1190.484, 77.481
1191.708, 96.611
1192.932, 91.939
1194.155, 68.957
1195.378, 101.088
1196.602, 120.016
1197.825, 124.750
1199.047, 123.961
1200.270, 127.463
1201.492, 98.437
1202.715, 91.620
1203.937, 79.489
1205.159, 80.526
1206.380, 83.365
1207.602, 76.228
1208.823, 101.304
1210.044, 114.303
1211.265, 128.829
1212.486, 133.941
1213.707, 115.919
1214.927, 107.616
1216.147, 127.363
1217.367, 151.608
1218.587, 122.760
1219.807, 107.597
1221.027, 129.709
1222.246, 156.585
1223.465, 166.236
1224.684, 134.611
1225.903, 196.231
1227.121, 178.580
1228.340, 133.920
1229.558, 158.149
1230.776, 122.622
1231.994, 172.050
1233.212, 151.578
1234.429, 160.850
1235.646, 169.384
1236.864, 169.315
1238.081, 228.243
1239.297, 150.079
1240.514, 177.826
1241.730, 190.059
1242.947, 134.248
1244.163, 169.417
1245.378, 195.497
1246.594, 158.532
1247.810, 174.568
1249.025, 151.007
1250.240, 188.735
1251.455, 180.123
1252.670, 138.578
1253.885, 163.673
1255.099, 165.342
1256.313, 138.208
1257.527, 123.990
1258.741, 161.188
1259.955, 158.176
1261.168, 123.463
1262.382, 116.088
1263.595, 191.401
1264.808, 145.334
1266.021, 174.185
1267.233, 140.571
1268.446, 169.026
1269.658, 112.243
1270.870, 110.382
1272.082, 145.578
1273.294, 154.531
1274.505, 126.004
1275.716, 169.748
1276.928, 151.871
1278.139, 116.007
1279.349, 133.670
1280.560, 122.071
1281.770, 116.890
1282.981, 163.024
1284.191, 129.948
1285.401, 99.132
1286.610, 136.999
1287.820, 153.220
1289.029, 146.243
1290.239, 151.990
1291.448, 158.906
1292.656, 174.839
1293.865, 167.148
1295.073, 136.779
1296.282, 158.291
1297.490, 151.806
1298.698, 155.312
1299.906, 160.759
1301.113, 122.241
1302.320, 119.803
1303.528, 90.979
1304.735, 134.221
1305.942, 83.242
1307.148, 121.441
1308.355, 151.608
1309.561, 67.420
1310.767, 123.519
1311.973, 103.738
1313.179, 117.440
1314.384, 137.397
1315.590, 161.162
1316.795, 96.621
1318.000, 159.882
1319.205, 86.114
1320.410, 145.561
1321.614, 169.024
1322.819, 99.307
1324.023, 87.134
1325.227, 178.385
1326.431, 123.529
1327.634, 185.383
1328.838, 153.525
1330.041, 169.327
1331.244, 128.059
1332.447, 164.000
1333.650, 106.861
1334.852, 124.775
1336.055, 143.472
1337.257, 118.406
1338.459, 114.985
1339.661, 109.271
1340.862, 147.403
1342.064, 110.914
1343.265, 90.331
1344.466, 52.736
1345.667, 93.091
1346.868, 58.248
1348.068, 94.279
1349.269, 63.174
1350.469, 72.963
1351.669, 78.721
1352.869, 43.323
1354.069, 45.108
1355.268, 13.913
1356.468, 29.713
1357.667, 34.471
1358.866, 53.090
1360.065, 43.645
1361.263, 6.880
1362.462, 14.702
1363.660, 26.035
1364.858, 7.807
1366.056, 18.416
1367.254, 26.686
1368.451, 41.933
1369.649, 21.985
1370.846, 0.771
1372.043, 1.672
1373.240, 32.832
1374.436, 5.844
1375.633, 16.756
1376.829, 10.549
1378.025, 14.779
1379.221, 37.813
1380.417, 2.596
1381.613, 4.058
1382.808, 3.091
1384.003, 15.750
1385.199, 16.243
1386.393, 22.950
1387.588, 5.555
1388.783, 38.378
1389.977, 0.102
1391.171, 361.422
1392.365, 404.874
1393.559, 349.274
1394.753, 144.753
1395.946, 15.262
1397.140, 36.663
1398.333, 32.564
1399.526, 36.742
1400.719, 21.854
1401.911, 29.001
1403.104, 58.694
1404.296, 40.657
1405.488, 37.350
1406.680, 54.324
1407.872, 39.322
1409.063, 77.482
1410.255, 29.430
1411.446, 56.361
1412.637, 93.285
1413.828, 100.834
1415.018, 76.220
1416.209, 79.413
1417.399, 63.531
1418.589, 113.785
1419.779, 79.192
1420.969, 114.564
1422.159, 74.805
1423.348, 64.452
1424.537, 100.303
1425.726, 87.826
1426.915, 105.547
1428.104, 113.990
1429.293, 110.237
1430.481, 108.434
1431.669, 104.374
1432.857, 58.432
1434.045, 117.078
1435.233, 79.077
1436.420, 182.122
1437.608, 52.980
1438.795, 90.558
1439.982, 134.641
1441.169, 147.033
1442.355, 130.115
1443.542, 74.319
1444.728, 114.782
1445.914, 202.296
1447.100, 114.307
1448.286, 121.655
1449.472, 107.550
1450.657, 85.965
1451.842, 113.220
1453.027, 60.654
1454.212, 41.500
1455.397, 92.017
1456.581, 57.225
1457.766, 81.146
1458.950, 68.221
1460.134, 29.823
1461.318, 89.525
1462.501, 89.715
1463.685, 108.394
1464.868, 98.781
1466.051, 93.522
1467.234, 107.659
1468.417, 58.640
1469.600, 87.837
1470.782, 52.468
1471.965, 120.497
1473.147, 72.295
1474.329, 59.593
1475.510, 107.006
1476.692, 42.570
1477.873, 42.764
1479.055, 11.159
1480.236, 83.097
1481.416, 70.529
1482.597, 6.101
1483.778, 71.182
1484.958, 11.696
1486.138, 73.343
1487.318, 72.322
1488.498, 109.163
1489.678, 66.641
1490.857, 34.323
1492.037, 58.738
1493.216, 48.901
1494.395, 71.920
1495.574, 81.328
1496.752, 64.205
1497.931, 70.912
1499.109, 54.760
1500.287, 46.247
1501.465, 39.780
1502.643, 29.094
1503.820, 17.603
1504.998, 61.142
1506.175, 50.457
1507.352, 94.327
1508.529, 30.515
1509.706, 86.474
1510.882, 20.221
1512.059, 102.738
1513.235, 59.139
1514.411, 77.708
1515.587, 2.812
1516.762, 82.763
1517.938, 44.625
1519.113, 53.150
1520.288, 93.273
1521.463, 99.521
1522.638, 0.000
##END=



