##NAMES=Orthoserpierite
##RRUFFID=R050292
##IDEAL CHEMISTRY=CaCu_4_(SO_4_)_2_(OH)_6_&#183;3H_2_O
##LOCALITY=Platosa mine, Bermijillo, Durango, Mexico
##OWNER=RRUFF
##SOURCE=Peter Megaw
##DESCRIPTION=Turquoise-blue bladed crystals
##STATUS=The identification of this mineral is confirmed by single-crystal X-ray diffraction and chemical analysis.
##URL=rruff.info/R050292
##MEASURED CHEMISTRY=Ca_1.00_(Cu_3.19_Zn_0.81_)_Σ=4_(S_1.00_O_4_)_2_(OH)_6_·3H_2_O
113.462, 0.000
114.850, 133.048
116.238, 356.307
117.626, 635.792
119.013, 635.637
120.401, 497.471
121.788, 287.376
123.175, 166.131
124.562, 54.876
125.948, 17.061
127.335, 10.321
128.721, 32.290
130.107, 12.640
131.492, 112.199
132.878, 150.952
134.263, 155.350
135.648, 83.479
137.033, 131.618
138.418, 43.688
139.802, 129.457
141.186, 200.731
142.570, 166.370
143.954, 136.265
145.337, 132.334
146.721, 181.519
148.104, 257.912
149.487, 213.887
150.869, 279.323
152.252, 226.417
153.634, 242.489
155.016, 196.626
156.398, 262.089
157.779, 277.739
159.161, 286.011
160.542, 298.937
161.923, 307.886
163.303, 304.295
164.684, 279.187
166.064, 328.608
167.444, 405.600
168.824, 548.194
170.204, 654.425
171.583, 613.318
172.962, 571.900
174.341, 530.191
175.720, 304.211
177.099, 273.983
178.477, 211.529
179.855, 150.858
181.233, 93.979
182.611, 2.096
183.988, 20.355
185.365, 80.216
186.743, 46.627
188.119, 32.111
189.496, 108.008
190.872, 19.990
192.249, 64.842
193.625, 140.568
195.000, 106.175
196.376, 292.240
197.751, 326.450
199.126, 432.707
200.501, 577.422
201.876, 634.767
203.250, 801.280
204.625, 810.410
205.999, 1054.856
207.372, 1150.513
208.746, 1181.274
210.119, 1278.564
211.493, 1251.983
212.866, 1222.868
214.238, 1418.801
215.611, 1579.777
216.983, 1792.793
218.355, 1707.847
219.727, 1767.935
221.099, 1669.054
222.470, 1666.199
223.842, 1636.369
225.213, 1494.560
226.584, 1467.770
227.954, 1380.996
229.325, 1438.238
230.695, 1357.491
232.065, 1470.750
233.435, 1522.014
234.804, 1503.281
236.173, 1624.556
237.543, 1785.835
238.911, 1888.117
240.280, 2056.376
241.649, 2213.319
243.017, 2413.562
244.385, 2504.074
245.753, 2754.403
247.121, 2844.650
248.488, 2994.899
249.855, 3205.153
251.222, 3255.433
252.589, 3235.743
253.956, 3036.070
255.322, 2996.428
256.688, 2796.775
258.054, 2587.141
259.420, 2344.333
260.785, 2097.947
262.150, 1756.331
263.516, 1532.696
264.880, 1294.044
266.245, 1052.373
267.610, 852.682
268.974, 785.969
270.338, 560.234
271.702, 570.479
273.065, 237.705
274.429, 297.908
275.792, 227.093
277.155, 135.257
278.518, 10.135
279.880, 22.447
281.242, 59.699
282.605, 139.239
283.966, 104.414
285.328, 124.522
286.690, 81.595
288.051, 57.639
289.412, 118.660
290.773, 70.690
292.133, 117.724
293.494, 111.782
294.854, 0.870
296.214, 55.966
297.574, 32.089
298.934, 76.235
300.293, 70.578
301.652, 128.382
303.011, 132.172
304.370, 23.946
305.728, 96.691
307.087, 81.417
308.445, 174.117
309.803, 279.797
311.160, 294.456
312.518, 299.090
313.875, 412.694
315.232, 536.260
316.589, 645.806
317.946, 803.328
319.302, 957.829
320.658, 1004.303
322.014, 1115.737
323.370, 1293.129
324.726, 1311.472
326.081, 1471.767
327.436, 1346.016
328.791, 1374.221
330.146, 1455.385
331.500, 1476.509
332.855, 1467.595
334.209, 1500.374
335.563, 1459.656
336.917, 1480.636
338.270, 1441.582
339.623, 1372.497
340.976, 1343.381
342.329, 1314.235
343.682, 1199.061
345.034, 1189.856
346.387, 1168.596
347.739, 834.961
349.090, 846.677
350.442, 640.368
351.793, 661.294
353.145, 632.936
354.496, 525.553
355.846, 486.147
357.197, 435.979
358.547, 391.152
359.897, 355.771
361.247, 313.174
362.597, 290.182
363.947, 199.397
365.296, 245.260
366.645, 224.996
367.994, 212.571
369.343, 320.380
370.691, 270.765
372.039, 350.369
373.387, 197.264
374.735, 234.587
376.083, 300.909
377.430, 278.043
378.778, 318.528
380.125, 308.577
381.471, 346.390
382.818, 437.199
384.164, 448.526
385.511, 532.130
386.857, 633.408
388.202, 575.049
389.548, 661.404
390.893, 829.288
392.238, 912.005
393.583, 850.963
394.928, 1065.416
396.273, 1045.361
397.617, 1255.144
398.961, 1404.880
400.305, 1550.631
401.649, 1599.877
402.992, 1803.960
404.335, 2193.306
405.678, 2192.653
407.021, 2692.079
408.364, 3151.279
409.706, 3210.469
411.049, 3790.178
412.391, 4209.346
413.733, 4778.967
415.074, 5088.117
416.416, 5777.479
417.757, 6296.613
419.098, 6685.732
420.439, 7034.844
421.779, 7293.944
423.120, 7433.035
424.460, 7532.114
425.800, 7461.186
427.140, 7280.244
428.479, 6979.295
429.818, 6448.342
431.158, 6017.377
432.497, 5386.400
433.835, 4805.415
435.174, 4564.418
436.512, 4123.410
437.850, 3952.392
439.188, 3871.252
440.526, 3767.506
441.863, 3664.354
443.201, 3756.178
444.538, 3792.963
445.875, 3861.885
447.211, 3659.494
448.548, 3539.748
449.884, 3481.450
451.220, 3249.270
452.556, 3080.049
453.892, 2957.823
455.227, 2935.918
456.562, 2950.924
457.897, 2952.419
459.232, 2945.363
460.567, 3015.488
461.901, 3053.271
463.235, 3281.705
464.569, 3140.131
465.903, 3306.179
467.237, 3284.272
468.570, 3352.100
469.903, 3300.612
471.236, 3209.227
472.569, 3277.828
473.902, 3306.412
475.234, 3524.985
476.566, 3403.541
477.898, 3442.082
479.230, 3300.609
480.562, 3409.123
481.893, 3507.622
483.224, 3296.106
484.555, 3414.576
485.886, 3403.033
487.216, 3361.477
488.547, 3159.905
489.877, 2918.320
491.207, 2736.723
492.536, 2775.112
493.866, 2383.487
495.195, 2501.851
496.524, 2180.199
497.853, 2078.537
499.182, 1896.865
500.510, 1875.182
501.839, 1753.484
503.167, 1571.774
504.495, 1470.052
505.822, 1378.316
507.150, 1176.568
508.477, 1094.811
509.804, 1013.040
511.131, 791.259
512.458, 799.469
513.784, 757.678
515.110, 655.874
516.436, 424.059
517.762, 482.230
519.088, 330.409
520.413, 338.559
521.738, 176.697
523.063, 174.824
524.388, 352.725
525.713, 130.811
527.037, 208.803
528.362, 56.735
529.686, 194.821
531.009, 82.898
532.333, 10.967
533.656, 21.205
534.980, 176.749
536.303, 34.851
537.625, 93.140
538.948, 18.310
540.270, 59.650
541.593, 2.266
542.915, 23.975
544.236, 53.933
545.558, 87.735
546.879, 40.112
548.201, 42.053
549.522, 13.586
550.842, 34.192
552.163, 58.817
553.483, 108.898
554.803, 6.605
556.123, 24.515
557.443, 32.593
558.763, 89.651
560.082, 168.235
561.401, 64.041
562.720, 113.856
564.039, 112.793
565.358, 90.408
566.676, 188.593
567.994, 146.237
569.312, 13.883
570.630, 211.598
571.947, 29.359
573.265, 267.332
574.582, 85.435
575.899, 213.646
577.216, 231.294
578.532, 269.380
579.848, 347.037
581.165, 314.988
582.481, 433.130
583.796, 456.855
585.112, 398.894
586.427, 586.629
587.742, 625.720
589.057, 753.346
590.372, 790.961
591.687, 958.592
593.001, 1226.210
594.315, 1103.863
595.629, 1411.508
596.943, 1629.158
598.256, 1566.829
599.570, 1864.503
600.883, 1892.177
602.196, 2060.496
603.508, 2058.233
604.821, 2146.576
606.133, 2264.394
607.445, 2142.455
608.757, 2080.320
610.069, 2068.723
611.381, 2146.650
612.692, 2104.616
614.003, 1962.622
615.314, 2040.633
616.625, 1908.869
617.935, 1797.049
619.246, 1815.137
620.556, 1644.642
621.866, 1442.863
623.175, 1460.951
624.485, 1279.039
625.794, 1287.119
627.103, 1135.504
628.412, 1073.565
629.721, 911.616
631.030, 869.683
632.338, 977.711
633.646, 835.727
634.954, 913.733
636.262, 671.729
637.569, 819.713
638.877, 777.771
640.184, 745.731
641.491, 1023.759
642.798, 841.696
644.104, 949.623
645.410, 1037.585
646.717, 1045.487
648.023, 1123.378
649.328, 1141.258
650.634, 999.366
651.939, 947.222
653.244, 1015.066
654.549, 1102.942
655.854, 781.670
657.159, 919.477
658.463, 797.272
659.767, 775.057
661.071, 792.838
662.375, 580.598
663.679, 698.344
664.982, 566.079
666.285, 593.803
667.588, 461.864
668.891, 369.562
670.193, 399.463
671.496, 337.136
672.798, 444.846
674.100, 352.520
675.402, 140.154
676.703, 518.008
678.005, 215.617
679.306, 313.213
680.607, 390.796
681.908, 159.218
683.208, 446.900
684.509, 274.709
685.809, 251.898
687.109, 169.419
688.409, 236.695
689.708, 193.639
691.008, 259.400
692.307, 57.207
693.606, 281.842
694.905, 9.398
696.204, 335.393
697.502, 112.485
698.800, 59.469
700.098, 354.798
701.396, 44.401
702.694, 175.780
703.991, 242.728
705.289, 162.765
706.586, 203.132
707.883, 140.110
709.179, 142.544
710.476, 189.996
711.772, 111.016
713.068, 67.575
714.364, 160.644
715.660, 101.829
716.955, 139.264
718.250, 82.025
719.545, 11.065
720.840, 166.087
722.135, 20.113
723.430, 220.942
724.724, 190.210
726.018, 137.454
727.312, 124.852
728.606, 71.261
729.899, 38.125
731.192, 20.738
732.486, 276.437
733.779, 63.276
735.071, 276.528
736.364, 103.630
737.656, 65.689
738.948, 212.966
740.240, 69.748
741.532, 156.869
742.824, 3.626
744.115, 191.328
745.406, 198.371
746.697, 174.979
747.988, 186.766
749.279, 200.582
750.569, 212.751
751.859, 210.900
753.149, 254.095
754.439, 240.970
755.729, 227.472
757.018, 53.938
758.307, 270.907
759.596, 68.537
760.885, 275.473
762.174, 151.951
763.462, 218.560
764.751, 84.899
766.039, 221.598
767.327, 328.342
768.614, 225.244
769.902, 211.498
771.189, 159.841
772.476, 176.390
773.763, 233.149
775.050, 19.317
776.336, 180.525
777.622, 387.196
778.909, 243.373
780.194, 319.439
781.480, 135.485
782.766, 371.508
784.051, 257.509
785.336, 203.487
786.621, 239.443
787.906, 225.377
789.191, 351.494
790.475, 287.386
791.759, 393.300
793.043, 189.148
794.327, 214.974
795.610, 190.779
796.894, 266.562
798.177, 242.322
799.460, 198.062
800.743, 303.779
802.026, 249.476
803.308, 225.150
804.590, 150.805
805.872, 356.436
807.154, 272.044
808.436, 197.632
809.717, 33.199
810.999, 358.735
812.280, 234.250
813.561, 289.744
814.841, 205.217
816.122, 400.668
817.402, 256.099
818.682, 301.509
819.962, 226.898
821.242, 122.267
822.521, 407.610
823.801, 2.934
825.080, 318.215
826.359, 193.476
827.638, 198.715
828.916, 333.933
830.195, 149.112
831.473, 244.287
832.751, 239.441
834.029, 284.576
835.306, 29.689
836.584, 164.774
837.861, 139.837
839.138, 214.877
840.415, 289.898
841.691, 204.900
842.968, 279.882
844.244, 134.847
845.520, 119.798
846.796, 274.351
848.072, 129.271
849.347, 123.603
850.623, 218.489
851.898, 123.221
853.173, 237.712
854.447, 7.448
855.722, 186.924
856.996, 261.728
858.270, 126.514
859.544, 120.626
860.818, 215.391
862.092, 130.913
863.365, 55.662
864.638, 209.610
865.911, 204.823
867.184, 80.942
868.457, 23.559
869.729, 77.869
871.002, 32.315
872.274, 166.538
873.546, 99.693
874.817, 95.857
876.089, 42.037
877.360, 17.720
878.631, 6.560
879.902, 50.736
881.173, 174.838
882.443, 168.701
883.714, 77.590
884.984, 123.880
886.254, 160.165
887.523, 86.251
888.793, 87.706
890.062, 68.654
891.332, 34.745
892.601, 148.603
893.869, 61.983
895.138, 143.940
896.407, 1.944
897.675, 61.841
898.943, 165.609
900.211, 70.660
901.478, 156.967
902.746, 136.622
904.013, 49.803
905.280, 96.273
906.547, 67.184
907.814, 150.622
909.080, 204.046
910.347, 26.836
911.613, 9.766
912.879, 23.041
914.145, 126.397
915.410, 89.523
916.676, 152.854
917.941, 55.670
919.206, 38.974
920.471, 2.259
921.735, 235.529
923.000, 31.214
924.264, 61.818
925.528, 4.907
926.792, 318.102
928.056, 90.139
929.319, 292.859
930.583, 115.972
931.846, 139.073
933.109, 302.166
934.371, 164.933
935.634, 218.003
936.896, 201.062
938.159, 204.086
939.421, 347.127
940.682, 80.159
941.944, 433.180
943.205, 116.194
944.467, 319.196
945.728, 332.104
946.989, 315.086
948.249, 287.980
949.510, 210.974
950.770, 285.827
952.030, 446.891
953.290, 369.863
954.550, 472.827
955.809, 415.784
957.069, 428.490
958.328, 601.431
959.587, 534.364
960.846, 687.250
962.104, 749.262
963.363, 732.172
964.621, 625.073
965.879, 767.983
967.137, 970.878
968.394, 1103.776
969.652, 926.668
970.909, 1249.550
972.166, 1112.427
973.423, 1694.943
974.680, 1867.801
975.936, 2098.438
977.193, 2701.284
978.449, 3294.072
979.705, 3866.879
980.961, 5489.705
982.216, 7222.292
983.472, 10545.123
984.727, 14897.948
985.982, 19930.766
987.237, 24382.732
988.492, 26725.381
989.746, 28827.939
991.000, 31000.758
992.254, 30013.568
993.508, 27376.373
994.762, 22249.178
996.016, 16381.695
997.269, 11774.154
998.522, 7506.951
999.775, 5639.440
1001.028, 4041.907
1002.281, 3054.688
1003.533, 2217.148
1004.785, 1919.923
1006.037, 1450.119
1007.289, 1462.838
1008.541, 1045.601
1009.792, 968.083
1011.044, 950.622
1012.295, 823.459
1013.546, 886.171
1014.796, 558.564
1016.047, 626.870
1017.297, 439.795
1018.547, 536.228
1019.797, 578.533
1021.047, 321.070
1022.297, 483.438
1023.546, 266.393
1024.796, 379.084
1026.045, 234.798
1027.294, 363.962
1028.542, 224.672
1029.791, 356.860
1031.039, 149.415
1032.287, 352.478
1033.535, 575.581
1034.783, 2.693
1036.031, 306.950
1037.278, 230.065
1038.525, 116.761
1039.772, 509.592
1041.019, 257.467
1042.266, 110.100
1043.512, 273.212
1044.758, 266.112
1046.005, 559.211
1047.250, 484.501
1048.496, 34.974
1049.742, 458.172
1050.987, 316.227
1052.232, 348.869
1053.477, 372.261
1054.722, 441.950
1055.967, 467.328
1057.211, 541.347
1058.455, 504.549
1059.699, 628.588
1060.943, 541.467
1062.187, 833.871
1063.430, 696.553
1064.674, 890.264
1065.917, 843.234
1067.160, 686.449
1068.403, 1049.609
1069.645, 1092.373
1070.888, 815.822
1072.130, 1149.031
1073.372, 1090.125
1074.614, 1063.557
1075.855, 1343.598
1077.097, 1729.902
1078.338, 1677.902
1079.579, 1921.240
1080.820, 1945.197
1082.061, 1848.391
1083.302, 2061.582
1084.542, 2145.531
1085.782, 1838.717
1087.022, 1922.447
1088.262, 1715.963
1089.502, 1520.111
1090.741, 1463.289
1091.980, 1547.252
1093.219, 1240.371
1094.458, 1353.951
1095.697, 1147.230
1096.936, 1180.510
1098.174, 1230.869
1099.412, 1224.010
1100.650, 1178.803
1101.888, 1512.689
1103.126, 1265.990
1104.363, 1330.035
1105.600, 1103.658
1106.837, 1446.945
1108.074, 1401.295
1109.311, 1535.158
1110.547, 1638.252
1111.784, 1521.859
1113.020, 1754.943
1114.256, 1902.277
1115.492, 1865.959
1116.727, 2009.803
1117.963, 2193.727
1119.198, 2256.893
1120.433, 2540.680
1121.668, 2743.727
1122.903, 2746.770
1124.137, 3020.465
1125.371, 3324.166
1126.606, 3597.320
1127.840, 4390.973
1129.073, 4124.537
1130.307, 5148.184
1131.540, 4955.801
1132.774, 4998.799
1134.007, 5232.387
1135.239, 4566.824
1136.472, 4179.797
1137.705, 3958.094
1138.937, 2911.053
1140.169, 2785.135
1141.401, 2268.824
1142.633, 1831.750
1143.864, 1636.402
1145.096, 1280.244
1146.327, 1233.664
1147.558, 1187.367
1148.789, 1071.025
1150.020, 694.303
1151.250, 868.570
1152.480, 551.588
1153.711, 854.932
1154.941, 598.871
1156.170, 562.305
1157.400, 580.559
1158.629, 423.939
1159.859, 742.332
1161.088, 535.199
1162.317, 468.861
1163.545, 931.723
1164.774, 841.025
1166.002, 824.057
1167.230, 984.834
1168.458, 869.363
1169.686, 967.734
1170.913, 1187.471
1172.141, 802.375
1173.368, 947.279
1174.595, 1073.021
1175.822, 1026.736
1177.049, 1281.143
1178.275, 815.578
1179.502, 838.959
1180.728, 624.736
1181.954, 827.973
1183.179, 647.609
1184.405, 484.453
1185.631, 410.812
1186.856, 334.188
1188.081, 232.133
1189.306, 384.963
1190.530, 268.119
1191.755, 141.434
1192.979, 374.695
1194.203, 50.971
1195.427, 114.336
1196.651, 276.830
1197.875, 186.814
1199.098, 249.279
1200.322, 131.918
1201.545, 135.857
1202.768, 238.307
1203.990, 331.455
1205.213, 234.551
1206.435, 6.951
1207.657, 159.934
1208.879, 112.273
1210.101, 284.949
1211.323, 68.113
1212.544, 210.387
1213.766, 273.275
1214.987, 135.479
1216.208, 347.652
1217.428, 10.295
1218.649, 302.842
1219.869, 354.928
1221.089, 87.668
1222.309, 279.703
1223.529, 102.129
1224.749, 124.248
1225.968, 196.213
1227.188, 28.496
1228.407, 340.395
1229.626, 262.266
1230.845, 54.613
1232.063, 266.443
1233.282, 108.244
1234.500, 160.010
1235.718, 11.742
1236.936, 193.436
1238.153, 55.096
1239.371, 306.717
1240.588, 148.307
1241.805, 219.855
1243.022, 221.371
1244.239, 107.152
1245.456, 564.246
1246.672, 14.385
1247.889, 76.955
1249.105, 218.270
1250.321, 39.557
1251.536, 141.086
1252.752, 222.342
1253.967, 3.541
1255.182, 84.711
1256.397, 295.855
1257.612, 146.980
1258.827, 328.078
1260.041, 50.850
1261.256, 130.934
1262.470, 91.914
1263.684, 72.865
1264.897, 254.473
1266.111, 105.342
1267.324, 356.840
1268.538, 307.646
1269.751, 128.420
1270.964, 129.477
1272.176, 260.188
1273.389, 140.867
1274.601, 162.252
1275.813, 142.760
1277.025, 46.705
1278.237, 323.984
1279.449, 154.295
1280.660, 14.615
1281.871, 314.994
1283.083, 54.967
1284.293, 375.902
1285.504, 55.758
1286.715, 125.527
1287.925, 375.486
1289.135, 5.102
1290.345, 84.838
1291.555, 184.639
1292.765, 114.096
1293.974, 123.854
1295.184, 213.217
1296.393, 32.500
1297.602, 272.920
1298.811, 192.113
1300.019, 71.264
1301.228, 172.727
1302.436, 48.213
1303.644, 180.783
1304.852, 49.848
1306.060, 120.963
1307.267, 110.562
1308.475, 299.318
1309.682, 61.740
1310.889, 266.904
1312.096, 84.494
1313.302, 24.035
1314.509, 45.322
1315.715, 66.906
1316.921, 11.436
1318.127, 11.619
1319.333, 161.842
1320.539, 106.301
1321.744, 34.393
1322.949, 32.438
1324.154, 170.430
1325.359, 161.637
1326.564, 196.197
1327.769, 66.025
1328.973, 18.332
1330.177, 10.709
1331.381, 166.852
1332.585, 35.648
1333.789, 291.775
1334.992, 209.150
1336.196, 166.475
1337.399, 173.598
1338.602, 9.182
1339.804, 137.432
1341.007, 514.260
1342.210, 68.672
1343.412, 458.289
1344.614, 305.236
1345.816, 61.840
1347.018, 588.400
1348.219, 175.133
1349.420, 181.816
1350.622, 508.459
1351.823, 194.197
1353.024, 370.523
1354.224, 256.598
1355.425, 133.020
1356.625, 338.801
1357.825, 185.129
1359.025, 341.416
1360.225, 447.328
1361.425, 223.748
1362.624, 239.039
1363.823, 605.158
1365.023, 181.236
1366.222, 436.705
1367.420, 242.703
1368.619, 308.148
1369.817, 593.645
1371.016, 259.742
1372.214, 444.766
1373.411, 610.611
1374.609, 232.713
1375.807, 357.746
1377.004, 503.520
1378.201, 428.736
1379.398, 474.154
1380.595, 388.910
1381.792, 383.848
1382.988, 568.080
1384.185, 403.443
1385.381, 397.658
1386.577, 521.826
1387.773, 425.711
1388.968, 447.434
1390.164, 453.873
1391.359, 381.572
1392.554, 519.635
1393.749, 516.254
1394.944, 284.363
1396.138, 338.443
1397.333, 385.473
1398.527, 542.865
1399.721, 350.438
1400.915, 458.029
1402.108, 425.414
1403.302, 402.293
1404.495, 164.482
1405.689, 361.818
1406.882, 518.104
1408.074, 179.793
1409.267, 515.363
1410.460, 191.023
1411.652, 496.930
1412.844, 522.574
1414.036, 277.859
1415.228, 524.461
1416.419, 609.695
1417.611, 169.389
1418.802, 526.506
1419.993, 322.113
1421.184, 260.135
1422.375, 403.982
1423.565, 283.682
1424.756, 253.262
1425.946, 791.096
1427.136, 102.254
1428.326, 428.729
1429.516, 433.266
1430.705, 197.273
1431.895, 363.631
1433.084, 217.467
1434.273, 190.205
1435.462, 468.076
1436.650, 151.254
1437.839, 235.426
1439.027, 517.453
1440.216, 29.525
1441.404, 762.680
1442.591, 436.170
1443.779, 11.295
1444.966, 391.512
1446.154, 444.502
1447.341, 137.516
1448.528, 640.016
1449.715, 17.387
1450.901, 345.500
1452.088, 178.932
1453.274, 301.297
1454.460, 354.469
1455.646, 577.562
1456.832, 9.400
1458.017, 523.566
1459.203, 546.486
1460.388, 179.385
1461.573, 472.121
1462.758, 314.125
1463.943, 356.490
1465.127, 558.729
1466.312, 410.760
1467.496, 370.869
1468.680, 642.553
1469.864, 362.477
1471.047, 462.264
1472.231, 422.666
1473.414, 513.615
1474.597, 652.732
1475.780, 312.918
1476.963, 644.055
1478.146, 605.188
1479.328, 354.771
1480.511, 526.523
1481.693, 728.809
1482.875, 260.775
1484.057, 422.561
1485.238, 761.840
1486.420, 224.799
1487.601, 659.807
1488.782, 341.080
1489.963, 294.021
1491.144, 595.516
1492.324, 267.777
1493.505, 301.492
1494.685, 703.334
1495.865, 204.287
1497.045, 495.963
1498.225, 357.584
1499.404, 409.242
1500.584, 350.994
1501.763, 702.846
1502.942, 124.861
1504.121, 606.961
1505.300, 319.188
1506.478, 521.400
1507.657, 593.688
1508.835, 226.211
1510.013, 279.326
1511.191, 542.875
1512.369, 107.203
1513.546, 361.920
1514.724, 617.062
1515.901, 57.281
1517.078, 676.498
1518.255, 393.244
1519.431, 440.895
1520.608, 539.580
1521.784, 373.189
1522.960, 336.752
1524.136, 558.129
1525.312, 13.629
1526.488, 342.600
1527.663, 119.438
1528.839, 0.000
##END=



